myot,myox,myoy,myoz
1455558132,myox,myoy,myoz
611041306683,-1.0083,-0.0219727,-0.143066
611041328013,-1.00928,-0.0185547,-0.147949
611041343012,-1.00781,-0.0209961,-0.150391
611041365480,-1.00391,-0.0253906,-0.144043
611041389125,-1.00977,-0.0209961,-0.149414
611041404137,-1.01123,-0.0273438,-0.148438
611041449222,-1.01123,-0.0263672,-0.152344
611041465655,-1.00439,-0.0219727,-0.150879
611041473047,-1.00586,-0.0209961,-0.148438
611041487437,-1.00684,-0.0229492,-0.148438
611041508712,-1.01025,-0.0180664,-0.146484
611041524451,-1.01074,-0.0200195,-0.146484
611041546718,-1.0083,-0.0273438,-0.142578
611041575329,-1.00928,-0.0214844,-0.14502
611041587922,-1.00195,-0.0214844,-0.146484
611041605982,-1.00439,-0.0263672,-0.148926
611041636624,-1.00781,-0.0229492,-0.146973
611041643544,-1.00928,-0.0224609,-0.149902
611041667433,-1.00879,-0.0307617,-0.146484
611041688538,-1.0083,-0.0229492,-0.15332
611041703470,-1.00488,-0.0209961,-0.146484
611041725946,-1.01025,-0.0209961,-0.149902
611041748471,-1.00928,-0.0229492,-0.149902
611041762785,-1.01074,-0.0229492,-0.148926
611041785987,-1.01025,-0.0224609,-0.148926
611041808460,-1.00684,-0.0249023,-0.149902
611041822786,-1.00391,-0.0136719,-0.15332
611041845932,-1.00928,-0.0175781,-0.152832
611041868488,-1.01025,-0.0253906,-0.147461
611041882819,-1.01221,-0.0175781,-0.144531
611041905953,-1.00781,-0.0175781,-0.150391
611041928459,-1.00439,-0.0297852,-0.157715
611041942850,-1.00781,-0.0185547,-0.152344
611041966006,-1.01074,-0.0209961,-0.147461
611041988607,-1.01465,-0.0288086,-0.152344
611042002873,-1.00781,-0.0229492,-0.153809
611042025986,-1.00342,-0.0224609,-0.151855
611042048532,-1.0083,-0.0209961,-0.143066
611042062880,-1.00439,-0.0209961,-0.144043
611042086046,-1.01318,-0.0209961,-0.149414
611042116658,-1.00977,-0.0170898,-0.144531
611042122798,-1.00928,-0.0175781,-0.147461
611042145982,-1.00635,-0.0224609,-0.148926
611042168453,-1.00439,-0.0219727,-0.154297
611042182818,-1.00439,-0.019043,-0.148926
611042205967,-1.00781,-0.0195312,-0.144531
611042228497,-1.00781,-0.0258789,-0.148438
611042242815,-1.00732,-0.0258789,-0.145996
611042265934,-1.00293,-0.0234375,-0.148438
611042288486,-1.01123,-0.0214844,-0.145996
611042302784,-1.00732,-0.0234375,-0.148926
611042326026,-1.00439,-0.0224609,-0.147949
611042348446,-1.00684,-0.0229492,-0.150879
611042362825,-1.00195,-0.0214844,-0.148438
611042386061,-1.01074,-0.019043,-0.149902
611042408554,-1.00928,-0.0239258,-0.144531
611042422868,-1.01025,-0.0205078,-0.152344
611042446054,-1.01025,-0.0195312,-0.147461
611042469999,-1.00879,-0.0209961,-0.146973
611042482932,-1.00391,-0.0258789,-0.152832
611042506048,-1.00586,-0.0209961,-0.146973
611042528523,-1.00684,-0.019043,-0.148926
611042542963,-1.0083,-0.019043,-0.143066
611042565407,-1.01123,-0.0180664,-0.146973
611042587900,-1.01514,-0.0229492,-0.148926
611042602865,-1.00293,-0.0288086,-0.148926
611042625369,-1.00684,-0.0195312,-0.146484
611042647939,-1.00537,-0.0136719,-0.147461
611042662860,-1.00537,-0.0268555,-0.143066
611042685431,-1.00879,-0.0214844,-0.143555
611042707857,-1.00684,-0.0185547,-0.146484
611042722796,-1.00684,-0.0229492,-0.142578
611042745297,-1.00732,-0.0166016,-0.149414
611042767895,-1.0083,-0.0126953,-0.152832
611042782806,-1.00781,-0.0239258,-0.145508
611042805354,-1.00537,-0.0229492,-0.144531
611042827823,-1.00977,-0.0219727,-0.154297
611042842843,-1.00732,-0.0292969,-0.149902
611042865328,-1.00635,-0.0224609,-0.148926
611042887833,-1.00293,-0.0185547,-0.151855
611042902831,-1.01074,-0.0185547,-0.141113
611042925430,-1.00977,-0.0229492,-0.142578
611042947887,-1.01123,-0.0273438,-0.147461
611042962828,-1.00781,-0.0170898,-0.147461
611042985392,-1.00635,-0.0258789,-0.150391
611043007920,-1.00928,-0.0170898,-0.143066
611043024327,-1.00488,-0.0195312,-0.148926
611043045398,-1.00732,-0.0239258,-0.146484
611043067825,-1.00781,-0.0229492,-0.14502
611043084297,-1.00879,-0.0195312,-0.147461
611043105355,-1.00342,-0.0229492,-0.151367
611043127785,-1.00781,-0.0195312,-0.153809
611043150993,-1.00732,-0.0229492,-0.151855
611043165302,-1.0083,-0.0205078,-0.147461
611043187838,-1.00732,-0.0244141,-0.146973
611043205775,-1.00635,-0.0244141,-0.145996
611043225298,-1.00879,-0.0214844,-0.14209
611043241779,-1.01221,-0.0185547,-0.147949
611043264274,-1.00879,-0.0258789,-0.154297
611043285288,-1.00684,-0.0234375,-0.146973
611043301761,-1.00488,-0.0195312,-0.145996
611043324264,-1.00977,-0.0200195,-0.144531
611043345334,-1.00635,-0.0229492,-0.148926
611043361769,-1.00684,-0.0214844,-0.151855
611043384291,-1.00439,-0.0209961,-0.152832
611043405424,-1.00732,-0.0175781,-0.143555
611043423307,-1.00732,-0.0214844,-0.142578
611043444276,-1.0083,-0.019043,-0.146484
611043465302,-1.01074,-0.0253906,-0.14502
611043481949,-1.00684,-0.015625,-0.149902
611043504367,-1.00732,-0.0219727,-0.149902
611043525433,-1.00732,-0.0200195,-0.149414
611043541872,-1.00977,-0.0200195,-0.148926
611043564368,-1.00879,-0.0224609,-0.150391
611043585392,-1.00195,-0.0229492,-0.145508
611043601797,-1.00879,-0.0166016,-0.143555
611043624371,-1.00732,-0.0244141,-0.144043
611043645369,-1.00879,-0.0244141,-0.148926
611043661769,-1.00586,-0.0205078,-0.145508
611043684279,-1.00635,-0.0234375,-0.14502
611043705339,-1.00586,-0.0249023,-0.151367
611043721740,-1.00635,-0.0219727,-0.148926
611043744252,-1.00977,-0.0229492,-0.154785
611043765360,-1.00781,-0.0273438,-0.146484
611043783296,-1.00586,-0.0268555,-0.148438
611043804311,-1.00684,-0.0195312,-0.148926
611043825312,-1.00635,-0.0219727,-0.151367
611043841777,-1.00684,-0.0224609,-0.146973
611043864279,-1.00879,-0.0219727,-0.140625
611043885311,-1.00928,-0.0205078,-0.148926
611043901795,-1.00537,-0.0209961,-0.145996
611043924324,-1.00293,-0.0214844,-0.15625
611043945380,-1.00293,-0.019043,-0.145996
611043961840,-1.01074,-0.0180664,-0.152832
611043984368,-1.00635,-0.0214844,-0.150391
611044006835,-1.00684,-0.0146484,-0.146973
611044021840,-1.00781,-0.0224609,-0.147461
611044044271,-1.00635,-0.019043,-0.149414
611044066803,-1.00977,-0.0258789,-0.151855
611044081754,-1.0083,-0.0268555,-0.143555
611044104324,-1.00684,-0.0185547,-0.151367
611044126806,-1.00586,-0.0205078,-0.144043
611044143272,-1.00488,-0.0249023,-0.140625
611044164276,-1.00293,-0.019043,-0.150391
611044186825,-1.00732,-0.0258789,-0.150391
611044203287,-1.00928,-0.0185547,-0.145996
611044224254,-1.01562,-0.0175781,-0.145508
611044246848,-1.01953,-0.0273438,-0.141113
611044263357,-1.01904,-0.0283203,-0.153809
611044284389,-1.01025,-0.0307617,-0.157715
611044306898,-1.00293,-0.0234375,-0.155273
611044323374,-1.00098,-0.0141602,-0.154785
611044344295,-1.00098,-0.00830078,-0.144531
611044366938,-1.00195,-0.0107422,-0.140625
611044383324,-1.00635,-0.0214844,-0.128418
611044404336,-1.00439,-0.0249023,-0.137207
611044426814,-1.00732,-0.0146484,-0.145508
611044448517,-1.0083,-0.0131836,-0.142578
611044463492,-1.00098,-0.0180664,-0.144043
611044485988,-1.00781,-0.0229492,-0.145996
611044508512,-1.00684,-0.0332031,-0.146973
611044523511,-1.01123,-0.0419922,-0.146484
611044546023,-1.0083,-0.0478516,-0.146484
611044568515,-1.00049,-0.0375977,-0.153809
611044583545,-1.00146,-0.0268555,-0.160156
611044606013,-1.00049,-0.019043,-0.163086
611044628615,-1.00684,-0.0141602,-0.156738
611044643625,-1.00928,-0.0175781,-0.151855
611044666046,-1.02197,-0.0322266,-0.140137
611044688599,-1.02197,-0.034668,-0.140137
611044703568,-1.01611,-0.0307617,-0.143555
611044726168,-1.00244,-0.0214844,-0.148438
611044748524,-1.00586,-0.00488281,-0.162598
611044763609,-1.00244,-0.0170898,-0.156738
611044786031,-1.00342,-0.0146484,-0.147949
611044808539,-1.01025,-0.0209961,-0.149902
611044823550,-1.00928,-0.0249023,-0.145508
611044846019,-1.00146,-0.0175781,-0.155762
611044868525,-1.00391,-0.00830078,-0.154785
611044891010,-1.00391,-0.00878906,-0.155273
611044906064,-1.00439,-0.012207,-0.150391
611044928618,-1.00195,-0.0136719,-0.148926
611044943575,-1.01416,-0.0180664,-0.155762
611044966160,-1.00928,-0.0214844,-0.155273
611044988625,-1.0083,-0.012207,-0.157715
611045003598,-1.00439,-0.0175781,-0.163574
611045026097,-1.00586,-0.0166016,-0.162109
611045042289,-1.00439,-0.0107422,-0.159668
611045063618,-1.00928,-0.0180664,-0.15918
611045086068,-1.00732,-0.0141602,-0.153809
611045101992,-1.00098,-0.0136719,-0.153809
611045125051,-1.00781,-0.0146484,-0.161133
611045146097,-1.00342,-0.0185547,-0.154297
611045161803,-0.988281,-0.00683594,-0.154785
611045184974,-1.00098,-0.0126953,-0.139648
611045206024,-1.02246,-0.00732422,-0.148438
611045221786,-1.02295,-0.015625,-0.161621
611045245000,-1.00391,-0.0361328,-0.160156
611045266075,-0.994141,-0.0361328,-0.164062
611045281914,-0.993652,-0.0161133,-0.164062
611045304977,-1.00732,-0.0249023,-0.150391
611045326032,-1.0166,-0.0078125,-0.141113
611045341833,-1.01172,-0.0136719,-0.147461
611045364971,-1.01025,-0.0332031,-0.15332
611045385875,-0.999512,-0.0209961,-0.161621
611045401843,-0.992188,-0.0283203,-0.16748
611045425092,-0.996582,-0.0170898,-0.182129
611045446100,-0.999512,-0.0131836,-0.1875
611045462008,-1.00488,-0.0302734,-0.19873
611045484993,-1.00391,-0.027832,-0.19043
611045506069,-0.993164,-0.0185547,-0.194336
611045521808,-0.995605,-0.0239258,-0.189941
611045544950,-0.999512,-0.027832,-0.197754
611045566045,-1.00391,-0.0244141,-0.188965
611045581903,-1.00684,-0.0356445,-0.188965
611045604976,-1.00684,-0.0205078,-0.196289
611045626024,-1.00098,-0.0258789,-0.201172
611045641808,-0.993652,-0.0209961,-0.205566
611045664949,-0.998047,-0.0258789,-0.202637
611045686138,-0.994141,-0.0205078,-0.201172
611045701922,-0.989746,-0.0249023,-0.20166
611045725124,-0.988281,-0.0253906,-0.190918
611045746095,-0.999512,-0.0322266,-0.201172
611045761835,-1.00879,-0.0258789,-0.206543
611045785097,-1.00488,-0.0498047,-0.20752
611045806143,-0.998047,-0.0537109,-0.206543
611045821984,-1.00098,-0.0268555,-0.20459
611045844374,-0.994629,-0.0341797,-0.204102
611045866081,-0.98877,-0.0268555,-0.203613
611045881907,-1.00098,-0.0361328,-0.195312
611045904322,-1.00342,-0.0263672,-0.194824
611045926048,-1.00098,-0.027832,-0.200195
611045950012,-0.999512,-0.0400391,-0.195312
611045964297,-1.00195,-0.0219727,-0.17627
611045986036,-1.00146,-0.0170898,-0.183105
611046002281,-1.00049,-0.0351562,-0.182129
611046024437,-0.999512,-0.0249023,-0.183594
611046047636,-1.00146,-0.0292969,-0.193848
611046061998,-1.00928,-0.0385742,-0.198242
611046084386,-0.993164,-0.0317383,-0.203125
611046107579,-0.991211,-0.0371094,-0.201172
611046121906,-0.997559,-0.0200195,-0.200195
611046144453,-1.00439,-0.0327148,-0.192871
611046167619,-1.00488,-0.0205078,-0.183594
611046181985,-1.00732,-0.0205078,-0.17334
611046204352,-1.01025,-0.0263672,-0.183105
611046227506,-1.00391,-0.0317383,-0.179688
611046241899,-0.998535,-0.0180664,-0.178711
611046264318,-1.00049,-0.0185547,-0.182617
611046287472,-0.995605,-0.0385742,-0.187988
611046301900,-1.00195,-0.0195312,-0.188965
611046324351,-1.00098,-0.0205078,-0.194824
611046347972,-1.00732,-0.0297852,-0.185059
611046361898,-1.00293,-0.0258789,-0.183594
611046384340,-1.00244,-0.0283203,-0.18457
611046407476,-1.01025,-0.0268555,-0.181152
611046421987,-0.995117,-0.027832,-0.185547
611046444390,-1.00098,-0.0234375,-0.182617
611046467596,-1.00635,-0.0195312,-0.176758
611046481991,-1.00781,-0.0161133,-0.186035
611046504320,-0.997559,-0.0229492,-0.1875
611046527588,-0.999512,-0.0390625,-0.181641
611046548629,-0.994141,-0.0185547,-0.180176
611046564475,-1.00293,-0.0219727,-0.180176
611046587618,-1.00195,-0.0249023,-0.180664
611046608618,-0.99707,-0.019043,-0.180176
611046624443,-1.00098,-0.0351562,-0.177246
611046647606,-1.00635,-0.0302734,-0.18457
611046668628,-1.00146,-0.019043,-0.183594
611046684467,-1.00098,-0.027832,-0.1875
611046707560,-0.999512,-0.0322266,-0.189453
611046728646,-1.00586,-0.027832,-0.179199
611046744406,-1.00244,-0.0214844,-0.179688
611046767600,-0.997559,-0.0356445,-0.180664
611046788671,-1.00244,-0.0283203,-0.181152
611046804339,-1.00342,-0.0234375,-0.18457
611046826956,-0.996582,-0.0332031,-0.183105
611046848551,-0.99707,-0.0288086,-0.179688
611046864372,-1.00391,-0.0273438,-0.18457
611046886920,-0.999512,-0.0341797,-0.182617
611046908595,-1.00586,-0.0327148,-0.184082
611046924373,-1,-0.0375977,-0.181641
611046946910,-1,-0.0336914,-0.177734
611046968564,-1.00342,-0.0273438,-0.181641
611046984400,-1,-0.0288086,-0.178711
611047006908,-1.00049,-0.0332031,-0.182129
611047030005,-1.00098,-0.03125,-0.18457
611047044353,-1.00098,-0.0332031,-0.183594
611047066915,-1.00586,-0.0292969,-0.185059
611047089981,-1.00244,-0.027832,-0.175781
611047104413,-0.999512,-0.0375977,-0.184082
611047126915,-1.00391,-0.0292969,-0.183105
611047150028,-0.998535,-0.0249023,-0.18457
611047164353,-1.00146,-0.0366211,-0.183594
611047186899,-0.99707,-0.0390625,-0.183594
611047210009,-1.00049,-0.0322266,-0.180664
611047224392,-1.0083,-0.0288086,-0.183105
611047246902,-1.00244,-0.0341797,-0.182617
611047270041,-1.00146,-0.0322266,-0.182617
611047284357,-1.00146,-0.0351562,-0.187988
611047306900,-1.00049,-0.0292969,-0.184082
611047336046,-1.00146,-0.0283203,-0.179688
611047344352,-1.00488,-0.0219727,-0.181641
611047367114,-1.00049,-0.0302734,-0.179199
611047390023,-1.00049,-0.0273438,-0.185547
611047404387,-1.00049,-0.0390625,-0.177246
611047426914,-1.00049,-0.0327148,-0.190918
611047450062,-1.00049,-0.0288086,-0.188965
611047464400,-1.00244,-0.0307617,-0.188965
611047486911,-0.992676,-0.0385742,-0.187012
611047510030,-1.00439,-0.0292969,-0.185059
611047531117,-1.00293,-0.0361328,-0.191895
611047546926,-0.999512,-0.0366211,-0.192383
611047570029,-1.00098,-0.0341797,-0.185059
611047591100,-0.996094,-0.0249023,-0.184082
611047606922,-1.00879,-0.0322266,-0.183105
611047630033,-1.00537,-0.0322266,-0.185059
611047651091,-0.995605,-0.0253906,-0.185059
611047666972,-1.00146,-0.0302734,-0.182129
611047690051,-1.00049,-0.0317383,-0.184082
611047711125,-1.00049,-0.0268555,-0.1875
611047726915,-1.00391,-0.0356445,-0.187988
611047749386,-1.00635,-0.0341797,-0.19043
611047771109,-0.99707,-0.0200195,-0.187988
611047786909,-1,-0.0253906,-0.1875
611047816142,-0.998535,-0.027832,-0.185059
611047831104,-0.996582,-0.0361328,-0.184082
611047846902,-1.00293,-0.0322266,-0.183105
611047869420,-1.00781,-0.0302734,-0.181641
611047891094,-1,-0.0322266,-0.184082
611047906925,-0.99707,-0.0244141,-0.185059
611047929401,-1.00244,-0.0302734,-0.179199
611047952563,-1.00684,-0.0302734,-0.183594
611047966942,-1,-0.0317383,-0.181152
611047989378,-1.00098,-0.0302734,-0.187012
611048012325,-1.00049,-0.0292969,-0.178223
611048026905,-1.00098,-0.0292969,-0.185547
611048049386,-1.00244,-0.0322266,-0.18457
611048062917,-1.00195,-0.0322266,-0.194336
611048086108,-0.999023,-0.0361328,-0.185059
611048100428,-0.998047,-0.0219727,-0.178223
611048123016,-1.00781,-0.0253906,-0.180664
611048146136,-1.00146,-0.0356445,-0.186035
611048160483,-0.998535,-0.0341797,-0.188477
611048182952,-1.00244,-0.0263672,-0.181152
611048206197,-1.00635,-0.0366211,-0.180176
611048220429,-1.00244,-0.0375977,-0.181152
611048242951,-1.00244,-0.0292969,-0.179199
611048266102,-0.999023,-0.0341797,-0.186035
611048280443,-1.00098,-0.0351562,-0.186523
611048302906,-1.00439,-0.0273438,-0.179688
611048326097,-1.00391,-0.0302734,-0.176758
611048340419,-1.00098,-0.0336914,-0.17334
611048362994,-1.00391,-0.0292969,-0.189941
611048386128,-1.00195,-0.0400391,-0.183594
611048400505,-0.995117,-0.0327148,-0.185547
611048422935,-1.00049,-0.0302734,-0.183105
611048446114,-1.00439,-0.0385742,-0.180176
611048460420,-0.999512,-0.03125,-0.175781
611048482961,-0.996094,-0.0356445,-0.180176
611048506129,-1.00049,-0.0307617,-0.176758
611048528600,-0.998047,-0.0307617,-0.17334
611048542954,-1.00684,-0.0302734,-0.178711
611048565956,-1.0127,-0.0322266,-0.200195
611048580441,-1.00684,-0.0283203,-0.182129
611048602962,-1.00928,-0.0131836,-0.17334
611048626126,-1.00586,-0.0175781,-0.16748
611048640508,-1.00684,-0.00927734,-0.16748
611048663007,-1.00146,-0.0322266,-0.164551
611048686134,-1.00098,-0.0307617,-0.169434
611048700433,-1.00342,-0.0214844,-0.165527
611048722995,-1.00537,-0.0371094,-0.168945
611048746115,-1.00342,-0.03125,-0.168945
611048760421,-1.00635,-0.0151367,-0.172852
611048782989,-1.00195,-0.0415039,-0.166016
611048806137,-1.00244,-0.043457,-0.165039
611048820473,-1.00244,-0.0356445,-0.162598
611048843006,-1.00732,-0.0429688,-0.17334
611048866090,-1.01758,-0.0585938,-0.168457
611048880454,-1.00781,-0.0522461,-0.174805
611048902968,-0.999512,-0.0341797,-0.162598
611048925474,-1.00439,-0.0214844,-0.157227
611048940463,-1,-0.0302734,-0.145508
611048962943,-1.00879,-0.0366211,-0.137207
611048985454,-1.00195,-0.0361328,-0.138672
611049000491,-1.01074,-0.0385742,-0.135254
611049022979,-1.02832,-0.03125,-0.118652
611049045521,-1.02637,-0.0273438,-0.132812
611049060515,-1.01514,-0.0444336,-0.137207
611049082971,-1.00732,-0.043457,-0.131836
611049105484,-1.00293,-0.0292969,-0.125
611049120478,-1.00049,-0.0288086,-0.120117
611049144421,-1.01318,-0.0229492,-0.108398
611049165443,-1.01611,-0.0385742,-0.115723
611049180480,-1.01172,-0.0395508,-0.108887
611049203004,-1.01025,-0.0283203,-0.0961914
611049225444,-1.00391,-0.0229492,-0.106445
611049240456,-1.01367,-0.03125,-0.0961914
611049262995,-1.00977,-0.0400391,-0.106934
611049285473,-1.00439,-0.0283203,-0.09375
611049300493,-1.021,-0.0244141,-0.0883789
611049323003,-1.02686,-0.0400391,-0.0976562
611049345442,-1.01758,-0.0541992,-0.0981445
611049360424,-1.01025,-0.0429688,-0.105469
611049382966,-1.00684,-0.0385742,-0.0957031
611049405501,-1.00684,-0.0449219,-0.0947266
611049420472,-1.00537,-0.0473633,-0.0952148
611049443020,-1.01025,-0.0400391,-0.0942383
611049465524,-1.02197,-0.0439453,-0.0947266
611049480518,-1.02051,-0.0541992,-0.107422
611049503068,-1.01611,-0.0585938,-0.09375
611049525545,-1.01367,-0.0532227,-0.0961914
611049540551,-1.00977,-0.0585938,-0.0942383
611049563030,-1.01416,-0.0507812,-0.0888672
611049585525,-1.0166,-0.0517578,-0.100098
611049600510,-1.01953,-0.0693359,-0.0966797
611049623025,-1.02539,-0.0625,-0.0908203
611049645484,-1.01709,-0.0473633,-0.0986328
611049661892,-1.00879,-0.0449219,-0.0966797
611049683116,-1.00977,-0.0551758,-0.0908203
611049705520,-1.01514,-0.0556641,-0.0854492
611049721987,-1.01611,-0.0585938,-0.0942383
611049743042,-1.01758,-0.065918,-0.0849609
611049765571,-1.0166,-0.0488281,-0.0849609
611049781994,-1.02148,-0.0634766,-0.0952148
611049802975,-1.01465,-0.0644531,-0.100098
611049825513,-1.01758,-0.0625,-0.103516
611049841937,-1.01758,-0.0688477,-0.106445
611049862942,-1.02148,-0.0683594,-0.102539
611049885474,-1.01514,-0.0620117,-0.114258
611049901924,-1.0083,-0.0585938,-0.10791
611049922970,-0.99707,-0.0473633,-0.104492
611049945604,-1.00049,-0.0356445,-0.097168
611049963505,-1.00732,-0.0439453,-0.0825195
611049983040,-1.02051,-0.0463867,-0.0854492
611050005474,-1.02148,-0.0688477,-0.0932617
611050022040,-1.02051,-0.0893555,-0.0756836
611050043051,-1.01514,-0.0795898,-0.0888672
611050065610,-1.00439,-0.0615234,-0.0830078
611050081991,-1.01611,-0.0527344,-0.0722656
611050103081,-1.01514,-0.0400391,-0.0634766
611050125485,-1.01123,-0.0175781,-0.0556641
611050141938,-1.03223,-0.0371094,-0.0463867
611050162943,-1.04004,-0.0693359,-0.0512695
611050185471,-1.03809,-0.0800781,-0.0576172
611050201978,-1.07129,-0.0693359,-0.050293
611050223138,-1.08545,-0.0683594,-0.0527344
611050245528,-1.0752,-0.0810547,0.00537109
611050269494,-1.03467,-0.136719,-0.0141602
611050283021,-0.987793,-0.103027,-0.0810547
611050305548,-0.991211,-0.0708008,-0.15332
611050321982,-0.978516,-0.132812,-0.141113
611050343086,-0.999023,-0.157227,-0.133789
611050365480,-0.970703,-0.0922852,-0.131836
611050381946,-0.961914,-0.0708008,-0.179199
611050402947,-1.01221,-0.198242,-0.140137
611050425489,-1.04736,-0.208008,-0.0302734
611050441898,-0.95166,-0.126465,-0.0205078
611050463021,-0.986816,-0.0908203,0.0322266
611050485552,-0.982422,-0.0703125,0.0371094
611050501922,-0.987305,-0.0498047,0.0336914
611050523025,-0.98877,-0.0361328,0.012207
611050545579,-0.996094,0.00195312,0.00732422
611050562066,-1.01123,0.0219727,-0.0244141
611050584468,-0.990234,-0.00732422,-0.0522461
611050605545,-0.95459,0.0546875,-0.108398
611050622017,-0.956543,0.0917969,-0.124512
611050644458,-0.958008,0.121582,-0.129395
611050665491,-0.973145,0.134766,-0.172852
611050681946,-0.974121,0.211426,-0.0791016
611050704442,-0.967773,0.149902,0.0258789
611050725528,-1.01758,0.0107422,0.113281
611050742038,-1.00537,-0.0708008,0.0229492
611050764544,-1.04248,-0.172852,-0.00683594
611050793749,-1.09619,-0.167969,0.0185547
611050802012,-1.12793,-0.0400391,0.0131836
611050824464,-1.1582,0.0844727,0.0776367
611050845573,-1.07227,0.152344,0.00146484
611050861976,-1.00684,0.177734,-0.0332031
611050885922,-0.981934,0.131836,-0.0649414
611050905504,-0.973633,0.0991211,-0.0961914
611050921947,-0.998047,0.0874023,-0.0483398
611050944447,-1.0498,0.046875,-0.0615234
611050965504,-1.05469,0.065918,-0.0595703
611050982005,-1.03369,0.0874023,-0.0830078
611051004453,-1.01807,0.166016,-0.0849609
611051025605,-0.984863,0.193848,-0.10498
611051042057,-0.98877,0.165039,-0.0786133
611051064550,-1.02637,0.125,-0.0913086
611051085544,-1.05078,0.148438,-0.0791016
611051101979,-1.00928,0.165039,-0.113281
611051124508,-0.986816,0.188477,-0.127441
611051145516,-0.984863,0.192871,-0.0981445
611051161982,-0.986328,0.241699,-0.132324
611051184414,-0.994141,0.199219,-0.0742188
611051205618,-0.983398,0.181152,-0.102051
611051222017,-0.989746,0.197266,-0.10498
611051244430,-1.01807,0.183594,-0.0854492
611051265546,-0.969238,0.206055,-0.101074
611051281985,-0.937012,0.245117,-0.12207
611051304443,-0.959961,0.255859,-0.0849609
611051325666,-1.01416,0.228516,-0.0986328
611051349502,-1.04688,0.162109,-0.103027
611051364469,-1.0293,0.140625,-0.155762
611051385586,-1.02441,0.18457,-0.125488
611051401968,-0.972168,0.228027,-0.109863
611051424472,-0.949707,0.253418,-0.0922852
611051445524,-0.979492,0.248535,-0.0849609
611051461976,-0.977539,0.262695,-0.110352
611051484447,-0.981445,0.237793,-0.104492
611051505508,-0.993164,0.236328,-0.103027
611051521974,-0.978516,0.209961,-0.116699
611051544449,-0.969727,0.229004,-0.122559
611051567007,-0.986328,0.254883,-0.0996094
611051582033,-0.97998,0.232422,-0.130371
611051604492,-0.967285,0.231445,-0.126465
611051627038,-0.990723,0.258789,-0.109863
611051642003,-0.98291,0.243164,-0.0991211
611051664494,-1.01611,0.251953,-0.0883789
611051687014,-1.01562,0.244141,-0.130859
611051701203,-0.986816,0.22998,-0.145996
611051723684,-0.985352,0.248535,-0.146973
611051746247,-0.985352,0.255371,-0.139648
611051762668,-0.957031,0.23291,-0.132812
611051783783,-0.978516,0.243652,-0.129395
611051807663,-0.966309,0.222656,-0.126953
611051822694,-0.952148,0.249023,-0.133301
611051843773,-0.95752,0.204102,-0.136719
611051866217,-0.977539,0.230469,-0.15918
611051882640,-0.986328,0.220703,-0.138672
611051903756,-1.00488,0.214355,-0.155273
611051926240,-0.975098,0.220703,-0.155762
611051942735,-0.972656,0.233887,-0.149414
611051963749,-0.98584,0.249512,-0.143555
611051986243,-1.00098,0.236816,-0.147949
611052010149,-1.01514,0.229492,-0.140625
611052025122,-0.998535,0.191895,-0.171387
611052046159,-0.981934,0.208496,-0.171387
611052062591,-0.971191,0.227051,-0.155762
611052083655,-0.959473,0.211914,-0.152832
611052106213,-0.961914,0.237793,-0.154785
611052122630,-0.969238,0.23291,-0.171875
611052143672,-0.974609,0.220703,-0.166504
611052166217,-0.990723,0.226562,-0.15918
611052182602,-0.981934,0.210449,-0.166992
611052203786,-0.977051,0.214844,-0.160156
611052226243,-0.981445,0.226074,-0.175781
611052242752,-0.973633,0.213867,-0.171875
611052263803,-0.96875,0.237793,-0.176758
611052286246,-0.975098,0.223633,-0.162109
611052302647,-0.984863,0.208496,-0.152344
611052331266,-0.979492,0.222168,-0.172363
611052346227,-0.98877,0.216309,-0.173828
611052362692,-0.988281,0.220703,-0.19043
611052383737,-0.970703,0.224609,-0.185059
611052406227,-0.978516,0.213379,-0.176758
611052422629,-0.977539,0.227539,-0.18457
611052443665,-0.976562,0.214355,-0.173828
611052466150,-0.96875,0.231445,-0.181641
611052490151,-0.97168,0.227051,-0.190918
611052511183,-0.974121,0.217773,-0.191895
611052533666,-0.960449,0.223633,-0.196777
611052541971,-0.96875,0.229004,-0.1875
611052565257,-0.977539,0.226562,-0.19043
611052587702,-0.972656,0.218262,-0.191895
611052602014,-0.962891,0.217285,-0.199219
611052639433,-0.96875,0.224121,-0.197266
611052653749,-0.976074,0.22168,-0.197266
611052662037,-0.973633,0.21582,-0.206543
611052685665,-0.975098,0.212891,-0.19873
611052715219,-0.977539,0.229004,-0.193359
611052722071,-0.988281,0.217285,-0.185059
611052745190,-0.983887,0.222656,-0.182129
611052767620,-0.975098,0.227051,-0.195801
611052790212,-0.968262,0.20459,-0.196289
611052805996,-0.967773,0.229492,-0.203613
611052842679,-0.965332,0.224121,-0.195312
611052845030,-0.966309,0.224121,-0.191406
611052866641,-0.979492,0.218262,-0.19043
611052886184,-0.986816,0.192383,-0.208984
611052910286,-0.979492,0.220703,-0.211914
611052925215,-0.96582,0.211914,-0.203125
611052946250,-0.966309,0.225098,-0.199219
611052970243,-0.969238,0.221191,-0.195312
611052992683,-0.980469,0.222656,-0.197266
611053013717,-0.968262,0.214355,-0.203613
611053021979,-0.968262,0.220703,-0.197266
611053046671,-0.958008,0.229492,-0.20459
611053067679,-0.963379,0.21582,-0.196289
611053082099,-0.984863,0.225098,-0.190918
611053105239,-1.00732,0.224121,-0.183105
611053126298,-0.987793,0.199219,-0.199707
611053142071,-0.962402,0.217285,-0.193848
611053165696,-0.965332,0.212891,-0.197754
611053193770,-0.97168,0.233398,-0.182617
611053202025,-0.984375,0.193359,-0.17627
611053225199,-0.989746,0.173828,-0.176758
611053246268,-1.00928,0.197754,-0.203125
611053262074,-0.974121,0.176758,-0.199219
611053285243,-0.958496,0.231445,-0.185059
611053306281,-0.984863,0.266602,-0.196777
611053322065,-0.999512,0.211426,-0.181152
611053345261,-0.97998,0.256348,-0.179199
611053366297,-0.958496,0.238281,-0.19043
611053382057,-0.96582,0.224121,-0.19043
611053405219,-0.944336,0.256836,-0.197266
611053426268,-0.947754,0.262207,-0.20166
611053442098,-0.958008,0.291504,-0.1875
611053464480,-0.929199,0.281738,-0.17627
611053486244,-0.961426,0.307129,-0.163574
611053510242,-0.944824,0.26123,-0.20166
611053524542,-0.949219,0.237305,-0.212402
611053546307,-0.975098,0.22998,-0.188477
611053570181,-1.00684,0.212891,-0.1875
611053584574,-0.986816,0.194824,-0.216797
611053606247,-0.997559,0.227539,-0.211426
611053622059,-1.00879,0.207031,-0.224609
611053644630,-0.989258,0.220703,-0.231934
611053667766,-0.986816,0.206543,-0.225586
611053682093,-0.970703,0.148438,-0.220215
611053704590,-0.976074,0.17334,-0.214355
611053727704,-0.958008,0.217773,-0.197754
611053748801,-0.93457,0.258301,-0.211426
611053772772,-0.941895,0.256348,-0.211426
611053787763,-0.974121,0.255859,-0.216797
611053802060,-0.975098,0.231934,-0.190918
611053824563,-1.02539,0.254883,-0.201172
611053847714,-1.104,0.20459,-0.286621
611053862749,-1.06836,0.118652,-0.310059
611053884631,-1.00342,0.0766602,-0.296875
611053907743,-0.968262,0.0644531,-0.297363
611053928806,-0.941406,0.0444336,-0.270996
611053944588,-0.928223,0.226562,-0.249512
611053967718,-0.917969,0.243164,-0.268555
611053988826,-0.886719,0.181641,-0.277344
611054004566,-0.846191,0.209473,-0.280273
611054027711,-0.84082,0.249512,-0.271973
611054050203,-0.957031,0.22168,-0.309082
611054064487,-1.03174,0.0913086,-0.390137
611054087693,-1.00635,-0.00927734,-0.374512
611054108824,-1.01074,-0.0693359,-0.339355
611054124578,-1.0127,-0.0708008,-0.327637
611054147753,-0.993652,0.00292969,-0.317871
611054168805,-0.983887,0.074707,-0.285645
611054184535,-0.931152,0.10498,-0.292969
611054207681,-0.883789,0.135254,-0.26416
611054228857,-0.93457,0.168457,-0.163574
611054244679,-1.19531,0.247559,-0.262695
611054273800,-1.27148,0.20459,-0.233398
611054288795,-1.28223,0.0229492,-0.20459
611054304593,-1.33691,-0.0795898,-0.129395
611054327692,-1.40918,-0.0737305,-0.0947266
611054348779,-1.2959,0.0620117,-0.167969
611054364526,-1.24707,0.327637,-0.27002
611054387085,-1.23633,0.296875,-0.674316
611054408840,-1.0166,0.433594,-1.23291
611054424617,-1.07422,0.186523,-0.947754
611054447086,-1.03516,0.251953,-0.33252
611054468820,-0.875488,0.269043,-0.247559
611054484571,-0.906738,0.143555,-0.0849609
611054507076,-0.806152,0.0908203,-0.0947266
611054528897,-0.70752,0.019043,-0.0839844
611054544637,-0.624512,0.0664062,-0.0791016
611054567077,-0.647949,0.144043,-0.131348
611054590279,-0.702148,0.162109,-0.125977
611054604608,-0.72168,-0.0214844,-0.129395
611054627052,-0.766602,-0.0961914,-0.0917969
611054650289,-0.78418,-0.00683594,-0.120117
611054664617,-0.820312,0.0307617,-0.170898
611054687078,-0.895996,0.100098,-0.182129
611054710270,-0.982422,0.0722656,-0.241211
611054724554,-1.07471,0.065918,-0.222656
611054747098,-1.12793,-0.0512695,-0.381836
611054770207,-1.18115,-0.0463867,-0.371582
611054784650,-1.18506,0.0922852,-0.458984
611054807112,-1.20068,0.228516,-0.542969
611054830260,-1.28809,0.324707,-0.558105
611054851352,-1.22314,0.0712891,-0.858398
611054867048,-1.12549,-0.03125,-0.895996
611054890248,-0.81543,0.0761719,-1.17432
611054911321,-0.623047,-0.12793,-1.33984
611054927143,-0.827148,0.151855,-1.21826
611054950252,-2.41504,1.5293,4.0127
611054971327,-1.97461,-0.0322266,-1.1792
611054987122,-0.629395,-1.64307,0.104492
611055010224,-1.38232,0.48291,-0.0683594
611055031302,-0.663574,0.763672,-0.378906
611055047087,-1.05518,0.527344,-0.0820312
611055070229,-0.911133,0.181641,-0.106934
611055091369,-1.01465,0.216797,-0.272461
611055107034,-1.2998,-0.0390625,-0.154297
611055130288,-0.996582,-0.0200195,-0.157715
611055151351,-1.12451,0.166504,-0.135742
611055167053,-1.03857,0.134277,-0.097168
611055190288,-1.03516,0.289062,-0.0776367
611055212741,-0.991211,0.310059,-0.00244141
611055233798,-0.982422,0.275879,0.00390625
611055250235,-0.983398,0.164062,-0.00488281
611055271294,-0.936523,0.293945,-0.0668945
611055287167,-0.925781,0.23584,-0.0874023
611055310248,-0.94043,0.344727,-0.19873
611055331291,-0.999512,0.20166,-0.242676
611055346291,-1,0.126465,-0.308594
611055360620,-0.826172,1.15332,-0.714844
611055383171,-0.914062,0.0942383,-0.375977
611055406326,-1.02246,0.201172,-0.322754
611055420669,-1.02295,0.136719,-0.326172
611055443190,-1.02148,0.0952148,-0.327637
611055466325,-1.01807,0.0737305,-0.33252
611055480639,-0.999023,0.10791,-0.311035
611055503183,-0.972656,0.17041,-0.304199
611055526332,-0.972168,0.183594,-0.283691
611055540670,-1.03467,0.152344,-0.275879
611055563162,-1.10156,0.119141,-0.254883
611055586068,-1.1875,0.131348,-0.183594
611055608817,-1.39844,0.173828,-0.0585938
611055623219,-1.76123,0.184082,0.065918
611055646317,-2.24756,0.342773,0.464355
611055660664,-1.83008,0.629395,-0.0766602
611055683235,-1.74951,0.584473,-0.729492
611055706828,-1.55078,0.397949,-0.924805
611055720731,-1.20215,0.212402,-0.72998
611055743123,-0.835449,0.194336,-0.30127
611055766495,-0.483887,0.224609,-0.0336914
611055780611,-0.480957,0.0395508,-0.0244141
611055803177,-0.363281,-0.175293,0.0805664
611055826322,-0.36084,0.0664062,-0.0927734
611055840711,-0.393066,0.15918,0.0488281
611055863172,-0.529785,0.177734,0.0908203
611055886320,-0.769043,0.0341797,-0.143555
611055900716,-0.910645,-0.33252,-0.445801
611055923236,-1.03174,-0.486328,-0.359375
611055946337,-1.23438,-0.152832,-0.771973
611055960693,-1.26758,-0.0756836,-0.932129
611055983102,-1.20801,-0.0449219,-0.98877
611056006342,-1.38379,-0.135742,-0.906738
611056020685,-1.37891,-0.14502,-0.865723
611056043093,-1.39062,-0.101074,-0.77832
611056066830,-1.41162,0.11084,-0.727051
611056080679,-1.28418,0.126465,-0.727539
611056103172,-1.08545,-0.0141602,-0.867676
611056126409,-0.975586,-0.0913086,-0.71582
611056140672,-0.793457,0.0566406,-0.753906
611056163176,-0.730957,0.0429688,-0.743652
611056186376,-0.807129,0.0234375,-0.647461
611056208757,-0.805176,-0.0800781,-0.49707
611056223201,-0.877441,-0.0390625,-0.226074
611056246306,-1.99121,0.789551,1.82373
611056268767,-1.91602,0.0737305,-1.17871
611056283198,-1.15869,-0.650879,0.0688477
611056306388,-1.07666,-0.322266,-0.0473633
611056320694,-0.932129,0.398926,-0.0678711
611056343235,-1.13818,0.255859,-0.213379
611056366361,-0.913574,0.18457,-0.0258789
611056380746,-1.08105,0.260742,-0.0395508
611056403140,-1.05469,0.283203,0.027832
611056426349,-1.02881,0.26709,0.0449219
611056440737,-1.00781,0.162109,0.11377
611056463145,-0.946289,0.209961,0.130859
611056485723,-0.966309,0.290039,0.109375
611056500639,-0.897949,0.311035,0.0908203
611056523153,-1.00146,0.277344,0.0732422
611056545619,-1.01367,0.191895,-0.0366211
611056568776,-1.01123,0.171875,-0.0678711
611056583261,-0.98877,0.206055,-0.0449219
611056605636,-0.990723,0.192383,-0.0205078
611056623594,-0.969238,0.232422,0.0205078
611056643144,-1.03857,0.269043,0
611056665674,-1.01465,0.216309,-0.0297852
611056680635,-1.01709,0.145508,-0.0605469
611056703200,-0.973145,0.211426,-0.0488281
611056725761,-0.968262,0.253418,-0.0527344
611056740719,-0.946777,0.20459,-0.0932617
611056763097,-0.9375,0.231445,-0.116699
611056785581,-0.998047,0.250488,-0.078125
611056800627,-1.05566,0.116211,-0.149414
611056824558,-1.04736,0.17041,-0.148438
611056845701,-1.01221,0.204102,-0.10498
611056860738,-0.96582,0.219727,-0.0317383
611056883207,-0.949219,0.232422,-0.0493164
611056905710,-0.94873,0.205078,-0.0703125
611056920716,-0.935547,0.233887,-0.0888672
611056951343,-1.13623,0.326172,-0.065918
611056965613,-1.12695,0.0888672,-0.170898
611056980758,-1.0376,0.0874023,-0.186035
611057003160,-0.961914,0.138184,-0.17627
611057025620,-0.937012,0.134766,-0.187012
611057043547,-0.953125,0.155762,-0.165039
611057063117,-0.952148,0.192871,-0.144043
611057085650,-0.95752,0.185059,-0.106445
611057100731,-0.97168,0.166016,-0.0913086
611057123110,-0.973633,0.142578,-0.112305
611057147101,-0.935059,0.166016,-0.0893555
611057160674,-1.11182,0.235352,-0.119629
611057183117,-1.13037,0.0737305,-0.20166
611057205704,-1.03076,0.0400391,-0.161133
611057222091,-0.969727,0.178223,-0.130859
611057243193,-0.939941,0.133789,-0.121094
611057265681,-0.972168,0.132324,-0.12207
611057282046,-0.978027,0.157227,-0.119629
611057303101,-0.990234,0.150391,-0.110352
611057333836,-1.02686,0.149414,-0.130371
611057350255,-1.02734,0.0957031,-0.13916
611057363150,-1.01709,0.103516,-0.14209
611057385602,-1.00342,0.12207,-0.14209
611057402092,-0.986328,0.133789,-0.124512
611057423111,-0.99707,0.132812,-0.112793
611057445663,-1.02783,0.132812,-0.121582
611057462081,-1.01416,0.100586,-0.134277
611057483175,-1.00293,0.115234,-0.132324
611057505728,-0.993164,0.130859,-0.143555
611057522099,-0.991211,0.135742,-0.12793
611057543197,-0.993164,0.130371,-0.130371
611057565720,-0.991211,0.128418,-0.123535
611057582191,-1.0127,0.120117,-0.125
611057603247,-1.01172,0.108887,-0.13623
611057625700,-1.00146,0.11084,-0.133789
611057642081,-1.00146,0.134277,-0.129883
611057663097,-0.993164,0.122559,-0.127441
611057685618,-0.98877,0.127441,-0.126465
611057702068,-1.00977,0.128418,-0.12793
611057723117,-1.01074,0.117188,-0.134766
611057745615,-1.00391,0.106445,-0.130371
611057762098,-1.00098,0.121582,-0.126953
611057783160,-0.995605,0.118164,-0.12793
611057805691,-0.996094,0.112793,-0.128418
611057822098,-0.994141,0.117188,-0.125
611057843233,-1.01318,0.139648,-0.125488
611057865754,-1.02002,0.117188,-0.130859
611057882129,-1.01416,0.100586,-0.140137
611057903225,-1.00146,0.117188,-0.13916
611057925670,-0.993164,0.117676,-0.133789
611057949660,-0.989746,0.120605,-0.131836
611057963211,-0.995605,0.12207,-0.135254
611057985742,-1.01611,0.11377,-0.138672
611058002159,-1.02002,0.101562,-0.149414
611058023172,-1.00098,0.104492,-0.148438
611058045733,-0.997559,0.121582,-0.14209
611058062104,-0.992676,0.115234,-0.138184
611058083131,-0.99707,0.118652,-0.134277
611058105652,-1.01758,0.123535,-0.131348
611058122106,-1.01221,0.102051,-0.14209
611058144604,-1.00488,0.097168,-0.14502
611058165680,-0.99707,0.111328,-0.136719
611058182077,-0.995117,0.112793,-0.13623
611058204634,-0.998047,0.118652,-0.132324
611058225599,-1.00928,0.118652,-0.142578
611058242077,-1.00879,0.105957,-0.139648
611058264573,-1.00049,0.100586,-0.145508
611058285740,-1.00146,0.11377,-0.143066
611058308225,-0.998535,0.109375,-0.144043
611058324747,-1.00244,0.114746,-0.133789
611058345709,-1.00537,0.117676,-0.13916
611058362074,-1.00098,0.113281,-0.139648
611058386111,-0.991211,0.104004,-0.145508
611058405716,-0.99707,0.105469,-0.151367
611058422188,-0.999023,0.116699,-0.141602
611058444688,-1.01123,0.112793,-0.135254
611058465639,-1.02344,0.116699,-0.153809
611058482107,-1.00684,0.0922852,-0.150391
611058504606,-0.993164,0.102539,-0.150879
611058525619,-0.990234,0.112305,-0.155273
611058542094,-0.994629,0.108887,-0.153809
611058564566,-1.00439,0.111328,-0.144531
611058585713,-1.00781,0.120117,-0.126953
611058602075,-1.00439,0.112305,-0.151367
611058624652,-1.00293,0.0913086,-0.150391
611058645699,-1.00293,0.100586,-0.146484
611058669669,-1.0083,0.104492,-0.143066
611058684680,-1.00391,0.103027,-0.139648
611058705798,-0.99707,0.115723,-0.154785
611058722212,-0.994141,0.108398,-0.145996
611058744716,-0.999512,0.101074,-0.136719
611058765715,-1.01562,0.100586,-0.146973
611058783618,-1.00537,0.0869141,-0.145508
611058804635,-1.00098,0.0986328,-0.150391
611058825630,-0.994629,0.101074,-0.144043
611058842111,-1.0083,0.111328,-0.145996
611058872126,-1.00537,0.102539,-0.14209
611058888588,-1.00586,0.103027,-0.14502
611058902133,-0.99707,0.106445,-0.145996
611058924646,-0.99707,0.0986328,-0.144043
611058945658,-1.00146,0.102051,-0.141602
611058961362,-1.00293,0.110352,-0.136719
611058983916,-1,0.0957031,-0.13916
611059006360,-1.00488,0.0961914,-0.141113
611059021317,-1.00098,0.0996094,-0.144043
611059043882,-1.00146,0.0996094,-0.146484
611059074499,-1.0083,0.101074,-0.149902
611059088905,-1.00342,0.105469,-0.15332
611059103827,-1.00049,0.101074,-0.15332
611059126435,-1.0083,0.103516,-0.148438
611059141347,-1.00684,0.0927734,-0.148926
611059163965,-1.00195,0.103516,-0.143555
611059186374,-0.999512,0.106934,-0.140625
611059201358,-0.995117,0.0991211,-0.147461
611059223846,-1.00586,0.103516,-0.146484
611059246331,-1.00586,0.0976562,-0.147949
611059261395,-1.00342,0.101562,-0.155762
611059283830,-1,0.102539,-0.152832
611059306331,-1.00049,0.105469,-0.15332
611059322784,-0.999023,0.102051,-0.151855
611059343852,-1.00195,0.097168,-0.146973
611059366350,-0.99707,0.103516,-0.144531
611059390366,-1.00293,0.10498,-0.154297
611059403871,-1.01123,0.103027,-0.148438
611059426370,-1.00195,0.0991211,-0.148438
611059442761,-1,0.104492,-0.149902
611059463848,-1.00244,0.101562,-0.150391
611059487780,-1.00244,0.104004,-0.148926
611059502792,-1.00781,0.100098,-0.148926
611059523878,-1.00049,0.104492,-0.150879
611059546320,-1.00488,0.109375,-0.146973
611059562770,-1.00195,0.0986328,-0.15332
611059583848,-1.00244,0.0996094,-0.152832
611059606343,-0.999512,0.107422,-0.146484
611059622824,-1.00488,0.103516,-0.144531
611059643871,-1.00488,0.10791,-0.151367
611059666343,-1.00439,0.0981445,-0.15332
611059690303,-0.996582,0.100586,-0.147461
611059703906,-0.998535,0.108398,-0.157227
611059726412,-0.991699,0.107422,-0.147461
611059742815,-0.996582,0.10498,-0.153809
611059763870,-1.00342,0.101562,-0.155273
611059786386,-1.00146,0.0986328,-0.148926
611059802785,-0.99707,0.102051,-0.147949
611059823847,-1.00195,0.101562,-0.15625
611059846348,-0.999023,0.102539,-0.15625
611059863235,-1.00342,0.107422,-0.145996
611059883824,-1.00195,0.10498,-0.162598
611059906387,-1.00439,0.107422,-0.15625
611059922842,-1,0.102051,-0.152344
611059943617,-0.998535,0.102051,-0.147949
611059966352,-1.00244,0.113281,-0.152344
611059982830,-0.999512,0.103027,-0.149902
611060003852,-1.00342,0.106934,-0.149414
611060026361,-0.997559,0.0996094,-0.150879
611060042813,-0.997559,0.0966797,-0.149902
611060063890,-0.998047,0.104492,-0.144043
611060086380,-1.00098,0.105957,-0.152344
611060102209,-1,0.0991211,-0.147461
611060123947,-1.00293,0.104492,-0.149414
611060146407,-0.999023,0.109375,-0.144043
611060162195,-1.00146,0.102051,-0.146484
611060183970,-1.00195,0.104492,-0.151855
611060206379,-0.998047,0.102051,-0.145508
611060228859,-1.00488,0.104492,-0.145996
611060245332,-1.00391,0.106445,-0.149414
611060266334,-1.00586,0.09375,-0.148926
611060282105,-1.00342,0.103516,-0.145996
611060305287,-0.999023,0.101562,-0.149414
611060326377,-1.00098,0.0976562,-0.144531
611060342190,-1.00439,0.103027,-0.149902
611060365304,-1.00537,0.100098,-0.151855
611060386358,-1.00439,0.100586,-0.151367
611060410329,-0.999023,0.0986328,-0.150879
611060425303,-1.00488,0.0981445,-0.151855
611060446378,-1.00098,0.106934,-0.148438
611060462139,-1.00342,0.103027,-0.145508
611060485282,-1.01172,0.103516,-0.146973
611060506352,-1.00488,0.100098,-0.150879
611060522190,-1.00244,0.102051,-0.151367
611060545332,-1.00049,0.101074,-0.145508
611060566408,-0.99707,0.100098,-0.152832
611060582157,-1.00195,0.100586,-0.148926
611060612788,-1.00586,0.102051,-0.15332
611060627923,-1.00293,0.0957031,-0.14502
611060642172,-0.999512,0.103027,-0.152832
611060665323,-1.00146,0.102051,-0.149902
611060686367,-1.01123,0.0966797,-0.14502
611060710337,-1.00537,0.0947266,-0.147461
611060725335,-0.999512,0.10498,-0.143555
611060746353,-0.997559,0.11084,-0.148438
611060762157,-0.998535,0.0961914,-0.14209
611060785304,-1.00342,0.0991211,-0.143555
611060806851,-1.0083,0.104004,-0.14502
611060828889,-1.00879,0.0976562,-0.145996
611060845280,-1.00244,0.0981445,-0.148438
611060866398,-0.999023,0.101074,-0.14502
611060882222,-0.996582,0.10498,-0.147461
611060905357,-0.998047,0.101562,-0.141602
611060927799,-0.999023,0.0996094,-0.14209
611060942164,-1.00293,0.100098,-0.155273
611060965336,-1.00488,0.105957,-0.149414
611060986386,-1.00635,0.0952148,-0.153809
611061002167,-1.00391,0.0966797,-0.152344
611061024652,-1.00586,0.103516,-0.145996
611061046379,-1.00049,0.0957031,-0.139648
611061062161,-0.998535,0.103027,-0.151855
611061084683,-1.00146,0.0917969,-0.149414
611061106362,-1.00586,0.102051,-0.144043
611061122158,-1.01172,0.0957031,-0.151855
611061144649,-0.999512,0.0917969,-0.138672
611061166384,-1.00391,0.0957031,-0.146973
611061182124,-1.00244,0.0991211,-0.150879
611061204660,-1.00293,0.097168,-0.147949
611061233923,-1.00684,0.102051,-0.151367
611061242124,-1.01074,0.097168,-0.150391
611061264685,-1.00293,0.0957031,-0.147461
611061287944,-0.996094,0.0996094,-0.144043
611061302155,-0.994141,0.0942383,-0.150391
611061324667,-0.995117,0.103516,-0.149902
611061347828,-0.994141,0.0991211,-0.149414
611061362143,-0.997559,0.102539,-0.143555
611061384693,-1.00732,0.0986328,-0.13916
611061407909,-1.00977,0.0854492,-0.144531
611061428927,-1.00391,0.0883789,-0.154785
611061444690,-1.00537,0.0986328,-0.158203
611061467853,-0.991211,0.106934,-0.157227
611061482162,-0.984863,0.121094,-0.147461
611061504720,-1.00488,0.122559,-0.150879
611061528003,-1.01123,0.0996094,-0.154785
611061542229,-1.01416,0.0922852,-0.15918
611061564759,-1.00879,0.0976562,-0.165527
611061588008,-0.984863,0.127441,-0.154785
611061602258,-0.980957,0.150879,-0.138672
611061624749,-0.994141,0.144043,-0.133301
611061647994,-1.00537,0.121582,-0.141113
611061662268,-1.01074,0.123047,-0.17041
611061691436,-0.996582,0.09375,-0.172363
611061707914,-0.996094,0.10791,-0.161133
611061728914,-0.978027,0.158691,-0.162598
611061744654,-0.976562,0.174316,-0.130371
611061767812,-0.981934,0.179199,-0.134277
611061788970,-1.04932,0.191895,-0.129395
611061804715,-1.00586,0.132812,-0.13916
611061827901,-0.944336,0.15918,-0.161621
611061848939,-0.994629,0.189453,-0.13916
611061864748,-1.05518,0.179199,-0.0825195
611061893920,-1.01465,0.154785,-0.0927734
611061909049,-0.986328,0.17041,-0.0932617
611061924735,-0.985352,0.181152,-0.0922852
611061947857,-0.98291,0.243164,-0.103027
611061969081,-1.01172,0.211914,-0.105957
611061984767,-1.02393,0.211426,-0.103516
611062007209,-1.01416,0.235352,-0.10498
611062028930,-0.990723,0.274414,-0.0966797
611062044676,-0.973145,0.251465,-0.0786133
611062067170,-0.934082,0.269043,-0.0703125
611062088938,-0.969727,0.251953,-0.0913086
611062104702,-0.95752,0.286133,-0.078125
611062127230,-0.942383,0.305664,-0.0429688
611062150401,-0.944824,0.349121,-0.0356445
611062171463,-0.955566,0.358887,-0.0356445
611062187248,-0.984375,0.30127,-0.059082
611062210358,-0.989258,0.275391,-0.0532227
611062224772,-0.977539,0.293945,-0.0571289
611062247274,-0.977539,0.308594,-0.0683594
611062277939,-0.962402,0.273438,-0.0869141
611062291418,-0.955566,0.294922,-0.0859375
611062307238,-0.975098,0.285645,-0.0688477
611062330346,-1.02295,0.246582,-0.0546875
611062352901,-1.00244,0.22998,-0.0332031
611062367249,-1.03711,0.259766,-0.0327148
611062390474,-1.01855,0.165039,-0.0600586
611062404806,-1.00098,0.242188,-0.0351562
611062427185,-0.987305,0.189453,-0.0161133
611062450898,-0.995117,0.253418,0.00683594
611062472685,-0.989746,0.229004,0.0239258
611062487244,-0.986328,0.308105,0.0214844
611062510436,-0.959473,0.309082,0.0263672
611062531508,-0.986816,0.280762,0.0527344
611062555419,-0.998535,0.262207,0.0717773
611062577985,-1.04395,0.251953,0.0576172
611062591491,-1.02686,0.277344,0.00878906
611062606467,-1.04932,0.256836,0.0078125
611062620819,-1.05957,0.315918,-0.00585938
611062652104,-1.01367,0.447266,-0.00878906
611062682846,-0.954102,0.70459,-0.1875
611062685256,-1.05859,0.748535,-0.199707
611062703306,-1.01123,0.587402,-0.189941
611062726553,-0.941406,0.557129,-0.206543
611062740830,-0.973633,0.393555,-0.447754
611062763297,-0.98877,0.302246,-0.564941
611062786441,-1.04248,0.251465,-0.456055
611062802312,-1.09766,0.271973,-0.407227
611062823320,-1.16357,0.337891,-0.371582
611062854615,-1.20264,0.300293,-0.286621
611062869676,-1.19971,0.20459,-0.202637
611062883334,-1.19385,0.158691,-0.090332
611062906516,-1.16016,0.214844,0.00830078
611062920827,-1.03516,0.161621,0.0561523
611062943269,-0.940918,0.139648,0.0874023
611062970094,-0.902832,0.234863,0.0737305
611062982286,-0.908691,0.407715,0.0214844
611063004741,-0.865234,0.588379,-0.19043
611063026443,-0.924316,0.466797,-0.347168
611063040845,-1.00488,0.388184,-0.25293
611063063334,-0.914551,0.456055,-0.367188
611063086446,-0.924805,0.344238,-0.333496
611063108947,-1.04541,0.426758,-0.300781
611063123280,-1.03027,0.494141,-0.433105
611063154589,-1.16992,0.375,-0.394531
611063160834,-1.29102,0.230469,-0.450684
611063184750,-1.35449,0.262695,-0.597168
611063206485,-1.00635,0.108887,-0.785645
611063220804,-1.10986,0.155762,-1.15381
611063243324,-0.589355,-0.0615234,-1.42285
611063266513,-0.553223,-0.111816,-1.42578
611063282250,-0.589355,-0.0874023,-1.34912
611063312126,-0.989258,-0.364258,0.850098
611063334702,-3.13232,0.587402,0.285645
611063340916,-1.01953,-0.792969,-1.02832
611063363295,-1.61035,-1.05371,-0.459473
611063386512,-1.40625,0.115234,0.0258789
611063400848,-0.765625,0.150879,-0.57959
611063423320,-1.11035,0.453613,-0.328613
611063446463,-0.914062,0.317383,-0.291016
611063462315,-1.20459,0.138184,-0.0888672
611063484713,-1.07422,0.0371094,-0.166016
611063514648,-0.978027,0.345215,-0.140625
611063529086,-0.962402,0.285156,-0.116211
611063543259,-0.956543,0.25,-0.0302734
611063566518,-0.951172,0.322754,-0.0283203
611063589029,-0.919434,0.289551,-0.0791016
611063603298,-0.914551,0.250977,-0.0756836
611063626529,-0.911133,0.293457,-0.0766602
611063640864,-0.893066,0.211426,-0.119141
611063663373,-0.926758,0.246582,-0.119629
611063686517,-0.981445,0.22998,-0.141602
611063700862,-1.04785,0.174805,-0.161621
611063723265,-1.06006,0.183105,-0.197754
611063746513,-1.0542,0.163574,-0.20459
611063760828,-1.01367,0.166504,-0.223633
611063783347,-0.984375,0.206543,-0.21582
611063806500,-0.96875,0.228027,-0.20752
611063820876,-0.984863,0.239746,-0.235352
611063843373,-1.04492,0.213867,-0.236816
611063866487,-1.08447,0.168457,-0.234863
611063889019,-1.13232,0.187012,-0.202148
611063903302,-1.27393,0.0878906,-0.168457
611063926515,-1.57812,0.0825195,0.0317383
611063940767,-1.98828,0.17627,0.234375
611063963320,-2.28662,-0.0834961,0.511719
611063986493,-1.85156,0.25293,0.316406
611064000879,-1.16846,1.01074,-0.445801
611064023412,-1.05957,0.558105,-1.61914
611064045872,-1.03809,0.155273,-1.07471
611064060859,-0.782227,0.140137,-0.230469
611064091475,-0.480957,0.320801,-0.140625
611064114647,-0.498047,0.154785,-0.291992
611064120817,-0.414062,-0.0483398,-0.147949
611064143388,-0.446289,0.0371094,0.0644531
611064165836,-0.449219,0.14209,-0.126465
611064180895,-0.475586,0.0327148,-0.372559
611064211497,-0.738281,0.111328,-0.413574
611064225876,-0.84668,-0.0483398,-0.575684
611064240790,-0.904297,-0.223145,-0.55957
611064263411,-0.834473,-0.0742188,-0.592285
611064285871,-0.854492,0.0600586,-0.705078
611064300851,-0.824707,0.0126953,-0.622559
611064323414,-0.827637,0.0229492,-0.569336
611064345832,-0.827637,0.0395508,-0.553223
611064360935,-0.801758,-0.0996094,-0.577637
611064383401,-0.874512,-0.220703,-0.400391
611064405893,-0.983398,-0.280762,-0.546387
611064420832,-1.05957,-0.112793,-0.411621
611064443344,-1.00488,-0.00683594,-0.409668
611064465848,-0.944824,0.202148,-0.441895
611064480865,-0.996094,0.123047,-0.356445
611064503368,-0.95752,0.046875,-0.381836
611064525881,-0.887695,0.0463867,-0.4375
611064540892,-1.02881,-0.0131836,-0.274902
611064563376,-1.08398,-0.118652,-0.267578
611064585872,-1.00244,-0.0708008,-0.386719
611064600904,-0.931641,0.0541992,-0.358887
611064623325,-0.911133,0.0332031,-0.429688
611064645878,-0.879883,-0.0078125,-0.447754
611064668956,-0.935059,0.768555,-0.484375
611064683344,-1.2627,1.49756,-0.050293
611064705841,-1.30469,0.689941,0.757812
611064720843,-1.27246,1.09277,1.25684
611064743405,-2.03564,-0.633789,0.0419922
611064765946,-1.36182,-1.15625,0.362305
611064780852,-0.931152,-0.128906,0.317383
611064803355,-0.908691,0.803223,-0.0444336
611064825851,-0.790039,0.878418,-0.0161133
611064842340,-0.852051,0.238281,0.325684
611064863381,-0.941895,-0.0371094,0.208008
611064885868,-1.0249,0.300293,0.233398
611064902302,-1.0166,0.29541,-0.00585938
611064923319,-1.05518,0.221191,0.0786133
611064945809,-1.02002,0.178711,-0.00927734
611064962319,-1.06006,0.332031,0.00488281
611064983366,-1.01465,0.276855,-0.00292969
611065005912,-1.00977,0.26123,-0.00439453
611065022298,-0.979492,0.252441,-0.00488281
611065043332,-0.953613,0.271484,-0.015625
611065065943,-0.972656,0.245605,0.000976562
611065082279,-0.973145,0.27002,0.00927734
611065103335,-0.981445,0.26123,0.00488281
611065125829,-1.02783,0.244629,-0.0195312
611065142290,-1.02295,0.23291,-0.0605469
611065163336,-1.01562,0.228516,-0.0551758
611065185916,-1.01758,0.210938,-0.0419922
611065202307,-0.980469,0.237793,-0.0639648
611065223330,-0.928223,0.276855,-0.0830078
611065245868,-0.983887,0.277344,-0.10498
611065262264,-0.947754,0.265625,-0.128906
611065283374,-0.937988,0.289062,-0.134277
611065305870,-0.947754,0.140625,-0.155762
611065322293,-1.00439,0.15625,-0.150879
611065343392,-0.954102,0.226562,-0.164551
611065365844,-1.01904,0.191895,-0.10791
611065382237,-1.03223,0.301758,-0.15918
611065403304,-0.956543,0.307129,-0.164551
611065425847,-0.933105,0.356934,-0.133301
611065442282,-0.926758,0.358887,-0.129395
611065463352,-0.924316,0.276855,-0.153809
611065485846,-0.977539,0.15918,-0.155762
611065502282,-0.900879,0.161621,-0.200195
611065523370,-0.814941,0.170898,-0.163574
611065545901,-0.982422,0.391113,0.0546875
611065562333,-1.17627,0.373047,-0.213379
611065583424,-1.021,0.090332,-0.144531
611065605931,-1.02832,0.189453,-0.185059
611065622275,-1.00195,0.0185547,-0.174805
611065643398,-1.00391,0.196289,-0.164062
611065665850,-0.932129,0.189941,-0.194336
611065682345,-0.844238,0.209473,-0.197266
611065703346,-0.835449,0.356445,-0.14502
611065725915,-0.955566,0.41748,-0.0791016
611065742289,-1.01709,0.376465,-0.0761719
611065764870,-1.01074,0.312988,-0.15918
611065785928,-1.00098,0.0351562,-0.145508
611065802406,-1.06982,0.0126953,-0.158203
611065824844,-0.973145,0.112305,-0.242676
611065845873,-1.01172,0.0581055,-0.250977
611065862333,-1.00244,0.1875,-0.252441
611065884871,-1.00293,0.187012,-0.213867
611065905896,-0.927246,0.270508,-0.234375
611065922326,-0.966309,0.149414,-0.277832
611065944830,-0.995605,0.0405273,-0.239746
611065965844,-0.99707,0.0966797,-0.25
611065982367,-0.98584,0.0927734,-0.256836
611066004825,-0.986816,0.138184,-0.268555
611066025884,-0.973633,0.137207,-0.263672
611066042312,-0.960449,0.112305,-0.29248
611066064827,-0.973145,0.133789,-0.258789
611066085854,-1.01465,0.196777,-0.261719
611066102278,-1.0625,0.277344,-0.240234
611066124751,-1.03271,0.292969,-0.327148
611066145885,-0.958496,0.20166,-0.428223
611066162381,-0.879395,0.00585938,-0.40332
611066184841,-0.890625,-0.20459,-0.396973
611066205928,-0.951172,-0.20752,-0.315918
611066222346,-1.02686,-0.128906,-0.264648
611066243994,-1.02783,0.000976562,-0.258301
611066266585,-1.04639,0.150391,-0.266113
611066281598,-0.99707,0.149902,-0.288574
611066304021,-0.944824,0.148926,-0.236328
611066326252,-0.929688,0.0732422,-0.230469
611066341499,-0.929199,-0.0625,-0.23584
611066363944,-0.970703,-0.310059,-0.286133
611066386502,-1.00293,-0.321777,-0.232422
611066401555,-1.0625,-0.328613,-0.222168
611066431627,-1.03271,-0.229004,-0.212891
611066446482,-1.03711,-0.120117,-0.202637
611066461519,-1.04492,-0.0458984,-0.188965
611066484106,-1.01465,0.00390625,-0.157227
611066506553,-0.970215,0.0571289,-0.121582
611066521570,-0.958008,0.0166016,-0.15625
611066543878,-0.95166,-0.0581055,-0.181641
611066566526,-0.922852,-0.234375,-0.143555
611066581500,-0.944824,-0.365234,-0.166504
611066611481,-0.979492,-0.389648,-0.220215
611066626533,-0.98877,-0.241211,-0.179688
611066641622,-0.952148,-0.132812,-0.150391
611066664116,-0.987305,-0.015625,-0.145996
611066686622,-0.978516,-0.046875,-0.15918
611066701629,-1.00928,-0.0766602,-0.11377
611066724070,-1.06104,-0.161133,-0.0703125
611066746552,-1.06738,-0.0581055,-0.0966797
611066761569,-1.03906,0.114258,-0.0688477
611066784083,-1.00977,0.0527344,-0.0854492
611066806486,-1.01367,-0.0708008,-0.0859375
611066821493,-1.02295,-0.117676,-0.0683594
611066844359,-1.00244,-0.103516,-0.0727539
611066866475,-0.997559,-0.0839844,-0.0751953
611066881528,-1.01074,-0.0600586,-0.0878906
611066904122,-1.02002,-0.0419922,-0.115723
611066919871,-1.01904,-0.0419922,-0.114746
611066942983,-1.02295,-0.0556641,-0.10498
611066964027,-1.01758,-0.0732422,-0.0932617
611066979880,-1.01807,-0.0883789,-0.0922852
611067002999,-1.01221,-0.0825195,-0.0942383
611067024106,-1.01318,-0.0854492,-0.0839844
611067039826,-1.01904,-0.0864258,-0.0800781
611067062993,-1.01855,-0.0961914,-0.0893555
611067084005,-1.01611,-0.100098,-0.0727539
611067099753,-1.0293,-0.0834961,-0.0673828
611067122904,-1.01367,-0.0688477,-0.0908203
611067144024,-1.0127,-0.0654297,-0.0947266
611067166577,-1.02246,-0.0776367,-0.0878906
611067183006,-1.00391,-0.0498047,-0.0898438
611067204079,-0.993652,-0.0322266,-0.0942383
611067226551,-0.993652,-0.0327148,-0.0898438
611067242981,-1.00098,-0.0498047,-0.0834961
611067271521,-0.999512,-0.0844727,-0.0878906
611067286625,-1.0083,-0.118164,-0.081543
611067303041,-1.01514,-0.126465,-0.0771484
611067324070,-1.01514,-0.105957,-0.0942383
611067346496,-1.02148,-0.0957031,-0.0927734
611067362917,-1.01416,-0.0942383,-0.109863
611067384016,-1.00781,-0.0751953,-0.0991211
611067399794,-1.00537,-0.0673828,-0.09375
611067422963,-1.0083,-0.0512695,-0.0874023
611067445415,-1.00977,-0.0507812,-0.0942383
611067459753,-1.01318,-0.0805664,-0.0898438
611067482981,-1.01416,-0.097168,-0.0864258
611067504117,-1.02051,-0.081543,-0.0932617
611067519872,-1.01221,-0.0644531,-0.108398
611067543074,-1.01367,-0.0776367,-0.0942383
611067564079,-1.01172,-0.0776367,-0.103027
611067579812,-1.0127,-0.0708008,-0.100586
611067603071,-1.00684,-0.0820312,-0.106445
611067624097,-1.00928,-0.0761719,-0.0893555
611067639866,-1.01514,-0.0703125,-0.09375
611067662407,-1.01416,-0.0791016,-0.0917969
611067684067,-1.00732,-0.0834961,-0.081543
611067699905,-1.01465,-0.081543,-0.0864258
611067722360,-1.01904,-0.0761719,-0.0712891
611067744069,-1.01514,-0.0644531,-0.0888672
611067759845,-1.0166,-0.0581055,-0.0805664
611067782326,-1.01172,-0.059082,-0.0805664
611067804067,-1.01416,-0.0742188,-0.0913086
611067819837,-1.00928,-0.081543,-0.0888672
611067842367,-1.01123,-0.0717773,-0.0908203
611067865468,-1.00586,-0.0722656,-0.0869141
611067880003,-1.0083,-0.0776367,-0.0932617
611067902370,-1.00586,-0.0791016,-0.0957031
611067925490,-1.01221,-0.0605469,-0.0991211
611067939854,-1.00977,-0.0605469,-0.0883789
611067962321,-1.01318,-0.0683594,-0.0874023
611067985511,-1.01172,-0.0771484,-0.0898438
611067999996,-1.01758,-0.0791016,-0.0869141
611068022432,-1.01758,-0.0805664,-0.0883789
611068045498,-1.0127,-0.0683594,-0.0893555
611068059897,-1.01172,-0.065918,-0.0888672
611068082337,-1.0127,-0.0717773,-0.0883789
611068105481,-1.0083,-0.0678711,-0.0888672
611068119819,-1.0083,-0.0668945,-0.0883789
611068142324,-1.01758,-0.0708008,-0.0869141
611068165508,-1.01416,-0.0717773,-0.0952148
611068179802,-1.01758,-0.0717773,-0.0922852
611068202356,-1.01562,-0.0688477,-0.0878906
611068225541,-1.01416,-0.0693359,-0.0966797
611068239825,-1.0127,-0.0751953,-0.0932617
611068262338,-1.00977,-0.0737305,-0.0927734
611068285559,-1.01172,-0.0703125,-0.0961914
611068299944,-1.01172,-0.0737305,-0.0878906
611068322365,-1.01074,-0.0712891,-0.09375
611068345467,-1.01465,-0.0732422,-0.09375
611068366528,-1.01172,-0.0727539,-0.0908203
611068382273,-1.01367,-0.0742188,-0.0922852
611068405497,-1.01025,-0.0756836,-0.0874023
611068426554,-1.01367,-0.0825195,-0.09375
611068442320,-1.01514,-0.0693359,-0.0913086
611068465481,-1.01611,-0.0727539,-0.0922852
611068486580,-1.01807,-0.0703125,-0.0942383
611068502351,-1.0127,-0.065918,-0.0947266
611068525542,-1.0127,-0.0712891,-0.0932617
611068546626,-1.0127,-0.0708008,-0.0927734
611068562388,-1.01123,-0.0722656,-0.097168
611068584945,-1.00879,-0.074707,-0.0986328
611068606622,-1.01025,-0.0727539,-0.0981445
611068622386,-1.01416,-0.0688477,-0.0961914
611068644842,-1.01855,-0.0751953,-0.0986328
611068666644,-1.01172,-0.074707,-0.0966797
611068682375,-1.00977,-0.0761719,-0.100098
611068704816,-1.00977,-0.0751953,-0.0976562
611068726646,-1.01074,-0.0708008,-0.0932617
611068742349,-1.01074,-0.0742188,-0.100586
611068764812,-1.01074,-0.0722656,-0.0976562
611068787945,-1.01367,-0.0668945,-0.090332
611068802347,-1.01221,-0.074707,-0.0976562
611068824896,-1.01514,-0.0742188,-0.103516
611068847977,-1.01416,-0.0732422,-0.0986328
611068862338,-1.01367,-0.0761719,-0.0976562
611068884877,-1.00928,-0.0737305,-0.097168
611068908001,-1.01172,-0.0688477,-0.0883789
611068922391,-1.01465,-0.0703125,-0.101562
611068944958,-1.01025,-0.0751953,-0.0947266
611068968091,-1.01074,-0.0727539,-0.100098
611068982415,-1.00781,-0.078125,-0.0986328
611069005568,-1.00732,-0.0776367,-0.0961914
611069028069,-1.01221,-0.0712891,-0.0986328
611069042398,-1.00635,-0.0712891,-0.103027
611069064844,-1.01123,-0.074707,-0.0952148
611069088065,-1.00879,-0.074707,-0.0981445
611069102379,-1.01562,-0.0703125,-0.0947266
611069124950,-1.01758,-0.0668945,-0.0966797
611069147998,-1.01562,-0.0820312,-0.0976562
611069162343,-1.01221,-0.0761719,-0.103516
611069184898,-1.00781,-0.0703125,-0.103516
611069215591,-1.00879,-0.0683594,-0.0986328
611069222402,-1.01318,-0.0791016,-0.0942383
611069244996,-1.01172,-0.0644531,-0.105469
611069267977,-1.00977,-0.065918,-0.0966797
611069282319,-1.01904,-0.0668945,-0.0957031
611069312994,-1.01221,-0.0791016,-0.0942383
611069327998,-1.01807,-0.0708008,-0.097168
611069349089,-1.01318,-0.074707,-0.0957031
611069364898,-1.00879,-0.0795898,-0.104492
611069388064,-1.01074,-0.0771484,-0.0961914
611069408895,-1.00977,-0.0722656,-0.0957031
611069433100,-1.01221,-0.0722656,-0.102539
611069448079,-1.00977,-0.0717773,-0.101562
611069469114,-1.01465,-0.0722656,-0.100098
611069485017,-1.00977,-0.0795898,-0.0981445
611069508063,-1.01172,-0.0761719,-0.0942383
611069529029,-1.0083,-0.0737305,-0.097168
611069544962,-1.01367,-0.0742188,-0.101562
611069567426,-1.01025,-0.0722656,-0.101562
611069589177,-1.01514,-0.0751953,-0.0986328
611069604927,-1.0127,-0.0664062,-0.101562
611069627460,-1.01416,-0.0712891,-0.0976562
611069649209,-1.01562,-0.0795898,-0.103516
611069665019,-1.00879,-0.0766602,-0.102539
611069687406,-1.01367,-0.0703125,-0.102051
611069709156,-1.01318,-0.0712891,-0.103027
611069724993,-1.01904,-0.0766602,-0.101562
611069747372,-1.0127,-0.074707,-0.101074
611069770547,-1.01025,-0.074707,-0.0966797
611069784960,-1.00879,-0.0742188,-0.103027
611069807498,-1.01123,-0.0727539,-0.102539
611069830558,-1.01074,-0.0712891,-0.0976562
611069845007,-1.01318,-0.0688477,-0.101562
611069867350,-1.01025,-0.0712891,-0.097168
611069880902,-1.0127,-0.0717773,-0.102051
611069904052,-1.00781,-0.0708008,-0.0991211
611069918400,-1.00781,-0.0761719,-0.102539
611069940991,-1.00684,-0.0810547,-0.0961914
611069964116,-1.01221,-0.0722656,-0.103027
611069978407,-1.01367,-0.0722656,-0.0981445
611070001050,-1.0166,-0.0761719,-0.0991211
611070023952,-1.01318,-0.0717773,-0.0966797
611070038503,-1.01221,-0.0688477,-0.103516
611070061052,-1.01123,-0.0751953,-0.0991211
611070092353,-1.00586,-0.0717773,-0.0981445
611070098444,-1.00586,-0.0727539,-0.0961914
611070120975,-1.0127,-0.0708008,-0.0991211
611070144152,-1.01025,-0.0668945,-0.0981445
611070158419,-1.01514,-0.0756836,-0.0976562
611070180993,-1.01318,-0.0722656,-0.0917969
611070204123,-1.01172,-0.0791016,-0.102539
611070218397,-1.01123,-0.0727539,-0.105957
611070240929,-1.00928,-0.0688477,-0.0966797
611070264169,-1.01025,-0.0737305,-0.097168
611070278600,-1.01367,-0.0678711,-0.0952148
611070301050,-1.01172,-0.0776367,-0.104004
611070324144,-1.01172,-0.0698242,-0.0991211
611070338462,-1.01514,-0.0732422,-0.104492
611070360951,-1.00635,-0.0761719,-0.102051
611070384175,-1.01123,-0.0732422,-0.103516
611070398447,-1.01123,-0.0751953,-0.101074
611070420993,-1.01172,-0.0717773,-0.103516
611070444121,-1.01465,-0.0698242,-0.10498
611070458438,-1.01416,-0.0708008,-0.097168
611070481000,-1.01221,-0.0712891,-0.0981445
611070504192,-1.00586,-0.0756836,-0.0957031
611070518499,-1.01367,-0.0761719,-0.0986328
611070540993,-1.01172,-0.0678711,-0.0996094
611070564169,-1.01172,-0.0727539,-0.0981445
611070578468,-1.0127,-0.0712891,-0.0942383
611070600993,-1.01221,-0.0727539,-0.100586
611070624190,-1.01416,-0.0683594,-0.0981445
611070638453,-1.0127,-0.0683594,-0.097168
611070660969,-1.01318,-0.0737305,-0.0961914
611070683391,-1.00879,-0.0703125,-0.101074
611070698374,-1.00977,-0.0751953,-0.0952148
611070720941,-1.00879,-0.0634766,-0.0996094
611070752283,-1.00977,-0.0678711,-0.0996094
611070766575,-1.01123,-0.0722656,-0.0991211
611070780939,-1.00977,-0.0732422,-0.0986328
611070803500,-1.01416,-0.0644531,-0.100586
611070818490,-1.01611,-0.0756836,-0.097168
611070840991,-1.0127,-0.0693359,-0.097168
611070863467,-1.00879,-0.0732422,-0.0966797
611070878467,-1.01123,-0.0742188,-0.103027
611070900965,-1.00732,-0.0732422,-0.0986328
611070923531,-1.0127,-0.0693359,-0.0942383
611070954843,-1.01416,-0.0698242,-0.0927734
611070969127,-1.01514,-0.065918,-0.0913086
611070983468,-1.01318,-0.0717773,-0.100098
611070998531,-1.01953,-0.0668945,-0.09375
611071020941,-1.00928,-0.0693359,-0.0996094
611071043410,-1.00977,-0.0732422,-0.0976562
611071058495,-1.00732,-0.0727539,-0.103516
611071080952,-1.01221,-0.0732422,-0.0976562
611071103411,-1.0127,-0.0693359,-0.103027
611071118466,-1.01758,-0.0678711,-0.0976562
611071140980,-1.01025,-0.0722656,-0.0976562
611071163454,-1.01123,-0.0688477,-0.101074
611071178388,-1.01465,-0.0727539,-0.107422
611071200978,-1.00879,-0.0717773,-0.0986328
611071223458,-1.01074,-0.0751953,-0.0893555
611071238457,-1.01221,-0.0698242,-0.09375
611071260977,-1.01758,-0.0673828,-0.097168
611071283518,-1.01562,-0.0668945,-0.0981445
611071298421,-1.00391,-0.074707,-0.0952148
611071320969,-1.01318,-0.0712891,-0.102051
611071343435,-1.00977,-0.0708008,-0.10498
611071366606,-1.00732,-0.0698242,-0.101562
611071380946,-1.01123,-0.0771484,-0.102051
611071403483,-1.01611,-0.0654297,-0.0996094
611071418477,-1.01172,-0.0703125,-0.0908203
611071440964,-1.01367,-0.0751953,-0.100098
611071463447,-1.01318,-0.0673828,-0.100098
611071479906,-1.01172,-0.0664062,-0.097168
611071500964,-1.01416,-0.0708008,-0.0957031
611071523462,-1.00879,-0.0761719,-0.0957031
611071539916,-1.01318,-0.0673828,-0.0981445
611071569128,-1.01367,-0.065918,-0.0986328
611071583499,-1.0166,-0.0717773,-0.09375
611071599932,-1.01367,-0.0698242,-0.0991211
611071620915,-1.01074,-0.0620117,-0.103027
611071643432,-1.01318,-0.0683594,-0.0981445
611071659934,-1.0083,-0.0766602,-0.104004
611071680969,-1.01221,-0.0722656,-0.097168
611071703447,-1.00439,-0.0727539,-0.101562
611071719918,-1.01514,-0.0703125,-0.0957031
611071740983,-1.01025,-0.0693359,-0.0942383
611071763435,-1.0166,-0.0688477,-0.0976562
611071779933,-1.01562,-0.0673828,-0.0898438
611071800974,-1.0166,-0.0654297,-0.097168
611071823462,-1.00781,-0.0683594,-0.104492
611071839959,-1.00977,-0.0742188,-0.101074
611071860951,-1.01318,-0.0688477,-0.0986328
611071883464,-1.01123,-0.0668945,-0.0981445
611071899907,-1.01172,-0.0683594,-0.100586
611071920905,-1.01416,-0.0717773,-0.0976562
611071943488,-1.01562,-0.0698242,-0.0991211
611071959942,-1.0127,-0.0703125,-0.0996094
611071980974,-1.01074,-0.0644531,-0.0932617
611072003465,-1.01221,-0.0698242,-0.0952148
611072019935,-1.01318,-0.0625,-0.0996094
611072040974,-1.01172,-0.0708008,-0.0947266
611072063507,-1.01221,-0.0683594,-0.0981445
611072079907,-1.01074,-0.0737305,-0.0976562
611072100955,-1.01172,-0.0751953,-0.102051
611072123460,-1.01221,-0.0727539,-0.0976562
611072139956,-1.01318,-0.0703125,-0.101562
611072162418,-1.01367,-0.0688477,-0.0888672
611072183486,-1.01514,-0.0708008,-0.0957031
611072199899,-1.01025,-0.0742188,-0.103027
611072220973,-1.01318,-0.0673828,-0.0976562
611072243483,-1.01221,-0.0673828,-0.102539
611072259904,-1.01221,-0.0766602,-0.0957031
611072280975,-1.00928,-0.0756836,-0.102051
611072303467,-1.0127,-0.0737305,-0.097168
611072319912,-1.0127,-0.0703125,-0.097168
611072340991,-1.01221,-0.0766602,-0.102539
611072363465,-1.01221,-0.0683594,-0.101074
611072379908,-1.01172,-0.0703125,-0.0991211
611072402379,-1.01416,-0.0776367,-0.0986328
611072423475,-1.0166,-0.0698242,-0.0942383
611072439909,-1.01807,-0.0732422,-0.100586
611072462383,-1.01465,-0.0649414,-0.101074
611072483489,-1.01221,-0.0693359,-0.103516
611072499910,-1.01562,-0.0786133,-0.0981445
611072522459,-1.00977,-0.0717773,-0.100586
611072543486,-1.01221,-0.0712891,-0.0952148
611072559925,-1.01025,-0.0742188,-0.0947266
611072582438,-1.00879,-0.0688477,-0.0917969
611072603443,-1.0127,-0.0644531,-0.0869141
611072619965,-1.00977,-0.0727539,-0.0908203
611072642395,-1.01172,-0.0639648,-0.0952148
611072663477,-1.01123,-0.0664062,-0.097168
611072679905,-1.00635,-0.0732422,-0.0927734
611072709927,-1.00977,-0.0712891,-0.0966797
611072723470,-1.01025,-0.0668945,-0.097168
611072739907,-1.00928,-0.0717773,-0.0996094
611072769935,-1.01172,-0.0727539,-0.0986328
611072783505,-1.00977,-0.0742188,-0.0932617
611072799935,-1.01221,-0.0742188,-0.0942383
611072822381,-1.01074,-0.0703125,-0.0957031
611072843456,-1.01514,-0.0708008,-0.0986328
611072859919,-1.01123,-0.0756836,-0.0996094
611072882418,-1.01221,-0.0737305,-0.0966797
611072903455,-1.01172,-0.0664062,-0.0952148
611072921395,-1.01562,-0.0732422,-0.0932617
611072942401,-1.0127,-0.0756836,-0.0957031
611072963470,-1.00928,-0.0693359,-0.0957031
611072979955,-1.01318,-0.0698242,-0.09375
611073002424,-1.0127,-0.0683594,-0.0957031
611073023477,-1.00879,-0.0708008,-0.0986328
611073039939,-1.00977,-0.0654297,-0.097168
611073062411,-1.01367,-0.0751953,-0.0961914
611073083455,-1.01611,-0.0717773,-0.100098
611073099897,-1.01318,-0.0678711,-0.0922852
611073123899,-1.01025,-0.0717773,-0.0957031
611073143514,-1.0127,-0.0673828,-0.0991211
611073159908,-1.00928,-0.0678711,-0.0966797
611073182432,-1.01123,-0.0693359,-0.09375
611073203452,-1.00977,-0.0727539,-0.0957031
611073219936,-1.01025,-0.0673828,-0.0893555
611073242438,-1.01758,-0.0708008,-0.0966797
611073263461,-1.01074,-0.0742188,-0.100098
611073279933,-1.0083,-0.0683594,-0.100098
611073302432,-1.01562,-0.0717773,-0.0942383
611073323496,-1.00977,-0.0717773,-0.100586
611073339926,-1.01709,-0.0717773,-0.0986328
611073362434,-1.01025,-0.0766602,-0.102051
611073384953,-1.01123,-0.0688477,-0.103027
611073399972,-1.00928,-0.0683594,-0.101562
611073422460,-1.00977,-0.0800781,-0.0966797
611073444998,-1.01416,-0.0795898,-0.0947266
611073459997,-1.00977,-0.0737305,-0.0927734
611073482434,-1.01611,-0.0761719,-0.0917969
611073504950,-1.01514,-0.0673828,-0.0927734
611073519993,-1.01221,-0.065918,-0.0952148
611073541498,-1.01025,-0.0673828,-0.0913086
611073564197,-1.01221,-0.0722656,-0.0913086
611073580648,-1.01318,-0.0717773,-0.0986328
611073601642,-1.01318,-0.0708008,-0.0986328
611073624193,-1.01318,-0.0742188,-0.0917969
611073640700,-1.01172,-0.0688477,-0.0947266
611073661734,-1.01514,-0.0668945,-0.097168
611073684193,-1.01172,-0.0703125,-0.0927734
611073700640,-1.01318,-0.0722656,-0.0981445
611073721704,-1.01074,-0.0761719,-0.0913086
611073744237,-1.01709,-0.0737305,-0.0927734
611073760691,-1.01611,-0.0766602,-0.0961914
611073781744,-1.01123,-0.0668945,-0.100098
611073804214,-1.00781,-0.0703125,-0.0908203
611073820659,-1.01465,-0.0693359,-0.0952148
611073841698,-1.01514,-0.0756836,-0.0898438
611073864168,-1.01465,-0.0678711,-0.0927734
611073880725,-1.01074,-0.0737305,-0.0957031
611073901707,-1.01025,-0.0688477,-0.0957031
611073924250,-1.01416,-0.0678711,-0.0913086
611073940668,-1.01318,-0.0727539,-0.0932617
611073961695,-1.01367,-0.0751953,-0.0957031
611073984191,-1.00928,-0.0751953,-0.100586
611074000645,-1.01367,-0.0688477,-0.09375
611074021713,-1.01465,-0.0712891,-0.090332
611074044250,-1.01123,-0.0708008,-0.0986328
611074060657,-1.01025,-0.0693359,-0.0947266
611074081755,-1.00684,-0.0712891,-0.0947266
611074105682,-1.01465,-0.074707,-0.0893555
611074120689,-1.01172,-0.0712891,-0.0927734
611074141778,-1.00977,-0.0673828,-0.0932617
611074164200,-1.01416,-0.0771484,-0.0888672
611074180669,-1.00977,-0.0791016,-0.0932617
611074201623,-1.02002,-0.0712891,-0.0893555
611074224268,-1.01562,-0.0703125,-0.0961914
611074240689,-1.00732,-0.0703125,-0.0996094
611074261708,-1.00781,-0.074707,-0.0957031
611074284257,-1.01074,-0.0708008,-0.0942383
611074299979,-1.01318,-0.0742188,-0.0966797
611074321723,-1.01074,-0.0688477,-0.0991211
611074344259,-1.01074,-0.0717773,-0.0961914
611074360018,-1.01611,-0.0698242,-0.0927734
611074381733,-1.01123,-0.0722656,-0.0961914
611074404189,-1.01465,-0.0683594,-0.0952148
611074419976,-1.00977,-0.0732422,-0.0952148
611074449271,-1.00732,-0.0776367,-0.0922852
611074464206,-1.0166,-0.0688477,-0.097168
611074480004,-1.01465,-0.0693359,-0.0976562
611074503171,-1.01123,-0.0703125,-0.0952148
611074524214,-1.01123,-0.0693359,-0.0922852
611074540005,-1.01318,-0.0698242,-0.101562
611074563142,-1.01318,-0.0688477,-0.0913086
611074584234,-1.0083,-0.0776367,-0.0942383
611074600019,-1.01514,-0.0703125,-0.101074
611074623231,-1.01416,-0.0708008,-0.0986328
611074644314,-1.01416,-0.0761719,-0.09375
611074659978,-1.00732,-0.0703125,-0.0996094
611074683149,-1.01025,-0.0664062,-0.0981445
611074704176,-1.01318,-0.0708008,-0.0942383
611074719964,-1.01172,-0.074707,-0.0961914
611074743164,-1.01123,-0.0766602,-0.097168
611074764286,-1.01074,-0.0678711,-0.101074
611074780050,-1.00977,-0.0742188,-0.0981445
611074802985,-1.0127,-0.0722656,-0.101074
611074824204,-1.01318,-0.0654297,-0.0957031
611074840051,-1.01416,-0.0717773,-0.0932617
611074863169,-1.01318,-0.078125,-0.097168
611074884250,-1.00781,-0.0683594,-0.103516
611074899957,-1.00879,-0.0712891,-0.100586
611074923073,-1.0127,-0.0703125,-0.104492
611074944186,-1.0127,-0.0673828,-0.102539
611074959977,-1.01514,-0.0678711,-0.0932617
611074983097,-1.01074,-0.0732422,-0.101562
611075004174,-1.01221,-0.0732422,-0.103027
611075019923,-1.01221,-0.0712891,-0.0961914
611075043063,-1.00781,-0.0800781,-0.0957031
611075064335,-1.00586,-0.0722656,-0.0961914
611075080069,-1.01562,-0.078125,-0.103516
611075103175,-1.01416,-0.0664062,-0.101074
611075124253,-1.01465,-0.0649414,-0.10498
611075140021,-1.01611,-0.0639648,-0.111328
611075163194,-1.00977,-0.0551758,-0.109863
611075184239,-1.00586,-0.0620117,-0.105957
611075200021,-1.01367,-0.0756836,-0.104004
611075222603,-1.00488,-0.0708008,-0.108887
611075244273,-1.01318,-0.0600586,-0.106934
611075260035,-1.01172,-0.0644531,-0.103027
611075282535,-1.01123,-0.0654297,-0.10498
611075304199,-1.00684,-0.0639648,-0.0991211
611075320014,-0.994629,-0.0649414,-0.119141
611075342548,-1.00928,-0.0795898,-0.105469
611075364244,-1.0083,-0.0698242,-0.116211
611075380001,-1.01758,-0.0673828,-0.10791
611075402494,-1.02441,-0.0717773,-0.117188
611075425672,-1.01221,-0.0639648,-0.109375
611075440020,-1.00391,-0.0751953,-0.117188
611075462590,-1.01367,-0.090332,-0.120605
611075493198,-1.00635,-0.074707,-0.133301
611075500062,-1.00928,-0.0688477,-0.125488
611075522498,-1.01562,-0.0703125,-0.120605
611075545683,-1.01709,-0.0825195,-0.122559
611075560018,-1.01758,-0.0820312,-0.112793
611075582529,-1.01416,-0.0874023,-0.124023
611075605691,-1.00977,-0.0908203,-0.119141
611075620058,-1.00342,-0.0791016,-0.120117
611075642545,-1.01025,-0.0712891,-0.126465
611075665705,-1.00537,-0.0737305,-0.122559
611075680015,-1.00537,-0.0712891,-0.126465
611075702442,-0.998535,-0.0712891,-0.125488
611075725738,-1.00391,-0.0703125,-0.129395
611075740080,-1,-0.0737305,-0.123535
611075762555,-1.0083,-0.0766602,-0.128906
611075785709,-1.00146,-0.0717773,-0.131836
611075800046,-1.00928,-0.0756836,-0.132812
611075822548,-1.01025,-0.0756836,-0.143555
611075845691,-1.0083,-0.0688477,-0.133789
611075860130,-1.01025,-0.0649414,-0.140137
611075882570,-1.01025,-0.0751953,-0.135254
611075905715,-1.00781,-0.0708008,-0.141113
611075920023,-1.00781,-0.0751953,-0.137207
611075942465,-1.00781,-0.0732422,-0.148926
611075965693,-1,-0.0786133,-0.152344
611075986766,-0.996094,-0.074707,-0.14502
611076002547,-0.990234,-0.0766602,-0.148926
611076025749,-1.00244,-0.078125,-0.132812
611076046743,-1.00879,-0.0717773,-0.136719
611076062571,-1.0166,-0.0722656,-0.143066
611076086102,-1.01318,-0.0786133,-0.149414
611076106669,-1.01318,-0.0791016,-0.153809
611076122540,-0.999512,-0.0722656,-0.155273
611076145697,-0.998047,-0.0751953,-0.156738
611076166768,-0.996094,-0.0751953,-0.156738
611076182547,-0.999023,-0.0800781,-0.163574
611076205073,-1.00146,-0.0859375,-0.160156
611076226728,-1.01123,-0.0805664,-0.159668
611076242536,-1.01123,-0.0756836,-0.166504
611076265106,-1.00977,-0.0839844,-0.168945
611076287439,-1.00684,-0.0898438,-0.166992
611076302552,-0.999023,-0.0786133,-0.171875
611076325042,-0.991211,-0.0922852,-0.173828
611076346777,-0.990723,-0.0830078,-0.168945
611076362503,-0.991211,-0.074707,-0.168945
611076385017,-0.99707,-0.0717773,-0.163086
611076408293,-1.00195,-0.0751953,-0.160645
611076422516,-1.00488,-0.0820312,-0.166992
611076445065,-1.02051,-0.090332,-0.151855
611076468169,-1.01221,-0.0834961,-0.167969
611076482569,-1.00879,-0.0805664,-0.168457
611076504984,-1.00635,-0.0825195,-0.17041
611076528225,-0.997559,-0.0820312,-0.172363
611076542588,-0.999023,-0.0791016,-0.169434
611076565026,-1.00146,-0.0913086,-0.168945
611076588225,-1.00391,-0.0864258,-0.161621
611076602546,-1.00146,-0.081543,-0.161621
611076625043,-1.00391,-0.0820312,-0.16748
611076648206,-1.00098,-0.0751953,-0.164062
611076662593,-0.995117,-0.0849609,-0.17041
611076685047,-0.993164,-0.0830078,-0.170898
611076708241,-0.998047,-0.0805664,-0.171387
611076722570,-1.00098,-0.078125,-0.167969
611076745034,-1.00244,-0.0874023,-0.16748
611076768230,-1.00635,-0.0810547,-0.175781
611076782545,-1.00879,-0.0737305,-0.173828
611076805002,-1.00244,-0.0771484,-0.162598
611076828153,-1.00195,-0.078125,-0.172363
611076842532,-1,-0.0859375,-0.16748
611076865069,-1.00049,-0.0820312,-0.169922
611076895780,-1.00098,-0.0839844,-0.175781
611076909343,-1.00195,-0.0810547,-0.174316
611076925047,-0.996582,-0.0825195,-0.166504
611076948212,-1.00146,-0.0820312,-0.165527
611076969277,-1.00537,-0.0834961,-0.16748
611076985066,-1,-0.0888672,-0.171875
611077008142,-1.00049,-0.0869141,-0.169922
611077029244,-0.999512,-0.0795898,-0.175781
611077045095,-1.0083,-0.0820312,-0.171875
611077068193,-1.00342,-0.0756836,-0.17334
611077089371,-1.00391,-0.0791016,-0.167969
611077105096,-0.998535,-0.0844727,-0.173828
611077127540,-1.00049,-0.0849609,-0.174316
611077156781,-1.00244,-0.0810547,-0.167969
611077165067,-1.00781,-0.081543,-0.166016
611077178579,-1.00488,-0.0878906,-0.164551
611077201113,-1.00195,-0.0893555,-0.166992
611077224320,-0.996094,-0.0820312,-0.16748
611077238606,-1.00098,-0.0859375,-0.173828
611077261188,-1.00146,-0.0854492,-0.170898
611077284340,-1,-0.0898438,-0.17334
611077298707,-0.999023,-0.0869141,-0.168457
611077321069,-1.00195,-0.0795898,-0.163086
611077344274,-1.00439,-0.0805664,-0.161133
611077358553,-1.00635,-0.0810547,-0.160645
611077381046,-0.996094,-0.0620117,-0.163086
611077404217,-0.995117,-0.0761719,-0.166504
611077418533,-0.996582,-0.0795898,-0.159668
611077441078,-1.00342,-0.0761719,-0.163574
611077464261,-1.00732,-0.081543,-0.159668
611077478581,-1.01318,-0.0878906,-0.16748
611077501151,-1.00537,-0.0844727,-0.169922
611077524284,-1.00244,-0.0859375,-0.17041
611077538702,-0.994629,-0.0878906,-0.168945
611077561151,-1.00244,-0.0839844,-0.165039
611077584317,-0.998535,-0.0834961,-0.161133
611077598600,-1.00049,-0.081543,-0.163086
611077621146,-1.00391,-0.0854492,-0.160645
611077644342,-1.00293,-0.0874023,-0.160645
611077658647,-1.00928,-0.0859375,-0.164551
611077681051,-1.00439,-0.081543,-0.161621
611077704034,-1.00049,-0.0786133,-0.165039
611077718593,-0.997559,-0.0805664,-0.172852
611077741121,-1.00244,-0.078125,-0.158203
611077764262,-0.999023,-0.081543,-0.161133
611077778618,-1.00342,-0.0913086,-0.16748
611077801121,-1.00244,-0.0834961,-0.169922
611077824306,-1.00977,-0.0834961,-0.168945
611077838605,-1.00537,-0.0854492,-0.172852
611077861146,-0.998047,-0.0952148,-0.172363
611077884236,-0.996094,-0.0786133,-0.170898
611077898650,-1.00049,-0.0805664,-0.16748
611077921100,-1.00146,-0.081543,-0.165039
611077944329,-1.01025,-0.0830078,-0.169434
611077958620,-1.00488,-0.0820312,-0.158203
611077981150,-1.00586,-0.0854492,-0.168945
611078004282,-0.994141,-0.0864258,-0.172363
611078020066,-0.996094,-0.0883789,-0.164551
611078041113,-1.00391,-0.0742188,-0.161621
611078064347,-0.999023,-0.0834961,-0.157715
611078078645,-1.00342,-0.0854492,-0.164551
611078101205,-1.00537,-0.0839844,-0.170898
611078124304,-1.00439,-0.081543,-0.167969
611078140023,-1.00488,-0.0834961,-0.163574
611078161247,-1,-0.0839844,-0.160645
611078184291,-1.00293,-0.0800781,-0.167969
611078198621,-1.00244,-0.0844727,-0.169434
611078221110,-1.00244,-0.0805664,-0.166504
611078244283,-1.00684,-0.0849609,-0.160156
611078258624,-1.00391,-0.0888672,-0.171875
611078281113,-1.00684,-0.0908203,-0.171875
611078303639,-1.00098,-0.0849609,-0.169434
611078318695,-1,-0.0810547,-0.174805
611078341194,-0.998535,-0.0820312,-0.167969
611078363694,-0.99707,-0.0864258,-0.166016
611078378706,-1.00049,-0.0830078,-0.163086
611078401091,-1.00488,-0.0791016,-0.163086
