myot,myox,myoy,myoz
1455877958,myox,myoy,myoz
55073759665,-0.438477,-0.485352,0.810547
55073767139,-0.449219,-0.477051,0.852051
55073789667,-0.446289,-0.558594,0.682617
55073804631,-0.404297,-0.672852,0.786133
55073827197,-0.587402,-0.546875,0.650391
55073849662,-0.555176,-0.71875,0.860352
55073864674,-0.336426,-0.63916,0.472168
55073887206,-0.181641,-0.783203,0.586914
55073909674,0.0131836,-0.6875,0.431641
55073924684,0.166016,-0.755859,0.534668
55073947148,0.161621,-0.816895,0.407715
55073969700,0.0878906,-0.858887,0.309082
55073984693,0.0419922,-0.925293,0.502441
55074007180,-0.0698242,-0.790527,0.249512
55074029739,-0.204102,-1.08252,0.261719
55074044701,-0.445312,-1.15137,0.239258
55074067255,-0.385742,-0.97168,0.142578
55074089686,-0.21875,-0.929688,0.276367
55074104627,-0.246094,-0.927246,0.370117
55074127187,-0.143066,-0.871582,0.460938
55074149662,-0.3125,-0.914551,0.243652
55074164705,-0.269531,-1.07764,0.116699
55074187144,-0.065918,-0.954102,0.13916
55074209681,0.211914,-1.04248,0.0722656
55074224736,0.317383,-0.869629,-0.0317383
55074247205,-0.0205078,-1.0332,0.12207
55074270151,0.223633,-0.955078,0.143555
55074284680,0.379395,-0.812988,0.133301
55074307163,0.359863,-0.936035,0.0649414
55074329646,0.333496,-0.997559,-0.03125
55074344716,0.213867,-1.03027,-0.050293
55074367211,0.107422,-1.02979,-0.027832
55074389749,-0.0131836,-1.00195,0.0708008
55074404690,-0.0297852,-1.03564,0.0493164
55074427169,0.015625,-1.03613,0.097168
55074457172,-0.043457,-0.962402,0.18457
55074472191,-0.0664062,-0.98877,0.176758
55074487107,-0.0356445,-1.03223,0.165527
55074509699,0.046875,-0.938477,0.0664062
55074524721,0.136719,-0.960449,0.184082
55074547190,0.160156,-1.0083,0.118164
55074577195,0.241699,-0.992676,0.165527
55074592179,0.267578,-0.930176,0.164551
55074607136,0.254883,-0.92041,0.21582
55074629768,0.171387,-0.826172,0.133789
55074644759,0.249512,-0.899902,0.425781
55074667219,0.186035,-0.964355,0.275879
55074689695,0.223633,-0.843262,-0.0512695
55074704709,0.395996,-1.03662,0.255859
55074727135,0.445801,-0.929688,0.472168
55074749726,0.242188,-0.766113,0.161133
55074764795,0.162109,-0.882324,-0.0615234
55074787245,0.191406,-0.869629,-0.145996
55074809685,0.17334,-0.859863,-0.179199
55074825132,0.156738,-0.890625,-0.139648
55074847184,0.149414,-0.861816,-0.00341797
55074869624,0.116211,-0.865234,0.357422
55074884700,0.0693359,-0.983398,0.690918
55074907122,0.0996094,-1.0957,0.253906
55074929681,0.252441,-1.02979,-0.478516
55074944660,0.161621,-0.945312,0.258301
55074967209,0.0820312,-1.00635,0.757324
55074989698,0.251465,-0.904297,-0.462402
55075004708,0.0351562,-1.01807,0.874512
55075027252,0.227051,-0.88623,-0.434082
55075049723,-0.0292969,-1.07764,0.902832
55075064673,0.31543,-0.816895,-0.153809
55075087168,0.171875,-0.970703,-0.219238
55075109742,-0.0722656,-1.1333,0.630859
55075124620,-0.0327148,-1.01855,0.821289
55075147206,0.131348,-0.907715,0.583496
55075169662,0.244629,-0.881348,0.351074
55075184707,0.223145,-0.871582,0.306152
55075207203,0.125977,-0.931152,0.28418
55075229657,-0.116699,-0.883301,0.155273
55075244617,0.186035,-0.978516,0.17334
55075267204,0.15625,-0.939453,0.182129
55075289673,0.145996,-0.996582,0.199707
55075305195,0.152344,-0.963867,0.209473
55075327142,0.147949,-0.962402,0.20752
55075349789,0.147461,-0.970215,0.200684
55075364680,0.140137,-0.961426,0.218262
55075387198,0.124023,-0.960938,0.227539
55075417195,0.12793,-0.975586,0.203125
55075439761,0.127441,-0.955566,0.214844
55075447207,0.125488,-0.964844,0.23877
55075469765,0.0214844,-0.965332,0.149902
55075484765,0.158691,-0.921387,0.211426
55075507141,0.160645,-0.925781,0.237793
55075529733,0.133789,-0.958008,0.214355
55075544713,0.134766,-0.962891,0.231445
55075567178,0.120605,-0.977051,0.210938
55075589669,0.0957031,-0.979492,0.171387
55075604666,0.0913086,-0.980957,0.202148
55075627150,0.101074,-0.974121,0.20752
55075649798,0.116211,-0.967773,0.212402
55075664716,0.141113,-0.973145,0.224121
55075687236,0.141113,-0.981445,0.214355
55075709722,0.120117,-0.991211,0.208008
55075724786,0.115723,-1.02393,0.181641
55075747182,0.059082,-1.04004,0.138672
55075769775,0.0288086,-1.02539,0.171387
55075784745,0.0522461,-1.04395,0.197266
55075807162,0.0952148,-1.09766,0.144531
55075829775,0.170898,-1.2251,-0.130859
55075844690,0.17334,-1.43115,-0.611328
55075867213,0.511719,-1.08154,-0.478516
55075889715,1.53564,-0.273438,-0.0375977
55075904733,1.7207,0.135254,-0.0317383
55075927209,-0.0893555,1.18066,0.664062
55075949711,-0.356934,2.99365,1.94189
55075964773,-2.82227,3.354,2.14697
55075987214,-3.51172,0.904297,0.141602
55076009668,-1.78125,2.18262,-1.78711
55076024658,-2.74463,0.930176,-1.62109
55076062323,-2.03369,-3.76758,-3.41992
55076069660,-1.44678,-0.72998,-3.03662
55076084691,0.434082,0.160156,-2.61572
55076107276,1.81104,0.533691,-2.25244
55076129734,2.19482,1.98633,-0.640137
55076144763,0.299805,2.55322,1.88672
55076167258,-0.461914,2.94922,1.94092
55076189679,-2.74121,2.64307,2.09521
55076204624,-3.97803,3.18799,-1.79639
55076227212,-1.27637,0.947754,-2.24023
55076249643,-1.80811,0.765137,-2.51221
55076264646,-1.79541,-2.67969,-3.21777
55076287317,-1.74609,-1.23096,-2.61621
55076317299,0.346191,-0.258301,-2.74268
55076324712,0.535156,1.03467,-1.66992
55076347225,1.26855,1.4541,-1.00586
55076369684,1.24658,1.94385,1.40088
55076399694,0.161621,1.30078,3.05469
55076407293,-1.44141,0.67334,0.607422
55076429721,-1.7124,0.471191,2.21582
55076444714,-1.87451,0.90918,0.812012
55076467253,-1.74658,-0.279785,-0.469238
55076489724,-1.67285,-0.851562,-0.705078
55076504737,-0.745117,-0.622559,-0.183105
55076527180,-0.209961,-0.562988,0.115723
55076549731,-0.255859,-0.651855,0.0791016
55076564715,-0.078125,-0.582031,0.414062
55076587306,-0.0849609,-0.478027,0.539551
55076609704,-0.355469,-0.620117,0.460938
55076624637,-0.52832,-0.783203,0.315918
55076647234,-0.665527,-0.844238,0.182617
55076669766,-0.853027,-0.813965,0.0859375
55076684696,-0.935547,-0.865234,-0.0332031
55076707243,-0.965332,-0.847168,-0.034668
55076729673,-0.829102,-0.718262,0.0825195
55076744648,-0.64209,-0.645996,0.268066
55076767240,-0.561523,-0.602051,0.417969
55076789789,-0.527344,-0.569336,0.537109
55076804710,-0.602051,-0.565918,0.580566
55076827313,-0.678223,-0.492676,0.558594
55076849777,-0.750488,-0.524902,0.517578
55076864775,-0.761719,-0.546875,0.401367
55076887237,-0.724609,-0.636719,0.328125
55076909818,-0.70752,-0.659668,0.254395
55076924694,-0.680664,-0.74707,0.23877
55076947223,-0.663574,-0.742676,0.214844
55076969794,-0.629883,-0.761719,0.253906
55076984739,-0.595703,-0.702148,0.258301
55077007252,-0.609863,-0.716797,0.283203
55077029867,-0.687012,-0.68457,0.29834
55077044805,-0.737305,-0.693359,0.306152
55077067269,-0.759277,-0.671875,0.295898
55077089761,-0.770996,-0.683105,0.281738
55077104763,-0.779785,-0.698242,0.255859
55077127240,-0.735352,-0.684082,0.245117
55077149760,-0.701172,-0.667969,0.277832
55077164744,-0.67041,-0.674316,0.272461
55077187268,-0.649902,-0.679688,0.3125
55077209760,-0.653809,-0.655273,0.321777
55077224803,-0.686523,-0.63916,0.342773
55077247255,-0.695312,-0.637695,0.354004
55077269685,-0.716309,-0.625977,0.350098
55077284711,-0.734375,-0.631836,0.340332
55077307294,-0.723633,-0.636719,0.312988
55077329698,-0.723633,-0.659668,0.293945
55077344768,-0.704102,-0.668945,0.260254
55077367265,-0.6875,-0.707031,0.255859
55077389737,-0.688965,-0.700684,0.238281
55077404750,-0.686523,-0.68457,0.238281
55077427275,-0.700195,-0.703125,0.260254
55077449846,-0.730957,-0.672363,0.253906
55077464744,-0.748047,-0.660645,0.279785
55077487224,-0.759277,-0.648926,0.271484
55077509809,-0.753418,-0.652344,0.290527
55077524750,-0.72998,-0.650879,0.294434
55077547293,-0.701172,-0.658691,0.28418
55077562299,-0.69873,-0.664062,0.284668
55077584788,-0.705078,-0.657227,0.274902
55077607241,-0.723145,-0.659668,0.272949
55077622223,-0.729492,-0.644531,0.273438
55077644737,-0.712891,-0.651367,0.287109
55077667302,-0.720703,-0.651855,0.285156
55077689796,-0.728516,-0.650391,0.299805
55077704803,-0.741211,-0.630371,0.300781
55077727322,-0.734375,-0.646484,0.300293
55077742315,-0.720703,-0.642578,0.277344
55077764775,-0.733887,-0.646484,0.275879
55077787165,-0.739746,-0.653809,0.263672
55077802293,-0.729492,-0.667969,0.261719
55077824806,-0.714355,-0.65918,0.255859
55077847234,-0.714355,-0.666992,0.257324
55077862190,-0.735352,-0.654297,0.258301
55077884786,-0.750488,-0.642578,0.260742
55077907215,-0.750488,-0.634766,0.267578
55077922250,-0.746094,-0.640625,0.273926
55077944794,-0.734375,-0.638672,0.280762
55077967231,-0.738281,-0.628906,0.287109
55077982230,-0.742188,-0.620605,0.294434
55078004759,-0.751465,-0.621094,0.297363
55078027281,-0.722168,-0.619141,0.300781
55078042250,-0.712891,-0.60498,0.310059
55078064802,-0.707031,-0.609863,0.314453
55078087238,-0.708984,-0.629883,0.3125
55078109745,-0.712402,-0.626465,0.286621
55078124822,-0.723145,-0.615723,0.274414
55078147300,-0.722168,-0.616699,0.269531
55078169854,-0.701172,-0.630371,0.279297
55078184799,-0.70459,-0.624023,0.303223
55078207220,-0.692871,-0.620117,0.283203
55078229777,-0.679199,-0.606445,0.279785
55078244761,-0.712402,-0.564941,0.299805
55078267270,-0.741699,-0.521973,0.312012
55078289692,-0.723145,-0.523438,0.333496
55078304699,-0.71875,-0.450684,0.300293
55078327267,-0.76123,-0.434082,0.337402
55078349753,-0.819824,-0.446777,0.361328
55078364739,-0.820312,-0.330078,0.285156
55078387261,-0.979492,-0.336914,0.287598
55078409761,-0.876465,-0.19873,0.270508
55078424745,-1.00439,-0.183105,0.319824
55078447290,-1.23633,0.0629883,0.92627
55078469731,-1.12451,-0.45166,-0.12793
55078484730,-1.41895,0.365723,0.586426
55078507357,-1.05664,-0.256836,0.105469
55078529762,-0.874512,0.0908203,0.36084
55078544764,-0.975098,-0.228516,0.211914
55078567415,-1.02441,-0.074707,0.252441
55078589699,-0.963379,-0.121094,0.37207
55078604767,-0.833496,-0.181152,0.289551
55078627323,-0.773438,-0.115723,0.305664
55078649816,-0.796875,-0.216309,0.318359
55078664827,-0.768066,-0.194336,0.322266
55078687284,-1.00293,-0.224609,0.403809
55078709761,-1.03857,-0.0463867,0.374023
55078724825,-1.21143,-0.214355,0.355469
55078747304,-1.09814,-0.126465,0.182129
55078769755,-0.973145,-0.0654297,0.322266
55078784827,-1.12891,-0.0170898,0.275879
55078807347,-1.05713,-0.0869141,0.157227
55078829801,-1.01074,-0.122559,0.347656
55078844806,-0.936523,-0.184082,-0.117676
55078867232,-0.946289,-0.206543,0.300293
55078889853,-0.910156,-0.0126953,0.145508
55078904792,-1.02979,-0.112793,0.26709
55078927261,-1.04102,-0.0839844,0.177246
55078949832,-1.04688,-0.0439453,0.214355
55078964820,-1.0752,-0.130859,0.22998
55078987265,-1.05176,-0.0131836,0.233398
55079009787,-0.958984,-0.130859,0.212402
55079024755,-0.947754,-0.09375,0.187012
55079047295,-0.959473,-0.12793,0.243652
55079069842,-0.970215,-0.123535,0.237305
55079084786,-0.958008,-0.149902,0.241211
55079107246,-0.967773,-0.149902,0.183594
55079129815,-0.974121,-0.169434,0.217773
55079144786,-1.04639,-0.265625,0.10791
55079167292,-0.992676,-0.182617,0.256348
55079189849,-0.921387,-0.105957,0.210938
55079204786,-0.839355,-0.132812,0.250488
55079227241,-0.734375,0.0273438,0.220215
55079249846,-1.10986,-0.0898438,-0.0849609
55079265311,-1.21338,-0.125488,0.137695
55079287213,-1.23193,0.183105,-0.129883
55079309798,-1.46875,0.0166016,0.0195312
55079324845,-1.27979,0.348633,0.0678711
55079347363,-0.988281,0.146973,0.166016
55079369804,-0.917969,-0.000488281,0.124023
55079384842,-0.976074,0.0229492,-0.0249023
55079407211,-1.0166,-0.0913086,0.115234
55079429793,-1.00635,0.155762,0.104004
55079444777,-1.05225,0.0332031,0.0517578
55079467220,-0.987305,0.00439453,0.0454102
55079489732,-0.889648,0.0961914,0.0830078
55079504795,-1.03662,0.0219727,-0.043457
55079527267,-1.00977,-0.0117188,-0.0405273
55079549731,-0.943848,0.128418,0.065918
55079564790,-0.601074,0.244141,-0.0595703
55079587251,-1.05762,0.137207,0.0820312
55079609729,-1.32324,0.116699,-0.0219727
55079624704,-1.08008,0.0629883,-0.0932617
55079647209,-0.924805,0.114746,0.0668945
55079669739,-1.02979,0.0405273,-0.0078125
55079684758,-0.888672,0.145508,-0.0400391
55079707273,-1.11572,0.188965,0.0927734
55079729738,-1.03809,0.115723,-0.0307617
55079744726,-1.01904,0.174805,0.0571289
55079767278,-1.03271,0.128418,-0.0151367
55079789769,-1.14502,0.0170898,0.310059
55079804809,-1.0166,0.00634766,-0.177246
55079827300,-0.969727,0.0952148,-0.000976562
55079849748,-1.07812,0.197266,0.0991211
55079864745,-1.05469,0.0205078,-0.212402
55079887280,-1.04443,0.171875,0.0625
55079909756,-1.00244,0.169434,-0.0664062
55079924754,-1.0415,0.0336914,-0.137207
55079947277,-1.00879,0.0820312,0.105469
55079969750,-1.00977,0.0688477,0.015625
55079984767,-1.02783,0.00195312,-0.0683594
55080007284,-1.01709,0.0458984,-0.027832
55080029772,-1.0166,0.0991211,-0.0332031
55080044771,-1.00781,-0.0131836,-0.00732422
55080067317,-0.991211,0.0786133,0.0927734
55080089801,-1.0376,-0.0131836,-0.0209961
55080104753,-1.02344,0.00537109,-0.0600586
55080127297,-1.01416,0.0390625,-0.00537109
55080149773,-1.01172,0.0444336,-0.0405273
55080172276,-1.02734,0.043457,-0.0649414
55080187294,-1.021,0.0175781,-0.0175781
55080209788,-1.02441,0.00976562,-0.0683594
55080224778,-1.01514,0.0327148,-0.0454102
55080247227,-1.02246,0.0200195,-0.0229492
55080269774,-1.01318,0.0424805,0.012207
55080284765,-1.02002,0.0341797,-0.0922852
55080307281,-1.01514,0.0327148,-0.00683594
55080329779,-1.02246,0.0361328,-0.0717773
55080344785,-1.01367,0.0615234,-0.00683594
55080374795,-1.02344,-0.00341797,-0.0415039
55080389764,-1.01318,0.0341797,-0.015625
55080404783,-1.02148,-0.00683594,-0.0268555
55080427239,-1.01318,0.0395508,0.0141602
55080449740,-1.0127,0.043457,0.0185547
55080464761,-1.01953,0.0253906,-0.0307617
55080487231,-1.00928,0.0678711,0.0361328
55080509806,-1.01465,0.0454102,-0.0419922
55080532272,-1.02246,0.0283203,-0.0258789
55080547257,-1.01562,0.0424805,-0.043457
55080569792,-1.02051,0.0268555,-0.0249023
55080592280,-1.0083,0.0473633,-0.0478516
55080607278,-1.02637,0.0551758,-0.00976562
55080629808,-1.02393,0.0332031,-0.0395508
55080652747,-1.01318,0.131836,-0.0351562
55080667271,-0.981934,0.0512695,0.0576172
55080689801,-1.03955,-0.0341797,-0.0957031
55080712274,-1.02344,0.027832,-0.0571289
55080727270,-1.01318,0.00585938,0.00878906
55080749825,-1.02783,-0.0107422,-0.050293
55080772283,-1.021,0.0302734,-0.0214844
55080787536,-1.02051,0.0322266,-0.0268555
55080809731,-1.00732,0.0458984,-0.0292969
55080832245,-1.01367,0.0371094,-0.0385742
55080847298,-1.01416,0.0224609,-0.0214844
55080869739,-1.01904,0.0244141,-0.0458984
55080892302,-1.01611,0.0288086,-0.0361328
55080907289,-1.021,0.0258789,-0.0292969
55080929750,-1.02832,0.0297852,-0.0219727
55080952305,-1.01904,0.0166016,-0.019043
55080967307,-1.02246,0.0195312,-0.0488281
55080989723,-1.02002,0.0185547,-0.0200195
55081012317,-1.01953,0.0244141,-0.0205078
55081027315,-1.03076,0.0327148,-0.00732422
55081042275,-1.02686,0.0229492,-0.0151367
55081064720,-1.01953,0.0195312,-0.0439453
55081087291,-1.02295,0.0214844,-0.0390625
55081102304,-1.01953,0.019043,-0.0327148
55081124773,-1.01611,0.0288086,-0.0351562
55081147298,-1.01709,0.0288086,-0.0180664
55081162298,-1.01758,0.0234375,-0.0258789
55081184785,-1.01758,0.0263672,-0.0327148
55081207300,-1.01709,0.0336914,-0.034668
55081222294,-1.01758,0.0317383,-0.0292969
55081244740,-1.01807,0.0400391,-0.0415039
55081267320,-1.01855,0.0307617,-0.0288086
55081282285,-1.02246,-0.00732422,-0.0576172
55081304773,-1.01855,0.0185547,-0.03125
55081327268,-1.02051,0.0239258,-0.00927734
55081342326,-1.01367,0.0229492,0.00244141
55081364799,-1.01855,0.0195312,-0.0244141
55081387339,-1.01514,0.0415039,-0.0239258
55081402315,-1.01709,0.0341797,-0.0488281
55081424816,-1.021,0.00976562,-0.0683594
55081447320,-1.01953,0.0258789,-0.0234375
55081462320,-1.0249,0.0102539,-0.0615234
55081484803,-1.021,0.0224609,-0.0341797
55081507281,-1.01855,0.0180664,-0.0317383
55081522323,-1.0166,0.0205078,-0.0336914
55081544822,-1.01953,0.0263672,-0.0327148
55081567241,-1.01855,0.0288086,-0.0283203
55081582358,-1.0166,0.03125,-0.0361328
55081604802,-1.02002,0.0263672,-0.0356445
55081627343,-1.01416,0.0283203,-0.027832
55081642323,-1.01904,0.0253906,-0.0336914
55081664880,-1.01758,0.0317383,-0.0205078
55081687319,-1.01855,0.0273438,-0.0375977
55081702313,-1.01562,0.027832,-0.0283203
55081724881,-1.01318,0.0288086,-0.0292969
55081747315,-0.986328,0.0161133,-0.0317383
55081762295,-1.04639,0.0410156,-0.0512695
55081784824,-0.980957,0.0595703,-0.0605469
55081807351,-1.03369,0.0336914,0.0166016
55081822341,-1.0127,-0.0195312,-0.0395508
55081844935,-1.03564,-0.0107422,-0.0410156
55081867366,-1.01611,0.0439453,-0.0141602
55081882366,-1.02246,0.0205078,-0.0688477
55081904883,-1.01807,0.0556641,0.012207
55081927294,-1.02295,0.0146484,-0.0673828
55081942379,-1.01904,0.0170898,0.00292969
55081964957,-1.01367,0.0302734,-0.0664062
55081987372,-1.03076,-0.00292969,-0.0991211
55082002260,-1.01904,0.019043,-0.0141602
55082024919,-1.01318,0.0239258,-0.0395508
55082047333,-1.02002,0.0234375,-0.0380859
55082062336,-1.01465,0.034668,-0.0336914
55082084938,-1.0166,0.0288086,-0.0229492
55082107374,-1.01953,0.0234375,-0.0283203
55082122335,-1.01807,0.0302734,-0.0454102
55082144876,-1.01904,0.0263672,-0.034668
55082167333,-1.02539,0.019043,-0.0419922
55082182391,-1.01807,0.0244141,-0.0327148
55082204802,-1.021,0.0322266,-0.0385742
55082227366,-1.01904,0.0351562,-0.0249023
55082242368,-1.021,0.0239258,-0.0317383
55082264910,-1.01611,0.0258789,-0.0258789
55082287394,-1.02002,0.0263672,-0.0322266
55082302368,-1.01709,0.03125,-0.034668
55082324834,-1.01855,0.0263672,-0.0473633
55082347390,-1.01562,0.0292969,-0.0244141
55082362399,-1.01904,0.0327148,-0.0307617
55082392355,-1.01709,0.0273438,-0.0400391
55082407409,-1.0166,0.0268555,-0.0219727
55082422418,-1.01611,0.0292969,-0.0332031
55082444834,-1.01758,0.0258789,-0.0297852
55082467390,-1.01953,0.0249023,-0.0341797
55082482450,-1.01904,0.0229492,-0.0244141
55082504867,-1.01855,0.0268555,-0.0332031
55082527465,-1.01855,0.0273438,-0.0288086
55082542395,-1.021,0.0273438,-0.0258789
55082564942,-1.02246,0.0234375,-0.03125
55082587342,-1.02051,0.0292969,-0.0234375
55082602363,-1.01709,0.0292969,-0.0332031
55082624872,-1.02051,0.0292969,-0.0244141
55082647405,-1.01709,0.027832,-0.0341797
55082662387,-1.01514,0.0239258,-0.0375977
55082684939,-1.02246,0.0253906,-0.0249023
55082707371,-1.03027,0.00585938,-0.0498047
55082722335,-1.00879,0.0410156,-0.0244141
55082744910,-1.02295,0.0136719,-0.0180664
55082767311,-1.01953,0.0180664,-0.0205078
55082782343,-1.02246,0.0126953,-0.0380859
55082804935,-1.01904,0.0214844,-0.0483398
55082827300,-1.01709,0.0244141,-0.0317383
55082842328,-1.01953,0.0224609,-0.03125
55082864880,-1.01709,0.0263672,-0.0361328
55082887428,-1.01611,0.0253906,-0.0297852
55082902325,-1.01562,0.0273438,-0.027832
55082924909,-1.01562,0.0292969,-0.0351562
55082947811,-1.01562,0.0322266,-0.0195312
55082962329,-1.01465,0.0336914,-0.0268555
55082984912,-1.02588,0.0263672,-0.0615234
55083007401,-1.01465,0.0214844,-0.00683594
55083022360,-1.0166,0.0307617,-0.0512695
55083044942,-1.02295,0.0161133,-0.0458984
55083067399,-1.0166,0.0234375,-0.00390625
55083082371,-1.01562,0.0317383,-0.0366211
55083104917,-1.01562,0.0297852,-0.0219727
55083127356,-1.01807,0.0244141,-0.0273438
55083142391,-1.01855,0.0239258,-0.0297852
55083164912,-1.01758,0.0219727,-0.0258789
55083187370,-1.01855,0.0263672,-0.0322266
55083202310,-1.0166,0.0302734,-0.0268555
55083224910,-1.02002,0.0273438,-0.0327148
55083247369,-1.02148,0.0283203,-0.0253906
55083262409,-1.01855,0.0244141,-0.027832
55083284931,-1.01855,0.0244141,-0.0317383
55083307398,-1.01904,0.0258789,-0.0258789
55083322321,-1.01562,0.0234375,-0.0336914
55083344766,-1.01562,0.0268555,-0.027832
55083367382,-1.01807,0.0263672,-0.0327148
55083382424,-1.01514,0.0219727,-0.0307617
55083404922,-1.02051,0.0234375,-0.0351562
55083427382,-1.01758,0.0253906,-0.027832
55083442381,-1.01953,0.0205078,-0.0449219
55083465027,-1.02002,0.0205078,-0.034668
55083487409,-1.01416,0.0307617,-0.0234375
55083502455,-1.02197,0.0317383,-0.0341797
55083524931,-1.01465,0.0239258,-0.0283203
55083547409,-1.02246,0.027832,-0.0317383
55083562440,-1.01953,0.0239258,-0.0307617
55083584894,-1.01807,0.0239258,-0.0341797
55083607424,-1.01318,0.027832,-0.0209961
55083622390,-1.01807,0.0224609,-0.0336914
55083644972,-1.01855,0.03125,-0.0200195
55083667367,-1.01758,0.0263672,-0.0405273
55083682443,-1.01562,0.027832,-0.0234375
55083704954,-1.01855,0.0234375,-0.0336914
55083727415,-1.01904,0.027832,-0.0253906
55083742384,-1.02002,0.0244141,-0.0327148
55083764955,-1.01855,0.0268555,-0.0302734
55083787377,-1.01904,0.03125,-0.0283203
55083802344,-1.01807,0.0302734,-0.0268555
55083824936,-1.01709,0.0288086,-0.0273438
55083847405,-1.02148,0.0244141,-0.0361328
55083862464,-1.01465,0.0268555,-0.0273438
55083884914,-1.02197,0.0229492,-0.0341797
55083907402,-1.01709,0.0292969,-0.0268555
55083922377,-1.02295,0.0244141,-0.0366211
55083944877,-1.01611,0.0258789,-0.0273438
55083967394,-1.02002,0.0205078,-0.0297852
55083982394,-1.02637,0.019043,-0.0498047
55084004906,-1.01855,0.0263672,-0.0419922
55084027449,-1.0166,0.0405273,-0.0302734
55084042335,-1.01025,0.0375977,-0.00585938
55084064904,-1.01807,0.0395508,-0.0288086
55084087384,-1.01123,0.0288086,-0.0268555
55084102322,-1.01807,0.0253906,-0.0239258
55084124965,-1.01855,0.0341797,-0.0458984
55084147358,-1.01807,0.0322266,-0.0649414
55084162389,-1.0166,0.0283203,-0.027832
55084184910,-1.021,0.0209961,-0.050293
55084207383,-1.01953,0.0170898,-0.0327148
55084222438,-1.01904,0.0185547,-0.0375977
55084244852,-1.01758,0.0249023,-0.0336914
55084267420,-1.01709,0.0205078,-0.0371094
55084282379,-1.02197,0.0214844,-0.0327148
55084304932,-1.01562,0.0200195,-0.00341797
55084327435,-1.02002,0.0268555,-0.0283203
55084342354,-1.02393,0.0200195,-0.0395508
55084364918,-1.01953,0.0249023,-0.0302734
55084387335,-1.01709,0.0239258,-0.0234375
55084402435,-1.01611,0.019043,-0.0273438
55084424934,-1.00879,0.0351562,-0.0424805
55084447413,-1.01855,0.0292969,-0.0527344
55084462373,-1.00928,0.0317383,-0.050293
55084484952,-1.01904,0.0317383,-0.0302734
55084507472,-1.01855,0.0214844,-0.0288086
55084522371,-1.01611,0.0307617,-0.0249023
55084544980,-1.01807,0.0195312,-0.0356445
55084567445,-1.01855,0.0283203,-0.0288086
55084582412,-1.01953,0.0249023,-0.0234375
55084604914,-1.02148,0.0297852,-0.0654297
55084627484,-1.01758,0.0327148,-0.0351562
55084642466,-1.01465,0.0297852,-0.0249023
55084664915,-1.01416,0.0327148,-0.027832
55084687465,-1.01953,0.027832,-0.0366211
55084702422,-1.01807,0.0185547,-0.0185547
55084724896,-1.02002,0.0239258,-0.034668
55084747517,-1.02295,0.0219727,-0.0244141
55084762415,-1.01172,0.019043,-0.034668
55084784949,-1.02441,0.0400391,-0.00634766
55084807500,-1.01904,0.0439453,-0.0375977
55084822473,-1.02539,0.0146484,-0.00634766
55084844901,-1.021,0.0249023,-0.0605469
55084867531,-1.00146,-0.00146484,-0.0776367
55084882471,-1.02686,0.0166016,-0.0488281
55084904915,-1.00732,0.0180664,-0.0292969
55084927439,-1.02344,0.0214844,-0.118164
55084942439,-1.01709,0.0317383,-0.0463867
55084964876,-1.01611,0.0229492,0.0151367
55084987373,-1.01465,0.0410156,-0.0214844
55085002468,-1.02246,0.00390625,-0.0239258
55085024966,-1.01953,0.0151367,-0.0869141
55085047419,-1.01562,0.0356445,-0.034668
55085062428,-1.02881,-0.00537109,0.123535
55085084953,-1.04053,0.00878906,-0.150879
55085107417,-1.05713,-0.0239258,-0.0703125
55085122440,-1.02441,-0.0332031,-0.0356445
55085144945,-0.939941,0.149902,-0.059082
55085167910,-1.02637,0.00634766,-0.244629
55085182439,-1.06348,-0.059082,0.126953
55085204960,-1.021,0.059082,-0.0595703
55085227423,-0.92334,0.245117,-0.0327148
55085242371,-1.01025,-0.0263672,0.0751953
55085264985,-1.11035,-0.134766,-0.230957
55085287458,-1.02686,-0.0112305,-0.100586
55085302321,-1.12061,0.00585938,0.17627
55085324920,-0.990234,0.311523,-0.0205078
55085347438,-1.08398,-0.168457,-0.209961
55085362427,-1.01221,-0.204102,0.0751953
55085384949,-0.981934,-0.0170898,-0.102051
55085407428,-0.825684,0.234375,-0.0375977
55085422481,-0.837402,0.398438,0.178223
55085444957,-0.844238,0.288574,-0.248047
55085467338,-0.810059,0.184082,-0.0654297
55085482360,-1.11279,-0.128418,-0.043457
55085504970,-0.922852,0.115234,-0.00830078
55085527405,-0.97168,0.239258,-0.327148
55085542421,-1.05469,0.0712891,-0.146484
55085564978,-1.09863,-0.027832,-0.21875
55085587362,-1.05322,-0.0390625,-0.0361328
55085602350,-0.947754,0.179199,0.0942383
55085624924,-1.08887,-0.090332,0.114258
55085647453,-1.01514,-0.0400391,-0.0820312
55085662421,-0.966309,0.117188,-0.0664062
55085684989,-1.17041,0.0981445,-0.302246
55085707443,-1.1123,-0.0834961,-0.186523
55085722386,-1.09912,0.0268555,0.0942383
55085744903,-0.741211,0.250977,-0.0708008
55085767434,-0.966309,-0.0820312,-0.0644531
55085782432,-1.09766,-0.251465,0.0498047
55085804937,-0.977539,0.283691,-0.189453
55085827458,-0.823242,0.0830078,0.182129
55085842420,-1.03662,-0.186035,-0.142578
55085864948,-1.08789,0.0239258,-0.00683594
55085887481,-1.10303,-0.0341797,-0.163086
55085902424,-0.963867,-0.0410156,-0.513184
55085924932,-1.01953,-0.0107422,-0.0126953
55085947458,-1.021,0.0126953,-0.143066
55085962439,-1.02539,-0.0297852,-0.00976562
55085984950,-1.01367,0.0581055,-0.18457
55086007495,-1.01953,0.00341797,-0.0175781
55086022467,-1.02051,0.0273438,-0.0791016
55086044968,-1.03467,-0.0185547,-0.065918
55086067457,-1.01953,0.0258789,-0.03125
55086082457,-1.01807,0.0141602,-0.00878906
55086104969,-1.01855,0.0302734,-0.0566406
55086127463,-1.021,0.0141602,0.00537109
55086142503,-1.01709,0.0288086,-0.00927734
55086164965,-1.01904,0.0249023,-0.0712891
55086187449,-1.01904,0.0161133,-0.0180664
55086202501,-1.01855,0.0249023,-0.0390625
55086224970,-1.01855,0.0205078,-0.0571289
55086247353,-1.01465,0.0244141,-0.0327148
55086262462,-1.01807,0.019043,-0.0322266
55086292415,-1.021,0.0268555,-0.0600586
55086307415,-1.01562,0.0200195,-0.0200195
55086322386,-1.01465,0.0273438,-0.0322266
55086344944,-1.01904,0.0234375,-0.0458984
55086367423,-1.01611,0.0229492,-0.0268555
55086382445,-1.01709,0.0253906,-0.0395508
55086405060,-1.0166,0.0288086,-0.0371094
55086427444,-1.01807,0.0244141,-0.0327148
55086442443,-1.01562,0.0224609,-0.0375977
55086465002,-1.01807,0.027832,-0.0395508
55086487433,-1.01709,0.0244141,-0.0322266
55086502483,-1.021,0.0253906,-0.0390625
55086524972,-1.01318,0.0234375,-0.0302734
55086547999,-1.0166,0.0214844,-0.0356445
55086562441,-1.01807,0.0239258,-0.0371094
55086584977,-1.021,0.0239258,-0.0371094
55086607403,-1.0166,0.0205078,-0.0371094
55086622457,-1.0166,0.0209961,-0.034668
55086644967,-1.0166,0.0219727,-0.034668
55086667459,-1.01709,0.0205078,-0.0371094
55086682438,-1.01855,0.0292969,-0.0336914
55086704960,-1.01904,0.0209961,-0.0322266
55086727433,-1.01904,0.0239258,-0.0385742
55086742475,-1.01416,0.0273438,-0.0429688
55086764958,-1.01514,0.0224609,-0.0336914
55086787472,-1.01855,0.0229492,-0.03125
55086802448,-1.02002,0.0224609,-0.0361328
55086825021,-1.01953,0.0253906,-0.0361328
55086847400,-1.01562,0.0283203,-0.0317383
55086862421,-1.01855,0.0234375,-0.034668
55086884987,-1.02246,0.0258789,-0.0351562
55086907448,-1.01562,0.0258789,-0.0332031
55086922488,-1.01807,0.0229492,-0.0322266
55086945025,-1.01758,0.0200195,-0.0356445
55086967551,-1.01904,0.0283203,-0.0380859
55086982462,-1.01465,0.0224609,-0.034668
55087004988,-1.01514,0.0229492,-0.0410156
55087027464,-1.01855,0.0244141,-0.0375977
55087042412,-1.01758,0.0253906,-0.0327148
55087064972,-1.01807,0.0268555,-0.0380859
55087087502,-1.01758,0.0239258,-0.0336914
55087102459,-1.021,0.0229492,-0.0371094
55087124932,-1.01807,0.0253906,-0.0322266
55087147458,-1.01514,0.0268555,-0.03125
55087169937,-1.01953,0.0239258,-0.0327148
55087184964,-1.021,0.0239258,-0.0341797
55087207491,-1.01562,0.0180664,-0.0361328
55087229978,-1.01758,0.0258789,-0.0341797
55087244894,-1.0166,0.0205078,-0.0327148
55087267492,-1.01807,0.0229492,-0.0371094
55087289941,-1.01514,0.0263672,-0.0371094
55087304934,-1.01807,0.0214844,-0.0361328
55087327485,-1.01807,0.0239258,-0.0385742
55087350049,-1.01758,0.0258789,-0.0405273
55087364965,-1.01465,0.0268555,-0.0380859
55087387505,-1.01758,0.0239258,-0.0302734
55087410009,-1.01611,0.0249023,-0.0380859
55087424991,-1.01953,0.0224609,-0.0327148
55087447522,-1.01953,0.0263672,-0.0395508
55087469993,-1.02051,0.0209961,-0.0361328
55087484897,-1.01709,0.0205078,-0.0327148
55087507492,-1.01807,0.0234375,-0.0380859
55087529958,-1.02002,0.0229492,-0.034668
55087544972,-1.021,0.0244141,-0.0341797
55087567486,-1.01953,0.0229492,-0.0356445
55087589901,-1.01611,0.0209961,-0.0361328
55087604989,-1.02002,0.0200195,-0.0332031
55087627465,-1.01709,0.0229492,-0.0327148
55087649957,-1.01221,0.0375977,-0.0571289
55087665003,-1.02197,0.0141602,-0.0561523
55087687491,-1.02295,0.0166016,-0.0439453
55087710044,-1.01562,0.0205078,-0.0322266
55087724966,-1.01807,0.0268555,-0.0327148
55087747494,-1.0127,0.0253906,-0.0522461
55087770023,-1.02002,0.0244141,-0.0390625
55087784963,-1.01416,0.0224609,-0.0219727
55087807483,-1.01855,0.0200195,-0.0361328
55087830014,-1.01465,0.0273438,-0.0209961
55087845041,-1.01611,0.0214844,-0.0268555
55087867533,-1.01953,0.0195312,-0.0483398
55087890023,-1.021,0.0175781,-0.0336914
55087904982,-1.01318,0.0234375,-0.0283203
55087927496,-1.021,0.0161133,-0.0341797
55087949984,-1.01953,0.015625,-0.0405273
55087964989,-1.01709,0.0273438,-0.0307617
55087987492,-1.02393,0.0185547,-0.043457
55088010011,-1.0166,0.0219727,-0.0239258
55088025000,-1.01855,0.0249023,-0.0170898
55088047498,-1.01611,0.0332031,-0.0615234
55088062458,-1.01367,0.0161133,-0.0214844
55088085036,-1.02051,0.019043,-0.0478516
55088107506,-1.02051,0.0195312,-0.0351562
55088122462,-1.01416,0.0244141,0.0498047
55088145450,-1.02832,-0.0078125,-0.0141602
55088167533,-1.03125,0.00634766,0.015625
55088182527,-1.04199,-0.0175781,-0.0161133
55088205054,-1.03662,-0.09375,-0.0737305
55088227542,-0.95166,0.140625,0.203125
55088242526,-1.16699,0.0253906,0.0361328
55088265080,-1.0293,-0.0112305,-0.163086
55088287423,-1.125,-0.0205078,-0.232422
55088302522,-0.94873,-0.00244141,-0.249512
55088325047,-1.13525,0.227539,-0.353027
55088347598,-1.10693,-0.154297,-0.215332
55088362562,-0.994141,-0.0473633,-0.0668945
55088384978,-0.879883,-0.0517578,0.324707
55088407496,-1.13086,-0.113281,0.0390625
55088422484,-0.969727,0.0351562,-0.0297852
55088445009,-0.905762,0.118652,0.09375
55088467542,-0.958984,0.0683594,-0.03125
55088482489,-0.934082,0.145996,-0.200684
55088504893,-0.92041,-0.0898438,-0.0493164
55088527526,-1.06982,-0.0336914,0.00292969
55088542536,-1.06982,0.162109,-0.0981445
55088564989,-0.996582,0.0981445,-0.149902
55088587529,-1.08203,0.0322266,-0.160156
55088602469,-1.0498,0.123535,0.00976562
55088625541,-0.963379,0.365234,-0.116211
55088647620,-0.868652,0.0273438,0.0883789
55088662518,-1.12744,0.310547,-0.320312
55088684981,-0.839844,-0.106445,-0.681641
55088707546,-1.021,-0.0478516,-0.0258789
55088722505,-0.711426,0.222168,-0.234375
55088745019,-1.17627,0.232422,-0.334961
55088767530,-1.03467,0.0571289,0.21875
55088782513,-0.958496,0.145508,-0.145508
55088804934,-1.15918,0.157715,0.45459
55088827485,-1.01758,0.0693359,0.415527
55088842504,-0.873047,0.317383,-0.445312
55088864982,-1.03223,-0.219727,-0.0898438
55088887470,-1.0083,0.148926,-0.280273
55088902496,-0.958984,0.0263672,-0.0205078
55088925007,-1.10596,0.0463867,-0.0317383
55088947483,-1.24756,-0.510742,0.165039
55088962489,-0.881836,0.0078125,0.286621
55088985006,-1.00928,0.196289,-0.274414
55089007560,-1.05908,-0.0634766,-0.65332
55089022462,-1.02588,0.0859375,-0.26416
55089045079,-1.01855,0.0810547,0.0297852
55089067483,-1.03174,-0.000976562,0.0209961
55089082506,-1.03271,0.00244141,-0.141113
55089105037,-1.00537,0.0361328,-0.0102539
55089127526,-1.0293,-0.00244141,-0.027832
55089142452,-1.02344,0.00146484,-0.0566406
55089165007,-1.01807,0.0180664,-0.0268555
55089180021,-1.02051,0.0166016,-0.0205078
55089202587,-1.02979,0.00292969,-0.0507812
55089225062,-1.01709,0.0244141,-0.0102539
55089240029,-1.01416,0.0341797,-0.0473633
55089262510,-1.01953,0.0195312,-0.0224609
55089285058,-1.01562,0.0234375,-0.0361328
55089307477,-1.0166,0.0219727,-0.0244141
55089322513,-1.021,0.0258789,-0.0419922
55089345040,-1.01709,0.0268555,-0.0239258
55089360014,-1.01953,0.0195312,-0.0356445
55089382464,-1.01807,0.0258789,-0.0234375
55089405043,-1.02002,0.0170898,-0.0302734
55089420042,-1.01758,0.0249023,-0.0249023
55089442506,-1.0127,0.0229492,-0.0385742
55089464980,-1.04199,0.00390625,-0.0341797
55089480026,-1.00586,0.0209961,-0.034668
55089502513,-1.02588,0.0410156,-0.0527344
55089524954,-1.01123,0.0209961,-0.00976562
55089539996,-1.02881,0.0146484,-0.0703125
55089562573,-1.01611,0.0117188,0.0107422
55089585016,-1.01514,0.0273438,-0.0463867
55089607485,-1.01807,0.0253906,-0.0297852
55089622542,-1.01611,0.0234375,-0.0214844
55089645030,-1.01709,0.0253906,-0.0332031
55089659990,-1.02246,0.0102539,-0.0268555
55089682513,-1.01465,0.0214844,-0.0297852
55089704984,-1.01953,0.0205078,-0.0332031
55089719999,-1.02002,0.0239258,-0.0234375
55089742557,-1.01807,0.0195312,-0.0395508
55089772593,-1.02344,0.0234375,-0.0209961
55089779955,-1.01562,0.0239258,-0.0395508
55089802607,-1.01855,0.0205078,-0.0234375
55089825026,-1.01904,0.0200195,-0.0400391
55089840011,-1.01514,0.0229492,-0.019043
55089862593,-1.02148,0.0239258,-0.0375977
55089885030,-1.01514,0.0244141,-0.0283203
55089907575,-1.01855,0.019043,-0.0327148
55089922585,-1.0127,0.0244141,-0.027832
55089945011,-1.01855,0.0200195,-0.034668
55089960008,-1.02148,0.0209961,-0.0292969
55089982541,-1.01709,0.0175781,-0.027832
55090005045,-1.01807,0.0200195,-0.0288086
55090020013,-1.02051,0.0234375,-0.0273438
55090042566,-1.02002,0.0219727,-0.034668
55090064948,-1.02246,0.0214844,-0.0268555
55090080027,-1.01807,0.0239258,-0.0302734
55090102470,-1.01904,0.0209961,-0.0253906
55090125072,-1.01904,0.0214844,-0.0253906
55090140037,-1.01514,0.0200195,-0.0302734
55090162488,-1.01904,0.0234375,-0.0332031
55090185083,-1.0127,0.0219727,-0.03125
55090207579,-1.01855,0.0209961,-0.0361328
55090222511,-1.01758,0.019043,-0.0317383
55090245067,-1.02002,0.0185547,-0.0375977
55090260035,-1.01807,0.019043,-0.0307617
55090282535,-1.01465,0.0214844,-0.034668
55090305034,-1.02002,0.0229492,-0.0351562
55090319993,-1.021,0.019043,-0.0351562
55090342527,-1.02197,0.0214844,-0.0288086
55090365043,-1.01758,0.0209961,-0.0297852
55090380070,-1.01904,0.0239258,-0.0258789
55090402548,-1.01855,0.0170898,-0.0356445
55090425083,-1.02344,0.0229492,-0.0263672
55090440070,-1.01807,0.0195312,-0.0292969
55090462468,-1.01953,0.0200195,-0.0327148
55090492534,-1.02002,0.0170898,-0.0332031
55090507583,-1.01758,0.0229492,-0.0327148
55090522552,-1.01904,0.0205078,-0.0317383
55090544994,-1.02002,0.0175781,-0.0317383
55090567573,-1.01611,0.0195312,-0.0292969
55090582532,-1.021,0.0234375,-0.0341797
55090605098,-1.02051,0.0244141,-0.0244141
55090620059,-1.01953,0.0195312,-0.0307617
55090643032,-1.02051,0.0224609,-0.0288086
55090665092,-1.01709,0.0234375,-0.0288086
55090680095,-1.01562,0.0234375,-0.034668
55090702490,-1.02246,0.0249023,-0.0332031
55090725065,-1.01807,0.0209961,-0.0297852
55090740101,-1.01953,0.0244141,-0.0327148
55090762573,-1.01709,0.0239258,-0.0302734
55090785013,-1.01709,0.0180664,-0.03125
55090800074,-1.01758,0.0258789,-0.0292969
55090822580,-1.01758,0.0224609,-0.0317383
55090845045,-1.01758,0.0229492,-0.0317383
55090860043,-1.02295,0.0205078,-0.0351562
55090882572,-1.01709,0.0229492,-0.0253906
55090905009,-1.0166,0.0214844,-0.0302734
55090920498,-1.01807,0.0234375,-0.0341797
55090942537,-1.02197,0.0195312,-0.0332031
55090965040,-1.01318,0.0239258,-0.0268555
55090980056,-1.02051,0.0219727,-0.0307617
55091002598,-1.01807,0.019043,-0.0327148
55091025060,-1.01562,0.0268555,-0.0273438
55091040019,-1.021,0.0224609,-0.0302734
55091062612,-1.01904,0.0200195,-0.0273438
55091085086,-1.01562,0.0239258,-0.0322266
55091100012,-1.01807,0.0229492,-0.0317383
55091122612,-1.02051,0.0244141,-0.0317383
55091145081,-1.01611,0.0205078,-0.03125
55091160064,-1.01855,0.0253906,-0.0317383
55091182572,-1.01367,0.0214844,-0.0332031
55091205037,-1.01953,0.0229492,-0.0253906
55091220043,-1.021,0.0239258,-0.03125
55091242592,-1.01953,0.0234375,-0.034668
55091265073,-1.01855,0.0209961,-0.03125
55091280011,-1.01807,0.0244141,-0.0302734
55091302575,-1.02002,0.0249023,-0.03125
55091325069,-1.02051,0.0224609,-0.0356445
55091340019,-1.01709,0.0205078,-0.0288086
55091362631,-1.01953,0.0195312,-0.0307617
55091385116,-1.02002,0.0253906,-0.0258789
55091399971,-1.01514,0.019043,-0.0351562
55091422553,-1.0166,0.0180664,-0.0322266
55091445040,-1.01758,0.0214844,-0.034668
55091460057,-1.02148,0.0219727,-0.0302734
55091482548,-1.01904,0.0195312,-0.0336914
55091505071,-1.02148,0.0146484,-0.0302734
55091520091,-1.01953,0.0214844,-0.0258789
55091542531,-1.01758,0.0214844,-0.0288086
55091565089,-1.021,0.0209961,-0.0351562
55091580058,-1.02197,0.0258789,-0.0302734
55091602570,-1.02051,0.0205078,-0.0341797
55091625107,-1.01465,0.0234375,-0.0351562
55091640126,-1.02002,0.0224609,-0.0307617
55091662546,-1.01611,0.0244141,-0.0317383
55091685094,-1.02051,0.0219727,-0.0341797
55091700112,-1.01758,0.0205078,-0.0307617
55091722578,-1.01562,0.0175781,-0.0283203
55091752585,-1.01855,0.0239258,-0.0332031
55091760117,-1.01758,0.0214844,-0.0302734
55091782569,-1.02002,0.019043,-0.0302734
55091805104,-1.021,0.0209961,-0.0307617
55091820146,-1.02051,0.0219727,-0.0283203
55091842551,-1.02148,0.0249023,-0.0361328
55091865053,-1.02344,0.0239258,-0.0317383
55091880121,-1.01465,0.0219727,-0.0258789
55091902642,-1.01953,0.0219727,-0.0307617
55091925085,-1.01855,0.0200195,-0.0356445
55091940084,-1.01758,0.0175781,-0.0292969
55091962484,-1.01465,0.0219727,-0.0283203
55091985100,-1.01758,0.0258789,-0.0273438
55092000059,-1.01855,0.019043,-0.0351562
55092029992,-1.01855,0.0200195,-0.0268555
55092045052,-1.01709,0.0195312,-0.034668
55092060090,-1.01855,0.0214844,-0.0341797
55092082583,-1.01709,0.0180664,-0.0375977
55092105041,-1.02197,0.0234375,-0.03125
55092120034,-1.01904,0.0229492,-0.0327148
55092142544,-1.01904,0.0195312,-0.0292969
55092165094,-1.01953,0.0224609,-0.0385742
55092180127,-1.01855,0.0253906,-0.0288086
55092202633,-1.0166,0.0229492,-0.0288086
55092224999,-1.01807,0.0229492,-0.0327148
55092247588,-1.01855,0.0239258,-0.0307617
55092262537,-1.01904,0.0195312,-0.0307617
55092285124,-1.01855,0.0195312,-0.0263672
55092307534,-1.01611,0.0219727,-0.0258789
55092322541,-1.01562,0.0219727,-0.0253906
55092345042,-1.01953,0.0219727,-0.0327148
55092367590,-1.01855,0.019043,-0.0263672
55092382613,-1.01953,0.0205078,-0.03125
55092405023,-1.01953,0.0229492,-0.03125
55092420126,-1.01855,0.0249023,-0.0268555
55092442625,-1.01709,0.019043,-0.0249023
55092465071,-1.01807,0.0219727,-0.0253906
55092480129,-1.02246,0.0195312,-0.0292969
55092502543,-1.02197,0.0224609,-0.0341797
55092525097,-1.01807,0.0185547,-0.0283203
55092540038,-1.01953,0.0244141,-0.0219727
55092562670,-1.01709,0.0209961,-0.0292969
55092585096,-1.0166,0.0214844,-0.0317383
55092600106,-1.02002,0.0205078,-0.0371094
55092622566,-1.01416,0.0219727,-0.0307617
55092645109,-1.01855,0.0219727,-0.034668
55092660120,-1.01855,0.0209961,-0.03125
55092682595,-1.02148,0.019043,-0.0317383
55092705085,-1.0166,0.0200195,-0.0307617
55092720027,-1.02246,0.0209961,-0.0273438
55092742579,-1.01904,0.0219727,-0.0263672
55092765143,-1.0166,0.0205078,-0.0336914
55092780082,-1.02051,0.0219727,-0.0253906
55092802550,-1.02148,0.0229492,-0.0336914
55092825109,-1.021,0.0209961,-0.0244141
55092840088,-1.01807,0.0214844,-0.0380859
55092862612,-1.01465,0.0209961,-0.0258789
55092885084,-1.0166,0.0224609,-0.0307617
55092900092,-1.01758,0.0224609,-0.0336914
55092922555,-1.01562,0.0229492,-0.0351562
55092945107,-1.01611,0.0219727,-0.034668
55092967621,-1.0166,0.0200195,-0.0244141
55092982539,-1.01709,0.0209961,-0.0385742
55093005154,-1.0166,0.019043,-0.0307617
55093020146,-1.02002,0.0200195,-0.0336914
55093042578,-1.0166,0.0195312,-0.0302734
55093065114,-1.01855,0.0263672,-0.0292969
55093080107,-1.01953,0.0219727,-0.0297852
55093102614,-1.01807,0.0219727,-0.0322266
55093125113,-1.01758,0.019043,-0.0332031
55093140130,-1.01416,0.0209961,-0.0307617
55093162582,-1.01611,0.0205078,-0.0332031
55093185056,-1.00244,0.0410156,0.148926
55093200104,-0.992676,0.129395,-0.159668
55093222536,-0.988281,0.0625,0.100098
55093245111,-0.977539,0.124512,-0.0610352
55093260091,-1.00977,0.046875,0.015625
55093282593,-1.01807,0.0292969,-0.0244141
55093305115,-1.01172,0.0283203,0
55093320113,-1.01514,0.034668,-0.0546875
55093342644,-1.01611,0.0410156,-0.0395508
55093365173,-1.01953,0.027832,-0.0463867
55093380032,-1.01904,0.0141602,-0.0488281
55093402608,-1.01807,0.0244141,-0.0200195
55093425161,-1.01904,0.0268555,-0.0283203
55093440035,-1.01709,0.0273438,-0.0351562
55093462603,-1.01807,0.0180664,-0.0244141
55093485132,-1.01465,0.0258789,-0.0400391
55093500066,-1.01807,0.0219727,-0.0224609
55093522630,-1.0166,0.0229492,-0.0307617
55093545135,-1.01855,0.0244141,-0.0297852
55093560115,-1.02002,0.015625,-0.0200195
55093582660,-1.01904,0.0209961,-0.0366211
55093605121,-1.01611,0.0244141,-0.0258789
55093620072,-1.01855,0.0268555,-0.0385742
55093642682,-1.01953,0.0180664,-0.0263672
55093665085,-1.01904,0.0185547,-0.0283203
55093680120,-1.0166,0.019043,-0.0263672
55093702642,-1.01904,0.0195312,-0.0292969
55093725139,-1.01709,0.0234375,-0.0361328
55093740058,-1.01904,0.0209961,-0.0317383
55093770108,-1.01855,0.019043,-0.0322266
55093785080,-1.0166,0.0214844,-0.0317383
55093807554,-1.01807,0.0195312,-0.0327148
55093822637,-1.01953,0.0234375,-0.0317383
55093845169,-1.0166,0.0268555,-0.0273438
55093867631,-1.01465,0.0507812,-0.0673828
55093882688,-1.01611,0.0195312,-0.00439453
55093905089,-1.01855,0.0253906,-0.0302734
55093927621,-1.02441,0.0180664,-0.0175781
55093942591,-1.02832,0.0166016,-0.0288086
55093965046,-1.01123,0.0439453,-0.0297852
55093987593,-1.00732,0.0390625,-0.0209961
55094002544,-1.02734,0.0429688,-0.0512695
55094025072,-1.00977,0.0463867,-0.0131836
55094047593,-1.00391,0.0405273,-0.0385742
55094062622,-1.02344,0.0234375,-0.0620117
55094085112,-0.992676,0.0458984,-0.0864258
55094107535,-0.953125,0.0444336,-0.0229492
55094122584,-1.01855,0.0107422,-0.00341797
55094145147,-1.04785,0.0317383,-0.0253906
55094167658,-1.05859,0.0844727,-0.074707
55094182532,-1.07959,0.110352,0.0561523
55094205158,-1.04199,0.120605,-0.118164
55094227600,-1.07227,0.0732422,-0.0302734
55094242581,-1.11426,0.103516,0.0332031
55094265222,-1.13721,0.101074,-0.0883789
55094287614,-1.07178,0.0395508,-0.0102539
55094302624,-0.976074,0.00439453,0.0380859
55094325186,-0.933105,-0.0136719,0.0356445
55094347612,-0.986816,-0.0195312,-0.0195312
55094362606,-1.02637,0.0078125,-0.0620117
55094385151,-1.05859,0.0268555,0.0869141
55094407615,-1.10352,0.0209961,0.0844727
55094422578,-1.07471,0.0527344,0.0605469
55094445095,-0.993652,0.0961914,0.0742188
55094467536,-0.979004,0.104492,0.0874023
55094482617,-0.991699,0.0791016,0.108398
55094505032,-0.963867,0.0761719,0.178711
55094527655,-0.928223,0.0776367,0.181641
55094550103,-0.967773,0.0546875,0.137207
55094565047,-0.985352,0.0410156,0.13916
55094587623,-1.05225,0.0400391,0.0883789
55094610133,-1.0874,0.00195312,0.0844727
55094625108,-1.08057,-0.0322266,0.157227
55094647653,-1.06689,-0.059082,0.138672
55094670152,-1.03223,-0.0488281,0.0927734
55094685198,-1.02295,-0.0253906,0.0917969
55094707662,-1.03467,0.000976562,0.134766
55094730109,-1.03906,0.0214844,0.206543
55094745118,-1.04004,0.0488281,0.255371
55094767661,-1.02881,0.0883789,0.23877
55094790154,-0.990723,0.118652,0.255371
55094805065,-0.96875,0.115723,0.325684
55094827660,-0.937988,0.0717773,0.398926
55094850145,-0.90332,0.0512695,0.388184
55094865137,-0.905762,0.0429688,0.430664
55094887635,-0.88623,0.0141602,0.442383
55094910146,-0.858887,-0.034668,0.500488
55094925144,-0.851562,-0.0688477,0.535645
55094947681,-0.85791,-0.0771484,0.521973
55094970141,-0.827148,-0.0185547,0.538086
55094985178,-0.824707,-0.0390625,0.584473
55095007654,-0.828125,-0.0698242,0.646973
55095030142,-0.798828,-0.0292969,0.661621
55095045218,-0.760254,-0.0166016,0.671875
55095067603,-0.687012,0.00244141,0.675781
55095097623,-0.647461,0.0078125,0.690918
55095105102,-0.620605,0.00439453,0.719238
55095127635,-0.597168,0.0366211,0.837402
55095150182,-0.564453,0.0556641,0.857422
55095165103,-0.574219,0.0610352,0.844727
55095180129,-0.599609,0.0351562,0.803223
55095202605,-0.665039,-0.00537109,0.75
55095225148,-0.746582,-0.0449219,0.741211
55095240192,-0.677734,-0.125488,0.85498
55095262605,-0.530273,-0.163574,0.958984
55095285141,-0.408691,-0.219727,0.941406
55095300165,-0.412598,-0.258301,0.674805
55095322565,-0.333984,-0.0737305,0.724609
55095345195,-0.0556641,0.00683594,1.07373
55095360110,-0.0693359,0.119141,1.12207
55095382602,-0.265625,0.219727,0.959473
55095405120,-0.42334,0.166992,0.940918
55095420091,-0.555664,0.0761719,1.0249
55095442626,-0.518066,-0.0786133,0.945312
55095465125,-0.463867,-0.149902,0.923828
55095480120,-0.376465,-0.166016,0.852539
55095510140,-0.265137,-0.151855,0.871582
55095525134,-0.0405273,-0.0429688,0.990234
55095540131,0.196289,0.126953,1.08984
55095562585,0.275879,0.303223,1.08496
55095585145,0.125,0.345215,0.942871
55095600148,-0.0551758,0.277832,0.881348
55095622623,-0.205566,0.102051,0.955566
55095645130,-0.269531,0.0551758,1.04248
55095660124,-0.268066,-0.027832,1.0625
55095682604,-0.187012,-0.0561523,1.02148
55095705079,-0.0839844,-0.0610352,0.946289
55095720109,0.019043,-0.0600586,0.918945
55095742562,0.0581055,-0.0117188,0.964355
55095765090,0.0239258,0.0253906,1.05078
55095780168,-0.043457,0.0395508,1.09375
55095802631,-0.100586,0.0297852,1.04492
55095825093,-0.145508,-0.00976562,0.958984
55095840036,-0.138184,-0.0644531,0.937988
55095862594,-0.125977,-0.0688477,1.01465
55095885066,-0.0761719,-0.0566406,1.05713
55095900085,-0.0317383,-0.0288086,1.04883
55095922621,0.00292969,-0.0219727,1.01953
55095945123,0.00195312,-0.0180664,0.996582
55095960077,-0.012207,-0.0141602,0.976074
55095990113,-0.0537109,-0.0161133,0.991211
55096005076,-0.0913086,-0.0219727,1.00732
55096020112,-0.110352,-0.00488281,1.0249
55096042606,-0.109863,0.000976562,1.03027
55096065121,-0.0800781,-0.000488281,1.00928
55096080093,-0.0605469,-0.0166016,1.00488
55096102633,-0.0268555,-0.0258789,0.999512
55096125124,-0.00292969,-0.0375977,0.99707
55096140090,-0.0107422,-0.0429688,0.999023
55096162657,-0.0400391,-0.043457,1.00781
55096185101,-0.078125,-0.0429688,1.01221
55096200095,-0.0976562,-0.0429688,1.00488
55096222640,-0.100586,-0.0410156,1.00684
55096245119,-0.0795898,-0.0322266,0.999512
55096260056,-0.0478516,-0.0258789,1.00244
55096282645,-0.0263672,-0.0161133,0.999023
55096305110,-0.0297852,-0.00976562,1.00684
55096320132,-0.0351562,-0.00634766,1.02148
55096342666,-0.0600586,-0.0107422,1.00098
55096365144,-0.0805664,-0.00683594,0.990723
55096380113,-0.078125,-0.0253906,0.978027
55096402608,-0.0825195,-0.0239258,0.981934
55096425130,-0.0585938,-0.0141602,1.01562
55096440127,-0.0541992,-0.0180664,1.01318
55096462595,-0.0400391,-0.0234375,0.993164
55096485140,-0.0400391,-0.0234375,0.993652
55096500124,-0.0541992,-0.0166016,1.00439
55096522584,-0.065918,-0.0244141,1.01416
55096545157,-0.0820312,-0.0327148,1.01709
55096560111,-0.0654297,-0.012207,1.00928
55096582598,-0.0600586,-0.0200195,1.01123
55096605175,-0.0463867,-0.0102539,1.00928
55096620150,-0.0556641,-0.00878906,0.991211
55096642613,-0.0493164,-0.0151367,0.996094
55096665180,-0.0532227,-0.0327148,0.987305
55096680114,-0.0546875,-0.0380859,0.991699
55096702579,-0.0698242,-0.012207,1.02246
55096725158,-0.0761719,-0.0175781,1.01758
55096747610,-0.0703125,-0.00488281,1.00977
55096762635,-0.065918,0.0224609,0.999512
55096785184,-0.0527344,0.0112305,0.990723
55096800140,-0.046875,0.00488281,0.970703
55096822646,-0.0410156,0.0263672,0.993652
55096845136,-0.046875,0.0810547,1.0249
55096860145,-0.0463867,0.0649414,1.02441
55096882631,-0.0610352,0.0742188,1.01953
55096905164,-0.0625,0.101562,1.02197
55096920146,-0.0722656,0.106445,0.990234
55096942626,-0.0654297,0.081543,0.987305
55096965107,-0.0620117,0.0776367,0.970215
55096980120,-0.0458984,0.106934,0.998535
55097002620,-0.0424805,0.108398,1.00098
55097025132,-0.0410156,0.102051,1.01514
55097040202,-0.0458984,0.104492,1.0083
55097062670,-0.0556641,0.114746,1.00781
55097085120,-0.122559,0.0986328,0.983887
55097100084,-0.0976562,0.195312,1.04395
55097122663,-0.0976562,0.17627,1.11133
55097145130,-0.0458984,0.141113,1.13623
55097160086,0.00439453,0.125977,1.09717
55097182658,-0.0219727,0.0932617,1.03711
55097205100,-0.0180664,0.0117188,0.942871
55097220132,-0.0566406,-0.00927734,0.916992
55097242671,-0.0649414,0.00585938,0.980957
55097265120,-0.0830078,-0.0307617,1.04492
55097280106,-0.0791016,-0.0610352,1.03223
55097302655,-0.0766602,-0.0375977,1.0542
55097325131,-0.0625,-0.0336914,0.987793
55097340142,-0.0537109,-0.0415039,0.966309
55097362648,-0.0375977,-0.015625,0.98584
55097385131,-0.0395508,0.000976562,1.0127
55097400119,-0.0405273,0.00292969,1.02783
55097422685,-0.0507812,0.0283203,1.04102
55097460877,-0.0537109,0.046875,1.01758
55097461629,-0.0717773,0.0507812,0.980957
55097490106,-0.0712891,0.0644531,0.970215
55097512650,-0.112793,0.0698242,0.948242
55097527647,0.105469,0.0205078,1.00098
55097542626,0.0366211,-0.0507812,1.00684
55097565122,0.166016,-0.183105,1.18799
55097580109,-0.213379,0.197754,0.891113
55097602654,-0.0947266,0.165527,0.853516
55097625153,-0.101562,0.0859375,0.97998
55097640199,-0.0463867,-0.00683594,1.0166
55097662751,-0.0483398,0,1.01514
55097685197,-0.0644531,0.0131836,1.03369
55097700190,-0.0615234,0.00683594,1.01025
55097722767,-0.0400391,0.0131836,0.989258
55097745162,-0.0405273,0.00439453,0.985352
55097760219,-0.0439453,0.00341797,0.994629
55097782707,-0.0537109,0.00732422,1.00684
55097805219,-0.0649414,0.015625,1.01611
55097820149,-0.0605469,0.019043,1.01025
55097842716,-0.0585938,0.0273438,1.01514
55097865226,-0.0556641,0.0375977,0.998535
55097880245,-0.043457,0.0327148,0.993164
55097902709,-0.0444336,0.0361328,0.993652
55097932591,-0.0390625,0.0410156,1.0127
55097940184,-0.050293,0.0380859,1.01416
55097962707,-0.0610352,0.0410156,1.01465
55097985195,-0.0649414,0.0322266,1.00244
55098000235,-0.0556641,0.0390625,1.00684
55098022612,-0.0527344,0.0214844,1.01172
55098045256,-0.0537109,0.03125,1.00439
55098060229,-0.0449219,0.0263672,1.00488
55098082661,-0.0400391,0.0239258,0.996582
55098105281,-0.0371094,0.0185547,0.992676
55098120238,-0.0463867,0.0234375,1.00488
55098142654,-0.0493164,0.0253906,1.0127
55098165285,-0.0600586,0.0229492,1.01709
55098180251,-0.059082,0.0214844,1.00098
55098202622,-0.0571289,0.0229492,1.00098
55098225250,-0.0512695,0.0239258,0.991699
55098240243,-0.0419922,0.019043,0.996582
55098262718,-0.0400391,0.0214844,1.01416
55098285289,-0.0424805,0.0200195,1.01758
55098300194,-0.046875,0.0200195,1.00635
55098322622,-0.0478516,0.0322266,1.00732
55098345235,-0.0634766,0.03125,0.999512
55098360168,-0.0610352,0.0263672,1.00049
55098382676,-0.0429688,0.0268555,1.00781
55098405230,-0.0473633,0.0180664,0.992676
55098420207,-0.0454102,0.00878906,1.0083
55098442727,0.0527344,0.0585938,1.00537
55098465258,0.0498047,0.0273438,1.03711
55098480206,0.0810547,0.0473633,0.986328
55098502681,-0.0371094,0.0371094,1.02979
55098525197,-0.0615234,0.000976562,0.989746
55098540253,-0.0625,0.0336914,1.00635
55098562709,-0.0581055,-0.00439453,0.983398
55098585188,0.00390625,0.034668,0.970215
55098600258,0.0175781,0.0185547,1.02051
55098622727,0.0786133,-0.0683594,1.00488
55098645189,0.0854492,-0.0493164,1.04297
55098660320,0.0703125,-0.0224609,0.960938
55098682743,0.100586,-0.0288086,1.02686
55098705191,0.0830078,0.0712891,1.04004
55098720327,0.0668945,0.0375977,1.00928
55098742773,-0.046875,0.0776367,1.09668
55098765217,-0.050293,-0.0356445,0.969238
55098780220,-0.0952148,-0.0102539,0.994629
55098802666,-0.0966797,0.0541992,1.00732
55098825165,-0.0859375,-0.097168,0.941895
55098840181,-0.0639648,-0.0825195,1.05078
55098877683,-0.0566406,-0.0688477,1.06152
55098900940,-0.0493164,-0.0512695,0.980957
55098901657,0.00585938,-0.043457,0.976074
55098930192,0.00976562,-0.0839844,1.00488
55098952704,0.0146484,-0.0673828,1.02637
55098975221,-0.034668,0.0444336,1.04834
55099005919,-0.0834961,-0.00830078,1.07568
55099006691,-0.0996094,0.0292969,0.981445
55099027729,-0.121582,0.0546875,1.0166
55099057741,-0.0893555,0.0786133,1.0083
55099080943,-0.0571289,0.0654297,0.980469
55099081734,-0.0136719,0.0585938,0.994141
55099110245,-0.000488281,0.0107422,1.03223
55099132729,-0.0458984,-0.0175781,1.03027
55099155229,-0.0449219,-0.0336914,0.96582
55099185973,-0.0864258,-0.0639648,0.932617
55099186637,-0.0488281,-0.0952148,0.959473
55099207665,-0.157227,-0.108887,0.986328
55099237744,-0.106445,-0.0571289,0.965332
55099260987,-0.125488,-0.0566406,1.01904
55099261721,-0.112793,0.000488281,0.991699
55099282675,-0.0830078,-0.00732422,1.05029
55099312700,-0.050293,0.0371094,0.964844
55099335266,0.0253906,0.0361328,0.974121
55099365939,0.0380859,0.046875,1.04004
55099366793,-0.0131836,0.0625,0.916016
55099387724,-0.0244141,0.0537109,0.958008
55099417696,-0.130859,0.0395508,0.991699
55099440891,-0.268066,-0.0180664,0.974121
55099441670,-0.283203,-0.0205078,0.953613
55099462782,-0.22998,-0.0249023,0.991211
55099485211,-0.132324,-0.0366211,0.998047
55099507809,-0.03125,-0.0439453,1.02344
55099522679,0.0639648,-0.0532227,1.03027
55099545210,0.10498,-0.0625,0.98877
55099560240,0.0615234,-0.0703125,0.97998
55099582788,-0.0151367,-0.0683594,0.984863
55099605249,-0.0888672,-0.0810547,1.00391
55099620272,-0.127441,-0.0698242,1.02783
55099642768,-0.126465,-0.0493164,1.02441
55099665286,-0.0820312,-0.0390625,1.00732
55099680268,-0.0195312,-0.0234375,0.993652
55099702777,0.0385742,-0.0214844,0.994141
55099725295,0.0493164,-0.0224609,0.996094
55099740311,0.0175781,-0.0112305,1.01758
55099762692,-0.0429688,-0.0107422,1.0166
55099785291,-0.0981445,-0.0136719,1.00195
55099800288,-0.114746,-0.0131836,1.00537
55099822687,-0.0942383,-0.0166016,1.00293
55099845220,-0.0400391,-0.0131836,1.00928
55099860354,0.00976562,-0.0180664,1.0127
55099882758,0.0307617,-0.0200195,0.998047
55099905276,0.0126953,-0.0351562,0.994141
55099927752,-0.0234375,-0.043457,0.999023
55099942639,-0.0585938,-0.0556641,1.00293
55099965310,-0.0810547,-0.0561523,1.01611
55099980265,-0.0766602,-0.0532227,1.01514
55100002777,-0.0561523,-0.0541992,1.00488
55100025324,-0.0214844,-0.0483398,1.00342
55100040256,-0.00439453,-0.0371094,0.996582
55100062670,-0.000976562,-0.0297852,0.996094
55100085292,-0.0117188,-0.0239258,1.01172
55100100290,-0.0268555,-0.0229492,1.01758
55100122737,-0.0463867,-0.0249023,1.00635
55100145263,-0.0488281,-0.0263672,1.02148
55100160224,-0.0488281,-0.0297852,1.01611
55100182763,-0.0424805,-0.043457,0.998535
55100205255,-0.0493164,-0.0424805,1.01416
55100220258,-0.046875,-0.0478516,0.97998
55100242751,-0.046875,-0.0356445,0.97998
55100265263,-0.0498047,-0.0263672,0.987305
55100280257,-0.0556641,-0.0185547,1.00098
55100302735,-0.0610352,-0.000488281,1.00098
55100325197,-0.0517578,0.012207,1.01416
55100340276,-0.0458984,0.0361328,1.01172
55100362731,-0.0263672,0.0444336,0.990723
55100385243,-0.0322266,0.0605469,0.992188
55100400294,-0.0288086,0.0625,0.988281
55100422800,-0.0439453,0.0976562,1.01025
55100445168,-0.0327148,0.0771484,1.02051
55100460259,-0.0366211,0.09375,1.01758
55100482804,-0.0429688,0.0864258,1.01709
55100505298,-0.0527344,0.081543,0.989746
55100520248,-0.0556641,0.0678711,0.98291
55100542718,-0.0419922,0.0708008,0.998047
55100565240,-0.0375977,0.0717773,1.02002
55100580257,-0.0385742,0.050293,1.01807
55100602802,-0.0449219,0.0454102,1.01025
55100632757,-0.0380859,0.0224609,1.00635
55100640246,-0.0454102,0.00244141,0.983887
55100662800,-0.0478516,-0.0102539,0.990234
55100685356,-0.0532227,-0.00341797,1.00195
55100700278,-0.0561523,-0.0307617,0.998047
55100722758,-0.0595703,-0.0361328,1.01514
55100745235,-0.0527344,-0.0336914,1.01758
55100760236,-0.0444336,-0.0327148,1.02051
55100782709,-0.0395508,-0.0405273,1.00244
55100805278,-0.0336914,-0.0336914,1
55100820232,-0.0405273,-0.0200195,1.00293
55100842809,-0.0419922,-0.019043,1.00049
55100865302,-0.0458984,-0.0131836,1.0083
55100880193,-0.0546875,-0.000976562,1.01025
55100910264,-0.0541992,0.0117188,1.01123
55100925254,-0.0566406,0.0219727,0.998047
55100940243,-0.0522461,0.0395508,0.995117
55100962788,-0.0463867,0.046875,0.992188
55100985212,-0.0463867,0.059082,1.00391
55101000336,-0.046875,0.0556641,1.00439
55101022820,-0.0390625,0.0673828,1.00488
55101045315,-0.0268555,0.0668945,1.0127
55101060304,-0.0288086,0.0649414,1.00586
55101082790,-0.0185547,0.0791016,0.990723
55101105260,-0.043457,0.0600586,0.961426
55101120314,-0.0395508,0.0332031,1.00635
55101142767,-0.0546875,0.0576172,1.01807
55101165295,-0.0375977,0.0327148,1.01758
55101187765,-0.0581055,-0.0112305,1.02637
55101202813,-0.046875,-0.000488281,1.00049
55101225272,-0.0585938,-0.00732422,0.994629
55101240258,-0.0400391,-0.019043,0.995117
55101262672,-0.0405273,-0.0351562,0.989258
55101285285,-0.0424805,-0.0371094,1.00342
55101300225,-0.0415039,-0.0356445,1.03125
55101322710,-0.0454102,-0.034668,1.0083
55101345308,-0.0375977,-0.0258789,1.01318
55101360299,-0.0478516,-0.0195312,1.00146
55101382774,-0.0512695,-0.0209961,0.998047
55101405317,-0.0512695,-0.0102539,1.00195
55101427795,-0.0493164,0.00195312,0.998535
55101442763,-0.043457,0.0117188,1.01123
55101465768,-0.0419922,0.0200195,1.00928
55101487821,-0.0454102,0.0297852,1.00635
55101502796,-0.0356445,0.0385742,1.00635
55101525284,-0.0395508,0.0415039,1.00244
55101547831,-0.0356445,0.0483398,1.00146
55101562781,-0.0424805,0.0488281,1.00049
55101585330,-0.0512695,0.0405273,1.01465
55101607716,-0.0439453,0.0454102,1.01172
55101622714,-0.0410156,0.0292969,1.01074
55101645239,-0.0400391,0.019043,0.998047
55101667808,-0.0410156,0.0126953,1.00732
55101682793,-0.0405273,0.00488281,1.00244
55101705260,-0.0385742,-0.00439453,1.00488
55101727826,-0.0424805,-0.00634766,1.00879
55101742783,-0.0512695,-0.00976562,1.00586
55101765316,-0.0522461,-0.0146484,1.00879
55101787823,-0.046875,-0.0151367,1.00244
55101802827,-0.0439453,-0.0136719,1.00488
55101825241,-0.0429688,-0.0141602,1.00391
55101847839,-0.0444336,-0.00927734,1.00391
55101862840,-0.0400391,-0.000488281,1.00928
55101885310,-0.0385742,-0.00195312,1.00879
55101907786,-0.043457,0.00390625,1.00781
55101922759,-0.0458984,0.0131836,1.00732
55101945266,-0.0444336,0.019043,1.00293
55101967784,-0.050293,0.0214844,1.00146
55101982815,-0.0463867,0.0307617,1.00195
55102005260,-0.043457,0.0336914,1.0083
55102027821,-0.0380859,0.0292969,1.00049
55102042825,-0.034668,0.0297852,1.01416
55102065282,-0.0341797,0.0292969,1.00098
55102095259,-0.0385742,0.0214844,1.00879
55102102788,-0.0410156,0.0224609,1.00195
55102125298,-0.0375977,0.0263672,1.01172
55102147846,-0.0327148,0.00146484,1.00049
55102162814,-0.0517578,0.0078125,1.01318
55102185285,-0.0292969,0.0327148,0.978027
55102207811,0.11084,0.0224609,1.01318
55102230286,0,0.0336914,1.02686
55102245324,0.0566406,-0.0292969,1.021
55102260288,-0.00341797,-0.0131836,0.969238
55102282917,-0.0151367,0.00390625,0.983398
55102305282,-0.0839844,-0.0185547,0.998047
55102320286,0.012207,-0.0410156,1.01514
55102342804,0.0898438,-0.0429688,0.993164
55102372813,0.119141,0.0078125,1.01416
55102380324,0.192871,-0.0571289,0.953125
55102402747,0.145996,0.00683594,1.02637
55102432784,0.09375,0.0351562,1.05566
55102440290,-0.00488281,-0.0458984,1.05859
55102462727,-0.0966797,0.00878906,1.08252
55102485318,-0.197266,-0.00488281,1.0542
55102500319,-0.0600586,-0.0195312,1.05859
55102522721,-0.0224609,-0.111816,1.00244
55102545343,0.0244141,-0.0996094,0.917969
55102560281,0.0297852,-0.0834961,1.11426
55102582756,0.140137,-0.0878906,1.07715
55102612785,-0.0844727,-0.0512695,1.03223
55102635347,-0.0751953,-0.133301,1.16895
55102657859,-0.0664062,-0.0219727,1.01855
55102665314,-0.0356445,-0.0424805,0.922363
55102687838,-0.0561523,0.0371094,0.967285
55102710310,-0.012207,-0.0561523,1.03564
55102740289,-0.00146484,-0.034668,1.06494
55102747739,0.015625,0.0981445,0.940918
55102762781,-0.0478516,-0.0214844,1.0459
55102785358,-0.0898438,0.0649414,1.04834
55102800347,-0.149902,0.0136719,1.03271
55102822824,-0.137207,0.0244141,0.993164
55102852797,-0.138184,-0.0229492,1.0752
55102860305,-0.198242,-0.0332031,1.00879
55102882825,-0.220703,0.0327148,0.972656
55102905328,-0.280762,0.0161133,0.988281
55102920340,-0.30957,0.0224609,0.961914
55102942789,-0.283203,0.019043,1.00488
55102965392,-0.0766602,0.000488281,0.990723
55102980342,0.043457,-0.0419922,1.02295
55103002843,0.186035,0.00634766,1.03125
55103025290,0.163086,-0.0454102,1.00928
55103040316,0.147461,-0.0527344,0.984375
55103062881,-0.00146484,-0.0756836,0.977051
55103085309,-0.0952148,-0.0410156,1.05518
55103100308,-0.181641,-0.0415039,1.03467
55103122895,-0.155762,-0.0751953,0.978516
55103145351,-0.141113,-0.0512695,0.99707
55103160310,-0.0522461,-0.0410156,0.992676
55103182880,0.000976562,-0.0610352,0.990723
55103205342,0.0639648,-0.0600586,1.01123
55103220270,0.0664062,-0.0341797,1.04053
55103242787,0.0805664,-0.0419922,0.996582
55103265277,0.00537109,-0.0429688,1.02051
55103280305,-0.0112305,-0.0146484,1.01416
55103302743,-0.0761719,-0.00439453,1.02637
55103325412,-0.148926,0.0107422,1.00977
55103340352,-0.170898,-0.00244141,0.986328
55103362864,-0.144043,0.0117188,0.974609
55103385316,-0.158691,-0.00390625,0.995605
55103400236,-0.0595703,-0.00683594,1.01123
55103422791,-0.0170898,-0.00488281,1.00732
55103445295,0.0200195,-0.0263672,0.987793
55103460318,0.0830078,-0.0371094,0.98584
55103482821,0.0751953,-0.0175781,0.983398
55103505371,0.0395508,-0.0385742,0.999023
55103520387,-0.0400391,-0.0341797,1.00928
55103542782,-0.0556641,-0.00830078,1.03076
55103565408,-0.123535,-0.00732422,1.0127
55103580295,-0.135742,-0.0385742,0.969238
55103602842,-0.158691,-0.019043,0.997559
55103625298,-0.128906,-0.0146484,1.00049
55103640363,-0.0922852,-0.0493164,0.967285
55103662815,-0.043457,-0.03125,1.00049
55103685328,0.0112305,-0.0166016,1.03076
55103700341,0.0205078,-0.0625,1.01172
55103722836,0.0288086,-0.0585938,1.02393
55103745318,0.00878906,-0.034668,1.02686
55103760740,0.0200195,-0.0454102,0.983398
55103782823,-0.0263672,-0.0517578,0.986328
55103805262,-0.0883789,-0.0151367,1.01172
55103820306,-0.119141,-0.0239258,1.01465
55103842798,-0.130859,-0.0341797,0.990234
55103865264,-0.120117,-0.0112305,1.00928
55103887848,-0.097168,-0.0078125,1.00391
55103902804,-0.0419922,-0.0273438,0.986816
55103925312,-0.0107422,-0.0185547,1.00391
55103940308,-0.000976562,-0.0214844,1.01123
55103962825,0.0175781,-0.0390625,1.00879
55103985311,0.0234375,-0.0288086,1.01562
55104000355,-0.000488281,-0.0136719,1.0249
55104022858,-0.0263672,-0.0234375,1.00098
55104037855,-0.0371094,-0.0180664,0.988281
55104060308,-0.0654297,0.012207,1.0166
55104082831,-0.0917969,-0.00292969,1.00098
55104097862,-0.103516,-0.0126953,0.997559
55104120345,-0.104492,-0.00292969,1.01709
55104142904,-0.0864258,-0.012207,0.99707
55104165337,-0.0546875,-0.0327148,0.983887
55104180352,-0.0180664,-0.0234375,1.00146
55104202841,0.000488281,-0.0332031,1.01025
55104217873,0.000976562,-0.0498047,1.00244
55104240378,0.00244141,-0.0371094,1.01807
55104262905,-0.015625,-0.0327148,1.021
55104277863,-0.0429688,-0.0483398,0.998047
55104300342,-0.0678711,-0.0419922,0.995117
55104322949,-0.0898438,-0.0322266,1.00244
55104337864,-0.100586,-0.0419922,0.994141
55104360328,-0.0913086,-0.0385742,1.00684
55104382924,-0.0664062,-0.0327148,1.0166
55104397915,-0.0449219,-0.0341797,1.00928
55104420304,-0.0180664,-0.0292969,1.00244
55104442946,-0.00585938,-0.0263672,1.00635
55104457916,-0.00585938,-0.0263672,1.00439
55104480411,-0.0141602,-0.0322266,1.00488
55104502889,-0.0288086,-0.0151367,1.01367
55104517952,-0.0517578,-0.0166016,1.00732
55104540328,-0.0649414,-0.0175781,0.996582
55104562837,-0.0859375,-0.00830078,1.00391
55104577935,-0.0839844,-0.00976562,1.00342
55104600368,-0.074707,-0.0175781,0.989746
55104622835,-0.0541992,-0.019043,1.00049
55104637884,-0.0361328,-0.0166016,1.0083
55104660371,-0.0229492,-0.0268555,1.00684
55104682806,-0.0126953,-0.027832,1.00488
55104697807,-0.0146484,-0.0317383,1.00928
55104720403,-0.0239258,-0.0341797,0.999512
55104742922,-0.0439453,-0.0395508,1
55104757812,-0.059082,-0.0356445,1.00342
55104780365,-0.0791016,-0.0341797,1.0083
55104802835,-0.0742188,-0.0390625,1.00977
55104817852,-0.0732422,-0.0366211,1.00342
55104840335,-0.059082,-0.0371094,1.00586
55104862853,-0.0415039,-0.0356445,1.00781
55104877826,-0.0239258,-0.0371094,1.00684
55104900381,-0.0224609,-0.0366211,1.00586
55104922832,-0.0205078,-0.0297852,1.01123
55104937872,-0.0239258,-0.0263672,1.00439
55104960393,-0.0424805,-0.0268555,0.998535
55104982839,-0.0537109,-0.0224609,1.00049
55104997834,-0.0693359,-0.0175781,0.996582
55105020365,-0.0737305,-0.0205078,0.997559
55105042834,-0.0708008,-0.0175781,1.00098
55105057867,-0.0600586,-0.0175781,1.00293
55105080324,-0.043457,-0.0205078,1.00977
55105102907,-0.034668,-0.0185547,0.998047
55105117908,-0.0263672,-0.0258789,1
55105140350,-0.0224609,-0.0273438,1.00488
55105162947,-0.0336914,-0.0297852,1.00195
55105177834,-0.0405273,-0.0288086,1.00537
55105200342,-0.0546875,-0.027832,1.00537
55105222953,-0.0629883,-0.0336914,1.00586
55105245376,-0.0698242,-0.0322266,1.00293
55105260339,-0.0649414,-0.0351562,0.999512
55105282906,-0.0561523,-0.0361328,1.00635
55105297908,-0.0449219,-0.0380859,1.00488
55105320303,-0.0356445,-0.0327148,1.00635
55105342954,-0.0297852,-0.0356445,1.00781
55105357947,-0.0297852,-0.0322266,0.999512
55105380336,-0.0371094,-0.0263672,1.00586
55105403007,-0.0405273,-0.027832,1.00146
55105417943,-0.0566406,-0.0263672,1.00293
55105440444,-0.0595703,-0.0224609,1.01123
55105462939,-0.0615234,-0.0234375,1.00586
55105477898,-0.0605469,-0.0234375,1.00244
55105500381,-0.0556641,-0.0195312,1.01025
55105522930,-0.0439453,-0.0229492,1.00879
55105537983,-0.0375977,-0.0200195,1.00391
55105560334,-0.03125,-0.0234375,1.01025
55105582949,-0.0361328,-0.0239258,1.00586
55105597917,-0.0385742,-0.0268555,1.00439
55105620378,-0.0458984,-0.0273438,1.0083
55105642899,-0.0541992,-0.0283203,1.00781
55105657867,-0.0571289,-0.0273438,1.00586
55105680406,-0.0625,-0.0292969,0.999023
55105702918,-0.0585938,-0.0351562,0.998535
55105717934,-0.0532227,-0.0356445,0.995605
55105740347,-0.0444336,-0.0336914,1.00781
55105762852,-0.0424805,-0.0317383,1.00586
55105777827,-0.0395508,-0.0317383,1.00586
55105800383,-0.0332031,-0.0317383,1.00781
55105822836,-0.0415039,-0.0322266,1.00635
55105837851,-0.0493164,-0.0292969,1.00293
55105860377,-0.050293,-0.0288086,1.00684
55105882850,-0.0610352,-0.0249023,1.00293
55105897848,-0.0546875,-0.0239258,1.00293
55105920369,-0.0595703,-0.0229492,1.00342
55105942871,-0.0493164,-0.0214844,1.00342
55105957855,-0.0463867,-0.0273438,1.00195
55105980471,-0.0375977,-0.0273438,1.00732
55106002953,-0.0361328,-0.0258789,1.00342
55106017855,-0.0380859,-0.0229492,1.00635
55106040398,-0.043457,-0.0249023,1
55106062967,-0.0458984,-0.0253906,1.00439
55106077911,-0.0537109,-0.0268555,1.00342
55106100439,-0.0537109,-0.027832,0.996582
55106122984,-0.0527344,-0.0327148,1.00586
55106137944,-0.0532227,-0.0288086,1.00684
55106160417,-0.0532227,-0.0327148,0.998047
55106182929,-0.0449219,-0.0288086,1.01074
55106197859,-0.0380859,-0.0317383,1.00537
55106220402,-0.0395508,-0.0332031,1.00635
55106242930,-0.0419922,-0.0327148,1.00439
55106258353,-0.0454102,-0.0292969,0.999512
55106280384,-0.0493164,-0.027832,1.00586
55106302852,-0.0507812,-0.0307617,1.00049
55106317889,-0.0556641,-0.0258789,1.00293
55106340429,-0.0566406,-0.0234375,1.00098
55106362887,-0.0454102,-0.0273438,1.00244
55106377921,-0.0444336,-0.0244141,1.00195
55106400450,-0.0415039,-0.0268555,1.00098
55106422879,-0.0395508,-0.0273438,1.00342
55106437973,-0.0400391,-0.0263672,1.00684
55106460362,-0.0463867,-0.0288086,1.00488
55106482869,-0.0478516,-0.0268555,1.00635
55106497954,-0.0517578,-0.0249023,1.00439
55106520368,-0.0512695,-0.0268555,1.00049
55106542952,-0.0541992,-0.03125,1.00928
55106557970,-0.0522461,-0.0292969,1.00439
55106580406,-0.0527344,-0.0302734,1.00293
55106610423,-0.0454102,-0.0302734,1.00684
55106617910,-0.0454102,-0.0307617,1.00635
55106640400,-0.0410156,-0.03125,1.00439
55106662880,-0.0415039,-0.0336914,1.00684
55106677976,-0.0419922,-0.0341797,1.00342
55106700368,-0.0488281,-0.0268555,1.00488
55106722939,-0.050293,-0.0317383,1.00391
55106737947,-0.046875,-0.0307617,1.00049
55106760427,-0.0517578,-0.0292969,1.00635
55106782929,-0.0522461,-0.0283203,1.00146
55106797895,-0.046875,-0.0229492,1.00195
55106820445,-0.0454102,-0.0258789,1.00684
55106842892,-0.0424805,-0.0249023,1.00391
55106857953,-0.0419922,-0.027832,1.00293
55106880364,-0.0449219,-0.0273438,1.0083
55106902856,-0.0444336,-0.027832,1.00586
55106917900,-0.050293,-0.0268555,1.0083
55106940351,-0.0556641,-0.0273438,1.00488
55106962926,-0.0532227,-0.0273438,1.00586
55106977937,-0.0517578,-0.0307617,1.00635
55107000361,-0.0478516,-0.0288086,1.0083
55107023000,-0.0488281,-0.0327148,1.00195
55107037953,-0.0439453,-0.0322266,1.00195
55107060329,-0.0419922,-0.0302734,1.00195
55107082893,-0.0458984,-0.0283203,1.00488
55107097913,-0.0429688,-0.0292969,1.00879
55107120422,-0.0473633,-0.0351562,1.00049
55107142897,-0.0473633,-0.0302734,1.00635
55107157965,-0.0532227,-0.0283203,1.00293
55107180336,-0.0483398,-0.027832,1.00342
55107202978,-0.0478516,-0.0273438,1.00488
55107217874,-0.0454102,-0.0297852,1
55107240420,-0.0478516,-0.0263672,1.00488
55107262992,-0.0444336,-0.0253906,1.00488
55107277884,-0.043457,-0.0273438,1.00635
55107300424,-0.046875,-0.0219727,1.00391
55107322929,-0.0473633,-0.0244141,1.00586
55107337993,-0.0527344,-0.0244141,1.00537
55107360407,-0.046875,-0.0283203,1.00586
55107382957,-0.0483398,-0.0307617,1.00049
55107397926,-0.050293,-0.0297852,1.00391
55107420454,-0.0498047,-0.0307617,1.00195
55107442970,-0.0488281,-0.0253906,1.00586
55107457928,-0.0463867,-0.0283203,1.00391
55107480454,-0.0463867,-0.0283203,1.00586
55107503012,-0.0463867,-0.0292969,1.00293
55107517968,-0.0473633,-0.0327148,1.00244
55107540377,-0.050293,-0.0292969,1
55107570380,-0.0522461,-0.0288086,1.00977
55107577964,-0.0488281,-0.0302734,0.999023
55107600398,-0.0478516,-0.0302734,1.00488
55107622986,-0.0478516,-0.0292969,1.00488
55107637968,-0.0483398,-0.0322266,1.00537
55107660308,-0.046875,-0.0288086,1.00439
55107682914,-0.0424805,-0.027832,1.00977
55107697931,-0.0478516,-0.0292969,1.00244
55107720442,-0.0424805,-0.0273438,1.00781
55107742921,-0.0478516,-0.027832,1.00049
55107757914,-0.0429688,-0.0244141,1.00195
55107780404,-0.046875,-0.0224609,1.00244
55107802949,-0.0473633,-0.0253906,0.999512
55107817930,-0.0473633,-0.027832,1.00293
55107840425,-0.0493164,-0.027832,1.00488
55107862976,-0.0483398,-0.0249023,1.00586
55107877920,-0.0458984,-0.0317383,1.00586
55107900388,-0.0415039,-0.0297852,1.01123
55107922943,-0.0449219,-0.0283203,1.00391
55107937906,-0.0458984,-0.0292969,1.00098
55107960452,-0.0458984,-0.0268555,1.00488
55107982992,-0.0532227,-0.0292969,1.00439
55108005371,-0.0498047,-0.0273438,0.999023
55108020397,-0.0478516,-0.0253906,1.00439
55108042972,-0.046875,-0.0229492,1.00635
55108065428,-0.043457,-0.0292969,1.01367
55108080356,-0.0444336,-0.0307617,1.00732
55108102888,-0.0449219,-0.0263672,1.00293
55108125407,-0.0429688,-0.0297852,1.00488
55108140411,-0.0444336,-0.0307617,1.00195
55108163434,-0.0483398,-0.0288086,1.00684
55108185414,-0.0463867,-0.0307617,1.00146
55108200416,-0.0488281,-0.027832,1.00781
55108222958,-0.0478516,-0.0268555,1.00537
55108245429,-0.0478516,-0.03125,1.00391
55108260397,-0.050293,-0.027832,1.00635
55108282958,-0.0454102,-0.0258789,1
55108305416,-0.0473633,-0.0322266,0.99707
55108327932,-0.0449219,-0.0288086,1.00537
55108350971,-0.0444336,-0.0297852,1.01318
55108365457,-0.0454102,-0.0273438,1.00684
55108380377,-0.0488281,-0.0307617,1.00977
55108402931,-0.0498047,-0.0302734,1.00635
55108425440,-0.046875,-0.0283203,0.998535
55108440429,-0.0463867,-0.0268555,1.00342
55108462917,-0.0498047,-0.0302734,1.00635
55108485514,-0.0478516,-0.027832,1.00439
55108500441,-0.0458984,-0.03125,1.00928
55108522983,-0.0444336,-0.0297852,1.00928
55108545436,-0.043457,-0.0263672,1.00293
55108560559,-0.0473633,-0.027832,1.00049
55108582921,-0.0473633,-0.0253906,1.00586
55108605436,-0.043457,-0.0297852,1.00391
55108620447,-0.0463867,-0.0283203,1.00732
55108642883,-0.0517578,-0.0263672,1.00586
