myot,myox,myoy,myoz
1455557541,myox,myoy,myoz
610450611969,0.489258,-0.0454102,0.864258
610450626974,0.495117,-0.0458984,0.869629
610450648330,0.487305,-0.0385742,0.869629
610450671992,0.488281,-0.0375977,0.869629
610450686991,0.494629,-0.0454102,0.870605
610450708355,0.495117,-0.0478516,0.872559
610450747620,0.495117,-0.0454102,0.870605
610450749711,0.491211,-0.0429688,0.867676
610450769753,0.495605,-0.0405273,0.873047
610450792009,0.49707,-0.0380859,0.868652
610450809732,0.494141,-0.0405273,0.869141
610450829898,0.500488,-0.0493164,0.86377
610450866316,0.492188,-0.0507812,0.866211
610450890300,0.493164,-0.0454102,0.865723
610450891111,0.491211,-0.0395508,0.87207
610450912046,0.492188,-0.0444336,0.871094
610450927109,0.491211,-0.0424805,0.874023
610450949578,0.498535,-0.0463867,0.868652
610450970674,0.495605,-0.0512695,0.85791
610450987072,0.494141,-0.0512695,0.87207
610451010041,0.498047,-0.0405273,0.873047
610451030638,0.499023,-0.0390625,0.874023
610451047045,0.495117,-0.0439453,0.869629
610451069594,0.490723,-0.046875,0.864258
610451090618,0.492188,-0.0449219,0.866211
610451107039,0.499023,-0.0439453,0.871582
610451129551,0.494141,-0.0410156,0.87207
610451150598,0.494141,-0.0405273,0.867676
610451167066,0.493164,-0.0395508,0.864746
610451189547,0.496582,-0.043457,0.876953
610451210633,0.494629,-0.0454102,0.87207
610451227096,0.495605,-0.0400391,0.870605
610451249621,0.491699,-0.0322266,0.869141
610451270639,0.494141,-0.0371094,0.864258
610451287126,0.496094,-0.043457,0.864258
610451309577,0.493652,-0.0454102,0.867676
610451330686,0.493652,-0.0483398,0.870605
610451347061,0.493164,-0.0400391,0.868164
610451369609,0.494629,-0.0429688,0.869141
610451390596,0.493652,-0.0415039,0.871582
610451407051,0.496094,-0.0454102,0.86377
610451429542,0.493652,-0.043457,0.862305
610451450635,0.491699,-0.0429688,0.871582
610451467071,0.489746,-0.0429688,0.874023
610451489604,0.487305,-0.0449219,0.873047
610451518777,0.494629,-0.0429688,0.867676
610451527089,0.494141,-0.0498047,0.865723
610451549543,0.499023,-0.0439453,0.867188
610451572046,0.494629,-0.0419922,0.868164
610451587071,0.499512,-0.0410156,0.875488
610451609551,0.492188,-0.0395508,0.867676
610451632090,0.493164,-0.0419922,0.86377
610451647063,0.491699,-0.0424805,0.862305
610451669560,0.496094,-0.046875,0.873535
610451692159,0.499023,-0.0449219,0.867188
610451707109,0.496582,-0.0488281,0.870117
610451728884,0.495117,-0.0429688,0.871582
610451751373,0.490723,-0.0395508,0.868652
610451766359,0.489258,-0.0449219,0.871094
610451788813,0.492676,-0.0473633,0.874023
610451811458,0.496094,-0.0463867,0.865234
610451826327,0.494629,-0.043457,0.87207
610451848836,0.500977,-0.0454102,0.866211
610451871305,0.495605,-0.0458984,0.87207
610451887722,0.494141,-0.0454102,0.86377
610451908784,0.495605,-0.046875,0.873047
610451931321,0.497559,-0.0439453,0.868652
610451947811,0.49707,-0.0429688,0.868164
610451968837,0.495605,-0.0473633,0.87207
610451991298,0.494629,-0.043457,0.868164
610452007761,0.489746,-0.0410156,0.869629
610452028798,0.494629,-0.0478516,0.875
610452051333,0.495117,-0.046875,0.868164
610452067755,0.493164,-0.0507812,0.861816
610452088840,0.494141,-0.0517578,0.861816
610452111327,0.495605,-0.0483398,0.874023
610452133882,0.496094,-0.0498047,0.870117
610452148871,0.490234,-0.0429688,0.870605
610452171292,0.484375,-0.0507812,0.870117
610452187746,0.481934,-0.0493164,0.874023
610452208798,0.491699,-0.0410156,0.868164
610452231329,0.496094,-0.0415039,0.878418
610452247764,0.500488,-0.0473633,0.862305
610452268836,0.498047,-0.0498047,0.866211
610452291360,0.496094,-0.0458984,0.87207
610452307735,0.499512,-0.0444336,0.876953
610452328802,0.492188,-0.0356445,0.875977
610452351312,0.492676,-0.0400391,0.866211
610452367731,0.484375,-0.0415039,0.876953
610452388822,0.47998,-0.050293,0.880371
610452411335,0.489746,-0.046875,0.881348
610452427799,0.504395,-0.0292969,0.875977
610452450223,0.499512,-0.0253906,0.867188
610452471339,0.499512,-0.0454102,0.86084
610452487179,0.514648,-0.0532227,0.871582
610452508780,0.520508,-0.059082,0.868652
610452531364,0.506348,-0.0654297,0.874023
610452547088,0.494141,-0.059082,0.876465
610452568863,0.478027,-0.0610352,0.876953
610452591379,0.455078,-0.0776367,0.869141
610452607125,0.436523,-0.0849609,0.885742
610452630249,0.438477,-0.0810547,0.911133
610452651407,0.452637,-0.0541992,0.917969
610452667064,0.45752,-0.0351562,0.888672
610452690251,0.460449,-0.0517578,0.895508
610452711328,0.459961,-0.0625,0.916016
610452727118,0.460938,-0.0673828,0.903809
610452750275,0.462891,-0.0908203,0.876953
610452771343,0.45752,-0.118164,0.876465
610452787097,0.446289,-0.113281,0.874512
610452810240,0.427246,-0.108887,0.873047
610452831397,0.422852,-0.121582,0.87207
610452847113,0.442383,-0.126953,0.876465
610452870275,0.444824,-0.124512,0.875977
610452891298,0.445312,-0.126465,0.898926
610452907109,0.438477,-0.117676,0.921875
610452930244,0.424316,-0.112305,0.915527
610452951283,0.388672,-0.129395,0.923828
610452967175,0.371582,-0.146484,0.921387
610452990269,0.352051,-0.134766,0.908203
610453011469,0.347656,-0.12207,0.901367
610453027190,0.354004,-0.125977,0.90918
610453050249,0.365723,-0.123047,0.909668
610453071316,0.37793,-0.129395,0.902344
610453087186,0.403809,-0.12793,0.910645
610453110294,0.42627,-0.0927734,0.916992
610453131351,0.439941,-0.0712891,0.868164
610453147124,0.431152,-0.0585938,0.91748
610453170264,0.458496,-0.123047,0.89502
610453191334,0.45752,-0.128418,0.899414
610453213808,0.468262,-0.0864258,0.869629
610453230281,0.48291,-0.0805664,0.848633
610453251365,0.494629,-0.0761719,0.831543
610453267127,0.515625,-0.0458984,0.873535
610453290280,0.500977,-0.0742188,0.904785
610453311300,0.510254,-0.0419922,0.899414
610453327089,0.467285,-0.0102539,0.902832
610453350261,0.509766,-0.019043,0.776367
610453371387,0.513184,0.00537109,0.833496
610453387177,0.490234,-0.0629883,0.819336
610453409656,0.500488,-0.050293,0.902344
610453431363,0.495605,-0.0268555,0.870605
610453447124,0.494629,0.0600586,0.891113
610453469586,0.491211,0.0356445,0.788086
610453491366,0.546387,-0.0117188,0.883789
610453507097,0.519531,0.0380859,0.850098
610453529590,0.465332,0.0698242,0.899414
610453551329,0.521973,0.027832,0.880371
610453567106,0.51709,0.0424805,0.875
610453589591,0.496094,0.074707,0.861328
610453612746,0.533203,0.0556641,0.85791
610453627142,0.546875,0.0102539,0.809082
610453649615,0.551758,0.0541992,0.891602
610453672768,0.541504,0.0581055,0.856934
610453687129,0.526855,-0.00976562,0.853516
610453709609,0.474121,-0.0166016,0.831055
610453738907,0.522949,0.015625,0.901855
610453747086,0.503418,-0.00878906,0.85498
610453769597,0.426758,-0.0463867,0.79541
610453792807,0.611816,0.0668945,0.820312
610453807121,0.626953,-0.0737305,0.731445
610453829619,0.494629,-0.0717773,0.771973
610453852780,0.57666,0.0820312,0.89209
610453873922,0.612793,-0.00341797,0.797852
610453889586,0.587891,0.0283203,0.765625
610453912791,0.630371,0.0600586,0.84375
610453933850,0.629395,-0.0512695,0.767578
610453949664,0.599121,-0.0551758,0.780762
610453972765,0.584961,-0.0683594,0.815918
610453993833,0.597656,-0.0219727,0.822266
610454009591,0.611328,-0.097168,0.822266
610454032741,0.647461,-0.165527,0.737793
610454053938,0.472168,-0.0410156,0.79834
610454069645,0.479004,0.0869141,1.02881
610454092824,0.528809,-0.0693359,0.828613
610454113902,0.599121,-0.0727539,0.794922
610454129617,0.618652,-0.0834961,0.790527
610454152769,0.562012,-0.202148,0.773926
610454173938,0.537109,-0.135254,0.89209
610454189742,0.526855,-0.0634766,0.802246
610454212803,0.496582,-0.0415039,0.898926
610454233852,0.610352,-0.11377,0.808105
610454249618,0.653809,-0.164062,0.823242
610454272813,0.563965,-0.165039,0.774414
610454295300,0.481445,-0.162109,0.818359
610454309641,0.556641,-0.147461,0.774902
610454332116,0.614258,-0.13623,0.751465
610454353849,0.538086,-0.221191,0.832031
610454369618,0.562012,-0.222656,0.804199
610454392594,0.552734,-0.216797,0.768555
610454413848,0.549316,-0.15918,0.90625
610454429614,0.57373,-0.248047,0.776855
610454452124,0.581543,-0.216797,0.852539
610454473849,0.558594,-0.223145,0.802734
610454489617,0.566895,-0.187988,0.797852
610454512093,0.539062,-0.15625,0.820801
610454535332,0.530273,-0.20752,0.841309
610454549641,0.501953,-0.257812,0.823242
610454572659,0.486328,-0.254395,0.820312
610454595294,0.491211,-0.225098,0.818848
610454609620,0.487793,-0.230469,0.84668
610454632145,0.489746,-0.24707,0.852051
610454655279,0.486816,-0.242188,0.847168
610454669666,0.470703,-0.21875,0.831543
610454692150,0.48291,-0.177246,0.82959
610454715445,0.505859,-0.180664,0.851074
610454729611,0.52002,-0.192383,0.848145
610454752123,0.524414,-0.182617,0.85791
610454775273,0.529297,-0.170898,0.833496
610454789680,0.520996,-0.169922,0.821777
610454812157,0.515137,-0.164551,0.82373
610454835288,0.519043,-0.158203,0.827637
610454849643,0.517578,-0.175781,0.838867
610454872122,0.529785,-0.179199,0.84082
610454895277,0.529785,-0.166016,0.838379
610454909619,0.526367,-0.162598,0.827148
610454932156,0.528809,-0.15918,0.831543
610454955385,0.530273,-0.168457,0.833984
610454976425,0.52832,-0.17041,0.82959
610454992166,0.526367,-0.159668,0.831543
610455015292,0.52002,-0.145996,0.827148
610455036386,0.525391,-0.138184,0.833984
610455052139,0.541016,-0.140625,0.837891
610455075328,0.54834,-0.144043,0.842773
610455096799,0.543945,-0.145996,0.839844
610455112173,0.532715,-0.147461,0.837402
610455135326,0.518555,-0.164062,0.833008
610455156380,0.519531,-0.173828,0.828125
610455172144,0.516602,-0.161621,0.833984
610455195311,0.521484,-0.152344,0.845215
610455216397,0.548828,-0.167969,0.85498
610455232120,0.575684,-0.182129,0.852051
610455255316,0.584473,-0.14502,0.865723
610455276428,0.611328,-0.157715,0.84668
610455292176,0.601074,-0.219727,0.834473
610455321360,0.581055,-0.285156,0.794922
610455336415,0.538086,-0.29834,0.799316
610455352143,0.487305,-0.334961,0.81543
610455374648,0.42334,-0.318848,0.80957
610455396414,0.388184,-0.258301,0.793945
610455412158,0.39209,-0.238281,0.782227
610455434616,0.42041,-0.242676,0.779785
610455448227,0.442383,-0.276367,0.826172
610455471361,0.475586,-0.290039,0.825684
610455485693,0.462891,-0.266602,0.825195
610455508261,0.455566,-0.211426,0.823242
610455531374,0.448242,-0.186035,0.809082
610455545764,0.419922,-0.183594,0.842285
610455568258,0.414062,-0.208496,0.876465
610455599542,0.438477,-0.201172,0.874023
610455605712,0.470215,-0.161621,0.915039
610455628264,0.470215,-0.0776367,0.927734
610455651369,0.490723,0,0.904297
610455665735,0.537598,0.0322266,0.884277
610455688247,0.550781,-0.0512695,0.844727
610455711388,0.522949,-0.115723,0.800781
610455725733,0.470703,-0.155273,0.86084
610455748285,0.535156,-0.17041,0.789551
610455771426,0.515625,-0.0537109,0.821289
610455785706,0.556152,-0.0786133,0.849121
610455808227,0.575684,-0.0668945,0.897461
610455831391,0.580078,-0.0600586,0.899414
610455845740,0.549316,-0.116211,0.89209
610455868233,0.519531,-0.175293,0.966309
610455891396,0.585449,-0.145508,0.897461
610455905726,0.622559,-0.097168,0.875488
610455937062,0.630371,-0.0854492,0.855957
610455951389,0.637207,-0.0527344,0.820801
610455965733,0.594727,0.0102539,0.821289
610455988264,0.689941,0.150879,0.867676
610456011414,0.824219,0.187012,0.90332
610456025738,0.906738,0.115234,0.748047
610456048230,0.811523,0.00292969,0.556641
610456070740,0.670898,-0.101074,0.493164
610456085733,0.626953,-0.0219727,0.597656
610456108273,0.758301,0.150879,0.685059
610456131403,0.757812,0.151855,0.730469
610456145776,0.771484,0.109863,0.656738
610456168210,0.786133,0.0908203,0.59082
610456190786,0.946289,0.150879,0.591309
610456205825,0.933594,0.166992,0.609375
610456228229,0.876465,0.196777,0.604492
610456251411,0.884766,0.236328,0.60791
610456265767,0.933594,0.267578,0.62793
610456288278,0.973145,0.275879,0.620117
610456311345,0.97998,0.283203,0.591309
610456333965,0.996094,0.324219,0.533691
610456348210,1.02637,0.300293,0.472656
610456370750,1.02588,0.257812,0.461914
610456385740,1.05225,0.232422,0.469727
610456408258,1.06592,0.191895,0.47168
610456430757,1.02441,0.162598,0.449707
610456445777,1.01074,0.176758,0.388184
610456468240,0.981445,0.23584,0.344727
610456490761,0.93457,0.207031,0.339355
610456505728,0.883301,0.174805,0.312988
610456528268,0.833008,0.121582,0.308594
610456550790,0.822754,0.140137,0.321777
610456565699,0.844238,0.177246,0.348633
610456588224,0.802734,0.169434,0.32959
610456610745,0.718262,0.136719,0.297363
610456625754,0.643555,0.105469,0.247559
610456648267,0.676758,0.208984,0.219727
610456670753,0.695312,0.144531,0.238281
610456685698,0.821777,0.179688,0.243652
610456708273,0.880371,0.161621,0.233398
610456730726,0.875488,0.0786133,0.245605
610456745783,0.827637,0.0830078,0.254883
610456768254,0.811035,0.135742,0.205566
610456790693,0.834473,0.210938,0.193848
610456805747,0.851074,0.219238,0.17627
610456828265,0.833984,0.130371,0.157227
610456850754,0.842773,0.120117,0.170898
610456865753,0.88623,0.155273,0.217773
610456888277,0.937988,0.181152,0.237793
610456910764,0.938965,0.187012,0.255371
610456925727,0.909668,0.14209,0.241211
610456948292,0.887207,0.126953,0.214844
610456970752,0.887695,0.171875,0.20459
610456985742,0.90625,0.210938,0.185059
610457008205,0.938965,0.200195,0.169434
610457030749,0.945312,0.15918,0.153809
610457045733,0.935059,0.147461,0.116211
610457068247,0.928223,0.147949,0.10498
610457090764,0.928223,0.152832,0.102051
610457105763,0.94873,0.132812,0.109863
610457128252,0.950684,0.106445,0.119629
610457150820,0.958984,0.118652,0.131348
610457165769,0.965332,0.150879,0.135742
610457188260,0.987305,0.159668,0.137695
610457210761,1.00098,0.109375,0.148438
610457227194,0.987793,0.0649414,0.150391
610457248288,0.96582,0.0610352,0.14502
610457270718,0.938477,0.0854492,0.147461
610457287213,0.940918,0.116699,0.146973
610457308256,0.945312,0.109863,0.158203
610457330759,0.932617,0.0864258,0.168457
610457347228,0.931641,0.0620117,0.165039
610457368255,0.919922,0.0693359,0.15918
610457390791,0.929688,0.101074,0.155762
610457407176,0.955078,0.111816,0.174805
610457428277,0.96875,0.0976562,0.178711
610457450753,0.97168,0.0766602,0.168945
610457467168,0.965332,0.0541992,0.15332
610457488262,0.944824,0.0424805,0.149414
610457510738,0.94043,0.0283203,0.155762
610457527292,0.943359,0.0322266,0.176758
610457548382,0.963867,0.0390625,0.181152
610457570848,0.978516,0.0439453,0.193848
610457587186,0.98877,0.0395508,0.192383
610457608298,0.993652,0.0292969,0.205078
610457630809,0.989258,0.0224609,0.226074
610457647255,0.981445,-0.000976562,0.245605
610457668308,0.963867,-0.0180664,0.240234
610457690787,0.929688,-0.0424805,0.226562
610457707172,0.905273,-0.0380859,0.223633
610457728327,0.894043,-0.0341797,0.226562
610457750733,0.911621,-0.0249023,0.243652
610457767208,0.906738,-0.0170898,0.254395
610457788225,0.885254,-0.012207,0.239258
610457810741,0.874512,0.00683594,0.220703
610457827205,0.874023,-0.00195312,0.217773
610457848268,0.882812,0.0117188,0.213867
610457870776,0.899902,0.0292969,0.212402
610457887322,0.92334,0.0214844,0.231445
610457908259,0.958984,0.0170898,0.246094
610457930811,0.969727,0.0151367,0.243164
610457947219,0.957031,-0.00390625,0.24707
610457968284,0.954102,-0.027832,0.247559
610457990843,0.930664,-0.0307617,0.250488
610458007246,0.934082,-0.0205078,0.233398
610458028333,0.933594,0,0.220215
610458050794,0.90625,0.0239258,0.208984
610458067240,0.885742,0.0566406,0.203613
610458088254,0.909668,0.0932617,0.216309
610458110757,0.97168,0.138184,0.212891
610458127211,1.00146,0.132324,0.210449
610458149709,0.973633,0.132812,0.20166
610458170839,0.964355,0.174805,0.193359
610458187226,0.974121,0.219238,0.171875
610458209718,0.974609,0.186523,0.181152
610458230800,0.961914,0.129883,0.206543
610458247175,0.938965,0.111816,0.227051
610458269752,0.928223,0.141113,0.224609
610458290808,0.918945,0.170898,0.214844
610458307215,0.91748,0.196289,0.229004
610458329691,0.92627,0.208496,0.243164
610458350834,0.92627,0.202637,0.245605
610458367198,0.921387,0.202637,0.237305
610458389745,0.920898,0.224121,0.218262
610458410766,0.921875,0.261719,0.215332
610458427265,0.954102,0.28418,0.225586
610458449778,0.969727,0.260742,0.248047
610458470761,0.968262,0.225586,0.26123
610458487297,0.964844,0.230469,0.264648
610458509722,0.964355,0.243652,0.263672
610458530778,0.948242,0.228516,0.274414
610458547224,0.93457,0.209961,0.282227
610458569727,0.919434,0.206543,0.273926
610458590775,0.908203,0.205566,0.275391
610458607221,0.915039,0.22998,0.265137
610458629753,0.915039,0.234375,0.262207
610458650779,0.919922,0.228027,0.266113
610458667218,0.912109,0.233887,0.268066
610458689724,0.919434,0.240234,0.263672
610458710857,0.919434,0.25293,0.269531
610458727219,0.922852,0.250488,0.256836
610458749694,0.924805,0.238281,0.257812
610458770759,0.919434,0.231934,0.263672
610458787198,0.90918,0.231934,0.266113
610458809707,0.916504,0.235352,0.262695
610458830802,0.922363,0.241211,0.263184
610458847189,0.91748,0.230469,0.259766
610458869750,0.915527,0.221191,0.253906
610458890799,0.910156,0.224609,0.25293
610458907201,0.916016,0.229004,0.242188
610458929746,0.931152,0.239258,0.250488
610458950824,0.92627,0.233398,0.243164
610458967243,0.917969,0.243652,0.249512
610458989791,0.92041,0.244629,0.245117
610459010808,0.916504,0.232422,0.243164
610459027242,0.912598,0.234375,0.239746
610459049778,0.916992,0.234375,0.241211
610459072255,0.92041,0.239258,0.239258
610459087254,0.92334,0.233887,0.245605
610459109754,0.923828,0.229004,0.253418
610459132217,0.919434,0.247559,0.23877
610459147240,0.918457,0.249023,0.239746
610459169719,0.926758,0.258301,0.233887
610459192215,0.923828,0.245605,0.224121
610459207232,0.909668,0.231445,0.217773
610459228981,0.902832,0.224609,0.21875
610459251444,0.902832,0.222168,0.21582
610459267905,0.910645,0.239746,0.220703
610459288975,0.926758,0.253906,0.228516
610459311560,0.929688,0.254883,0.228516
610459327908,0.92627,0.256348,0.220215
610459348942,0.928223,0.259277,0.224609
610459371467,0.92627,0.246582,0.223633
610459387914,0.921387,0.245117,0.231445
610459408964,0.922363,0.251953,0.213379
610459431485,0.92334,0.245117,0.21582
610459447913,0.92627,0.243164,0.223633
610459468951,0.935059,0.253906,0.210449
610459491491,0.929688,0.249023,0.21582
610459507929,0.932129,0.244629,0.21875
610459528928,0.922852,0.254395,0.22168
610459551473,0.916504,0.250977,0.229004
610459567917,0.911621,0.245117,0.227051
610459588953,0.910156,0.24707,0.21875
610459611455,0.912109,0.249512,0.226074
610459627906,0.916992,0.254395,0.226562
610459648983,0.919922,0.250488,0.221191
610459671475,0.928223,0.246094,0.223633
610459687964,0.93457,0.239258,0.223145
610459708988,0.925781,0.226074,0.223145
610459731480,0.918457,0.234863,0.221191
610459747931,0.927734,0.245605,0.224121
610459768962,0.928223,0.250488,0.21582
610459791457,0.930664,0.25,0.207031
610459807917,0.928711,0.251465,0.220703
610459828989,0.915039,0.237305,0.214355
610459851518,0.911133,0.242188,0.219727
610459867891,0.916016,0.241211,0.227051
610459888974,0.92041,0.233887,0.225586
610459911458,0.925293,0.23584,0.222168
610459934004,0.92334,0.236328,0.218262
610459948953,0.91748,0.229004,0.220703
610459971440,0.915527,0.234375,0.219238
610459987923,0.922852,0.239258,0.212402
610460008997,0.92627,0.243164,0.210449
610460032888,0.935059,0.245117,0.210938
610460047265,0.940918,0.246582,0.209473
610460068961,0.931641,0.226562,0.209473
610460091465,0.930664,0.229492,0.20459
610460107371,0.927734,0.233887,0.205566
610460129007,0.928711,0.23877,0.209961
610460151601,0.931152,0.234863,0.213379
610460167275,0.922363,0.230469,0.211426
610460189038,0.918945,0.228027,0.216797
610460211519,0.92334,0.231445,0.214355
610460227325,0.927734,0.232422,0.213379
610460250421,0.928223,0.227539,0.205566
610460271448,0.92041,0.217285,0.209961
610460287244,0.918945,0.221191,0.214355
610460316445,0.926758,0.230469,0.213379
610460331451,0.935059,0.23584,0.21875
610460347221,0.941406,0.233398,0.213867
610460370377,0.931152,0.230957,0.20459
610460398998,0.923828,0.223633,0.205566
610460407290,0.925293,0.230957,0.210449
610460430459,0.936035,0.236328,0.211426
610460451461,0.935547,0.233398,0.20752
610460467246,0.927734,0.231934,0.209961
610460490394,0.92627,0.231934,0.205566
610460511540,0.926758,0.236328,0.211426
610460527269,0.929688,0.234863,0.212891
610460550470,0.925781,0.224609,0.212891
610460571513,0.929688,0.222656,0.201172
610460587253,0.926758,0.239746,0.207031
610460610391,0.921387,0.239258,0.206055
610460631501,0.916992,0.236328,0.204102
610460647271,0.922852,0.23584,0.208008
610460670416,0.925293,0.23877,0.213867
610460691504,0.933594,0.233887,0.208496
610460707246,0.932129,0.23291,0.208008
610460730421,0.933105,0.233887,0.197754
610460759010,0.931152,0.231934,0.197266
610460767291,0.930664,0.230957,0.200195
610460790483,0.932129,0.239746,0.207031
610460811590,0.924316,0.242188,0.202637
610460827282,0.928711,0.243652,0.203613
610460850512,0.918945,0.239258,0.205078
610460873026,0.927734,0.237305,0.206055
610460887330,0.930664,0.237793,0.210449
610460910478,0.929199,0.236328,0.205078
610460931504,0.924316,0.235352,0.20459
610460947260,0.928711,0.231934,0.199707
610460969841,0.931152,0.234375,0.202637
610460991476,0.929199,0.226562,0.20166
610461007279,0.927734,0.237793,0.20166
610461029794,0.92627,0.23877,0.197754
610461051487,0.929199,0.234375,0.200684
610461067291,0.925781,0.229004,0.203613
610461089775,0.92334,0.240234,0.200195
610461111562,0.918457,0.244141,0.202637
610461127304,0.928223,0.237305,0.209961
610461149763,0.930664,0.230469,0.200195
610461173023,0.925293,0.230957,0.199707
610461187325,0.924805,0.231934,0.209961
610461209849,0.927734,0.23584,0.207031
610461232909,0.931641,0.233398,0.208496
610461247345,0.935547,0.230469,0.200684
610461269832,0.930176,0.234375,0.203125
610461293035,0.924805,0.234375,0.204102
610461307290,0.92334,0.229004,0.214355
610461329765,0.931641,0.230469,0.210449
610461352918,0.934082,0.231445,0.209473
610461367280,0.933105,0.231934,0.207031
610461389797,0.92627,0.241211,0.206055
610461412942,0.927734,0.236328,0.209473
610461427256,0.920898,0.228516,0.214844
610461449790,0.925293,0.231445,0.211426
610461472916,0.930664,0.240234,0.210938
610461487243,0.928711,0.240723,0.206055
610461509789,0.933105,0.23877,0.202637
610461533036,0.931641,0.23877,0.202148
610461547392,0.931152,0.228516,0.206543
610461569872,0.924316,0.229492,0.205078
610461592971,0.925781,0.239258,0.225098
610461607345,0.925781,0.243652,0.216797
610461629744,0.928711,0.241211,0.212402
610461653023,0.921387,0.240723,0.205566
610461674075,0.923828,0.235352,0.206543
610461689834,0.927246,0.237305,0.20752
610461712950,0.924316,0.230469,0.214844
610461733949,0.931152,0.239746,0.21875
610461749769,0.927734,0.236328,0.212891
610461772922,0.929688,0.233398,0.208984
610461794024,0.924316,0.233398,0.196777
610461809813,0.92627,0.231445,0.208984
610461832948,0.927734,0.245117,0.206543
610461853999,0.930664,0.246094,0.215332
610461869779,0.932129,0.239258,0.214355
610461892972,0.930176,0.236816,0.216797
610461914149,0.933594,0.239258,0.214844
610461929864,0.926758,0.23877,0.213379
610461952345,0.927246,0.233887,0.212402
610461974110,0.925781,0.224609,0.209473
610461989890,0.923828,0.233398,0.216797
610462012398,0.926758,0.244629,0.208008
610462034027,0.927246,0.243164,0.213379
610462049799,0.920898,0.242188,0.204102
610462072268,0.92334,0.230957,0.207031
610462093990,0.927246,0.237793,0.206543
610462109773,0.930664,0.243652,0.205566
610462132270,0.930176,0.235352,0.201172
610462155421,0.92334,0.231934,0.207031
610462169769,0.928223,0.241211,0.211426
610462192452,0.926758,0.23877,0.209473
610462215534,0.924316,0.235352,0.204102
610462229846,0.925293,0.234863,0.210449
610462252340,0.92334,0.229004,0.213867
610462275525,0.920898,0.230957,0.214844
610462289914,0.924805,0.237793,0.213379
610462312372,0.930176,0.249512,0.21582
610462335530,0.945312,0.249512,0.218262
610462349788,0.946777,0.236816,0.226562
610462372524,0.94043,0.231445,0.224609
610462395438,0.936523,0.243652,0.234863
610462409816,0.94873,0.254883,0.248047
610462432264,0.945312,0.248047,0.260254
610462455470,0.958496,0.239258,0.269531
610462469802,0.964355,0.230957,0.273926
610462492302,0.971191,0.245605,0.273438
610462515471,0.950684,0.249512,0.270996
610462536615,0.930176,0.265625,0.27832
610462552363,0.932617,0.260742,0.308105
610462575512,0.945801,0.246582,0.310547
610462596599,0.950195,0.243164,0.310059
610462612378,0.930664,0.22998,0.310059
610462635564,0.901855,0.226074,0.320801
610462656529,0.881836,0.23291,0.328613
610462672364,0.872559,0.241699,0.356934
610462695533,0.867676,0.248047,0.364258
610462716571,0.848633,0.244141,0.380371
610462732311,0.842285,0.234375,0.387207
610462755475,0.83252,0.222168,0.390137
610462776544,0.816895,0.209473,0.400879
610462792289,0.832031,0.209473,0.414551
610462815445,0.849121,0.223633,0.42041
610462836519,0.832031,0.216309,0.430664
610462852341,0.802246,0.202148,0.437012
610462874930,0.765137,0.214355,0.456543
610462896603,0.754395,0.229492,0.487793
610462912379,0.78125,0.227051,0.515137
610462934843,0.806152,0.196289,0.533203
610462956630,0.785156,0.184082,0.519531
610462971550,0.839844,0.156738,0.503418
610462985971,0.819824,0.118652,0.486328
610463008442,0.810059,0.153809,0.489746
610463031591,0.854492,0.210449,0.475098
610463045865,0.896973,0.222656,0.456543
610463068360,0.875977,0.187012,0.40332
610463091515,0.841309,0.123047,0.395996
610463105862,0.85498,0.146484,0.400879
610463128453,0.91748,0.174316,0.40625
610463151533,0.92627,0.172363,0.369629
610463165934,0.905762,0.121094,0.371094
610463188376,0.916504,0.100586,0.349121
610463211528,0.97998,0.123047,0.308594
610463226005,1.01367,0.145996,0.263184
610463248409,1.13672,0.0649414,0.233887
610463271610,1.03955,-0.0512695,0.220215
610463285979,0.96875,-0.0888672,0.221191
610463308358,0.947266,-0.0678711,0.22168
610463331560,0.916016,-0.0327148,0.241211
610463345851,0.925293,-0.0180664,0.276855
610463369913,0.935059,-0.0239258,0.299316
610463391559,0.946777,-0.0327148,0.322754
610463405929,0.955566,-0.0375977,0.342285
610463428414,0.944824,-0.0478516,0.334473
610463451632,0.930176,-0.0712891,0.321289
610463465868,0.905762,-0.100586,0.308105
610463488413,0.89502,-0.102539,0.297363
610463511552,0.882324,-0.101562,0.293457
610463525916,0.875977,-0.110352,0.304688
610463548386,0.882324,-0.110352,0.312012
610463571541,0.89209,-0.123047,0.333496
610463585932,0.907715,-0.126953,0.354492
610463608407,0.932617,-0.131836,0.36084
610463631614,0.923828,-0.14209,0.344238
610463645963,0.881348,-0.15625,0.328125
610463668429,0.85791,-0.149902,0.336426
610463691592,0.85498,-0.135742,0.342285
610463705994,0.858887,-0.133789,0.348633
610463728432,0.871094,-0.125488,0.368652
610463751542,0.894531,-0.123047,0.374512
610463765888,0.916504,-0.122559,0.384277
610463788380,0.931152,-0.120117,0.371582
610463811534,0.936523,-0.134766,0.342285
610463825920,0.937988,-0.152832,0.324707
610463848379,0.937988,-0.171875,0.318359
610463871544,0.931641,-0.185059,0.303223
610463885936,0.939453,-0.185547,0.313477
610463908337,0.925293,-0.174805,0.334473
610463931548,0.903809,-0.17334,0.344727
610463945966,0.888184,-0.169922,0.367188
610463968432,0.858398,-0.177246,0.365234
610463990954,0.850586,-0.182617,0.370605
610464005854,0.849121,-0.172852,0.366699
610464028381,0.853027,-0.165527,0.36377
610464050985,0.856934,-0.176758,0.36084
610464065959,0.863281,-0.183594,0.349121
610464088442,0.873047,-0.187988,0.340332
610464110939,0.878906,-0.18457,0.32959
610464125922,0.902832,-0.17627,0.331543
610464148407,0.931641,-0.166016,0.337402
610464170981,0.943359,-0.16748,0.340332
610464185961,0.95166,-0.16748,0.34082
610464208400,0.935547,-0.173828,0.325195
610464230983,0.909668,-0.180664,0.312012
610464245943,0.89502,-0.156738,0.305664
610464268410,0.895996,-0.127441,0.306152
610464290939,0.923828,-0.113281,0.336914
610464305983,0.95166,-0.125488,0.338379
610464328429,0.965332,-0.159668,0.339355
610464350908,0.95166,-0.171875,0.315918
610464365910,0.933594,-0.175293,0.29541
610464388400,0.926758,-0.147949,0.279785
610464410931,0.952148,-0.123047,0.258301
610464425957,1.00928,-0.119629,0.257812
610464448463,0.960449,-0.178711,0.225098
610464470944,0.874023,-0.198242,0.188477
610464485965,0.824707,-0.174316,0.188477
610464508417,0.861328,-0.152344,0.198242
610464530966,0.961914,-0.156738,0.230469
610464545952,1.02783,-0.201172,0.263672
610464568433,1.01123,-0.241699,0.273438
610464590983,0.958496,-0.255371,0.248535
610464605952,0.901367,-0.239258,0.25
610464628410,0.877441,-0.220215,0.254395
610464650952,0.844238,-0.193848,0.262695
610464665978,0.833496,-0.185547,0.299805
610464688432,0.836914,-0.194336,0.331543
610464710982,0.833496,-0.191406,0.355957
610464725974,0.82373,-0.185547,0.362793
610464756553,0.812988,-0.162109,0.372559
610464771013,0.817383,-0.158203,0.369629
610464787358,0.823242,-0.15625,0.358398
610464808447,0.848145,-0.174805,0.350586
610464830974,0.875488,-0.178711,0.346191
610464847325,0.87207,-0.181152,0.346191
610464868390,0.87793,-0.172363,0.349609
610464890928,0.88623,-0.166504,0.355469
610464907386,0.889648,-0.161133,0.370605
610464936629,0.893066,-0.158691,0.398926
610464950956,0.869629,-0.139648,0.412109
610464967391,0.883301,-0.0991211,0.423828
610464988504,0.910156,-0.109375,0.39209
610465010920,0.930176,-0.136719,0.371094
610465027428,0.920898,-0.19043,0.351074
610465048552,0.907227,-0.216309,0.358398
610465070950,0.922852,-0.223145,0.35498
610465087346,1.01807,-0.184082,0.316406
610465108538,1.31445,-0.114258,0.34668
610465130966,1.47363,-0.0214844,0.282227
610465147367,1.40723,-0.0913086,0.19873
610465168395,1.24951,-0.126953,0.0786133
610465190930,1.06787,-0.150879,0.0678711
610465207368,0.943848,-0.0698242,0.065918
610465228414,0.847168,0.0302734,0.0102539
610465250944,0.879395,0.0332031,0.0864258
610465267375,1.05225,0.0673828,0.114258
610465288465,1.17627,0.0419922,0.0415039
610465310968,1.09521,0.012207,0.0424805
610465327371,1.01807,-0.0327148,0.0366211
610465356622,1.01514,-0.0302734,0.0913086
610465370949,1.01123,0.0878906,0.140137
610465393452,0.956055,0.220215,0.150391
610465408497,0.946777,0.186035,0.222656
610465430952,0.953125,0.0654297,0.251465
610465447356,0.931641,0.0512695,0.236328
610465468439,0.902832,0.0463867,0.248047
610465490960,0.89502,0.043457,0.243652
610465507363,0.883301,0.0146484,0.242676
610465528423,0.915039,-0.00488281,0.251953
610465550939,0.89502,-0.0317383,0.240723
610465567364,0.875977,-0.027832,0.244629
610465589911,0.835449,-0.0771484,0.258789
610465610942,0.807617,-0.105469,0.274414
610465627379,0.798828,-0.115234,0.291504
610465648431,0.793457,-0.104492,0.30957
610465671064,0.774414,-0.0947266,0.327637
610465687407,0.763672,-0.0761719,0.36084
610465709931,0.777344,-0.0771484,0.377441
610465730953,0.811035,-0.0952148,0.394043
610465747431,0.842285,-0.111816,0.382812
610465778104,0.851562,-0.13623,0.372559
610465790961,0.885254,-0.109375,0.405762
610465807419,1.25,-0.0195312,0.53125
610465829934,1.45703,0.0380859,0.489258
610465850930,1.34424,-0.12207,0.334473
610465868895,1.15381,-0.224121,0.21875
610465889903,0.981445,-0.212402,0.0791016
610465910958,0.996094,-0.0439453,0.0327148
610465927353,1.06055,0.0576172,0.0239258
610465949903,1.12988,-0.0883789,0.0810547
610465973930,1.12939,-0.165039,0.14502
610465987395,1.06104,-0.158691,0.160156
610466009970,0.959961,-0.0869141,0.173828
610466031059,0.845703,-0.0639648,0.148438
610466047404,0.791016,-0.078125,0.152832
610466069947,0.779785,-0.101562,0.155762
610466090954,0.753418,-0.140137,0.161621
610466107395,0.736328,-0.147461,0.179199
610466129929,0.727051,-0.123047,0.200684
610466150932,0.738281,-0.0932617,0.204102
610466168912,0.751465,-0.0917969,0.208984
610466189925,0.749023,-0.117676,0.205566
610466211024,0.748047,-0.157227,0.208496
610466227453,0.777832,-0.16748,0.21582
610466249929,0.8125,-0.161133,0.217773
610466270998,0.839355,-0.155762,0.227051
610466287446,0.856445,-0.166016,0.23584
610466309924,0.875977,-0.174316,0.259766
610466333924,0.912598,-0.164062,0.291016
610466347430,0.96582,-0.143555,0.326172
610466374270,1.00049,-0.132324,0.34082
610466399426,1.00732,-0.148438,0.32666
610466408730,1.20801,-0.162598,0.491211
610466429931,0.628906,-0.308105,0.585938
610466450927,0.0825195,-0.425781,-0.50293
610466467470,1.5376,0.117676,1.14697
610466489897,1.34863,0.114258,0.141113
610466510937,0.898438,-0.1875,-0.0141602
610466527400,1.979,0.306641,1.05078
610466549927,0.427734,-0.402832,-0.599609
610466570977,1.14844,0.0322266,-0.133789
610466587482,1.09961,0.0717773,0.0439453
610466609995,1.18457,0.123047,0.0864258
610466633994,1.28271,-0.00927734,0.156738
610466647396,1.20605,-0.0957031,0.09375
610466677467,1.05811,-0.116699,0.027832
610466692456,1.00293,-0.157715,0.391602
610466706019,0.463867,0.00878906,-0.492188
610466729076,0.54834,0.143555,-0.324219
610466751614,1.03369,0.147461,0.173828
610466768895,0.941406,0.160645,0.166992
610466789103,0.900391,0.0961914,0.241699
610466811677,0.896484,0.0615234,0.213867
610466827410,0.865723,0.0615234,0.222168
610466849195,0.882812,0.100098,0.202637
610466871715,0.974121,0.11377,0.230469
610466887437,0.979004,0.13916,0.21582
610466909125,1,0.0898438,0.24707
610466931817,1.10693,0.0527344,0.229004
610466948619,1.13672,0.0234375,0.187012
610466969140,1.05762,0.0219727,0.187012
610466991626,0.974121,-0.0268555,0.171875
610467007421,0.90332,-0.0170898,0.223145
610467029058,0.842285,0.0439453,0.281738
610467051630,0.845703,0.0664062,0.316406
610467067419,0.834473,0.0390625,0.333008
610467090586,0.783203,0.0263672,0.324219
610467111609,0.746094,0.00195312,0.34082
610467128043,0.789551,-0.0141602,0.38623
610467149096,0.872559,0.000488281,0.434082
610467171697,0.951172,0.019043,0.474121
610467188072,1.00293,0.00537109,0.469238
610467209173,0.994629,-0.0458984,0.442383
610467231646,0.949707,-0.104492,0.400879
610467254121,0.910156,-0.0966797,0.351562
610467269142,0.893555,-0.0625,0.320801
610467299154,0.885254,-0.0361328,0.286621
610467307372,0.880859,-0.0517578,0.256836
610467336685,0.876953,-0.105957,0.250488
610467351627,0.903809,-0.101562,0.254883
610467369491,0.982422,-0.0693359,0.267578
610467396406,1.07373,-0.050293,0.308594
610467411656,1.12207,-0.0678711,0.315918
610467427391,1.0752,-0.108887,0.300781
610467449163,0.996094,-0.15332,0.27832
610467471613,0.918945,-0.165527,0.281738
610467487825,0.870605,-0.128418,0.275391
610467509130,0.852051,-0.0878906,0.285645
610467531632,0.864746,-0.0615234,0.316406
610467548048,0.880371,-0.0703125,0.349609
610467569124,0.893555,-0.0976562,0.373535
610467599159,0.908691,-0.12793,0.375
610467607421,0.90625,-0.139648,0.363281
610467629111,0.902344,-0.135742,0.351074
610467651691,0.909668,-0.135742,0.324707
610467667431,0.913574,-0.135254,0.310059
610467689191,0.923828,-0.138184,0.314453
610467711628,0.925293,-0.151855,0.300781
610467727463,0.922852,-0.17334,0.298828
610467749183,0.914062,-0.169922,0.297852
610467771653,0.912598,-0.164062,0.299316
610467787393,0.895996,-0.151855,0.30957
610467810537,0.88623,-0.144043,0.3125
610467831629,0.896484,-0.138184,0.335449
610467847375,0.908203,-0.119629,0.343262
610467870627,0.921387,-0.130371,0.347168
610467891708,0.919922,-0.156738,0.325684
610467907419,0.918945,-0.172852,0.306152
610467930580,0.908691,-0.156738,0.299805
610467951583,0.908691,-0.143066,0.299316
610467967398,0.905273,-0.134766,0.299805
610467991206,0.913574,-0.131836,0.317383
610468011664,0.9375,-0.120605,0.321289
610468027420,0.944336,-0.121582,0.329102
610468050567,0.944824,-0.141602,0.313477
610468071651,0.939453,-0.154297,0.311523
610468087445,0.938965,-0.143555,0.303711
610468110573,0.936523,-0.131348,0.29248
610468131685,0.926758,-0.138672,0.300781
610468147416,0.925781,-0.132324,0.304688
610468170583,0.916992,-0.128906,0.304199
610468191653,0.90918,-0.141602,0.299805
610468215593,0.897461,-0.147949,0.295898
610468238071,0.900391,-0.131836,0.297363
610468251647,0.919434,-0.115234,0.296875
610468267420,0.926758,-0.120117,0.294434
610468290602,0.927734,-0.12793,0.303223
610468311629,0.921875,-0.131836,0.296387
610468327468,0.921387,-0.136719,0.287598
610468350638,0.921875,-0.128418,0.291016
610468380613,0.916992,-0.122559,0.299805
610468387420,0.920898,-0.115234,0.308105
610468411034,0.901855,-0.120117,0.301758
610468431666,0.903809,-0.132812,0.291992
610468447453,0.90625,-0.134766,0.289062
610468470571,0.948242,-0.121582,0.279785
610468491671,0.972656,-0.129883,0.243652
610468507410,0.973145,-0.151367,0.236328
610468530546,0.955566,-0.15918,0.249023
610468551694,0.933594,-0.138184,0.270996
610468567480,0.919922,-0.113281,0.290039
610468589918,0.913574,-0.0913086,0.305664
610468611652,0.92041,-0.0991211,0.307617
610468641658,0.940918,-0.106934,0.299316
610468649922,0.946289,-0.114258,0.28125
610468671645,0.930664,-0.12207,0.278809
610468687439,0.919922,-0.124512,0.273926
610468709925,0.92041,-0.116699,0.271484
610468733070,0.945801,-0.0976562,0.274902
610468747486,0.973145,-0.103516,0.251953
610468769949,0.978027,-0.13623,0.242676
610468793093,0.973633,-0.14502,0.240234
610468807428,0.97168,-0.126953,0.23584
610468829921,0.966309,-0.109863,0.236328
610468853086,0.961426,-0.119629,0.234863
610468874197,0.962891,-0.140137,0.23584
610468889942,0.948242,-0.139648,0.229004
610468913087,0.934082,-0.126465,0.22998
610468927416,0.913574,-0.123047,0.23291
610468949930,0.89502,-0.124512,0.23877
610468973101,0.885254,-0.121582,0.248535
610468987400,0.88623,-0.111816,0.248535
610469009992,0.893555,-0.11084,0.254395
610469033093,0.901855,-0.108398,0.250488
610469055572,0.907227,-0.111816,0.240234
610469069893,0.923828,-0.115723,0.23584
610469093174,0.937988,-0.108887,0.234375
610469114218,0.941406,-0.108398,0.23584
610469129943,0.945312,-0.102539,0.237305
610469153129,0.946777,-0.101562,0.23584
610469174222,0.935059,-0.0942383,0.235352
610469190023,0.926758,-0.0893555,0.243652
610469213107,0.926758,-0.0854492,0.249023
610469234300,0.94043,-0.0771484,0.253906
610469250044,0.967285,-0.0756836,0.245605
610469273145,0.979004,-0.0771484,0.223633
610469294224,0.974609,-0.074707,0.189453
610469310022,0.958496,-0.0708008,0.180176
610469340651,0.951172,-0.059082,0.196289
610469354208,0.956055,-0.0493164,0.192383
610469369951,0.973145,-0.0361328,0.186523
610469400599,0.978516,-0.0400391,0.165527
610469414147,0.96875,-0.0288086,0.169434
610469429916,0.965332,-0.0131836,0.170898
610469453097,0.97168,-0.00878906,0.17627
610469475649,0.974609,-0.00585938,0.17041
610469489979,0.980957,-0.0136719,0.160645
610469512520,0.932617,-0.0283203,0.139648
610469534220,0.907715,-0.0219727,0.13623
610469549974,0.882324,-0.0234375,0.135254
610469572511,0.882812,0.00341797,0.157715
610469594244,0.901367,0.0297852,0.166992
610469609963,0.907715,0.0458984,0.148926
610469632456,0.902344,0.0361328,0.140137
610469654238,0.981445,0.0629883,0.147949
610469670058,1.02783,0.0805664,0.13916
610469692540,0.993652,0.065918,0.118652
610469715653,0.981934,0.0444336,0.0976562
610469729929,0.991211,0.0537109,0.0639648
610469752516,1,0.0981445,0.0463867
610469775577,1.01611,0.118164,0.0478516
610469790067,1.0459,0.129883,0.0532227
610469812506,1.06104,0.103516,0.0595703
610469835678,1.06689,0.0800781,0.0615234
610469850036,1.02148,0.0620117,0.043457
610469872494,0.97998,0.0527344,0.0224609
610469895630,0.963379,0.0766602,0.0146484
610469910085,0.945312,0.0961914,0.00927734
610469932568,0.941406,0.0922852,0.0170898
610469955670,0.946289,0.0805664,0.0131836
610469976693,0.956055,0.0888672,0.00195312
610469992545,0.976074,0.115723,0.00195312
610470015656,0.995605,0.133301,-0.00146484
610470036726,1.03857,0.137207,-0.0131836
610470060667,1.04932,0.111328,-0.0336914
610470075688,1.021,0.0810547,-0.0522461
610470089994,0.98584,0.0776367,-0.0605469
610470112521,0.966797,0.101074,-0.0546875
610470135744,0.979004,0.126953,-0.0385742
610470156742,0.983887,0.126465,-0.0249023
610470172568,0.96582,0.109863,-0.0253906
610470195714,0.949707,0.103516,-0.0175781
610470216768,0.937988,0.114746,-0.0200195
610470232948,0.954102,0.129883,-0.0209961
610470256149,0.975098,0.148926,-0.0185547
610470276770,0.98584,0.15918,-0.0219727
610470292503,0.974609,0.14209,-0.0200195
610470315666,0.96582,0.128418,-0.027832
610470338235,0.969727,0.130371,-0.0258789
610470352533,0.980957,0.131836,-0.0395508
610470375620,0.984863,0.123047,-0.0415039
610470396673,0.983398,0.109863,-0.0424805
610470420655,0.979492,0.101562,-0.043457
610470449923,0.985352,0.100586,-0.0424805
610470451487,0.980957,0.10498,-0.0390625
610470471735,0.976074,0.106445,-0.0317383
610470486715,0.973633,0.118164,-0.0253906
610470508563,0.960938,0.126953,-0.0253906
610470531657,0.954102,0.12207,-0.0180664
610470546097,0.959473,0.123535,-0.0161133
610470571540,0.969238,0.137695,-0.012207
610470591782,0.966797,0.142578,-0.015625
610470606119,0.960938,0.127441,-0.0175781
610470628594,0.970703,0.11377,-0.0244141
610470651733,0.974121,0.11084,-0.0239258
610470667574,0.981445,0.11377,-0.027832
610470697471,0.981934,0.10498,-0.0341797
610470711694,0.974121,0.0991211,-0.0263672
610470727525,0.96582,0.0961914,-0.0239258
610470748612,0.963379,0.102051,-0.0288086
610470779923,0.95752,0.109863,-0.0239258
610470786122,0.964355,0.125,-0.0200195
610470808583,0.968262,0.130859,-0.019043
610470831849,0.974609,0.129395,-0.0224609
610470846065,0.975586,0.122559,-0.015625
610470877435,0.96875,0.117676,-0.0224609
610470891682,0.96582,0.119141,-0.0209961
610470906119,0.973633,0.111328,-0.0224609
610470928701,0.974609,0.104492,-0.0224609
610470951777,0.968262,0.106445,-0.0239258
610470974244,0.969238,0.108398,-0.0214844
610470990017,0.97168,0.108398,-0.0258789
610471011777,0.981934,0.115723,-0.0244141
610471034260,0.980469,0.106934,-0.0219727
610471057461,0.976562,0.112305,-0.0200195
610471071698,0.961426,0.11377,-0.0175781
610471087564,0.953125,0.114746,-0.0258789
610471108585,0.962891,0.119629,-0.0214844
610471139940,0.966797,0.119141,-0.027832
610471146071,0.974609,0.117188,-0.0327148
610471168556,0.980957,0.118164,-0.0288086
610471191715,0.974121,0.116211,-0.0268555
610471206117,0.966797,0.109863,-0.0229492
610471228613,0.965332,0.109375,-0.0205078
610471251658,0.971191,0.112305,-0.0292969
610471266099,0.978027,0.111328,-0.0224609
610471297383,0.970215,0.104004,-0.0234375
610471311800,0.96875,0.115723,-0.0170898
610471334333,0.970215,0.122559,-0.0200195
610471348636,0.975098,0.123535,-0.0258789
610471371819,0.978516,0.116211,-0.0283203
610471394336,0.968262,0.107422,-0.0273438
610471416813,0.969238,0.111816,-0.0268555
610471431092,0.966309,0.111816,-0.0200195
610471446188,0.961426,0.103516,-0.0234375
610471476808,0.97168,0.108398,-0.0244141
610471499935,0.969727,0.112793,-0.03125
610471506125,0.979004,0.110352,-0.0283203
610471530078,0.971191,0.112793,-0.0307617
610471551773,0.966309,0.120117,-0.027832
610471566120,0.971191,0.117676,-0.0117188
610471588569,0.962402,0.11377,-0.0209961
610471611128,0.966797,0.108887,-0.0185547
610471626150,0.970703,0.115723,-0.0161133
610471648639,0.966309,0.115234,-0.0102539
610471671122,0.969727,0.108887,-0.0249023
610471686122,0.969238,0.116211,-0.0224609
610471716795,0.96875,0.119141,-0.0131836
610471731039,0.976562,0.123535,-0.012207
610471754193,0.977539,0.119141,-0.0263672
610471776675,0.96875,0.109863,-0.027832
610471791036,0.972168,0.109375,-0.0297852
610471808949,0.982422,0.113281,-0.0317383
610471836477,0.97168,0.108887,-0.0229492
610471851050,0.96582,0.104492,-0.0229492
610471866052,0.95752,0.113281,-0.0195312
610471889973,0.967285,0.116699,-0.0185547
610471911067,0.970703,0.114746,-0.0126953
610471926057,0.967773,0.111816,-0.00976562
610471950065,0.967285,0.120605,-0.0131836
610471972550,0.967285,0.125488,-0.0112305
610471986088,0.978516,0.124512,-0.012207
610472008612,0.977051,0.121582,-0.0107422
610472034016,0.976562,0.112305,-0.0136719
610472054278,0.96875,0.109375,-0.0214844
610472068642,0.972656,0.115234,-0.0175781
610472091123,0.96875,0.116699,-0.0200195
610472114318,0.971191,0.106445,-0.0146484
610472128654,0.96875,0.101074,-0.0141602
610472151074,0.969727,0.113281,-0.0146484
610472169074,0.974121,0.119629,-0.0146484
610472196725,0.974121,0.11084,-0.0107422
610472211110,0.975098,0.112305,-0.00878906
610472229028,0.969727,0.118164,-0.0112305
610472250001,0.966309,0.115723,-0.00390625
610472271152,0.963867,0.115723,-0.00341797
610472286123,0.975586,0.123047,-0.0107422
610472311546,0.970215,0.119629,-0.00830078
610472331086,0.96582,0.113281,-0.0078125
610472347578,0.960938,0.116699,-0.0107422
610472368571,0.975098,0.118652,-0.00439453
610472391123,0.978516,0.123535,-0.00830078
610472407524,0.980469,0.111328,-0.00976562
610472428640,0.97168,0.114258,-0.00732422
610472451151,0.969238,0.109375,-0.00976562
610472475708,0.970215,0.109863,-0.00634766
610472488645,0.974609,0.115234,-0.00244141
610472511069,0.96875,0.116699,0.000976562
610472529023,0.970215,0.109375,-0.00830078
610472556822,0.955566,0.111328,-0.00292969
610472571213,0.961914,0.123535,-0.00195312
610472587545,0.975098,0.130859,0.00146484
610472616840,0.985352,0.124023,-0.00585938
610472631146,0.976562,0.113281,0.00390625
610472647564,0.971191,0.115723,0
610472671526,0.974609,0.128418,-0.0078125
610472691143,0.971191,0.124023,-0.00537109
610472707622,0.97168,0.11084,-0.0126953
610472728659,0.964844,0.104492,-0.00634766
610472752550,0.964355,0.10791,0.00585938
610472775057,0.970703,0.111816,0.0078125
610472788643,0.978027,0.118652,-0.00390625
610472811071,0.97168,0.115723,0.00195312
610472835095,0.960938,0.114258,0.0102539
610472848709,0.958984,0.117676,0.0131836
610472871053,0.961914,0.128418,0.00634766
610472888986,0.974121,0.124512,0.00683594
610472916818,0.972168,0.117676,0.0161133
610472931185,0.961426,0.111328,0.00976562
610472947618,0.967773,0.115234,0.0136719
610472976748,0.972656,0.119629,0.0102539
610472991181,0.975098,0.111328,0.0146484
610473007544,0.970215,0.111328,0.0185547
610473031566,0.979004,0.111816,0.0175781
610473059326,0.979492,0.112793,0.00488281
610473067617,0.97998,0.111816,0.00927734
610473088640,0.980957,0.111816,0.0107422
610473112543,0.978027,0.108398,0.00830078
610473127770,0.975098,0.110352,0.0117188
610473148597,0.977051,0.115723,0.0175781
610473171120,0.97168,0.112793,0.0151367
610473195144,0.970215,0.117188,0.0131836
610473208559,0.961426,0.109863,0.0229492
610473231049,0.960938,0.117188,0.0229492
610473255098,0.966309,0.120117,0.0175781
610473276873,0.976074,0.122559,0.0136719
610473291122,0.971191,0.12207,0.0322266
610473309016,0.981445,0.125488,0.0229492
610473336765,0.967773,0.116211,0.0107422
610473359328,0.967285,0.10791,0.0078125
610473367604,0.961426,0.11084,-0.00244141
610473391560,0.966309,0.11084,0.0112305
610473419366,0.972656,0.100098,0.0219727
610473427580,0.981445,0.10498,0.0244141
610473450049,0.98291,0.102539,0.0166016
610473472663,0.975098,0.102051,0.0273438
610473487569,0.970703,0.105957,0.0258789
610473510105,0.966797,0.105469,0.0180664
610473539277,0.976562,0.116699,0.0249023
610473554994,0.973145,0.110352,0.0126953
610473570016,0.967285,0.108398,0.0209961
610473591054,0.963867,0.108398,0.027832
610473607533,0.961426,0.11084,0.0307617
610473630014,0.968262,0.110352,0.0224609
610473651023,0.977051,0.101074,0.03125
610473667514,0.967285,0.097168,0.0297852
610473697547,0.968262,0.0888672,0.0390625
610473711147,0.96875,0.0957031,0.0400391
610473727514,0.976074,0.111328,0.0195312
610473750027,0.972656,0.0991211,0.0258789
610473779330,0.960938,0.0874023,0.0249023
610473787614,0.963379,0.0986328,0.0317383
610473810157,0.970703,0.106445,0.0336914
610473832581,0.980957,0.124023,0.0341797
610473847538,0.981445,0.10791,0.0361328
610473870120,0.972168,0.0966797,0.0385742
610473894081,0.973145,0.102539,0.0361328
610473915040,0.980957,0.112793,0.0327148
610473930139,0.973145,0.097168,0.0283203
610473977091,0.975098,0.0893555,0.0517578
610473981774,0.972168,0.0854492,0.0537109
610473990147,0.97998,0.0888672,0.0532227
610474011095,0.988281,0.0878906,0.0395508
610474029079,0.993164,0.0952148,0.0415039
610474057554,0.989746,0.090332,0.0541992
610474088116,0.982422,0.0786133,0.0532227
610474090511,0.967285,0.0805664,0.0546875
610474111573,0.96582,0.090332,0.046875
610474139303,0.969727,0.101562,0.0551758
610474147575,0.96875,0.0942383,0.0537109
610474171564,0.955566,0.0825195,0.0546875
610474194106,0.936035,0.0839844,0.0571289
610474206826,0.947266,0.101074,0.0644531
610474229281,0.959961,0.111328,0.0634766
610474253282,0.975098,0.09375,0.0581055
610474275706,0.970215,0.0810547,0.0551758
610474289379,0.961914,0.0888672,0.0512695
610474311748,0.960449,0.097168,0.0483398
610474326854,0.965332,0.09375,0.0546875
610474349329,0.973633,0.0874023,0.0483398
610474380057,0.983887,0.0761719,0.0449219
610474386871,0.980957,0.0732422,0.0458984
610474416877,0.97998,0.0737305,0.0488281
610474431886,0.974121,0.0844727,0.0429688
610474448731,0.969727,0.0805664,0.0473633
610474470792,0.967773,0.0761719,0.0556641
610474499347,0.962891,0.0786133,0.059082
610474508304,0.961914,0.0810547,0.0634766
610474530804,0.960449,0.0917969,0.0664062
610474553669,0.967285,0.103516,0.0527344
610474583998,0.967285,0.106934,0.046875
610474589268,0.973145,0.0996094,0.0439453
610474613288,0.981445,0.109375,0.0454102
610474628078,0.986328,0.115234,0.0415039
610474649272,0.979492,0.109863,0.0322266
610474671849,0.981934,0.104004,0.0366211
610474695748,0.991211,0.10498,0.0385742
610474709262,0.989258,0.100098,0.0458984
610474731826,0.994629,0.0952148,0.0288086
610474748290,0.983398,0.0932617,0.0253906
610474776846,0.97998,0.0864258,0.0288086
610474808897,0.982422,0.09375,0.0410156
610474811288,0.981445,0.0961914,0.0356445
610474830695,0.968262,0.0908203,0.0371094
610474859390,0.961426,0.0800781,0.0297852
610474868323,0.955078,0.0942383,0.0405273
610474889352,0.965332,0.0986328,0.0410156
610474911889,0.972168,0.10791,0.03125
610474928290,0.975586,0.103516,0.0297852
610474949235,0.974609,0.102051,0.0117188
610474973311,0.975586,0.104004,0.015625
610474994345,0.964355,0.105957,0.00976562
610475009345,0.97168,0.108398,0.012207
610475031892,0.976562,0.107422,0.00927734
610475055799,0.974609,0.0991211,0.0078125
610475069269,0.968262,0.0952148,0.00830078
610475091825,0.972168,0.0976562,0.0166016
610475108280,0.97168,0.101562,0.0234375
610475136825,0.969727,0.0991211,0.0234375
610475151773,0.965332,0.09375,0.0283203
610475167609,0.969727,0.0961914,0.0375977
610475189134,0.964355,0.0966797,0.0307617
610475219297,0.96875,0.104492,0.0297852
610475227576,0.967773,0.0991211,0.0180664
610475252262,0.972168,0.0961914,0.0336914
610475279446,0.976074,0.104492,0.0224609
610475287666,0.972168,0.101562,0.0209961
610475309298,0.97168,0.0947266,0.0195312
610475331886,0.976074,0.0981445,0.027832
610475348225,0.97168,0.0996094,0.0195312
610475370793,0.970215,0.0898438,0.0219727
610475391875,0.974609,0.103027,0.0151367
610475415781,0.97168,0.108887,0.0166016
610475445077,0.979492,0.103516,0.0234375
610475451819,0.974121,0.103027,0.0229492
610475481843,0.969238,0.105469,0.0195312
610475498283,0.965332,0.112305,0.0214844
610475511771,0.973633,0.107422,0.019043
610475528114,0.973633,0.104004,0.0253906
610475558268,0.979492,0.0991211,0.0234375
610475571760,0.970215,0.103027,0.0195312
610475587614,0.964844,0.0957031,0.0263672
610475610771,0.963867,0.100098,0.0214844
610475639321,0.975098,0.105957,0.0268555
610475647607,0.980957,0.104004,0.0283203
610475670807,0.974121,0.100586,0.0170898
610475693303,0.96875,0.106934,0.0126953
610475707665,0.969238,0.112305,0.019043
610475730777,0.966797,0.108398,0.0180664
610475751782,0.966797,0.100098,0.012207
610475775801,0.970703,0.102051,0.0151367
610475790817,0.967773,0.102051,0.0166016
610475811859,0.965332,0.101562,0.0131836
610475827637,0.96582,0.103516,0.0131836
610475858341,0.961914,0.103027,0.0126953
610475872556,0.964355,0.0996094,0.015625
610475887649,0.961914,0.0942383,0.019043
610475918228,0.964355,0.101074,0.00341797
610475939441,0.953125,0.103027,-0.0151367
610475947550,0.927734,0.0966797,-0.0253906
610475970698,0.905762,0.0961914,-0.0288086
610476000824,0.93457,0.121582,-0.0268555
610476007574,0.975098,0.130859,-0.0224609
610476032165,1.0127,0.104492,-0.0263672
610476053248,1.0249,0.0957031,-0.0419922
610476067562,1.0166,0.0966797,-0.0493164
610476090720,0.992188,0.0957031,-0.0483398
610476113243,0.980469,0.0957031,-0.0302734
610476135747,0.970703,0.0883789,-0.00927734
610476150098,0.950195,0.0834961,-0.00683594
610476171789,0.929199,0.0961914,0.00244141
610476195723,0.920898,0.112305,-0.00634766
610476218268,0.938477,0.132812,0.00146484
610476231811,0.960449,0.139648,-0.00683594
610476247597,0.978516,0.143555,-0.0371094
610476276865,0.954102,0.135742,-0.0639648
610476291956,0.94043,0.129883,-0.0634766
610476307632,0.954102,0.131348,-0.0541992
610476330135,0.98291,0.132812,-0.0517578
610476353692,0.996094,0.120117,-0.0654297
610476367691,0.994141,0.108887,-0.0805664
610476390119,0.995117,0.114746,-0.0908203
610476413293,0.987793,0.120605,-0.100098
610476427625,0.978516,0.119629,-0.0981445
610476450146,0.978516,0.116211,-0.0864258
610476473364,0.976074,0.130371,-0.0874023
610476487666,0.983398,0.137695,-0.0869141
610476510111,0.982422,0.140137,-0.0976562
610476533323,0.978027,0.141602,-0.104004
610476547671,0.979004,0.145508,-0.107422
610476570119,0.980957,0.151855,-0.108398
610476593306,0.974609,0.160156,-0.118164
610476607720,0.970215,0.158203,-0.113281
610476630204,0.956055,0.15625,-0.124512
610476653340,0.945312,0.152832,-0.125977
610476674369,0.937988,0.152344,-0.126465
610476690248,0.939941,0.154785,-0.133301
610476713271,0.943848,0.150391,-0.133301
610476727650,0.951172,0.152832,-0.134766
610476750197,0.955078,0.156738,-0.140137
610476773329,0.958496,0.158691,-0.141113
610476787724,0.955078,0.157227,-0.146973
610476810133,0.946777,0.157227,-0.148926
610476833753,0.951172,0.165039,-0.151855
610476854407,0.948242,0.175781,-0.148926
610476870138,0.955078,0.176758,-0.144531
610476893312,0.961426,0.175781,-0.143066
610476914395,0.959961,0.171387,-0.144043
610476930147,0.95752,0.171387,-0.140137
610476953354,0.952148,0.165039,-0.144531
610476974350,0.94873,0.152344,-0.145508
610476990171,0.940918,0.15918,-0.140625
610477013368,0.945312,0.159668,-0.13916
610477034391,0.94873,0.166016,-0.140137
610477050576,0.953125,0.166992,-0.139648
610477072670,0.959473,0.16748,-0.13623
610477094283,0.95752,0.15918,-0.125488
610477110160,0.958008,0.169434,-0.130371
610477132635,0.959473,0.167969,-0.131836
610477154369,0.961426,0.168457,-0.136719
610477170124,0.955566,0.166504,-0.146973
610477192664,0.95166,0.156738,-0.148926
610477221955,0.954102,0.17041,-0.147949
610477244394,0.954102,0.166016,-0.138672
610477252701,0.95459,0.164551,-0.136719
610477275823,0.952637,0.163086,-0.142578
610477290151,0.95752,0.167969,-0.143066
610477312651,0.958008,0.172363,-0.144531
610477335796,0.955566,0.169922,-0.14502
610477350156,0.953125,0.165527,-0.142578
610477372714,0.954102,0.169434,-0.141113
610477395833,0.949219,0.168457,-0.142578
610477416850,0.948242,0.162109,-0.144531
610477432688,0.948242,0.164062,-0.140625
610477455893,0.95752,0.164062,-0.138184
610477470185,0.960938,0.166016,-0.13916
610477500880,0.952148,0.161621,-0.150879
610477515825,0.950684,0.162598,-0.150879
610477530149,0.962891,0.165039,-0.147461
610477552654,0.959473,0.156738,-0.154297
610477583402,0.956055,0.154297,-0.150879
610477596664,0.950684,0.160645,-0.144531
610477612666,0.944336,0.172363,-0.143555
610477635854,0.938965,0.171387,-0.140137
610477650170,0.941895,0.171387,-0.135254
610477672716,0.950195,0.175781,-0.139648
610477695867,0.954102,0.176758,-0.135742
610477710144,0.960449,0.175781,-0.141602
610477732600,0.960449,0.17041,-0.146973
610477755887,0.958496,0.163574,-0.144043
610477777000,0.95166,0.160156,-0.146484
610477792744,0.955078,0.153809,-0.149414
610477815862,0.955078,0.15918,-0.146973
610477836907,0.94873,0.167969,-0.148438
610477852645,0.950684,0.15918,-0.145996
610477875827,0.949219,0.160156,-0.136719
610477896835,0.955566,0.17041,-0.141602
610477912724,0.957031,0.17041,-0.136719
610477943244,0.960449,0.162109,-0.135254
610477948771,0.964844,0.15625,-0.135254
610477971902,0.976074,0.15625,-0.136719
610477986246,0.973145,0.146973,-0.151367
610478008786,0.955078,0.144043,-0.15625
610478040091,0.937988,0.140625,-0.14502
610478046325,0.936035,0.150391,-0.145996
610478068725,0.942871,0.155273,-0.145508
610478091876,0.953613,0.15625,-0.133789
610478106229,0.95459,0.162598,-0.129883
610478128805,0.94043,0.166992,-0.126465
610478151675,0.951172,0.173828,-0.125977
610478166266,0.95752,0.17627,-0.127441
610478188733,0.959961,0.172852,-0.134766
610478211903,0.957031,0.163086,-0.134277
610478226212,0.94873,0.172852,-0.129395
610478250257,0.945801,0.175293,-0.127441
610478271737,0.948242,0.169434,-0.130371
610478286261,0.957031,0.16748,-0.128418
610478308769,0.958496,0.158203,-0.131836
610478331917,0.958008,0.15625,-0.128418
610478354473,0.957031,0.157227,-0.134277
610478368788,0.958008,0.158203,-0.140137
610478391994,0.958008,0.150879,-0.149414
610478406320,0.955078,0.141602,-0.13623
610478428772,0.956543,0.151855,-0.128906
610478451995,0.959473,0.154785,-0.128906
610478466218,0.950195,0.147461,-0.13916
610478488746,0.950195,0.157227,-0.135254
610478511934,0.952637,0.169922,-0.130859
610478526283,0.94873,0.170898,-0.137207
610478548769,0.950684,0.167969,-0.136719
610478571846,0.94873,0.172363,-0.145508
610478586224,0.955078,0.174316,-0.14209
610478610176,0.953613,0.182129,-0.132324
610478631854,0.947754,0.165039,-0.126953
610478646307,0.94043,0.157227,-0.124023
610478668717,0.952637,0.166016,-0.129883
610478691966,0.955078,0.164551,-0.135742
610478706237,0.960938,0.160156,-0.136719
610478728741,0.963867,0.150879,-0.14209
610478752419,0.966309,0.157715,-0.140137
610478766266,0.963867,0.162109,-0.149902
610478788857,0.960938,0.162109,-0.145508
610478812037,0.955566,0.163574,-0.148438
610478826269,0.958496,0.164062,-0.137207
610478848795,0.955566,0.170898,-0.132812
610478871876,0.94873,0.165527,-0.133301
610478887680,0.942871,0.16748,-0.141113
610478908675,0.938477,0.174805,-0.138672
610478931889,0.948242,0.178711,-0.14209
610478946285,0.955078,0.171875,-0.135254
610478970241,0.955078,0.167969,-0.13623
610478991973,0.956055,0.174805,-0.145508
610479006217,0.952637,0.180176,-0.143555
610479028747,0.955078,0.171387,-0.139648
610479051861,0.963867,0.172852,-0.135742
610479066197,0.965332,0.172852,-0.145508
610479088699,0.952637,0.177734,-0.151367
610479113293,0.950195,0.187012,-0.145508
610479126220,0.956055,0.193848,-0.138184
610479148722,0.962891,0.191895,-0.144043
610479171262,0.98877,0.212402,-0.131836
610479186211,1.02734,0.233887,-0.149902
610479208710,1.04248,0.23877,-0.156738
610479231239,1.04102,0.190918,-0.16748
610479246247,1.03711,0.181152,-0.163574
610479268761,1.02783,0.183105,-0.159668
610479291281,1.01025,0.185059,-0.137207
610479306173,0.981445,0.174805,-0.126953
610479328743,0.944824,0.16748,-0.122559
610479351195,0.934082,0.160645,-0.10791
610479366249,0.94873,0.168945,-0.111328
610479388746,0.98291,0.171387,-0.128906
610479411176,1,0.158203,-0.137695
610479426221,1.00244,0.15332,-0.125488
610479448709,1.00537,0.14502,-0.102539
610479471203,0.998047,0.125977,-0.0761719
610479494390,0.978027,0.0854492,-0.046875
610479508745,0.962891,0.0556641,-0.0209961
610479531254,0.959473,0.0385742,0.00683594
610479546210,0.945312,0.015625,0.0400391
610479568736,0.916504,-0.012207,0.0683594
610479591202,0.880371,-0.0385742,0.0654297
610479606196,0.873535,-0.0361328,0.0737305
610479628752,0.884766,-0.034668,0.0878906
610479651221,0.898926,-0.0424805,0.100098
610479666205,0.904297,-0.0629883,0.125977
610479688725,0.908203,-0.0800781,0.150391
610479711225,0.90332,-0.105469,0.171875
610479726231,0.907715,-0.112793,0.182617
610479748774,0.936523,-0.105469,0.188477
610479771214,0.970703,-0.108887,0.189941
610479786235,0.990723,-0.12207,0.192871
610479808749,1.00098,-0.130859,0.19873
610479831314,0.980469,-0.141602,0.186035
610479846245,0.956543,-0.138672,0.180176
610479868781,0.926758,-0.135254,0.191406
610479900091,0.927246,-0.124023,0.205078
610479906294,0.932129,-0.112793,0.213379
610479928726,0.933594,-0.112793,0.220703
610479951229,0.933105,-0.119141,0.239258
610479967648,0.945801,-0.126953,0.23877
610479988759,0.95166,-0.133789,0.238281
610480011235,0.941895,-0.139648,0.228516
610480027676,0.929688,-0.141113,0.22998
610480048761,0.936523,-0.132324,0.234375
610480071250,0.950684,-0.129883,0.224121
610480087724,0.975098,-0.132324,0.22168
610480108744,0.958008,-0.153809,0.231934
610480131301,0.923828,-0.1875,0.230469
610480147642,0.893555,-0.187988,0.245117
610480168758,0.870605,-0.19043,0.259277
610480191197,0.886719,-0.188477,0.269531
610480209089,0.889648,-0.218262,0.262207
610480228788,0.885742,-0.241211,0.269043
610480259433,0.867188,-0.227539,0.270996
610480267697,0.864746,-0.197754,0.268555
610480296964,0.846191,-0.183594,0.27002
610480311258,0.879395,-0.173828,0.273926
610480327703,0.968262,-0.150879,0.288574
610480348725,1.06445,-0.139648,0.289551
610480371252,1.08252,-0.156738,0.233398
610480387706,1.03809,-0.17627,0.228516
610480408773,0.979004,-0.191895,0.225586
610480431276,1.00635,-0.126953,0.196777
610480447648,1.02686,-0.0234375,0.177734
610480468778,1.06885,0.0371094,0.185547
610480491189,1.1001,0.0322266,0.241699
610480507633,1.07031,-0.0258789,0.256348
610480528723,1.02637,-0.0078125,0.258789
610480551245,0.975586,0.00439453,0.26416
610480573767,0.961426,0.0356445,0.290039
610480588778,0.967773,0.0800781,0.325684
610480611243,0.958984,0.0961914,0.337891
610480627700,0.929688,0.0581055,0.324219
610480648761,0.884277,0.0195312,0.311523
610480671266,0.848145,0.0151367,0.304688
610480687699,0.822266,0.0317383,0.307129
610480708785,0.819336,0.0380859,0.328613
610480731280,0.827148,0.0444336,0.354004
610480747664,0.851562,0.0488281,0.37207
610480768810,0.879883,0.0371094,0.395996
610480791229,0.904297,0.0170898,0.40625
610480807628,0.924316,0.00244141,0.414551
610480828738,0.903809,-0.0395508,0.387695
610480851252,0.871094,-0.0795898,0.386719
610480867714,0.852051,-0.0800781,0.367188
610480890170,0.828613,-0.0844727,0.362305
610480912673,0.832031,-0.0908203,0.368652
610480927675,0.848633,-0.103027,0.391602
610480950183,0.864746,-0.122559,0.416992
610480971265,0.855957,-0.150391,0.419922
610480987691,0.83252,-0.177734,0.427734
610481010196,0.812012,-0.165527,0.428711
610481032673,0.814941,-0.119629,0.448242
610481047686,0.814453,-0.100098,0.455078
610481070203,0.822754,-0.0913086,0.461426
610481091258,0.855957,-0.0727539,0.428711
610481113734,0.909668,-0.0844727,0.378906
610481130223,1.07129,-0.0146484,0.399414
610481151266,1.07178,0.0268555,0.369629
610481167694,0.922852,-0.142578,0.270996
610481190165,0.928223,-0.157227,0.273438
610481214154,1.12256,0.0595703,0.29541
610481227698,1.2915,0.169922,0.28418
610481250180,1.35889,0.0117188,0.288086
610481271293,1.31494,-0.171387,0.291992
610481287821,1.17529,-0.159668,0.240723
610481310245,1.01367,-0.046875,0.217285
610481331319,0.867188,0.0131836,0.242188
610481347785,0.818359,0.00488281,0.271973
610481370215,0.752441,-0.0209961,0.301758
610481391318,0.708984,-0.0234375,0.335449
610481407747,0.697266,0,0.348145
610481431714,0.674316,0.00732422,0.349121
610481451346,0.677734,-0.0507812,0.347168
610481467785,0.680176,-0.106934,0.341309
610481491727,0.715332,-0.133301,0.339355
610481511368,0.743652,-0.227051,0.35498
610481527750,0.775391,-0.158203,0.379883
610481550239,0.818848,-0.0170898,0.380371
610481571355,0.837891,0.0546875,0.395996
610481587764,0.858398,0.0161133,0.4375
610481610311,0.922363,-0.0229492,0.447266
610481634174,0.958008,-0.0117188,0.450195
610481647754,0.957031,-0.0546875,0.462891
610481670281,1.04199,-0.114746,0.530273
610481691993,1.21631,-0.0678711,0.588379
610481706993,1.26953,-0.00634766,0.518555
610481729397,1.04688,-0.0776367,0.376465
610481751999,0.841797,-0.142578,0.290039
610481766994,0.788574,-0.0917969,0.266113
610481789534,0.86377,0.0180664,0.312988
610481811933,1.10449,0.027832,0.382324
610481828443,1.27832,0.00292969,0.414551
610481849427,1.2251,-0.050293,0.354492
610481872001,1.08008,-0.0966797,0.280273
610481887050,0.925293,-0.110352,0.229004
610481911041,0.81543,-0.0507812,0.197754
610481931988,0.805664,0.00195312,0.189941
610481946990,0.797852,0.0131836,0.200195
610481969534,0.775391,-0.0078125,0.242188
610481992001,0.785645,0.00195312,0.286621
610482008408,0.791504,0.0161133,0.32666
610482029524,0.800781,0.0332031,0.353516
610482052001,0.803223,0.0498047,0.404297
610482068457,0.885742,0.0429688,0.431641
610482089450,0.90332,-0.0327148,0.418457
610482111997,0.878418,-0.0629883,0.375
610482128421,0.855469,-0.050293,0.34082
610482149466,0.822266,-0.0556641,0.334473
610482172057,0.819824,-0.0649414,0.348633
610482188404,0.84375,-0.0727539,0.402344
610482209538,0.879395,-0.0693359,0.455566
610482232039,0.901367,-0.0927734,0.479492
610482248419,0.919434,-0.123535,0.498535
610482269468,1.11621,-0.0893555,0.574219
610482291931,1.38428,0.00878906,0.568848
610482308440,1.2915,-0.12207,0.432617
610482329525,1.16602,-0.229004,0.37207
610482352024,0.995605,-0.239746,0.238281
610482368460,0.855469,-0.18457,0.136719
610482389455,0.778809,-0.0961914,0.111328
610482412050,0.737793,-0.0688477,0.0952148
610482428433,0.78418,-0.0708008,0.130859
610482449403,0.902832,-0.0932617,0.188477
610482472074,0.989258,-0.12207,0.216797
610482488468,1.02393,-0.138672,0.230469
610482509456,1.01953,-0.131348,0.228027
610482532049,0.998047,-0.123047,0.239746
610482548397,0.956055,-0.157715,0.252441
610482569474,0.912598,-0.193359,0.254883
610482592018,0.871582,-0.215332,0.26416
610482608493,0.83252,-0.213867,0.270508
610482629552,0.831543,-0.193359,0.273438
610482651991,0.842285,-0.174316,0.26709
610482668469,0.854004,-0.149414,0.271484
610482689474,0.894531,-0.137207,0.271973
610482712003,0.895508,-0.143066,0.266602
610482727753,0.896973,-0.177246,0.245117
610482749385,0.901367,-0.185547,0.240234
610482772113,0.92041,-0.172363,0.232422
610482787832,0.933594,-0.158203,0.221191
610482809513,0.945312,-0.15625,0.238281
610482832046,0.963379,-0.155273,0.251465
610482847817,0.955078,-0.152344,0.249512
610482869490,0.938965,-0.152344,0.250488
610482892048,0.917969,-0.160645,0.22998
610482907742,0.89209,-0.161621,0.227051
