myot,myox,myoy,myoz,myost
myot,myox,myoy,myoz,myost
355814418,0.897949,-0.109863,0.42334,1468766295182
355838062,0.897461,-0.106445,0.419434,1468766295206
355853088,0.836914,-0.117676,0.411621,1468766295221
355874355,0.893555,0.027832,0.311035,1468766295242
355898056,0.894043,-0.0537109,0.381348,1468766295266
355913085,0.90332,-0.125,0.447266,1468766295281
355958103,0.90918,-0.0195312,0.4375,1468766295326
355967024,0.888672,-0.0527344,0.416504,1468766295335
355975784,0.912109,-0.0688477,0.409668,1468766295343
355994993,0.904785,-0.059082,0.39502,1468766295363
356018778,0.869629,-0.11084,0.422363,1468766295386
356033116,0.854492,-0.108398,0.387207,1468766295401
356076917,0.887695,-0.0458984,0.34668,1468766295445
356087042,0.881348,-0.144531,0.371094,1468766295455
356093173,0.929199,-0.112305,0.418457,1468766295461
356115022,0.924316,-0.0517578,0.419922,1468766295483
356137543,0.855469,-0.117676,0.406738,1468766295506
356151886,0.882324,-0.0708008,0.419434,1468766295520
356176397,0.867188,-0.0683594,0.345215,1468766295544
356197357,0.901855,-0.0595703,0.334961,1468766295565
356211769,0.926758,-0.0234375,0.371094,1468766295580
356234875,0.890625,-0.0976562,0.414551,1468766295603
356257383,0.900391,-0.0966797,0.349121,1468766295625
356271715,0.929199,-0.0683594,0.330566,1468766295639
356294861,0.924805,-0.108398,0.313965,1468766295662
356317361,0.914551,-0.193848,0.385254,1468766295685
356331713,0.876953,-0.168457,0.462402,1468766295699
356354834,0.868164,-0.134277,0.428223,1468766295723
356377398,0.888184,-0.134766,0.362305,1468766295745
356391711,0.894531,-0.119629,0.268555,1468766295759
356414831,0.937988,-0.157227,0.311035,1468766295782
356437357,0.922363,-0.202148,0.379883,1468766295805
356451714,0.888184,-0.171387,0.378906,1468766295819
356474888,0.881836,-0.18457,0.344727,1468766295843
356497394,0.884766,-0.15918,0.295898,1468766295865
356513176,0.920898,-0.128906,0.299805,1468766295881
356534912,0.948242,-0.132812,0.334961,1468766295903
356557354,0.949219,-0.122559,0.375977,1468766295925
356573155,0.926758,-0.129883,0.348633,1468766295941
356594880,0.915527,-0.161133,0.30127,1468766295963
356617365,0.889648,-0.207031,0.312012,1468766295985
356633204,0.862793,-0.20166,0.334961,1468766296001
356654847,0.874023,-0.216309,0.353027,1468766296023
356677198,0.89209,-0.181641,0.34082,1468766296045
356693157,0.908203,-0.159668,0.317383,1468766296061
356714877,0.896484,-0.194824,0.341309,1468766296083
356737355,0.893066,-0.176758,0.35498,1468766296105
356753153,0.904785,-0.150879,0.339355,1468766296121
356774228,0.902344,-0.125,0.324219,1468766296142
356797393,0.908203,-0.144531,0.314453,1468766296165
356813172,0.90918,-0.148438,0.344727,1468766296181
356834230,0.904297,-0.15332,0.349121,1468766296202
356857399,0.904785,-0.132812,0.333496,1468766296225
356873167,0.92041,-0.131348,0.324219,1468766296241
356894274,0.924316,-0.134277,0.314941,1468766296262
356917422,0.917969,-0.119629,0.318848,1468766296285
356933166,0.900879,-0.131348,0.296875,1468766296301
356954275,0.915527,-0.143555,0.307129,1468766296322
356977377,0.92334,-0.10498,0.310059,1468766296345
356993198,0.925781,-0.0986328,0.29541,1468766296361
357014229,0.929688,-0.0976562,0.296875,1468766296382
357037380,0.932129,-0.0839844,0.304199,1468766296405
357053139,0.939453,-0.0864258,0.282715,1468766296421
357075690,0.930176,-0.0834961,0.271973,1468766296443
357098853,0.939453,-0.118164,0.299316,1468766296467
357113179,0.927734,-0.0913086,0.299316,1468766296481
357135651,0.915039,-0.115723,0.30127,1468766296503
357158822,0.922852,-0.111816,0.297363,1468766296526
357173151,0.931641,-0.0844727,0.293945,1468766296541
357195643,0.930664,-0.100586,0.289062,1468766296563
357218843,0.933105,-0.104004,0.297363,1468766296587
357233184,0.925293,-0.0874023,0.287109,1468766296601
357255665,0.92041,-0.116211,0.305176,1468766296623
357278812,0.913574,-0.117676,0.307617,1468766296646
357293206,0.919922,-0.115234,0.305664,1468766296661
357315654,0.933594,-0.102051,0.297363,1468766296683
357338783,0.927246,-0.100098,0.296387,1468766296706
357353182,0.925781,-0.0922852,0.297852,1468766296721
357375736,0.921875,-0.110352,0.300293,1468766296743
357398848,0.924316,-0.114746,0.303711,1468766296767
357413154,0.921387,-0.109375,0.295898,1468766296781
357435662,0.933105,-0.116699,0.297363,1468766296803
357458813,0.920898,-0.10791,0.306641,1468766296826
357479926,0.917969,-0.11084,0.310547,1468766296848
357495684,0.928711,-0.108887,0.306152,1468766296863
357518831,0.922363,-0.104004,0.301758,1468766296886
357539919,0.928223,-0.111328,0.301758,1468766296908
357555662,0.921875,-0.117676,0.298828,1468766296923
357578867,0.92334,-0.114746,0.308594,1468766296947
357599878,0.916992,-0.117676,0.306152,1468766296968
357615692,0.913086,-0.120117,0.307617,1468766296983
357639230,0.920898,-0.106445,0.311523,1468766297007
357659916,0.925781,-0.11084,0.308105,1468766297028
357675702,0.930176,-0.0966797,0.295898,1468766297043
357698821,0.92627,-0.113281,0.294434,1468766297066
357719859,0.927734,-0.126465,0.304199,1468766297088
357735637,0.922852,-0.118164,0.30957,1468766297103
357758196,0.915527,-0.124023,0.311035,1468766297126
357779862,0.911621,-0.115723,0.313965,1468766297148
357795724,0.926758,-0.112305,0.308105,1468766297163
357818279,0.921875,-0.117676,0.29834,1468766297186
357839966,0.922852,-0.123047,0.297852,1468766297208
357855776,0.920898,-0.132324,0.312988,1468766297223
357878300,0.916504,-0.123535,0.318359,1468766297246
357901390,0.921387,-0.115723,0.303711,1468766297269
357915789,0.925781,-0.10498,0.296875,1468766297284
357938198,0.927246,-0.102051,0.297852,1468766297306
357961338,0.930664,-0.10498,0.295898,1468766297329
357975707,0.922852,-0.0952148,0.30127,1468766297343
357998176,0.921387,-0.0996094,0.29541,1468766297366
358021333,0.922852,-0.118652,0.300293,1468766297389
358035687,0.919434,-0.128906,0.3125,1468766297403
358058212,0.916992,-0.117188,0.314941,1468766297426
358081435,0.916992,-0.115723,0.300293,1468766297449
358095797,0.929199,-0.105469,0.296387,1468766297464
358118375,0.92627,-0.10498,0.305664,1468766297486
358141439,0.929688,-0.103027,0.297363,1468766297509
358155831,0.927734,-0.10791,0.292969,1468766297524
358178318,0.922852,-0.11084,0.295898,1468766297546
358201377,0.921875,-0.114746,0.297363,1468766297569
358215699,0.928711,-0.109375,0.300781,1468766297583
358238274,0.926758,-0.106445,0.295898,1468766297606
358261549,0.928711,-0.103027,0.295898,1468766297629
358275742,0.927246,-0.11084,0.30127,1468766297643
358298309,0.919434,-0.101074,0.297852,1468766297666
358321437,0.924316,-0.104492,0.294922,1468766297689
358335691,0.921387,-0.109375,0.297363,1468766297703
358358238,0.924805,-0.111328,0.305664,1468766297726
358381418,0.922363,-0.110352,0.308594,1468766297749
358402550,0.925781,-0.112793,0.302246,1468766297770
358418373,0.919434,-0.112793,0.299805,1468766297786
358441458,0.922363,-0.11084,0.305176,1468766297809
358462584,0.926758,-0.111328,0.307129,1468766297830
358478297,0.925293,-0.106934,0.304688,1468766297846
358501407,0.923828,-0.11084,0.298828,1468766297869
358522623,0.924805,-0.105469,0.297363,1468766297891
358538340,0.927734,-0.102539,0.295898,1468766297906
358561455,0.930176,-0.105469,0.29248,1468766297929
358582470,0.920898,-0.112793,0.300293,1468766297950
358598349,0.914551,-0.121582,0.304199,1468766297966
358621438,0.919922,-0.123535,0.304199,1468766297989
358650119,0.92627,-0.106934,0.303223,1468766298018
358658372,0.924805,-0.111328,0.297363,1468766298026
358671757,0.923828,-0.104492,0.301758,1468766298039
358694272,0.917969,-0.10791,0.305176,1468766298062
358717447,0.925781,-0.108398,0.30127,1468766298085
358731720,0.92627,-0.109863,0.296875,1468766298099
358754227,0.924805,-0.0991211,0.297363,1468766298122
358777416,0.929688,-0.108887,0.302246,1468766298145
358791734,0.929199,-0.10498,0.304199,1468766298159
358814300,0.929199,-0.100586,0.29541,1468766298182
358837664,0.928223,-0.112793,0.300293,1468766298206
358851995,0.922852,-0.109863,0.297852,1468766298220
358874601,0.92334,-0.103027,0.294434,1468766298243
358897372,0.926758,-0.0986328,0.303711,1468766298265
358911842,0.928223,-0.110352,0.293457,1468766298280
358934491,0.919922,-0.11084,0.294434,1468766298302
358957450,0.922363,-0.111328,0.305176,1468766298325
358971822,0.922852,-0.112793,0.30127,1468766298339
358994222,0.919922,-0.106445,0.299805,1468766298362
359017444,0.922363,-0.10791,0.302246,1468766298385
359031749,0.924316,-0.105957,0.297852,1468766298399
359054221,0.928223,-0.11084,0.299316,1468766298422
359077579,0.924316,-0.10791,0.298828,1468766298445
359091968,0.922852,-0.102539,0.29541,1468766298460
359114460,0.921875,-0.110352,0.297852,1468766298482
359137591,0.925293,-0.10498,0.297363,1468766298505
359151968,0.924805,-0.111816,0.303223,1468766298520
359174525,0.924316,-0.109863,0.302246,1468766298542
359197676,0.924316,-0.116699,0.303223,1468766298566
359211990,0.922363,-0.11084,0.299316,1468766298580
359234329,0.925781,-0.105469,0.297363,1468766298602
359257494,0.927734,-0.108398,0.296387,1468766298625
359271722,0.92627,-0.10791,0.297852,1468766298639
359294217,0.927734,-0.105469,0.296387,1468766298662
359317435,0.926758,-0.104492,0.297852,1468766298685
359331741,0.92627,-0.105469,0.295898,1468766298699
359354503,0.927246,-0.110352,0.29541,1468766298722
359377679,0.925781,-0.112305,0.29541,1468766298746
359391994,0.916504,-0.109375,0.306152,1468766298760
359414500,0.922852,-0.107422,0.301758,1468766298782
359437533,0.926758,-0.106934,0.298828,1468766298805
359451970,0.929199,-0.111816,0.291016,1468766298820
359474486,0.927734,-0.101562,0.291992,1468766298842
359497508,0.925293,-0.10498,0.291504,1468766298865
359511841,0.92041,-0.115234,0.304199,1468766298880
359543118,0.919922,-0.105957,0.29248,1468766298911
359557429,0.930176,-0.103516,0.287598,1468766298925
359571807,0.92627,-0.105957,0.273926,1468766298940
359594285,0.922852,-0.103027,0.279297,1468766298962
359617419,0.929199,-0.0991211,0.288574,1468766298985
359631848,0.926758,-0.0913086,0.296387,1468766299000
359654430,0.922363,-0.0952148,0.284668,1468766299022
359677478,0.919922,-0.123535,0.28418,1468766299045
359692030,0.920898,-0.119141,0.282715,1468766299060
359714365,0.924805,-0.104004,0.284668,1468766299082
359737606,0.927246,-0.0917969,0.289062,1468766299105
359760036,0.931641,-0.0981445,0.304688,1468766299128
359774272,0.930664,-0.107422,0.29248,1468766299142
359796795,0.927246,-0.0947266,0.279785,1468766299164
359811756,0.925781,-0.0820312,0.265137,1468766299179
359834299,0.946777,-0.0673828,0.275391,1468766299202
359856772,0.950684,-0.0571289,0.263672,1468766299224
359871742,0.940918,-0.043457,0.234375,1468766299239
359894234,0.935059,-0.0678711,0.235352,1468766299262
359916751,0.93457,-0.0947266,0.253906,1468766299284
359931792,0.933105,-0.0913086,0.26123,1468766299299
359954462,0.932617,-0.0859375,0.295898,1468766299322
359976904,0.944824,-0.0390625,0.287598,1468766299345
359991999,0.95166,-0.0517578,0.24707,1468766299360
360014345,0.946289,-0.0512695,0.23291,1468766299382
360037013,0.938477,-0.0522461,0.233887,1468766299405
360051989,0.935059,-0.0507812,0.241211,1468766299420
360074487,0.952637,-0.0146484,0.234375,1468766299442
360097000,0.973145,0.0146484,0.210449,1468766299465
360112035,0.979492,-0.0126953,0.218262,1468766299480
360134476,0.964355,-0.0107422,0.207031,1468766299502
360156890,0.94873,0.00830078,0.208984,1468766299525
360171995,0.966309,-0.015625,0.229492,1468766299540
360194367,0.964355,-0.012207,0.239258,1468766299562
360216977,0.955078,-0.00585938,0.240234,1468766299585
360231877,0.944336,-0.015625,0.237305,1468766299600
360254423,0.949219,0.00195312,0.236328,1468766299622
360276961,0.959473,0.0234375,0.245117,1468766299645
360291842,0.961426,0.0209961,0.25,1468766299660
360314467,0.941895,-0.00537109,0.275879,1468766299682
360336949,0.931152,-0.0195312,0.26123,1468766299705
360351905,0.941895,-0.00585938,0.265625,1468766299720
360374473,0.9375,-0.0161133,0.277344,1468766299742
360396865,0.930176,-0.0117188,0.288574,1468766299765
360412004,0.923828,0.000488281,0.296875,1468766299780
360434399,0.934082,0.00195312,0.297852,1468766299802
360465674,0.935059,-0.00390625,0.297363,1468766299833
360471839,0.927246,-0.00292969,0.290039,1468766299839
360494305,0.93457,0.0112305,0.285645,1468766299862
360516874,0.937012,0.0078125,0.291016,1468766299885
360531800,0.922852,0.0112305,0.291504,1468766299900
360554536,0.927246,0.0151367,0.296387,1468766299922
360576834,0.933105,0.0117188,0.317871,1468766299945
360593315,0.935059,0.0175781,0.324707,1468766299961
360614564,0.921875,0.00634766,0.32666,1468766299982
360637019,0.918945,0.0234375,0.321289,1468766300005
360653383,0.912109,0.0400391,0.310547,1468766300021
360674561,0.922852,0.074707,0.327148,1468766300043
360697017,0.912109,0.0717773,0.335938,1468766300065
360713282,0.904297,0.0537109,0.358398,1468766300081
360734492,0.897461,0.0439453,0.371582,1468766300102
360757075,0.896973,0.0317383,0.373047,1468766300125
360773367,0.890137,0.0317383,0.35498,1468766300141
360794516,0.896484,0.050293,0.351562,1468766300162
360817000,0.908203,0.0644531,0.374512,1468766300185
360833338,0.913086,0.0517578,0.384277,1468766300201
360854536,0.936035,0.0112305,0.362793,1468766300223
360876924,0.938477,-0.00146484,0.346191,1468766300245
360893328,0.929688,0.0229492,0.320312,1468766300261
360914404,0.902832,0.0224609,0.350586,1468766300282
360936851,0.919434,0.0112305,0.394043,1468766300305
360953295,0.918457,0.00976562,0.418945,1468766300321
360977304,0.899902,-0.0107422,0.375977,1468766300345
360996976,0.885742,0.0141602,0.321289,1468766300365
361013290,0.864258,0.0415039,0.278809,1468766300381
361034503,0.884766,0.0722656,0.291504,1468766300402
361056819,0.938477,0.097168,0.318359,1468766300424
361073212,0.973633,0.107422,0.320312,1468766300441
361094320,0.959473,0.0932617,0.319336,1468766300462
361116833,0.92627,0.0786133,0.281738,1468766300485
361133283,0.911133,0.0864258,0.270996,1468766300501
361154305,0.910645,0.0893555,0.286133,1468766300522
361176774,0.896484,0.108398,0.302246,1468766300544
361194741,0.881836,0.124023,0.313965,1468766300562
361214547,0.887207,0.169434,0.348633,1468766300583
361236939,0.887207,0.20752,0.349121,1468766300605
361253388,0.897461,0.169922,0.349121,1468766300621
361274476,0.920898,0.0874023,0.316406,1468766300642
361296927,0.961914,0.0380859,0.276855,1468766300665
361313349,0.960449,0.00830078,0.254883,1468766300681
361334361,0.933105,-0.00488281,0.233887,1468766300702
361356883,0.92627,0.00830078,0.250488,1468766300725
361373340,0.923828,-0.00878906,0.258301,1468766300741
361394452,0.929688,-0.0107422,0.253906,1468766300762
361417020,0.932129,0.00976562,0.240723,1468766300785
361433359,0.921387,0.0336914,0.249023,1468766300801
361454474,0.915039,0.03125,0.22998,1468766300822
361476830,0.931152,0.065918,0.281738,1468766300844
361493254,0.935547,0.0522461,0.279297,1468766300861
361515797,0.954102,0.0229492,0.26416,1468766300883
361536841,0.953125,-0.00537109,0.223145,1468766300905
361553245,0.944824,-0.0361328,0.166504,1468766300921
361575776,0.964844,-0.0581055,0.143066,1468766300943
361597020,0.976074,0.0185547,0.209473,1468766300965
361613352,0.943848,0.0185547,0.209473,1468766300981
361635790,0.984375,-0.0458984,0.174805,1468766301004
361656921,0.976074,-0.0317383,0.15918,1468766301025
361673356,0.967285,-0.0639648,0.13623,1468766301041
361702062,0.969727,-0.0405273,0.141602,1468766301070
361716850,0.960938,-0.0390625,0.144043,1468766301085
361733299,0.981445,-0.0864258,0.133301,1468766301101
361755769,0.976562,-0.0722656,0.128906,1468766301123
361776844,0.958984,-0.0649414,0.12793,1468766301144
361793273,0.995117,-0.0786133,0.128418,1468766301161
361815755,0.982422,-0.0913086,0.0981445,1468766301183
361836809,0.980957,-0.0800781,0.104004,1468766301204
361853267,0.964844,-0.126953,0.0786133,1468766301221
361875779,1.00342,-0.168945,0.0371094,1468766301243
361896787,1.03418,-0.1875,0.0405273,1468766301264
361913284,0.996582,-0.132324,0.0400391,1468766301281
361935910,0.996582,-0.140625,0.0585938,1468766301304
361957069,0.959961,-0.136719,0.0234375,1468766301325
361973352,0.957031,-0.180176,0.0107422,1468766301341
361995823,0.926758,-0.170898,-0.0131836,1468766301363
362016932,0.924805,-0.10498,-0.000976562,1468766301385
362033394,0.93457,-0.169434,-0.00537109,1468766301401
362055790,0.966797,-0.12793,-0.027832,1468766301424
362076873,0.974121,-0.0585938,-0.00830078,1468766301445
362093249,0.953125,0.0361328,0.0336914,1468766301461
362115748,0.948242,0.0317383,0.105957,1468766301483
362136825,0.929199,-0.0488281,0.164551,1468766301505
362153259,0.950195,-0.0605469,0.154785,1468766301521
362175787,0.958496,-0.191895,-0.00976562,1468766301543
362196833,1.03955,-0.175293,-0.200195,1468766301564
362213382,0.987793,-0.227051,-0.168945,1468766301581
362235858,0.952148,-0.330566,-0.0786133,1468766301604
362257643,0.962891,-0.283203,-0.0517578,1468766301626
362272749,0.953613,-0.239258,-0.0449219,1468766301641
362295183,0.980469,-0.202148,-0.0664062,1468766301663
362317782,1.00049,-0.237793,-0.043457,1468766301686
362332622,0.935547,-0.297852,-0.050293,1468766301700
362355056,0.896484,-0.342773,-0.015625,1468766301723
362377737,0.88623,-0.336426,-0.101562,1468766301746
362392627,0.898438,-0.202637,-0.172363,1468766301760
362415270,0.914551,-0.143555,-0.19873,1468766301783
362437757,0.90332,-0.161621,-0.173828,1468766301806
362452744,0.904297,-0.216309,-0.151367,1468766301821
362475122,0.917969,-0.206055,-0.145508,1468766301843
362497708,0.970215,-0.151855,-0.181641,1468766301866
362512805,1.03223,-0.0454102,-0.218262,1468766301881
362535058,1.01172,-0.131348,-0.229492,1468766301903
362557793,1.01074,-0.130371,-0.208008,1468766301926
362572721,1.04541,-0.125,-0.236328,1468766301941
362595195,1.03516,-0.148926,-0.263672,1468766301963
362617812,0.991699,-0.139648,-0.266602,1468766301986
362632571,0.964844,-0.117676,-0.291504,1468766302000
362655119,0.945312,-0.142578,-0.313965,1468766302023
362678989,0.945312,-0.120605,-0.35498,1468766302047
362701633,0.895996,-0.145508,-0.344238,1468766302069
362715216,0.876465,-0.175293,-0.300293,1468766302083
362737821,0.87793,-0.197266,-0.273926,1468766302106
362754042,0.912109,-0.244141,-0.25,1468766302122
362775225,0.922363,-0.258789,-0.238281,1468766302143
362797743,0.915527,-0.214355,-0.281738,1468766302166
362814070,0.88623,-0.208496,-0.321777,1468766302182
362835025,0.857422,-0.15918,-0.362305,1468766302203
362857712,0.899902,-0.150879,-0.356445,1468766302226
362874061,0.933594,-0.0356445,-0.349609,1468766302242
362895240,0.966797,-0.118652,-0.346191,1468766302263
362917704,0.948242,-0.0986328,-0.33252,1468766302286
362934037,0.912109,-0.122559,-0.330566,1468766302302
362955178,0.906738,-0.156738,-0.311523,1468766302323
362977747,0.933594,-0.0708008,-0.345215,1468766302346
362994039,0.943359,-0.128906,-0.338379,1468766302362
363015215,0.937012,-0.192383,-0.263672,1468766302383
363037818,0.91748,-0.217285,-0.27002,1468766302406
363054138,0.916992,-0.19873,-0.285156,1468766302422
363075276,0.933594,-0.17627,-0.286133,1468766302443
363097607,0.927246,-0.124023,-0.330078,1468766302465
363113940,0.989746,-0.106445,-0.23291,1468766302482
363135066,0.876953,-0.148438,-0.292969,1468766302503
363157531,0.879395,-0.1875,-0.34668,1468766302525
363173955,0.912598,-0.12207,-0.295898,1468766302542
363194982,0.981934,-0.128418,-0.284668,1468766302563
363217525,0.966309,-0.116699,-0.254395,1468766302585
363233931,0.90332,-0.135254,-0.292969,1468766302602
363255023,0.872559,-0.114258,-0.341309,1468766302623
363277734,0.88623,-0.106934,-0.266113,1468766302646
363294016,0.922852,-0.125488,-0.305176,1468766302662
363315210,0.916992,-0.124512,-0.254883,1468766302683
363345050,0.901855,-0.202637,-0.215332,1468766302713
363354012,0.946289,-0.26123,-0.215332,1468766302722
363375197,0.962891,-0.269531,-0.21582,1468766302743
363397738,0.970703,-0.212402,-0.261719,1468766302766
363413419,0.975586,-0.161621,-0.317871,1468766302781
363435249,1.00439,-0.144531,-0.297852,1468766302803
363457753,0.990723,-0.19873,-0.345215,1468766302826
363473366,0.907227,-0.162109,-0.413574,1468766302841
363495141,0.889648,-0.178223,-0.381348,1468766302863
363517716,0.997559,-0.108887,-0.322754,1468766302886
363533474,0.946777,-0.162109,-0.379395,1468766302901
363556604,0.914062,-0.159668,-0.386719,1468766302924
363577742,0.937988,-0.15918,-0.404297,1468766302946
363593321,0.952148,-0.147461,-0.358887,1468766302961
363616494,0.941406,-0.14502,-0.343262,1468766302984
363637741,1.03564,-0.119141,-0.297363,1468766303006
363653435,0.975098,-0.152344,-0.286133,1468766303021
363676581,0.919434,-0.160645,-0.287598,1468766303044
363697805,0.922363,-0.17041,-0.293945,1468766303066
363713313,0.902832,-0.149902,-0.360352,1468766303081
363736512,0.97168,-0.0732422,-0.306641,1468766303104
363757556,0.977051,-0.125488,-0.252441,1468766303125
363773321,0.95752,-0.135742,-0.263184,1468766303141
363796511,0.934082,-0.108398,-0.256348,1468766303164
363817583,0.978027,-0.0688477,-0.212891,1468766303185
363833285,1.01904,-0.113281,-0.20752,1468766303201
363856508,0.943848,-0.0922852,-0.160645,1468766303224
363877545,0.911133,-0.141602,-0.175781,1468766303245
363893345,0.930176,-0.117676,-0.155762,1468766303261
363924070,0.983398,-0.074707,-0.0678711,1468766303292
363937746,1.00635,-0.0942383,-0.0175781,1468766303306
363953339,0.980469,-0.0791016,-0.0292969,1468766303321
363976673,0.936035,-0.0791016,-0.0512695,1468766303344
363997827,0.981934,-0.0668945,0.00244141,1468766303366
364013471,0.931152,-0.0786133,-0.0288086,1468766303381
364036535,0.948242,-0.0244141,0.000976562,1468766303404
364057530,0.927734,-0.034668,0.00439453,1468766303425
364073385,0.942871,-0.00585938,-0.065918,1468766303441
364096521,0.980957,0.0439453,0.00488281,1468766303464
364117548,0.996094,0.0532227,0.143066,1468766303485
364133295,1.02246,-0.0297852,0.147949,1468766303501
364156512,1.01758,-0.0698242,0.00976562,1468766303524
364177564,0.973633,0.0180664,-0.0117188,1468766303545
364193450,0.941895,-0.015625,-0.0341797,1468766303561
364216567,0.961426,0.0258789,0.00341797,1468766303584
364237651,0.938477,-0.0483398,-0.0576172,1468766303606
364253384,0.900879,-0.0605469,-0.0385742,1468766303621
364276584,0.894043,-0.0703125,-0.0180664,1468766303644
364299039,0.946777,0.0859375,0.225586,1468766303667
364313366,1.02539,0.00292969,0.043457,1468766303681
364335925,1.09326,-0.0395508,-0.0263672,1468766303704
364357340,0.997559,0.0888672,-0.0361328,1468766303725
364373441,1.00928,0.00439453,-0.0449219,1468766303741
364395920,0.994629,-0.0175781,-0.0219727,1468766303764
364417731,1.01514,-0.00732422,-0.0390625,1468766303786
364433479,0.987793,-0.0366211,-0.0556641,1468766303801
364455884,1.04004,-0.0595703,-0.0512695,1468766303824
364477743,1.0542,-0.0483398,-0.0454102,1468766303846
364493368,1.04102,0.0327148,-0.0317383,1468766303861
364515880,1.11914,0.015625,-0.027832,1468766303884
364539068,1.16895,-0.00732422,-0.0893555,1468766303907
364561636,1.22705,-0.0078125,-0.0942383,1468766303929
364575946,1.35596,0.100098,0.0307617,1468766303944
364599056,1.13965,-0.139648,0.0454102,1468766303967
364613306,1.03369,-0.5,-0.0195312,1468766303981
364635841,1.10303,-0.252441,-0.0952148,1468766304003
364659067,1.0957,-0.175781,-0.116699,1468766304027
364673444,1.05225,-0.225586,-0.09375,1468766304041
364695909,0.963867,-0.215332,0.0419922,1468766304064
364719165,0.881348,-0.214844,0.117188,1468766304087
364733400,0.845703,-0.164551,0.270508,1468766304101
364756032,0.807617,-0.102539,0.240723,1468766304124
364779096,0.782715,-0.000976562,0.21582,1468766304147
364800321,0.753906,0.0478516,0.1875,1468766304168
364815964,0.745117,0.0488281,0.166504,1468766304184
364839076,0.785645,-0.0693359,0.156738,1468766304207
364860143,0.826172,-0.0703125,0.145508,1468766304228
364884157,0.898438,-0.0429688,0.151367,1468766304252
364899086,0.966309,-0.0449219,0.103516,1468766304267
364920119,1.01172,-0.0517578,0.0927734,1468766304288
364935832,1.07764,-0.101074,0.0664062,1468766304303
364959000,1.12451,-0.145508,0.0141602,1468766304327
364980108,1.1416,-0.131836,-0.034668,1468766304348
364995836,1.16211,-0.243652,-0.111328,1468766304363
365019031,1.16016,-0.26123,-0.231445,1468766304387
365040019,1.17041,-0.243164,-0.275391,1468766304408
365055807,1.12891,-0.375488,-0.374512,1468766304423
365078989,1.04346,-0.486816,-0.421387,1468766304447
365100015,0.968262,-0.585938,-0.435059,1468766304468
365115939,0.928711,-0.602051,-0.562988,1468766304484
365139111,0.904785,-0.768066,-0.576172,1468766304507
365167758,0.912109,-0.847656,-0.523438,1468766304536
365175939,1.2666,0.0859375,0.216309,1468766304544
365199126,1.05811,0.569336,0.931152,1468766304567
365220265,1.00586,0.352051,0.676758,1468766304588
365235997,1.35693,0.248535,-0.195312,1468766304604
365259079,1.29492,0.0600586,-0.261719,1468766304627
365287656,0.951172,0.358398,0.0332031,1468766304656
365295980,0.929688,-0.0517578,0.354492,1468766304664
365318455,0.933105,-0.375,0.458496,1468766304686
365340263,0.974609,-0.147461,0.303223,1468766304708
365355893,1.08887,0.0170898,0.130371,1468766304724
365378333,1.10791,-0.0463867,0.074707,1468766304746
365400034,1.02051,-0.0898438,0.0302734,1468766304768
365424014,1.03369,-0.043457,0.0825195,1468766304792
365438349,1.0083,-0.209473,0.197754,1468766304806
365460078,0.996094,-0.28125,0.160645,1468766304828
365484123,0.977539,-0.218262,0.152344,1468766304852
365498343,1.01367,-0.234863,0.0986328,1468766304866
365521635,1.0083,-0.196289,0.065918,1468766304889
365535994,0.946289,-0.242188,0.0595703,1468766304904
365558430,0.929688,-0.265137,0.0703125,1468766304926
365581644,0.926758,-0.23584,0.0708008,1468766304949
365595965,0.901855,-0.335938,0.0830078,1468766304964
365618407,0.893066,-0.291016,0.0336914,1468766304986
365641519,0.92627,-0.306641,-0.00146484,1468766305009
365655838,0.905273,-0.307129,-0.03125,1468766305023
365678316,0.918945,-0.283203,-0.0444336,1468766305046
365701512,0.936523,-0.28418,-0.0366211,1468766305069
365715868,0.926758,-0.285156,-0.0512695,1468766305083
365738341,0.92334,-0.299805,-0.0463867,1468766305106
365761592,0.891602,-0.365234,-0.0400391,1468766305129
365782640,0.876465,-0.330566,-0.0634766,1468766305151
365798414,0.895996,-0.238281,-0.0981445,1468766305166
365811937,0.974121,-0.256348,-0.0888672,1468766305180
365834632,1.01367,-0.216309,-0.108887,1468766305203
365857654,1.01123,-0.19043,-0.127441,1468766305226
365871905,0.978027,-0.226562,-0.125,1468766305240
365894451,0.90332,-0.286621,-0.0727539,1468766305262
365917599,0.941406,-0.312012,-0.0322266,1468766305285
365931892,1.01367,-0.300293,-0.0419922,1468766305300
365954479,1.01318,-0.306152,-0.043457,1468766305322
365977620,1.01953,-0.285156,-0.0336914,1468766305345
365992146,1.08594,-0.224609,-0.0522461,1468766305360
366014683,1.18164,-0.165527,-0.0166016,1468766305383
366037851,1.23584,-0.126953,0.0712891,1468766305406
366052162,1.28662,-0.0400391,0.106445,1468766305420
366074653,1.30127,0.0976562,0.169434,1468766305443
366097770,1.33398,-0.129883,0.154785,1468766305466
366112178,1.25537,-0.543945,-0.0307617,1468766305480
366134551,1.34326,-0.633789,-0.106934,1468766305502
366165773,1.44873,-0.496094,-0.159668,1468766305533
366171870,1.26709,-0.283691,-0.15625,1468766305540
366194398,1.1001,-0.209961,-0.176758,1468766305562
366218264,0.931152,-0.348145,-0.155762,1468766305586
366231879,0.86377,-0.0371094,-0.0209961,1468766305600
366254394,0.79541,-0.17334,0.249512,1468766305622
366277518,0.420898,-0.0766602,0.25,1468766305645
366291984,0.469727,-0.10791,0.140137,1468766305660
366314524,0.530762,-0.162109,0.0834961,1468766305682
366337773,0.614746,-0.152344,0.081543,1468766305706
366352089,0.68457,-0.0791016,-0.0175781,1468766305720
366374680,0.700684,-0.0605469,-0.0322266,1468766305743
366397764,0.708496,-0.027832,-0.0571289,1468766305766
366412132,0.835449,-0.0400391,-0.0615234,1468766305780
366434676,0.965332,-0.154297,-0.11084,1468766305803
366457628,1.07031,-0.208984,-0.0966797,1468766305825
366471946,1.17236,-0.289062,-0.216797,1468766305840
366494385,1.2417,-0.300293,-0.223145,1468766305862
366517860,1.2998,-0.32373,-0.230469,1468766305886
366532111,1.33545,-0.285645,-0.263184,1468766305900
366554604,1.35352,-0.313965,-0.262695,1468766305923
366577742,1.40088,-0.432129,-0.304199,1468766305946
366592121,1.41699,-0.543457,-0.330566,1468766305960
366614492,1.29248,-0.623535,-0.492676,1468766305982
366637783,1.18945,-0.560547,-0.521484,1468766306006
366652063,1.08447,-0.412109,-0.556152,1468766306020
366674687,0.913086,-0.530762,-0.615723,1468766306043
366697760,0.856445,-0.728027,-0.390137,1468766306066
366712133,0.916992,-0.576172,-0.236328,1468766306080
366734623,0.996582,-0.413574,0.0913086,1468766306102
366757789,1.23047,0.0576172,0.900879,1468766306126
366772092,1.10205,0.620605,0.58252,1468766306140
366794659,1.19092,-0.289551,0.0200195,1468766306163
366817804,1.38867,0.335449,0.0185547,1468766306186
366832153,1.08398,0.474121,-0.034668,1468766306200
366854660,1.15918,0.285645,0.104004,1468766306223
366877756,1.09326,0.166992,0.293457,1468766306246
366892149,0.848633,-0.00195312,0.376465,1468766306260
366914655,0.865234,-0.126953,0.444824,1468766306283
366937789,0.844238,-0.380371,0.405273,1468766306306
366952224,0.895996,-0.219727,0.297852,1468766306320
366974510,0.990723,-0.0297852,0.179688,1468766306342
366997861,0.980957,-0.043457,0.306152,1468766306366
367012208,0.96582,-0.128906,0.288086,1468766306380
367034664,0.970703,-0.104004,0.246094,1468766306403
367057810,0.975098,-0.0825195,0.19873,1468766306426
367072125,0.899902,-0.0556641,0.327148,1468766306440
367094614,0.949219,-0.081543,0.312012,1468766306463
367117810,0.998535,-0.0712891,0.156738,1468766306486
367132162,0.927246,-0.0898438,0.169434,1468766306500
367154641,0.939941,-0.10791,0.189453,1468766306523
367177756,0.887207,-0.12207,0.231934,1468766306546
367192153,0.899414,-0.124023,0.230469,1468766306560
367214676,0.927246,-0.117676,0.212402,1468766306583
367237765,0.943359,-0.121094,0.234375,1468766306606
367252165,0.95166,-0.120117,0.219238,1468766306620
367274467,0.967285,-0.155762,0.234375,1468766306642
367297831,0.960449,-0.138672,0.157715,1468766306666
367312174,0.939941,-0.147461,0.152344,1468766306680
367334677,0.942871,-0.134766,0.108398,1468766306703
367357822,0.93457,-0.140137,0.0756836,1468766306726
367372142,0.939941,-0.113281,0.153809,1468766306740
367394611,0.984863,-0.122559,0.190918,1468766306762
367417163,1.0376,-0.176758,0.0498047,1468766306785
367440287,1.02002,-0.112305,0.019043,1468766306808
367454495,1.02148,-0.126465,0.0214844,1468766306822
367477138,0.991211,-0.130859,0.0253906,1468766306845
367492170,0.957031,-0.147461,0.0498047,1468766306860
367514640,0.960449,-0.168457,0.0473633,1468766306883
367537105,1.00293,-0.162109,0.0268555,1468766306905
367552160,1.01855,-0.148926,0.000488281,1468766306920
367574646,1.07959,-0.150879,-0.0395508,1468766306943
367597172,1.05273,-0.140625,-0.000488281,1468766306965
367612193,1.03955,-0.120605,0.11084,1468766306980
367634533,1.271,-0.195801,0.00585938,1468766307002
367658541,1.4541,-0.00439453,-0.0556641,1468766307026
367672112,1.42969,0.0834961,0.0249023,1468766307040
367694631,1.27393,0.0361328,0.161133,1468766307063
367717204,1.24951,0.0200195,0.154785,1468766307085
367732007,1.26074,-0.126465,0.251953,1468766307100
367754726,1.06592,-0.413086,-0.239746,1468766307123
367777095,1.06445,-0.394531,-0.352539,1468766307145
367792144,1.06396,-0.445801,-0.35791,1468766307160
367814553,0.942871,-0.282227,-0.29248,1468766307182
367837174,0.787598,-0.365723,-0.258301,1468766307205
367852168,0.790039,-0.218262,0.0458984,1468766307220
367874679,0.687988,-0.0512695,0.214844,1468766307243
367897195,0.494141,0.0463867,0.277344,1468766307265
367912176,0.485352,-0.0375977,0.134766,1468766307280
367934531,0.544922,-0.119629,0.0317383,1468766307302
367957163,0.604492,-0.162109,0.0820312,1468766307325
367972130,0.654297,-0.106934,0.00585938,1468766307340
367994640,0.720215,-0.101074,-0.0708008,1468766307363
368016994,0.838867,-0.178223,-0.111328,1468766307385
368032054,0.990723,-0.250977,-0.0888672,1468766307400
368054660,1.12988,-0.42041,-0.125977,1468766307423
368078487,1.19727,-0.438477,-0.143555,1468766307446
368092020,1.17383,-0.327637,-0.135254,1468766307460
368114634,1.18994,-0.263184,-0.0976562,1468766307483
368145185,1.21191,-0.228027,-0.0498047,1468766307513
368161617,1.2373,-0.223145,0.00927734,1468766307529
368175945,1.28809,-0.097168,0.0341797,1468766307544
368197090,1.34473,-0.154785,0.0141602,1468766307565
368213502,1.37158,-0.137695,-0.0639648,1468766307581
368242867,1.28125,-0.277832,-0.154297,1468766307611
368256991,1.17871,-0.444336,-0.200195,1468766307625
368296535,1.0498,-0.427734,-0.257324,1468766307664
368298985,0.948242,-0.379395,-0.524414,1468766307667
368318436,0.86084,-0.570312,-0.586426,1468766307686
368340897,0.827148,-0.501953,-0.358887,1468766307709
368366274,0.883301,-0.493652,-0.249023,1468766307734
368377041,0.870605,-0.600586,-0.10791,1468766307745
368394914,1.02881,-0.0366211,0.286621,1468766307763
368414725,0.906738,0.316406,0.380859,1468766307783
368437172,1.09912,-0.0571289,0.127441,1468766307805
368453449,1.33398,0.336914,-0.0449219,1468766307821
368474568,1.31689,0.433594,0.00341797,1468766307843
368497168,1.19873,0.360352,0.10791,1468766307865
368513508,1.13965,-0.0644531,0.379883,1468766307881
368534712,0.930664,-0.210938,0.366211,1468766307902
368557200,0.856445,-0.113281,0.313965,1468766307925
368573408,0.870117,-0.168945,0.34375,1468766307941
368594745,0.917969,-0.214355,0.302734,1468766307963
368617037,0.956543,-0.0913086,0.209961,1468766307985
368633423,0.989746,-0.046875,0.231445,1468766308001
368654608,0.966309,-0.117188,0.261719,1468766308022
368677227,0.94873,-0.115234,0.31543,1468766308045
368693516,0.984375,-0.157715,0.280273,1468766308061
368714726,1.01123,-0.0551758,0.19873,1468766308083
368737000,0.974121,-0.0825195,0.180176,1468766308105
368754919,0.958496,-0.126465,0.189941,1468766308123
368775948,0.92334,-0.105469,0.172852,1468766308144
368797033,0.920898,-0.11377,0.178223,1468766308165
368813447,0.929688,-0.134766,0.180664,1468766308181
368834521,0.92627,-0.134766,0.193848,1468766308202
368856978,0.942383,-0.116211,0.151855,1468766308225
368874881,0.961426,-0.0961914,0.152344,1468766308242
368894466,0.967285,-0.13916,0.178223,1468766308262
368917168,0.962402,-0.15332,0.189453,1468766308285
368933508,0.95752,-0.125,0.152344,1468766308301
368954701,0.992676,-0.140625,0.115234,1468766308323
368977184,0.983887,-0.0820312,0.0878906,1468766308345
368993529,0.967285,-0.106934,0.0825195,1468766308361
369014782,0.965332,-0.136719,0.0888672,1468766308383
369037217,0.968262,-0.108398,0.0473633,1468766308405
369053485,1.00098,-0.134277,0.0698242,1468766308421
369076028,0.998047,-0.0820312,0.0805664,1468766308444
369097218,1.01416,-0.125977,0.0400391,1468766308465
369113452,0.981445,-0.129395,0.00488281,1468766308481
369135885,0.970215,-0.117676,-0.00244141,1468766308504
369156944,1.00098,-0.127441,0.00927734,1468766308525
369173413,0.996094,-0.157227,0.0356445,1468766308541
369197402,0.992676,-0.191406,0.0532227,1468766308565
369216986,1.01318,-0.180176,0.0209961,1468766308585
369233413,1.08984,-0.141602,-0.0107422,1468766308601
369256039,1.07861,-0.0942383,-0.0541992,1468766308624
369277056,1.12402,-0.0585938,-0.0605469,1468766308645
369293459,1.17432,0.0141602,-0.0751953,1468766308661
369315968,1.25977,0.0703125,-0.0351562,1468766308684
369337041,1.32812,0.101074,0.0478516,1468766308705
369353464,1.23682,-0.00439453,0.174805,1468766308721
369382290,1.2207,-0.0800781,0.172363,1468766308750
369397167,1.24756,-0.162598,0.109375,1468766308765
369412710,1.24951,-0.30127,0.236816,1468766308781
369435325,1.10596,-0.52832,-0.225586,1468766308803
369457690,1.021,-0.431641,-0.411621,1468766308825
369472649,0.941406,-0.234375,-0.458008,1468766308840
369495097,0.853516,-0.166016,-0.388672,1468766308863
369517675,0.829102,-0.260742,-0.1875,1468766308885
369532594,0.776855,-0.174805,0.17627,1468766308900
369555146,0.533691,-0.263672,0.194336,1468766308923
369579077,0.587891,-0.192871,0.120117,1468766308947
369592859,0.603027,-0.169922,0.158203,1468766308961
369615379,0.631348,-0.130859,0.131348,1468766308983
369637841,0.684082,-0.153809,-0.000488281,1468766309006
369652874,0.745117,-0.196777,-0.0327148,1468766309021
369675371,0.804199,-0.215332,0.0180664,1468766309043
369697816,0.873047,-0.302246,0.0585938,1468766309066
369712832,0.955078,-0.411621,0.119629,1468766309081
369735342,1.05713,-0.502441,0.0996094,1468766309103
369757820,1.14111,-0.554199,0.097168,1468766309126
369772776,1.21826,-0.678711,0.00683594,1468766309141
369796617,1.22461,-0.640625,-0.0102539,1468766309164
369817672,1.22559,-0.628418,0.00732422,1468766309185
369832670,1.25439,-0.654785,0.00683594,1468766309200
369855418,1.27832,-0.630371,-0.0610352,1468766309223
369877835,1.19434,-0.378418,-0.172852,1468766309246
369892856,1.17285,-0.452148,-0.203125,1468766309261
369915402,1.1875,-0.595703,-0.262207,1468766309283
369937837,1.05176,-0.536621,-0.512695,1468766309306
369952885,1.03076,-0.530273,-0.501465,1468766309321
369975200,0.92041,-0.59082,-0.702148,1468766309343
369997840,0.959473,-0.607422,-0.901855,1468766309366
370012857,0.956543,-0.882324,-1.31689,1468766309381
370035369,1.54736,-0.00634766,-0.09375,1468766309403
370057752,1.02832,0.410156,0.890625,1468766309426
370072840,0.896973,0.175781,0.592773,1468766309441
370095171,1.24902,0.0708008,0.214355,1468766309463
370117624,1.09766,-0.0327148,0.178711,1468766309485
370132620,0.890137,0.059082,0.291016,1468766309500
370154918,0.931152,-0.177246,0.245605,1468766309523
370185819,0.896973,-0.105469,0.153809,1468766309553
370192620,0.945312,-0.0356445,0.138184,1468766309560
370215166,0.962891,-0.0102539,0.211426,1468766309583
370231098,0.96875,0.00537109,0.130859,1468766309599
370254173,1.03955,0.0263672,0.0283203,1468766309622
370275342,1.02441,-0.0610352,0.046875,1468766309643
370291023,1.00391,-0.268555,0.155762,1468766309659
370314119,0.975586,-0.182617,0.235352,1468766309682
370335440,1.01611,-0.203613,0.22168,1468766309703
370351078,1.02197,-0.203125,0.205566,1468766309719
370374242,1.02246,-0.118652,0.168945,1468766309742
370395367,1.03955,-0.0981445,0.195312,1468766309763
370411044,0.987793,-0.149902,0.203125,1468766309779
370433910,0.972168,-0.160645,0.195801,1468766309802
370455192,0.963379,-0.154297,0.134766,1468766309823
370479145,0.941895,-0.193848,0.106934,1468766309847
370494107,0.876465,-0.265625,0.0957031,1468766309862
370515364,0.835938,-0.28418,0.106445,1468766309883
370530948,0.848633,-0.310547,0.127441,1468766309899
370560407,0.870117,-0.25,0.0566406,1468766309928
370575408,0.918945,-0.202637,-0.00244141,1468766309943
370591063,0.919922,-0.180176,-0.0522461,1468766309959
370614172,0.921387,-0.137207,-0.0791016,1468766309982
370635233,0.972656,-0.203125,0.00439453,1468766310003
370651120,0.99707,-0.234375,0.0131836,1468766310019
370674229,1.01367,-0.200195,-0.0205078,1468766310042
370695366,1.01025,-0.216309,-0.034668,1468766310063
370710972,0.990723,-0.212891,-0.0419922,1468766310079
370734150,0.999023,-0.1875,-0.0288086,1468766310102
370755399,1.00635,-0.212402,-0.00683594,1468766310123
370771073,1.021,-0.213379,-0.0219727,1468766310139
370794129,1.00146,-0.208984,-0.0375977,1468766310162
370815146,1.05176,-0.251465,0.00976562,1468766310183
370830957,1.104,-0.246582,0.0170898,1468766310199
370854107,1.13672,-0.21875,0.0268555,1468766310222
370875373,1.14551,-0.149414,0.00341797,1468766310243
370891030,1.1543,-0.0869141,0.0429688,1468766310259
370914208,1.19873,-0.0429688,-0.0390625,1468766310282
370935396,1.31689,0.0253906,-0.0546875,1468766310303
370951043,1.40186,0.034668,0.0888672,1468766310319
370973648,1.23828,0.0664062,0.15332,1468766310341
370995276,1.33643,-0.050293,-0.0253906,1468766310363
371011020,1.25977,-0.216797,0.00878906,1468766310379
371033623,1.11768,-0.562988,-0.208008,1468766310401
371055420,1.06592,-0.515137,-0.338379,1468766310423
371070956,0.981445,-0.444336,-0.30957,1468766310439
371093567,0.837891,-0.387695,-0.342285,1468766310461
371115179,0.762207,-0.345703,-0.149414,1468766310483
371137669,0.683105,-0.418457,-0.143555,1468766310505
371153549,0.629883,-0.0371094,0.18457,1468766310521
371176735,0.49707,-0.0634766,0.0395508,1468766310544
371191028,0.572266,-0.0795898,0.0229492,1468766310559
371213509,0.594727,-0.134766,0.0185547,1468766310581
371236777,0.642578,-0.0786133,-0.00634766,1468766310605
371251049,0.672363,-0.0922852,-0.0844727,1468766310619
371273589,0.712402,-0.165039,-0.0512695,1468766310641
371296600,0.760742,-0.13623,0.0458984,1468766310664
371311076,0.835938,-0.244141,0.0581055,1468766310679
371333665,0.951172,-0.34375,0.101074,1468766310701
371356719,1.06982,-0.408691,0.0942383,1468766310724
371371081,1.18652,-0.386719,0.0708008,1468766310739
371393605,1.31982,-0.402344,-0.0366211,1468766310761
371416681,1.41797,-0.304688,-0.0673828,1468766310784
371437763,1.521,-0.255859,-0.118652,1468766310806
371453514,1.57227,-0.357422,-0.0859375,1468766310821
371476633,1.56494,-0.706543,-0.127441,1468766310844
371497691,1.4043,-0.868652,-0.422363,1468766310865
371513509,1.31348,-0.567383,-0.800781,1468766310881
371536610,1.06396,-0.367188,-1.19336,1468766310904
371557652,0.799316,-0.860352,-0.939453,1468766310925
371573507,0.85791,-0.946289,-0.496094,1468766310941
371596634,0.987305,-0.570312,-0.0795898,1468766310964
371617716,1.06494,-0.400391,0.65332,1468766310985
371633546,0.953125,0.780762,0.883789,1468766311001
371656649,1.1875,-0.211914,-0.012207,1468766311024
371677714,1.28711,-0.0200195,0.110352,1468766311045
371693570,1.24316,0.634277,0.0131836,1468766311061
371716667,1.146,0.257324,0.0864258,1468766311084
371737723,1.08545,0.172852,0.254395,1468766311105
371753533,0.907227,-0.0517578,0.51416,1468766311121
371784112,0.839355,-0.0610352,0.51123,1468766311152
371797668,0.853516,-0.23291,0.407227,1468766311165
371813512,0.850098,-0.25293,0.338379,1468766311181
371836608,0.938477,-0.17627,0.202637,1468766311204
371857743,0.982422,-0.137695,0.259277,1468766311226
371873512,0.953613,-0.15332,0.269531,1468766311241
371896657,0.936523,-0.143555,0.223145,1468766311264
371925210,0.966309,-0.065918,0.163086,1468766311293
371933526,0.978027,-0.0405273,0.206543,1468766311301
371956023,1.00293,-0.0561523,0.357422,1468766311324
371977700,1.01953,-0.135742,0.242188,1468766311345
371993543,0.98877,-0.0668945,0.129883,1468766311361
372016006,0.94043,-0.130859,0.148438,1468766311384
372037714,0.942383,-0.157227,0.134766,1468766311405
372053511,0.925781,-0.122559,0.135254,1468766311421
372075997,0.888672,-0.183105,0.167969,1468766311444
372099146,0.916992,-0.175781,0.143555,1468766311467
372113517,0.978516,-0.145996,0.118652,1468766311481
372135962,0.936523,-0.135254,0.050293,1468766311504
372159136,0.854004,-0.14502,0.0976562,1468766311527
372173552,0.912109,-0.0839844,0.376953,1468766311541
372196012,1.1582,-0.146484,0.0820312,1468766311564
372219165,1.05615,-0.0629883,-0.015625,1468766311587
372233516,0.995605,-0.161621,0.0307617,1468766311601
372256058,0.959473,-0.161133,0.0483398,1468766311624
372279151,0.947266,-0.162109,0.0874023,1468766311647
372293566,0.952637,-0.141113,0.109375,1468766311661
372316025,0.949707,-0.166504,0.106934,1468766311684
372339199,0.986328,-0.156738,0.0961914,1468766311707
372361640,1.02832,-0.149414,0.0268555,1468766311729
372375960,1.01904,-0.219238,0.0458984,1468766311744
372399114,1.0249,-0.193848,0.0126953,1468766311767
372420278,1.09473,-0.194824,-0.000976562,1468766311788
372435985,1.13477,-0.165039,-0.0268555,1468766311804
372459144,1.20947,-0.0727539,-0.043457,1468766311827
372480225,1.19727,-0.0717773,-0.0600586,1468766311848
372495968,1.24854,-0.0976562,0.00146484,1468766311864
372519107,1.30176,0.0161133,0.034668,1468766311887
372540227,1.28711,-0.0175781,0.11377,1468766311908
372556039,1.23242,-0.154297,0.23877,1468766311924
372579181,1.25977,-0.205566,0.205566,1468766311947
372600189,1.27881,-0.239258,0.131836,1468766311968
372616005,1.09033,-0.509277,-0.294922,1468766311984
372639143,1.08643,-0.601562,-0.388672,1468766312007
372660243,1.10693,-0.301758,-0.245117,1468766312028
372676009,0.884766,-0.171875,-0.046875,1468766312044
372699170,0.806152,-0.0302734,0.175293,1468766312067
372720229,0.59668,0.0419922,0.24707,1468766312088
372735998,0.4375,-0.0209961,0.256836,1468766312104
372759278,0.506348,-0.197754,0.112793,1468766312127
372780454,0.535645,-0.0605469,0.101074,1468766312148
372796061,0.69043,0.0229492,-0.0209961,1468766312164
372819166,0.737305,0.0131836,-0.0869141,1468766312187
372841642,0.820801,-0.000976562,-0.131836,1468766312209
372855969,0.908203,-0.0581055,-0.133789,1468766312224
372878510,1.0415,-0.180664,-0.187012,1468766312246
372900223,1.17285,-0.268555,-0.254395,1468766312268
372916068,1.20947,-0.336426,-0.279297,1468766312284
372938633,1.1709,-0.279297,-0.20752,1468766312306
372967904,1.1792,-0.23584,-0.125,1468766312336
372976099,1.20361,-0.174805,-0.0668945,1468766312344
372989873,1.2876,-0.144043,-0.0898438,1468766312358
373012177,1.3584,-0.227539,-0.18457,1468766312380
373035438,1.30615,-0.214844,-0.116699,1468766312403
373057752,1.2583,-0.193359,-0.186523,1468766312425
373072067,1.1626,-0.331543,-0.226562,1468766312440
373095258,1.06934,-0.328125,-0.226562,1468766312463
373109599,1.02393,-0.280273,-0.415039,1468766312477
373132012,0.929199,-0.429688,-0.502441,1468766312500
373163486,0.86084,-0.36084,-0.541016,1468766312531
373169789,0.864746,-0.338379,-0.424316,1468766312538
373192109,0.859375,-0.30957,-0.377441,1468766312560
373215457,0.91748,-0.107422,-0.0390625,1468766312583
373229773,1.0415,0.15918,1.06982,1468766312598
373252246,0.949707,0.422363,1.24609,1468766312620
373275475,1.03174,-0.294434,0.186035,1468766312643
373289733,1.24609,-0.49707,0.119141,1468766312658
373312260,1.15332,0.321777,0.217773,1468766312680
373335759,1.05811,0.324707,0.134766,1468766312704
373349749,1.10986,0.153809,0.19043,1468766312718
373372238,0.969238,-0.0283203,0.282227,1468766312740
373395489,0.87793,0.0410156,0.541016,1468766312764
373409780,0.826172,-0.0410156,0.325684,1468766312778
373432188,0.935547,-0.125,0.287109,1468766312800
373455356,0.925781,-0.131836,0.228027,1468766312823
373469830,0.951172,-0.137207,0.234863,1468766312838
373492153,0.96875,-0.097168,0.258789,1468766312860
373515438,0.933594,-0.124512,0.321777,1468766312883
373529786,0.950684,-0.189941,0.306152,1468766312898
373552041,0.966797,-0.149902,0.259277,1468766312920
373575260,0.986328,-0.109863,0.223633,1468766312943
373589748,0.981445,-0.119141,0.239258,1468766312958
373612316,0.951172,-0.132324,0.288086,1468766312980
373635881,0.959961,-0.143555,0.213867,1468766313004
373649770,0.938477,-0.149902,0.205078,1468766313018
373672257,0.90918,-0.170898,0.182617,1468766313040
373695356,0.93457,-0.131348,0.152832,1468766313063
373709786,0.943848,-0.143066,0.177246,1468766313078
373732266,0.957031,-0.139648,0.197266,1468766313100
373755346,0.964355,-0.133789,0.175781,1468766313123
373769747,0.950195,-0.15918,0.16748,1468766313138
373792301,0.946289,-0.168945,0.172363,1468766313160
373815448,0.942871,-0.179199,0.153809,1468766313183
373829760,0.947754,-0.186523,0.140625,1468766313198
373852318,0.93457,-0.158691,0.146484,1468766313220
373875319,0.940918,-0.183105,0.152832,1468766313243
373891008,0.944336,-0.174316,0.119629,1468766313259
373913514,0.970703,-0.162598,0.081543,1468766313281
373936665,0.943359,-0.193848,0.0942383,1468766313304
373949544,0.92041,-0.194824,0.112793,1468766313317
373972068,0.950195,-0.203125,0.209473,1468766313340
373994630,1.02246,-0.249512,0.120117,1468766313362
374009840,0.979492,-0.122559,-0.0131836,1468766313378
374032123,0.995605,-0.151367,-0.0239258,1468766313400
374054799,1.00049,-0.210449,0.019043,1468766313423
374069833,0.975586,-0.161621,0.00390625,1468766313438
374092203,0.966309,-0.197266,0.0395508,1468766313460
374114627,1.00684,-0.243164,0.0629883,1468766313482
374129623,1.05029,-0.208496,0.0292969,1468766313497
374152096,1.07031,-0.168457,-0.0263672,1468766313520
374174782,1.07617,-0.164551,-0.0419922,1468766313543
374189642,1.11963,-0.119629,-0.0664062,1468766313558
374212282,1.12109,-0.050293,-0.103027,1468766313580
374234847,1.15674,-0.0527344,-0.081543,1468766313603
374249786,1.15967,-0.0644531,-0.0175781,1468766313618
374272343,1.19238,-0.0498047,0.065918,1468766313640
374294781,1.28418,0.00146484,0.146973,1468766313663
374309814,1.3335,-0.186523,0.164551,1468766313678
374332190,1.19287,-0.473145,-0.0839844,1468766313700
374354702,1.18457,-0.487793,-0.225586,1468766313723
374369812,1.1499,-0.40332,-0.266602,1468766313738
374392321,1.05273,-0.249512,-0.214355,1468766313760
374414770,0.809082,-0.136719,-0.139648,1468766313783
374429777,0.72998,-0.188965,0.00585938,1468766313798
374452204,0.607422,-0.074707,0.258301,1468766313820
374474726,0.513184,-0.0952148,0.275879,1468766313843
374489700,0.592285,-0.0878906,0.234863,1468766313858
374512145,0.657227,-0.0546875,0.141113,1468766313880
374534575,0.70459,-0.0610352,0.0649414,1468766313902
374549575,0.786133,-0.0786133,0.00732422,1468766313917
374572077,0.882324,-0.148438,0.0244141,1468766313940
374596031,0.926758,-0.22168,0.0161133,1468766313964
374609580,0.969727,-0.289551,0.00585938,1468766313977
374632096,1.03516,-0.323242,0.00146484,1468766314000
374654590,1.12061,-0.381836,0.0107422,1468766314022
374669746,1.1792,-0.410645,0.0249023,1468766314038
374692290,1.24316,-0.465332,0.0415039,1468766314060
374714794,1.29443,-0.543457,-0.140137,1468766314083
374729684,1.31738,-0.428711,-0.150879,1468766314098
374752370,1.2417,-0.303711,-0.034668,1468766314120
374774759,1.19238,-0.354492,-0.0566406,1468766314143
374791173,1.1792,-0.33252,-0.0854492,1468766314159
374812361,1.16016,-0.311035,-0.0439453,1468766314180
374834622,1.08691,-0.463867,-0.310059,1468766314202
374851211,1.01709,-0.447266,-0.306641,1468766314219
374872320,0.956543,-0.410645,-0.260742,1468766314240
374894697,0.881348,-0.436035,-0.27832,1468766314263
374911197,0.885742,-0.375,-0.35498,1468766314279
374932292,0.885254,-0.331543,-0.350098,1468766314300
374954857,0.880371,-0.251953,-0.306152,1468766314323
374971148,0.956543,-0.20166,0.0615234,1468766314339
374992119,0.953125,0.0751953,0.477539,1468766314360
375014682,0.964844,0.764648,1.06396,1468766314382
375031146,1.02344,0.172363,0.247559,1468766314399
375052359,1.15381,-0.13623,-0.0283203,1468766314420
375074676,1.28418,0.444824,0.109375,1468766314442
375091150,1.146,0.181641,0.225586,1468766314459
375112159,1.04102,0.0991211,0.308105,1468766314480
375134782,0.916504,0.103027,0.489258,1468766314503
375151132,0.884277,-0.237793,0.307617,1468766314519
375172327,0.835449,-0.245117,0.406738,1468766314540
375194848,0.836426,-0.213867,0.300293,1468766314563
375211153,0.936035,-0.0913086,0.237305,1468766314579
375232351,0.961914,-0.117676,0.293945,1468766314600
375254891,0.926758,-0.127441,0.380859,1468766314623
375271099,0.958496,-0.0375977,0.234375,1468766314639
375292337,1.0083,0.00390625,0.189941,1468766314660
375314716,1.00684,-0.0825195,0.194824,1468766314683
375331084,0.990234,-0.111328,0.168457,1468766314699
375352260,1.02197,-0.0361328,0.192871,1468766314720
375374837,0.996582,-0.0830078,0.222656,1468766314743
375391131,0.97168,-0.106934,0.220703,1468766314759
375412322,0.959473,-0.103027,0.209961,1468766314780
375434789,0.932129,-0.116699,0.191895,1468766314803
375451155,0.926758,-0.101562,0.181641,1468766314819
375472284,0.942383,-0.11084,0.22168,1468766314840
375494747,0.936035,-0.168457,0.193848,1468766314863
375511184,0.938965,-0.145508,0.165039,1468766314879
375533656,0.955566,-0.160156,0.162598,1468766314901
375554790,0.958496,-0.171875,0.16748,1468766314923
375577385,0.942871,-0.182129,0.188965,1468766314945
375592284,0.958984,-0.172852,0.188477,1468766314960
375614809,0.946777,-0.17041,0.185547,1468766314983
375631119,0.939453,-0.159668,0.185059,1468766314999
375652308,0.951172,-0.168945,0.176758,1468766315020
375674757,0.976074,-0.144531,0.153809,1468766315043
375691184,0.943359,-0.155273,0.155273,1468766315059
375713651,0.948242,-0.175293,0.152832,1468766315081
375734834,0.967773,-0.16748,0.154297,1468766315103
375751174,0.967773,-0.121094,0.10791,1468766315119
375773651,0.980469,-0.157715,0.103516,1468766315141
375794854,0.96875,-0.128906,0.114746,1468766315163
375811137,0.980469,-0.157715,0.0952148,1468766315179
375833625,0.956543,-0.169434,0.0795898,1468766315201
375854684,0.958008,-0.152344,0.0537109,1468766315223
375871201,0.978516,-0.158691,0.0698242,1468766315239
375893581,0.987305,-0.159668,0.0561523,1468766315261
375914839,0.966797,-0.19043,0.0537109,1468766315283
375931138,0.98877,-0.187012,0.0400391,1468766315299
375953639,0.98877,-0.20166,0.0400391,1468766315321
375974788,1.0083,-0.189453,0.0488281,1468766315343
375991127,1.03271,-0.158691,0.0419922,1468766315359
376013655,1.06055,-0.13623,0.0146484,1468766315381
376034869,1.05811,-0.116699,-0.0380859,1468766315403
376051194,1.07324,-0.101562,-0.0507812,1468766315419
376073644,1.09424,-0.0766602,-0.0732422,1468766315441
376094781,1.03076,-0.0776367,-0.0849609,1468766315463
376111124,1.04932,-0.109375,-0.0673828,1468766315479
376133557,1.05469,-0.103516,-0.0532227,1468766315501
376154781,1.02344,-0.14209,-0.0361328,1468766315523
376171125,1.05029,-0.152832,-0.00585938,1468766315539
376193583,1.14648,-0.0883789,0.203613,1468766315561
376214918,1.03906,-0.296875,-0.257324,1468766315583
376231132,1.05371,-0.421387,-0.315918,1468766315599
376253658,0.927734,-0.307129,-0.384766,1468766315621
376274884,0.944336,-0.263184,-0.390625,1468766315643
376291193,0.908691,-0.149414,-0.341797,1468766315659
376313683,0.907227,-0.0756836,-0.195801,1468766315681
376334676,0.867188,-0.108887,-0.0673828,1468766315702
376351223,0.822754,-0.112793,0.0297852,1468766315719
376373690,0.766602,-0.0649414,0.117676,1468766315741
376394771,0.750488,-0.0673828,0.117676,1468766315763
376411139,0.81543,-0.106445,0.0732422,1468766315779
376433679,0.868164,-0.112793,0.0703125,1468766315801
376454782,0.890137,-0.0952148,0.050293,1468766315823
376471244,0.916504,-0.101074,0.0439453,1468766315839
376493653,0.929199,-0.125488,0.0375977,1468766315861
376514810,0.955566,-0.127441,0.0375977,1468766315883
376531149,0.996582,-0.179199,0.00927734,1468766315899
376553652,1.03418,-0.236816,0.0205078,1468766315921
376574816,1.07275,-0.308594,0.0175781,1468766315943
376590468,1.09424,-0.375,-0.0112305,1468766315958
376612975,1.13086,-0.412109,-0.0522461,1468766315981
376635369,1.15576,-0.440918,-0.0629883,1468766316003
376650494,1.09277,-0.36377,-0.0703125,1468766316018
376672972,1.07129,-0.288086,-0.0825195,1468766316041
376695509,1.06348,-0.294434,-0.0351562,1468766316063
376710439,1.0625,-0.233398,0.0214844,1468766316078
376732949,1.09277,-0.359375,-0.0791016,1468766316101
376755393,1.1084,-0.483887,-0.135254,1468766316123
376778002,1.04346,-0.448242,-0.0605469,1468766316146
376792868,0.990234,-0.443848,-0.0527344,1468766316161
376815478,0.946289,-0.442871,-0.0917969,1468766316183
376830380,0.98584,-0.36084,-0.0307617,1468766316198
376852939,0.938477,-0.392578,-0.186035,1468766316221
376875488,0.972656,-0.345215,-0.205566,1468766316243
376891840,0.945801,-0.338867,-0.27002,1468766316260
376912990,0.934082,-0.324219,-0.269043,1468766316281
376935477,0.896973,-0.256836,-0.323242,1468766316303
376951804,0.968262,0.210938,-0.175781,1468766316320
376972918,1.02979,0.465332,0.445801,1468766316341
376995521,0.937988,0.246582,0.532715,1468766316363
377011825,1.1001,-0.019043,0.194824,1468766316380
377033017,1.19531,-0.0820312,0.226074,1468766316401
377055331,1.04541,0.0708008,0.28125,1468766316423
377071785,1.00049,0.135742,0.250488,1468766316440
377092925,0.962402,-0.0209961,0.30127,1468766316461
377115528,0.914062,-0.074707,0.272461,1468766316484
377131858,0.903809,-0.0893555,0.215332,1468766316500
377153022,0.930664,-0.0761719,0.197754,1468766316521
377175446,0.942871,-0.0859375,0.200684,1468766316543
377191835,0.944824,-0.0605469,0.202637,1468766316560
377213031,0.971191,-0.0864258,0.207031,1468766316581
377235451,0.97998,-0.102539,0.219238,1468766316603
377251784,0.980957,-0.0537109,0.186523,1468766316619
377273022,0.975098,-0.11084,0.191895,1468766316641
377295468,0.96582,-0.0947266,0.203125,1468766316664
377311812,0.960938,-0.0610352,0.194336,1468766316679
377332987,0.950684,-0.128418,0.195801,1468766316701
377355548,0.932129,-0.127441,0.195801,1468766316723
377371929,0.90332,-0.150391,0.228516,1468766316740
377393011,0.947754,-0.150879,0.21582,1468766316761
377415465,0.975098,-0.144531,0.214844,1468766316783
377431901,0.963867,-0.125488,0.200684,1468766316800
377452990,0.988281,-0.122559,0.19873,1468766316821
377476899,0.990234,-0.125977,0.20459,1468766316845
377491681,0.981934,-0.134277,0.206543,1468766316859
377513106,0.974121,-0.14209,0.208008,1468766316881
377535501,0.969238,-0.159668,0.212402,1468766316903
377551888,0.95459,-0.149414,0.199707,1468766316920
377572878,0.943848,-0.150879,0.197266,1468766316941
377595299,0.924316,-0.162598,0.209473,1468766316963
377611055,0.92627,-0.164551,0.20166,1468766316979
377634255,0.922363,-0.131836,0.20166,1468766317002
377655535,0.973145,-0.158203,0.178711,1468766317024
377671236,0.943848,-0.153809,0.17334,1468766317039
377693008,0.945801,-0.151855,0.169922,1468766317061
377715564,0.945312,-0.161133,0.17334,1468766317084
377731260,0.919922,-0.185059,0.187012,1468766317099
377752966,0.90332,-0.168945,0.212891,1468766317121
377775515,0.945801,-0.157227,0.247559,1468766317143
377791203,0.976074,-0.165039,0.181641,1468766317159
377814241,1.00244,-0.108887,0.140137,1468766317182
377835604,0.997559,-0.115723,0.141113,1468766317204
377851247,0.97998,-0.141113,0.169434,1468766317219
377874277,0.953125,-0.130371,0.180176,1468766317242
377895345,0.942871,-0.146484,0.193848,1468766317263
377911084,0.933105,-0.15332,0.185059,1468766317279
377934238,0.935059,-0.132324,0.17334,1468766317302
377955542,0.938477,-0.103516,0.202637,1468766317324
377971154,0.988281,-0.121094,0.166016,1468766317339
377994326,0.975586,-0.102051,0.101562,1468766317362
378015516,0.961426,-0.135254,0.126465,1468766317383
378031249,0.960449,-0.130859,0.11377,1468766317399
378054342,0.959961,-0.135254,0.0996094,1468766317422
378075507,0.943359,-0.14209,0.100098,1468766317443
378091163,0.931152,-0.102051,0.0664062,1468766317459
378114451,0.939941,-0.149414,0.123047,1468766317482
378135582,0.975098,-0.143066,0.147461,1468766317504
378151234,1.00977,-0.135742,0.0615234,1468766317519
378181830,1.01318,-0.0952148,0.0366211,1468766317550
378195511,0.989746,-0.117676,0.015625,1468766317563
378211193,0.98584,-0.116699,0.00439453,1468766317579
378234368,0.987305,-0.115234,0.0195312,1468766317602
378255531,0.980469,-0.137695,0.0400391,1468766317623
378271184,0.95752,-0.134766,0.0444336,1468766317639
378294348,0.955078,-0.13623,0.0439453,1468766317662
378315456,0.960449,-0.134277,0.0507812,1468766317683
378331155,0.974121,-0.111328,0.0532227,1468766317699
378354841,0.966309,-0.103027,0.0522461,1468766317723
378375588,0.959961,-0.12793,0.0556641,1468766317744
378391234,0.961914,-0.130859,0.0683594,1468766317759
378414423,0.974609,-0.0996094,0.065918,1468766317782
378435523,1.00732,-0.11377,0.0117188,1468766317803
378451254,0.986328,-0.108887,0.00927734,1468766317819
378474331,0.979492,-0.111816,0.0146484,1468766317842
378495656,0.978027,-0.128418,0.0332031,1468766317864
378511270,0.974609,-0.104492,0.0244141,1468766317879
378533661,0.97168,-0.0981445,0.0170898,1468766317901
378555342,0.970215,-0.101074,0.0219727,1468766317923
378571131,0.969727,-0.108887,0.0385742,1468766317939
378593616,0.974609,-0.103027,0.0512695,1468766317961
378615310,0.989746,-0.112305,0.0410156,1468766317983
378631147,0.986816,-0.10791,0.0205078,1468766317999
378653621,0.979004,-0.0922852,-0.00195312,1468766318021
378675581,0.981445,-0.0859375,-0.00732422,1468766318044
378691265,0.977051,-0.0986328,0.0112305,1468766318059
378713715,0.975098,-0.12207,0.0361328,1468766318081
378736879,0.989746,-0.102051,0.012207,1468766318105
378751225,0.973633,-0.106445,0.0175781,1468766318119
378773780,0.969727,-0.104004,0.0131836,1468766318141
378796860,0.96582,-0.0786133,-0.0136719,1468766318165
378811249,0.972168,-0.0869141,-0.0107422,1468766318179
378833738,0.967285,-0.0996094,0.00195312,1468766318201
378856831,0.975586,-0.0932617,-0.00244141,1468766318225
378871179,0.976074,-0.0913086,-0.00390625,1468766318239
378893731,0.979004,-0.0883789,-0.0170898,1468766318261
378916858,0.97168,-0.0942383,-0.0078125,1468766318285
378931181,0.963867,-0.0986328,-0.00488281,1468766318299
378953741,0.966797,-0.097168,-0.00878906,1468766318321
378976857,0.981445,-0.0981445,-0.00292969,1468766318345
378991232,0.988281,-0.0913086,0,1468766318359
379013714,0.995117,-0.0839844,-0.015625,1468766318381
379036950,0.981445,-0.0927734,-0.0146484,1468766318405
379051224,0.98584,-0.0981445,-0.0200195,1468766318419
379073782,0.969727,-0.0996094,-0.0200195,1468766318441
379096923,0.975098,-0.10498,-0.0166016,1468766318465
379111228,0.96582,-0.118652,-0.000488281,1468766318479
379133717,0.967773,-0.104492,-0.00927734,1468766318501
379164401,0.972656,-0.0986328,-0.0166016,1468766318532
379171227,0.976074,-0.0898438,-0.0195312,1468766318539
379193763,0.970215,-0.0986328,-0.0205078,1468766318561
379216886,0.967285,-0.0932617,-0.027832,1468766318585
379231175,0.975098,-0.0922852,-0.0297852,1468766318599
379253684,0.979004,-0.0996094,-0.0185547,1468766318621
379276779,0.979004,-0.101074,-0.0185547,1468766318645
379298060,0.986328,-0.0878906,-0.0273438,1468766318666
379313775,0.983398,-0.0883789,-0.0385742,1468766318682
379336851,0.979004,-0.0859375,-0.0273438,1468766318705
379358112,0.97168,-0.090332,-0.0297852,1468766318726
379373645,0.974609,-0.0878906,-0.0292969,1468766318741
379396892,0.975586,-0.0917969,-0.0175781,1468766318765
379418006,0.982422,-0.0893555,-0.0229492,1468766318786
379441887,0.974609,-0.0893555,-0.0224609,1468766318810
379456911,0.973633,-0.0849609,-0.0195312,1468766318825
379477909,0.981445,-0.0913086,-0.0209961,1468766318846
379493773,0.977539,-0.0864258,-0.0229492,1468766318862
379516258,0.983887,-0.0883789,-0.0219727,1468766318884
379537878,0.980957,-0.0883789,-0.0253906,1468766318906
379553654,0.974121,-0.0878906,-0.0332031,1468766318921
379576175,0.97168,-0.0908203,-0.0273438,1468766318944
379597895,0.972656,-0.0922852,-0.0302734,1468766318966
379613654,0.976074,-0.0854492,-0.0253906,1468766318981
379636145,0.98291,-0.0834961,-0.019043,1468766319004
379657909,0.97998,-0.0898438,-0.0292969,1468766319026
379673640,0.973145,-0.0874023,-0.0273438,1468766319041
379696167,0.977051,-0.0859375,-0.0419922,1468766319064
379719307,0.969727,-0.0913086,-0.0244141,1468766319087
379733764,0.976074,-0.0898438,-0.0273438,1468766319101
379756166,0.97998,-0.0878906,-0.0283203,1468766319124
379779463,0.980957,-0.0844727,-0.0161133,1468766319147
379793763,0.991211,-0.0898438,-0.0332031,1468766319162
379816252,0.984863,-0.0761719,-0.0302734,1468766319184
379839429,0.981445,-0.0898438,-0.0273438,1468766319207
379853741,0.977539,-0.0869141,-0.0268555,1468766319221
379876244,0.971191,-0.078125,-0.0356445,1468766319244
379899394,0.98877,-0.0825195,-0.0302734,1468766319267
379913857,0.993652,-0.0756836,-0.0283203,1468766319282
379936350,0.988281,-0.065918,-0.0405273,1468766319304
379959398,0.984375,-0.0654297,-0.0439453,1468766319327
379973714,0.964355,-0.0786133,-0.0449219,1468766319341
379996240,0.948242,-0.0791016,-0.0317383,1468766319364
380019360,0.964355,-0.0854492,-0.00439453,1468766319387
380033818,0.991211,-0.0874023,-0.0317383,1468766319402
380056243,0.996582,-0.0683594,-0.050293,1468766319424
380079450,1,-0.0600586,-0.0498047,1468766319447
380093732,0.993164,-0.0566406,-0.0537109,1468766319461
380116243,0.993652,-0.0517578,-0.0302734,1468766319484
380139353,0.980469,-0.0629883,-0.0131836,1468766319507
380160530,0.943848,-0.0849609,-0.0556641,1468766319529
380176275,0.952148,-0.0898438,-0.0385742,1468766319544
380189768,0.968262,-0.0810547,-0.0302734,1468766319558
380212370,0.96875,-0.0649414,-0.0332031,1468766319580
380235549,0.968262,-0.059082,-0.0317383,1468766319604
380249888,0.967285,-0.0527344,-0.0131836,1468766319618
380272842,0.983887,-0.0439453,-0.00146484,1468766319641
380295558,1.01172,-0.0629883,-0.0424805,1468766319663
380309962,0.996582,-0.0493164,-0.0454102,1468766319678
380332297,0.98584,-0.0625,-0.0488281,1468766319700
380355521,0.973633,-0.0639648,-0.0439453,1468766319724
380369907,0.95459,-0.0654297,-0.0424805,1468766319738
380392476,0.955566,-0.0668945,-0.0375977,1468766319761
380415450,0.957031,-0.0839844,-0.0283203,1468766319783
380429957,0.962402,-0.0800781,-0.0151367,1468766319798
380453170,0.981934,-0.0585938,-0.00683594,1468766319821
380475635,1.01221,-0.0639648,-0.0253906,1468766319844
380489965,1.00244,-0.0439453,-0.0327148,1468766319858
380512471,0.995117,-0.0424805,-0.0419922,1468766319881
380535578,0.983398,-0.0585938,-0.0424805,1468766319903
380550010,0.983887,-0.0678711,-0.034668,1468766319918
380572301,0.968262,-0.065918,-0.0458984,1468766319940
380595718,0.967285,-0.0673828,-0.0375977,1468766319964
380609908,0.960938,-0.0668945,-0.0419922,1468766319978
380632474,0.957031,-0.0517578,-0.0385742,1468766320000
380655594,0.973145,-0.0507812,-0.0253906,1468766320024
380669980,0.998535,-0.0625,-0.0439453,1468766320038
380692341,0.984375,-0.0424805,-0.0424805,1468766320060
380715555,0.980469,-0.0488281,-0.0498047,1468766320084
380729964,0.979492,-0.0581055,-0.0390625,1468766320098
380752461,0.978516,-0.0600586,-0.0351562,1468766320120
380775546,0.987793,-0.0585938,-0.0249023,1468766320143
380789979,0.995117,-0.050293,-0.0229492,1468766320158
380812437,0.978027,-0.0527344,-0.0336914,1468766320180
380835592,0.972656,-0.0517578,-0.0356445,1468766320204
380849883,0.977051,-0.0581055,-0.0307617,1468766320218
380872268,0.968262,-0.0493164,-0.0405273,1468766320240
380895363,0.963867,-0.0527344,-0.0415039,1468766320263
380909702,0.968262,-0.0527344,-0.0380859,1468766320277
380932229,0.969727,-0.0473633,-0.0366211,1468766320300
380955338,0.975586,-0.0439453,-0.0356445,1468766320323
380969723,0.972168,-0.0522461,-0.0361328,1468766320337
380992230,0.97168,-0.0449219,-0.0493164,1468766320360
381015433,0.961914,-0.0488281,-0.0532227,1468766320383
381029786,0.97168,-0.0478516,-0.0517578,1468766320397
381052277,0.96875,-0.0498047,-0.0532227,1468766320420
381075396,0.973145,-0.0541992,-0.043457,1468766320443
381089909,0.982422,-0.0385742,-0.0249023,1468766320458
381112400,1.00488,-0.0444336,-0.050293,1468766320480
381135522,0.989258,-0.0244141,-0.0585938,1468766320503
381149980,0.97998,-0.0283203,-0.0483398,1468766320518
381172297,0.963867,-0.0263672,-0.0488281,1468766320540
381195539,0.963867,-0.0131836,-0.0517578,1468766320563
381209905,0.980957,-0.0297852,-0.0322266,1468766320578
381232418,0.995117,-0.0458984,-0.0126953,1468766320600
381255642,1.00977,-0.019043,-0.00146484,1468766320624
381269812,1.00098,0,-0.0380859,1468766320638
381292410,1.00586,0.0258789,-0.0410156,1468766320660
381315671,1,0.0209961,-0.0375977,1468766320684
381329941,1.01758,-0.00976562,-0.0185547,1468766320698
381352397,1.00195,-0.0283203,-0.015625,1468766320720
381375641,1.01953,-0.0400391,-0.0473633,1468766320744
381390008,1.0498,-0.0185547,-0.0292969,1468766320758
381412453,1.04883,-0.046875,-0.0693359,1468766320781
381435608,1.07031,-0.0644531,-0.0380859,1468766320803
381449956,1.03516,-0.0161133,-0.146484,1468766320818
381472434,1.09766,0.00830078,-0.130371,1468766320840
381495611,1.05127,-0.0981445,-0.180664,1468766320864
381509981,1.09229,-0.308594,-0.268066,1468766320878
381532442,1.10938,-0.396973,-0.179199,1468766320900
381555593,1.20459,-0.361816,-0.191895,1468766320924
381571215,1.29443,-0.210449,-0.238281,1468766320939
381592393,1.34131,-0.274902,-0.147949,1468766320960
381614820,1.2124,-0.202637,-0.046875,1468766320983
381629968,1.15723,-0.138184,0.11377,1468766320998
381652460,1.1084,-0.0224609,0.124023,1468766321020
381674921,1.08203,0.0478516,0.172363,1468766321043
381689992,0.994141,0.160645,0.171875,1468766321058
381712516,0.906738,0.279297,0.138672,1468766321081
381734882,0.821289,0.272461,0.12207,1468766321103
381749939,0.79834,0.311523,0.106934,1468766321118
381772431,0.86377,0.275391,0.115723,1468766321140
381794969,0.933594,0.272461,0.0854492,1468766321163
381809993,0.959473,0.289062,0.0483398,1468766321178
381832473,0.930664,0.297852,0.112793,1468766321200
381855008,0.928223,0.222656,0.13916,1468766321223
381869970,1.04395,0.178223,0.146973,1468766321238
381892502,1.11279,0.12793,0.146973,1468766321260
381914818,1.10742,0.160645,0.10791,1468766321283
381929825,1.17236,0.0258789,0.034668,1468766321298
381952462,1.18262,-0.0297852,-0.0825195,1468766321320
381974983,1.15674,-0.132812,-0.248535,1468766321343
381989956,1.10645,-0.266113,-0.339355,1468766321358
382012403,0.98291,-0.479004,-0.446777,1468766321380
382034929,0.999023,-0.644043,-0.591309,1468766321403
382049990,1.05127,-0.699219,-0.777832,1468766321418
382072515,0.946289,-0.831543,-0.851074,1468766321441
382094981,0.986328,-1.06689,-0.939941,1468766321463
382109927,0.944824,-1.09961,-0.86377,1468766321478
382132496,1.0249,-0.823242,-0.986328,1468766321501
382154803,0.927734,-0.656738,-0.870117,1468766321523
382169932,1.43018,-0.00488281,1.19727,1468766321538
382192400,0.0292969,1.45361,1.1665,1468766321560
382214953,1.25537,-0.297363,-0.263672,1468766321583
382229972,2.44971,-0.918457,-0.70752,1468766321598
382252548,0.926758,0.922852,0.130371,1468766321620
382274946,1.71191,0.260742,0.217285,1468766321643
382289818,0.869141,-0.59082,-0.0698242,1468766321658
382312339,0.867188,-0.0751953,-0.197754,1468766321680
382334971,1.10156,-0.404297,-0.181641,1468766321703
382351300,0.852539,-0.409668,0.117188,1468766321719
382372315,1.04395,-0.330566,-0.293457,1468766321740
382394945,1.08838,-0.34668,-0.464844,1468766321763
382411238,1.02393,-0.444336,-0.405762,1468766321779
382433791,1.20947,-0.41748,-0.231934,1468766321802
382454939,1.42334,-0.516113,-0.348145,1468766321823
382471258,1.70459,-0.518555,-0.283203,1468766321839
382493850,2.21338,-0.316406,-0.165039,1468766321862
382515000,2.52002,0.282715,0.194824,1468766321883
382531310,1.9165,0.8125,0.664062,1468766321899
382552318,1.08496,0.617676,0.834473,1468766321920
382574822,0.693848,-0.0366211,0.381348,1468766321943
382591241,0.79248,-0.739258,-0.0322266,1468766321959
382612471,0.625977,-0.496094,-0.0532227,1468766321980
382634874,0.919922,-0.464844,0.222656,1468766322003
382651266,1.07568,-0.0112305,0.270508,1468766322019
382672492,1.07373,-0.065918,0.178223,1468766322040
382694769,1.32812,-0.290039,-0.0356445,1468766322062
382711198,1.75195,-0.320801,0.268066,1468766322079
382732216,2.1792,-0.303223,0.413086,1468766322100
382754746,1.75098,-0.337891,0.4375,1468766322122
382771210,1.13379,-0.121094,0.318359,1468766322139
382792246,0.740723,0.0361328,0.236816,1468766322160
382814736,0.562012,-0.0449219,0.195801,1468766322182
382831209,0.507324,-0.208008,0.126953,1468766322199
382852272,0.635742,-0.241699,0.177246,1468766322220
382874749,0.859375,-0.244629,0.141113,1468766322242
382891248,0.940918,-0.349609,0.0844727,1468766322259
382912282,0.971191,-0.120605,-0.00390625,1468766322280
382934825,1.03711,0.00927734,-0.45752,1468766322303
382951196,1.33643,0.236328,-0.8125,1468766322319
382972307,1.75,-0.296387,-1.08838,1468766322340
383003144,2.44287,-1.18457,-1.83838,1468766322371
383011262,2.11328,-1.72803,-2.59277,1468766322379
383032290,0.874023,-1.19482,-2.54785,1468766322400
383055063,0.000488281,-0.320801,-2.51758,1468766322423
383071337,0.334473,-1.8125,-1.84229,1468766322439
383093765,1.39062,-2.8042,-3.88281,1468766322461
383114883,2.70557,-0.0732422,0.569336,1468766322483
383131313,0.937988,1.29688,1.05078,1468766322499
383160568,1.09521,-0.615234,-0.868164,1468766322528
383174900,2.02637,0.193848,-0.0615234,1468766322543
383198869,1.51465,-0.281738,-0.268066,1468766322567
383212407,1.55664,-0.588867,0.386719,1468766322580
383243028,1.25049,-0.402344,-0.126953,1468766322611
383257364,0.876953,-0.536621,-0.671387,1468766322625
383272276,0.917969,-0.509766,-0.428223,1468766322640
383297766,1.16455,-0.53418,-0.213379,1468766322665
383311322,1.76709,-0.411133,0.180176,1468766322679
383335241,1.95605,0.00830078,0.234375,1468766322703
383354938,1.60205,0.283691,0.224609,1468766322723
383372693,1.32324,0.281738,0.197266,1468766322740
383393851,0.712402,0.161133,0.012207,1468766322762
383414953,0.698242,0.119629,0.0292969,1468766322783
383432769,1.03369,-0.199219,-0.130859,1468766322800
383453806,0.868164,-0.370605,0.0205078,1468766322822
383475035,0.939453,-0.35791,0.0483398,1468766322843
383491242,0.946289,-0.560059,-0.0644531,1468766322859
383513812,0.875977,-0.459473,-0.0546875,1468766322881
383534987,1.23145,-0.194824,0.310059,1468766322903
383551272,1.6001,-0.587891,0.242676,1468766322919
383573779,1.9502,0.100586,0.833008,1468766322941
383594916,1.19189,-0.240234,0.574219,1468766322963
383611312,1.11084,-0.634766,0.504395,1468766322979
383633771,0.89502,-0.500977,0.512695,1468766323002
383654846,0.633789,-0.392578,0.397461,1468766323023
383671379,0.590332,-0.550781,0.477051,1468766323039
383693800,0.766602,-0.724121,0.420898,1468766323062
383714882,0.848633,-0.742188,0.348145,1468766323083
383731254,0.931641,-0.878906,0.394531,1468766323099
383753850,1.22803,-0.660156,0.242676,1468766323122
383774894,1.43408,-1.09424,-0.175293,1468766323143
383790632,1.76465,-1.74854,-0.294922,1468766323159
383813223,1.80176,-1.81787,-0.65918,1468766323181
383835695,1.56982,-1.7334,-1.19922,1468766323203
383850702,1.51367,-0.983398,-2.10791,1468766323219
383880725,0.67627,-0.697754,-2.16504,1468766323249
383895623,0.259766,-0.52002,-1.96387,1468766323264
383910556,0.439453,-1.29492,-1.73779,1468766323278
383933070,1.11963,-1.48682,-1.61182,1468766323301
383955522,1.93799,-0.628418,-0.0859375,1468766323323
383970544,2.03613,0.516113,0.800781,1468766323338
383993017,0.967285,-0.38916,-0.034668,1468766323361
384015701,0.442871,-0.211426,0.00341797,1468766323384
384030700,1.75488,0.0629883,-0.136719,1468766323399
384053130,2.37744,0.000976562,-0.224121,1468766323421
384075714,1.09912,-0.000976562,-0.116211,1468766323444
384090646,1.45752,-0.111328,-0.123535,1468766323459
384113026,1.01318,-0.375977,-0.10498,1468766323481
384135676,1.0332,-0.340332,-0.126465,1468766323504
384150509,1.05273,-0.375,-0.0737305,1468766323518
384173145,1.00195,-0.339844,-0.0185547,1468766323541
384195649,1.04492,-0.222168,0.0585938,1468766323564
384210485,0.969727,-0.236816,0.090332,1468766323578
384232986,0.848145,-0.229004,0.111816,1468766323601
384255742,0.811523,-0.236816,0.0390625,1468766323624
384270675,0.751465,-0.208984,0.0297852,1468766323639
384293186,0.743652,-0.246582,0.0288086,1468766323661
384315658,0.784668,-0.235352,0.03125,1468766323684
384330661,0.82373,-0.222656,0.00146484,1468766323699
384353205,0.759766,-0.207031,-0.0268555,1468766323721
384375749,0.814453,-0.21875,-0.0566406,1468766323744
384390662,0.78418,-0.251953,-0.21582,1468766323759
384413160,0.585449,-0.257324,-0.169434,1468766323781
384436961,0.816406,-0.0776367,0.325195,1468766323805
384451989,1.42188,-0.213379,0.114746,1468766323820
384473056,1.71387,-0.0170898,0.118164,1468766323841
384495675,1.37158,0.130371,0.0561523,1468766323864
384512038,1.20947,-0.169434,-0.0419922,1468766323880
384533060,1.00781,-0.29541,-0.0478516,1468766323901
384555712,0.880859,-0.228027,-0.235352,1468766323924
384571906,0.778809,-0.228516,-0.245605,1468766323940
384593135,0.691406,-0.256836,-0.188965,1468766323961
384615900,0.684082,-0.208984,-0.0942383,1468766323984
384631962,0.776367,-0.197754,0.0498047,1468766324000
384653174,0.916504,-0.209473,0.000488281,1468766324021
384675642,1.00928,-0.170898,0.012207,1468766324043
384692000,1.03174,-0.119629,-0.0146484,1468766324060
384713156,1.05762,-0.0888672,-0.0117188,1468766324081
384728767,1.07715,-0.0390625,-0.0244141,1468766324096
384751966,1.09375,-0.000976562,-0.0864258,1468766324120
384773191,1.06201,-0.034668,-0.134766,1468766324141
384795755,0.988281,-0.0766602,-0.118164,1468766324164
384812018,0.929688,-0.161621,-0.13916,1468766324180
384833154,0.898438,-0.182129,-0.124023,1468766324201
384855542,0.898926,-0.168457,-0.101074,1468766324224
384871954,0.922363,-0.141113,-0.078125,1468766324240
384893270,0.95166,-0.115723,-0.0805664,1468766324261
384908801,0.999512,-0.0839844,-0.0356445,1468766324276
384931936,1.05127,-0.0952148,-0.0493164,1468766324300
384953194,1.05078,-0.0649414,-0.0253906,1468766324321
384968830,1.03564,-0.097168,-0.0629883,1468766324337
384992035,0.991211,-0.0776367,-0.0913086,1468766324360
385013119,0.947266,-0.141113,-0.0883789,1468766324381
385028825,0.930176,-0.140137,-0.0986328,1468766324396
385052025,0.924805,-0.13916,-0.125,1468766324420
385073173,0.955566,-0.140137,-0.104004,1468766324441
385088789,0.974609,-0.119629,-0.0800781,1468766324457
385111993,0.992676,-0.11084,-0.0854492,1468766324480
385133188,1.01221,-0.0957031,-0.0761719,1468766324501
385148875,1.00244,-0.0898438,-0.0615234,1468766324517
385171332,0.994629,-0.108398,-0.0996094,1468766324539
385193184,0.969238,-0.106445,-0.109375,1468766324561
385208852,0.954102,-0.112305,-0.112305,1468766324577
385231270,0.956543,-0.130371,-0.102051,1468766324599
385252974,0.967773,-0.135254,-0.0991211,1468766324621
385268792,0.963867,-0.131348,-0.081543,1468766324636
385291250,0.969238,-0.125977,-0.0688477,1468766324659
385312994,0.974609,-0.129395,-0.0849609,1468766324681
385328793,0.970703,-0.105469,-0.0751953,1468766324696
385351267,0.974609,-0.117188,-0.0717773,1468766324719
385374387,0.974609,-0.120117,-0.0708008,1468766324742
385388744,0.969238,-0.12207,-0.078125,1468766324756
385411289,0.963379,-0.121094,-0.0688477,1468766324779
385434516,0.971191,-0.135742,-0.0761719,1468766324802
385448762,0.975586,-0.116211,-0.0756836,1468766324816
385471303,0.977539,-0.118164,-0.0751953,1468766324839
385494411,0.986816,-0.114746,-0.0634766,1468766324862
385508898,0.988281,-0.112793,-0.0761719,1468766324877
385531387,0.97998,-0.116699,-0.0859375,1468766324899
385554542,0.964844,-0.120605,-0.0825195,1468766324922
385568781,0.958984,-0.137695,-0.0727539,1468766324936
385591387,0.960449,-0.136719,-0.0766602,1468766324959
385614553,0.957031,-0.130859,-0.0771484,1468766324982
385628826,0.962402,-0.126953,-0.0708008,1468766324996
385651298,0.970215,-0.126465,-0.0791016,1468766325019
385674631,0.974609,-0.116699,-0.0795898,1468766325042
385688842,0.985352,-0.125,-0.065918,1468766325057
385711346,0.982422,-0.120605,-0.0703125,1468766325079
385734438,0.977539,-0.126465,-0.0761719,1468766325102
385748851,0.96875,-0.121582,-0.0708008,1468766325117
385771336,0.980957,-0.12207,-0.0883789,1468766325139
385794492,0.964844,-0.131348,-0.0839844,1468766325162
385808895,0.961914,-0.133789,-0.0820312,1468766325177
385831433,0.964844,-0.136719,-0.0668945,1468766325199
385854555,0.978516,-0.130859,-0.0751953,1468766325222
385875726,0.978027,-0.127441,-0.0795898,1468766325244
385891429,0.966309,-0.132812,-0.0688477,1468766325259
385914511,0.969238,-0.128418,-0.0966797,1468766325282
385935621,0.969238,-0.122559,-0.0830078,1468766325303
385951425,0.96582,-0.129395,-0.0791016,1468766325319
385974602,0.970215,-0.131348,-0.0771484,1468766325342
385995744,0.974121,-0.129395,-0.0732422,1468766325364
386011421,0.975586,-0.118164,-0.0805664,1468766325379
386034473,0.977051,-0.133789,-0.0751953,1468766325402
386055675,0.976562,-0.128418,-0.0795898,1468766325424
386071408,0.975098,-0.125488,-0.0854492,1468766325439
386094609,0.967773,-0.122559,-0.0800781,1468766325462
386115424,0.966309,-0.125,-0.0771484,1468766325483
386131446,0.963867,-0.128418,-0.074707,1468766325499
386153887,0.969238,-0.132324,-0.074707,1468766325522
386175715,0.969727,-0.126465,-0.0732422,1468766325544
386191403,0.972168,-0.125977,-0.0805664,1468766325559
386213830,0.971191,-0.126953,-0.0834961,1468766325582
386235747,0.967285,-0.129395,-0.0805664,1468766325604
386251310,0.967773,-0.128418,-0.0717773,1468766325619
386273796,0.969238,-0.12793,-0.0683594,1468766325641
386296982,0.977539,-0.125977,-0.0795898,1468766325665
386311336,0.976562,-0.126465,-0.0825195,1468766325679
386333915,0.975098,-0.123047,-0.0820312,1468766325702
386357082,0.967285,-0.122559,-0.0849609,1468766325725
386371340,0.967285,-0.130859,-0.0839844,1468766325739
386393791,0.95752,-0.132324,-0.0878906,1468766325761
386416939,0.959473,-0.130371,-0.0795898,1468766325785
386431327,0.980469,-0.131836,-0.0776367,1468766325799
386453795,0.993164,-0.12793,-0.0654297,1468766325821
386476965,0.986328,-0.127441,-0.0786133,1468766325845
386491345,0.973145,-0.127441,-0.0795898,1468766325859
386513847,0.966797,-0.131348,-0.0834961,1468766325882
386536940,0.958008,-0.129395,-0.0839844,1468766325905
386551309,0.969727,-0.134766,-0.0844727,1468766325919
386573772,0.972656,-0.12793,-0.0673828,1468766325941
386596996,0.987305,-0.125,-0.074707,1468766325965
386611294,0.989746,-0.113281,-0.0708008,1468766325979
386633816,0.97998,-0.120605,-0.0708008,1468766326001
386656984,0.974609,-0.126465,-0.0644531,1468766326025
386671271,0.967285,-0.125977,-0.0668945,1468766326039
386701999,0.964844,-0.127441,-0.0615234,1468766326070
386716965,0.969238,-0.120605,-0.0644531,1468766326085
386731304,0.969727,-0.116211,-0.0649414,1468766326099
386753815,0.966309,-0.113281,-0.0678711,1468766326121
386784547,0.969727,-0.121094,-0.0595703,1468766326152
386798014,0.969727,-0.116699,-0.0566406,1468766326166
386813874,0.963867,-0.124023,-0.0551758,1468766326181
386836982,0.95752,-0.119141,-0.0615234,1468766326205
386858003,0.965332,-0.124023,-0.0478516,1468766326226
386874317,0.995117,-0.128906,-0.0551758,1468766326242
386896971,1.01514,-0.113281,-0.0566406,1468766326265
386918010,0.992676,-0.106934,-0.0668945,1468766326286
386933800,0.971191,-0.125977,-0.0839844,1468766326301
386957026,0.958984,-0.119629,-0.09375,1468766326325
386978007,0.951172,-0.121582,-0.0932617,1468766326346
386993788,0.962402,-0.125977,-0.0693359,1468766326361
387017021,0.972168,-0.115234,-0.0478516,1468766326385
387038019,0.981934,-0.108398,-0.0493164,1468766326406
387053770,0.98584,-0.114258,-0.0566406,1468766326421
387076326,0.973145,-0.108887,-0.0595703,1468766326444
387098026,0.967773,-0.114258,-0.046875,1468766326466
387113774,0.975098,-0.100586,-0.0473633,1468766326481
387136354,0.969727,-0.109375,-0.0551758,1468766326504
387158027,0.964355,-0.103027,-0.0478516,1468766326526
387173810,0.972656,-0.114746,-0.0268555,1468766326541
387196316,0.995117,-0.103027,-0.0239258,1468766326564
387218069,0.976562,-0.0825195,-0.0385742,1468766326586
387233840,0.963867,-0.0981445,-0.0463867,1468766326602
387256319,0.973145,-0.103027,-0.0244141,1468766326624
387279549,0.993164,-0.107422,-0.0288086,1468766326647
387293800,1,-0.090332,-0.034668,1468766326661
387316331,1.00098,-0.0869141,-0.0336914,1468766326684
387339549,0.939941,-0.0976562,-0.0537109,1468766326707
387353853,0.954102,-0.0952148,-0.0302734,1468766326722
387376384,1.00586,-0.090332,-0.0258789,1468766326744
387389941,1.01465,-0.0390625,-0.090332,1468766326758
387413098,0.998047,-0.0688477,-0.100586,1468766326781
387427421,0.884766,-0.0820312,-0.0629883,1468766326795
387449865,0.974121,-0.13623,0.0366211,1468766326818
387472978,1.01611,-0.0932617,0.0146484,1468766326841
387487402,1.01904,-0.0883789,-0.00585938,1468766326855
387511295,0.978027,-0.0737305,-0.0371094,1468766326879
387533073,0.999512,-0.0703125,-0.0307617,1468766326901
387547370,0.96875,-0.0585938,-0.00585938,1468766326915
387569855,0.992676,-0.0458984,0.00244141,1468766326938
387593023,0.98877,-0.0302734,-0.0390625,1468766326961
387607402,0.945801,-0.0288086,-0.0439453,1468766326975
387629897,0.952637,-0.0649414,-0.0219727,1468766326998
387653079,0.942871,-0.0888672,-0.0258789,1468766327021
387667388,0.95166,-0.0786133,0.00390625,1468766327035
387689886,0.952148,-0.0722656,-0.000488281,1468766327058
387713134,1.01123,-0.0283203,-0.0341797,1468766327081
387728900,1.04248,0.0126953,-0.0151367,1468766327097
387750127,1.06299,0.00878906,-0.0307617,1468766327118
387773267,1.00732,-0.0727539,-0.0351562,1468766327141
387787565,0.867676,-0.135254,-0.059082,1468766327155
387810094,0.926758,-0.0952148,-0.0913086,1468766327178
387833259,0.978027,-0.065918,-0.0571289,1468766327201
387847497,1.0415,-0.078125,-0.0107422,1468766327215
387870013,1.01953,-0.0639648,-0.0078125,1468766327238
387901423,0.937988,-0.0991211,0.00683594,1468766327269
387907596,0.956055,-0.121094,-0.00488281,1468766327276
387930146,0.966797,-0.0996094,-0.0273438,1468766327298
387953234,0.963867,-0.0644531,-0.0332031,1468766327321
387967600,1.01514,-0.0249023,-0.0307617,1468766327336
387990119,0.981445,-0.0512695,-0.0366211,1468766327358
388021422,0.976562,-0.0576172,-0.0488281,1468766327389
388027627,0.96582,-0.0654297,-0.0556641,1468766327396
388050075,0.985352,-0.0678711,-0.059082,1468766327418
388073257,0.987793,-0.0664062,-0.0322266,1468766327441
388087539,0.986328,-0.0717773,-0.0419922,1468766327455
388109913,0.979492,-0.0893555,-0.0258789,1468766327478
388133234,0.963379,-0.114258,-0.0444336,1468766327501
388147642,0.977051,-0.0986328,-0.03125,1468766327516
388170047,0.98291,-0.120117,-0.0483398,1468766327538
388193241,0.973145,-0.114258,-0.0517578,1468766327561
388215785,1.0083,-0.104492,-0.0371094,1468766327584
388230069,1.00879,-0.108887,-0.0483398,1468766327598
388252604,0.955078,-0.120117,-0.0844727,1468766327620
388267547,0.935547,-0.128418,-0.11084,1468766327635
388290104,0.940918,-0.118652,-0.102051,1468766327658
388312436,0.915527,-0.145508,-0.0996094,1468766327680
388327492,0.91748,-0.163086,-0.0639648,1468766327695
388350139,0.950684,-0.132324,0.00537109,1468766327718
388372624,1.07666,-0.12207,-0.00830078,1468766327741
388387592,1.05859,-0.106934,-0.0410156,1468766327756
388410092,0.984375,-0.0917969,-0.0864258,1468766327778
388432544,0.972168,-0.097168,-0.112793,1468766327801
388447687,0.953125,-0.12207,-0.102051,1468766327816
388469982,0.94043,-0.142578,-0.103516,1468766327838
388492560,0.941895,-0.149414,-0.0878906,1468766327860
388507595,0.938477,-0.15625,-0.0913086,1468766327875
388530139,0.931641,-0.165039,-0.0668945,1468766327898
388552653,0.974609,-0.147461,-0.0249023,1468766327921
388567615,1.03662,-0.142578,-0.0200195,1468766327936
388590087,1.01465,-0.129395,-0.0629883,1468766327958
388612581,0.977051,-0.115234,-0.0913086,1468766327981
388627498,0.965332,-0.128418,-0.112305,1468766327995
388649955,0.960938,-0.134277,-0.109863,1468766328018
388672580,0.949219,-0.152344,-0.101074,1468766328040
388687568,0.945801,-0.160645,-0.0883789,1468766328056
388709888,0.936035,-0.174316,-0.0849609,1468766328078
388732373,0.950684,-0.152832,-0.0854492,1468766328100
388747436,0.986816,-0.15918,-0.0742188,1468766328115
388769888,0.98877,-0.15332,-0.0717773,1468766328138
388792377,0.961426,-0.15332,-0.0893555,1468766328160
388807419,0.963867,-0.149414,-0.0996094,1468766328175
388829895,0.956055,-0.157227,-0.0883789,1468766328198
388852386,0.95459,-0.158691,-0.0947266,1468766328220
388867405,0.95752,-0.152832,-0.0864258,1468766328235
388889899,0.986328,-0.152832,-0.081543,1468766328258
388912398,0.975098,-0.158203,-0.0874023,1468766328280
388927424,0.968262,-0.15625,-0.0859375,1468766328295
388949906,0.967773,-0.152832,-0.0859375,1468766328318
388972388,0.969727,-0.149902,-0.0795898,1468766328340
388988926,0.981445,-0.148926,-0.0732422,1468766328357
389010114,0.991211,-0.145508,-0.0849609,1468766328378
389032666,0.975586,-0.143555,-0.09375,1468766328401
389048953,0.959961,-0.149414,-0.0966797,1468766328417
389070078,0.957031,-0.153809,-0.0854492,1468766328438
389092465,0.967285,-0.150879,-0.0800781,1468766328460
389108978,0.974609,-0.141602,-0.081543,1468766328477
389130112,0.986816,-0.139648,-0.0864258,1468766328498
389152616,0.974609,-0.143555,-0.0820312,1468766328520
389168893,0.968262,-0.142578,-0.0932617,1468766328537
389190153,0.964844,-0.150391,-0.0913086,1468766328558
389212590,0.963379,-0.146973,-0.0830078,1468766328580
389228946,0.970703,-0.146484,-0.0834961,1468766328597
389249964,0.972168,-0.14209,-0.0952148,1468766328618
389272537,0.969727,-0.144531,-0.090332,1468766328640
389288993,0.970215,-0.144043,-0.0869141,1468766328657
389310125,0.968262,-0.150879,-0.0947266,1468766328678
389332615,0.970703,-0.140137,-0.0844727,1468766328700
389348949,0.97168,-0.147461,-0.0942383,1468766328717
389370124,0.97168,-0.140137,-0.0932617,1468766328738
389392641,0.974121,-0.145508,-0.0830078,1468766328761
389408945,0.973145,-0.138184,-0.0859375,1468766328777
389430131,0.971191,-0.138672,-0.0874023,1468766328798
389452474,0.968262,-0.14209,-0.0825195,1468766328820
389468922,0.96582,-0.143066,-0.0883789,1468766328837
389490124,0.966797,-0.143555,-0.0834961,1468766328858
389512506,0.969238,-0.144531,-0.0844727,1468766328880
389528904,0.975098,-0.137207,-0.0849609,1468766328897
389550090,0.974609,-0.14209,-0.0898438,1468766328918
389572669,0.966797,-0.135742,-0.0927734,1468766328941
389588999,0.973145,-0.143066,-0.090332,1468766328957
389610054,0.969727,-0.14502,-0.0874023,1468766328978
389632685,0.966797,-0.145508,-0.0908203,1468766329001
389648963,0.969238,-0.14502,-0.0947266,1468766329017
389670128,0.970703,-0.141602,-0.0898438,1468766329038
389692656,0.969238,-0.145996,-0.0957031,1468766329061
389708899,0.972656,-0.140625,-0.0869141,1468766329077
389730164,0.967773,-0.141602,-0.0864258,1468766329098
389752611,0.96582,-0.13916,-0.0834961,1468766329121
389768941,0.966309,-0.144043,-0.0917969,1468766329137
389790115,0.96875,-0.14502,-0.0917969,1468766329158
389812624,0.971191,-0.143066,-0.0874023,1468766329181
389828975,0.970703,-0.14502,-0.09375,1468766329197
389850015,0.970703,-0.136719,-0.0888672,1468766329218
389872544,0.96875,-0.144043,-0.090332,1468766329240
389888970,0.970703,-0.139648,-0.0893555,1468766329257
389911411,0.975098,-0.144043,-0.0898438,1468766329279
389932613,0.972168,-0.138184,-0.0893555,1468766329301
389948942,0.970215,-0.140625,-0.09375,1468766329317
389971400,0.972168,-0.141113,-0.0908203,1468766329339
389992660,0.966309,-0.144531,-0.0849609,1468766329361
390008878,0.970215,-0.14502,-0.0883789,1468766329377
390031384,0.966797,-0.142578,-0.0878906,1468766329399
390052588,0.973145,-0.14502,-0.0908203,1468766329420
390068970,0.968262,-0.13916,-0.0839844,1468766329437
390091470,0.972168,-0.144531,-0.0908203,1468766329459
390112648,0.959961,-0.14209,-0.0888672,1468766329481
390128940,0.967285,-0.146484,-0.0898438,1468766329497
390151417,0.963379,-0.144043,-0.0981445,1468766329519
390175426,0.972168,-0.14502,-0.0961914,1468766329543
390188949,0.975098,-0.140137,-0.0927734,1468766329557
390211505,0.967285,-0.145996,-0.0898438,1468766329579
390232658,0.964355,-0.149414,-0.0966797,1468766329601
390248985,0.967285,-0.151367,-0.100098,1468766329617
390271470,0.967285,-0.145508,-0.105957,1468766329639
390292683,0.965332,-0.148438,-0.102051,1468766329661
390308890,0.971191,-0.145996,-0.102539,1468766329677
390331396,0.972168,-0.149902,-0.0952148,1468766329699
390352594,0.971191,-0.147949,-0.097168,1468766329720
390368988,0.960449,-0.147461,-0.101562,1468766329737
390391418,0.967285,-0.145996,-0.0893555,1468766329759
390412502,0.970703,-0.149902,-0.0913086,1468766329780
390428952,0.969238,-0.13916,-0.0932617,1468766329797
390451476,0.975098,-0.13916,-0.0898438,1468766329819
390472684,0.972168,-0.140137,-0.0908203,1468766329841
390488904,0.965332,-0.137207,-0.081543,1468766329857
390511458,0.969727,-0.13623,-0.0942383,1468766329879
390532534,0.966797,-0.140625,-0.0893555,1468766329900
390548926,0.97168,-0.133789,-0.0805664,1468766329917
390571447,0.96875,-0.138672,-0.0849609,1468766329939
390592522,0.970215,-0.128906,-0.0805664,1468766329960
390609033,0.972656,-0.134766,-0.0751953,1468766329977
390631521,0.973145,-0.133789,-0.0825195,1468766329999
390652633,0.973145,-0.128906,-0.0830078,1468766330021
390669004,0.973145,-0.128418,-0.0810547,1468766330037
390691485,0.976562,-0.129883,-0.0766602,1468766330059
390712622,0.977051,-0.126953,-0.090332,1468766330080
390729012,0.97168,-0.125,-0.0834961,1468766330097
390751462,0.966797,-0.130859,-0.0839844,1468766330119
390772642,0.966309,-0.124512,-0.0786133,1468766330141
390788959,0.969238,-0.121094,-0.0834961,1468766330157
390811458,0.979004,-0.11084,-0.0732422,1468766330179
390832623,0.984863,-0.114258,-0.0834961,1468766330201
390848952,0.96875,-0.115723,-0.078125,1468766330217
390879056,0.967285,-0.11377,-0.0864258,1468766330247
390893938,0.954102,-0.125488,-0.0874023,1468766330262
390909001,0.98291,-0.10791,-0.0820312,1468766330277
390931441,0.983398,-0.114746,-0.0605469,1468766330299
390953871,0.987793,-0.110352,-0.0727539,1468766330322
390968908,0.978516,-0.11377,-0.0766602,1468766330337
390991445,0.973145,-0.109375,-0.0756836,1468766330359
391013428,0.968262,-0.108887,-0.0708008,1468766330381
391028177,0.969238,-0.103027,-0.0673828,1468766330396
391050767,0.957031,-0.0849609,-0.0683594,1468766330419
391073323,0.980469,-0.0859375,-0.0620117,1468766330441
391089655,1.00488,-0.0957031,-0.0732422,1468766330457
391110851,0.97168,-0.118652,-0.0625,1468766330479
391133300,0.947754,-0.11084,-0.0634766,1468766330501
391149636,0.964844,-0.09375,-0.0625,1468766330517
391170654,0.953613,-0.112793,-0.0668945,1468766330539
391193235,0.967285,-0.0942383,-0.0795898,1468766330561
391209695,1.01611,-0.0634766,-0.0498047,1468766330577
391230880,1.02148,-0.0673828,-0.0385742,1468766330599
391253172,1.02148,-0.0620117,-0.0297852,1468766330621
391269585,0.994629,-0.0742188,-0.0297852,1468766330637
391290788,0.983887,-0.0737305,-0.019043,1468766330659
391313229,0.981445,-0.0727539,-0.0292969,1468766330681
391329650,0.968262,-0.0644531,-0.0126953,1468766330697
391350786,0.956543,-0.0864258,-0.0131836,1468766330719
391373322,0.945312,-0.0708008,-0.0117188,1468766330741
391389631,0.979492,-0.0703125,-0.012207,1468766330757
391410793,0.976562,-0.0551758,0.00292969,1468766330779
391433160,0.996094,-0.0527344,0,1468766330801
391449581,0.977051,-0.0463867,0.012207,1468766330817
391470865,0.981934,-0.0493164,0.0078125,1468766330839
391493396,0.979004,-0.0478516,-0.00292969,1468766330861
391509607,0.965332,-0.0527344,-0.000976562,1468766330877
391530783,0.955566,-0.0454102,-0.00195312,1468766330899
391553154,0.954102,-0.0449219,0.00195312,1468766330921
391569617,0.979004,-0.0351562,0.0439453,1468766330937
391590830,1.01807,-0.0332031,0.0527344,1468766330959
391613314,0.98877,-0.0322266,0.0302734,1468766330981
391629717,0.975586,-0.012207,0.0131836,1468766330997
391650719,0.96582,-0.0361328,0.0249023,1468766331018
391673343,0.968262,-0.0498047,0.0307617,1468766331041
391689695,0.960449,-0.0405273,0.0556641,1468766331058
391710898,1.00439,-0.0380859,0.0761719,1468766331079
391733383,0.973633,-0.0498047,0.0390625,1468766331102
391749635,0.98291,-0.0112305,0.0380859,1468766331117
391770829,0.980957,-0.0449219,0.0507812,1468766331139
391800703,0.960449,-0.0537109,0.0512695,1468766331169
391808962,0.973633,-0.0195312,0.0327148,1468766331177
391830806,1.00342,-0.0136719,0.0668945,1468766331199
391853347,0.981445,-0.0449219,0.0717773,1468766331221
391869048,0.974609,-0.00732422,0.0424805,1468766331237
391890875,0.976562,-0.0292969,0.043457,1468766331259
391913284,0.952637,-0.0561523,0.0444336,1468766331281
391928971,0.990234,-0.0419922,0.0419922,1468766331297
391950786,0.962402,-0.0571289,0.059082,1468766331319
391973378,0.961426,-0.0825195,0.0532227,1468766331341
391989038,0.984863,-0.0292969,0.0209961,1468766331357
392012169,0.962402,-0.0703125,0.0195312,1468766331380
392033189,0.932129,-0.0805664,-0.00732422,1468766331401
392049008,0.929688,-0.0605469,0.0170898,1468766331417
392072086,0.984375,0.00976562,0.238281,1468766331440
392093259,1.11084,-0.118652,0.0917969,1468766331461
392109094,0.981445,-0.0356445,0.0205078,1468766331477
392132214,0.981445,-0.0249023,-0.0170898,1468766331500
392153368,0.967773,-0.0986328,0.0200195,1468766331521
392168985,0.967773,-0.0927734,0.0424805,1468766331537
392192136,0.981445,-0.0625,0.0385742,1468766331560
392213341,0.989258,-0.0581055,0.0576172,1468766331581
392228974,0.968262,-0.0766602,0.0551758,1468766331597
392252210,0.958008,-0.0820312,0.0444336,1468766331620
392273315,0.959473,-0.0727539,0.074707,1468766331641
392289013,0.967285,-0.0605469,0.105469,1468766331657
392312177,1.00293,-0.0708008,0.0878906,1468766331680
392333271,0.97998,-0.0678711,0.0375977,1468766331701
392348925,0.968262,-0.0683594,0.0302734,1468766331717
392372128,0.96875,-0.0898438,0.046875,1468766331740
392393384,0.972656,-0.0961914,0.0444336,1468766331761
392409034,0.962402,-0.100098,0.0249023,1468766331777
392432200,0.95166,-0.107422,0.0166016,1468766331800
392453391,0.955566,-0.106445,-0.00585938,1468766331821
392468993,0.961426,-0.0981445,-0.0131836,1468766331837
392492121,0.970215,-0.0507812,0.128418,1468766331860
392513385,1.06543,-0.14502,0.0429688,1468766331881
392529053,0.995605,-0.0688477,-0.00488281,1468766331897
392552211,0.967773,-0.0898438,-0.015625,1468766331920
392573378,0.958984,-0.135254,0.00488281,1468766331941
392589040,0.973145,-0.120117,0.00195312,1468766331957
392612142,0.966309,-0.105957,0.015625,1468766331980
392633195,0.98291,-0.115234,0.0175781,1468766332001
392648984,0.974121,-0.108398,0.0214844,1468766332017
392672212,0.977051,-0.108398,0.0307617,1468766332040
392693373,0.987793,-0.113281,-0.00390625,1468766332061
392708962,0.975586,-0.106934,-0.0214844,1468766332077
392732210,0.961914,-0.132812,-0.0161133,1468766332100
392753322,0.970215,-0.141113,-0.00341797,1468766332121
392769092,0.952148,-0.131836,-0.0249023,1468766332137
392791611,0.966797,-0.126953,-0.0273438,1468766332159
392813418,0.994141,-0.132324,-0.0297852,1468766332181
392829010,0.981934,-0.116211,-0.0214844,1468766332197
392851486,0.981934,-0.12207,-0.00195312,1468766332219
392873370,0.982422,-0.123535,-0.00292969,1468766332241
392889022,0.983887,-0.115723,-0.0141602,1468766332257
392911518,0.964844,-0.118164,-0.0219727,1468766332279
392933241,0.979004,-0.125488,-0.0283203,1468766332301
392949035,0.974609,-0.128418,-0.0283203,1468766332317
392971517,0.960938,-0.134766,-0.0336914,1468766332339
393000810,0.974609,-0.141113,-0.0253906,1468766332369
393008974,0.977051,-0.152344,-0.0200195,1468766332377
393039621,0.984375,-0.12793,-0.0175781,1468766332407
393054700,0.990723,-0.157227,-0.0400391,1468766332422
393069072,0.981934,-0.137695,-0.0605469,1468766332437
393091595,0.980957,-0.14209,-0.0527344,1468766332459
393114695,0.965332,-0.142578,-0.0576172,1468766332482
393128987,0.969727,-0.147949,-0.0307617,1468766332497
393151457,0.958496,-0.166992,-0.0351562,1468766332519
393174655,0.961914,-0.145996,-0.0415039,1468766332542
393189041,0.965332,-0.153809,-0.0371094,1468766332557
393211507,0.972656,-0.145996,-0.0410156,1468766332579
393234655,0.970215,-0.133301,-0.050293,1468766332602
393248989,0.968262,-0.13623,-0.0615234,1468766332617
393271539,0.966797,-0.14209,-0.0576172,1468766332639
393294703,0.955078,-0.156738,-0.0541992,1468766332662
393308967,0.961914,-0.148926,-0.0507812,1468766332677
393331507,0.969238,-0.151855,-0.0537109,1468766332699
393354590,0.984375,-0.138672,-0.0649414,1468766332722
393368940,0.98291,-0.132324,-0.0673828,1468766332737
393391417,0.981445,-0.141113,-0.0668945,1468766332759
393414606,0.975586,-0.143555,-0.074707,1468766332782
393428968,0.959961,-0.148926,-0.0751953,1468766332797
393451519,0.958008,-0.157227,-0.0634766,1468766332819
393474594,0.966309,-0.154297,-0.0673828,1468766332842
393495701,0.971191,-0.145508,-0.0649414,1468766332863
393511418,0.97168,-0.14502,-0.0585938,1468766332879
393534565,0.970215,-0.145508,-0.0664062,1468766332902
393555728,0.974609,-0.137207,-0.065918,1468766332923
393571545,0.964844,-0.139648,-0.0585938,1468766332939
393594775,0.96582,-0.148926,-0.0634766,1468766332962
393615875,0.971191,-0.143555,-0.0644531,1468766332984
393631561,0.96582,-0.144531,-0.0717773,1468766332999
393654735,0.961426,-0.150879,-0.0595703,1468766333022
393675874,0.970703,-0.151367,-0.0610352,1468766333044
393691507,0.968262,-0.14209,-0.0664062,1468766333059
393714083,0.976074,-0.141602,-0.0629883,1468766333082
393735753,0.996582,-0.137207,-0.0678711,1468766333104
393751621,0.977051,-0.130859,-0.0698242,1468766333119
393774030,0.972656,-0.137695,-0.0703125,1468766333142
393795888,0.96582,-0.146973,-0.0795898,1468766333164
393811551,0.963379,-0.141113,-0.0732422,1468766333179
393834023,0.964355,-0.143555,-0.0629883,1468766333202
393855893,0.97168,-0.145508,-0.0571289,1468766333224
393871606,0.978027,-0.132324,-0.0703125,1468766333239
393894014,0.972168,-0.135742,-0.0644531,1468766333262
393917212,0.974121,-0.138672,-0.0581055,1468766333285
393931498,0.978516,-0.136719,-0.065918,1468766333299
393953972,0.970703,-0.132812,-0.0585938,1468766333322
393977217,0.974121,-0.141113,-0.0517578,1468766333345
393991616,0.976074,-0.13916,-0.0551758,1468766333359
394014034,0.97168,-0.134277,-0.0585938,1468766333382
394037175,0.970703,-0.138184,-0.0585938,1468766333405
394051443,0.976074,-0.138184,-0.0527344,1468766333419
394073987,0.974609,-0.133301,-0.0625,1468766333442
394097146,0.964355,-0.129883,-0.0649414,1468766333465
394111617,0.957031,-0.145508,-0.0620117,1468766333479
394134019,0.963379,-0.14502,-0.0732422,1468766333502
394157192,0.952637,-0.147949,-0.0786133,1468766333525
394171557,0.952637,-0.140137,-0.0498047,1468766333539
394194035,1.00195,-0.154297,-0.0654297,1468766333562
394217214,0.993652,-0.12207,-0.0830078,1468766333585
394231676,1.0249,-0.102539,-0.03125,1468766333599
394254047,1.08936,-0.0600586,0.184082,1468766333622
394277259,0.885254,-0.123047,-0.131836,1468766333645
394298416,0.996094,-0.134766,-0.118652,1468766333667
394314004,0.946289,-0.14209,-0.0810547,1468766333682
394337155,0.943848,-0.146484,-0.0419922,1468766333705
394358438,0.941895,-0.157227,-0.0361328,1468766333727
394374041,0.925293,-0.174316,-0.050293,1468766333742
394397297,0.938965,-0.176758,-0.0537109,1468766333765
394418353,0.939941,-0.15625,-0.046875,1468766333786
394433966,0.932129,-0.120605,-0.0205078,1468766333802
394457204,0.966797,-0.150391,-0.0830078,1468766333825
394478399,0.927734,-0.136719,-0.115723,1468766333846
394494089,0.913574,-0.130371,-0.105957,1468766333862
394517233,0.883789,-0.154785,-0.0634766,1468766333885
394538410,0.836914,-0.175293,-0.0668945,1468766333906
394554048,0.770996,-0.163574,-0.105469,1468766333922
394577204,0.945312,-0.231934,-0.0166016,1468766333945
394598285,1.09229,-0.213379,0.0947266,1468766333966
394613348,1.19189,-0.163086,-0.00146484,1468766333981
394627696,1.20996,-0.0483398,-0.228027,1468766333996
394650105,1.08105,-0.290527,-0.247559,1468766334018
394673417,1.02881,-0.307129,-0.237305,1468766334041
394687757,1.08154,-0.319336,-0.275879,1468766334056
394710272,1.16309,-0.258789,-0.140625,1468766334078
394733247,1.25,-0.224121,-0.0976562,1468766334101
394747745,1.25586,-0.125,-0.0810547,1468766334116
394770150,1.31201,-0.0688477,-0.0883789,1468766334138
394793391,1.07617,-0.0893555,-0.0551758,1468766334161
394807604,1.08936,-0.118164,0.321777,1468766334175
394830245,0.651367,-0.195801,-0.0175781,1468766334198
394853397,0.641113,-0.225098,0.0615234,1468766334221
394867770,0.734375,-0.209961,0.113281,1468766334236
394890190,0.706543,-0.32373,0.148926,1468766334258
394913321,0.924316,-0.444336,0.151367,1468766334281
394927797,1.1084,-0.476562,0.00146484,1468766334296
394950201,1.13672,-0.497559,-0.211426,1468766334318
394973340,1.01758,-0.400391,-0.320312,1468766334341
394987741,0.942383,-0.371582,-0.310547,1468766334356
395010102,0.852051,-0.308594,-0.232422,1468766334378
395033390,0.762695,-0.244141,-0.249512,1468766334401
395047732,0.640625,-0.133301,-0.198242,1468766334416
395070300,0.610352,-0.00683594,-0.247559,1468766334438
395093364,0.670898,-0.0366211,-0.231445,1468766334461
395107741,0.805176,-0.14209,-0.284668,1468766334476
395130231,0.901855,-0.216797,-0.227051,1468766334498
395153248,0.937988,-0.322754,-0.193848,1468766334521
395167588,0.947754,-0.316895,-0.188965,1468766334535
395191587,0.917969,-0.198242,-0.113281,1468766334559
395213387,0.88916,-0.336914,-0.126465,1468766334581
395227811,0.67627,-0.272949,-0.299316,1468766334596
395259095,0.728516,-0.125,-0.65332,1468766334627
395273462,0.625,0.393066,-0.304688,1468766334642
395287748,0.411133,-0.141602,-0.440918,1468766334656
395310084,0.217285,-0.286133,-0.400879,1468766334678
395333298,0.19043,-0.619629,-0.265137,1468766334701
395347773,0.688965,-1.03955,-0.152832,1468766334716
395370136,1.21338,-0.717773,1.17041,1468766334738
395393298,2.51367,-0.32373,1.05176,1468766334761
395407601,2.53076,0.865723,-0.0629883,1468766334775
395430178,1.13477,0.125,-0.913574,1468766334798
395453386,0.681641,-0.598145,-0.597656,1468766334821
395467652,1.19434,-0.581543,-0.152344,1468766334836
395490239,1.27246,-0.46875,-0.0522461,1468766334858
395513448,1.50977,-0.319336,-0.00927734,1468766334881
395527768,1.79834,-0.216309,-0.0463867,1468766334896
395550249,1.55273,0.00732422,-0.19873,1468766334918
395573390,1.33643,0.369141,-0.090332,1468766334941
395587819,1.48389,0.273438,0.193359,1468766334956
395610175,0.563965,-0.166016,0.0917969,1468766334978
395633287,0.583008,-0.535645,0.104492,1468766335001
395647652,0.86377,-0.793457,-0.174805,1468766335016
395670248,1.24365,-0.775879,-0.52832,1468766335038
395693095,1.28955,-0.722168,-0.600098,1468766335061
395707740,1.21289,-0.620117,-0.402344,1468766335076
395730210,0.992188,-0.52002,-0.145508,1468766335098
395753378,0.750488,-0.373535,0.137695,1468766335121
395767745,0.400391,-0.227051,0.19873,1468766335136
395790239,0.130371,-0.141602,0.209473,1468766335158
395812693,-0.167969,-0.00634766,0.213379,1468766335181
395827742,-0.229492,0.123047,0.050293,1468766335196
395850251,0.0317383,0.179688,-0.0439453,1468766335218
395872766,0.376465,0.174316,-0.0317383,1468766335241
395895816,0.699219,0.0151367,-0.0834961,1468766335264
395910157,0.947754,-0.193848,-0.0234375,1468766335278
395932744,1.22803,-0.189941,-0.240234,1468766335301
395947793,1.27051,-0.40625,-0.609863,1468766335316
395970212,1.20361,-0.519043,-0.708984,1468766335338
395992675,0.785156,-0.477539,-0.640137,1468766335361
396007730,0.505371,-0.523438,-0.855957,1468766335376
396030313,0.231445,-1.26367,-1.43652,1468766335398
396052775,0.819336,-1.29443,-0.302734,1468766335421
396067655,0.548828,1.48193,0.666504,1468766335435
396091581,1.30908,0.185059,0.431641,1468766335459
396112646,2.28906,-1.96729,0.140625,1468766335481
396127741,0.473633,-0.186523,0.015625,1468766335496
396150252,2.44873,0.450684,-0.585449,1468766335518
396172687,2.52441,-0.157715,-0.0380859,1468766335541
396187688,2.06934,0.00244141,0.104492,1468766335556
396210266,2.08594,-0.0244141,0.312012,1468766335578
396232797,1.91602,0.128906,0.529785,1468766335601
396247802,1.60156,0.229492,0.737305,1468766335616
396270229,0.538086,0.168945,0.663086,1468766335638
396292727,0.365723,-1.17725,-0.882812,1468766335661
396307833,0.709961,-1.18555,-0.815918,1468766335676
396330305,0.642578,-1.12891,-0.901855,1468766335698
396352763,0.908691,-0.691895,-0.679199,1468766335721
396377296,1.13721,-0.0703125,-0.467773,1468766335745
396390107,1.06152,0,-0.0961914,1468766335758
396412730,0.813965,-0.0478516,0.0327148,1468766335781
396427783,0.668457,-0.0981445,0.0620117,1468766335796
396450206,0.453613,-0.0869141,0.0712891,1468766335818
396472669,0.155273,-0.146973,0.255859,1468766335841
396487659,-0.109863,-0.22168,0.305176,1468766335856
396510173,-0.119141,-0.226562,0.290527,1468766335878
396532814,-0.03125,-0.12207,0.181152,1468766335901
396549059,0.164062,-0.0234375,0.122559,1468766335917
396570271,0.519531,-0.00292969,-0.0229492,1468766335938
396592785,0.891602,0.0146484,-0.309082,1468766335961
396609105,1.1958,-0.423828,-0.430664,1468766335977
396630239,1.45898,-0.52832,-0.538086,1468766335998
396652650,1.38086,-0.488281,-1.1748,1468766336021
396669166,0.610352,-0.662109,-1.21094,1468766336037
396690226,0.749023,-0.405762,-1.17871,1468766336058
396712759,0.712891,-0.424805,-1.10645,1468766336081
396729128,0.591309,0.502441,0.194824,1468766336097
396750250,0.652344,0.209961,1.04688,1468766336118
396772769,1.65576,-1.03857,0.422852,1468766336141
396796606,1.82422,-1.01514,0.717285,1468766336164
396818275,1.11816,-0.138184,0.133789,1468766336186
396832740,2.05615,-0.169922,-0.242676,1468766336201
396849067,2.24805,-0.157227,0.0532227,1468766336217
396870277,2.11328,-0.385254,0.402832,1468766336238
396892692,1.83203,-0.0327148,0.528809,1468766336261
396909118,1.44824,0.0839844,0.40625,1468766336277
396930321,1.22412,0.0395508,0.433594,1468766336298
396952837,0.804688,0.322266,0.499512,1468766336321
396969121,0.780273,0.074707,0.0327148,1468766336337
396990266,0.574707,-0.479004,-0.195312,1468766336358
397012792,0.791504,-0.558594,0.097168,1468766336381
397029046,0.891113,-0.305176,0.0219727,1468766336397
397050254,0.945312,-0.431152,-0.164551,1468766336418
397072611,0.993164,-0.275879,-0.365723,1468766336440
397089110,0.946289,-0.330566,-0.492188,1468766336457
397110284,0.78418,-0.191406,-0.0112305,1468766336478
397132798,0.289551,-0.17041,0.113281,1468766336501
397149137,0.155273,-0.200684,0.0805664,1468766336517
397170264,-0.0166016,-0.276855,0.0849609,1468766336538
397192843,-0.163574,-0.361328,0.0566406,1468766336561
397209098,0.0239258,-0.291504,-0.204102,1468766336577
397230282,0.187012,-0.447266,-0.509766,1468766336598
397252710,0.615723,-0.500488,-0.657715,1468766336621
397269101,1.02686,-0.829102,-0.823242,1468766336637
397290271,1.5791,-0.907715,-0.969727,1468766336658
397312786,1.30078,-0.835449,-1.04932,1468766336681
397329015,0.890137,-0.506836,-1.26172,1468766336697
397350286,0.754883,-0.12207,-1.06836,1468766336718
397372752,0.609863,0.371582,0.012207,1468766336741
397389164,0.0585938,0.422363,0.750977,1468766336757
397410313,0.691895,0.266113,0.40918,1468766336778
397432775,1.50635,-0.931152,-0.354004,1468766336801
397449078,1.65332,-0.112305,0.218262,1468766336817
397478277,0.950684,-0.0732422,0.12793,1468766336846
397492731,1.0752,-0.616211,-0.0576172,1468766336861
397509115,1.53955,-0.817871,0.290527,1468766336877
397531560,1.98877,-0.333984,0.530273,1468766336899
397560972,1.97119,-0.0361328,0.163086,1468766336929
397569070,1.57812,0.146973,0.0722656,1468766336937
397591616,1.4375,0.173828,0.0205078,1468766336959
397612810,1.29883,0.185059,0.170898,1468766336981
397629083,0.888672,-0.0395508,0.185547,1468766336997
397651555,0.523438,-0.513184,-0.10791,1468766337019
397672759,0.597656,-1.02295,-0.104004,1468766337041
397689127,1.13428,-0.838379,-0.0917969,1468766337057
397711584,1.6665,-0.925293,-0.680664,1468766337079
397732775,1.78223,-0.932617,-0.584473,1468766337101
397749119,1.25391,-0.799805,-0.385254,1468766337117
397771654,0.82666,-0.324707,-0.0375977,1468766337139
397792770,0.355469,-0.059082,-0.0214844,1468766337161
397809145,-0.00634766,0.0576172,0.012207,1468766337177
397831629,-0.214355,0.123535,0.0546875,1468766337199
397852795,-0.298828,0.17627,0.155273,1468766337221
397869112,-0.220703,0.123535,0.065918,1468766337237
397891645,-0.0424805,0.279785,-0.130371,1468766337259
397912775,0.299805,0.251465,-0.327148,1468766337281
397929092,0.686035,0.00927734,-0.40918,1468766337297
397951610,1.04541,-0.0839844,-0.57959,1468766337319
397972851,1.38037,-0.324707,-0.808594,1468766337341
397989029,1.12451,-0.461914,-1.14941,1468766337357
398011588,0.927734,-0.793945,-1.34375,1468766337379
398032659,0.900391,-0.416992,-0.262207,1468766337400
398056629,0.405762,0.0419922,0.412598,1468766337424
398071684,0.578125,-0.12207,0.970215,1468766337439
398095565,1.2373,-0.542969,0.337402,1468766337463
398116575,1.54883,-0.417969,0.699219,1468766337484
398131626,1.3374,-0.490234,0.323242,1468766337499
398152804,1.75049,-0.121582,-0.105957,1468766337521
398169090,1.77002,-0.203613,-0.328613,1468766337537
398191660,1.89014,-0.121582,-0.00927734,1468766337559
398212737,2.01611,-0.078125,0.165527,1468766337581
398228318,1.75342,0.078125,0.167969,1468766337596
398252286,1.60889,0.106445,0.212891,1468766337620
398282270,1.25,0.11377,0.174805,1468766337650
398288367,0.628418,-0.0986328,0.174316,1468766337656
398310759,0.461914,-0.479004,0.339355,1468766337679
398333287,0.533203,-0.918457,0.131836,1468766337701
398348348,0.880371,-0.828613,-0.133301,1468766337716
398370972,1.01367,-0.527832,-0.363281,1468766337739
398393128,0.994629,-0.386719,-0.36084,1468766337761
398411181,0.851074,-0.303711,-0.271484,1468766337779
398430965,0.642578,-0.28125,-0.243164,1468766337799
398453364,0.602051,-0.304199,-0.0703125,1468766337821
398468503,0.362305,-0.336914,-0.0776367,1468766337837
398490784,0.211914,-0.171387,-0.0571289,1468766337858
398513290,0.120117,-0.0737305,-0.0405273,1468766337881
398528466,0.176758,-0.166992,-0.128418,1468766337896
398550812,0.444336,-0.142578,-0.122559,1468766337919
398573340,0.799805,-0.322754,-0.17627,1468766337941
398588258,1.19775,-0.477539,-0.342285,1468766337956
398610898,1.56348,-0.810547,-0.390625,1468766337979
398633314,1.38135,-1.05176,-0.924805,1468766338001
398649734,1.16992,-0.718262,-1.35107,1468766338017
398672371,1.1665,0.111816,-0.524414,1468766338040
398693446,0.0893555,0.317871,0.0141602,1468766338061
398709816,0.294434,0.549316,0.751953,1468766338077
398730836,0.366211,-0.21875,-0.100586,1468766338099
398753438,0.833008,-1.1709,-0.568359,1468766338121
398769742,0.886719,-0.467285,0.17041,1468766338137
398790837,0.868164,-0.339844,0.328125,1468766338159
398813473,1.30469,-0.658691,0.212402,1468766338181
398829730,1.78418,-0.169922,0.0258789,1468766338197
398850994,2.08887,0.0410156,0.081543,1468766338219
398873394,2.18359,0.116211,0.198242,1468766338241
398889793,2.10107,0.319824,0.380859,1468766338258
398911031,1.91846,0.437988,0.442383,1468766338279
398933549,1.47217,0.560059,0.34668,1468766338302
398949835,0.682129,0.453613,0.646973,1468766338318
398971018,0.65918,0.258789,0.304199,1468766338339
398993319,0.640137,-0.947266,-0.409668,1468766338361
399009803,1.00879,-1.53369,-0.581055,1468766338378
399030969,1.1084,-0.864746,-0.618652,1468766338399
399053526,1.01318,-0.251953,-0.47168,1468766338422
399069879,0.927246,-0.277832,-0.478027,1468766338438
399090930,0.936035,-0.431152,-0.165527,1468766338459
399113336,0.76416,-0.316895,0.0249023,1468766338481
399129791,0.445801,-0.383789,0.0224609,1468766338497
399152395,0.220215,-0.248535,0.00341797,1468766338520
399173471,-0.0356445,-0.139648,0.0649414,1468766338541
399189887,-0.153809,-0.123535,0.0180664,1468766338558
399210948,-0.139648,-0.0961914,-0.0839844,1468766338579
399233444,0.0791016,-0.376465,-0.160645,1468766338601
399249797,0.29834,-0.59668,-0.0849609,1468766338618
399271014,0.666992,-0.79834,-0.114258,1468766338639
399293540,1.13916,-0.683105,-0.380371,1468766338662
399309845,1.30811,-0.603027,-0.601074,1468766338678
399331042,1.10889,-0.409668,-0.852051,1468766338699
399353568,0.925781,-0.224609,-0.927734,1468766338722
399369123,0.750977,-0.351074,-0.741699,1468766338737
399391001,0.535645,-0.564941,0.0581055,1468766338759
399420970,0.541992,-0.132324,0.259277,1468766338789
399429174,1.18164,0.289062,0.185059,1468766338797
399450858,1.45703,-0.0854492,0.312988,1468766338819
399481060,1.1958,0.000488281,0.228027,1468766338849
399489177,1.59814,-0.407227,0.161133,1468766338857
399510791,1.90625,0.00683594,-0.123535,1468766338879
399533534,1.74512,-0.182129,-0.0771484,1468766338901
399549209,1.7998,-0.0361328,0.0327148,1468766338917
399572319,1.77051,0.161133,0.162598,1468766338940
399600970,1.73242,0.187988,0.150879,1468766338969
399609120,1.22119,0.0703125,0.316406,1468766338977
399632222,0.860352,0.078125,0.48291,1468766339000
399653347,0.578613,-0.181152,0.259277,1468766339021
399669183,0.532227,-0.870117,-0.244629,1468766339037
399692311,0.874512,-0.876953,-0.40625,1468766339060
399713523,0.919922,-0.809082,-0.375977,1468766339081
399729224,1.03857,-0.485352,-0.545898,1468766339097
399752287,1.28271,-0.189941,-0.338867,1468766339120
399773261,1.11816,-0.370117,-0.233887,1468766339141
399789087,0.887207,-0.523926,-0.134766,1468766339157
399812244,0.458984,-0.449219,0.0561523,1468766339180
399833268,0.125,-0.30127,0.0161133,1468766339201
399849104,-0.133301,-0.262207,0.0878906,1468766339217
399872223,-0.245605,-0.39502,-0.0214844,1468766339240
399893245,-0.129395,-0.379395,-0.231445,1468766339261
399909043,0.231934,-0.275879,-0.400391,1468766339277
399932243,0.603516,-0.433105,-0.369629,1468766339300
399953312,1.02441,-0.348145,-0.401367,1468766339321
399969121,1.34082,0.197754,-0.77002,1468766339337
399992341,1.31836,0.239746,-0.79541,1468766339360
400013522,1.0752,-0.118164,-0.489746,1468766339382
400029173,0.453125,-0.439941,-0.322754,1468766339397
400052333,0.540527,-0.921387,-0.00439453,1468766339420
400073576,0.554199,-0.220215,-0.333984,1468766339442
400089184,1.07471,0.35498,-0.290527,1468766339457
400112327,1.12842,0.388672,0.186523,1468766339480
400133455,1.03027,-0.552246,0.232422,1468766339501
400149101,1.47021,-0.881836,0.533203,1468766339517
400172334,2.20361,-0.317871,0.497559,1468766339540
400193517,1.9458,-0.0185547,0.0458984,1468766339561
400209171,1.7832,-0.254395,-0.158691,1468766339577
400232321,1.59912,-0.0649414,-0.105957,1468766339600
400253532,1.68311,0.117676,0.0693359,1468766339622
400269112,1.63525,0.0678711,0.132324,1468766339637
400292279,1.16699,0.185059,0.501953,1468766339660
400313576,0.749023,0.216309,0.0185547,1468766339682
400329116,0.382812,0.0078125,-0.234375,1468766339697
400351665,0.640625,-0.642578,-0.376465,1468766339719
400373410,0.828613,-0.939941,-0.410645,1468766339741
400389151,0.720215,-0.459473,-0.736816,1468766339757
400411697,1.02881,-0.668945,-0.17334,1468766339779
400433545,0.87793,-0.328613,-0.356934,1468766339802
400449180,0.883789,-0.306641,-0.289551,1468766339817
400471652,0.711914,-0.143555,-0.0966797,1468766339839
400494745,0.354492,-0.341309,-0.211914,1468766339862
400509202,0.21582,-0.383789,-0.117676,1468766339877
400532117,0.161621,-0.468262,-0.0844727,1468766339900
400554887,0.255859,-0.556641,-0.139648,1468766339923
400576024,0.386719,-0.52002,-0.232422,1468766339944
400591725,0.54541,-0.36084,-0.314941,1468766339959
400614768,0.741211,-0.333496,-0.215332,1468766339982
400629235,0.919434,-0.695801,-0.19873,1468766339997
400651610,1.0957,-0.703125,-0.508789,1468766340019
400674871,1.09033,-0.564941,-1.14209,1468766340043
400689185,0.951172,-0.315918,-0.590332,1468766340057
400718531,0.246094,0.734375,0.0976562,1468766340087
400734841,0.279297,0.428223,0.12793,1468766340103
400749197,0.82666,-0.63916,-0.583984,1468766340117
400771589,1.35254,-0.357422,0.090332,1468766340139
400794729,0.918945,-0.632324,0.141113,1468766340162
400816035,0.581055,-0.960449,0.820801,1468766340184
400831759,1.67773,-0.52002,0.328613,1468766340199
400854847,2.33643,0.625488,-0.700684,1468766340223
400875952,1.84131,0.245117,-0.560547,1468766340244
400891675,1.05908,-0.436523,-0.3125,1468766340259
400914764,0.944336,-0.39209,-0.453613,1468766340282
400936026,1.05518,-0.486328,-0.255371,1468766340304
400951715,1.17188,-0.330078,-0.127441,1468766340319
400974859,1.05811,-0.304199,-0.196777,1468766340343
400996033,0.986328,-0.208008,-0.144043,1468766340364
401011729,0.999512,-0.101074,0.0322266,1468766340379
401034874,0.785645,-0.265625,-0.0166016,1468766340403
401056055,0.611328,-0.151367,-0.0288086,1468766340424
401071709,0.628906,-0.166504,0.0649414,1468766340439
401094843,0.701172,-0.222656,0.019043,1468766340463
401115889,0.854492,-0.113281,0.15625,1468766340484
401131654,1.07812,-0.0898438,0.326172,1468766340499
401154828,1.41846,0.0107422,0.229004,1468766340523
401175977,1.87012,0.0522461,0.262695,1468766340544
401191739,1.91943,-0.0336914,0.557617,1468766340560
401214894,1.59131,-0.325195,-0.0214844,1468766340583
401236007,1.25537,-0.175293,-0.179199,1468766340604
401251658,0.907715,-0.394043,-0.204102,1468766340619
401274100,0.810059,-0.222656,-0.188477,1468766340642
401295813,0.713867,-0.21582,-0.059082,1468766340663
401311594,0.558594,-0.242676,-0.0458984,1468766340679
401334089,0.481445,-0.14209,-0.00341797,1468766340702
401355785,0.495605,-0.0839844,-0.065918,1468766340724
401371582,0.532715,-0.0463867,-0.117676,1468766340739
401394231,0.608887,-0.090332,-0.230957,1468766340762
401416028,0.648926,-0.0722656,-0.310547,1468766340784
401431571,0.675293,-0.10791,-0.351562,1468766340799
