myot,myox,myoy,myoz
1455125157,myox,myoy,myoz
281110850230,0.894531,-0.251465,0.270996
281110868738,0.897949,-0.257324,0.27002
281110889406,0.908691,-0.263184,0.270996
281110911622,0.915527,-0.273438,0.272461
281110928721,0.919434,-0.272949,0.264648
281110955874,0.913574,-0.260742,0.269531
281110970875,0.902344,-0.257812,0.268066
281111000299,0.904297,-0.261719,0.274414
281111010785,0.914551,-0.268066,0.272461
281111030318,0.914551,-0.257324,0.272949
281111044699,0.911133,-0.253906,0.271484
281111067794,0.90625,-0.251953,0.271484
281111090216,0.902832,-0.257324,0.266113
281111104660,0.908691,-0.26123,0.267578
281111127778,0.908691,-0.254883,0.261719
281111150459,0.902344,-0.256348,0.264648
281111164637,0.901855,-0.249023,0.266113
281111187935,0.897949,-0.25293,0.263184
281111210293,0.901367,-0.256348,0.26123
281111224757,0.910156,-0.260742,0.265137
281111247960,0.917969,-0.257324,0.26416
281111270401,0.911621,-0.244629,0.268066
281111284655,0.901855,-0.240723,0.270996
281111307745,0.898926,-0.248535,0.269043
281111330258,0.902344,-0.250977,0.266113
281111344650,0.90332,-0.256836,0.269531
281111367105,0.914062,-0.25293,0.27002
281111390309,0.916992,-0.259277,0.266602
281111404637,0.912598,-0.255859,0.269531
281111427074,0.90918,-0.254883,0.276367
281111450432,0.908203,-0.257324,0.268555
281111464809,0.908691,-0.25293,0.26416
281111487319,0.914062,-0.256836,0.26709
281111510416,0.913086,-0.250488,0.268555
281111532861,0.911621,-0.24707,0.268555
281111547246,0.912109,-0.25,0.265137
281111570490,0.91748,-0.258789,0.263672
281111584786,0.918945,-0.257812,0.268555
281111615536,0.917969,-0.255859,0.257812
281111630449,0.915039,-0.249023,0.262207
281111646131,0.914062,-0.250488,0.254395
281111667281,0.919922,-0.247559,0.254883
281111690422,0.919434,-0.23877,0.255859
281111706173,0.928711,-0.234375,0.257812
281111727149,0.933594,-0.228516,0.257812
281111750350,0.928223,-0.232422,0.256836
281111766189,0.924805,-0.227539,0.259766
281111788626,0.920898,-0.22998,0.258789
281111810405,0.923828,-0.224121,0.26709
281111834264,0.92627,-0.21875,0.266602
281111847294,0.932617,-0.218262,0.262207
281111870517,0.943359,-0.20752,0.267578
281111886159,0.942871,-0.196289,0.26123
281111907299,0.940918,-0.183594,0.265625
281111930470,0.922852,-0.1875,0.274414
281111946063,0.921875,-0.203125,0.263184
281111967317,0.916992,-0.206055,0.264648
281111989817,0.916504,-0.199219,0.262207
281112006207,0.919922,-0.198242,0.266602
281112027309,0.91748,-0.197754,0.26709
281112049827,0.914062,-0.203613,0.26123
281112066076,0.909668,-0.20459,0.258301
281112088636,0.909668,-0.205566,0.25293
281112109821,0.906738,-0.20166,0.250977
281112126163,0.896484,-0.196777,0.234375
281112147348,0.899414,-0.185547,0.239746
281112169873,0.897949,-0.188477,0.236816
281112186259,0.901855,-0.185059,0.230957
281112207228,0.908691,-0.18457,0.220215
281112229705,0.931152,-0.183594,0.209961
281112246196,0.972656,-0.19043,0.208496
281112267293,1.00293,-0.20166,0.211914
281112289824,1.00049,-0.199707,0.214355
281112306171,0.976562,-0.196289,0.208496
281112327345,0.970215,-0.192383,0.216797
281112349866,0.971191,-0.189453,0.219727
281112367617,0.962891,-0.1875,0.221191
281112387366,0.962891,-0.188965,0.214844
281112409660,0.955566,-0.186523,0.212891
281112426147,0.945312,-0.174805,0.203125
281112447153,0.939453,-0.16748,0.192383
281112469679,0.940918,-0.174316,0.195801
281112486067,0.937012,-0.179199,0.192383
281112507153,0.938477,-0.173828,0.177734
281112529633,0.945312,-0.164062,0.15625
281112546096,0.955078,-0.168457,0.151367
281112567124,0.956543,-0.15918,0.151367
281112589663,0.945801,-0.13916,0.164551
281112606119,0.94043,-0.118652,0.18457
281112628627,0.925781,-0.120605,0.202148
281112649597,0.925781,-0.14502,0.217773
281112666119,0.932129,-0.169434,0.232422
281112688577,0.941406,-0.163086,0.231934
281112709659,0.946777,-0.152344,0.236328
281112726085,0.948242,-0.145508,0.240234
281112748636,0.943359,-0.13623,0.227051
281112769697,0.930664,-0.125488,0.226074
281112786152,0.929688,-0.117676,0.203613
281112808586,0.931641,-0.105469,0.203613
281112829662,0.935547,-0.118164,0.191895
281112846116,0.942871,-0.126465,0.185547
281112868587,0.945312,-0.128906,0.17041
281112889653,0.952637,-0.117188,0.161133
281112906132,0.952148,-0.103516,0.16748
281112928600,0.943848,-0.0976562,0.164551
281112949670,0.955566,-0.0986328,0.164551
281112966126,0.965332,-0.104004,0.162598
281112988642,0.977539,-0.105957,0.165527
281113009652,0.968262,-0.0981445,0.169434
281113026089,0.947266,-0.0825195,0.177246
281113050039,0.931152,-0.0742188,0.184082
281113069696,0.950684,-0.0849609,0.189941
281113086148,0.96875,-0.101562,0.178711
281113108651,0.97998,-0.104004,0.183105
281113129683,0.975586,-0.0986328,0.175293
281113152199,0.960449,-0.0947266,0.169922
281113176091,0.944824,-0.0825195,0.165527
281113189681,0.950195,-0.0986328,0.172363
281113206094,0.974609,-0.108398,0.17041
281113228616,0.975098,-0.104492,0.176758
281113249680,0.963867,-0.0947266,0.177246
281113266116,0.952637,-0.0849609,0.182129
281113288648,0.947266,-0.0947266,0.182129
281113309678,0.954102,-0.121094,0.189941
281113326126,0.958496,-0.12793,0.191406
281113348612,0.958984,-0.125,0.181641
281113369631,0.953125,-0.117188,0.183594
281113386112,0.94873,-0.118164,0.1875
281113408593,0.95166,-0.131348,0.193359
281113429631,0.966309,-0.137695,0.191406
281113446131,0.966309,-0.132812,0.179688
281113468586,0.964844,-0.121582,0.175293
281113492598,0.956543,-0.112305,0.177734
281113506079,0.956055,-0.108398,0.179199
281113528635,0.952637,-0.109375,0.187012
281113558459,0.955078,-0.106934,0.179199
281113565367,0.959961,-0.106445,0.182617
281113587865,0.964844,-0.11084,0.185059
281113610364,0.961914,-0.109863,0.178711
281113626772,0.953125,-0.10791,0.183105
281113647815,0.95166,-0.109863,0.193848
281113670323,0.955078,-0.126953,0.193848
281113685304,0.959961,-0.141602,0.19043
281113707839,0.955566,-0.138672,0.188477
281113730336,0.956055,-0.120117,0.182617
281113746765,0.950195,-0.103516,0.182129
281113767811,0.944336,-0.10791,0.178711
281113790359,0.952148,-0.109375,0.179199
281113806783,0.975098,-0.10791,0.179199
281113827831,0.97168,-0.115723,0.177246
281113850365,0.963867,-0.110352,0.17334
281113866790,0.952148,-0.101074,0.17627
281113887865,0.953613,-0.101074,0.179688
281113910329,0.95459,-0.12207,0.187988
281113926765,0.961914,-0.135254,0.192383
281113947840,0.952637,-0.133301,0.192871
281113970314,0.938477,-0.12793,0.193848
281113986785,0.931152,-0.131348,0.201172
281114007835,0.929199,-0.131836,0.198242
281114030337,0.940918,-0.140137,0.195801
281114046785,0.948242,-0.146973,0.19043
281114067842,0.950195,-0.141113,0.183105
281114090315,0.947266,-0.125977,0.173828
281114106737,0.945801,-0.120605,0.174316
281114127832,0.951172,-0.12207,0.172852
281114150370,0.964844,-0.125,0.178711
281114166803,0.967773,-0.118164,0.171875
281114187825,0.96875,-0.114258,0.17334
281114210341,0.955566,-0.118164,0.187988
281114226759,0.945801,-0.123535,0.187012
281114247916,0.953613,-0.125,0.191406
281114270414,0.957031,-0.121094,0.20166
281114286785,0.973145,-0.126953,0.199219
281114307817,0.970703,-0.130859,0.193848
281114330330,0.950195,-0.128906,0.178223
281114346765,0.930664,-0.125,0.179199
281114367838,0.914551,-0.128418,0.169922
281114390384,0.925781,-0.14502,0.177734
281114406789,0.941406,-0.156738,0.192383
281114427872,0.9375,-0.158203,0.201172
281114450342,0.935547,-0.148438,0.208984
281114466770,0.931152,-0.142578,0.208984
281114487851,0.937012,-0.150879,0.222656
281114510392,0.935547,-0.166992,0.215332
281114526187,0.941406,-0.171875,0.218262
281114547909,0.931152,-0.164551,0.219727
281114570383,0.929688,-0.166504,0.222168
281114586137,0.928223,-0.162598,0.22998
281114607887,0.929688,-0.166992,0.236816
281114630395,0.943359,-0.183594,0.244141
281114646141,0.956055,-0.199219,0.25
281114667860,0.95166,-0.214355,0.255371
281114690342,0.936523,-0.205078,0.247559
281114706141,0.923828,-0.189453,0.246094
281114729286,0.930176,-0.185547,0.237793
281114750319,0.940918,-0.177246,0.222168
281114766084,0.938965,-0.147949,0.20166
281114789438,0.939941,-0.130859,0.1875
281114810408,0.976074,-0.133301,0.182617
281114826232,1.00928,-0.165039,0.17334
281114849322,1.01758,-0.205566,0.167969
281114870439,0.981934,-0.213867,0.171875
281114886245,0.923828,-0.201172,0.17627
281114909376,0.888672,-0.212402,0.176758
281114930598,0.883301,-0.235352,0.175293
281114946273,0.914551,-0.249512,0.175781
281114969480,0.936523,-0.255859,0.166504
281114990583,0.940918,-0.240723,0.158203
281115006207,0.924316,-0.216797,0.158691
281115029350,0.902832,-0.213867,0.147949
281115050557,0.910156,-0.222168,0.140625
281115074390,0.916992,-0.223145,0.126953
281115089409,0.922363,-0.21875,0.113281
281115110301,0.939941,-0.21582,0.0961914
281115126163,0.990234,-0.234375,0.0854492
281115149303,1.05127,-0.247559,0.0732422
281115170428,1.05225,-0.250488,0.0776367
281115186138,0.999023,-0.239258,0.081543
281115209290,0.945801,-0.234863,0.0878906
281115230343,0.913086,-0.258789,0.0839844
281115246115,0.923828,-0.291992,0.0844727
281115269425,0.94043,-0.303223,0.074707
281115290701,0.970703,-0.290039,0.0693359
281115306236,0.970703,-0.268066,0.0717773
281115329342,0.949219,-0.255371,0.074707
281115350524,0.932617,-0.26123,0.078125
281115366167,0.9375,-0.28125,0.0795898
281115389129,0.956055,-0.298828,0.0698242
281115418074,0.96582,-0.31543,0.0732422
281115426210,0.968262,-0.302734,0.0854492
281115448710,0.942383,-0.283691,0.0917969
281115470422,0.92334,-0.282715,0.100098
281115486168,0.911133,-0.311523,0.111816
281115508651,0.899902,-0.322754,0.119629
281115530381,0.898926,-0.322266,0.125977
281115546158,0.894531,-0.318359,0.13623
281115568643,0.921387,-0.328125,0.15918
281115590542,0.939941,-0.333008,0.168945
281115606276,0.944336,-0.303711,0.17627
281115628781,0.946289,-0.288086,0.166992
281115652274,0.968262,-0.295898,0.175781
281115666205,1.01123,-0.324707,0.174805
281115696934,1.00879,-0.337402,0.179199
281115711851,0.958984,-0.335938,0.191895
281115726215,0.887207,-0.313965,0.212402
281115748731,0.833496,-0.310547,0.222656
281115771794,0.815918,-0.337402,0.234863
281115786329,0.82373,-0.369141,0.236816
281115808743,0.860352,-0.379883,0.240234
281115831876,0.878906,-0.375977,0.239258
281115846237,0.875977,-0.333008,0.252441
281115868728,0.857422,-0.296875,0.256348
281115892351,0.837891,-0.285645,0.270508
281115906278,0.818848,-0.294434,0.28418
281115929086,0.814453,-0.320801,0.29834
281115951842,0.851562,-0.344238,0.306641
281115974319,0.886719,-0.348145,0.302246
281115988663,0.901367,-0.315918,0.30127
281116011786,0.894043,-0.291504,0.313965
281116032934,0.859375,-0.28125,0.310059
281116048785,0.842773,-0.286133,0.319336
281116071903,0.845703,-0.298828,0.312012
281116093070,0.864258,-0.307617,0.300781
281116108650,0.882324,-0.302734,0.29834
281116131837,0.904297,-0.296387,0.307129
281116152906,0.910156,-0.285645,0.306641
281116168763,0.914062,-0.268555,0.302734
281116191909,0.911133,-0.26123,0.307129
281116213013,0.915039,-0.259766,0.303711
281116229204,0.916016,-0.267578,0.302734
281116251828,0.925293,-0.271973,0.304688
281116272864,0.927734,-0.275391,0.30127
281116288743,0.920898,-0.263672,0.299805
281116311833,0.897949,-0.258789,0.305664
281116340404,0.888672,-0.270996,0.309082
281116348960,0.885254,-0.291016,0.310059
281116371966,0.883789,-0.302734,0.302246
281116392967,0.883789,-0.30127,0.311523
281116408666,0.885742,-0.293945,0.299805
281116431305,0.898926,-0.29834,0.304199
281116453045,0.905273,-0.29541,0.296387
281116468772,0.90332,-0.279785,0.297852
281116491286,0.88916,-0.260742,0.286621
281116512900,0.884277,-0.252441,0.282715
281116529140,0.884766,-0.260742,0.296875
281116551179,0.888672,-0.27002,0.299316
281116572901,0.890137,-0.273438,0.303711
281116588777,0.893066,-0.271973,0.305176
281116611159,0.89502,-0.26123,0.310547
281116634419,0.894043,-0.249512,0.316895
281116648745,0.895996,-0.245117,0.334473
281116671255,0.890625,-0.243164,0.333008
281116694543,0.898926,-0.250977,0.327148
281116708848,0.899902,-0.246582,0.311523
281116731262,0.905762,-0.254883,0.300293
281116761962,0.898438,-0.257324,0.297852
281116768778,0.892578,-0.255371,0.292969
281116791208,0.879883,-0.259766,0.290039
281116814411,0.887695,-0.26416,0.288574
281116828809,0.888672,-0.274414,0.28418
281116851239,0.898926,-0.28418,0.288086
281116874358,0.900879,-0.281738,0.305664
281116888745,0.910156,-0.27002,0.309082
281116911251,0.919434,-0.278809,0.317871
281116934404,0.910156,-0.290527,0.323242
281116948861,0.901367,-0.310547,0.328125
281116971188,0.960938,-0.321289,0.343262
281116994428,0.936035,-0.271484,0.34082
281117015654,1.00098,-0.362793,0.307617
281117031276,0.98877,-0.463379,0.34082
281117061980,0.989258,-0.51709,0.365234
281117082902,0.95459,-0.522461,0.374512
281117091256,0.930176,-0.556641,0.399902
281117104780,0.885742,-0.600098,0.412109
281117127234,0.838867,-0.640137,0.437988
281117150390,0.803711,-0.673828,0.469238
281117165024,0.751465,-0.705566,0.472656
281117187489,0.697266,-0.738281,0.478027
281117210598,0.620605,-0.724121,0.471191
281117224831,0.590332,-0.716797,0.499023
281117247442,0.576172,-0.76416,0.536621
281117270599,0.535156,-0.739258,0.552734
281117284904,0.460938,-0.705566,0.534668
281117307495,0.409668,-0.674316,0.520996
281117330436,0.348145,-0.660645,0.530762
281117344766,0.36377,-0.685547,0.572266
281117367215,0.293457,-0.657715,0.586914
281117390400,0.186035,-0.638672,0.564941
281117404782,0.211426,-0.643066,0.546875
281117427226,0.174805,-0.62207,0.570801
281117450457,0.081543,-0.564941,0.589844
281117464986,0.0380859,-0.632324,0.625
281117487499,0.000976562,-0.682617,0.598145
281117510541,0.00878906,-0.680664,0.58252
281117524766,-0.0273438,-0.625,0.591309
281117547277,-0.0859375,-0.589844,0.57959
281117570498,-0.133789,-0.581543,0.607422
281117592942,-0.142578,-0.620117,0.617188
281117607333,-0.0957031,-0.617188,0.672363
281117638556,-0.108887,-0.616211,0.676758
281117644748,-0.135742,-0.609375,0.65625
281117667270,-0.101562,-0.581543,0.682129
281117690411,-0.0678711,-0.648926,0.735352
281117704755,-0.0112305,-0.708984,0.750977
281117727374,0.0410156,-0.699219,0.794434
281117750561,0.0131836,-0.66748,0.800293
281117764817,-0.0449219,-0.699707,0.786621
281117787281,-0.100586,-0.708984,0.781738
281117810577,-0.125,-0.703125,0.773438
281117824783,-0.100098,-0.729492,0.789062
281117847417,-0.0922852,-0.746582,0.772949
281117870521,-0.107422,-0.680664,0.760742
281117884993,-0.116699,-0.618652,0.728516
281117916098,-0.100586,-0.644043,0.699707
281117930489,-0.081543,-0.655273,0.703613
281117944750,-0.0585938,-0.62793,0.716797
281117967274,-0.0444336,-0.65918,0.740234
281117990685,-0.0610352,-0.6875,0.734375
281118004808,-0.0947266,-0.677246,0.719727
281118027466,-0.0913086,-0.686035,0.711426
281118050606,-0.0722656,-0.701172,0.730957
281118066315,-0.0375977,-0.712891,0.763184
281118087435,-0.0512695,-0.709961,0.755371
281118110584,-0.0917969,-0.692871,0.735352
281118126241,-0.131348,-0.619629,0.700684
281118147432,-0.0932617,-0.649414,0.721191
281118170395,-0.0888672,-0.682129,0.724609
281118192938,-0.108398,-0.68457,0.725098
281118207289,-0.11377,-0.679199,0.712402
281118230437,-0.106934,-0.668457,0.73584
281118244965,-0.0751953,-0.730469,0.771484
281118267287,-0.0791016,-0.703125,0.770996
281118290584,-0.0932617,-0.699219,0.75293
281118304813,-0.0859375,-0.708984,0.744629
281118327268,-0.0766602,-0.694336,0.723145
281118350650,-0.0527344,-0.701172,0.734863
281118364982,-0.050293,-0.708008,0.720703
281118387493,-0.0527344,-0.695801,0.727539
281118410394,-0.0712891,-0.704102,0.723633
281118424768,-0.0869141,-0.691895,0.731445
281118448781,-0.0786133,-0.666504,0.73291
281118469828,-0.0639648,-0.67627,0.747559
281118493100,-0.0561523,-0.680664,0.753906
281118507398,-0.0615234,-0.677734,0.745117
281118529952,-0.0795898,-0.668945,0.736328
281118544974,-0.0644531,-0.670898,0.734375
281118567380,-0.0527344,-0.677734,0.742676
281118589973,-0.0454102,-0.714844,0.747559
281118607810,-0.0581055,-0.732422,0.738281
281118627232,-0.0668945,-0.69873,0.731445
281118649807,-0.0595703,-0.692871,0.72168
281118664740,-0.059082,-0.696777,0.72998
281118687302,-0.0527344,-0.691406,0.734375
281118709766,-0.0483398,-0.683105,0.736328
281118727782,-0.0571289,-0.699219,0.737305
281118748898,-0.0722656,-0.692871,0.72998
281118769797,-0.074707,-0.705078,0.723145
281118784859,-0.0698242,-0.730469,0.706543
281118807360,-0.0625,-0.714844,0.728027
281118829952,-0.0605469,-0.700195,0.743652
281118844954,-0.0517578,-0.73877,0.73291
281118867517,-0.0703125,-0.671387,0.730957
281118889992,-0.0776367,-0.572754,0.658203
281118904972,-0.0419922,-0.599609,0.698242
281118927523,-0.0107422,-0.781738,0.748047
281118949976,-0.043457,-0.792969,0.766113
281118964775,-0.0698242,-0.721191,0.752441
281118987304,-0.0708008,-0.694336,0.733398
281119009815,-0.0644531,-0.66748,0.723145
281119027774,-0.059082,-0.66748,0.718262
281119047255,-0.059082,-0.695312,0.728027
281119069934,-0.0644531,-0.698242,0.727539
281119085017,-0.0581055,-0.693848,0.728516
281119107404,-0.0473633,-0.705566,0.726562
281119129815,-0.0424805,-0.70459,0.72998
281119144959,-0.0419922,-0.695312,0.735352
281119167335,-0.0429688,-0.698242,0.735352
281119189958,-0.0595703,-0.692383,0.725098
281119207780,-0.0561523,-0.686035,0.732422
281119227311,-0.0473633,-0.694336,0.72998
281119249841,-0.0380859,-0.695312,0.731445
281119266214,-0.0400391,-0.693848,0.728027
281119287252,-0.043457,-0.696777,0.729492
281119309991,-0.0498047,-0.685059,0.726562
281119326295,-0.0473633,-0.683594,0.720215
281119347525,-0.050293,-0.693359,0.720703
281119369997,-0.0551758,-0.694824,0.726562
281119386332,-0.0585938,-0.69043,0.731934
281119407486,-0.0498047,-0.687012,0.733398
281119430038,-0.0512695,-0.680664,0.736816
281119446329,-0.0561523,-0.691406,0.743652
281119468793,-0.0551758,-0.698242,0.743652
281119489802,-0.0532227,-0.695801,0.73291
281119513774,-0.050293,-0.696289,0.726562
281119535437,-0.0532227,-0.698242,0.732422
281119549786,-0.0566406,-0.697266,0.725586
281119566279,-0.0605469,-0.694336,0.726562
281119587432,-0.0537109,-0.692871,0.727539
281119609889,-0.0488281,-0.701172,0.730469
281119626300,-0.0488281,-0.691895,0.730469
281119647519,-0.0561523,-0.6875,0.728027
281119669969,-0.0571289,-0.683594,0.732422
281119686894,-0.0556641,-0.699219,0.736816
281119707479,-0.0458984,-0.703613,0.739746
281119738031,-0.0463867,-0.694336,0.72998
281119746312,-0.0498047,-0.686523,0.720703
281119767361,-0.0571289,-0.690918,0.724609
281119789766,-0.0600586,-0.700684,0.733398
281119813800,-0.0512695,-0.709473,0.73291
281119835476,-0.0439453,-0.706543,0.731445
281119858001,-0.0390625,-0.691895,0.737305
281119866258,-0.0458984,-0.674805,0.727051
281119887268,-0.0478516,-0.681641,0.725098
281119909819,-0.0527344,-0.692871,0.725098
281119926315,-0.0517578,-0.697266,0.726074
281119947594,-0.0463867,-0.691406,0.739746
281119969971,-0.043457,-0.703613,0.736328
281119992328,-0.0341797,-0.699707,0.737305
281120007424,-0.0405273,-0.700684,0.734863
281120029824,-0.0415039,-0.694336,0.736816
281120046488,-0.0415039,-0.69873,0.737305
281120067523,-0.0400391,-0.700195,0.731445
281120089811,-0.0429688,-0.693848,0.72998
281120112242,-0.0429688,-0.689453,0.725586
281120135495,-0.0415039,-0.675293,0.723145
281120149838,-0.0424805,-0.686523,0.729004
281120166215,-0.0385742,-0.702148,0.739258
281120188827,-0.0395508,-0.703613,0.739258
281120209881,-0.0424805,-0.689453,0.744629
281120226305,-0.0395508,-0.672363,0.735352
281120248901,-0.0517578,-0.686035,0.734863
281120269889,-0.0488281,-0.694336,0.73584
281120292349,-0.0444336,-0.691895,0.737305
281120308858,-0.0458984,-0.681641,0.740234
281120330040,-0.046875,-0.685059,0.739746
281120346306,-0.050293,-0.691406,0.73584
281120368738,-0.0405273,-0.689941,0.739746
281120389826,-0.0366211,-0.693848,0.738281
281120413814,-0.0473633,-0.690918,0.742188
281120436358,-0.0483398,-0.691895,0.726562
281120449990,-0.0439453,-0.687988,0.724121
281120466376,-0.0458984,-0.687988,0.727539
281120488896,-0.0478516,-0.684082,0.731934
281120510001,-0.0371094,-0.686035,0.736328
281120526312,-0.0332031,-0.682617,0.755371
281120548858,-0.0317383,-0.686523,0.744141
281120571286,-0.0385742,-0.692383,0.742188
281120586972,-0.0375977,-0.684082,0.733887
281120608773,-0.0429688,-0.679688,0.732422
281120625199,-0.0488281,-0.671387,0.73584
281120646247,-0.0375977,-0.681641,0.750977
281120668740,-0.0126953,-0.727051,0.774902
281120689886,-0.0332031,-0.717285,0.749023
281120705611,-0.0654297,-0.657715,0.716309
281120728144,-0.0776367,-0.653809,0.693848
281120750658,-0.0712891,-0.692383,0.700195
281120765645,-0.0678711,-0.700195,0.712402
281120788250,-0.0703125,-0.6875,0.727539
281120810532,-0.0673828,-0.680176,0.72998
281120825591,-0.0625,-0.666992,0.724609
281120848191,-0.0556641,-0.669434,0.740723
281120870454,-0.0366211,-0.6875,0.758301
281120885511,-0.0327148,-0.69873,0.766602
281120907966,-0.0371094,-0.699219,0.768066
281120930449,-0.0527344,-0.67334,0.748047
281120947000,-0.0517578,-0.666992,0.744141
281120969551,-0.0410156,-0.68457,0.740234
281120992003,-0.0292969,-0.680664,0.738281
281121005502,-0.0356445,-0.678711,0.72998
281121028183,-0.0478516,-0.680176,0.714355
281121050733,-0.0429688,-0.683105,0.702637
281121065659,-0.0673828,-0.705078,0.715332
281121088159,-0.0800781,-0.73877,0.711914
281121110495,-0.081543,-0.73291,0.700684
281121125534,-0.0825195,-0.70166,0.688965
281121147964,-0.0634766,-0.665039,0.6875
281121170449,-0.0146484,-0.677246,0.703613
281121185509,-0.00683594,-0.713379,0.727539
281121208015,-0.00585938,-0.743652,0.76709
281121230679,-0.034668,-0.730469,0.755859
281121247048,-0.043457,-0.713867,0.742188
281121268003,-0.0463867,-0.709473,0.737793
281121283841,-0.0390625,-0.720703,0.721191
281121306959,-0.0341797,-0.712891,0.710938
281121328162,-0.0322266,-0.71582,0.712891
281121343732,-0.0385742,-0.719727,0.706055
281121366912,-0.0332031,-0.71875,0.708008
281121388000,-0.0283203,-0.714844,0.707031
281121403791,-0.0307617,-0.716309,0.705566
281121426992,-0.0375977,-0.707031,0.708008
281121448251,-0.0419922,-0.703613,0.711914
281121463823,-0.0473633,-0.710938,0.719238
281121487004,-0.0439453,-0.716797,0.724609
281121508148,-0.0356445,-0.71582,0.716797
281121524393,-0.0292969,-0.711914,0.712402
281121547018,-0.0283203,-0.711914,0.70752
281121568184,-0.0351562,-0.712891,0.718262
281121583859,-0.0507812,-0.706543,0.706055
281121607039,-0.0419922,-0.713379,0.70752
281121628199,-0.0307617,-0.713379,0.71582
281121652628,-0.0273438,-0.725586,0.720215
281121666955,-0.0395508,-0.716309,0.730469
281121687958,-0.0327148,-0.697266,0.723633
281121703742,-0.0380859,-0.696289,0.717773
281121726971,-0.0268555,-0.700684,0.70752
281121748036,-0.0200195,-0.710449,0.712402
281121763787,-0.0205078,-0.717285,0.708984
281121786997,-0.0249023,-0.736328,0.712891
281121808116,-0.0361328,-0.722656,0.710938
281121823845,-0.0263672,-0.710449,0.695801
281121847055,-0.0117188,-0.702148,0.699707
281121869481,-0.00537109,-0.691895,0.722168
281121883847,-0.0078125,-0.696289,0.733398
281121907060,-0.0170898,-0.721191,0.742676
281121928148,-0.0458984,-0.717285,0.721191
281121943864,-0.0458984,-0.696777,0.702637
281121966961,-0.0415039,-0.708008,0.701172
281121987974,-0.0292969,-0.71875,0.719727
281122003790,-0.0283203,-0.723145,0.72998
281122026937,-0.0268555,-0.717285,0.725098
281122055516,-0.0292969,-0.708496,0.716797
281122063917,-0.0351562,-0.703613,0.712402
281122086357,-0.0263672,-0.706543,0.711914
281122108083,-0.0161133,-0.703613,0.715332
281122123930,-0.00976562,-0.699219,0.707031
281122146377,-0.0117188,-0.699219,0.720215
281122168181,-0.0234375,-0.710449,0.717285
281122183874,-0.0332031,-0.705566,0.716797
281122213105,-0.0395508,-0.699707,0.719238
281122228093,-0.0185547,-0.685059,0.706543
281122243786,-0.00830078,-0.699219,0.723145
281122266293,-0.00439453,-0.705078,0.722656
281122289476,-0.0146484,-0.699707,0.731934
281122303898,-0.0239258,-0.711914,0.714355
281122326340,-0.0146484,-0.691895,0.716797
281122356981,-0.0078125,-0.711426,0.719727
281122363955,-0.0224609,-0.733398,0.730957
281122386366,-0.0356445,-0.725098,0.714355
281122409521,-0.0458984,-0.716797,0.708008
281122423938,-0.0463867,-0.706055,0.710449
281122446436,-0.0424805,-0.678711,0.716797
281122469617,-0.00341797,-0.699219,0.697754
281122483816,-0.00585938,-0.718262,0.717285
281122506299,-0.0112305,-0.716797,0.724609
281122529470,-0.0239258,-0.718262,0.722168
281122543808,-0.0253906,-0.713379,0.723145
281122566318,-0.0136719,-0.704102,0.71582
281122589457,0.0234375,-0.708496,0.737793
281122610698,0.0810547,-0.694824,0.73584
281122634573,0.131348,-0.682129,0.75
281122649509,0.119629,-0.700684,0.745605
281122663962,0.0800781,-0.686523,0.729004
281122686342,0.0766602,-0.638672,0.6875
281122709508,0.09375,-0.64209,0.657715
281122730697,0.0996094,-0.694336,0.644531
281122746353,0.0878906,-0.715332,0.677246
281122769423,0.0776367,-0.718262,0.701172
281122792618,0.0742188,-0.736328,0.725586
281122806301,0.0708008,-0.723145,0.711914
281122829449,0.0820312,-0.708984,0.679688
281122850480,0.0908203,-0.746094,0.681641
281122866816,0.0678711,-0.77832,0.694824
281122889557,0.0371094,-0.772461,0.70166
281122910678,0.034668,-0.765137,0.702148
281122926411,0.0175781,-0.71875,0.677734
281122949645,0.0390625,-0.710938,0.663086
281122970778,0.0439453,-0.685059,0.668457
281122986439,0.0688477,-0.617676,0.631836
281123008824,0.149414,-0.6875,0.641602
281123030725,0.220215,-0.830078,0.749023
281123046312,0.224121,-0.782715,0.761719
281123068821,0.202148,-0.659668,0.734863
281123090517,0.17627,-0.641602,0.65918
281123106314,0.141113,-0.631836,0.644043
281123128836,0.137207,-0.619141,0.634277
281123150566,0.221191,-0.653809,0.653809
281123166312,0.294434,-0.694824,0.679199
281123188877,0.289551,-0.736816,0.669434
281123212137,0.277832,-0.797363,0.677246
281123226304,0.279785,-0.76709,0.722656
281123248901,0.296387,-0.766602,0.740723
281123272137,0.287598,-0.763184,0.740234
281123286408,0.249512,-0.743164,0.719727
281123308901,0.178711,-0.731445,0.662109
281123332023,0.114258,-0.657715,0.603516
281123346283,0.105469,-0.64209,0.464355
281123368800,0.25,-0.616211,0.548828
281123391998,0.3125,-0.612305,0.567383
281123413025,0.352051,-0.635254,0.601074
281123428809,0.37793,-0.565918,0.569336
281123451964,0.410156,-0.509277,0.526855
281123466288,0.48584,-0.493652,0.523438
281123488833,0.574219,-0.429688,0.554199
281123511937,0.59375,-0.390137,0.546875
281123526444,0.62207,-0.415527,0.499023
281123548938,0.645996,-0.472656,0.444336
281123572086,0.669922,-0.552734,0.421875
281123593059,0.80957,-0.644531,0.438965
281123608809,0.940918,-0.664062,0.45752
281123632098,0.949707,-0.578125,0.418945
281123653265,0.891602,-0.455566,0.402344
281123668995,0.892578,-0.431152,0.429688
281123692093,0.884277,-0.474121,0.462402
281123712994,0.872559,-0.443359,0.463379
281123728932,0.844727,-0.395508,0.435547
281123752032,0.818359,-0.353027,0.406738
281123773003,0.825684,-0.351074,0.37793
281123788809,0.825684,-0.372559,0.35791
281123811962,0.867676,-0.403809,0.342773
281123833049,0.890625,-0.422363,0.329102
281123848841,0.895996,-0.391602,0.322754
281123872008,0.890625,-0.351074,0.319824
281123893026,0.85791,-0.330566,0.316895
281123908835,0.833008,-0.333496,0.32373
281123932077,0.839844,-0.362793,0.30957
281123953275,0.847656,-0.379395,0.317871
281123968897,0.846191,-0.390137,0.316895
281123991430,0.862305,-0.383789,0.308594
281124013277,0.883301,-0.387207,0.306152
281124028983,0.895996,-0.395508,0.29541
281124051385,0.907715,-0.393066,0.305664
281124073270,0.918457,-0.375488,0.305664
281124088906,0.926758,-0.357422,0.308594
281124111359,0.930176,-0.345703,0.29834
281124133255,0.928223,-0.312988,0.286621
281124148917,0.934082,-0.29541,0.280273
281124171348,0.927246,-0.302734,0.273926
281124194558,0.926758,-0.300781,0.272949
281124208841,0.917969,-0.290527,0.274902
281124231493,0.907715,-0.300293,0.286133
281124254513,0.899414,-0.306152,0.279785
281124268847,0.892578,-0.315918,0.282227
281124299460,0.890625,-0.312012,0.279785
281124304841,0.897949,-0.304688,0.289551
281124328012,0.902344,-0.304199,0.280273
281124342364,0.89209,-0.288574,0.27832
281124364909,0.894531,-0.280762,0.274414
281124388027,0.899414,-0.283203,0.26123
281124402400,0.895508,-0.297363,0.259766
281124425000,0.893555,-0.305664,0.264648
281124448128,0.88916,-0.302246,0.266602
281124462615,0.885254,-0.301758,0.274414
281124485109,0.883301,-0.301758,0.269531
281124508267,0.879883,-0.308594,0.262695
281124522543,0.875,-0.315918,0.268555
281124545052,0.870605,-0.320312,0.271973
281124576284,0.873535,-0.316406,0.270508
281124582639,0.875977,-0.31543,0.273438
281124605114,0.876953,-0.315918,0.276855
281124628272,0.885742,-0.324707,0.28125
281124642631,0.896973,-0.330566,0.277344
281124664946,0.895996,-0.338867,0.271973
281124688247,0.88916,-0.340332,0.282227
281124702424,0.890137,-0.341797,0.279297
281124725088,0.891113,-0.340332,0.286133
281124748241,0.889648,-0.333984,0.282715
281124762575,0.88623,-0.321777,0.279297
281124784928,0.883789,-0.327637,0.271484
281124808717,0.885254,-0.333008,0.26709
281124822600,0.887207,-0.335449,0.272461
281124853779,0.88623,-0.332031,0.269043
281124868028,0.888184,-0.320312,0.273926
281124882382,0.88916,-0.322754,0.265137
281124904913,0.887695,-0.327148,0.272461
281124928150,0.88623,-0.334961,0.266602
281124942470,0.885742,-0.329102,0.266113
281124965056,0.88623,-0.322754,0.277832
281124988198,0.88623,-0.308594,0.269043
281125002653,0.893066,-0.314453,0.268555
281125024912,0.897461,-0.31543,0.269531
281125048274,0.894043,-0.315918,0.268066
281125062532,0.89209,-0.313477,0.272949
281125087904,0.891113,-0.317871,0.276855
281125107617,0.897461,-0.31543,0.279297
281125130654,0.899902,-0.309082,0.27832
281125144972,0.902344,-0.29834,0.276367
281125167619,0.897461,-0.298828,0.271484
281125182497,0.896484,-0.305176,0.270508
281125204941,0.895996,-0.302734,0.276855
281125236284,0.891113,-0.299805,0.276367
281125242401,0.889648,-0.308594,0.269531
281125266310,0.894043,-0.31543,0.269531
281125287461,0.894043,-0.321777,0.269531
281125302504,0.888672,-0.308105,0.27002
281125324992,0.883301,-0.307617,0.270508
281125347408,0.883301,-0.310059,0.270996
281125362619,0.88623,-0.320312,0.274414
281125385056,0.887695,-0.317871,0.270508
281125408967,0.891602,-0.312012,0.271484
281125422606,0.891113,-0.318848,0.268555
281125445201,0.888184,-0.320312,0.27002
281125467634,0.888184,-0.315918,0.272461
281125482521,0.885254,-0.316895,0.274902
281125504928,0.887207,-0.31543,0.275879
281125527465,0.883301,-0.314941,0.272461
281125542474,0.879395,-0.3125,0.275391
281125565131,0.883789,-0.311523,0.275879
281125587474,0.890625,-0.316406,0.272461
281125602407,0.895996,-0.316406,0.273926
281125625079,0.891113,-0.310547,0.275879
281125647663,0.892578,-0.310059,0.280273
281125662618,0.890137,-0.312988,0.269043
281125685109,0.890625,-0.310547,0.275391
281125707545,0.893066,-0.30957,0.269043
281125722481,0.88916,-0.30127,0.268555
281125744920,0.892578,-0.302246,0.268066
281125767424,0.895996,-0.305664,0.268066
281125782439,0.891602,-0.308594,0.270996
281125804919,0.894043,-0.309082,0.270508
281125827427,0.890137,-0.309082,0.270508
281125842362,0.894043,-0.313965,0.268555
281125864967,0.900391,-0.311523,0.269043
281125887411,0.891602,-0.302734,0.266602
281125903889,0.885254,-0.304688,0.26123
281125924979,0.892578,-0.312012,0.260254
281125947535,0.900879,-0.311035,0.265625
281125965379,0.897949,-0.299316,0.266113
281125984961,0.900879,-0.302734,0.263672
281126007498,0.893066,-0.305176,0.266113
281126023834,0.890625,-0.306641,0.272461
281126044980,0.893066,-0.311035,0.274902
281126067429,0.888672,-0.315918,0.268555
281126083952,0.891602,-0.314941,0.272949
281126104907,0.892578,-0.302246,0.275391
281126127649,0.893066,-0.304199,0.272461
281126144004,0.894043,-0.312988,0.270508
281126164965,0.895996,-0.315918,0.272949
281126187514,0.894043,-0.3125,0.274414
281126203919,0.894043,-0.306641,0.271973
281126225150,0.894531,-0.310059,0.27002
281126247713,0.893066,-0.307129,0.268066
281126264008,0.887207,-0.307129,0.273926
281126285143,0.890137,-0.306152,0.270508
281126307633,0.890137,-0.300781,0.274902
281126323850,0.89502,-0.309082,0.268066
281126345156,0.887207,-0.30957,0.271973
281126367537,0.887207,-0.310547,0.271484
281126383905,0.890137,-0.306641,0.26709
281126404968,0.885254,-0.306152,0.266113
281126427582,0.897461,-0.30957,0.261719
281126443917,0.896484,-0.313477,0.269531
281126465108,0.888184,-0.303711,0.261719
281126487626,0.880371,-0.297852,0.262695
281126503988,0.882324,-0.302246,0.268555
281126525176,0.898926,-0.299316,0.265625
281126547519,0.902832,-0.294922,0.273438
281126564039,0.898926,-0.299316,0.269043
281126585009,0.894043,-0.303711,0.270996
281126607657,0.890137,-0.30127,0.277832
281126623928,0.89502,-0.309082,0.270508
281126645123,0.896973,-0.30957,0.272949
281126667682,0.890625,-0.304688,0.270996
281126683983,0.894043,-0.303711,0.273926
281126705121,0.891113,-0.304688,0.277832
281126727608,0.894531,-0.313965,0.270996
281126743954,0.897461,-0.313965,0.269043
281126773190,0.897461,-0.3125,0.269043
281126795635,0.891113,-0.309082,0.271973
281126803908,0.888672,-0.3125,0.269531
281126826418,0.893555,-0.31543,0.266113
281126847559,0.894531,-0.313477,0.267578
281126863950,0.891602,-0.312012,0.280273
281126886450,0.891113,-0.3125,0.275879
281126907675,0.890137,-0.310547,0.267578
281126923908,0.887207,-0.312012,0.272461
281126946358,0.887207,-0.313477,0.270996
281126967459,0.889648,-0.310547,0.270996
281126983899,0.888672,-0.314941,0.268066
281127006390,0.896484,-0.316406,0.271973
281127027435,0.898926,-0.310547,0.274902
281127043900,0.894043,-0.307617,0.281738
281127072613,0.886719,-0.307617,0.274902
281127087460,0.890625,-0.3125,0.265137
281127104028,0.891602,-0.312988,0.274414
281127126498,0.889648,-0.303711,0.271484
281127147690,0.893555,-0.303711,0.275879
281127164013,0.893555,-0.312012,0.27002
281127186471,0.893555,-0.305664,0.272461
281127207590,0.88623,-0.305664,0.272461
281127223984,0.888672,-0.312012,0.271484
281127246473,0.88916,-0.308594,0.272461
281127267521,0.891113,-0.309082,0.272461
281127284015,0.893066,-0.307129,0.276855
281127306380,0.894043,-0.308594,0.271973
281127327548,0.894043,-0.307129,0.269531
281127343984,0.897949,-0.307617,0.269531
281127366481,0.890625,-0.307129,0.261719
281127387662,0.891113,-0.309082,0.264648
281127404013,0.89209,-0.313965,0.274414
281127426405,0.889648,-0.321777,0.274414
281127447637,0.88916,-0.312988,0.270508
281127463896,0.893555,-0.308105,0.267578
281127486537,0.894531,-0.311523,0.271973
281127507673,0.891602,-0.312012,0.270996
281127524011,0.890137,-0.312012,0.275391
281127546523,0.891602,-0.313477,0.271973
281127567548,0.88916,-0.30957,0.272949
281127583984,0.880859,-0.312988,0.265137
281127606420,0.890625,-0.31543,0.270508
281127630506,0.89502,-0.314941,0.270508
281127643967,0.892578,-0.310547,0.269531
281127666547,0.883789,-0.305664,0.26709
281127687724,0.883789,-0.313965,0.271484
281127704019,0.891602,-0.317871,0.276367
281127726417,0.890625,-0.312012,0.272949
281127747589,0.897949,-0.300293,0.27002
281127763977,0.893555,-0.304688,0.273438
281127786487,0.890625,-0.305176,0.271973
281127809028,0.894531,-0.306641,0.273438
281127824036,0.892578,-0.310547,0.274902
281127846508,0.889648,-0.314941,0.272949
281127868963,0.895508,-0.308105,0.271973
281127883326,0.895996,-0.302734,0.271484
281127905919,0.895508,-0.303711,0.263184
281127928182,0.894043,-0.306641,0.266113
281127944583,0.893066,-0.305176,0.274414
281127965821,0.892578,-0.310547,0.266602
281127988317,0.888672,-0.310547,0.26709
281128004645,0.888184,-0.316895,0.262695
281128025897,0.888184,-0.314453,0.263184
281128048405,0.893066,-0.3125,0.262207
281128064617,0.89502,-0.316895,0.261719
281128085673,0.894043,-0.307617,0.258789
281128108315,0.89502,-0.308594,0.26123
281128124759,0.891602,-0.312988,0.268066
281128145814,0.888184,-0.317383,0.264648
281128168334,0.888184,-0.3125,0.266602
281128184696,0.893555,-0.313965,0.26709
281128205874,0.898438,-0.314941,0.269531
281128228175,0.901855,-0.312012,0.27002
281128244589,0.901855,-0.310059,0.270508
281128265670,0.893555,-0.307617,0.274902
281128288342,0.88623,-0.309082,0.272461
281128304676,0.890137,-0.311523,0.273926
281128325703,0.894043,-0.311035,0.270996
281128348281,0.900391,-0.29834,0.274414
281128364691,0.90332,-0.297852,0.277832
281128385891,0.898438,-0.299805,0.26709
281128408204,0.898438,-0.301758,0.269531
281128424608,0.891602,-0.302734,0.27002
281128445649,0.898438,-0.304199,0.273926
281128468146,0.89209,-0.305664,0.269531
281128484567,0.883301,-0.300781,0.270508
281128505616,0.883301,-0.308105,0.265137
281128528156,0.881836,-0.316406,0.265625
281128544605,0.884766,-0.316895,0.265137
281128565679,0.890625,-0.313965,0.262207
281128588164,0.89209,-0.3125,0.26123
281128604378,0.894531,-0.31543,0.269531
281128625675,0.89502,-0.312988,0.262695
281128648175,0.891602,-0.3125,0.26416
281128664598,0.890137,-0.314453,0.266602
281128685439,0.889648,-0.318848,0.266602
281128708145,0.88623,-0.312012,0.270508
281128723943,0.891602,-0.305664,0.272949
281128745711,0.886719,-0.304199,0.263184
281128768146,0.88623,-0.308594,0.26709
281128783953,0.888672,-0.306641,0.267578
281128805690,0.890137,-0.3125,0.269043
281128828179,0.89502,-0.309082,0.267578
281128843966,0.901367,-0.308105,0.265137
281128865694,0.904785,-0.302734,0.269043
281128888176,0.892578,-0.296387,0.27002
281128903939,0.889648,-0.297852,0.269531
281128927120,0.891113,-0.3125,0.273438
281128948147,0.890137,-0.304688,0.271973
281128963921,0.896484,-0.299805,0.275391
281128993223,0.899414,-0.306152,0.272949
281129008000,0.897949,-0.312012,0.27832
281129023944,0.891602,-0.310547,0.279785
281129047071,0.892578,-0.314941,0.276367
281129068199,0.894043,-0.317383,0.274902
281129083944,0.890137,-0.31543,0.269531
281129107089,0.888672,-0.310059,0.275391
281129128157,0.887207,-0.314453,0.271484
281129143939,0.888672,-0.321777,0.272949
281129167061,0.890137,-0.317871,0.26709
281129188227,0.892578,-0.312012,0.273438
281129203968,0.890625,-0.308594,0.267578
281129227124,0.891602,-0.310547,0.270996
281129249573,0.880371,-0.316895,0.270996
281129263938,0.888184,-0.316406,0.271484
281129294589,0.890137,-0.313477,0.268555
281129308189,0.891602,-0.30957,0.269531
281129323949,0.891602,-0.310059,0.272461
281129347122,0.894531,-0.308105,0.271484
281129368164,0.889648,-0.310547,0.269043
281129383908,0.897461,-0.313965,0.269043
281129407117,0.891113,-0.306641,0.269043
281129428168,0.891113,-0.314453,0.271973
281129443944,0.884277,-0.308105,0.274414
281129467102,0.895996,-0.313477,0.264648
281129488160,0.894531,-0.314941,0.262207
281129503904,0.895996,-0.311035,0.276367
281129527079,0.884277,-0.314453,0.270508
281129548232,0.880859,-0.314453,0.27002
281129563980,0.880371,-0.315918,0.270508
281129594568,0.895996,-0.311523,0.273438
281129608168,0.900391,-0.30957,0.26416
281129623985,0.899902,-0.308594,0.270508
281129646434,0.896484,-0.311523,0.278809
281129668162,0.893555,-0.318848,0.277344
281129683926,0.886719,-0.321289,0.276855
281129706507,0.883301,-0.315918,0.271484
281129728171,0.88623,-0.303223,0.267578
281129743908,0.89209,-0.296387,0.257324
281129766478,0.89209,-0.321777,0.263672
281129788191,0.901367,-0.327637,0.264648
281129804388,0.89502,-0.307129,0.266113
281129826479,0.893555,-0.298828,0.262695
281129849617,0.892578,-0.311523,0.263672
281129863934,0.892578,-0.3125,0.266113
281129886451,0.894043,-0.308594,0.265137
281129909622,0.891113,-0.310059,0.269531
281129923914,0.890625,-0.313965,0.267578
281129946462,0.890137,-0.307129,0.270996
281129969613,0.890137,-0.313477,0.270508
281129984022,0.893555,-0.318359,0.266113
281130006505,0.889648,-0.315918,0.266113
281130029626,0.891602,-0.309082,0.265137
281130043920,0.88916,-0.307129,0.262207
281130066502,0.89502,-0.305176,0.266113
281130089660,0.890137,-0.308105,0.26416
281130103978,0.902832,-0.3125,0.26709
281130126953,0.900879,-0.316406,0.266602
281130149602,0.902344,-0.308105,0.271973
281130163939,0.888184,-0.304199,0.274414
281130186534,0.888184,-0.30957,0.271973
281130209686,0.893555,-0.317383,0.276367
281130223990,0.902832,-0.317383,0.276367
281130246488,0.900879,-0.312988,0.26709
281130269619,0.89502,-0.304199,0.251465
281130283932,0.887695,-0.306152,0.263672
281130306447,0.891602,-0.321777,0.28125
281130329652,1.02686,-0.348145,0.416992
281130350702,1.4458,-0.408691,0.696777
281130366470,1.60107,-0.353516,0.824707
281130389617,1.77344,-0.994629,0.982422
281130410701,1.64844,-1.59326,1.17871
281130426466,1.12891,-1.61523,1.11523
281130449598,0.768066,-1.28174,1.01855
281130470696,0.481445,-1.04297,0.862305
281130486476,0.233398,-0.74707,0.642578
281130509630,0.182617,-0.544922,0.421875
281130530672,0.27832,-0.445801,0.333496
281130546467,0.205078,-0.353027,0.272461
281130569597,0.0908203,-0.299805,0.24707
281130590800,0.0239258,-0.358887,0.197754
281130606486,-0.00292969,-0.379883,0.167969
281130628989,-0.0146484,-0.447754,0.141113
281130658380,-0.00634766,-0.375977,0.12207
281130666584,-0.0141602,-0.264648,0.09375
281130688963,-0.0249023,-0.178223,0.0473633
281130710803,0.0717773,-0.105469,-0.0830078
281130726468,0.197266,-0.0639648,-0.228027
281130749102,0.213379,-0.121094,-0.25293
281130770928,0.224609,-0.00878906,-0.269531
281130786568,0.178223,0.263184,-0.287109
281130809038,0.190918,0.186035,-0.0507812
281130832203,0.277344,-0.187988,0.192383
281130846569,0.331055,-0.59375,0.409668
281130868978,0.754395,-0.937988,0.32373
281130892105,1.88672,-0.633789,0.98291
281130906434,2.35693,-1.81396,0.572754
281130937146,1.82373,-1.73535,0.811035
281130959625,1.58838,-1.20312,0.762695
281130966527,1.25488,-0.785156,0.862305
281130988960,1.08545,-0.641602,0.78125
281131012170,0.984375,-0.522461,0.797363
281131026521,0.886719,-0.47998,0.72168
281131049063,0.86377,-0.463867,0.663574
281131072280,0.975098,-0.38916,0.733398
281131086602,0.968262,-0.355469,0.615234
281131109073,0.953613,-0.467285,0.548828
281131132171,0.962891,-0.549805,0.437012
281131153295,0.955566,-0.544434,0.387695
281131169029,0.962891,-0.452637,0.317383
281131192621,0.931641,-0.353516,0.232422
281131213204,0.913574,-0.312988,0.193848
281131237185,0.875488,-0.323242,0.171387
281131252319,0.871094,-0.335938,0.182129
281131266587,0.862305,-0.317871,0.175781
281131289068,0.873047,-0.289062,0.174805
281131312199,0.88623,-0.290527,0.177246
281131333233,0.911133,-0.299805,0.172852
281131349038,0.930664,-0.314941,0.192383
281131372266,0.929688,-0.31543,0.20459
281131393434,0.914062,-0.320312,0.210449
281131409110,0.911621,-0.330078,0.222656
281131432267,0.896484,-0.347168,0.231934
281131453454,0.877441,-0.348145,0.248535
281131469086,0.864258,-0.341309,0.243164
281131482748,0.871582,-0.32373,0.242676
281131514055,0.883789,-0.32373,0.245117
281131528407,0.88916,-0.318359,0.245117
281131542773,0.88916,-0.317383,0.245605
281131565215,0.896484,-0.312012,0.241211
281131588383,0.897949,-0.308105,0.234375
281131602738,0.905762,-0.322754,0.240234
281131625226,0.90625,-0.325195,0.236328
281131648352,0.897461,-0.317383,0.242188
281131662738,0.890137,-0.327637,0.242676
281131685285,0.88916,-0.33252,0.23877
281131708370,0.884766,-0.344727,0.237305
281131722759,0.894531,-0.350586,0.235352
281131745152,0.896973,-0.346191,0.23584
281131768344,0.89209,-0.341309,0.237305
281131782830,0.892578,-0.333496,0.234375
281131805136,0.892578,-0.342773,0.235352
281131828266,0.897461,-0.345215,0.237305
281131842777,0.89502,-0.340332,0.236328
281131865245,0.893066,-0.338379,0.238281
281131888433,0.885254,-0.336426,0.239258
281131902714,0.883301,-0.333984,0.230957
281131925218,0.885742,-0.34082,0.230957
281131948273,0.894043,-0.337402,0.236328
281131962827,0.889648,-0.337891,0.236328
281131985207,0.900391,-0.341797,0.238281
281132008249,0.895508,-0.335938,0.239746
281132022753,0.894043,-0.324707,0.234375
281132045179,0.884766,-0.325684,0.22998
281132068421,0.887207,-0.341309,0.239258
281132082772,0.893555,-0.34375,0.247559
281132105248,0.895996,-0.333984,0.241211
281132128443,0.895508,-0.328613,0.242188
281132142760,0.88916,-0.332031,0.241699
281132165271,0.893066,-0.340332,0.239746
281132196569,0.887695,-0.344727,0.24707
281132202634,0.887207,-0.34082,0.237793
281132225294,0.884766,-0.329102,0.237793
281132248379,0.889648,-0.333496,0.240234
281132262712,0.891602,-0.339355,0.248047
281132285237,0.894531,-0.34082,0.238281
281132308497,0.890625,-0.333496,0.234375
281132322642,0.888184,-0.330078,0.232422
281132346557,0.887695,-0.341309,0.240723
281132368411,0.891602,-0.341797,0.239746
281132382749,0.895996,-0.346191,0.239258
281132405285,0.895508,-0.339844,0.245605
281132428372,0.887207,-0.323242,0.247559
281132442652,0.883789,-0.325195,0.241211
281132465285,0.883301,-0.333984,0.238281
281132488504,0.884766,-0.347656,0.244629
281132502740,0.885742,-0.346191,0.236328
281132525268,0.887207,-0.339844,0.23291
281132548410,0.88916,-0.332031,0.233398
281132562621,0.899414,-0.333496,0.230957
281132585339,0.899414,-0.335938,0.227539
281132608441,0.899902,-0.329102,0.235352
281132624183,0.889648,-0.332031,0.240723
281132645228,0.887695,-0.341797,0.240234
281132668448,0.890625,-0.34082,0.244141
281132682660,0.894043,-0.332031,0.242188
281132705133,0.893555,-0.322754,0.236328
281132727710,0.894531,-0.331055,0.241211
281132742655,0.894043,-0.339355,0.236328
281132765230,0.890137,-0.345703,0.241699
281132787749,0.890625,-0.341797,0.242676
281132802685,0.891602,-0.335449,0.243652
281132825272,0.891113,-0.336914,0.24707
281132847770,0.890137,-0.336426,0.241699
281132862740,0.88623,-0.343262,0.246094
281132885120,0.889648,-0.347656,0.244141
281132907628,0.890625,-0.338379,0.244629
281132922740,0.893066,-0.326172,0.244629
281132945300,0.89209,-0.336914,0.244141
281132967589,0.890625,-0.333984,0.240723
281132982504,0.891113,-0.333008,0.239258
281133005093,0.890137,-0.33252,0.245117
281133027556,0.888672,-0.337402,0.239746
281133042565,0.888672,-0.33252,0.239258
281133065089,0.889648,-0.330566,0.243652
281133087642,0.889648,-0.327637,0.23877
281133102535,0.892578,-0.32959,0.236328
281133125066,0.890625,-0.330078,0.242188
281133147542,0.898438,-0.336914,0.241211
281133162612,0.899902,-0.337891,0.248535
281133185144,0.88916,-0.332031,0.236816
281133207684,0.881348,-0.333984,0.244141
281133222817,0.887207,-0.336426,0.245605
281133245193,0.894531,-0.335449,0.241699
281133267696,0.900391,-0.33252,0.238281
281133282795,0.89502,-0.330566,0.242188
281133305273,0.893066,-0.331543,0.242676
281133327611,0.892578,-0.334961,0.244629
281133342809,0.888184,-0.331055,0.245605
281133365177,0.886719,-0.339844,0.239746
281133387636,0.893555,-0.332031,0.244629
281133411008,0.894531,-0.32959,0.240723
281133425296,0.888672,-0.327637,0.243164
281133456007,0.886719,-0.336426,0.244629
281133464146,0.891602,-0.333008,0.237305
281133485333,0.893555,-0.32666,0.23584
281133507668,0.896973,-0.322266,0.231445
281133524062,0.894531,-0.328613,0.237793
281133545104,0.894531,-0.334473,0.237793
281133567590,0.886719,-0.333496,0.236328
281133584040,0.887207,-0.333008,0.230469
281133605157,0.891113,-0.333008,0.238281
281133627556,0.894043,-0.325684,0.230957
281133644085,0.895508,-0.334473,0.23584
281133665269,0.894531,-0.334473,0.232422
281133687650,0.89209,-0.337891,0.239746
281133710258,0.890137,-0.336426,0.240723
281133733502,0.896484,-0.335938,0.23584
281133747808,0.899902,-0.338867,0.240234
281133764108,0.895996,-0.331055,0.244629
281133785343,0.886719,-0.324707,0.242188
281133807883,0.883301,-0.343262,0.244629
281133824175,0.889648,-0.345215,0.248535
281133845246,0.89502,-0.339844,0.250488
281133867765,0.896973,-0.335938,0.246094
281133884136,0.900879,-0.335938,0.251953
281133905190,0.896484,-0.333984,0.244629
281133927655,0.89209,-0.333008,0.241699
281133944098,0.885254,-0.337402,0.239258
281133965184,0.891113,-0.337891,0.234375
281133987724,0.89209,-0.325684,0.237305
281134011593,0.890137,-0.32666,0.230469
281134025133,0.894531,-0.334473,0.236328
281134055773,0.893555,-0.333008,0.229004
281134064043,0.886719,-0.328613,0.233398
281134085258,0.88916,-0.328125,0.22998
281134107631,0.894043,-0.335449,0.232422
281134124138,0.89502,-0.339355,0.232422
281134145191,0.891113,-0.342285,0.235352
281134167774,0.887207,-0.335449,0.234375
281134184105,0.890625,-0.337891,0.230957
281134205284,0.890137,-0.336914,0.23877
281134227679,0.894043,-0.337402,0.237793
281134244016,0.896973,-0.337891,0.239746
281134265310,0.89209,-0.331055,0.246582
281134289144,0.89209,-0.340332,0.245117
281134304088,0.89209,-0.339355,0.246094
281134325321,0.88916,-0.344727,0.241211
281134347804,0.895996,-0.331543,0.244629
281134364109,0.898438,-0.333496,0.241699
281134386644,0.892578,-0.333008,0.24707
281134407632,0.890625,-0.341309,0.245117
281134424126,0.892578,-0.338379,0.241699
281134446578,0.895508,-0.335938,0.237305
281134467796,0.894043,-0.333008,0.236328
281134484108,0.898926,-0.324219,0.237305
281134506650,0.897949,-0.321289,0.229492
281134527643,0.887695,-0.327637,0.228027
281134544139,0.888184,-0.344238,0.241211
281134568023,0.885254,-0.344238,0.233398
281134587851,0.885742,-0.339355,0.236328
281134604084,0.88916,-0.331543,0.235352
281134626607,0.88916,-0.333496,0.241211
281134647774,0.894531,-0.333496,0.237793
281134664177,0.889648,-0.337891,0.239258
281134686678,0.889648,-0.341309,0.236328
281134707824,0.888184,-0.344238,0.243164
281134724143,0.887207,-0.341309,0.242676
281134746711,0.888672,-0.341309,0.245117
281134775953,0.893066,-0.34082,0.242188
281134784150,0.894531,-0.338867,0.24707
281134806569,0.896484,-0.336914,0.242676
281134827675,0.896484,-0.334473,0.242676
281134844086,0.894531,-0.333496,0.246582
281134866586,0.891602,-0.33252,0.244629
281134887667,0.89209,-0.336426,0.241699
281134904165,0.89209,-0.331543,0.241699
281134928103,0.88623,-0.331543,0.243164
281134947872,0.890625,-0.333008,0.238281
281134964138,0.895508,-0.335449,0.235352
281134986613,0.894043,-0.337891,0.236328
281135007819,0.890137,-0.338379,0.240723
281135024156,0.884277,-0.334961,0.243652
281135046692,0.885742,-0.337402,0.241211
281135068412,0.890137,-0.337402,0.242676
281135083481,0.895508,-0.333496,0.243652
281135105903,0.897949,-0.336426,0.236816
281135128441,0.884766,-0.336426,0.240723
281135143454,0.885742,-0.332031,0.238281
281135165953,0.888184,-0.34082,0.241211
281135188436,0.896973,-0.348633,0.246094
281135203452,0.891113,-0.334961,0.239746
281135225902,0.88623,-0.33252,0.243652
281135248387,0.889648,-0.341309,0.242188
281135263452,0.888672,-0.347168,0.249023
281135285832,0.891602,-0.345703,0.241699
281135308313,0.895508,-0.334473,0.234863
281135323362,0.896484,-0.337402,0.238281
281135345736,0.892578,-0.334961,0.23584
281135368476,0.894043,-0.34082,0.236328
281135383455,0.888184,-0.340332,0.241699
281135405973,0.889648,-0.330078,0.244629
281135428561,0.892578,-0.333984,0.241699
281135444796,0.892578,-0.32959,0.248047
281135466078,0.892578,-0.334961,0.235352
281135489828,0.883301,-0.333008,0.239258
281135503459,0.88916,-0.333984,0.239746
281135525967,0.894043,-0.336914,0.243652
281135548517,0.88623,-0.336426,0.241211
281135564799,0.887207,-0.338379,0.239746
281135585994,0.888184,-0.336914,0.241699
281135608561,0.886719,-0.333984,0.238281
281135624564,0.897949,-0.347656,0.237305
281135646001,0.898926,-0.34375,0.242676
281135668343,0.883301,-0.330078,0.242676
281135684832,0.884277,-0.334473,0.240723
281135706032,0.88916,-0.346191,0.242676
281135728348,0.892578,-0.342773,0.236816
281135744816,0.893066,-0.324707,0.240234
281135765980,0.900391,-0.331055,0.23291
281135788487,0.895508,-0.325684,0.238281
281135804873,0.895508,-0.336914,0.243164
281135825863,0.890137,-0.339844,0.243652
281135848458,0.888184,-0.337402,0.241699
281135864836,0.879395,-0.337891,0.244141
281135886027,0.885254,-0.331055,0.238281
281135908350,0.890625,-0.334473,0.240234
281135924765,0.897949,-0.335938,0.239258
281135945862,0.893066,-0.341309,0.244629
281135968530,0.894043,-0.335938,0.243652
281135984836,0.888184,-0.335938,0.239746
281136006023,0.888184,-0.337891,0.231934
281136028455,0.890625,-0.337891,0.237793
281136044853,0.891602,-0.337402,0.236816
281136065999,0.890137,-0.341309,0.243652
281136088437,0.887207,-0.337891,0.23877
281136104804,0.886719,-0.341309,0.23877
281136126005,0.89209,-0.339844,0.23291
281136148362,0.89209,-0.338867,0.239746
281136164801,0.89209,-0.333984,0.241699
281136186023,0.886719,-0.341309,0.23877
281136208489,0.890137,-0.335449,0.23584
281136224840,0.887207,-0.330078,0.23877
281136253390,0.898438,-0.330566,0.235352
281136268574,0.896973,-0.330566,0.232422
281136284191,0.892578,-0.32373,0.239258
281136306046,0.88916,-0.331543,0.240234
281136328451,0.88623,-0.340332,0.242188
281136344101,0.889648,-0.34082,0.248535
281136365811,0.892578,-0.337891,0.237305
281136388302,0.896484,-0.331055,0.243652
281136404091,0.892578,-0.333008,0.241211
281136425848,0.896484,-0.340332,0.245117
281136448340,0.88916,-0.34668,0.24707
281136464084,0.891602,-0.34375,0.243652
281136487252,0.891113,-0.345215,0.241699
281136508326,0.88623,-0.335449,0.235352
281136524141,0.891113,-0.335938,0.23584
281136547269,0.890137,-0.342285,0.234375
281136568318,0.89209,-0.344727,0.23291
281136584089,0.890625,-0.340332,0.236816
281136607294,0.88623,-0.345215,0.235352
281136628358,0.890625,-0.351074,0.240234
281136644151,0.884277,-0.34375,0.23584
281136667334,0.884766,-0.345215,0.235352
281136688513,0.890625,-0.341797,0.233398
281136704126,0.892578,-0.341309,0.240234
281136727362,0.890625,-0.337891,0.236816
281136748502,0.892578,-0.334473,0.233887
281136764173,0.887207,-0.341797,0.235352
281136787830,0.892578,-0.34375,0.234863
281136808509,0.894043,-0.335938,0.237305
281136824121,0.88916,-0.333496,0.228516
281136847398,0.89209,-0.333496,0.23584
281136868388,0.891602,-0.333496,0.234863
281136884220,0.901367,-0.339844,0.228027
281136907403,0.899902,-0.339355,0.230957
281136928431,0.895508,-0.330078,0.239258
281136944166,0.886719,-0.331055,0.236816
281136967315,0.890137,-0.340332,0.230957
281136988531,0.89502,-0.344727,0.233887
281137004125,0.898926,-0.33252,0.237793
281137027345,0.897461,-0.331543,0.239258
281137048480,0.886719,-0.333984,0.238281
281137064722,0.890625,-0.334961,0.234863
281137087295,0.891113,-0.344727,0.22998
281137108524,0.895996,-0.34082,0.23291
281137124136,0.893555,-0.339355,0.235352
281137147344,0.890137,-0.33252,0.240723
281137168461,0.890137,-0.339844,0.239258
281137184274,0.890625,-0.345703,0.239746
281137207370,0.889648,-0.342773,0.237793
281137228414,0.895508,-0.342773,0.23877
281137244161,0.893066,-0.337402,0.243164
281137266675,0.898926,-0.333984,0.236328
281137288272,0.89502,-0.330566,0.244629
281137304194,0.887695,-0.336426,0.242676
281137326680,0.881836,-0.340332,0.246094
281137348527,0.876953,-0.339844,0.259766
281137364107,0.878906,-0.339844,0.258301
281137386725,0.883301,-0.349121,0.260254
281137408518,0.884766,-0.345703,0.258789
281137424215,0.884766,-0.339355,0.276855
281137446644,0.875488,-0.337891,0.275879
281137469837,0.871582,-0.344238,0.275391
281137484183,0.878906,-0.355957,0.274902
281137506732,0.888672,-0.35498,0.278809
281137529824,0.880371,-0.344238,0.27832
281137544272,0.876953,-0.337402,0.273926
281137566736,0.876953,-0.334473,0.265137
281137595895,0.89209,-0.33252,0.256836
281137604120,0.906738,-0.335449,0.248047
281137627366,0.913086,-0.315918,0.246582
281137649822,0.912598,-0.300781,0.233887
281137664247,0.913086,-0.300293,0.224121
281137686732,0.913574,-0.3125,0.222168
281137709935,0.910645,-0.329102,0.216309
281137724268,0.891113,-0.321777,0.22168
281137746661,0.883789,-0.313477,0.219238
281137769830,0.87207,-0.322754,0.218262
281137790874,0.871094,-0.322266,0.211426
281137806778,0.881348,-0.322266,0.202148
281137829800,0.878906,-0.325195,0.208008
281137851088,0.871094,-0.338867,0.211914
281137866673,0.866699,-0.351562,0.209961
281137889785,0.873535,-0.367676,0.200195
281137910972,0.890137,-0.367676,0.19043
281137926664,0.890137,-0.366211,0.187012
281137949866,0.881836,-0.369629,0.185059
281137971029,0.871582,-0.374512,0.16748
281137986728,0.936523,-0.37207,0.148926
281138009896,0.996094,-0.366211,0.125977
281138031010,1.021,-0.342773,0.104492
281138046701,0.998535,-0.293945,0.103027
281138069851,0.969238,-0.261719,0.103516
281138090930,0.932617,-0.270508,0.115723
281138106767,0.922363,-0.302734,0.130859
281138129818,0.93457,-0.311523,0.126465
281138150895,0.935547,-0.291992,0.117676
281138174830,0.916992,-0.274414,0.129883
281138189170,0.915039,-0.279297,0.131836
281138211104,0.90918,-0.29541,0.131836
281138226639,0.935547,-0.307617,0.134277
281138249191,0.956543,-0.316895,0.131836
281138270940,0.955078,-0.307129,0.131836
281138286770,0.953613,-0.29248,0.131836
281138309248,0.962402,-0.297363,0.136719
281138330985,0.964355,-0.277832,0.137695
281138346736,0.929199,-0.272949,0.140625
281138369182,0.918945,-0.270996,0.148926
281138392364,0.909668,-0.28125,0.150879
281138406687,0.895996,-0.286133,0.163574
281138429204,0.890137,-0.295898,0.169434
281138452417,0.888672,-0.29248,0.170898
281138466765,0.904785,-0.283203,0.161621
281138489189,0.924805,-0.269531,0.157227
281138512309,0.93457,-0.288574,0.165039
281138526752,0.939453,-0.29248,0.172852
281138549333,0.938477,-0.282715,0.180664
281138572453,0.886719,-0.275391,0.176758
281138586712,0.871094,-0.265625,0.180664
281138609241,0.86084,-0.283203,0.181152
281138632401,0.868652,-0.300781,0.217285
281138646664,0.880859,-0.348145,0.23877
281138668512,0.864746,-0.413574,0.242676
281138682859,0.843262,-0.443359,0.249023
281138706021,0.852539,-0.458008,0.242188
281138728472,0.883301,-0.453125,0.228027
281138742811,0.900391,-0.451172,0.230469
281138766089,0.911133,-0.439941,0.228027
281138788564,0.921387,-0.42334,0.223145
281138802864,0.907227,-0.411133,0.222168
281138825971,0.910156,-0.412598,0.231934
281138848561,0.911133,-0.415527,0.245605
281138862870,0.90625,-0.427246,0.246094
281138886097,0.90918,-0.410645,0.245605
281138908437,0.92041,-0.395508,0.269531
281138922807,0.918457,-0.39209,0.296875
281138946118,0.916504,-0.368652,0.332031
281138968426,0.939941,-0.389648,0.333984
281138982768,0.967773,-0.429199,0.340332
281139006311,1.00684,-0.44043,0.354004
281139028370,1.00684,-0.416992,0.35498
281139042893,1.01172,-0.394531,0.367188
281139066002,0.977051,-0.403809,0.375977
281139088546,0.92627,-0.374023,0.384766
281139102871,0.853516,-0.338867,0.378906
281139126122,0.801758,-0.333984,0.372559
281139148567,0.79834,-0.339844,0.362793
281139162903,0.78418,-0.333984,0.366699
281139186073,0.75293,-0.306641,0.368652
281139208603,0.714844,-0.299805,0.364746
281139222829,0.681152,-0.311035,0.37793
281139246070,0.647949,-0.31543,0.380859
281139268595,0.628418,-0.303223,0.389648
281139283002,0.603516,-0.304199,0.396973
281139305398,0.596191,-0.317871,0.388672
281139328463,0.599609,-0.312012,0.405273
281139342893,0.612793,-0.319336,0.40625
281139366714,0.630371,-0.316895,0.413574
281139388590,0.665039,-0.349609,0.410156
281139402838,0.703613,-0.378906,0.412109
281139425367,0.714355,-0.37793,0.421875
281139448527,0.712891,-0.364258,0.424316
281139471139,0.705078,-0.357422,0.426758
281139485406,0.686523,-0.352051,0.425293
281139508617,0.757324,-0.397949,0.399902
281139522896,0.9375,-0.464355,0.375977
281139545370,1.00732,-0.474121,0.360352
281139568669,1.05908,-0.437012,0.350586
281139584220,1.01123,-0.371582,0.321777
281139605245,0.954102,-0.310547,0.290039
281139628637,0.906738,-0.258789,0.254395
281139642877,0.89502,-0.241699,0.222656
281139665406,0.898438,-0.25,0.202148
281139688501,0.944336,-0.261719,0.183594
281139702946,0.969238,-0.28125,0.164062
281139725434,0.995117,-0.304199,0.155273
281139748580,1.06396,-0.327148,0.139648
281139762948,1.10693,-0.32373,0.114258
281139785398,1.13721,-0.293945,0.0664062
281139809257,1.15234,-0.260254,0.0175781
281139822896,1.09033,-0.237305,0.00439453
281139845360,1.0166,-0.245117,0.0151367
281139868580,0.947266,-0.292969,0.0317383
281139882924,0.894531,-0.344238,0.0209961
281139905219,0.918457,-0.364258,-0.0117188
281139928795,0.911621,-0.353516,-0.0405273
281139942951,0.916992,-0.331543,-0.0439453
281139965404,0.924805,-0.331055,-0.0517578
281139988597,0.960449,-0.341797,-0.0791016
281140002873,0.961914,-0.356445,-0.0830078
281140025412,0.962402,-0.359375,-0.0776367
281140048562,0.952637,-0.355469,-0.0629883
281140062983,0.95166,-0.353027,-0.0478516
281140085406,0.959961,-0.362305,-0.0380859
281140108514,1.0249,-0.371582,-0.0629883
281140122977,0.994629,-0.347168,-0.0708008
281140145237,0.961914,-0.304199,-0.0644531
281140168584,0.94043,-0.306641,-0.0620117
281140182998,0.931152,-0.34375,-0.0620117
281140205511,0.927246,-0.356445,-0.0693359
281140228519,0.921875,-0.354004,-0.0771484
281140242998,0.918945,-0.348633,-0.0620117
281140265416,0.937012,-0.352051,-0.0366211
281140287961,0.94043,-0.334473,-0.0136719
281140302807,0.931152,-0.3125,-0.00341797
281140325431,0.945312,-0.294922,0.00976562
281140347950,0.993164,-0.305176,0.0449219
281140362926,1.08887,-0.36377,0.0957031
281140385244,1.12646,-0.395996,0.137207
281140407799,1.07666,-0.346191,0.159668
281140422961,0.96875,-0.253418,0.165527
281140445395,0.881348,-0.221191,0.199707
281140467959,0.842773,-0.277832,0.227051
281140482982,0.806152,-0.356445,0.259277
281140505350,0.800781,-0.366699,0.259277
281140528002,0.817383,-0.311035,0.242676
281140542939,0.828125,-0.270996,0.214355
281140565466,0.83252,-0.259277,0.208496
281140587953,0.817383,-0.260742,0.205078
281140602790,0.833008,-0.297363,0.224609
281140626840,0.870605,-0.354004,0.244141
281140647956,0.917969,-0.387207,0.258301
281140662887,0.93457,-0.381348,0.263184
281140685511,0.89502,-0.356445,0.269043
281140707822,0.838379,-0.329102,0.285645
281140722915,0.816895,-0.321777,0.277832
281140745408,0.816895,-0.345215,0.271484
281140769249,0.824707,-0.339355,0.258789
281140782970,0.850098,-0.313965,0.263184
281140805247,0.86084,-0.30127,0.265137
281140836669,0.859863,-0.297363,0.268066
281140842893,0.833496,-0.310059,0.28418
281140865421,0.812012,-0.328125,0.296875
281140887888,0.811523,-0.356934,0.318359
281140902844,0.835938,-0.383301,0.339844
281140925433,0.86377,-0.381348,0.342773
281140949297,0.87793,-0.343262,0.355957
281140962866,0.872559,-0.312012,0.361816
281140985230,0.845215,-0.303711,0.36084
281141001736,0.797852,-0.303711,0.375
281141024158,0.794922,-0.333008,0.391602
281141053162,0.84082,-0.371582,0.410156
281141063128,0.910156,-0.364746,0.409668
281141100523,0.951172,-0.30127,0.396484
281141113406,0.926758,-0.262695,0.384766
281141121747,0.893555,-0.283691,0.390137
281141144170,0.87207,-0.32373,0.386719
281141165268,0.87207,-0.333496,0.356445
281141181742,0.976074,-0.347168,0.314453
281141205735,1.18018,-0.413086,0.278809
281141233348,1.23389,-0.415527,0.254395
281141241731,1.15381,-0.327148,0.213379
281141264210,1.03125,-0.21875,0.166992
281141286807,0.939941,-0.181641,0.147949
281141309298,0.926758,-0.210449,0.140625
281141333180,0.922363,-0.246582,0.15332
281141345274,0.893555,-0.274902,0.166016
281141361888,0.912598,-0.308105,0.145508
281141390262,0.927246,-0.341309,0.138184
281141405258,0.937988,-0.341797,0.108887
281141421851,0.999023,-0.321289,0.0844727
281141444273,1.00879,-0.285156,0.0732422
281141465271,0.976562,-0.262695,0.0727539
281141483148,0.938477,-0.251465,0.0742188
281141505733,0.913086,-0.266602,0.081543
281141525342,0.930176,-0.288574,0.0883789
281141541751,0.935059,-0.291992,0.0776367
281141564202,0.918457,-0.291016,0.0751953
281141585441,0.883301,-0.282715,0.0810547
281141601863,0.870117,-0.298828,0.0922852
281141624248,0.894531,-0.32666,0.108398
281141645513,0.949707,-0.365723,0.123047
281141661769,0.976074,-0.375488,0.123047
281141684224,0.97168,-0.364746,0.124512
281141705267,0.963379,-0.350098,0.120605
281141721730,0.970215,-0.324707,0.137695
281141744294,0.942383,-0.308594,0.154785
281141765422,0.930664,-0.334961,0.148926
281141783228,0.904785,-0.344727,0.152344
281141804206,0.879395,-0.325684,0.144043
281141825422,0.861816,-0.31543,0.158203
281141841753,0.851562,-0.32959,0.174316
281141864309,0.849121,-0.330078,0.183594
281141885408,0.838867,-0.32959,0.191895
281141901780,0.841309,-0.345215,0.208496
281141924258,0.849121,-0.354004,0.225586
281141945206,0.829102,-0.345703,0.233398
281141967746,0.875488,-0.348633,0.242188
281141984216,1.02295,-0.40625,0.266602
281142014844,1.23828,-0.47998,0.276367
281142021726,1.32373,-0.439941,0.273926
281142044183,1.15771,-0.25293,0.277832
281142066733,0.880859,-0.105957,0.294434
281142081737,0.657715,-0.0952148,0.322754
281142104183,0.576172,-0.201172,0.340332
281142126809,0.632812,-0.319824,0.334473
281142143240,0.791504,-0.375488,0.31543
281142164259,0.979492,-0.353516,0.303223
281142186851,1.05176,-0.254395,0.319824
281142203248,1.01904,-0.180664,0.344238
281142231818,0.939453,-0.169434,0.370117
281142246797,0.833984,-0.212891,0.380371
281142268524,0.770508,-0.27002,0.366699
281142291161,0.761719,-0.291016,0.344727
281142306041,0.787109,-0.246582,0.318848
281142328432,0.789062,-0.208984,0.304688
281142343482,0.803711,-0.189941,0.302734
281142365930,0.828613,-0.212891,0.300293
281142388458,0.872559,-0.239258,0.30127
281142403449,0.900879,-0.248047,0.293945
281142426176,0.899414,-0.211426,0.269043
281142448379,0.901367,-0.17627,0.250977
281142463598,0.930176,-0.156738,0.231934
281142486021,0.954102,-0.148926,0.216797
281142508617,0.936523,-0.159668,0.21582
281142523715,0.904297,-0.156738,0.213379
281142547381,0.875,-0.144531,0.214355
281142568655,0.868652,-0.157227,0.222168
281142583409,0.900391,-0.19873,0.226562
281142613443,0.963867,-0.250977,0.233398
281142628703,0.967773,-0.225586,0.241699
281142643485,0.95752,-0.191895,0.231934
281142666092,0.929688,-0.167969,0.234863
281142688654,0.995117,-0.223145,0.245605
281142703545,1.07031,-0.305176,0.262695
281142726218,1.1167,-0.374023,0.276367
281142748490,1.06787,-0.430664,0.272949
281142763442,0.973633,-0.438965,0.282227
281142785994,0.959961,-0.538086,0.285645
281142808431,0.892578,-0.662598,0.301758
281142824922,0.815918,-0.74707,0.336914
281142845903,0.769531,-0.773926,0.354004
281142869967,0.725586,-0.734375,0.397461
281142891047,0.694824,-0.719238,0.402832
281142906079,0.661621,-0.797852,0.408203
281142928490,0.599609,-0.904297,0.421875
281142943611,0.538574,-0.929688,0.442383
281142966111,0.496582,-0.849121,0.455078
281142988645,0.41748,-0.72998,0.47168
281143003680,0.421387,-0.730957,0.438965
281143025903,0.382812,-0.852051,0.463379
281143056849,0.321777,-0.945801,0.496582
281143063623,0.280762,-0.883789,0.518066
281143086216,0.241211,-0.792969,0.506348
281143101815,0.133789,-0.716797,0.44043
281143125348,0.117188,-0.754395,0.496094
281143146056,0.0458984,-0.784668,0.553711
281143170056,0.0327148,-0.805664,0.591309
281143184988,-0.0405273,-0.721191,0.53125
281143205984,-0.106445,-0.543457,0.506348
281143221876,-0.115723,-0.520508,0.533203
281143244960,-0.0703125,-0.702148,0.585449
281143265956,-0.0703125,-0.689941,0.612305
281143281738,-0.138184,-0.639648,0.590332
281143310928,-0.181641,-0.494629,0.581543
281143325688,-0.135742,-0.531738,0.620605
281143341729,-0.0625,-0.698242,0.65625
281143364976,-0.0620117,-0.683105,0.685547
281143386113,-0.109863,-0.581055,0.685547
281143401805,-0.175781,-0.561035,0.69043
281143424959,-0.188477,-0.592773,0.729004
281143447486,-0.0942383,-0.651855,0.79541
281143461913,-0.137695,-0.618164,0.799316
281143485023,-0.200195,-0.592285,0.799805
281143506098,-0.257812,-0.606934,0.792969
281143529997,-0.28418,-0.624023,0.794434
281143544981,-0.245117,-0.645508,0.804199
281143566142,-0.249512,-0.655762,0.782227
281143581797,-0.256348,-0.638184,0.753418
281143605570,-0.247559,-0.649414,0.753906
281143625968,-0.219727,-0.697266,0.780273
281143641738,-0.196289,-0.723145,0.793457
281143664892,-0.225586,-0.629395,0.752441
281143685993,-0.231934,-0.575684,0.738281
281143701765,-0.236816,-0.605469,0.736816
281143725024,-0.242676,-0.615723,0.751953
281143746028,-0.262207,-0.62793,0.754395
281143761774,-0.252441,-0.624023,0.744141
281143785034,-0.23584,-0.631348,0.741699
281143806142,-0.212891,-0.641602,0.754883
281143821821,-0.193848,-0.659668,0.777344
281143845030,-0.210938,-0.660645,0.773926
281143867481,-0.229492,-0.637207,0.774902
281143888551,-0.22998,-0.64209,0.76416
281143911268,-0.225586,-0.650391,0.753418
281143926030,-0.223145,-0.635742,0.74707
281143941741,-0.228027,-0.619141,0.740723
281143964215,-0.23291,-0.620605,0.751465
281143986020,-0.225098,-0.665527,0.769043
281144001796,-0.228516,-0.655762,0.776855
281144024362,-0.233398,-0.616699,0.756836
281144047462,-0.223633,-0.62793,0.75293
281144061895,-0.215332,-0.618652,0.762207
281144084330,-0.193848,-0.62793,0.765137
281144107409,-0.21875,-0.647949,0.767578
281144121823,-0.250977,-0.626953,0.76123
281144144349,-0.259766,-0.612305,0.748535
281144167948,-0.243652,-0.611328,0.74707
281144190021,-0.234375,-0.57666,0.751953
281144212292,-0.204102,-0.537598,0.742188
281144235004,-0.163086,-0.597168,0.750488
281144241857,-0.178223,-0.717285,0.790039
281144264237,-0.203613,-0.741699,0.793457
281144287414,-0.21582,-0.6875,0.752441
281144308429,-0.213867,-0.660156,0.747559
281144324287,-0.209961,-0.678223,0.738281
281144347441,-0.206543,-0.648438,0.730469
281144361845,-0.189941,-0.644531,0.730469
281144384343,-0.1875,-0.657227,0.74707
281144407425,-0.1875,-0.658691,0.760742
281144428446,-0.189941,-0.668457,0.77002
281144444293,-0.206543,-0.65918,0.75
281144467432,-0.203125,-0.641602,0.740723
281144488499,-0.209473,-0.645508,0.740723
281144504268,-0.206543,-0.648926,0.741211
281144534915,-0.20166,-0.649902,0.744629
281144556015,-0.20459,-0.651855,0.748047
281144564313,-0.198242,-0.657227,0.758789
281144587476,-0.19043,-0.668457,0.75293
281144608490,-0.187012,-0.653809,0.746094
281144624271,-0.181152,-0.652344,0.746582
281144647407,-0.187988,-0.652832,0.746094
281144668455,-0.193848,-0.662109,0.758789
281144684250,-0.203613,-0.663574,0.756348
281144707439,-0.202637,-0.650879,0.758301
281144728489,-0.205078,-0.654297,0.744629
281144744269,-0.195312,-0.636719,0.744629
281144767892,-0.193359,-0.644531,0.744629
281144788494,-0.193848,-0.644043,0.746582
281144812440,-0.202637,-0.650879,0.749512
281144834926,-0.200195,-0.648926,0.75
281144848470,-0.203125,-0.654785,0.745117
281144864263,-0.196289,-0.658203,0.75293
281144894964,-0.193359,-0.661621,0.750977
281144908508,-0.192383,-0.649902,0.755371
281144924299,-0.199707,-0.644531,0.75293
281144953517,-0.197754,-0.635254,0.752441
281144976020,-0.19873,-0.641602,0.760742
281144984332,-0.197754,-0.646484,0.757812
281145006794,-0.194824,-0.643066,0.755371
281145029905,-0.20459,-0.638184,0.750488
281145044778,-0.204102,-0.63916,0.739746
281145067241,-0.194336,-0.644043,0.750488
281145089961,-0.187012,-0.662598,0.760742
281145112407,-0.1875,-0.660645,0.756348
281145126778,-0.196777,-0.651367,0.757812
281145149972,-0.202148,-0.646973,0.74707
281145164331,-0.206055,-0.63623,0.744141
281145186795,-0.192871,-0.63916,0.754395
281145209942,-0.195801,-0.64209,0.762695
281145230988,-0.20166,-0.645508,0.763184
281145254964,-0.197754,-0.649414,0.759766
281145276011,-0.198242,-0.650879,0.755859
281145284232,-0.200195,-0.648438,0.76123
281145306797,-0.199219,-0.647461,0.753418
281145329946,-0.194824,-0.651367,0.763184
281145344285,-0.193848,-0.649902,0.759766
281145366765,-0.199219,-0.640137,0.756348
281145389947,-0.192871,-0.64502,0.747559
281145404235,-0.193848,-0.650391,0.759766
281145426814,-0.202148,-0.649902,0.753418
281145449984,-0.200684,-0.650391,0.759766
281145471022,-0.195801,-0.64209,0.749512
281145486800,-0.1875,-0.637695,0.755859
281145509937,-0.184082,-0.646973,0.753418
281145532467,-0.193359,-0.646484,0.749512
281145554935,-0.197754,-0.639648,0.746094
281145577489,-0.197754,-0.641602,0.748535
281145598534,-0.187988,-0.647461,0.757812
281145606795,-0.181641,-0.660156,0.765625
281145629950,-0.194824,-0.660645,0.765137
281145651012,-0.202148,-0.640625,0.760742
281145667283,-0.19043,-0.628418,0.757324
281145689942,-0.181641,-0.634766,0.766602
281145711029,-0.180176,-0.64502,0.759277
281145726824,-0.187988,-0.650391,0.771973
281145749283,-0.187988,-0.650879,0.765625
281145771046,-0.189941,-0.646973,0.760742
281145786833,-0.193848,-0.644043,0.755371
281145817906,-0.190918,-0.645508,0.752441
281145832489,-0.187988,-0.650391,0.753906
281145854943,-0.185547,-0.647949,0.76709
281145860334,-0.191895,-0.640625,0.76123
281145882883,-0.190918,-0.635254,0.755859
281145906023,-0.19043,-0.64209,0.750488
281145921824,-0.191406,-0.65332,0.751465
281145942882,-0.182617,-0.650391,0.753418
281145966052,-0.185547,-0.65625,0.755371
281145988521,-0.191406,-0.647949,0.759766
281146002833,-0.189941,-0.640625,0.749023
281146025818,-0.192383,-0.63916,0.75
281146041819,-0.184082,-0.639648,0.757812
281146062844,-0.177246,-0.650391,0.760254
281146086000,-0.181152,-0.644043,0.763672
281146108488,-0.183594,-0.645508,0.759766
281146122869,-0.187012,-0.648926,0.755859
281146146074,-0.180664,-0.643555,0.754883
281146160355,-0.182129,-0.643555,0.764648
281146182854,-0.18457,-0.644043,0.760254
281146206012,-0.188965,-0.646973,0.749023
281146221808,-0.185059,-0.64209,0.753906
281146242884,-0.183105,-0.648438,0.754883
281146265983,-0.186523,-0.648438,0.75293
281146280360,-0.185059,-0.652344,0.756836
281146302899,-0.186523,-0.650879,0.754883
281146326029,-0.189453,-0.642578,0.750488
281146341798,-0.189453,-0.640137,0.76123
281146364266,-0.194824,-0.647949,0.756348
281146386074,-0.183105,-0.647949,0.760254
281146408549,-0.183105,-0.652832,0.755371
281146431696,-0.188477,-0.650879,0.753418
281146454221,-0.182129,-0.650879,0.748047
281146460342,-0.177734,-0.652344,0.757324
281146482874,-0.182617,-0.648438,0.754395
281146506021,-0.191895,-0.644043,0.758301
281146520380,-0.194336,-0.642578,0.753906
281146544326,-0.187012,-0.649902,0.756836
281146566031,-0.166016,-0.633301,0.759766
281146580374,-0.178223,-0.663086,0.771973
281146605760,-0.192871,-0.640625,0.765137
281146626032,-0.195312,-0.631836,0.750488
281146641828,-0.194336,-0.630371,0.749023
281146662951,-0.175781,-0.647461,0.749023
281146686215,-0.174805,-0.687012,0.762207
281146708519,-0.1875,-0.677246,0.765137
281146723097,-0.192871,-0.657715,0.762695
281146754416,-0.186035,-0.657227,0.748047
281146760537,-0.192383,-0.630859,0.758301
281146782861,-0.183105,-0.629395,0.766602
281146806035,-0.181152,-0.621582,0.757324
281146820343,-0.190918,-0.61084,0.758301
281146842988,-0.186035,-0.57959,0.756836
281146874386,-0.183594,-0.606934,0.765625
281146880519,-0.166992,-0.681641,0.78125
281146903047,-0.17041,-0.694824,0.786621
281146925579,-0.18457,-0.680176,0.773438
281146940546,-0.182617,-0.667969,0.755859
281146963143,-0.18457,-0.65918,0.746582
281146985584,-0.181152,-0.650391,0.749512
281147000633,-0.19043,-0.65332,0.736816
281147022863,-0.187012,-0.637207,0.744141
281147054213,-0.180176,-0.643066,0.749023
281147060327,-0.172363,-0.656738,0.756348
281147082846,-0.17041,-0.664062,0.754883
281147106018,-0.177246,-0.666016,0.757812
281147120547,-0.181152,-0.657715,0.754395
281147142972,-0.187988,-0.641113,0.752441
281147165546,-0.189941,-0.631836,0.752441
281147180588,-0.191406,-0.630859,0.754883
281147202897,-0.189453,-0.65332,0.756348
281147225601,-0.193359,-0.653809,0.748047
281147240525,-0.187988,-0.65332,0.756348
281147264365,-0.182129,-0.658691,0.751465
281147285589,-0.180176,-0.652832,0.746582
281147308586,-0.186035,-0.66748,0.752441
281147331025,-0.180664,-0.669434,0.749512
281147345357,-0.177734,-0.658203,0.749512
281147360533,-0.186035,-0.64209,0.750488
281147383074,-0.1875,-0.632324,0.755859
281147405603,-0.188965,-0.638184,0.755859
281147420566,-0.191895,-0.649414,0.763672
281147451217,-0.185059,-0.654785,0.754883
281147474345,-0.184082,-0.646973,0.755371
281147480457,-0.183594,-0.648926,0.762695
281147503065,-0.188477,-0.650391,0.755859
281147525498,-0.18457,-0.657227,0.764648
281147543303,-0.188477,-0.655762,0.760254
281147562815,-0.191895,-0.650879,0.759277
281147586835,-0.191895,-0.638184,0.745605
281147608581,-0.197266,-0.64209,0.754395
281147622872,-0.20166,-0.657715,0.754395
281147645422,-0.197754,-0.656738,0.749512
281147661799,-0.194336,-0.644531,0.744629
281147682904,-0.188965,-0.650391,0.75
281147706865,-0.187988,-0.644531,0.76123
281147730000,-0.190918,-0.644531,0.758301
281147751246,-0.195801,-0.647461,0.756836
281147773747,-0.186523,-0.646484,0.757812
281147781987,-0.183594,-0.650391,0.750977
281147803060,-0.186035,-0.648926,0.756348
281147825583,-0.198242,-0.647461,0.754395
281147843356,-0.203613,-0.641602,0.75293
281147865796,-0.194336,-0.640625,0.749512
281147886793,-0.189941,-0.645508,0.751465
281147909334,-0.181641,-0.651367,0.755859
281147922914,-0.192383,-0.65625,0.758789
281147953588,-0.201172,-0.634277,0.748535
281147961810,-0.196777,-0.646484,0.74707
281147985843,-0.196289,-0.63623,0.745605
281148005664,-0.187988,-0.643066,0.760742
281148029351,-0.19043,-0.65625,0.758789
281148051321,-0.191406,-0.65918,0.757812
281148073681,-0.192383,-0.649902,0.76123
281148081892,-0.190918,-0.64502,0.760742
281148102973,-0.191406,-0.631348,0.760742
281148125663,-0.189941,-0.64209,0.76709
281148141887,-0.191895,-0.651855,0.774902
281148165878,-0.194336,-0.665527,0.776367
281148186920,-0.206055,-0.650879,0.763672
281148201911,-0.211426,-0.626465,0.753418
281148222981,-0.192871,-0.606934,0.755371
281148245450,-0.18457,-0.625488,0.754395
281148261870,-0.188477,-0.629883,0.763184
281148283124,-0.192383,-0.625,0.76416
281148305417,-0.191895,-0.637695,0.760742
281148321868,-0.193359,-0.624023,0.770508
281148343118,-0.189453,-0.609863,0.757324
281148365593,-0.183594,-0.651367,0.768555
281148389452,-0.189941,-0.639648,0.756836
281148402910,-0.183594,-0.656738,0.773438
281148425527,-0.187988,-0.658691,0.76123
281148443381,-0.194336,-0.644531,0.758301
281148462969,-0.1875,-0.626953,0.760742
281148485363,-0.185059,-0.628906,0.754883
281148501840,-0.181641,-0.631836,0.754883
281148531089,-0.184082,-0.651855,0.762695
281148545337,-0.1875,-0.653809,0.758301
281148563330,-0.192383,-0.651855,0.75293
281148585867,-0.193848,-0.650391,0.758301
281148606983,-0.191895,-0.636719,0.758301
281148629509,-0.188965,-0.640137,0.763184
281148644384,-0.191406,-0.637207,0.765625
281148673905,-0.194336,-0.643066,0.760254
281148682032,-0.192871,-0.643555,0.756348
281148704552,-0.195312,-0.641113,0.759766
281148725615,-0.186523,-0.640137,0.760254
281148743405,-0.188965,-0.649902,0.765137
281148764386,-0.181152,-0.646484,0.764648
281148785368,-0.181152,-0.638184,0.764648
281148801862,-0.189941,-0.638184,0.754883
281148839188,-0.191895,-0.63623,0.755859
281148845384,-0.193359,-0.637207,0.76123
281148863307,-0.186035,-0.643066,0.757812
281148885926,-0.186523,-0.649414,0.756836
281148908357,-0.194336,-0.64209,0.753906
281148929415,-0.193848,-0.635742,0.754883
281148951918,-0.194824,-0.638672,0.761719
281148973593,-0.188965,-0.645508,0.760254
281148981845,-0.183594,-0.638672,0.761719
281149004378,-0.18457,-0.628906,0.750488
281149025566,-0.176758,-0.635742,0.762695
281149041908,-0.167969,-0.65918,0.764648
281149064361,-0.170898,-0.669434,0.765137
281149093602,-0.17627,-0.652832,0.763672
281149101837,-0.185547,-0.655762,0.75
281149124425,-0.179199,-0.649902,0.74707
281149145402,-0.175293,-0.649414,0.759766
281149163325,-0.170898,-0.650879,0.767578
281149185913,-0.172852,-0.650879,0.766602
281149208360,-0.177734,-0.650391,0.76416
281149229438,-0.179199,-0.650391,0.760742
281149251938,-0.178711,-0.652832,0.760254
281149265582,-0.176758,-0.647949,0.754883
281149281907,-0.178711,-0.648438,0.753906
281149304402,-0.170898,-0.652344,0.758789
281149325603,-0.175293,-0.647949,0.759277
281149341954,-0.178223,-0.639648,0.753906
281149364384,-0.171875,-0.63916,0.753418
281149402440,-0.166016,-0.654297,0.756348
281149404862,-0.168945,-0.639648,0.756836
281149424457,-0.172852,-0.643066,0.750977
281149445440,-0.174316,-0.63623,0.749023
281149461304,-0.175781,-0.637207,0.750977
281149483807,-0.168457,-0.648438,0.77002
281149507638,-0.161133,-0.645996,0.773438
281149521289,-0.162109,-0.64502,0.771973
281149551228,-0.166992,-0.642578,0.753418
281149566180,-0.164551,-0.640625,0.754395
281149581124,-0.174805,-0.640137,0.75
281149603685,-0.181641,-0.634277,0.75293
281149626259,-0.180176,-0.633789,0.763184
281149641297,-0.149414,-0.597168,0.765137
281149671110,-0.168457,-0.629883,0.766113
281149694311,-0.167969,-0.629883,0.763184
281149701057,-0.17627,-0.641602,0.753418
281149723578,-0.191895,-0.669434,0.749512
281149746220,-0.181641,-0.678223,0.750977
281149763066,-0.169434,-0.671387,0.741211
281149783627,-0.172363,-0.660645,0.729004
281149806200,-0.146484,-0.632324,0.719727
281149830120,-0.141602,-0.672852,0.73291
281149843860,-0.13916,-0.706055,0.744629
281149866411,-0.114746,-0.692871,0.724121
281149882630,-0.118652,-0.678711,0.691406
281149911129,-0.110352,-0.660156,0.649414
281149926109,-0.108398,-0.688965,0.65625
281149942522,-0.104004,-0.705078,0.666992
281149963607,-0.104004,-0.689941,0.682617
281149986099,-0.120117,-0.681641,0.674316
281150002567,-0.137207,-0.677246,0.663086
281150023616,-0.15918,-0.673828,0.636719
281150046131,-0.184082,-0.640137,0.615723
281150062642,-0.199219,-0.604492,0.57373
281150083617,-0.120605,-0.727539,0.596191
281150107611,-0.126465,-0.796387,0.616211
281150122663,-0.162109,-0.755859,0.603027
281150143597,-0.185059,-0.733398,0.591309
281150166063,-0.195801,-0.802734,0.591797
281150182568,-0.138672,-0.900879,0.60498
281150203645,-0.104004,-0.90918,0.628418
281150226171,-0.134277,-0.799316,0.558594
281150242531,-0.114258,-0.821777,0.49707
281150263587,-0.043457,-0.919922,0.491211
281150286089,-0.00244141,-1.01807,0.52002
281150302513,0.0244141,-1.0376,0.554688
281150323683,0.0224609,-0.987305,0.577148
281150346211,-0.0180664,-0.926758,0.562988
281150362539,-0.0473633,-0.880859,0.527832
281150383563,-0.034668,-0.882812,0.513672
281150406141,-0.0136719,-0.931641,0.542969
281150422526,-0.00830078,-0.911133,0.543457
281150443629,-0.0336914,-0.865723,0.524414
281150466190,-0.0405273,-0.85498,0.514648
281150481932,-0.0332031,-0.871094,0.524414
281150503622,-0.034668,-0.865234,0.52832
281150526207,-0.027832,-0.872559,0.52832
281150541897,0.00292969,-0.903809,0.54248
281150563656,0.0107422,-0.90625,0.534668
281150586356,0.000976562,-0.895508,0.522461
281150601900,-0.012207,-0.917969,0.521484
281150623647,-0.0195312,-0.900879,0.51123
281150646140,-0.0185547,-0.880859,0.495117
281150662353,0.00976562,-0.889648,0.484863
281150685041,-0.0102539,-0.85791,0.479004
281150706267,-0.027832,-0.810547,0.449707
281150722037,-0.0273438,-0.785156,0.444824
281150745164,0.0224609,-0.878906,0.503906
281150766130,0.14502,-0.974121,0.555176
281150781917,0.162598,-1.01367,0.619141
281150805124,0.160645,-1.03857,0.626465
281150825884,0.158203,-0.995605,0.626465
281150841918,0.17627,-0.859863,0.63916
281150865173,0.196289,-0.72998,0.666992
281150893630,0.275879,-0.724121,0.60498
281150901916,0.39502,-0.820801,0.589355
281150925099,0.414062,-0.80957,0.582031
281150946103,0.420898,-0.691895,0.570801
281150961885,0.432129,-0.53418,0.591797
281150985028,0.52832,-0.535645,0.613281
281151006138,0.601562,-0.599121,0.588379
281151021882,0.628906,-0.666992,0.577637
281151045148,0.666992,-0.710938,0.591309
281151066292,0.686523,-0.620605,0.626953
281151081910,0.665527,-0.50293,0.660645
281151105059,0.633789,-0.444336,0.640625
281151126138,0.589355,-0.439453,0.625977
281151141961,0.563965,-0.376953,0.632812
281151171110,0.544922,-0.289062,0.63916
281151186161,0.520508,-0.257812,0.615234
281151201890,0.502441,-0.26416,0.586914
281151225028,0.499512,-0.31543,0.578613
281151246184,0.503418,-0.367676,0.602051
281151261909,0.569824,-0.453613,0.641113
281151285074,0.632812,-0.504883,0.677246
281151306147,0.589844,-0.487793,0.664062
281151321882,0.546875,-0.489746,0.650879
281151345088,0.532227,-0.495605,0.683594
281151366259,0.515625,-0.491699,0.708496
281151381972,0.488281,-0.504883,0.704102
281151405117,0.462891,-0.499023,0.638672
281151426395,0.433594,-0.463867,0.573242
281151441938,0.388672,-0.465332,0.587402
281151464502,0.475098,-0.580078,0.631348
281151486368,0.519043,-0.650391,0.678711
281151501935,0.525391,-0.625,0.629395
281151524528,0.522949,-0.587891,0.583984
281151546183,0.541016,-0.616211,0.560059
281151561958,0.66748,-0.689453,0.601074
281151584383,0.786133,-0.668457,0.657715
281151606119,0.743164,-0.646973,0.623535
281151621877,0.695312,-0.639648,0.54541
281151644436,0.650879,-0.71875,0.501465
281151667588,0.547363,-0.65332,0.484863
281151682001,0.490234,-0.515137,0.541992
281151704537,0.518066,-0.479004,0.519531
281151727638,0.560547,-0.471191,0.45459
281151742024,0.631836,-0.465332,0.389648
281151771347,0.757812,-0.461914,0.418945
281151787649,0.844238,-0.444824,0.449219
281151802036,0.819824,-0.449219,0.426758
281151824499,0.815918,-0.466797,0.385742
281151847607,0.838379,-0.505371,0.374512
281151861960,0.845703,-0.493164,0.411621
281151884416,0.816406,-0.486816,0.419922
281151907571,0.783691,-0.459961,0.418457
281151921929,0.765625,-0.422852,0.437012
281151944482,0.749023,-0.417969,0.45752
281151967604,0.749512,-0.416992,0.471191
281151988648,0.73877,-0.391113,0.448242
281152004421,0.766602,-0.493164,0.45459
281152027566,0.813477,-0.538574,0.445801
281152048668,0.801758,-0.483398,0.45166
281152064434,0.79541,-0.443359,0.442383
281152087606,0.793945,-0.462402,0.373535
281152108637,0.804688,-0.435059,0.335449
281152124421,0.814941,-0.389648,0.306641
281152147563,0.890137,-0.412109,0.33252
281152168716,0.893066,-0.433594,0.382812
281152184449,0.864746,-0.397949,0.369141
281152207668,0.880859,-0.398438,0.343262
281152228643,0.886719,-0.39209,0.357422
281152244411,0.878418,-0.362305,0.371094
281152267584,0.84082,-0.348145,0.38623
281152288617,0.795898,-0.393555,0.389648
281152304433,0.793457,-0.41748,0.391113
281152327607,0.802246,-0.396484,0.414551
281152348651,0.802734,-0.399902,0.411621
281152364416,0.817383,-0.447754,0.385254
281152386927,0.835449,-0.438965,0.39209
281152408620,0.828125,-0.422852,0.399902
281152424439,0.819336,-0.444336,0.382324
281152446904,0.843262,-0.444824,0.376465
281152468661,0.844238,-0.398926,0.367188
281152484405,0.807129,-0.383301,0.355469
281152506909,0.805176,-0.383789,0.347168
281152528679,0.805176,-0.380859,0.353516
281152544401,0.79248,-0.398438,0.351074
281152566961,0.807617,-0.384277,0.345703
281152590120,0.821777,-0.372559,0.359863
281152604921,0.827148,-0.381348,0.358887
281152626940,0.832031,-0.393066,0.373535
281152650097,0.82666,-0.408203,0.367676
281152664418,0.827637,-0.427246,0.37793
281152686922,0.828613,-0.413086,0.385742
281152710114,0.816406,-0.395508,0.395508
281152724441,0.824707,-0.411133,0.393066
281152746925,0.834961,-0.424805,0.399902
281152770076,0.847656,-0.402832,0.394531
281152784402,0.851562,-0.399902,0.391113
281152806922,0.839355,-0.37207,0.363281
281152837597,0.806641,-0.316406,0.295898
281152844479,0.838379,-0.371094,0.356445
281152866934,0.859375,-0.42627,0.41748
281152890096,0.833008,-0.437012,0.433594
281152904423,0.77832,-0.416504,0.402344
281152926907,0.766602,-0.456543,0.351562
281152950049,0.791504,-0.438965,0.347656
281152964488,0.795898,-0.379395,0.352051
281152987405,0.806641,-0.374023,0.364746
281153010101,0.81543,-0.439941,0.384766
281153024432,0.796875,-0.484863,0.316406
281153046112,0.869141,-0.428223,0.297852
281153060471,0.852051,-0.297363,0.334473
281153083641,0.808105,-0.285156,0.328613
