myot,myox,myoy,myoz
1457373647,myox,myoy,myoz
450180826555,0.10498,-0.101562,-1.20801
450180841520,0.171875,-0.0844727,-1.15479
450180856543,0.212891,-0.201172,-1.24951
450180878968,0.247559,0.117676,-1.19043
450180901476,0.365234,0.189453,-1.34717
450180916556,0.196777,-0.0644531,-1.7002
450180938991,0.195801,0.119629,-1.63965
450180961504,1.11572,-0.123047,-1.54053
450180976508,0.081543,-0.194824,-0.655762
450180998961,0.473633,-0.132812,-0.679199
450181021487,0.429688,-0.0581055,-1.02148
450181037756,0.193359,-0.341309,-1.20801
450181059103,0.312012,-0.596191,-1.08008
450181081579,0.113281,-0.181641,-1.21338
450181096586,0.0878906,0.183105,-0.946289
450181118952,-0.0126953,0.138184,-0.703125
450181141533,0.161133,-0.0737305,-0.695801
450181156547,0.125977,-0.0429688,-0.697266
450181179001,0.254883,0.212402,-0.777344
450181201445,0.0322266,-0.29541,-0.462402
450181216599,0.287109,-0.437988,-0.739258
450181238996,0.184082,-0.280273,-0.716309
450181261507,0.327148,-0.137207,-0.868652
450181276517,0.236816,-0.29248,-0.783203
450181299033,0.358887,-0.199707,-0.475586
450181321483,0.422852,0.355469,-0.460938
450181336572,0.341309,0.165527,-0.887695
450181358988,0.388184,0.133301,-0.654297
450181381584,0.318359,0.213379,-0.547852
450181396550,0.166504,0.228516,-0.78418
450181418938,0.271973,0.0185547,-1.2417
450181441537,0.276855,0.0400391,-1.12158
450181456511,0.315918,0.181641,-0.807617
450181478991,0.15332,0.40918,-0.561035
450181501572,0.0078125,0.48877,-0.523926
450181524013,-0.00585938,0.572754,-0.709473
450181539011,-0.00537109,0.598633,-0.835938
450181561568,0.0151367,0.533691,-0.754395
450181576579,0.118164,0.490723,-0.678223
450181599052,0.264648,0.542969,-0.830078
450181621536,0.595703,0.63623,-1.17236
450181636533,0.646484,0.73291,-1.4126
450181659045,0.538574,0.677734,-1.31885
450181681539,0.388184,0.445312,-1.21289
450181696553,0.441895,0.297363,-1.19629
450181719049,0.536133,0.244629,-1.19238
450181741545,0.432617,0.274414,-1.04639
450181756571,0.21875,0.399414,-0.870605
450181779007,0.186523,0.397949,-0.775391
450181801553,0.155762,0.438477,-0.766602
450181816664,0.109375,0.432129,-0.775391
450181839044,0.0800781,0.356934,-0.600098
450181861545,0.0859375,0.344727,-0.480469
450181876551,0.148926,0.425293,-0.528809
450181899069,0.162598,0.521484,-0.633301
450181921513,0.115723,0.655762,-0.796387
450181936488,0.0688477,0.618164,-0.746094
450181959074,0.0493164,0.566895,-0.637695
450181981472,0.0810547,0.528809,-0.644531
450181996515,0.161621,0.475098,-0.677734
450182019101,0.192383,0.47998,-0.706543
450182049080,0.144531,0.536133,-0.806641
450182071520,0.14209,0.587402,-0.808105
450182086511,0.196289,0.556152,-0.805176
450182101556,0.229492,0.577637,-0.807617
450182124010,0.256836,0.625977,-0.853516
450182139081,0.373047,0.716309,-0.79834
450182161558,0.289551,0.808105,-0.75
450182176504,0.158691,0.919434,-0.856934
450182199040,0.222656,0.858398,-0.877441
450182221546,0.250977,0.80957,-0.870117
450182236546,0.205078,0.76709,-0.908203
450182259112,0.218262,0.699219,-0.719727
450182281566,0.144531,0.679199,-0.745605
450182296473,0.120117,0.754883,-0.789062
450182319134,0.0883789,0.783203,-0.80127
450182341561,0.0678711,0.744629,-0.703125
450182356556,0.0673828,0.714844,-0.635742
450182379103,0.0991211,0.67627,-0.62207
450182401524,0.14502,0.671875,-0.64209
450182416507,0.147949,0.68457,-0.678223
450182438958,0.131348,0.710938,-0.716309
450182461493,0.123047,0.718262,-0.785645
450182476596,0.142578,0.70752,-0.787598
450182498974,0.152344,0.698242,-0.76416
450182521545,0.163086,0.687988,-0.755371
450182536543,0.16748,0.698242,-0.76416
450182559006,0.155273,0.718262,-0.771973
450182581593,0.116211,0.736328,-0.760742
450182596571,0.110352,0.728027,-0.726074
450182619018,0.111816,0.719238,-0.679688
450182641536,0.110352,0.702637,-0.653809
450182656492,0.11084,0.685059,-0.648438
450182678988,0.090332,0.702148,-0.694336
450182701583,0.0742188,0.710938,-0.733887
450182716550,0.0854492,0.706543,-0.734863
450182739018,0.0864258,0.682617,-0.73291
450182761622,0.0917969,0.666504,-0.730469
450182776611,0.106445,0.66748,-0.736816
450182799069,0.0991211,0.68457,-0.749023
450182821556,0.0952148,0.69873,-0.751465
450182836591,0.0708008,0.711914,-0.737305
450182859117,0.0727539,0.708008,-0.721191
450182881567,0.0810547,0.693359,-0.714844
450182896572,0.09375,0.677246,-0.693359
450182919057,0.103027,0.668457,-0.70166
450182941573,0.0952148,0.671875,-0.710938
450182956602,0.0957031,0.67334,-0.721191
450182979047,0.0922852,0.669922,-0.721191
450183001630,0.0947266,0.669434,-0.72998
450183016612,0.103027,0.669434,-0.736816
450183039037,0.100098,0.686035,-0.740723
450183061509,0.0893555,0.686035,-0.74707
450183076673,0.0869141,0.684082,-0.744141
450183099018,0.0786133,0.703613,-0.746094
450183121631,0.0761719,0.694824,-0.750488
450183136570,0.074707,0.680664,-0.730957
450183159082,0.0595703,0.670898,-0.70752
450183181590,0.0576172,0.663086,-0.705566
450183196467,0.059082,0.66748,-0.722656
450183219061,0.0605469,0.68457,-0.73291
450183241520,0.0610352,0.679199,-0.742676
450183256642,0.0688477,0.680176,-0.726562
450183279099,0.09375,0.67334,-0.717773
450183301517,0.114746,0.655762,-0.710449
450183316534,0.130371,0.649902,-0.694824
450183339063,0.137695,0.643066,-0.703613
450183361581,0.152832,0.652832,-0.713867
450183376504,0.166504,0.648926,-0.702637
450183399106,0.17627,0.654297,-0.712891
450183421574,0.181641,0.65332,-0.726074
450183436539,0.202148,0.657227,-0.714844
450183459093,0.205078,0.689941,-0.726562
450183481596,0.185547,0.729004,-0.760742
450183496602,0.152344,0.746094,-0.796875
450183519123,0.0922852,0.748047,-0.834961
450183541602,0.034668,0.70459,-0.822754
450183556540,-0.0283203,0.706543,-0.748047
450183579086,0.00585938,0.646484,-0.718262
450183601568,-0.0195312,0.624023,-0.782227
450183616575,-0.0439453,0.605957,-0.769531
450183639014,-0.0830078,0.578613,-0.712891
450183661598,-0.074707,0.59375,-0.707031
450183676561,-0.050293,0.640137,-0.733398
450183699057,-0.0712891,0.64209,-0.785156
450183721599,-0.0864258,0.694336,-0.741699
450183736594,-0.104492,0.708496,-0.696777
450183759043,-0.126465,0.70166,-0.67627
450183781597,-0.140137,0.711426,-0.653809
450183796558,-0.133789,0.707031,-0.667969
450183819031,-0.195801,0.661133,-0.635742
450183841616,-0.215332,0.595215,-0.648926
450183856494,-0.236328,0.54834,-0.659668
450183879022,-0.188965,0.499512,-0.724121
450183901635,-0.187012,0.498535,-0.734375
450183916691,-0.151367,0.485352,-0.755371
450183939090,-0.110352,0.510742,-0.744141
450183961658,-0.0634766,0.558594,-0.791504
450183976638,-0.0932617,0.611816,-0.785156
450183999004,-0.134277,0.573242,-0.76709
450184021608,-0.129395,0.597656,-0.731445
450184036612,-0.14502,0.64209,-0.694336
450184059031,-0.134766,0.647949,-0.699219
450184081639,-0.0961914,0.654297,-0.696289
450184096586,-0.143066,0.640625,-0.656738
450184119082,-0.128906,0.637207,-0.624512
450184141566,-0.133789,0.727051,-0.700195
450184156589,-0.122559,0.756836,-0.800293
450184179058,-0.103516,0.760742,-0.867676
450184201588,-0.108398,0.734375,-0.863281
450184216604,-0.090332,0.691895,-0.830566
450184239102,-0.0678711,0.651367,-0.78125
450184261536,-0.0439453,0.59082,-0.755371
450184276696,0.00683594,0.56543,-0.71875
450184299086,0.0556641,0.576172,-0.695801
450184321565,0.0844727,0.5625,-0.688965
450184336545,0.132324,0.573242,-0.688477
450184359042,0.131836,0.605469,-0.75293
450184381605,0.137207,0.589844,-0.818848
450184396655,0.166992,0.60791,-0.929199
450184419045,0.121582,0.648926,-0.931152
450184441594,-0.0209961,0.723633,-0.844238
450184456595,-0.0820312,0.625488,-0.773926
450184479092,-0.0205078,0.619141,-0.789551
450184501578,0.0375977,0.722168,-0.887207
450184516580,-0.0805664,0.602539,-1.03418
450184539086,-0.10498,0.596191,-0.915039
450184569015,-0.162598,0.664062,-0.687012
450184576599,-0.12793,0.583984,-0.699707
450184599116,0.0371094,0.55127,-0.812988
450184621591,0.09375,0.760254,-0.978027
450184636615,0.255859,0.605469,-1.13672
450184659110,0.234863,0.435547,-1.18945
450184681620,0.240234,0.422363,-0.954102
450184696616,0.328613,0.42041,-0.994141
450184719174,0.405273,0.363281,-1.09229
450184741621,0.392578,0.348145,-1.07422
450184756621,0.299316,0.416992,-0.878906
450184779096,0.214844,0.411621,-0.677734
450184801582,0.257812,0.375,-0.653809
450184816627,0.288086,0.335938,-0.680176
450184839058,0.342773,0.253906,-0.748047
450184861586,0.421875,0.294434,-0.765137
450184884093,0.477051,0.364258,-0.818359
450184899137,0.432617,0.445801,-0.92627
450184921622,0.306641,0.475586,-1.04053
450184936622,0.239258,0.499023,-0.983398
450184959086,0.193848,0.525879,-0.821777
450184981585,0.185059,0.538574,-0.790527
450184996620,0.219727,0.508301,-0.830078
450185019019,0.23584,0.429199,-0.838867
450185041578,0.249023,0.354004,-0.855957
450185056551,0.24707,0.220215,-0.876953
450185079004,0.331055,0.165039,-0.760254
450185101597,0.34668,0.19043,-0.834473
450185116597,0.386719,0.229004,-0.810059
450185139075,0.391602,0.41748,-0.927246
450185161578,0.37793,0.581055,-1.0708
450185176587,0.338379,0.634277,-1.05908
450185199045,0.243164,0.63623,-0.848633
450185221585,0.171875,0.539551,-0.757812
450185236562,0.296387,0.477051,-0.66748
450185259063,0.346191,0.499512,-0.72168
450185282019,0.367188,0.504395,-0.758301
450185296664,0.293457,0.443359,-0.791016
450185319062,0.214355,0.379883,-0.827637
450185341577,0.174805,0.352539,-0.855957
450185356582,0.221191,0.357422,-0.894531
450185379027,0.23291,0.39502,-0.967285
450185401700,0.253906,0.381836,-0.996094
450185416600,0.24707,0.399414,-0.974609
450185439011,0.253906,0.411621,-0.933594
450185461522,0.215332,0.406738,-0.916992
450185476655,0.197754,0.433594,-0.877441
450185499056,0.175781,0.476074,-0.865723
450185521539,0.228516,0.472656,-0.874023
450185536725,0.23877,0.503418,-0.853516
450185559086,0.211426,0.524414,-0.849609
450185581568,0.166016,0.499023,-0.842773
450185596542,0.120605,0.463867,-0.849121
450185619098,0.117676,0.416016,-0.90918
450185641569,0.135742,0.416992,-0.905762
450185656564,0.158203,0.501465,-0.867188
450185679081,0.144531,0.54834,-0.877441
450185701538,0.119141,0.59668,-0.895508
450185716551,0.0693359,0.645508,-0.850098
450185739068,0.000976562,0.673828,-0.796387
450185761571,0.00683594,0.663574,-0.714844
450185776542,0.0239258,0.646484,-0.660645
450185799073,0.015625,0.598633,-0.648926
450185821553,0.0478516,0.60498,-0.688965
450185836551,0.0693359,0.627441,-0.723633
450185859138,0.0942383,0.637695,-0.733398
450185881554,0.0771484,0.618164,-0.781738
450185896558,0.0717773,0.59375,-0.78125
450185919106,0.0810547,0.584961,-0.762695
450185941589,0.112793,0.587402,-0.785645
450185956565,0.13623,0.601074,-0.817383
450185979119,0.128418,0.625488,-0.804688
450186001603,0.140625,0.638672,-0.79541
450186016577,0.145508,0.614746,-0.798828
450186039097,0.0458984,0.526367,-0.835449
450186061579,0.043457,0.576172,-0.769043
450186076576,0.114746,0.538086,-0.771484
450186099104,0.164062,0.530762,-0.848633
450186114111,0.175293,0.539551,-0.906738
450186136596,0.142578,0.539551,-0.893066
450186159069,0.0825195,0.563477,-0.861816
450186181573,0.0429688,0.549316,-0.86084
450186196608,0.059082,0.524414,-0.851074
450186219059,0.065918,0.52832,-0.847168
450186234102,0.107422,0.515137,-0.824219
450186256652,0.126953,0.518066,-0.821289
450186279069,0.128418,0.536133,-0.849609
450186294068,0.123535,0.558105,-0.875
450186316666,0.105957,0.565918,-0.866211
450186339055,0.0976562,0.570801,-0.85791
450186354044,0.10498,0.547852,-0.833984
450186376776,0.113281,0.526855,-0.828613
450186399133,0.132812,0.514648,-0.835938
450186414121,0.146973,0.51416,-0.849121
450186436723,0.152832,0.508789,-0.844238
450186459145,0.137207,0.504883,-0.838867
450186481739,0.137695,0.505371,-0.838379
450186496681,0.14502,0.510254,-0.840332
450186519108,0.130371,0.515137,-0.831055
450186534155,0.113281,0.533203,-0.831055
450186556685,0.102539,0.532227,-0.837402
450186579153,0.104004,0.527344,-0.85498
450186594171,0.111328,0.510254,-0.857422
450186616713,0.114258,0.503906,-0.851074
450186639113,0.132324,0.501465,-0.837402
450186661739,0.133789,0.496582,-0.851074
450186676742,0.131836,0.494629,-0.873047
450186699131,0.122559,0.492676,-0.874023
450186721672,0.129883,0.502441,-0.867676
450186736668,0.125488,0.491699,-0.865234
450186759178,0.131348,0.483887,-0.860352
450186781668,0.137695,0.480469,-0.854004
450186796729,0.151855,0.484863,-0.85498
450186819170,0.15625,0.496582,-0.858887
450186841585,0.131348,0.494141,-0.861816
450186856649,0.133301,0.487305,-0.847656
450186879098,0.115234,0.489258,-0.85498
450186901668,0.102539,0.49707,-0.86377
450186916618,0.116699,0.505859,-0.852051
450186939153,0.131836,0.518555,-0.85498
450186961616,0.131836,0.497559,-0.87207
450186976651,0.117676,0.475098,-0.881348
450186999171,0.102051,0.471191,-0.868164
450187021663,0.0830078,0.469238,-0.865723
450187036576,0.090332,0.475586,-0.874023
450187059284,0.124023,0.464355,-0.90332
450187081715,0.13916,0.464844,-0.887695
450187096663,0.131348,0.482422,-0.883301
450187119166,0.112305,0.485352,-0.865234
450187141731,0.09375,0.480469,-0.851562
450187156695,0.0805664,0.476074,-0.859375
450187179199,0.0878906,0.472656,-0.871582
450187201673,0.0874023,0.487305,-0.884766
450187224123,0.101074,0.493652,-0.88916
450187239204,0.103027,0.476562,-0.898438
450187261774,0.09375,0.463379,-0.882812
450187276709,0.0820312,0.459473,-0.866699
450187299160,0.0888672,0.474121,-0.864746
450187321765,0.101562,0.493164,-0.876953
450187336745,0.118164,0.498047,-0.887207
450187359198,0.106445,0.495605,-0.873535
450187381719,0.0966797,0.494629,-0.861328
450187396720,0.0942383,0.492676,-0.859863
450187419117,0.112305,0.481445,-0.859863
450187441689,0.114746,0.471191,-0.863281
450187456740,0.123535,0.478027,-0.868164
450187479111,0.110352,0.48877,-0.885742
450187501733,0.107422,0.487305,-0.896484
450187516699,0.105957,0.501465,-0.875488
450187539111,0.100098,0.508301,-0.861816
450187561717,0.109863,0.499512,-0.833496
450187584136,0.124023,0.487793,-0.827637
450187599134,0.0922852,0.470215,-0.849121
450187621685,0.0810547,0.481445,-0.871094
450187644132,0.078125,0.475586,-0.898926
450187659143,0.0922852,0.466797,-0.91748
450187681690,0.107422,0.455078,-0.90332
450187704136,0.119629,0.44873,-0.882324
450187719141,0.123047,0.457031,-0.873535
450187741722,0.124023,0.471191,-0.884277
450187764143,0.112305,0.483398,-0.880371
450187779184,0.097168,0.501953,-0.862793
450187801736,0.090332,0.493652,-0.847168
450187824243,0.0966797,0.491699,-0.85498
450187839182,0.101074,0.478027,-0.864258
450187861706,0.097168,0.483887,-0.871582
450187884214,0.102051,0.500488,-0.888672
450187899200,0.109863,0.5,-0.894043
450187921709,0.102051,0.491211,-0.878418
450187944147,0.0927734,0.485352,-0.857422
450187959194,0.0952148,0.481445,-0.841309
450187974143,0.11084,0.475098,-0.848633
450187996702,0.105469,0.475098,-0.870117
450188019208,0.0947266,0.487793,-0.885742
450188034133,0.0878906,0.485352,-0.886719
450188056727,0.0932617,0.469727,-0.88623
450188079160,0.104492,0.458496,-0.878906
450188094165,0.11084,0.459961,-0.868164
450188116759,0.123047,0.456055,-0.872559
450188139180,0.125,0.460449,-0.876465
450188154227,0.114258,0.476074,-0.867676
450188176722,0.111816,0.490234,-0.858887
450188199221,0.10498,0.497559,-0.870117
450188214197,0.097168,0.489258,-0.879395
450188236724,0.101562,0.48584,-0.879883
450188259138,0.097168,0.479004,-0.868652
450188274198,0.103516,0.468262,-0.873535
450188296720,0.114258,0.468262,-0.869141
450188319176,0.118164,0.466797,-0.881348
450188334209,0.117188,0.487305,-0.874023
450188356684,0.0991211,0.500488,-0.881836
450188379190,0.102051,0.495605,-0.883301
450188394157,0.106445,0.487305,-0.86377
450188416658,0.106445,0.476562,-0.858398
450188439214,0.109375,0.477539,-0.864746
450188454227,0.123535,0.482422,-0.875
450188476682,0.112793,0.488281,-0.871582
450188499236,0.0981445,0.473145,-0.878418
450188514265,0.09375,0.465332,-0.868652
450188536687,0.101562,0.460938,-0.856934
450188559225,0.0874023,0.462891,-0.877441
450188574223,0.108398,0.46582,-0.89502
450188596683,0.115723,0.466309,-0.905762
450188619185,0.105957,0.469727,-0.895996
450188634185,0.107422,0.462402,-0.877441
450188656713,0.111328,0.458984,-0.855957
450188679174,0.123047,0.473633,-0.867676
450188694192,0.124023,0.472656,-0.880371
450188716723,0.11377,0.484375,-0.869629
450188739130,0.0966797,0.480957,-0.870605
450188754248,0.0996094,0.46875,-0.869141
450188776712,0.111816,0.474609,-0.875488
450188799192,0.111816,0.477051,-0.88623
450188814188,0.106934,0.47168,-0.881836
450188836687,0.101074,0.471191,-0.875
450188859169,0.106445,0.471191,-0.875977
450188874160,0.113281,0.472168,-0.875488
450188896716,0.112793,0.46875,-0.879883
450188919201,0.111816,0.477539,-0.872559
450188934141,0.113281,0.469727,-0.871094
450188956689,0.108887,0.468262,-0.880859
450188979231,0.10791,0.473145,-0.876465
450188994135,0.115234,0.473633,-0.875977
450189016750,0.114746,0.472168,-0.87793
450189039188,0.113281,0.470215,-0.874023
450189054189,0.0991211,0.465332,-0.87207
450189076727,0.0986328,0.470703,-0.875977
450189099157,0.106934,0.475586,-0.886719
450189114161,0.105957,0.46875,-0.879883
450189136786,0.111816,0.471191,-0.874512
450189166691,0.111816,0.472168,-0.870605
450189174163,0.112305,0.476074,-0.875977
450189196745,0.11377,0.466309,-0.881836
450189219226,0.111328,0.472168,-0.875488
450189234112,0.108398,0.466309,-0.880371
450189256723,0.112793,0.467773,-0.87793
450189279191,0.119141,0.469238,-0.87793
450189294235,0.118164,0.470215,-0.878906
450189316726,0.110352,0.476074,-0.872559
450189339253,0.103027,0.474609,-0.872559
450189354232,0.0976562,0.47168,-0.870117
450189376738,0.103516,0.464355,-0.875488
450189399174,0.117188,0.466797,-0.881836
450189414145,0.118164,0.476074,-0.876465
450189436700,0.111328,0.475586,-0.876465
450189459184,0.116699,0.468262,-0.86377
450189474182,0.123047,0.477051,-0.86377
450189496723,0.121094,0.494141,-0.86084
450189519211,0.110352,0.48584,-0.867188
450189534167,0.12793,0.469238,-0.872559
450189556708,0.115723,0.460938,-0.881836
450189579218,0.107422,0.462402,-0.88916
450189594274,0.097168,0.457031,-0.888672
450189616730,0.105957,0.452637,-0.884277
450189639212,0.105469,0.448242,-0.883301
450189654246,0.105957,0.467773,-0.873047
450189676686,0.0961914,0.470703,-0.871582
450189699249,0.0991211,0.464355,-0.880371
450189714212,0.101074,0.464355,-0.881348
450189736719,0.106445,0.459473,-0.883789
450189759244,0.117188,0.458984,-0.878906
450189774210,0.11377,0.458008,-0.878906
450189796699,0.124023,0.458008,-0.881348
450189819216,0.119629,0.462891,-0.870605
450189834212,0.113281,0.470703,-0.874023
450189856684,0.11084,0.474609,-0.879395
450189879269,0.11084,0.475098,-0.881836
450189894211,0.109375,0.472168,-0.881348
450189916699,0.110352,0.469238,-0.873535
450189939203,0.118164,0.470703,-0.883789
450189954280,0.118652,0.47168,-0.886719
450189976680,0.11377,0.464355,-0.873535
450189999207,0.116699,0.459473,-0.876953
450190014243,0.122559,0.460449,-0.881348
450190036725,0.125977,0.464355,-0.875488
450190059149,0.125,0.462891,-0.871582
450190074197,0.105469,0.467285,-0.86084
450190096688,0.117188,0.470703,-0.864746
450190119231,0.111328,0.463867,-0.876953
450190141769,0.114746,0.474121,-0.887695
450190156717,0.105469,0.474121,-0.885254
450190186657,0.109375,0.471191,-0.867676
450190194197,0.109375,0.470215,-0.867676
450190216709,0.124512,0.462402,-0.882324
450190239190,0.121582,0.459961,-0.870605
450190254229,0.120605,0.464355,-0.873047
450190276764,0.117188,0.472656,-0.887695
450190299233,0.109863,0.478516,-0.88623
450190314154,0.121094,0.481445,-0.878906
450190336751,0.111328,0.475098,-0.866211
450190359210,0.111816,0.478027,-0.86084
450190374223,0.11084,0.472656,-0.863281
450190396721,0.119141,0.473145,-0.880371
450190419272,0.121582,0.470215,-0.87793
450190434241,0.120117,0.466309,-0.875488
450190456781,0.121582,0.461426,-0.881348
450190479241,0.119629,0.46582,-0.890137
450190494189,0.112305,0.458008,-0.879883
450190516778,0.117676,0.458008,-0.882812
450190539225,0.11084,0.461914,-0.880371
450190554210,0.118652,0.461426,-0.883301
450190576771,0.120605,0.461914,-0.883789
450190599216,0.11084,0.461914,-0.87793
450190614247,0.111816,0.464355,-0.882324
450190636763,0.115234,0.468262,-0.882812
450190659210,0.117676,0.469238,-0.879883
450190674251,0.115723,0.462402,-0.878418
450190696630,0.114746,0.464844,-0.875977
450190719248,0.115723,0.463379,-0.878418
450190734248,0.115723,0.464844,-0.879883
450190756687,0.118652,0.474609,-0.881348
450190779256,0.113281,0.464355,-0.884277
450190794226,0.109863,0.470703,-0.880371
450190816687,0.115234,0.467773,-0.875977
450190839213,0.116699,0.459961,-0.875977
450190854208,0.120605,0.459473,-0.880859
450190876776,0.120605,0.464355,-0.874023
450190899244,0.121094,0.463379,-0.879883
450190914173,0.114746,0.463379,-0.886719
450190936688,0.106445,0.472168,-0.878906
450190959272,0.11084,0.47168,-0.875
450190974270,0.112305,0.464844,-0.881836
450190996720,0.11084,0.460449,-0.883789
450191019290,0.108887,0.462402,-0.883789
450191034276,0.115723,0.476562,-0.88916
450191056750,0.116211,0.468262,-0.891113
450191079293,0.11377,0.466797,-0.880859
450191094271,0.103516,0.46582,-0.868164
450191116746,0.111816,0.456543,-0.858887
450191139242,0.121094,0.450195,-0.880859
450191154235,0.117676,0.453125,-0.895508
450191176793,0.118652,0.446777,-0.891113
450191199278,0.118652,0.464844,-0.890137
450191214212,0.115723,0.461426,-0.882324
450191236744,0.121582,0.458008,-0.877441
450191259264,0.119141,0.462402,-0.873047
450191274292,0.112793,0.475586,-0.867676
450191296735,0.117188,0.475586,-0.877441
450191319285,0.121582,0.48291,-0.891602
450191334357,0.11377,0.479004,-0.892578
450191356777,0.111816,0.468262,-0.872559
450191379275,0.114746,0.45752,-0.860352
450191394248,0.120605,0.450684,-0.869141
450191416785,0.120605,0.455566,-0.888672
450191439252,0.114746,0.460938,-0.900391
450191454193,0.104492,0.461914,-0.898438
450191476797,0.106934,0.455566,-0.88623
450191499210,0.123535,0.452637,-0.870605
450191514212,0.125,0.461914,-0.862305
450191536769,0.122559,0.458496,-0.878418
450191559211,0.110352,0.458008,-0.884277
450191574246,0.105469,0.467773,-0.879883
450191596738,0.120117,0.466309,-0.888672
450191619218,0.125488,0.468262,-0.883789
450191634213,0.130859,0.462891,-0.875977
450191656764,0.117676,0.458984,-0.869629
450191679231,0.109863,0.457031,-0.869629
450191694246,0.105469,0.459961,-0.882812
450191716795,0.114746,0.460938,-0.895996
450191739238,0.114258,0.467285,-0.895996
450191754252,0.124023,0.458496,-0.885254
450191776768,0.12207,0.45166,-0.860352
450191799243,0.125977,0.452148,-0.869629
450191821818,0.123047,0.449707,-0.878418
450191836775,0.114258,0.455566,-0.878906
450191859233,0.109375,0.464355,-0.885254
450191874287,0.113281,0.464355,-0.908691
450191896701,0.115723,0.45752,-0.899414
450191919272,0.114746,0.461914,-0.878418
450191941727,0.112305,0.455566,-0.867676
450191956758,0.114258,0.45752,-0.884277
450191979210,0.119141,0.461426,-0.880371
450191994220,0.111816,0.467285,-0.88916
450192016776,0.123047,0.462891,-0.890137
450192039271,0.117188,0.450195,-0.878906
450192054281,0.119629,0.442871,-0.875
450192076737,0.119629,0.445312,-0.882324
450192099263,0.116211,0.458496,-0.888184
450192114270,0.118652,0.461914,-0.887207
450192136773,0.119629,0.459961,-0.886719
450192159235,0.115234,0.455078,-0.886719
450192174272,0.116699,0.456543,-0.878906
450192196711,0.11377,0.458008,-0.877441
450192219254,0.119629,0.452148,-0.881348
450192234255,0.110352,0.455566,-0.889648
450192256737,0.11377,0.456055,-0.885742
450192279274,0.121094,0.453613,-0.884766
450192294293,0.122559,0.452637,-0.888184
450192316766,0.115234,0.462891,-0.87793
450192339498,0.111816,0.462402,-0.871582
450192354330,0.114746,0.458984,-0.879883
450192376781,0.114258,0.467285,-0.881348
450192399259,0.115234,0.455566,-0.877441
450192414197,0.118164,0.45166,-0.888184
450192436742,0.112305,0.45459,-0.88916
450192459287,0.121094,0.458496,-0.886719
450192474288,0.121582,0.460449,-0.884766
450192496743,0.118164,0.456543,-0.87793
450192519216,0.119141,0.462891,-0.881348
450192534269,0.119629,0.458496,-0.870117
450192556807,0.119629,0.45166,-0.882812
450192579315,0.123047,0.455078,-0.891113
450192594240,0.120117,0.458008,-0.888184
450192616859,0.121582,0.456543,-0.880371
450192639238,0.120117,0.460938,-0.883789
450192654287,0.115234,0.464844,-0.875977
450192676815,0.115234,0.46582,-0.873535
450192699237,0.113281,0.461426,-0.878418
450192714322,0.111816,0.455078,-0.88916
450192736765,0.119141,0.456543,-0.88623
450192759277,0.125,0.455566,-0.891113
450192774242,0.119141,0.450684,-0.874023
450192796791,0.112305,0.458984,-0.872559
450192819274,0.121094,0.462402,-0.869629
450192834279,0.120605,0.466309,-0.882324
450192856734,0.119141,0.460449,-0.885254
450192879286,0.114746,0.452148,-0.878418
450192894311,0.118652,0.455078,-0.881348
450192916814,0.120605,0.452637,-0.894043
450192939231,0.117188,0.452637,-0.888672
450192954245,0.112305,0.462891,-0.877441
450192976818,0.114746,0.469727,-0.874023
450192999309,0.116699,0.46875,-0.881348
450193014181,0.113281,0.46582,-0.878418
450193036847,0.113281,0.462891,-0.875488
450193059297,0.121582,0.459961,-0.878906
450193074245,0.128418,0.447754,-0.888672
450193096786,0.121582,0.447754,-0.883301
450193119293,0.116211,0.451172,-0.874023
450193134195,0.12207,0.455566,-0.885742
450193156848,0.120117,0.46875,-0.881836
450193179288,0.11377,0.471191,-0.879395
450193194319,0.111328,0.466797,-0.871582
450193216790,0.111816,0.461914,-0.875488
450193239295,0.119141,0.464355,-0.88623
450193254295,0.115234,0.464844,-0.883789
450193276802,0.115723,0.453125,-0.88916
450193299268,0.119141,0.450684,-0.878906
450193314192,0.119629,0.454102,-0.883301
450193336746,0.120117,0.460449,-0.87793
450193359331,0.125,0.46582,-0.887695
450193374300,0.116699,0.46582,-0.88623
450193396695,0.114746,0.467773,-0.880371
450193419265,0.115234,0.472168,-0.875977
450193434289,0.118652,0.474121,-0.870117
450193456742,0.12207,0.469727,-0.873535
450193479288,0.113281,0.461426,-0.873535
450193494302,0.111816,0.455078,-0.887207
450193516743,0.11377,0.44873,-0.887207
450193539327,0.109375,0.452148,-0.884766
450193554274,0.117188,0.450684,-0.89209
450193576781,0.117676,0.45752,-0.888184
450193599289,0.120605,0.464844,-0.879395
450193614283,0.121094,0.474609,-0.873535
450193636806,0.122559,0.470703,-0.866699
450193659378,0.120605,0.461426,-0.877441
450193674335,0.116699,0.469238,-0.872559
450193696786,0.120117,0.46582,-0.875
450193719329,0.12207,0.459961,-0.896484
450193734308,0.125,0.460449,-0.892578
450193756802,0.121094,0.462891,-0.873047
450193779282,0.120605,0.464844,-0.866211
450193794312,0.129883,0.462402,-0.869141
450193816792,0.124512,0.461426,-0.871094
450193839318,0.120117,0.464844,-0.874512
450193854340,0.124023,0.472168,-0.876953
450193876791,0.118652,0.462402,-0.89502
450193899325,0.109375,0.460449,-0.88916
450193914311,0.109375,0.46875,-0.875977
450193936816,0.114746,0.465332,-0.878418
450193959248,0.116211,0.45166,-0.884766
450193974355,0.11377,0.451172,-0.884277
450193996753,0.107422,0.442383,-0.875
450194019275,0.112305,0.447266,-0.88916
450194034271,0.125488,0.446289,-0.893555
450194056859,0.125977,0.444336,-0.888184
450194079218,0.131836,0.447266,-0.877441
450194094301,0.12793,0.442871,-0.878906
450194116795,0.12793,0.447754,-0.882812
450194139233,0.126465,0.449219,-0.896973
450194154297,0.120605,0.452148,-0.89209
450194176880,0.116211,0.452148,-0.877441
450194199361,0.109375,0.440918,-0.884766
450194221877,0.12793,0.450195,-0.879395
450194236850,0.114258,0.467773,-0.870605
450194259323,0.119141,0.466309,-0.883789
450194281783,0.125977,0.466797,-0.891113
450194296847,0.122559,0.459961,-0.88623
450194319289,0.126953,0.464355,-0.881836
450194341771,0.130859,0.449707,-0.891602
450194356813,0.133301,0.452148,-0.890625
450194379327,0.127441,0.450195,-0.882812
450194401746,0.123047,0.456543,-0.873047
450194416806,0.120117,0.460449,-0.866211
450194439767,0.120605,0.459961,-0.877441
450194461842,0.122559,0.453125,-0.888184
450194477205,0.120117,0.452637,-0.89502
450194499319,0.109863,0.461426,-0.884277
450194521854,0.125,0.456543,-0.879883
450194536813,0.129395,0.446289,-0.880371
450194559313,0.131348,0.44873,-0.87793
450194581794,0.128418,0.459473,-0.880859
450194596805,0.119629,0.464355,-0.874023
450194619320,0.120117,0.469727,-0.879395
450194641855,0.128906,0.465332,-0.882812
450194656889,0.122559,0.463379,-0.881836
450194679314,0.129395,0.462891,-0.878418
450194701776,0.12793,0.45752,-0.883789
450194716801,0.122559,0.45459,-0.877441
450194739312,0.123047,0.459961,-0.878906
450194761823,0.126465,0.460938,-0.881348
450194776823,0.127441,0.455078,-0.88623
450194799308,0.121582,0.458496,-0.883301
450194821785,0.12207,0.450684,-0.882812
450194836895,0.125488,0.451172,-0.880371
450194859350,0.132324,0.445312,-0.877441
450194881776,0.130859,0.444336,-0.879395
450194896819,0.128906,0.45459,-0.887207
450194911846,0.115234,0.467285,-0.884277
450194934348,0.117188,0.473145,-0.882324
450194956845,0.125977,0.458008,-0.878418
450194971825,0.130371,0.453125,-0.874512
450194994796,0.122559,0.442871,-0.881348
450195016829,0.126953,0.442871,-0.887207
450195031783,0.123047,0.449707,-0.896484
450195054315,0.125977,0.45459,-0.888672
450195076864,0.124512,0.453125,-0.883301
450195091838,0.11084,0.45166,-0.884277
450195114390,0.114746,0.453125,-0.883789
450195136832,0.121094,0.460938,-0.882812
450195151820,0.123047,0.463867,-0.89209
450195174430,0.109375,0.456543,-0.893066
450195196849,0.115234,0.449707,-0.878906
450195211823,0.137207,0.452148,-0.882324
450195234442,0.133301,0.455566,-0.886719
450195256865,0.121094,0.463867,-0.884277
450195271847,0.128418,0.458984,-0.870117
450195294380,0.112305,0.449219,-0.879395
450195316834,0.112793,0.446289,-0.887695
450195331815,0.115723,0.450684,-0.884766
450195354308,0.121094,0.455078,-0.897461
450195376832,0.124512,0.45459,-0.89502
450195391812,0.115723,0.460938,-0.894531
450195414289,0.115234,0.45459,-0.878906
450195436848,0.123535,0.456055,-0.876953
450195451810,0.126465,0.451172,-0.882324
450195474288,0.119629,0.441895,-0.887695
450195496820,0.112793,0.442871,-0.879395
450195511882,0.117188,0.44043,-0.893555
450195534320,0.126465,0.44873,-0.894043
450195556904,0.128906,0.457031,-0.896973
450195571871,0.119141,0.459473,-0.879883
450195594310,0.115234,0.457031,-0.873047
450195616837,0.124512,0.452637,-0.876465
450195631835,0.12793,0.450195,-0.890625
450195654345,0.124023,0.455078,-0.890137
450195676872,0.126465,0.447754,-0.890625
450195691769,0.123047,0.439941,-0.893555
450195714255,0.123047,0.445801,-0.882812
450195736844,0.124023,0.450195,-0.882324
450195751839,0.112793,0.453613,-0.880371
450195774319,0.110352,0.453613,-0.888184
450195796836,0.112305,0.449219,-0.89209
450195811869,0.121582,0.449219,-0.888672
450195834391,0.123535,0.442383,-0.899414
450195856897,0.128418,0.441406,-0.881836
450195871883,0.125,0.452148,-0.884277
450195894341,0.129883,0.446777,-0.885254
450195916868,0.121582,0.45459,-0.885254
450195931867,0.121094,0.456055,-0.882324
450195954334,0.134277,0.444824,-0.88623
450195976865,0.130859,0.445312,-0.889648
450195991904,0.120117,0.444824,-0.89209
450196014295,0.115234,0.449219,-0.887695
450196036792,0.120605,0.450195,-0.887207
450196051830,0.12207,0.45459,-0.88623
450196074312,0.119141,0.450195,-0.88623
450196096827,0.108887,0.455566,-0.893555
450196111789,0.100098,0.451172,-0.88623
450196134301,0.113281,0.439453,-0.882812
450196156806,0.131836,0.435547,-0.886719
450196171796,0.137207,0.445801,-0.881836
450196194317,0.134277,0.447266,-0.891113
450196216796,0.12207,0.443359,-0.884277
450196231776,0.115234,0.449707,-0.891602
450196254305,0.113281,0.453613,-0.893555
450196276803,0.132324,0.459961,-0.894531
450196291766,0.126465,0.45459,-0.887695
450196314302,0.123535,0.447754,-0.887695
450196336787,0.121582,0.443848,-0.884766
450196351795,0.12793,0.446289,-0.865234
450196374353,0.137695,0.445312,-0.854492
450196396790,0.131348,0.44873,-0.872559
450196411804,0.118164,0.450684,-0.890137
450196434353,0.118164,0.458008,-0.879395
450196456808,0.097168,0.44873,-0.893066
450196471814,0.102539,0.444336,-0.911621
450196494326,0.10791,0.453613,-0.905273
450196516789,0.111328,0.455078,-0.89502
450196531807,0.107422,0.45459,-0.889648
450196554333,0.11084,0.462891,-0.888184
450196576784,0.117676,0.459961,-0.875977
450196591819,0.124023,0.462891,-0.875
450196614374,0.12207,0.456543,-0.883789
450196636773,0.124512,0.453125,-0.883789
450196651789,0.126465,0.458008,-0.887695
450196674279,0.121582,0.450195,-0.887207
450196697277,0.125,0.443848,-0.883789
450196711775,0.123047,0.446289,-0.87207
450196734281,0.122559,0.447754,-0.883789
450196756789,0.131836,0.45459,-0.890625
450196771811,0.125488,0.460449,-0.894531
450196794287,0.117676,0.460449,-0.885254
450196816838,0.111816,0.462402,-0.880859
450196831840,0.116211,0.457031,-0.87793
450196854306,0.118164,0.45459,-0.881836
450196876811,0.112793,0.458496,-0.88623
450196891815,0.112305,0.457031,-0.891602
450196914315,0.120117,0.449219,-0.892578
450196936819,0.124512,0.447266,-0.887207
450196951819,0.126953,0.439941,-0.887207
450196974313,0.125977,0.439453,-0.88623
450196996820,0.121582,0.449707,-0.880859
450197011847,0.121094,0.447266,-0.893555
450197034337,0.123535,0.445312,-0.888184
450197056814,0.120605,0.455566,-0.888184
450197071830,0.121094,0.454102,-0.884766
450197094303,0.12207,0.455566,-0.878906
450197116856,0.117676,0.450684,-0.884766
450197131830,0.117676,0.450684,-0.881836
450197154311,0.117188,0.454102,-0.890137
450197176859,0.122559,0.444824,-0.887207
450197191836,0.12793,0.453125,-0.88916
450197221814,0.117676,0.45752,-0.885742
450197236860,0.12207,0.453613,-0.879395
450197251840,0.12207,0.452148,-0.879395
450197274300,0.121094,0.447266,-0.891602
450197296843,0.122559,0.455566,-0.891602
450197311881,0.12207,0.450195,-0.882812
450197334313,0.121094,0.439941,-0.89209
450197356854,0.128906,0.445312,-0.891602
450197371891,0.127441,0.451172,-0.876953
450197394339,0.120117,0.446777,-0.887207
450197416901,0.120117,0.451172,-0.888672
450197431854,0.120605,0.45752,-0.881348
450197454391,0.124023,0.459473,-0.876465
450197476828,0.124512,0.451172,-0.890137
450197492316,0.113281,0.442871,-0.88916
450197514410,0.115234,0.447266,-0.885742
450197536854,0.126465,0.446289,-0.884277
450197551854,0.125488,0.443359,-0.883301
450197574393,0.125977,0.449707,-0.878418
450197596870,0.121582,0.455078,-0.88623
450197611798,0.112305,0.460449,-0.887695
450197634427,0.120605,0.45459,-0.887695
450197656842,0.119141,0.452637,-0.875977
450197671835,0.121582,0.449707,-0.881348
450197694331,0.133789,0.446289,-0.87793
450197716861,0.129883,0.445801,-0.885742
450197731897,0.118652,0.450195,-0.891113
450197754382,0.119629,0.45459,-0.888184
450197776902,0.119629,0.450195,-0.886719
450197791857,0.119629,0.449707,-0.879395
450197814369,0.121094,0.450684,-0.881836
450197836862,0.125488,0.450195,-0.883789
450197851900,0.125977,0.449707,-0.88916
450197874341,0.118652,0.455078,-0.888672
450197896894,0.116211,0.450195,-0.878906
450197911816,0.124023,0.452148,-0.881836
450197934359,0.127441,0.452148,-0.879395
450197956889,0.117676,0.453125,-0.881348
450197971923,0.11377,0.448242,-0.886719
450197994406,0.120117,0.439453,-0.894531
450198016938,0.126465,0.449219,-0.88916
450198031878,0.127441,0.456055,-0.890625
450198054393,0.130371,0.452148,-0.879883
450198076935,0.120605,0.451172,-0.875
450198091901,0.120117,0.447266,-0.881836
450198114342,0.121094,0.453125,-0.890625
450198136864,0.117188,0.450195,-0.894531
450198151951,0.121094,0.441406,-0.89209
450198174372,0.120605,0.449707,-0.894043
450198196894,0.121094,0.452637,-0.88916
450198211940,0.120605,0.454102,-0.882324
450198234396,0.132324,0.458496,-0.880371
450198256992,0.12207,0.453125,-0.882324
450198271921,0.123047,0.449707,-0.88623
450198294361,0.121094,0.449707,-0.890625
450198316896,0.117676,0.437012,-0.884277
450198331862,0.117188,0.439453,-0.881348
450198354400,0.125,0.445312,-0.890625
450198376874,0.128906,0.457031,-0.892578
450198391881,0.119141,0.465332,-0.890625
450198414402,0.118164,0.460449,-0.888672
450198436959,0.118164,0.44873,-0.883789
450198451890,0.123047,0.445801,-0.876953
450198474445,0.129883,0.439941,-0.879883
450198496857,0.134277,0.439453,-0.891113
450198511890,0.125488,0.444824,-0.896484
450198534423,0.119629,0.453613,-0.88916
450198556852,0.118652,0.458496,-0.883789
450198571912,0.127441,0.457031,-0.879395
450198594383,0.126465,0.453125,-0.875977
450198616862,0.119141,0.451172,-0.883301
450198631968,0.119629,0.45166,-0.891113
450198654389,0.118652,0.445312,-0.887695
450198676897,0.128418,0.436523,-0.888184
450198691915,0.12793,0.447266,-0.888184
450198714421,0.125488,0.456543,-0.880371
450198736823,0.120117,0.45752,-0.881348
450198751895,0.117188,0.456543,-0.887695
450198774417,0.116699,0.45752,-0.883789
450198796899,0.126465,0.449219,-0.880371
450198811870,0.133301,0.438477,-0.887695
450198834426,0.12793,0.443359,-0.883789
450198856894,0.120605,0.448242,-0.889648
450198871854,0.12207,0.445312,-0.890625
450198894407,0.119141,0.453125,-0.891602
450198916884,0.125977,0.464844,-0.879395
450198931884,0.125977,0.458496,-0.885742
450198954415,0.120117,0.45166,-0.889648
450198976860,0.121094,0.452637,-0.878906
450198991906,0.129395,0.458496,-0.884766
450199014497,0.135742,0.45166,-0.893066
450199036921,0.121582,0.445801,-0.88916
450199051924,0.121094,0.445312,-0.883789
450199074486,0.123535,0.450195,-0.87793
450199096899,0.120605,0.452148,-0.893066
450199111899,0.120605,0.452148,-0.887695
450199134483,0.119141,0.460938,-0.883301
450199156829,0.126953,0.45752,-0.895508
450199171943,0.121582,0.455566,-0.888672
450199194476,0.123047,0.450684,-0.880371
450199216935,0.124023,0.439941,-0.880859
450199231923,0.128418,0.447754,-0.886719
450199254506,0.120605,0.441895,-0.890137
450199276913,0.125977,0.445801,-0.887207
450199291912,0.121582,0.450195,-0.888672
450199314357,0.124023,0.452637,-0.890625
450199336931,0.122559,0.459473,-0.88623
450199351910,0.121582,0.459961,-0.884766
450199374394,0.119141,0.450195,-0.881348
450199396944,0.121582,0.444824,-0.875
450199411911,0.123047,0.449219,-0.88916
450199434419,0.121582,0.441406,-0.89502
450199456914,0.124023,0.444824,-0.888184
450199471913,0.121582,0.452637,-0.893555
450199494426,0.125,0.455078,-0.883789
450199516918,0.125977,0.455078,-0.880371
450199531916,0.121094,0.453613,-0.87207
450199554365,0.117188,0.451172,-0.882324
450199576875,0.114258,0.45752,-0.890625
450199591978,0.12793,0.448242,-0.883789
450199614379,0.125488,0.44873,-0.891113
450199637003,0.121094,0.45166,-0.88916
450199651979,0.12207,0.450195,-0.881348
450199674426,0.123047,0.451172,-0.876953
450199696982,0.125,0.447754,-0.890625
450199711891,0.12207,0.454102,-0.890625
450199734446,0.114746,0.453125,-0.890137
450199756973,0.124023,0.442383,-0.886719
450199771972,0.124512,0.444824,-0.884766
450199794409,0.122559,0.446777,-0.884766
450199816939,0.122559,0.45459,-0.882812
450199831940,0.123047,0.456055,-0.882812
450199854414,0.123535,0.460449,-0.884277
450199876916,0.120605,0.460449,-0.882324
450199891934,0.115723,0.453613,-0.881836
450199914419,0.117188,0.451172,-0.887695
450199936920,0.122559,0.437012,-0.889648
450199951938,0.123535,0.446289,-0.885254
450199974486,0.124023,0.445801,-0.884277
450199996902,0.125488,0.443848,-0.891113
450200011932,0.123047,0.443848,-0.891602
450200034505,0.116699,0.449219,-0.878906
450200056960,0.120117,0.454102,-0.880371
450200071866,0.119141,0.448242,-0.88623
450200094442,0.124023,0.448242,-0.886719
450200116883,0.12793,0.447266,-0.883301
450200131915,0.128418,0.450195,-0.883789
450200154416,0.121094,0.453613,-0.88623
450200176906,0.119141,0.461914,-0.875977
450200191981,0.114258,0.45752,-0.876465
450200214490,0.120117,0.449707,-0.881836
450200236918,0.120605,0.457031,-0.884277
450200251911,0.12207,0.453125,-0.881836
450200274469,0.114746,0.452637,-0.895508
450200296981,0.125977,0.453613,-0.894043
450200311919,0.12207,0.449219,-0.876465
450200334436,0.124512,0.450195,-0.866699
450200356909,0.134766,0.445801,-0.880371
450200371906,0.12793,0.44873,-0.890625
450200394437,0.128418,0.461426,-0.896484
450200416908,0.120605,0.459961,-0.890625
450200431910,0.118652,0.446289,-0.890137
450200454470,0.100586,0.446289,-0.869629
450200476942,0.0844727,0.4375,-0.883301
450200491914,0.097168,0.431152,-0.888672
450200514460,0.0751953,0.434082,-0.904297
450200536977,0.0932617,0.427734,-0.913574
450200551946,0.103027,0.432617,-0.914551
450200581936,0.108887,0.445312,-0.902832
450200596938,0.115723,0.45166,-0.87793
450200611996,0.112793,0.443848,-0.874023
450200634454,0.11084,0.437988,-0.861816
450200656933,0.11377,0.442383,-0.873535
450200671870,0.114258,0.44873,-0.898438
450200694377,0.124023,0.450684,-0.916504
450200717002,0.12207,0.458984,-0.90625
450200731913,0.119629,0.453125,-0.901855
450200754443,0.111328,0.433105,-0.896484
450200776978,0.110352,0.427734,-0.87793
450200791969,0.100098,0.431641,-0.879395
450200814446,0.108887,0.436035,-0.888672
450200836971,0.109375,0.452637,-0.911133
450200859477,0.105957,0.462402,-0.91748
450200874411,0.101562,0.474121,-0.909668
450200896959,0.0849609,0.470215,-0.899902
450200919389,0.0878906,0.458008,-0.893555
450200934449,0.105469,0.473145,-0.887207
450200956960,0.130859,0.46582,-0.885742
450200979414,0.129395,0.46582,-0.88623
450200994451,0.125488,0.464844,-0.894043
450201017007,0.120117,0.446289,-0.884766
450201039471,0.103516,0.422852,-0.882812
450201054438,0.105957,0.393555,-0.894531
450201076959,0.137207,0.380371,-0.884277
450201099478,0.125977,0.391113,-0.890625
450201114480,0.126465,0.408691,-0.902832
450201136966,0.15625,0.391113,-0.919434
450201159441,0.152344,0.419922,-0.931152
450201174421,0.152832,0.434082,-0.924316
450201196988,0.155762,0.456055,-0.882812
450201219439,0.179688,0.463379,-0.89209
450201234467,0.190918,0.465332,-0.884277
450201256913,0.191406,0.463867,-0.937012
450201279506,0.17334,0.476562,-0.908203
450201294438,0.165527,0.508301,-0.847168
450201316905,0.167969,0.481445,-0.838379
450201339477,0.202148,0.45752,-0.822754
450201354429,0.202637,0.496094,-0.802246
450201376929,0.186523,0.503418,-0.791992
450201399488,0.175293,0.480957,-0.813965
450201414923,0.188477,0.464844,-0.84375
450201436974,0.202148,0.455566,-0.844238
450201459533,0.15625,0.470215,-0.89502
450201474484,0.181152,0.459473,-0.909668
450201496937,0.191895,0.445801,-0.877441
450201519468,0.183105,0.438965,-0.84375
450201541935,0.1875,0.459473,-0.817871
450201556999,0.203613,0.453613,-0.851074
450201579500,0.19873,0.455078,-0.86377
450201594495,0.164551,0.473145,-0.832031
450201616936,0.153809,0.471191,-0.872559
450201639463,0.166992,0.439941,-0.929199
450201654522,0.183105,0.40918,-0.929199
450201677004,0.197266,0.395996,-0.891113
450201699481,0.203613,0.391113,-0.875488
450201714462,0.206055,0.381836,-0.895508
450201736970,0.223633,0.413086,-0.874023
450201759468,0.193359,0.445801,-0.89209
450201781959,0.245605,0.473633,-0.880371
450201796961,0.222656,0.480957,-0.900879
450201811940,0.168945,0.495117,-0.885254
450201834487,0.19043,0.450684,-0.876953
450201856979,0.172852,0.42627,-0.864746
450201871959,0.180176,0.385742,-0.882812
450201894570,0.188477,0.345215,-0.881836
450201916994,0.186523,0.337402,-0.893555
450201931973,0.190918,0.345703,-0.928711
450201954474,0.219238,0.356934,-0.964355
450201976938,0.23291,0.366699,-0.960938
450201991969,0.191895,0.374023,-0.915039
450202014442,0.195801,0.374023,-0.893066
450202037027,0.204102,0.375977,-0.900879
450202052011,0.182617,0.379883,-0.868164
450202074516,0.204102,0.365723,-0.852539
450202097000,0.217285,0.366699,-0.85498
450202112014,0.218262,0.381348,-0.856934
450202134446,0.193848,0.370605,-0.867676
450202156968,0.0664062,0.394531,-0.993652
450202171973,0.131836,0.339355,-0.884766
450202194439,0.241699,0.407227,-0.800781
450202217036,0.147461,0.401855,-0.884277
450202232006,0.212402,0.344238,-0.963379
450202254512,0.311035,0.388672,-1.07861
450202277023,0.351562,0.550781,-1.07373
450202292022,0.157227,0.52002,-0.881348
450202314511,0.148926,0.417969,-0.787598
450202337012,0.169922,0.374512,-0.770996
450202352018,0.168457,0.34668,-0.719727
450202374478,0.204102,0.347168,-0.764648
450202397007,0.276855,0.312012,-0.916992
450202411986,0.291016,0.248047,-1.04736
450202434488,0.193359,0.198242,-1.05566
450202456999,0.172852,0.175293,-1.01709
450202471987,0.202637,0.15918,-0.947266
450202494464,0.223145,0.100098,-0.980957
450202516953,0.239258,0.0512695,-1.00586
450202532024,0.237305,0.0522461,-1.02881
450202554416,0.253906,0.00292969,-0.983398
450202576940,0.253418,0.0429688,-0.96875
450202592026,0.214844,0.0444336,-0.978027
450202614535,0.212891,0.0776367,-0.973633
450202637014,0.216797,0.0410156,-0.987793
450202651969,0.206055,0.0463867,-0.987793
450202674487,0.189941,0.104492,-0.963867
450202696969,0.208984,0.140625,-0.969238
450202711965,0.241211,0.124512,-1.01514
450202734425,0.273438,0.133301,-0.990234
450202756982,0.243164,0.125,-0.941895
450202771969,0.23877,0.132324,-0.921387
450202794522,0.23877,0.14502,-0.929688
450202816957,0.240723,0.138184,-0.956543
450202832000,0.237793,0.120117,-0.976562
450202862022,0.224121,0.118652,-0.967285
450202876997,0.226074,0.0942383,-0.972168
450202891961,0.23291,0.0766602,-0.992188
450202914484,0.244629,0.0605469,-0.97998
450202937004,0.240723,0.0585938,-0.954102
450202951962,0.236328,0.0571289,-0.943359
450202974443,0.250488,0.0610352,-0.945801
450202996945,0.255859,0.0654297,-0.945801
450203011973,0.241699,0.0810547,-0.962402
450203034700,0.244141,0.0800781,-0.974609
450203057020,0.241699,0.0830078,-0.972656
450203072017,0.250977,0.0957031,-0.980957
450203094541,0.258789,0.0957031,-0.970703
450203117022,0.273926,0.0805664,-0.973633
450203131997,0.28125,0.0810547,-0.968262
450203154560,0.265625,0.0913086,-0.963379
450203176975,0.240723,0.10498,-0.961426
450203191988,0.214844,0.113281,-0.959473
450203214548,0.210449,0.109375,-0.981445
450203236983,0.207031,0.119629,-1.00635
450203251985,0.203613,0.117676,-1.01074
450203274566,0.222168,0.10791,-0.997559
450203297022,0.230469,0.106934,-0.98877
450203311969,0.241699,0.0976562,-0.987793
450203334501,0.274902,0.0878906,-0.997559
450203357459,0.279297,0.0966797,-0.986816
450203372043,0.257324,0.0947266,-0.957031
450203394518,0.229492,0.0771484,-0.929688
450203416992,0.235352,0.0561523,-0.914062
450203431989,0.257324,0.0390625,-0.931152
450203454507,0.278809,0.03125,-0.938477
450203477084,0.29834,0.0517578,-0.960938
450203492013,0.280273,0.0810547,-0.971191
450203514465,0.260742,0.097168,-0.965332
450203536974,0.257812,0.103516,-0.996094
450203552014,0.26416,0.116211,-0.983887
450203574474,0.274902,0.137207,-0.924316
450203597019,0.257812,0.127441,-0.90625
450203612028,0.220703,0.128906,-0.913574
450203634491,0.194336,0.132324,-0.944336
450203657050,0.23877,0.139648,-0.978027
450203672026,0.253418,0.143066,-0.986328
450203694522,0.245605,0.131836,-0.961426
450203717011,0.241699,0.107422,-0.932617
450203732045,0.243652,0.0986328,-0.922852
450203754500,0.265137,0.111816,-0.928223
450203777016,0.306641,0.134277,-0.947266
450203792083,0.291016,0.126465,-0.95459
450203814517,0.293945,0.200684,-0.967285
450203837061,0.261719,0.293945,-0.984863
450203852041,0.274414,0.174316,-0.962402
450203874477,0.26416,0.140137,-0.963379
450203896956,0.257812,0.19043,-0.943848
450203912032,0.310547,0.214844,-0.904785
450203934488,0.335938,0.179199,-0.907227
450203956992,0.297852,0.211914,-0.946777
450203972033,0.305176,0.223145,-0.936035
450203994489,0.29541,0.250977,-0.932617
450204009492,0.291016,0.237793,-0.928223
450204031996,0.276367,0.218262,-0.913086
450204054561,0.265137,0.209473,-0.876465
450204069510,0.265625,0.207031,-0.887207
450204092059,0.290527,0.179688,-0.92627
450204114466,0.306152,0.158203,-0.955078
450204129525,0.283691,0.188477,-0.967773
450204152025,0.27832,0.19043,-0.960938
450204174531,0.361816,0.169434,-0.939453
450204189528,0.286133,0.147461,-0.935059
450204219542,0.3125,0.146484,-0.94043
450204234562,0.279297,0.190918,-0.937012
450204249572,0.240234,0.215332,-0.932129
450204271989,0.23877,0.213867,-0.927246
450204294549,0.219727,0.213379,-0.958496
450204309523,0.226562,0.215332,-0.95752
450204332040,0.257812,0.21875,-0.972168
450204354594,0.282227,0.20752,-0.983398
450204369506,0.288574,0.203613,-0.977051
450204391986,0.279297,0.201172,-0.943359
450204414568,0.262695,0.199219,-0.923828
450204429570,0.245117,0.222168,-0.922852
450204452084,0.248047,0.241211,-0.920898
450204474543,0.258789,0.263672,-0.9375
450204489540,0.266602,0.256348,-0.935059
450204519542,0.281738,0.245117,-0.92334
450204534559,0.282715,0.227539,-0.9375
450204549535,0.286621,0.230469,-0.953125
450204572010,0.29248,0.224609,-0.943359
450204594577,0.269531,0.224121,-0.948242
450204609540,0.248047,0.233398,-0.940918
450204632009,0.247559,0.233887,-0.939941
450204654466,0.251953,0.231445,-0.929199
450204669584,0.261719,0.248535,-0.950684
450204692044,0.26709,0.23291,-0.945312
450204714522,0.277832,0.22998,-0.945312
450204729598,0.254883,0.230957,-0.93457
450204752015,0.253418,0.217773,-0.940918
450204774524,0.256836,0.219727,-0.942383
450204789516,0.262207,0.223633,-0.938477
450204812043,0.263184,0.22168,-0.946289
450204834561,0.26123,0.226074,-0.937012
450204849518,0.250977,0.226074,-0.934082
450204872015,0.249512,0.228516,-0.933594
450204894505,0.260742,0.232422,-0.939941
450204909519,0.258301,0.222168,-0.945312
450204932113,0.255859,0.219238,-0.939941
450204954503,0.257812,0.212891,-0.946289
450204969541,0.252441,0.208008,-0.959961
450204992048,0.256836,0.210938,-0.943359
450205014581,0.259766,0.214355,-0.948242
450205029513,0.265137,0.216797,-0.945312
450205052037,0.257812,0.219727,-0.950195
450205074492,0.258789,0.214355,-0.937012
450205089544,0.256348,0.213867,-0.949707
450205112010,0.258789,0.215332,-0.949707
450205134540,0.261719,0.225586,-0.932617
450205149552,0.260254,0.22168,-0.942383
450205172005,0.26123,0.222168,-0.936523
450205194583,0.258789,0.21875,-0.935547
450205209536,0.259277,0.218262,-0.937012
450205232083,0.262207,0.217773,-0.937988
450205254573,0.26416,0.21582,-0.941406
450205269578,0.262695,0.216797,-0.941895
450205299564,0.258789,0.218262,-0.944336
450205314528,0.260254,0.220703,-0.942871
450205329458,0.258789,0.216797,-0.944336
450205352066,0.255859,0.217773,-0.937988
450205374554,0.254883,0.220215,-0.93457
450205389573,0.261719,0.212402,-0.944824
450205412013,0.262207,0.213867,-0.946289
450205434582,0.259766,0.218262,-0.937012
450205449578,0.259277,0.21875,-0.938477
450205472031,0.260254,0.213379,-0.946777
450205494594,0.253906,0.224609,-0.9375
450205509499,0.258789,0.219727,-0.933105
450205532010,0.262695,0.214844,-0.948242
450205554569,0.26416,0.216797,-0.956543
450205569592,0.259277,0.216309,-0.935059
450205592042,0.256836,0.209473,-0.92627
450205614492,0.259766,0.20166,-0.942871
450205629589,0.262695,0.208496,-0.944336
450205652085,0.265625,0.211426,-0.933105
450205674595,0.262695,0.208496,-0.940918
450205689608,0.259277,0.204102,-0.941406
450205712050,0.249512,0.206543,-0.940918
450205734581,0.247559,0.210938,-0.942383
450205749560,0.259766,0.209473,-0.952637
450205772076,0.25,0.202148,-0.957031
450205794542,0.252441,0.211914,-0.942383
450205809560,0.257324,0.206055,-0.942383
450205832061,0.261719,0.19873,-0.941406
450205862119,0.258789,0.200684,-0.94043
450205869551,0.257812,0.187988,-0.955566
450205892075,0.266113,0.187988,-0.949707
450205914574,0.260742,0.186523,-0.951172
450205929548,0.257812,0.182617,-0.947754
450205952058,0.253418,0.195801,-0.940918
450205982009,0.254883,0.195312,-0.947266
450205989569,0.259277,0.194336,-0.947266
450206012105,0.255371,0.193848,-0.943848
450206034596,0.263672,0.196289,-0.947754
450206049497,0.266113,0.190918,-0.947754
450206072071,0.262695,0.190918,-0.950684
450206094545,0.260742,0.196289,-0.942871
450206109574,0.247559,0.201172,-0.957031
450206132073,0.263672,0.192383,-0.946777
450206154553,0.270508,0.192383,-0.944336
450206169620,0.272461,0.188477,-0.947754
450206192095,0.260742,0.188477,-0.94873
450206214540,0.258301,0.191406,-0.948242
450206229513,0.249023,0.196777,-0.942871
450206251985,0.256836,0.191895,-0.94043
450206274549,0.274902,0.181152,-0.958008
450206289543,0.262695,0.193848,-0.947266
450206312060,0.267578,0.195312,-0.938965
450206334516,0.261719,0.191406,-0.940918
450206349554,0.26123,0.192871,-0.945312
450206372065,0.265137,0.198242,-0.936035
450206394571,0.267578,0.194824,-0.944824
450206409540,0.26709,0.188477,-0.945801
450206432096,0.26709,0.1875,-0.940918
450206454566,0.263184,0.191406,-0.9375
450206469610,0.26709,0.189941,-0.945312
450206492108,0.269043,0.194336,-0.95459
450206514556,0.267578,0.19873,-0.944824
450206529554,0.266602,0.199219,-0.932617
450206552111,0.26123,0.196777,-0.94873
450206574564,0.256836,0.193359,-0.944824
450206589613,0.262695,0.189941,-0.945801
450206612183,0.261719,0.192871,-0.949707
450206634593,0.266113,0.18457,-0.952148
450206649594,0.26709,0.183105,-0.94873
450206672136,0.267578,0.189941,-0.943848
450206694591,0.269043,0.190918,-0.944824
450206709624,0.271484,0.202148,-0.94873
450206732176,0.270508,0.188477,-0.943848
450206754615,0.268066,0.195801,-0.938477
450206769608,0.261719,0.191895,-0.940918
450206792075,0.265625,0.188477,-0.945801
450206814574,0.270508,0.186035,-0.949219
450206829579,0.262207,0.1875,-0.951172
450206852113,0.258789,0.19043,-0.943848
450206874640,0.256836,0.192871,-0.939941
450206889595,0.26416,0.191895,-0.957031
450206912025,0.276367,0.1875,-0.947754
450206934691,0.269531,0.1875,-0.944336
450206949619,0.26416,0.188965,-0.948242
450206972027,0.263184,0.187988,-0.94043
450206994569,0.261719,0.187988,-0.950195
450207009538,0.266602,0.194336,-0.949219
450207031965,0.264648,0.192383,-0.938965
450207054572,0.27002,0.19043,-0.944336
450207069551,0.266602,0.191895,-0.95166
450207092011,0.258789,0.1875,-0.943359
450207114556,0.263184,0.193848,-0.948242
450207129558,0.262207,0.19043,-0.949219
450207152021,0.264648,0.186035,-0.952148
450207174561,0.26416,0.189453,-0.940918
450207189574,0.266113,0.191895,-0.948242
450207212039,0.263184,0.184082,-0.948242
450207242039,0.268555,0.189941,-0.942383
450207249595,0.268555,0.191895,-0.940918
450207272008,0.26416,0.194824,-0.945312
450207294555,0.266602,0.193359,-0.947266
450207309513,0.258301,0.185547,-0.9375
450207332048,0.260254,0.187012,-0.943359
450207354982,0.265137,0.188477,-0.949219
450207369554,0.266113,0.188965,-0.947754
450207392499,0.26416,0.18457,-0.945801
450207414586,0.268555,0.187012,-0.945312
450207429512,0.266113,0.189941,-0.946289
450207452024,0.263184,0.186035,-0.943359
450207482077,0.26123,0.187988,-0.946289
450207497054,0.262207,0.187988,-0.95166
450207512049,0.268555,0.182129,-0.952148
450207534564,0.264648,0.1875,-0.944336
450207557052,0.262207,0.192383,-0.946289
450207572028,0.255371,0.192383,-0.94873
450207594581,0.258789,0.187988,-0.939941
450207617057,0.258301,0.189941,-0.945801
450207632001,0.26709,0.185059,-0.950195
450207654523,0.260254,0.18457,-0.95166
450207677068,0.263672,0.188477,-0.946289
450207692042,0.263184,0.187012,-0.955078
450207714527,0.26123,0.18457,-0.945312
450207737058,0.263184,0.187012,-0.949219
450207752066,0.264648,0.18457,-0.948242
450207774506,0.258301,0.186523,-0.942871
450207797061,0.259766,0.187012,-0.950684
450207812022,0.259277,0.191406,-0.947754
450207835004,0.258301,0.192871,-0.937012
450207857053,0.263672,0.179688,-0.943848
450207872052,0.260254,0.191406,-0.956055
450207894588,0.261719,0.1875,-0.954102
450207917089,0.268066,0.191895,-0.940918
450207932076,0.259766,0.187988,-0.947266
450207954517,0.266113,0.183105,-0.947754
450207977071,0.26123,0.191406,-0.935547
450207992112,0.26123,0.191895,-0.952637
450208014546,0.262695,0.183594,-0.955566
450208037101,0.26416,0.185547,-0.952637
450208052078,0.26123,0.183594,-0.941406
450208075042,0.262695,0.184082,-0.949707
450208097068,0.257812,0.190918,-0.94873
450208112074,0.263672,0.186523,-0.949707
450208134542,0.260254,0.186523,-0.94873
450208157069,0.263184,0.185059,-0.948242
450208172062,0.266113,0.1875,-0.947754
450208194551,0.258301,0.183105,-0.946289
450208217046,0.26416,0.186523,-0.943848
450208232064,0.257812,0.191895,-0.945312
450208254551,0.258301,0.193359,-0.943359
450208277026,0.259277,0.189941,-0.957031
450208292069,0.260742,0.183594,-0.952148
450208314570,0.263184,0.192383,-0.954102
450208337090,0.259277,0.181152,-0.952637
450208352132,0.261719,0.185547,-0.953125
450208374615,0.258789,0.193848,-0.942871
450208397061,0.263672,0.179688,-0.941406
450208419614,0.254395,0.190918,-0.948242
450208434610,0.258301,0.178711,-0.955078
450208457086,0.26123,0.190918,-0.947754
450208479646,0.262695,0.183105,-0.947754
450208494644,0.26709,0.185059,-0.944824
450208517121,0.262695,0.186523,-0.944824
450208539645,0.255371,0.188965,-0.946777
450208554609,0.254395,0.187012,-0.948242
450208577077,0.257812,0.182129,-0.955566
450208599680,0.257812,0.187012,-0.944336
450208629567,0.255371,0.196289,-0.946289
450208637083,0.265625,0.19043,-0.946777
450208659648,0.263184,0.191406,-0.947266
450208674658,0.264648,0.187988,-0.945801
450208697123,0.260254,0.188965,-0.944824
450208719569,0.254883,0.183594,-0.950195
450208734646,0.26123,0.187012,-0.949219
450208757084,0.261719,0.191406,-0.943848
450208779742,0.262695,0.188965,-0.941895
450208794677,0.258789,0.184082,-0.951172
450208809648,0.257812,0.188965,-0.946777
450208832118,0.255371,0.186523,-0.945801
450208854683,0.257324,0.193848,-0.938477
450208869608,0.26123,0.190918,-0.947754
450208892086,0.256836,0.187012,-0.965332
450208914694,0.256836,0.184082,-0.954102
450208929684,0.255859,0.186523,-0.946777
450208952108,0.258789,0.190918,-0.946289
450208974714,0.257812,0.185059,-0.949707
450208989759,0.263184,0.191895,-0.95166
450209012058,0.277344,0.178223,-0.945312
450209034588,0.256836,0.195312,-0.942383
450209049723,0.253418,0.181641,-0.94873
450209072113,0.259277,0.184082,-0.959473
450209094583,0.258301,0.188477,-0.956055
450209109683,0.261719,0.194824,-0.945312
450209132148,0.253418,0.183594,-0.946289
450209154614,0.253418,0.178223,-0.950684
450209169651,0.262695,0.189941,-0.941895
450209192133,0.258301,0.191895,-0.946777
450209214604,0.245605,0.177734,-0.946289
450209229568,0.253906,0.186035,-0.956543
450209252173,0.254883,0.184082,-0.949707
450209274583,0.257812,0.186523,-0.959961
450209289619,0.255859,0.184082,-0.948242
450209312137,0.258301,0.183594,-0.9375
450209334631,0.254883,0.189453,-0.944336
450209349607,0.253418,0.18457,-0.952637
450209372168,0.269531,0.178223,-0.949707
450209394608,0.251465,0.182617,-0.954102
450209409568,0.256836,0.185059,-0.952148
450209432128,0.253418,0.191895,-0.94873
450209454644,0.248535,0.187988,-0.944824
450209469610,0.257324,0.183105,-0.948242
450209492132,0.256348,0.181152,-0.952637
450209514642,0.254883,0.183105,-0.949707
450209529664,0.256348,0.184082,-0.949707
450209552125,0.258301,0.180664,-0.950195
450209574650,0.262207,0.187012,-0.947754
450209589610,0.258301,0.188477,-0.94873
450209612169,0.253906,0.180664,-0.956543
450209634619,0.254395,0.185547,-0.952148
450209649662,0.253906,0.181641,-0.948242
450209672168,0.252441,0.187012,-0.953613
450209694586,0.255859,0.185547,-0.945312
450209709619,0.254883,0.19043,-0.943359
450209732129,0.256348,0.187012,-0.94873
450209754777,0.258789,0.183594,-0.953125
450209769542,0.254883,0.185059,-0.951172
450209792084,0.252441,0.182617,-0.948242
450209814719,0.256836,0.183105,-0.94873
450209829695,0.255859,0.185059,-0.95459
450209852118,0.255859,0.188965,-0.944336
450209874723,0.25293,0.190918,-0.947754
450209889738,0.253418,0.182617,-0.947266
450209912070,0.254883,0.181641,-0.953125
450209934652,0.257324,0.185059,-0.95166
450209949710,0.255859,0.189453,-0.946777
450209972144,0.258789,0.186035,-0.950195
450209994688,0.253418,0.188965,-0.952637
450210009615,0.254883,0.183594,-0.940918
450210032139,0.255859,0.184082,-0.94873
450210054545,0.257324,0.184082,-0.95166
450210069647,0.260742,0.18457,-0.949219
450210092211,0.260742,0.188477,-0.948242
450210114618,0.254395,0.181641,-0.954102
450210129660,0.256836,0.190918,-0.94873
450210152136,0.255859,0.186035,-0.952637
450210174613,0.259766,0.188965,-0.946289
450210189573,0.259766,0.185547,-0.951172
450210212200,0.251953,0.182129,-0.947266
450210234616,0.251953,0.183594,-0.944336
450210249650,0.253906,0.182129,-0.945312
450210272192,0.252441,0.18457,-0.95166
450210294692,0.256836,0.180176,-0.95166
450210309742,0.258301,0.185547,-0.947266
450210332126,0.253418,0.186035,-0.952637
450210354692,0.257812,0.18457,-0.949707
450210369721,0.256348,0.186035,-0.951172
450210392195,0.252441,0.185059,-0.951172
450210422115,0.26416,0.183594,-0.956055
450210429721,0.259766,0.188477,-0.954102
450210452113,0.255371,0.187988,-0.94043
450210474685,0.253418,0.183105,-0.946289
450210489756,0.254883,0.183105,-0.946777
450210512165,0.253906,0.183594,-0.959961
450210534720,0.256836,0.180176,-0.950684
450210549685,0.257812,0.175781,-0.955566
450210572146,0.255371,0.180664,-0.945312
450210594721,0.255859,0.183105,-0.949219
450210609719,0.256836,0.183105,-0.947266
450210632162,0.258789,0.183105,-0.950684
450210654682,0.264648,0.18457,-0.950195
450210669698,0.260742,0.175293,-0.941406
450210692132,0.26123,0.182129,-0.943848
450210714685,0.268066,0.177734,-0.953613
450210729724,0.257812,0.177734,-0.956543
450210752165,0.256836,0.181152,-0.943359
450210774710,0.26123,0.181152,-0.953125
450210789725,0.266602,0.182129,-0.954102
450210812147,0.266602,0.176758,-0.959473
450210834710,0.262207,0.181641,-0.952148
450210850209,0.257324,0.187012,-0.944824
450210872189,0.254395,0.190918,-0.937012
450210894746,0.256348,0.19043,-0.931152
450210909689,0.26709,0.185547,-0.949219
450210932167,0.259277,0.177734,-0.942871
450210954719,0.262207,0.182129,-0.952637
450210969722,0.260254,0.176758,-0.958496
450210992132,0.254395,0.168945,-0.946289
450211014666,0.260742,0.168945,-0.952637
450211029670,0.264648,0.165527,-0.957031
450211052135,0.263184,0.173828,-0.946777
450211074651,0.259277,0.167969,-0.952637
450211089686,0.261719,0.169922,-0.956543
450211112159,0.258789,0.174316,-0.942871
450211134741,0.257812,0.168945,-0.942383
450211149728,0.265625,0.172363,-0.957031
450211172188,0.265137,0.166016,-0.958496
450211194622,0.262207,0.161621,-0.952148
450211209756,0.263184,0.165039,-0.949219
450211232220,0.264648,0.156738,-0.952148
450211254686,0.26416,0.15918,-0.956543
450211269753,0.264648,0.159668,-0.952637
450211292206,0.262207,0.162109,-0.945312
450211314689,0.262695,0.155762,-0.960449
450211329740,0.263672,0.158203,-0.958008
450211352199,0.262207,0.159668,-0.95459
450211374625,0.26123,0.162598,-0.953125
450211389714,0.266113,0.153809,-0.949707
450211412210,0.27002,0.158203,-0.949219
450211434718,0.274902,0.164062,-0.946777
450211449731,0.272949,0.165527,-0.945312
450211479682,0.268066,0.160645,-0.947266
450211494686,0.263672,0.159668,-0.94873
450211509698,0.255859,0.158203,-0.945312
450211532193,0.26709,0.158203,-0.950195
450211554726,0.26709,0.15625,-0.956543
450211569719,0.272949,0.15918,-0.958984
450211592182,0.271484,0.17041,-0.95166
450211614719,0.26709,0.166992,-0.945801
450211629683,0.263672,0.166992,-0.941895
450211652187,0.273438,0.16748,-0.955566
450211674715,0.274414,0.169922,-0.947266
450211689720,0.268555,0.169922,-0.939453
450211712110,0.270508,0.163574,-0.946777
450211734689,0.264648,0.166016,-0.944336
450211749723,0.266602,0.164062,-0.947754
450211772194,0.275879,0.165039,-0.956055
450211794687,0.276367,0.161133,-0.95459
450211809684,0.265137,0.160156,-0.951172
450211832240,0.265137,0.161133,-0.94873
450211854720,0.265137,0.160645,-0.94873
450211869720,0.272461,0.166992,-0.946289
450211892231,0.271973,0.166504,-0.951172
450211914720,0.272461,0.165527,-0.951172
450211929713,0.260742,0.164062,-0.952148
450211952167,0.266113,0.163574,-0.947266
450211974704,0.26123,0.164062,-0.949707
450211989701,0.269531,0.166016,-0.947266
450212012134,0.268555,0.165527,-0.950684
450212034767,0.273438,0.166016,-0.948242
450212049724,0.266113,0.166992,-0.949707
450212072203,0.269531,0.165039,-0.955078
450212094726,0.270996,0.163086,-0.95166
450212109689,0.269531,0.163086,-0.948242
450212132164,0.269043,0.166992,-0.949219
450212154724,0.272461,0.170898,-0.948242
450212169685,0.270996,0.169434,-0.944824
450212199735,0.268555,0.163086,-0.950684
450212214696,0.268066,0.163086,-0.949219
450212237122,0.265625,0.166504,-0.944336
450212252137,0.266113,0.166504,-0.947266
450212274664,0.270508,0.163574,-0.95752
450212289740,0.263184,0.161621,-0.946777
450212312155,0.266113,0.166016,-0.940918
450212334675,0.266602,0.161621,-0.955078
450212349721,0.269043,0.163086,-0.953125
450212372225,0.269043,0.171875,-0.941895
450212394771,0.268066,0.168945,-0.94873
450212409671,0.26709,0.160645,-0.949219
450212432681,0.266113,0.160156,-0.956543
450212454740,0.26416,0.158691,-0.952637
450212477221,0.268066,0.158691,-0.952637
450212492218,0.267578,0.158691,-0.954102
450212514718,0.267578,0.165527,-0.945312
450212529786,0.270508,0.173828,-0.946289
450212552293,0.270508,0.170898,-0.950684
450212574756,0.266113,0.171387,-0.944336
450212589667,0.263672,0.166016,-0.950195
450212612201,0.269043,0.160156,-0.952637
450212634723,0.268066,0.158203,-0.952148
450212649731,0.27002,0.15625,-0.955566
450212672225,0.269043,0.161133,-0.947754
450212694675,0.263672,0.159668,-0.951172
450212709710,0.265137,0.160645,-0.953125
450212732189,0.268555,0.165527,-0.948242
450212754686,0.271484,0.163574,-0.947754
450212769629,0.265625,0.166016,-0.952148
450212792184,0.26709,0.162598,-0.94873
450212814682,0.266113,0.160156,-0.948242
450212829721,0.267578,0.160645,-0.952637
450212852233,0.265137,0.156738,-0.950195
450212874724,0.262207,0.160645,-0.949707
450212889719,0.270508,0.161621,-0.950195
450212912244,0.270996,0.164062,-0.956055
450212934687,0.268555,0.164551,-0.936523
450212949683,0.269531,0.158203,-0.950195
450212972212,0.26709,0.159668,-0.958008
450212994696,0.27002,0.166992,-0.947754
450213009687,0.267578,0.164551,-0.942383
450213032726,0.269531,0.161133,-0.949707
450213054664,0.268066,0.163574,-0.953613
450213069693,0.268066,0.164551,-0.947754
450213092145,0.267578,0.164062,-0.953125
450213114676,0.268066,0.159668,-0.955566
450213129628,0.265137,0.166504,-0.94873
450213152259,0.266602,0.163574,-0.949707
450213174735,0.26709,0.157715,-0.949707
450213189713,0.26709,0.157715,-0.95459
450213212218,0.26416,0.156738,-0.949219
450213234746,0.269531,0.162109,-0.949707
450213249736,0.268066,0.165039,-0.950684
450213272220,0.273926,0.168457,-0.952148
450213294694,0.270508,0.166016,-0.948242
450213309687,0.264648,0.167969,-0.944824
450213332162,0.263184,0.16748,-0.957031
450213354714,0.263672,0.163086,-0.953125
450213369631,0.264648,0.157227,-0.958496
450213392232,0.262207,0.158691,-0.943359
450213414750,0.262695,0.159668,-0.953613
450213429684,0.268066,0.15625,-0.960449
450213452182,0.273438,0.155273,-0.958984
450213474676,0.265625,0.164551,-0.94873
450213489710,0.268066,0.166504,-0.947754
450213512261,0.266113,0.171875,-0.949707
450213534676,0.270996,0.169922,-0.945312
450213549687,0.270508,0.169434,-0.946777
450213572176,0.269043,0.165039,-0.953613
450213594777,0.267578,0.158203,-0.962891
450213609709,0.265137,0.156738,-0.955078
450213632176,0.265625,0.159668,-0.949219
450213654763,0.262695,0.161133,-0.95166
450213669724,0.265137,0.161133,-0.955566
450213692185,0.268555,0.163574,-0.947754
450213714746,0.27002,0.163086,-0.953125
450213729719,0.269531,0.164551,-0.946289
450213752124,0.266113,0.168457,-0.94873
450213774804,0.266113,0.167969,-0.949219
450213789711,0.263184,0.166992,-0.947266
450213812230,0.267578,0.159668,-0.942871
450213834762,0.265137,0.163574,-0.948242
450213849769,0.26709,0.155273,-0.95459
450213872210,0.262207,0.160645,-0.952148
450213894738,0.263184,0.155762,-0.950684
450213909715,0.26709,0.152832,-0.957031
450213932254,0.269043,0.158691,-0.945312
450213954768,0.269043,0.159668,-0.95166
450213969802,0.272461,0.165039,-0.943359
450213992245,0.265137,0.169922,-0.946777
450214014740,0.266602,0.168457,-0.942383
450214029694,0.271973,0.171387,-0.950195
450214052214,0.270996,0.166016,-0.952148
450214074688,0.262695,0.166016,-0.943848
450214089772,0.264648,0.156738,-0.948242
450214112213,0.26416,0.158203,-0.957031
450214134732,0.26123,0.160156,-0.952637
450214149722,0.266113,0.160645,-0.949707
450214172249,0.271973,0.156738,-0.953125
450214194721,0.27002,0.164062,-0.94873
450214209762,0.267578,0.161133,-0.945801
450214232255,0.26709,0.161621,-0.943359
450214254716,0.269531,0.16748,-0.947266
450214269779,0.268066,0.166504,-0.953125
450214292305,0.270996,0.168945,-0.949219
450214314715,0.265625,0.160156,-0.948242
450214329662,0.266113,0.162109,-0.952637
450214352185,0.268066,0.160645,-0.953125
450214374728,0.26709,0.159668,-0.945801
450214389673,0.260742,0.15625,-0.947266
450214412192,0.26123,0.162598,-0.949219
450214434790,0.269043,0.158691,-0.953613
450214449742,0.269531,0.163086,-0.958984
450214472228,0.268555,0.160645,-0.94873
450214494784,0.268555,0.160645,-0.945801
450214509738,0.267578,0.158691,-0.94873
450214532115,0.266113,0.162109,-0.951172
450214554681,0.267578,0.163574,-0.95459
450214569778,0.264648,0.159668,-0.958008
450214592232,0.26123,0.158203,-0.946289
450214614697,0.266602,0.163086,-0.952148
450214637157,0.268555,0.160156,-0.958496
450214652159,0.27002,0.163086,-0.949219
450214674710,0.271484,0.165039,-0.94043
450214689811,0.263184,0.161621,-0.953125
450214712173,0.268555,0.163086,-0.949707
450214734665,0.26709,0.165527,-0.94873
450214749690,0.26416,0.160645,-0.949219
450214772265,0.263672,0.155762,-0.954102
450214794657,0.265137,0.161133,-0.954102
450214809761,0.26416,0.162598,-0.950684
450214832210,0.269531,0.165527,-0.954102
450214854723,0.27002,0.164551,-0.952637
450214869653,0.266113,0.160156,-0.942383
450214892157,0.263184,0.162109,-0.94873
450214914676,0.267578,0.159668,-0.947266
450214929665,0.265625,0.162598,-0.954102
450214952207,0.265137,0.164062,-0.953125
450214982222,0.268066,0.162598,-0.946777
450214989658,0.260254,0.163086,-0.944824
450215019773,0.261719,0.161133,-0.957031
450215034632,0.26416,0.163086,-0.951172
450215057281,0.268066,0.162598,-0.95166
450215072264,0.263184,0.160156,-0.950684
450215094643,0.266602,0.162598,-0.953613
450215117256,0.273438,0.163086,-0.949707
450215132158,0.265137,0.165039,-0.94873
450215154715,0.268066,0.161133,-0.94873
450215177338,0.26709,0.162598,-0.95166
450215192227,0.265625,0.15918,-0.950684
450215214756,0.266113,0.163086,-0.94873
450215237283,0.267578,0.15625,-0.95752
450215252303,0.266602,0.15918,-0.952148
450215274709,0.265625,0.159668,-0.953125
450215297288,0.264648,0.160156,-0.952637
450215312241,0.272461,0.157715,-0.956055
450215334714,0.268555,0.158691,-0.954102
450215357307,0.268066,0.162598,-0.950684
450215372269,0.267578,0.162109,-0.950684
450215394742,0.26709,0.164062,-0.949707
450215417228,0.263184,0.165039,-0.953125
450215432257,0.265625,0.162109,-0.955078
450215454710,0.266113,0.157227,-0.949219
450215477275,0.270508,0.15918,-0.949707
450215492224,0.268066,0.162109,-0.955566
450215514743,0.266602,0.159668,-0.953125
450215537168,0.263184,0.163086,-0.947266
450215552249,0.265625,0.164062,-0.943359
450215574768,0.26709,0.164551,-0.94873
450215597275,0.265625,0.166992,-0.95459
450215612181,0.27002,0.165527,-0.95459
450215634771,0.267578,0.15918,-0.947266
450215657260,0.26416,0.161133,-0.947754
450215672219,0.262207,0.15918,-0.952637
450215694792,0.265137,0.155762,-0.952148
450215717279,0.265137,0.15625,-0.95166
450215732246,0.270508,0.165039,-0.954102
450215754785,0.269043,0.161133,-0.947266
450215777310,0.260254,0.163086,-0.944336
450215792279,0.267578,0.162109,-0.949707
450215807307,0.266113,0.163574,-0.952148
450215829750,0.265625,0.160645,-0.950684
450215852254,0.26709,0.163574,-0.949707
450215867277,0.26709,0.165527,-0.957031
450215889806,0.269531,0.160645,-0.95166
450215912232,0.262207,0.158691,-0.94873
450215927242,0.264648,0.158203,-0.953125
450215949700,0.267578,0.159668,-0.94873
450215972195,0.266113,0.160645,-0.951172
450215994823,0.270508,0.164062,-0.94873
450216009771,0.26709,0.161133,-0.948242
450216032180,0.262207,0.160645,-0.947266
450216047277,0.265625,0.161133,-0.95166
450216069722,0.267578,0.157227,-0.952148
450216092589,0.26416,0.160156,-0.953613
450216107249,0.26123,0.160156,-0.948242
450216129735,0.256836,0.161621,-0.948242
450216152220,0.264648,0.15625,-0.945801
450216167243,0.268066,0.162109,-0.951172
450216189787,0.269043,0.163574,-0.944336
450216212255,0.270508,0.15918,-0.946777
450216227307,0.26416,0.155273,-0.956543
450216249807,0.267578,0.162598,-0.948242
450216272287,0.26709,0.165527,-0.944336
450216287215,0.268066,0.158203,-0.95459
450216309751,0.267578,0.155273,-0.947754
450216332188,0.268555,0.157227,-0.945312
450216347267,0.26709,0.163574,-0.953125
450216369749,0.268066,0.161133,-0.955078
450216392220,0.264648,0.162109,-0.944824
450216407294,0.263672,0.165527,-0.939453
450216429697,0.269531,0.162598,-0.948242
450216452274,0.269043,0.155762,-0.959473
450216467263,0.263184,0.155273,-0.954102
450216489705,0.263184,0.159668,-0.945801
450216512348,0.269043,0.161621,-0.958008
450216527327,0.268555,0.160645,-0.956543
450216549760,0.26416,0.166016,-0.944824
450216572271,0.268555,0.158203,-0.949707
450216587241,0.26709,0.152344,-0.95459
450216609740,0.265137,0.160156,-0.943848
450216639771,0.26709,0.165527,-0.95166
450216647294,0.266602,0.163574,-0.960449
450216669716,0.269043,0.162109,-0.947266
450216692230,0.269043,0.167969,-0.95166
450216707192,0.26709,0.162598,-0.954102
450216729826,0.265625,0.166016,-0.952148
450216752234,0.267578,0.156738,-0.945801
450216767240,0.267578,0.163086,-0.94873
450216789778,0.268555,0.158203,-0.949707
450216812301,0.268555,0.157715,-0.95459
450216827197,0.26416,0.162109,-0.951172
450216849794,0.262695,0.159668,-0.956055
450216872312,0.270508,0.154297,-0.952148
450216887286,0.265625,0.161133,-0.946777
450216909759,0.268555,0.158691,-0.959961
450216932342,0.265625,0.162109,-0.953125
450216947346,0.263184,0.156738,-0.943359
450216969786,0.267578,0.158691,-0.946777
450216992236,0.268066,0.163086,-0.952637
450217007327,0.263184,0.162598,-0.952148
450217029765,0.26709,0.158203,-0.954102
450217052314,0.263672,0.156738,-0.952148
450217067236,0.262207,0.160156,-0.94873
450217089785,0.262695,0.162598,-0.948242
450217112302,0.269043,0.160645,-0.954102
450217127291,0.265625,0.15625,-0.953125
450217149849,0.26123,0.148926,-0.951172
450217172301,0.26709,0.160645,-0.949219
450217187283,0.266113,0.156738,-0.953125
450217209757,0.266113,0.163086,-0.946777
450217232270,0.265625,0.166504,-0.95166
450217247215,0.265625,0.162109,-0.951172
450217269875,0.266113,0.161133,-0.946777
450217292294,0.269531,0.155762,-0.95459
450217307290,0.266113,0.157715,-0.954102
450217329862,0.265137,0.155273,-0.953613
450217352258,0.266602,0.160645,-0.947266
450217367248,0.266113,0.157715,-0.950684
450217389846,0.268066,0.15918,-0.950195
450217412289,0.26709,0.15918,-0.95752
450217427262,0.267578,0.155762,-0.953613
450217449810,0.263672,0.158691,-0.953613
450217472205,0.265625,0.166992,-0.950195
450217487294,0.266113,0.161133,-0.954102
450217509847,0.260742,0.154297,-0.943359
450217532340,0.265137,0.156738,-0.947266
450217547242,0.266602,0.155273,-0.961914
450217569870,0.266602,0.157715,-0.951172
450217592339,0.265625,0.162109,-0.944824
450217607326,0.265137,0.161621,-0.94873
450217629759,0.271973,0.162109,-0.955078
450217652375,0.263184,0.162109,-0.947754
450217674757,0.26709,0.156738,-0.954102
450217689825,0.26416,0.157227,-0.953613
450217712291,0.268066,0.15625,-0.956543
450217727238,0.268555,0.158203,-0.955078
450217749725,0.26416,0.158203,-0.949219
450217772274,0.270508,0.160645,-0.952148
450217787337,0.264648,0.164551,-0.951172
450217809825,0.265137,0.161621,-0.943359
450217832365,0.26709,0.162109,-0.952637
450217847317,0.271484,0.164062,-0.95166
450217869848,0.272461,0.162109,-0.955078
450217892346,0.265625,0.15625,-0.947754
450217907317,0.260742,0.156738,-0.948242
450217929788,0.263672,0.157715,-0.953613
450217952362,0.269043,0.155762,-0.946289
450217967271,0.268066,0.155273,-0.958984
450217989870,0.26709,0.153809,-0.951172
450218012273,0.263184,0.159668,-0.948242
450218027257,0.265625,0.163574,-0.950684
450218049717,0.268555,0.161621,-0.95459
450218072302,0.27002,0.161133,-0.953125
450218087281,0.263672,0.161133,-0.955566
450218109758,0.258301,0.15625,-0.952148
450218132316,0.265137,0.151367,-0.957031
450218147282,0.268066,0.155273,-0.960938
450218169752,0.273438,0.16748,-0.949219
450218192187,0.257324,0.163574,-0.946777
450218207304,0.258301,0.15625,-0.946289
450218229740,0.268066,0.151367,-0.971191
450218259800,0.277344,0.165039,-0.948242
450218267301,0.262695,0.161621,-0.952148
450218289776,0.255859,0.146973,-0.945312
450218312261,0.26123,0.140137,-0.956055
450218327313,0.266113,0.149414,-0.958496
450218349790,0.270508,0.156738,-0.954102
450218372244,0.272949,0.148438,-0.958008
450218387264,0.267578,0.148438,-0.942383
450218409727,0.260742,0.158203,-0.959961
450218432233,0.265625,0.160156,-0.950195
450218447236,0.275879,0.156738,-0.943359
450218469772,0.272949,0.152344,-0.945801
450218492261,0.277344,0.154785,-0.944824
450218507212,0.27002,0.158203,-0.956055
450218529775,0.273926,0.156738,-0.954102
450218552239,0.263184,0.150391,-0.948242
450218567260,0.260742,0.151855,-0.949707
450218589803,0.264648,0.154297,-0.952148
450218612300,0.269043,0.157227,-0.956543
450218627280,0.272461,0.149902,-0.95459
450218649798,0.265137,0.15332,-0.941406
450218672293,0.271973,0.150391,-0.955078
450218687247,0.267578,0.157227,-0.952148
450218709816,0.270996,0.152832,-0.94873
450218732250,0.274414,0.151367,-0.955078
450218747296,0.270996,0.153809,-0.947754
450218769829,0.267578,0.15918,-0.950195
450218792270,0.272949,0.154785,-0.95459
450218807271,0.273926,0.145508,-0.959473
450218829791,0.263184,0.149414,-0.955078
450218852270,0.27002,0.154297,-0.944824
450218867250,0.269531,0.155273,-0.95752
450218889752,0.269043,0.15625,-0.951172
450218912249,0.267578,0.157715,-0.952637
450218927271,0.269531,0.160645,-0.951172
450218949750,0.270508,0.147461,-0.957031
450218972306,0.266113,0.158203,-0.931641
450218987285,0.268555,0.154785,-0.94873
450219009760,0.27002,0.150879,-0.950195
450219032301,0.269531,0.159668,-0.943359
450219047312,0.271484,0.149902,-0.949219
450219069787,0.270996,0.14502,-0.960938
450219092304,0.271973,0.150879,-0.94873
450219107261,0.262695,0.155762,-0.944336
450219129749,0.273438,0.153809,-0.956543
450219152266,0.277344,0.158203,-0.953613
450219167308,0.276367,0.161133,-0.955566
450219189786,0.269043,0.159668,-0.946289
450219212253,0.268066,0.156738,-0.946777
450219227242,0.269531,0.153809,-0.952637
450219249803,0.268066,0.156738,-0.949219
450219272222,0.263184,0.155762,-0.944824
450219287262,0.270996,0.149414,-0.95459
450219309761,0.270508,0.144043,-0.954102
450219332267,0.265625,0.151855,-0.963867
450219347275,0.269043,0.15918,-0.958496
450219369811,0.263184,0.157715,-0.941895
450219392266,0.265625,0.142578,-0.96875
450219407256,0.275879,0.166016,-0.949219
450219429884,0.274414,0.177734,-0.935059
450219452272,0.268555,0.171875,-0.939941
450219467330,0.262207,0.164551,-0.946289
450219489837,0.264648,0.162598,-0.955078
450219512380,0.262695,0.162109,-0.95752
450219527336,0.269531,0.153809,-0.956055
450219549892,0.264648,0.154297,-0.950195
450219572339,0.26709,0.149414,-0.953125
450219587328,0.272949,0.163086,-0.954102
450219609811,0.272461,0.164062,-0.951172
450219632348,0.269043,0.169434,-0.940918
450219647280,0.263184,0.157715,-0.940918
450219669825,0.266602,0.155273,-0.953613
450219692339,0.269531,0.15625,-0.960938
450219707239,0.280273,0.154297,-0.954102
450219729845,0.274414,0.15918,-0.953125
450219752333,0.272949,0.155762,-0.937988
450219767381,0.263184,0.167969,-0.938477
450219789827,0.261719,0.169434,-0.95459
450219812376,0.264648,0.159668,-0.962891
450219827423,0.265625,0.151367,-0.950684
450219849777,0.267578,0.15332,-0.953125
450219872370,0.271973,0.15332,-0.958496
450219887463,0.271484,0.152344,-0.943848
450219909743,0.27002,0.158691,-0.947754
450219932394,0.273926,0.162109,-0.945801
450219947320,0.275879,0.166992,-0.944824
450219969855,0.286621,0.15918,-0.94873
450219992398,0.266602,0.158691,-0.954102
450220007274,0.264648,0.150391,-0.955566
450220029890,0.266602,0.152832,-0.954102
450220052370,0.26709,0.152344,-0.95459
450220067341,0.268555,0.149414,-0.953613
450220089841,0.268555,0.147949,-0.954102
450220112385,0.274902,0.155762,-0.950684
450220127361,0.276367,0.158203,-0.952148
450220149868,0.26709,0.160645,-0.947754
450220172363,0.274902,0.162598,-0.944824
450220187368,0.270996,0.15918,-0.945312
450220209797,0.268555,0.15625,-0.95166
450220232234,0.265625,0.15625,-0.95166
450220247428,0.266602,0.154785,-0.954102
450220269865,0.269043,0.154785,-0.960938
450220292328,0.262695,0.149902,-0.959961
450220307264,0.26709,0.152344,-0.955078
450220329805,0.276367,0.158203,-0.949219
450220359813,0.27002,0.161133,-0.945312
450220367334,0.268066,0.161621,-0.952148
450220389824,0.271973,0.15625,-0.952148
450220412406,0.272461,0.163574,-0.945312
450220427308,0.264648,0.162109,-0.939453
450220457305,0.265137,0.161621,-0.957031
450220472292,0.273926,0.162109,-0.958008
450220487387,0.270508,0.167969,-0.955566
450220509777,0.271484,0.17041,-0.944336
450220532294,0.27002,0.161133,-0.946777
450220547308,0.265137,0.158203,-0.949219
450220569824,0.264648,0.165527,-0.939453
450220592392,0.267578,0.163574,-0.953125
450220607359,0.266113,0.160156,-0.941895
450220629796,0.267578,0.155762,-0.958496
450220652403,0.269531,0.155273,-0.952148
450220667314,0.277344,0.161621,-0.947754
450220689951,0.27002,0.161621,-0.949707
450220712379,0.268066,0.157715,-0.947754
450220727299,0.263184,0.161621,-0.945312
450220749891,0.264648,0.168457,-0.95166
450220772420,0.268066,0.166016,-0.953613
450220787348,0.271973,0.161621,-0.953613
450220809921,0.273438,0.162598,-0.948242
450220832337,0.264648,0.158691,-0.94043
450220847329,0.26416,0.162109,-0.95459
450220869933,0.268066,0.164062,-0.950195
450220892429,0.270996,0.156738,-0.952148
450220907382,0.267578,0.157715,-0.949219
450220929794,0.270508,0.157715,-0.950195
450220952428,0.26709,0.161133,-0.961914
450220967315,0.264648,0.15918,-0.940918
450220989867,0.255371,0.168457,-0.950195
450221012383,0.266113,0.160156,-0.947754
450221027291,0.273926,0.162109,-0.952148
450221049850,0.281738,0.164551,-0.94043
450221072332,0.280273,0.17041,-0.942871
450221087392,0.275879,0.159668,-0.949219
450221109759,0.265137,0.156738,-0.949707
450221132350,0.262695,0.160156,-0.945801
450221147369,0.276367,0.154785,-0.958008
450221169819,0.262207,0.155762,-0.946289
450221192464,0.268555,0.156738,-0.945801
450221207399,0.264648,0.149414,-0.955566
450221229840,0.271973,0.131348,-0.955078
450221252399,0.244629,0.17041,-0.954102
450221267390,0.268066,0.151855,-0.967773
450221289899,0.283691,0.155762,-0.954102
450221312400,0.279297,0.162598,-0.955566
450221327407,0.293945,0.152344,-0.947754
450221349829,0.287109,0.148926,-0.932617
450221372402,0.280273,0.157227,-0.950195
450221387387,0.282227,0.164062,-0.950195
450221409907,0.27832,0.160156,-0.951172
450221432390,0.274414,0.148438,-0.952148
450221447868,0.272949,0.140625,-0.948242
450221469896,0.279297,0.151855,-0.943848
450221492432,0.271973,0.152832,-0.949707
450221507454,0.273926,0.151367,-0.949219
450221529811,0.270508,0.148438,-0.952148
450221552361,0.27002,0.146973,-0.95166
450221567432,0.276367,0.149902,-0.953613
450221597306,0.276367,0.149902,-0.953613
450221612337,0.280273,0.153809,-0.944336
450221627409,0.274902,0.157715,-0.943848
450221649924,0.271973,0.15625,-0.941895
450221672313,0.274902,0.157227,-0.936035
450221694914,0.277344,0.147461,-0.954102
450221709838,0.273438,0.145508,-0.960938
450221732359,0.279297,0.150879,-0.959961
450221754952,0.276855,0.15332,-0.950684
450221769946,0.271484,0.151855,-0.945801
450221792361,0.273926,0.150391,-0.9375
450221814929,0.280273,0.155273,-0.947754
450221829909,0.282227,0.155273,-0.947266
450221852335,0.277832,0.148926,-0.950195
450221874893,0.291504,0.151367,-0.95459
450221889909,0.279297,0.145508,-0.966797
450221919919,0.272461,0.152344,-0.940918
450221934966,0.275391,0.152344,-0.942383
450221964939,0.274414,0.15332,-0.950195
450221972447,0.273926,0.155762,-0.952637
450221994857,0.272949,0.155762,-0.949219
450222010008,0.276367,0.152832,-0.949219
450222032321,0.283203,0.150391,-0.955078
450222054865,0.283203,0.147949,-0.952148
450222069854,0.279785,0.149902,-0.939941
450222092427,0.27832,0.145508,-0.949219
450222114866,0.272461,0.150879,-0.947754
450222129912,0.288574,0.148438,-0.950195
450222159871,0.284668,0.154297,-0.950684
450222174795,0.283691,0.154297,-0.942383
450222189806,0.272461,0.15332,-0.943359
450222212424,0.272461,0.151855,-0.946289
450222234808,0.277344,0.150391,-0.950195
450222249879,0.278809,0.14502,-0.944824
450222279950,0.274414,0.147949,-0.952637
450222294834,0.277832,0.143066,-0.955566
450222309814,0.280273,0.148438,-0.953613
450222332450,0.280762,0.14502,-0.952637
450222354879,0.280273,0.148926,-0.955566
450222369801,0.280762,0.145996,-0.942383
450222392415,0.275879,0.146973,-0.94873
450222414919,0.280762,0.149902,-0.954102
450222429890,0.278809,0.150879,-0.941406
450222452422,0.273926,0.148438,-0.95459
450222474916,0.275879,0.147949,-0.950684
450222489925,0.272461,0.14209,-0.956055
450222512444,0.272949,0.141602,-0.953125
450222534915,0.276367,0.14502,-0.95166
450222549887,0.276367,0.146973,-0.95752
450222572406,0.277832,0.145508,-0.949707
450222595447,0.272949,0.147461,-0.954102
450222617377,0.278809,0.144043,-0.95166
450222632363,0.272461,0.143066,-0.948242
450222654986,0.280273,0.145508,-0.945312
450222677452,0.274902,0.152344,-0.947266
450222692399,0.27832,0.148438,-0.95166
450222714948,0.278809,0.150391,-0.947754
450222737421,0.280273,0.145996,-0.945801
450222752436,0.273926,0.149414,-0.956055
450222774984,0.277344,0.14209,-0.944824
450222797383,0.277344,0.146484,-0.953613
450222812385,0.271484,0.144043,-0.950195
450222827358,0.275879,0.145508,-0.947754
450222849907,0.280273,0.149902,-0.949219
450222872365,0.280762,0.147461,-0.947754
450222887388,0.274902,0.154785,-0.944824
450222909947,0.274414,0.146484,-0.950195
450222932456,0.276855,0.145508,-0.952148
450222947379,0.270508,0.142578,-0.95166
450222969935,0.275391,0.145508,-0.947266
450222992897,0.279297,0.140625,-0.95459
450223007379,0.277344,0.145996,-0.958496
450223029946,0.269531,0.15332,-0.946289
450223052451,0.271973,0.150391,-0.954102
450223067384,0.278809,0.145508,-0.952637
450223089954,0.27832,0.14209,-0.949707
450223112417,0.277832,0.148926,-0.950195
450223127387,0.277832,0.144043,-0.952637
450223149950,0.276367,0.145508,-0.95459
450223172417,0.276367,0.143555,-0.952148
450223187451,0.27832,0.147949,-0.941406
450223209830,0.279297,0.145508,-0.950684
450223239949,0.27002,0.148926,-0.954102
450223247406,0.277832,0.14502,-0.951172
450223269927,0.272949,0.147461,-0.949219
450223292366,0.275879,0.144531,-0.949219
450223308363,0.278809,0.142578,-0.953125
450223329863,0.273926,0.146973,-0.955566
450223352470,0.274902,0.150391,-0.946777
450223367413,0.281738,0.146484,-0.946289
450223389849,0.279785,0.151367,-0.958008
450223412483,0.278809,0.147461,-0.953613
450223427468,0.275391,0.148438,-0.944336
450223449969,0.274414,0.137695,-0.953125
450223472485,0.277832,0.140625,-0.952637
450223487473,0.279297,0.144531,-0.948242
450223509912,0.277832,0.140625,-0.949219
450223532451,0.278809,0.141602,-0.949707
450223547454,0.277344,0.14209,-0.946289
450223569951,0.272461,0.143066,-0.9375
450223592427,0.280273,0.153809,-0.94873
450223607368,0.28125,0.155762,-0.947266
450223629999,0.276855,0.151367,-0.946289
450223652332,0.275879,0.145508,-0.950684
450223667499,0.274902,0.146973,-0.949707
450223689952,0.278809,0.146484,-0.948242
450223712463,0.273926,0.143066,-0.957031
450223727455,0.275391,0.14502,-0.948242
450223749970,0.270996,0.144043,-0.948242
450223772440,0.273926,0.144043,-0.95166
450223787385,0.275879,0.146484,-0.950684
450223809936,0.277832,0.138184,-0.952637
450223832452,0.274414,0.143066,-0.952148
450223854978,0.272949,0.146973,-0.947266
450223869969,0.274414,0.149414,-0.946289
450223892446,0.275879,0.150391,-0.940918
450223907445,0.280273,0.14502,-0.947266
450223929973,0.27832,0.146973,-0.955566
450223952469,0.273926,0.143555,-0.953613
450223967435,0.272461,0.146973,-0.946289
450223989935,0.272949,0.147949,-0.952148
450224012480,0.273438,0.145996,-0.952637
450224027401,0.275879,0.140137,-0.955566
450224049967,0.273438,0.14502,-0.952148
450224072429,0.270996,0.143555,-0.947754
450224087468,0.274902,0.144043,-0.955566
450224110043,0.281738,0.145508,-0.950684
450224132887,0.275391,0.150391,-0.941406
450224147445,0.272949,0.147949,-0.953125
450224170005,0.273438,0.146973,-0.95166
450224192445,0.270508,0.14502,-0.952148
450224207447,0.272949,0.144043,-0.954102
450224229910,0.277832,0.139648,-0.94873
450224252380,0.275879,0.140137,-0.946289
450224267395,0.273438,0.145508,-0.943848
450224289965,0.273438,0.148438,-0.945801
450224312475,0.275879,0.142578,-0.95752
450224327450,0.276367,0.144043,-0.951172
450224349966,0.27832,0.147461,-0.947754
450224372480,0.273926,0.150391,-0.946289
450224387470,0.273438,0.150879,-0.945801
450224409879,0.276367,0.151855,-0.95166
450224432469,0.277344,0.148926,-0.944824
450224447490,0.277832,0.14502,-0.953613
450224469920,0.276855,0.14209,-0.953125
450224492435,0.27832,0.147461,-0.955566
450224507438,0.274902,0.145508,-0.948242
450224529964,0.272461,0.150391,-0.945801
450224552456,0.276367,0.149902,-0.943359
450224567491,0.277344,0.146484,-0.951172
450224589918,0.280273,0.146484,-0.951172
450224612417,0.273438,0.141113,-0.944824
450224627475,0.272949,0.140137,-0.958984
450224649879,0.275391,0.150879,-0.953125
450224672393,0.270996,0.155762,-0.953613
450224687917,0.269043,0.149902,-0.952148
450224709866,0.274414,0.143555,-0.953125
450224732489,0.275879,0.143066,-0.953125
450224747496,0.277344,0.149414,-0.942383
450224769946,0.275391,0.145996,-0.944824
450224792495,0.27832,0.149902,-0.955078
450224807458,0.270996,0.144043,-0.950684
450224829961,0.279297,0.145508,-0.949707
450224852468,0.277832,0.150879,-0.952148
450224867458,0.274902,0.140625,-0.950684
450224889939,0.273438,0.14209,-0.954102
450224912485,0.279297,0.147949,-0.946777
450224927515,0.273438,0.150391,-0.95166
450224949980,0.275879,0.144043,-0.948242
450224972498,0.280273,0.145996,-0.952148
450224987504,0.274902,0.150391,-0.949219
450225009867,0.277832,0.149902,-0.944824
450225032510,0.27832,0.148438,-0.949219
450225047468,0.275879,0.14502,-0.945312
450225069973,0.281738,0.151855,-0.949707
450225092420,0.276855,0.146484,-0.948242
450225107553,0.274414,0.145996,-0.944336
450225129962,0.275879,0.146484,-0.958984
450225152493,0.276855,0.149414,-0.95459
450225167525,0.274414,0.147949,-0.949707
450225189994,0.273438,0.151367,-0.947754
450225212444,0.279785,0.149414,-0.951172
450225227442,0.278809,0.148926,-0.953613
450225249975,0.277832,0.149902,-0.949707
450225272396,0.271973,0.146973,-0.950195
450225287435,0.280762,0.140625,-0.955078
450225309963,0.275879,0.144531,-0.955566
450225332448,0.276855,0.151855,-0.946289
450225347440,0.273926,0.147949,-0.947266
450225369963,0.276855,0.143066,-0.946777
450225392531,0.273438,0.149902,-0.944336
450225407463,0.277344,0.148926,-0.950195
450225430006,0.28125,0.143066,-0.95752
450225452463,0.271973,0.144531,-0.943359
450225467493,0.273438,0.142578,-0.946289
450225490000,0.273438,0.145996,-0.945312
450225512467,0.276367,0.143066,-0.95752
450225527486,0.275879,0.146484,-0.949707
450225550029,0.280762,0.146973,-0.95166
450225572502,0.275391,0.14209,-0.95166
450225587459,0.277832,0.147461,-0.944824
450225609952,0.273438,0.14502,-0.942383
450225632527,0.274902,0.148438,-0.95459
450225647459,0.27832,0.145508,-0.953125
450225670018,0.276855,0.150391,-0.950684
450225692493,0.274414,0.146484,-0.958008
450225707497,0.27832,0.141113,-0.956055
450225730025,0.277832,0.145996,-0.955566
450225752462,0.274414,0.144531,-0.945312
450225767472,0.274414,0.14502,-0.947754
450225797461,0.281738,0.148438,-0.952148
450225812457,0.286133,0.150391,-0.957031
450225827462,0.280762,0.145508,-0.943848
450225849972,0.277832,0.142578,-0.94873
450225872497,0.274902,0.142578,-0.948242
450225887971,0.273438,0.147461,-0.948242
450225909970,0.277832,0.146973,-0.950195
450225932479,0.279785,0.149902,-0.949707
450225947480,0.279297,0.146973,-0.95166
450225969864,0.283203,0.143066,-0.94873
450225992491,0.275391,0.146484,-0.94873
450226007490,0.275879,0.143066,-0.949219
450226029940,0.276367,0.149902,-0.94873
450226052575,0.282227,0.140137,-0.944336
450226067534,0.278809,0.145508,-0.953613
450226089969,0.276855,0.143066,-0.952148
450226112555,0.279785,0.146484,-0.950195
450226127521,0.277344,0.142578,-0.946289
450226149994,0.277832,0.143066,-0.95752
450226172519,0.272949,0.143555,-0.950684
450226187482,0.274414,0.141113,-0.947754
450226210015,0.28418,0.14209,-0.954102
450226232464,0.277344,0.145508,-0.950684
450226247491,0.276855,0.146973,-0.944824
450226269925,0.27832,0.13916,-0.95166
450226292523,0.275391,0.141602,-0.94873
450226307462,0.279297,0.143555,-0.950195
450226329964,0.279785,0.143066,-0.956055
450226360516,0.276367,0.143555,-0.950195
450226367486,0.273438,0.140137,-0.950684
450226390004,0.272461,0.148438,-0.951172
450226412439,0.277344,0.149902,-0.950684
450226427519,0.283691,0.140625,-0.945801
450226450034,0.281738,0.145508,-0.950684
450226472488,0.277344,0.149414,-0.952148
450226487538,0.268555,0.139648,-0.958984
450226510028,0.272949,0.143066,-0.956543
450226532492,0.278809,0.14209,-0.947754
450226547505,0.282227,0.143555,-0.945312
450226569922,0.277344,0.14209,-0.947754
450226592498,0.279785,0.141113,-0.955078
450226607435,0.274902,0.140625,-0.950684
450226630030,0.277344,0.145996,-0.949219
450226652495,0.28125,0.14502,-0.946289
450226667498,0.277344,0.145508,-0.947754
450226690064,0.276367,0.143066,-0.944824
450226712492,0.276367,0.146973,-0.947266
450226727498,0.276367,0.143066,-0.954102
450226750018,0.278809,0.13916,-0.950684
450226772478,0.273926,0.138184,-0.947754
450226787497,0.272949,0.142578,-0.949219
450226809974,0.274902,0.142578,-0.953125
450226832499,0.276367,0.144531,-0.953125
450226847459,0.279297,0.144043,-0.953613
450226870077,0.283203,0.143066,-0.953125
450226892575,0.281738,0.144531,-0.949219
450226907933,0.275391,0.140137,-0.944824
450226930037,0.272949,0.143555,-0.953613
450226952521,0.275391,0.142578,-0.955566
450226967485,0.279785,0.144043,-0.952148
450226990072,0.279785,0.14209,-0.950684
450227012488,0.273926,0.140625,-0.944336
450227027521,0.279785,0.14209,-0.945801
450227050053,0.270996,0.140625,-0.948242
450227072479,0.278809,0.146973,-0.954102
450227087507,0.276855,0.143555,-0.949219
450227110026,0.27832,0.139648,-0.953613
450227124989,0.277832,0.146973,-0.95166
450227147526,0.275391,0.14209,-0.941406
450227169998,0.277832,0.142578,-0.95166
450227185063,0.273926,0.140625,-0.953125
450227207533,0.271973,0.146484,-0.942871
450227237520,0.274902,0.147949,-0.958496
450227244979,0.278809,0.141602,-0.963867
450227267587,0.277832,0.143555,-0.94873
450227289963,0.281738,0.147461,-0.946289
450227304990,0.278809,0.143555,-0.956055
450227327485,0.273438,0.146484,-0.955078
450227350464,0.274414,0.13916,-0.943848
450227372544,0.27832,0.141113,-0.953613
450227387568,0.282227,0.140137,-0.954102
450227409959,0.279785,0.146484,-0.945801
450227424976,0.275391,0.148926,-0.947266
450227447507,0.271484,0.147461,-0.952637
450227469916,0.278809,0.145508,-0.956055
450227485002,0.27002,0.143066,-0.95166
450227507542,0.281738,0.141602,-0.950684
450227529984,0.280273,0.144531,-0.948242
450227544989,0.274414,0.140137,-0.95459
450227567517,0.268555,0.143066,-0.948242
450227589989,0.273926,0.14502,-0.950195
450227604991,0.28125,0.14209,-0.950684
450227627521,0.275879,0.143066,-0.947266
450227650044,0.27002,0.140137,-0.948242
450227672512,0.280762,0.140137,-0.960449
450227687909,0.272949,0.144531,-0.950195
450227709944,0.272949,0.144531,-0.946777
450227725001,0.278809,0.144531,-0.94873
450227747536,0.27832,0.143555,-0.953613
450227770081,0.272461,0.143066,-0.951172
450227785013,0.277344,0.14209,-0.945312
450227807541,0.274414,0.141602,-0.953613
450227830071,0.271484,0.140625,-0.943359
450227845044,0.272949,0.144531,-0.949707
450227867486,0.272461,0.144531,-0.949219
450227890008,0.274414,0.143555,-0.955566
450227905009,0.270996,0.137207,-0.952637
450227927521,0.27002,0.14502,-0.956055
450227950008,0.276855,0.135742,-0.952637
450227972516,0.272949,0.142578,-0.946289
450227987563,0.276367,0.147949,-0.950195
450228010031,0.277832,0.149414,-0.94873
450228025007,0.275391,0.141602,-0.958496
450228047507,0.273926,0.141113,-0.958008
450228070036,0.270996,0.133789,-0.960449
450228085042,0.271973,0.138184,-0.953125
450228107497,0.271484,0.14502,-0.948242
450228130017,0.276855,0.141113,-0.949219
450228144987,0.276855,0.143066,-0.953613
450228167543,0.272461,0.143066,-0.950195
450228190066,0.271973,0.142578,-0.950195
450228205051,0.273926,0.140137,-0.955566
450228227531,0.270508,0.143066,-0.952148
450228250052,0.279297,0.14502,-0.947754
450228272474,0.273926,0.140137,-0.947754
450228287537,0.274902,0.141113,-0.949219
450228310018,0.273926,0.139648,-0.94873
450228332590,0.272461,0.139648,-0.951172
450228347512,0.27832,0.143066,-0.956543
450228370076,0.275391,0.144531,-0.951172
450228392518,0.28125,0.148438,-0.943359
450228407548,0.276367,0.138672,-0.950684
450228430078,0.274902,0.144531,-0.947754
450228452557,0.277832,0.138184,-0.952148
450228467557,0.274414,0.132324,-0.953613
450228490068,0.275391,0.137207,-0.960938
450228512479,0.277344,0.141113,-0.949707
450228527509,0.275391,0.145508,-0.950195
450228550026,0.272461,0.138184,-0.949707
450228572593,0.275391,0.140625,-0.953613
450228587531,0.273926,0.137695,-0.95752
450228610048,0.280273,0.134766,-0.955078
450228632578,0.276367,0.135742,-0.949219
450228647532,0.273438,0.135254,-0.945801
450228670040,0.277832,0.13916,-0.954102
450228692571,0.280273,0.13916,-0.953613
450228707562,0.278809,0.138672,-0.945801
450228730048,0.27002,0.141602,-0.95166
450228752562,0.272461,0.140625,-0.949219
450228767494,0.278809,0.139648,-0.952637
450228790042,0.281738,0.137695,-0.945801
450228812573,0.277832,0.13916,-0.94873
450228827571,0.275879,0.142578,-0.950684
450228850488,0.272949,0.135254,-0.946289
450228872540,0.272461,0.138184,-0.951172
450228887551,0.277344,0.140137,-0.951172
450228910032,0.276367,0.145508,-0.955566
450228932580,0.274414,0.139648,-0.946777
450228947580,0.274414,0.135742,-0.949707
450228970049,0.274414,0.141602,-0.944824
450228992631,0.277832,0.138184,-0.954102
450229007548,0.27832,0.139648,-0.952148
450229029983,0.275879,0.140625,-0.952637
450229052538,0.274414,0.136719,-0.949707
450229067518,0.273438,0.135254,-0.950684
450229090004,0.278809,0.133301,-0.953125
450229112501,0.276367,0.140137,-0.94873
450229127561,0.275391,0.138672,-0.944336
450229150004,0.27832,0.139648,-0.956543
450229172475,0.281738,0.140625,-0.954102
450229187452,0.276855,0.138184,-0.947266
450229210018,0.274414,0.137695,-0.94873
450229232473,0.272949,0.134766,-0.953613
450229255011,0.279785,0.136719,-0.953613
450229269967,0.277344,0.141602,-0.955078
450229292495,0.277832,0.139648,-0.952148
450229315032,0.271973,0.13623,-0.950684
450229330009,0.27832,0.139648,-0.949707
450229352490,0.276855,0.137207,-0.945801
450229375038,0.27832,0.131836,-0.94873
450229389997,0.277832,0.135254,-0.956055
450229412508,0.275391,0.13916,-0.949219
450229435022,0.274902,0.141113,-0.944824
450229450042,0.273926,0.133789,-0.948242
450229472500,0.279785,0.131348,-0.949219
450229495020,0.275879,0.138672,-0.951172
450229510002,0.277832,0.141602,-0.947266
450229532503,0.275391,0.132812,-0.956543
450229555019,0.278809,0.138672,-0.953125
450229570075,0.276855,0.13916,-0.943359
450229592544,0.274414,0.143066,-0.94043
450229615021,0.276367,0.135742,-0.955078
450229630026,0.277344,0.138184,-0.95459
450229652492,0.279785,0.139648,-0.948242
450229675056,0.27002,0.138672,-0.949707
450229690024,0.276855,0.139648,-0.948242
450229712505,0.274414,0.136719,-0.94873
450229734972,0.270508,0.145508,-0.94873
450229750032,0.270508,0.140625,-0.95166
450229772488,0.274414,0.141602,-0.954102
450229794981,0.276855,0.135742,-0.949219
450229810041,0.276367,0.138184,-0.949707
450229825001,0.272949,0.132324,-0.941895
450229847488,0.271484,0.132812,-0.952637
450229869997,0.273926,0.137207,-0.951172
450229885041,0.278809,0.138184,-0.94873
450229907496,0.275879,0.137207,-0.953613
450229929983,0.276367,0.13623,-0.950684
450229945047,0.274414,0.140625,-0.950684
450229967499,0.272461,0.141602,-0.956055
450229990020,0.279785,0.143066,-0.94873
450230005015,0.27832,0.14209,-0.952148
450230027543,0.275879,0.134766,-0.946289
450230050007,0.27832,0.141113,-0.956055
450230065005,0.276855,0.141113,-0.94873
450230087517,0.27832,0.140625,-0.94873
450230109961,0.274902,0.13916,-0.946777
450230125007,0.278809,0.131348,-0.951172
450230147494,0.276367,0.143555,-0.951172
450230170013,0.278809,0.144531,-0.955078
450230185013,0.275391,0.130859,-0.953613
450230207494,0.272461,0.136719,-0.950195
450230229997,0.276367,0.139648,-0.94873
450230245020,0.274414,0.138672,-0.947754
450230267588,0.276367,0.134277,-0.95166
450230290039,0.278809,0.137695,-0.950684
450230305004,0.274902,0.133301,-0.951172
450230327560,0.279785,0.140625,-0.952148
450230350040,0.275879,0.135742,-0.949707
450230365052,0.277832,0.135742,-0.955566
450230387546,0.278809,0.138184,-0.949707
450230410150,0.276367,0.140625,-0.958008
450230425160,0.273926,0.140137,-0.947754
450230447647,0.276855,0.143066,-0.954102
450230470100,0.272949,0.137695,-0.955078
450230485118,0.275879,0.133789,-0.950195
450230507588,0.275879,0.134766,-0.955566
450230530063,0.280762,0.137695,-0.949219
450230545055,0.277832,0.138672,-0.954102
450230567534,0.277832,0.135254,-0.950195
450230590062,0.268555,0.140137,-0.945801
450230605083,0.279785,0.138672,-0.953613
450230627581,0.27832,0.132812,-0.95166
450230650060,0.273438,0.140625,-0.95166
450230665068,0.271484,0.135742,-0.948242
450230687473,0.274414,0.137695,-0.954102
450230710091,0.27832,0.140137,-0.958496
450230725114,0.27832,0.138672,-0.947266
450230747533,0.274902,0.137207,-0.95459
450230770082,0.273438,0.134766,-0.943848
450230785121,0.272949,0.143066,-0.953125
450230807591,0.277832,0.144531,-0.950195
450230830121,0.274414,0.137207,-0.957031
450230845094,0.277344,0.135254,-0.952148
450230867599,0.277344,0.135742,-0.95166
450230890020,0.276855,0.142578,-0.946777
450230905074,0.27832,0.139648,-0.953613
450230927672,0.272949,0.141602,-0.952637
450230950083,0.273926,0.137207,-0.948242
450230965166,0.276855,0.138672,-0.953613
450230987593,0.276367,0.140625,-0.946289
450231010187,0.276855,0.134277,-0.957031
450231025052,0.277344,0.133301,-0.951172
450231047570,0.274414,0.13623,-0.950684
450231070112,0.274414,0.141113,-0.952637
450231085087,0.282227,0.141602,-0.950684
450231107598,0.279297,0.137207,-0.950195
450231130048,0.275391,0.13623,-0.953613
450231145130,0.275879,0.141113,-0.958984
450231167523,0.27832,0.139648,-0.951172
450231190043,0.275391,0.141602,-0.95166
450231205068,0.274414,0.13623,-0.950684
450231227582,0.271973,0.138184,-0.945801
450231250030,0.275879,0.140137,-0.955566
450231265000,0.277344,0.139648,-0.95752
450231287565,0.271973,0.136719,-0.953125
450231310045,0.27832,0.133301,-0.956543
450231325103,0.280273,0.138672,-0.949219
450231347575,0.275391,0.140137,-0.944824
450231370059,0.272461,0.142578,-0.945801
450231385016,0.276855,0.138184,-0.949707
450231407627,0.277344,0.136719,-0.956055
450231430061,0.277832,0.14209,-0.956055
450231445058,0.275879,0.138184,-0.94873
450231467638,0.271484,0.134766,-0.94873
450231490093,0.274902,0.135742,-0.94873
450231505111,0.276367,0.138184,-0.957031
450231527611,0.278809,0.142578,-0.953613
450231550089,0.277344,0.141113,-0.954102
450231565124,0.277344,0.134277,-0.956543
450231587705,0.273438,0.138672,-0.955078
450231610087,0.272949,0.140625,-0.953613
450231625051,0.281738,0.143555,-0.949707
450231647584,0.280273,0.141113,-0.952637
450231670592,0.274902,0.13916,-0.95166
450231685116,0.277344,0.139648,-0.944824
450231708096,0.273438,0.13916,-0.955078
450231730169,0.27832,0.136719,-0.953613
450231745070,0.273926,0.141602,-0.951172
450231767590,0.279785,0.138184,-0.952637
450231790109,0.276367,0.141113,-0.959961
450231805117,0.275879,0.139648,-0.947754
450231827679,0.275391,0.144043,-0.954102
450231850116,0.274902,0.136719,-0.939941
450231865086,0.27832,0.139648,-0.956543
450231887613,0.276367,0.140137,-0.954102
450231910090,0.270508,0.144043,-0.948242
450231925119,0.276367,0.137207,-0.95166
450231947534,0.274414,0.139648,-0.95166
450231970118,0.276367,0.142578,-0.950195
450231985093,0.279297,0.140625,-0.947266
450232007755,0.275879,0.138184,-0.955566
450232030149,0.275391,0.137695,-0.949219
450232045085,0.273926,0.135254,-0.952637
450232067555,0.274902,0.138184,-0.952637
450232090142,0.274902,0.134277,-0.952148
450232105157,0.27832,0.137695,-0.951172
450232127580,0.274902,0.137207,-0.950195
450232150116,0.272949,0.136719,-0.956543
450232165113,0.273438,0.139648,-0.956543
450232187604,0.275391,0.14209,-0.953125
450232210153,0.272461,0.142578,-0.945801
450232225153,0.274902,0.13623,-0.954102
450232247655,0.275391,0.140625,-0.948242
450232270159,0.271973,0.142578,-0.94043
450232285129,0.275391,0.138184,-0.952148
450232307580,0.275879,0.13916,-0.949219
450232330169,0.27832,0.141602,-0.949707
450232345147,0.272949,0.143555,-0.944824
450232367555,0.279785,0.140625,-0.946777
450232390084,0.279297,0.140137,-0.95166
450232405140,0.276855,0.147461,-0.952148
450232427587,0.272949,0.140625,-0.94873
450232450167,0.277344,0.141602,-0.94873
450232465076,0.271973,0.138184,-0.953613
450232487584,0.266113,0.135254,-0.95166
450232510127,0.27832,0.133789,-0.962891
450232525156,0.277832,0.133789,-0.953613
450232547585,0.275879,0.139648,-0.956543
450232570137,0.270996,0.141113,-0.953613
450232585197,0.273926,0.139648,-0.957031
450232607688,0.277832,0.137695,-0.952148
450232630130,0.27832,0.13623,-0.946777
450232645184,0.273926,0.13916,-0.957031
450232667637,0.273438,0.141113,-0.955566
450232690154,0.273926,0.140625,-0.949219
450232705199,0.272949,0.137695,-0.957031
450232727584,0.27832,0.138184,-0.953125
450232750027,0.276855,0.140137,-0.94873
450232765087,0.26709,0.142578,-0.955566
450232787582,0.27832,0.144531,-0.945312
450232810086,0.274902,0.14209,-0.946289
450232825141,0.275879,0.146484,-0.94873
450232847642,0.279297,0.144043,-0.946289
450232870088,0.279297,0.139648,-0.953125
450232885070,0.282227,0.138672,-0.950684
450232907687,0.274414,0.14209,-0.954102
450232930116,0.273926,0.148438,-0.953613
450232945083,0.270996,0.144043,-0.956543
450232967719,0.273926,0.141113,-0.948242
450232990173,0.275879,0.13916,-0.956055
450233005039,0.275391,0.130371,-0.956055
450233027693,0.280762,0.138184,-0.950684
450233050131,0.276367,0.137207,-0.946777
450233065089,0.274902,0.145508,-0.949707
450233087751,0.277344,0.141113,-0.949707
450233110180,0.27832,0.143555,-0.950195
450233125113,0.283691,0.141113,-0.949707
450233147728,0.27832,0.14209,-0.955566
450233170076,0.275391,0.13623,-0.949707
