myot,myox,myoy,myoz
1455129920,myox,myoy,myoz
284839772352,-0.0976562,-0.722656,0.694336
284839787372,-0.105469,-0.721191,0.698242
284839802387,-0.104492,-0.720703,0.699219
284839823717,-0.106934,-0.725586,0.699219
284839847406,-0.104004,-0.723145,0.699219
284839862975,-0.100098,-0.717773,0.697754
284839908115,-0.097168,-0.716797,0.697266
284839910142,-0.106934,-0.720215,0.687988
284839922434,-0.105469,-0.722656,0.698242
284839944349,-0.106445,-0.726562,0.699707
284839968072,-0.104492,-0.726562,0.693848
284839982339,-0.103516,-0.71875,0.696777
284840026162,-0.097168,-0.716797,0.69873
284840036215,-0.0991211,-0.725098,0.697754
284840042512,-0.102539,-0.716309,0.69043
284840064176,-0.100586,-0.724609,0.696289
284840086766,-0.106445,-0.717773,0.692383
284840101121,-0.10498,-0.725098,0.699707
284840124213,-0.105957,-0.723633,0.693848
284840146704,-0.10498,-0.704102,0.700195
284840161065,-0.0893555,-0.728027,0.708984
284840184171,-0.101562,-0.749023,0.712891
284840206594,-0.126953,-0.732422,0.702148
284840220986,-0.12207,-0.728027,0.696777
284840244113,-0.11084,-0.777344,0.719238
284840266637,-0.145508,-0.742188,0.70752
284840281000,-0.132324,-0.700195,0.682129
284840304131,-0.140137,-0.641602,0.692383
284840326603,-0.0625,-0.687012,0.686035
284840341018,-0.0493164,-0.727539,0.684082
284840364141,-0.0708008,-0.717773,0.686523
284840386647,-0.117188,-0.715332,0.685059
284840402418,-0.141113,-0.716797,0.674316
284840424165,-0.141113,-0.732422,0.686523
284840446701,-0.129883,-0.714355,0.681641
284840462444,-0.108887,-0.697754,0.690918
284840491663,-0.0913086,-0.687012,0.720703
284840506669,-0.0766602,-0.725098,0.710938
284840530686,-0.0898438,-0.681641,0.726562
284840544197,-0.10498,-0.689453,0.725098
284840566744,-0.112305,-0.717773,0.726074
284840583000,-0.125977,-0.748535,0.71582
284840604247,-0.160645,-0.758301,0.692383
284840626762,-0.144531,-0.666016,0.672363
284840642468,-0.116699,-0.692383,0.699219
284840664159,-0.111816,-0.747559,0.711426
284840686637,-0.134277,-0.742676,0.709961
284840702412,-0.154785,-0.677734,0.697754
284840723491,-0.123047,-0.684082,0.69043
284840746650,-0.0966797,-0.709473,0.703125
284840762441,-0.100586,-0.736328,0.720215
284840783515,-0.129395,-0.708496,0.700684
284840808156,-0.136719,-0.668945,0.686035
284840822516,-0.144531,-0.68457,0.688477
284840843530,-0.123535,-0.677734,0.6875
284840866790,-0.0961914,-0.694824,0.6875
284840882483,-0.101074,-0.700195,0.692383
284840903562,-0.0834961,-0.685547,0.701172
284840926683,-0.118164,-0.716797,0.677734
284840942527,-0.102051,-0.75,0.713867
284840963588,-0.130371,-0.77002,0.743652
284840986720,-0.175781,-0.743164,0.731445
284841002450,-0.171387,-0.701172,0.713379
284841025059,-0.123535,-0.711426,0.694336
284841048170,-0.0898438,-0.705566,0.698242
284841062490,-0.0776367,-0.692871,0.69873
284841085047,-0.0825195,-0.706055,0.70459
284841108184,-0.113281,-0.708984,0.709961
284841122414,-0.129883,-0.714355,0.709473
284841144994,-0.129883,-0.714844,0.712402
284841168125,-0.124023,-0.702637,0.707031
284841182437,-0.10498,-0.705078,0.701172
284841204975,-0.0952148,-0.710938,0.695312
284841228095,-0.111328,-0.708496,0.711914
284841250631,-0.119629,-0.71875,0.733887
284841265007,-0.141602,-0.728027,0.725586
284841288094,-0.131348,-0.697754,0.709961
284841309135,-0.116211,-0.693848,0.699707
284841324964,-0.102539,-0.709473,0.705078
284841348165,-0.101562,-0.691406,0.695312
284841369198,-0.115723,-0.708496,0.700684
284841384990,-0.133301,-0.734863,0.709961
284841408181,-0.131836,-0.715332,0.713379
284841429190,-0.12793,-0.698242,0.706543
284841445062,-0.112793,-0.705566,0.708984
284841468192,-0.110352,-0.708496,0.702148
284841490712,-0.113281,-0.680176,0.699219
284841504972,-0.114746,-0.680664,0.687012
284841528092,-0.112793,-0.694824,0.708984
284841549136,-0.114258,-0.696777,0.70166
284841564978,-0.125,-0.717773,0.711426
284841588119,-0.133301,-0.696289,0.701172
284841609169,-0.127441,-0.692383,0.697754
284841625019,-0.0981445,-0.73291,0.729004
284841647536,-0.112793,-0.766113,0.737305
284841669288,-0.155762,-0.702637,0.704102
284841693119,-0.141602,-0.6875,0.702148
284841707508,-0.111816,-0.726074,0.703125
284841730714,-0.11084,-0.694336,0.707031
284841745076,-0.100586,-0.689941,0.70459
284841767494,-0.121582,-0.709961,0.694824
284841790603,-0.115723,-0.716309,0.702637
284841804975,-0.128418,-0.709473,0.707031
284841827478,-0.126465,-0.707031,0.717773
284841850692,-0.128906,-0.705566,0.712891
284841864985,-0.125,-0.704102,0.712402
284841887537,-0.123047,-0.708984,0.700684
284841910441,-0.114258,-0.710938,0.70459
284841925065,-0.111816,-0.709473,0.702148
284841947446,-0.121582,-0.713867,0.6875
284841970700,-0.108887,-0.70752,0.688965
284841993129,-0.105957,-0.687988,0.689941
284842007474,-0.112305,-0.699707,0.733398
284842030655,-0.126465,-0.724121,0.729004
284842044988,-0.138184,-0.723145,0.707031
284842067433,-0.131836,-0.71582,0.680176
284842090737,-0.12207,-0.709473,0.691406
284842105022,-0.097168,-0.723145,0.705566
284842127564,-0.0981445,-0.746094,0.716309
284842150670,-0.120605,-0.712402,0.702148
284842171726,-0.10791,-0.708496,0.714355
284842187488,-0.0791016,-0.700195,0.733887
284842210618,-0.0869141,-0.666992,0.701172
284842231802,-0.0639648,-0.72168,0.691895
284842248011,-0.081543,-0.709473,0.67627
284842270724,-0.100586,-0.687012,0.663574
284842291718,-0.0913086,-0.741699,0.693359
284842307441,-0.0644531,-0.839355,0.76123
284842322453,-0.12207,-0.789551,0.73877
284842343552,-0.13916,-0.66748,0.719238
284842366693,-0.130859,-0.65332,0.720215
284842381080,-0.0717773,-0.678711,0.689453
284842403546,-0.0419922,-0.735352,0.670898
284842426853,-0.0527344,-0.732422,0.660645
284842441127,-0.0751953,-0.722656,0.658203
284842463645,-0.0908203,-0.703125,0.67627
284842486684,-0.0908203,-0.674805,0.652344
284842501089,-0.0341797,-0.671875,0.666992
284842524022,-0.00439453,-0.754883,0.696289
284842546737,-0.0229492,-0.779785,0.704102
284842561103,0.0537109,-0.671875,0.646484
284842583664,0.104492,-0.809082,0.610352
284842606731,0.100098,-0.916016,0.599121
284842620998,0.0463867,-0.779297,0.57959
284842643607,0.00732422,-0.713379,0.583496
284842666709,0,-0.742676,0.574219
284842681057,0.00732422,-0.77002,0.59082
284842703574,-0.00146484,-0.733887,0.579102
284842726721,-0.015625,-0.659668,0.554199
284842741059,0.0102539,-0.674805,0.576172
284842763652,-0.00390625,-0.690918,0.595703
284842786713,-0.0249023,-0.664062,0.601074
284842801173,-0.0356445,-0.650391,0.629395
284842823616,-0.012207,-0.65332,0.675293
284842846749,0.0268555,-0.650879,0.73877
284842861087,0.0356445,-0.706543,0.757324
284842883614,0.0415039,-0.786621,0.740723
284842906789,0.0854492,-0.803223,0.772461
284842921052,0.131836,-0.80127,0.759766
284842943506,0.125488,-0.66748,0.718262
284842966700,0.201172,-0.611328,0.618652
284842990676,0.313965,-0.841797,0.682617
284843003543,0.370117,-0.894531,0.715332
284843026821,0.355469,-0.782715,0.713867
284843041117,0.366211,-0.769531,0.729492
284843063616,0.40625,-0.738281,0.680664
284843086800,0.438965,-0.682617,0.617676
284843101171,0.418457,-0.716797,0.716309
284843123591,0.361816,-0.75293,0.769531
284843147125,0.337402,-0.708496,0.79248
284843161087,0.312988,-0.694824,0.753418
284843183560,0.296387,-0.69873,0.713867
284843206667,0.273926,-0.671387,0.65625
284843220999,0.291016,-0.640625,0.616211
284843243575,0.322754,-0.648926,0.583008
284843266703,0.357422,-0.662598,0.568359
284843281173,0.350098,-0.648926,0.544922
284843304985,0.34375,-0.596191,0.509277
284843326741,0.35498,-0.577637,0.486328
284843341069,0.392578,-0.638184,0.479004
284843363553,0.468262,-0.895996,0.544434
284843386715,0.495117,-1.14355,0.558105
284843401069,0.439941,-0.866699,0.537598
284843423552,0.339355,-0.604492,0.546875
284843446709,0.363281,-0.624023,0.571777
284843461060,0.40918,-0.677246,0.625488
284843483591,0.441406,-0.630371,0.646484
284843506702,0.430176,-0.609375,0.672852
284843521062,0.416504,-0.597656,0.67041
284843543519,0.426758,-0.634277,0.653809
284843566720,0.42627,-0.675781,0.641602
284843581021,0.418457,-0.681152,0.619141
284843603553,0.406738,-0.682129,0.607422
284843626076,0.397949,-0.69873,0.595215
284843641046,0.388672,-0.69873,0.59375
284843663545,0.390625,-0.686523,0.605957
284843686072,0.393555,-0.678223,0.60498
284843701085,0.397461,-0.670898,0.610352
284843723649,0.408691,-0.675293,0.616699
284843747571,0.407227,-0.666504,0.614258
284843761061,0.405273,-0.65332,0.622559
284843783565,0.406738,-0.661133,0.628906
284843806024,0.428711,-0.675293,0.636719
284843821032,0.423828,-0.638672,0.633301
284843843550,0.419434,-0.613281,0.626953
284843866122,0.442383,-0.668457,0.644043
284843881102,0.47998,-0.723633,0.661133
284843903631,0.515137,-0.716309,0.614746
284843926089,0.480957,-0.701172,0.552734
284843941026,0.427734,-0.746094,0.510742
284843963616,0.406738,-0.777832,0.503418
284843986051,0.380371,-0.791016,0.512695
284844001158,0.399414,-0.75293,0.511719
284844025089,0.415527,-0.728027,0.516113
284844046107,0.395508,-0.717285,0.552246
284844061113,0.345703,-0.697266,0.578125
284844083602,0.315918,-0.673828,0.602051
284844106169,0.331543,-0.697266,0.634277
284844121118,0.314453,-0.702148,0.638184
284844143551,0.262695,-0.71582,0.632324
284844166063,0.238281,-0.709473,0.623047
284844189227,0.249512,-0.728516,0.644043
284844203535,0.251953,-0.728027,0.627441
284844226034,0.25293,-0.716309,0.628418
284844241041,0.247559,-0.677734,0.597656
284844263561,0.245117,-0.664062,0.595215
284844286140,0.25,-0.673828,0.607422
284844302495,0.264648,-0.686523,0.62207
284844323540,0.25293,-0.696289,0.627441
284844346056,0.248535,-0.705566,0.617676
284844361048,0.264648,-0.727051,0.626953
284844383676,0.277832,-0.76416,0.628906
284844400058,0.307129,-0.784668,0.622559
284844421203,0.289062,-0.804688,0.619141
284844443669,0.257812,-0.797852,0.608398
284844459976,0.239746,-0.810059,0.606445
284844482577,0.23584,-0.825195,0.604492
284844503613,0.245605,-0.813477,0.591797
284844534429,0.238281,-0.824707,0.594238
284844542521,0.206543,-0.841309,0.592285
284844563603,0.194336,-0.834473,0.590332
284844594264,0.187988,-0.825195,0.583496
284844602543,0.192383,-0.820801,0.577148
284844623546,0.206055,-0.779297,0.574707
284844646071,0.229004,-0.742188,0.57666
284844662506,0.219727,-0.790527,0.592285
284844683603,0.185059,-0.880371,0.620605
284844706093,0.158691,-0.859375,0.61084
284844722577,0.125488,-0.856934,0.553223
284844743615,0.0634766,-1.00293,0.57373
284844766138,-0.0532227,-1.08789,0.57959
284844782603,-0.0566406,-0.928223,0.614258
284844803655,-0.0537109,-0.838867,0.608398
284844826165,-0.078125,-0.90625,0.589844
284844842545,-0.0649414,-0.828125,0.568359
284844863646,-0.0390625,-0.73291,0.592773
284844886101,-0.0375977,-0.738281,0.601562
284844902541,-0.0410156,-0.76709,0.622559
284844923551,-0.0688477,-0.783691,0.574219
284844954243,-0.0839844,-0.762207,0.562988
284844977502,-0.0830078,-0.710449,0.592285
284844983648,-0.111328,-0.730957,0.558594
284845006089,-0.137695,-0.731934,0.543945
284845024000,-0.132812,-0.694824,0.501953
284845043559,-0.0927734,-0.70459,0.564453
284845066161,-0.106934,-0.796875,0.569824
284845090063,-0.11084,-0.791992,0.589355
284845106543,-0.125,-0.762207,0.59668
284845143615,-0.147949,-0.711914,0.543457
284845157524,-0.175781,-0.790039,0.519531
284845163662,-0.206055,-0.812988,0.583008
284845186027,-0.170898,-0.830566,0.625
284845208553,-0.205566,-0.817383,0.640625
284845223593,-0.259766,-0.826172,0.638672
284845246067,-0.262207,-0.741699,0.634766
284845262556,-0.282715,-0.740723,0.598145
284845283584,-0.273926,-0.741699,0.595215
284845306153,-0.258789,-0.704102,0.612305
284845324086,-0.296875,-0.742188,0.59082
284845343624,-0.273926,-0.742676,0.60791
284845366147,-0.275879,-0.756348,0.59668
284845382628,-0.288574,-0.724609,0.592773
284845411787,-0.316406,-0.73584,0.569336
284845420071,-0.314941,-0.760742,0.573242
284845442544,-0.303223,-0.773926,0.575684
284845465128,-0.27832,-0.748047,0.581055
284845486076,-0.322754,-0.79541,0.535156
284845502490,-0.28418,-0.785156,0.560547
284845525056,-0.303711,-0.786621,0.567871
284845541544,-0.324707,-0.77002,0.568359
284845562622,-0.348633,-0.771973,0.572754
284845585109,-0.356445,-0.748535,0.543457
284845601546,-0.314453,-0.751953,0.557129
284845622585,-0.319824,-0.778809,0.550781
284845645073,-0.314453,-0.786133,0.565918
284845661572,-0.319336,-0.78125,0.56543
284845682662,-0.302246,-0.77002,0.575195
284845705133,-0.304199,-0.793457,0.570801
284845721493,-0.303223,-0.795898,0.57666
284845742544,-0.327148,-0.77832,0.563965
284845765017,-0.339355,-0.770996,0.582031
284845781561,-0.333496,-0.794922,0.552246
284845802628,-0.337402,-0.797852,0.562012
284845825098,-0.34082,-0.787598,0.552246
284845841545,-0.344238,-0.737793,0.507812
284845861865,-0.33252,-0.724609,0.523438
284845884340,-0.312012,-0.756348,0.556641
284845906848,-0.305176,-0.783203,0.567383
284845921801,-0.285645,-0.780762,0.585938
284845944331,-0.282227,-0.809082,0.600098
284845968193,-0.282227,-0.821289,0.583008
284845989334,-0.291016,-0.780273,0.583008
284846004238,-0.315918,-0.773926,0.559082
284846026732,-0.332031,-0.765625,0.55127
284846041732,-0.332031,-0.774902,0.54834
284846064227,-0.324219,-0.776367,0.550781
284846086737,-0.311523,-0.788086,0.56543
284846101720,-0.313965,-0.793945,0.568848
284846131900,-0.306641,-0.777344,0.569824
284846146516,-0.305176,-0.77832,0.562988
284846161820,-0.302734,-0.776367,0.561035
284846184474,-0.297363,-0.771973,0.567871
284846206831,-0.302246,-0.788086,0.571289
284846221742,-0.308594,-0.778809,0.572754
284846244388,-0.311523,-0.776855,0.574219
284846266876,-0.299316,-0.766113,0.568359
284846281864,-0.297363,-0.776855,0.563965
284846304347,-0.297852,-0.777344,0.566406
284846326875,-0.300781,-0.779785,0.563965
284846341806,-0.306641,-0.783691,0.573242
284846364294,-0.290039,-0.785156,0.578125
284846386886,-0.284668,-0.769531,0.578125
284846401799,-0.264648,-0.765625,0.580566
284846424302,-0.233887,-0.724121,0.585938
284846440065,-0.21582,-0.714844,0.588867
284846463279,-0.208008,-0.717773,0.600586
284846484313,-0.208984,-0.82959,0.55957
284846506949,-0.148926,-0.790527,0.554688
284846523312,-0.0654297,-0.80127,0.59668
284846544346,-0.00927734,-0.803711,0.661621
284846566805,-0.012207,-0.756348,0.717285
284846583282,-0.0693359,-0.913086,0.562988
284846604221,0.0146484,-0.884277,0.68457
284846626655,0.046875,-0.817383,0.699219
284846643178,0.0336914,-0.811523,0.73291
284846664337,-0.00732422,-0.791504,0.706543
284846686841,-0.0595703,-0.766602,0.666504
284846710803,-0.0522461,-0.770996,0.677734
284846724315,-0.0654297,-0.77832,0.681641
284846746743,-0.0786133,-0.79248,0.68457
284846763195,-0.0961914,-0.76123,0.689941
284846784244,-0.151855,-0.789062,0.650391
284846806822,-0.168457,-0.822266,0.664062
284846823294,-0.154297,-0.84082,0.703125
284846844299,-0.131348,-0.883301,0.683594
284846866836,-0.149414,-0.906738,0.666016
284846883234,-0.207031,-0.848633,0.629395
284846904268,-0.238281,-0.763672,0.60498
284846928276,-0.18457,-0.733887,0.581543
284846943311,-0.0947266,-0.788574,0.548828
284846964312,-0.0893555,-0.84375,0.535156
284846986849,-0.121094,-0.821777,0.51123
284847003207,-0.11084,-0.812988,0.536133
284847024365,-0.11084,-0.79834,0.553223
284847046783,-0.136719,-0.71875,0.515625
284847063292,-0.152344,-0.713867,0.487305
284847084265,-0.136719,-0.785645,0.495605
284847106920,-0.152344,-0.771973,0.52002
284847123317,-0.179688,-0.716309,0.529297
284847144323,-0.192871,-0.714355,0.564941
284847166914,-0.187012,-0.706055,0.57373
284847190869,-0.195312,-0.709961,0.588867
284847204354,-0.164062,-0.760254,0.601562
284847226844,-0.15332,-0.796387,0.632324
284847243278,-0.152832,-0.786133,0.647949
284847264275,-0.15332,-0.76123,0.635254
284847286909,-0.147949,-0.831543,0.657715
284847303288,-0.165039,-0.873047,0.662598
284847324338,-0.15625,-0.847168,0.647461
284847346831,-0.126953,-0.827637,0.631348
284847362679,-0.0976562,-0.83252,0.646484
284847385810,-0.0898438,-0.848145,0.637695
284847406894,-0.0976562,-0.897949,0.645996
284847422637,-0.141602,-0.894531,0.616211
284847445869,-0.165527,-0.850586,0.584961
284847466893,-0.164551,-0.838867,0.586914
284847482610,-0.162109,-0.846191,0.574219
284847505803,-0.156738,-0.885742,0.591309
284847526869,-0.155273,-0.886719,0.595703
284847542631,-0.142578,-0.857422,0.59082
284847565747,-0.11377,-0.867188,0.594727
284847595753,-0.108398,-0.832031,0.586426
284847602556,-0.0996094,-0.791016,0.594238
284847625512,-0.102539,-0.809082,0.612305
284847646784,-0.097168,-0.799805,0.625
284847662597,-0.0952148,-0.773438,0.623535
284847685827,-0.0976562,-0.751953,0.62793
284847706782,-0.100098,-0.727051,0.605469
284847722611,-0.0908203,-0.752441,0.604492
284847745812,-0.0825195,-0.782715,0.61084
284847766844,-0.0678711,-0.782715,0.614258
284847782704,-0.0478516,-0.777832,0.623047
284847805865,-0.0170898,-0.791504,0.638184
284847826893,-0.015625,-0.80127,0.649414
284847842581,-0.0214844,-0.784668,0.652344
284847871763,-0.0317383,-0.764648,0.663086
284847886823,-0.0263672,-0.765137,0.67041
284847902564,-0.0273438,-0.734375,0.685059
284847925857,-0.0322266,-0.712402,0.668945
284847946851,-0.0263672,-0.745117,0.677734
284847962647,-0.00439453,-0.776855,0.694336
284847985835,-0.000488281,-0.76123,0.692871
284848006827,-0.0151367,-0.739746,0.682617
284848022625,-0.0219727,-0.710938,0.662109
284848045742,-0.0366211,-0.731445,0.660156
284848066833,-0.0429688,-0.756348,0.664062
284848082619,-0.0522461,-0.742188,0.665527
284848105772,-0.0634766,-0.736816,0.648438
284848126803,-0.0585938,-0.733398,0.633301
284848142586,-0.0639648,-0.745605,0.635742
284848165749,-0.0756836,-0.769043,0.648926
284848186809,-0.0834961,-0.79834,0.653809
284848202572,-0.0908203,-0.801758,0.645508
284848225789,-0.0859375,-0.789551,0.635254
284848246851,-0.0766602,-0.771973,0.624512
284848262599,-0.0615234,-0.779785,0.635742
284848285108,-0.0478516,-0.774902,0.64209
284848306813,-0.0395508,-0.760742,0.642578
284848322609,-0.0268555,-0.749512,0.641602
284848345110,-0.012207,-0.726562,0.637695
284848375796,-0.00146484,-0.724121,0.646484
284848382630,0.00585938,-0.728516,0.644043
284848405169,0.00683594,-0.73877,0.648926
284848428741,0.00292969,-0.736816,0.650391
284848442595,-0.000488281,-0.747559,0.648438
284848465136,-0.00341797,-0.751465,0.647461
284848488249,0.00244141,-0.762695,0.654785
284848502573,-0.00537109,-0.776855,0.656738
284848525120,-0.0180664,-0.773438,0.65332
284848548296,-0.0263672,-0.77832,0.644043
284848562592,-0.0322266,-0.787109,0.646484
284848585095,-0.0263672,-0.780762,0.645996
284848608246,-0.0214844,-0.784668,0.648926
284848622587,-0.0253906,-0.775391,0.641113
284848645122,-0.027832,-0.766602,0.629883
284848668279,-0.0253906,-0.787109,0.63916
284848682597,-0.0239258,-0.786621,0.649414
284848705097,-0.0292969,-0.774414,0.645996
284848728253,-0.0327148,-0.771484,0.638184
284848742592,-0.0283203,-0.771484,0.645996
284848765069,-0.0258789,-0.782227,0.640625
284848788269,-0.0297852,-0.804199,0.646973
284848802623,-0.0249023,-0.799316,0.644531
284848825105,-0.0249023,-0.787109,0.633301
284848848243,-0.0253906,-0.787598,0.637207
284848869341,-0.0205078,-0.777344,0.638672
284848885073,-0.0214844,-0.785156,0.627441
284848908314,-0.0302734,-0.777344,0.621094
284848929367,-0.0283203,-0.772949,0.61377
284848945125,-0.0292969,-0.773926,0.609863
284848968298,-0.0214844,-0.77832,0.615234
284848989344,-0.0234375,-0.783203,0.61377
284849005080,-0.0234375,-0.788574,0.616211
284849028329,-0.0244141,-0.793457,0.619141
284849049383,-0.0200195,-0.791016,0.616211
284849065128,-0.0224609,-0.789062,0.617188
284849088296,-0.0161133,-0.792969,0.616211
284849109340,-0.0224609,-0.793457,0.621582
284849125126,-0.0249023,-0.788086,0.620605
284849148245,-0.027832,-0.799805,0.624512
284849169335,-0.0200195,-0.796387,0.620117
284849185157,-0.0239258,-0.799316,0.621094
284849208279,-0.0200195,-0.794922,0.620117
284849229305,-0.0195312,-0.801758,0.617676
284849245127,-0.0234375,-0.799805,0.619141
284849267599,-0.0263672,-0.801758,0.616699
284849290813,-0.0249023,-0.794922,0.610352
284849305122,-0.0244141,-0.799805,0.608887
284849327622,-0.0195312,-0.807617,0.611816
284849350774,-0.0166016,-0.791992,0.614746
284849365146,-0.0146484,-0.797363,0.612793
284849387599,-0.0175781,-0.796875,0.60791
284849410760,-0.0205078,-0.795898,0.598145
284849424334,-0.0146484,-0.79834,0.606934
284849438671,-0.0141602,-0.795898,0.60498
284849461137,-0.0131836,-0.807129,0.608887
284849484337,-0.0136719,-0.817871,0.617676
284849498692,-0.019043,-0.806152,0.606934
284849521156,-0.0141602,-0.80957,0.609375
284849544319,-0.0185547,-0.810547,0.614746
284849558697,-0.0180664,-0.797363,0.608398
284849581155,-0.0170898,-0.795898,0.613281
284849604325,-0.0205078,-0.785156,0.607422
284849618667,-0.0126953,-0.794922,0.595703
284849641201,-0.0117188,-0.807617,0.606445
284849664345,-0.0126953,-0.802246,0.598633
284849678671,-0.0205078,-0.799805,0.594238
284849701187,-0.0166016,-0.796875,0.598633
284849724349,-0.019043,-0.811035,0.598145
284849738683,-0.0205078,-0.813477,0.602051
284849761193,-0.015625,-0.809082,0.601074
284849784372,-0.0244141,-0.805664,0.611816
284849798753,-0.0258789,-0.803711,0.60791
284849821143,-0.0161133,-0.812988,0.605957
284849852542,-0.0249023,-0.811523,0.606934
284849858707,-0.0302734,-0.803711,0.602051
284849881240,-0.0170898,-0.8125,0.609863
284849904398,-0.0166016,-0.802246,0.606445
284849918732,-0.019043,-0.79834,0.60498
284849941188,-0.0175781,-0.800781,0.600586
284849964335,-0.0141602,-0.804688,0.600098
284849978729,-0.0234375,-0.806641,0.605957
284850001182,-0.0239258,-0.797363,0.603516
284850024367,-0.0239258,-0.788574,0.606445
284850038702,-0.0214844,-0.794434,0.596191
284850061222,-0.0234375,-0.806152,0.59375
284850084371,-0.0146484,-0.80957,0.601074
284850098735,-0.00927734,-0.79834,0.606445
284850121168,-0.0146484,-0.811035,0.607422
284850144398,-0.0161133,-0.791992,0.600586
284850158702,-0.0195312,-0.797363,0.599121
284850181189,-0.027832,-0.811523,0.596191
284850204377,-0.0336914,-0.803711,0.59375
284850218707,-0.0385742,-0.800781,0.59668
284850241211,-0.046875,-0.803223,0.589355
284850263669,-0.0483398,-0.808594,0.595703
284850278661,-0.0361328,-0.81543,0.601562
284850301183,-0.0375977,-0.807617,0.599609
284850323709,-0.0415039,-0.803223,0.592773
284850338733,-0.0454102,-0.802246,0.595215
284850361316,-0.0458984,-0.808594,0.606934
284850383693,-0.0429688,-0.807617,0.609375
284850406914,-0.0380859,-0.79541,0.611328
284850421246,-0.03125,-0.809082,0.620605
284850443644,-0.0297852,-0.800781,0.618164
284850458735,-0.0219727,-0.803223,0.62207
284850481186,-0.0146484,-0.803223,0.623535
284850503708,-0.0141602,-0.804688,0.621094
284850518741,-0.0219727,-0.79834,0.614258
284850541158,-0.03125,-0.797852,0.620117
284850572561,-0.0336914,-0.799316,0.609375
284850578720,-0.0380859,-0.788086,0.609863
284850601269,-0.0400391,-0.791504,0.610352
284850623743,-0.0463867,-0.788574,0.614746
284850638768,-0.0419922,-0.774902,0.600098
284850661323,-0.0390625,-0.79248,0.611816
284850683703,-0.0371094,-0.797852,0.619629
284850698748,-0.0356445,-0.788574,0.615234
284850721213,-0.0268555,-0.797852,0.614258
284850743726,-0.0229492,-0.788574,0.61377
284850761611,-0.0205078,-0.796875,0.619629
284850781203,-0.0200195,-0.800781,0.611816
284850803697,-0.0297852,-0.8125,0.618164
284850818688,-0.0307617,-0.808105,0.617188
284850849341,-0.027832,-0.803711,0.610352
284850863690,-0.019043,-0.807617,0.611816
284850878791,-0.015625,-0.805176,0.606445
284850901337,-0.0146484,-0.800293,0.600586
284850923808,-0.00927734,-0.80127,0.603516
284850938800,0.00537109,-0.808105,0.612305
284850961212,0.0107422,-0.791016,0.618652
284850983785,0.00683594,-0.783691,0.615723
284850998787,0.00195312,-0.771973,0.611816
284851021309,-0.00878906,-0.775391,0.615234
284851043762,-0.0322266,-0.766602,0.612793
284851058759,-0.0395508,-0.76709,0.616699
284851081172,-0.0595703,-0.766113,0.599121
284851103714,-0.0654297,-0.788086,0.60791
284851120166,-0.0717773,-0.814453,0.615723
284851141147,-0.0717773,-0.82666,0.60791
284851163697,-0.0703125,-0.833496,0.605957
284851180161,-0.0649414,-0.824707,0.604004
284851201344,-0.0585938,-0.84375,0.60498
284851223719,-0.0605469,-0.852539,0.59668
284851240201,-0.0600586,-0.838379,0.59082
284851261267,-0.0737305,-0.824219,0.569824
284851283802,-0.078125,-0.844727,0.560547
284851300239,-0.0751953,-0.833984,0.548828
284851321241,-0.0634766,-0.821777,0.552246
284851343836,-0.0791016,-0.856934,0.545898
284851360180,-0.0898438,-0.860352,0.544922
284851381220,-0.0976562,-0.826172,0.581055
284851403694,-0.130859,-0.81543,0.585938
284851420144,-0.166504,-0.84668,0.609863
284851441301,-0.176758,-0.851562,0.640137
284851463694,-0.239746,-0.861816,0.659668
284851480214,-0.266113,-0.817871,0.740234
284851501189,-0.265625,-0.774414,0.713867
284851523734,-0.203125,-0.695801,0.766602
284851540225,-0.141113,-0.772461,0.763672
284851561289,-0.138672,-0.741211,0.72168
284851583758,-0.120605,-0.64502,0.67334
284851600195,-0.0322266,-0.645508,0.637695
284851621250,0.0761719,-0.771484,0.660156
284851643976,0.019043,-0.843262,0.611816
284851660167,-0.012207,-0.774902,0.565918
284851684146,-0.0141602,-0.740723,0.521484
284851703739,0.0727539,-0.75,0.523438
284851720199,0.133301,-0.882812,0.573242
284851741255,0.0576172,-0.859863,0.572266
284851763775,-0.00634766,-0.724609,0.507812
284851780158,0.0185547,-0.774414,0.539551
284851801277,0.00878906,-0.793945,0.579102
284851823700,0.050293,-0.799316,0.619629
284851840223,0.0522461,-0.80127,0.641602
284851861237,0.00878906,-0.746094,0.643066
284851883709,-0.0395508,-0.763184,0.63623
284851900216,-0.0561523,-0.813965,0.626465
284851921335,-0.043457,-0.805176,0.648926
284851943823,-0.0424805,-0.788574,0.663574
284851960245,-0.0517578,-0.721191,0.712891
284851981212,-0.0898438,-0.703125,0.702148
284852003874,-0.117188,-0.779297,0.641602
284852020216,-0.0595703,-0.820801,0.666016
284852041282,-0.0688477,-0.712402,0.69043
284852063727,-0.0078125,-0.62207,0.73877
284852080153,0.0927734,-0.580566,0.82666
284852102636,0.0126953,-0.599121,0.805664
284852123746,-0.0571289,-0.661621,0.77002
284852140144,-0.09375,-0.777344,0.662598
284852162699,-0.0732422,-0.871094,0.668457
284852183769,-0.0981445,-0.845703,0.646484
284852200259,-0.0898438,-0.796875,0.65625
284852222739,-0.107422,-0.751465,0.623047
284852243862,-0.13623,-0.73291,0.630859
284852261691,-0.120117,-0.702637,0.629883
284852282667,-0.100098,-0.711914,0.647461
284852303671,-0.117676,-0.760742,0.620605
284852320152,-0.129395,-0.812012,0.606445
284852342665,-0.132324,-0.766113,0.59668
284852363745,-0.0986328,-0.753418,0.621094
284852380164,-0.0664062,-0.777832,0.656738
284852402645,-0.0864258,-0.747559,0.649902
284852423760,-0.106934,-0.766113,0.679688
284852440152,-0.133789,-0.780273,0.635742
284852462704,-0.144531,-0.776855,0.639648
284852483733,-0.128906,-0.764648,0.633301
284852500200,-0.0957031,-0.732422,0.650391
284852522696,-0.0795898,-0.709473,0.654297
284852543728,-0.0878906,-0.689941,0.65625
284852560188,-0.0805664,-0.736816,0.703613
284852590162,-0.0634766,-0.796875,0.695801
284852603706,-0.126953,-0.785645,0.661133
284852620195,-0.123535,-0.748047,0.636719
284852642689,-0.102051,-0.77002,0.646973
284852663721,-0.0874023,-0.760254,0.65918
284852680186,-0.0927734,-0.76123,0.664551
284852702657,-0.10498,-0.770508,0.665527
284852723720,-0.103516,-0.750488,0.665527
284852740177,-0.10498,-0.740234,0.670898
284852762667,-0.119629,-0.743164,0.666504
284852783772,-0.104492,-0.73584,0.648926
284852800168,-0.0810547,-0.750488,0.653809
284852822740,-0.0751953,-0.731445,0.643555
284852843768,-0.0761719,-0.721191,0.655273
284852860224,-0.059082,-0.728027,0.672363
284852882700,-0.0917969,-0.751465,0.688477
284852913331,-0.108398,-0.773926,0.678223
284852920222,-0.101562,-0.773438,0.682129
284852942698,-0.0986328,-0.781738,0.674316
284852963709,-0.111816,-0.753418,0.65332
284852979453,-0.102539,-0.744141,0.649902
284853001935,-0.0800781,-0.762207,0.651855
284853024410,-0.0551758,-0.745605,0.668945
284853039478,-0.0610352,-0.738281,0.676758
284853061990,-0.0625,-0.741699,0.67627
284853091923,-0.090332,-0.745117,0.666992
284853100839,-0.100586,-0.758789,0.666504
284853122035,-0.0888672,-0.758789,0.67627
284853145870,-0.0917969,-0.771484,0.684082
284853160847,-0.0952148,-0.744629,0.672852
284853181899,-0.0864258,-0.740723,0.658691
284853204482,-0.0830078,-0.759766,0.666016
284853220876,-0.0898438,-0.745117,0.675781
284853241983,-0.0786133,-0.734863,0.686035
284853264413,-0.0820312,-0.751953,0.682129
284853280841,-0.0791016,-0.742676,0.675293
284853301914,-0.102539,-0.746582,0.652832
284853324454,-0.0800781,-0.765137,0.67041
284853348371,-0.0688477,-0.746094,0.669922
284853361934,-0.0849609,-0.75,0.662109
284853384435,-0.0820312,-0.763672,0.651367
284853400848,-0.0917969,-0.755371,0.648926
284853423367,-0.0976562,-0.756348,0.658691
284853444402,-0.102539,-0.754883,0.663574
284853460864,-0.103516,-0.746094,0.669434
284853481922,-0.105469,-0.73584,0.660156
284853504398,-0.0932617,-0.73584,0.677246
284853528461,-0.0864258,-0.719727,0.66748
284853542070,-0.0947266,-0.739746,0.672852
284853564423,-0.102051,-0.753418,0.680664
284853581294,-0.0844727,-0.747559,0.684082
284853602090,-0.0615234,-0.728027,0.696289
284853624507,-0.0488281,-0.727051,0.686035
284853640943,-0.0620117,-0.73877,0.696289
284853662063,-0.0527344,-0.732422,0.689941
284853691988,-0.065918,-0.72998,0.685059
284853700857,-0.0629883,-0.72998,0.677734
284853722035,-0.0683594,-0.737305,0.67627
284853744492,-0.0742188,-0.750488,0.680664
284853760881,-0.0727539,-0.772949,0.683594
284853781907,-0.0654297,-0.73291,0.676758
284853804386,-0.0371094,-0.727539,0.680664
284853820838,-0.0419922,-0.705078,0.650879
284853842015,-0.0102539,-0.630371,0.641113
284853864413,0.0136719,-0.73877,0.648926
284853880862,0.00732422,-0.782715,0.67041
284853902046,-0.0209961,-0.726074,0.643066
284853924496,-0.0537109,-0.694336,0.591797
284853940894,0.015625,-0.746582,0.581055
284853962108,0.0356445,-0.841309,0.606445
284853984505,0.0244141,-0.86084,0.608398
284854000321,0.00244141,-0.830078,0.587891
284854023389,0.00341797,-0.828125,0.63916
284854044418,-0.0297852,-0.825195,0.664062
284854060239,-0.0615234,-0.776367,0.629883
284854083137,-0.125488,-0.754883,0.625488
284854104433,-0.180664,-0.730957,0.594727
284854128396,-0.178223,-0.753906,0.663086
284854143365,-0.197266,-0.881836,0.719238
284854180751,-0.180664,-0.85791,0.751953
284854183161,-0.210449,-0.75293,0.704102
284854203483,-0.1875,-0.762207,0.66748
284854224448,-0.207031,-0.797852,0.671875
284854240308,-0.184082,-0.786621,0.651855
284854263459,-0.165527,-0.739258,0.648438
284854284535,-0.128906,-0.720703,0.624023
284854300392,-0.153809,-0.779297,0.613281
284854323490,-0.140625,-0.835938,0.57959
284854344567,-0.105469,-0.818359,0.583496
284854360268,-0.0981445,-0.743652,0.589844
284854383397,-0.100098,-0.808594,0.571289
284854404453,-0.16748,-0.888672,0.547363
284854420271,-0.166504,-0.847168,0.51709
284854443421,-0.154785,-0.822266,0.518555
284854464446,-0.162598,-0.816406,0.509277
284854480240,-0.142578,-0.769531,0.451172
284854503366,-0.126953,-0.809082,0.480469
284854524471,-0.0917969,-0.876465,0.541504
284854540188,-0.19043,-0.925781,0.530762
284854569527,-0.21875,-0.906738,0.54541
284854584415,-0.223145,-0.867188,0.522949
284854600234,-0.0366211,-1.04883,0.743164
284854623397,-0.15625,-0.754395,0.453613
284854644455,-0.193359,-0.649414,0.327637
284854660209,-0.0688477,-0.926758,0.418945
284854683370,0.00341797,-0.991211,0.487305
284854704444,-0.0161133,-0.763672,0.574219
284854727045,-0.108398,-0.715332,0.599609
284854743445,-0.193848,-0.793457,0.66748
284854764433,-0.217285,-0.8125,0.693359
284854780361,-0.260742,-0.797852,0.594727
284854809517,-0.217773,-0.838379,0.486816
284854824517,0.0410156,-1.08643,0.608398
284854840306,0.0634766,-1.27002,0.612793
284854863487,-0.0249023,-1.1123,0.631348
284854884522,-0.0439453,-0.587402,0.619629
284854900383,0.0288086,-0.48584,0.612793
284854922763,-0.0830078,-0.725098,0.667969
284854944461,-0.123535,-0.788086,0.703125
284854960248,-0.162109,-0.813477,0.728027
284854982743,-0.169922,-0.835449,0.757812
284855013360,-0.174316,-0.782227,0.73877
284855027004,-0.163086,-0.709961,0.694336
284855042760,-0.223145,-0.700195,0.608887
284855065885,-0.312988,-0.770996,0.515137
284855080365,-0.288086,-0.809082,0.462402
284855102742,-0.198242,-0.792969,0.455566
284855126019,-0.220215,-0.785645,0.412109
284855147096,-0.252441,-0.785645,0.397949
284855162777,-0.276855,-0.815918,0.350098
284855185918,-0.261719,-0.894043,0.313477
284855207065,-0.242188,-0.876465,0.383789
284855222834,-0.220215,-0.816895,0.405762
284855246036,-0.223633,-0.837891,0.417969
284855267074,-0.238281,-0.871094,0.450195
284855282738,-0.253418,-0.858398,0.454102
284855305883,-0.25293,-0.848633,0.449707
284855320262,-0.229004,-0.853027,0.472168
284855342751,-0.225098,-0.827637,0.524414
284855365968,-0.251465,-0.813477,0.529297
284855380270,-0.243652,-0.836914,0.53418
284855402760,-0.236328,-0.849609,0.540527
284855425869,-0.238281,-0.886719,0.541016
284855440222,-0.25,-0.858887,0.528809
284855462838,-0.262695,-0.842285,0.491211
284855486062,-0.270508,-0.849121,0.475098
284855507005,-0.245117,-0.849121,0.495117
284855522748,-0.212402,-0.860352,0.500488
284855546060,-0.224121,-0.862305,0.496094
284855568415,-0.242676,-0.868164,0.497559
284855590967,-0.273926,-0.84082,0.468262
284855605908,-0.256348,-0.844238,0.449219
284855627027,-0.220703,-0.851562,0.467285
284855642797,-0.20752,-0.825195,0.493652
284855681649,-0.238281,-0.851074,0.494629
284855687061,-0.249512,-0.852051,0.50293
284855702818,-0.263184,-0.832031,0.492188
284855725967,-0.246582,-0.844238,0.481445
284855746691,-0.235352,-0.852051,0.484863
284855762773,-0.239746,-0.851562,0.483398
284855785971,-0.243164,-0.855469,0.481934
284855807039,-0.240723,-0.868164,0.476074
284855822803,-0.241699,-0.87207,0.46875
284855845976,-0.25,-0.874023,0.462891
284855867027,-0.23584,-0.867188,0.463379
284855882836,-0.241699,-0.850098,0.476562
284855905355,-0.241211,-0.841309,0.472656
284855928445,-0.240723,-0.845703,0.471191
284855942794,-0.233887,-0.856445,0.46875
284855965293,-0.231934,-0.854004,0.48584
284855988431,-0.231934,-0.862305,0.483398
284856002785,-0.242676,-0.867188,0.487793
284856025354,-0.250977,-0.870117,0.48291
284856048454,-0.262695,-0.871582,0.46582
284856062759,-0.276367,-0.890625,0.455566
284856085282,-0.282227,-0.876465,0.454102
284856108499,-0.287598,-0.863281,0.449219
284856122825,-0.27002,-0.856445,0.444824
284856145378,-0.243652,-0.85498,0.472168
284856168452,-0.244629,-0.861816,0.465332
284856190968,-0.241211,-0.844727,0.461426
284856205280,-0.228027,-0.845215,0.467285
284856234477,-0.212402,-0.862793,0.478027
284856242788,-0.216797,-0.866699,0.481934
284856265301,-0.236328,-0.854492,0.46582
284856288442,-0.245117,-0.855469,0.444336
284856309477,-0.251465,-0.88623,0.460938
284856325245,-0.241211,-0.895508,0.465332
284856348419,-0.245605,-0.856445,0.463867
284856362777,-0.251953,-0.835938,0.456055
284856385348,-0.262695,-0.854492,0.46582
284856416034,-0.25293,-0.865723,0.485352
284856429585,-0.245117,-0.875,0.484375
284856445316,-0.231445,-0.856445,0.486328
284856468471,-0.219238,-0.855469,0.508789
284856489463,-0.199219,-0.852539,0.495605
284856505281,-0.178223,-0.842285,0.527344
284856528501,-0.169922,-0.847168,0.523438
284856549562,-0.192383,-0.825195,0.499512
284856564619,-0.211426,-0.869629,0.483398
284856578968,-0.213867,-0.851074,0.485352
284856601312,-0.190918,-0.800293,0.504883
284856624609,-0.178711,-0.799316,0.508301
284856640276,-0.194336,-0.866211,0.525391
284856661370,-0.225586,-0.855469,0.503418
284856684636,-0.237305,-0.835938,0.490234
284856698863,-0.230469,-0.85791,0.500488
284856721449,-0.228516,-0.84082,0.494141
284856744568,-0.250977,-0.817383,0.480469
284856759013,-0.245117,-0.858398,0.475098
284856790261,-0.234375,-0.891602,0.475586
284856804464,-0.231445,-0.887207,0.467773
284856818791,-0.25293,-0.890625,0.459473
284856841346,-0.270996,-0.859375,0.458496
284856864481,-0.249023,-0.849121,0.483887
284856878824,-0.199707,-0.845703,0.503906
284856901365,-0.188477,-0.851074,0.495117
284856924544,-0.216797,-0.874023,0.481934
284856938877,-0.22168,-0.867676,0.48291
284856961330,-0.21582,-0.849121,0.496094
284856984549,-0.187012,-0.822266,0.492676
284856998851,-0.168457,-0.844238,0.496094
284857021428,-0.197754,-0.883301,0.499023
284857044559,-0.237305,-0.883301,0.477051
284857067035,-0.256348,-0.869629,0.468262
284857081387,-0.25,-0.866699,0.471191
284857104498,-0.236816,-0.851562,0.467285
284857118895,-0.244141,-0.868164,0.471191
284857141391,-0.253418,-0.858887,0.452148
284857164573,-0.237305,-0.845703,0.458496
284857178922,-0.216797,-0.878418,0.466309
284857201436,-0.215332,-0.869629,0.479004
284857224607,-0.211426,-0.850098,0.479004
284857238957,-0.21582,-0.883301,0.470703
284857261418,-0.220215,-0.88623,0.471191
284857284519,-0.228516,-0.869141,0.472168
284857298898,-0.230957,-0.879395,0.482422
284857321444,-0.23584,-0.868164,0.479004
284857344583,-0.225098,-0.856445,0.48584
284857358933,-0.219238,-0.847168,0.487305
284857381378,-0.212402,-0.845703,0.471191
284857404590,-0.196289,-0.846191,0.469727
284857418891,-0.188477,-0.851562,0.491699
284857441441,-0.180176,-0.865723,0.503418
284857464604,-0.124512,-0.825684,0.564941
284857478956,-0.221191,-0.864258,0.446777
284857501416,-0.206055,-0.814453,0.501465
284857524604,-0.192871,-0.826172,0.484863
284857538908,-0.181641,-0.846191,0.520508
284857561466,-0.19043,-0.859863,0.511719
284857584668,-0.239258,-0.875,0.496582
284857598858,-0.273926,-0.875977,0.464355
284857621345,-0.257324,-0.889648,0.460938
284857644520,-0.244629,-0.894043,0.470703
284857658861,-0.232422,-0.867188,0.476562
284857681306,-0.235352,-0.855469,0.467285
284857704542,-0.229492,-0.857422,0.472168
284857718846,-0.208008,-0.86084,0.484863
284857741349,-0.210449,-0.854004,0.489258
284857764512,-0.209961,-0.869141,0.48584
284857778890,-0.202148,-0.858398,0.477051
284857809587,-0.195801,-0.837891,0.476562
284857823937,-0.197266,-0.856934,0.475586
284857838983,-0.195312,-0.859375,0.475586
284857861391,-0.15918,-0.833984,0.516602
284857883889,-0.21875,-0.877441,0.461426
284857900310,-0.184082,-0.819824,0.487305
284857921410,-0.178223,-0.838379,0.48584
284857952706,-0.169922,-0.844727,0.516113
284857958920,-0.163574,-0.822266,0.506348
284857981418,-0.200684,-0.869629,0.499023
284858003859,-0.236328,-0.871094,0.460938
284858018912,-0.239258,-0.865234,0.458984
284858041420,-0.225098,-0.891113,0.462402
284858063938,-0.222168,-0.872559,0.473633
284858078892,-0.233398,-0.863281,0.473145
284858101352,-0.234863,-0.861328,0.477539
284858123856,-0.212891,-0.861328,0.474609
284858141804,-0.19873,-0.877441,0.488281
284858161385,-0.219238,-0.890137,0.483398
284858183922,-0.232422,-0.882812,0.478516
284858198934,-0.236328,-0.878418,0.48291
284858221391,-0.233887,-0.873047,0.481445
284858243951,-0.244629,-0.896973,0.447266
284858258907,-0.252441,-0.881348,0.428223
284858281382,-0.226562,-0.843262,0.453125
284858303874,-0.183105,-0.86084,0.479492
284858318953,-0.174316,-0.853516,0.489258
284858341470,-0.161133,-0.829102,0.478516
284858363873,-0.101562,-0.837402,0.561523
284858378860,-0.17334,-0.908691,0.520508
284858401348,-0.191895,-0.841797,0.487305
284858423902,-0.171387,-0.784668,0.473633
284858438909,-0.135742,-0.875,0.535645
284858461469,-0.213867,-0.919434,0.507812
284858483859,-0.25,-0.847656,0.463379
284858498835,-0.26123,-0.868652,0.418945
284858521421,-0.234375,-0.887207,0.451172
284858543941,-0.21582,-0.860352,0.45166
284858558992,-0.213867,-0.851074,0.459961
284858581396,-0.21875,-0.875488,0.465332
284858603870,-0.215332,-0.884277,0.474609
284858618857,-0.222168,-0.872559,0.472656
284858642797,-0.21875,-0.875977,0.47168
284858663880,-0.199707,-0.871094,0.466797
284858678981,-0.195801,-0.881836,0.476074
284858701394,-0.199707,-0.862305,0.480957
284858732078,-0.210449,-0.862305,0.477051
284858740321,-0.209473,-0.873535,0.473145
284858761394,-0.204102,-0.865234,0.46875
284858783918,-0.20752,-0.875977,0.456055
284858807839,-0.209473,-0.872559,0.461914
284858821408,-0.212402,-0.864746,0.456055
284858852041,-0.214844,-0.865723,0.457031
284858860314,-0.211914,-0.869141,0.469238
284858881379,-0.206543,-0.871094,0.46875
284858903912,-0.200195,-0.868164,0.473633
284858920291,-0.202148,-0.873047,0.478027
284858941413,-0.216309,-0.866211,0.470703
284858957812,-0.217285,-0.870117,0.463379
284858980301,-0.222656,-0.868652,0.461426
284859001466,-0.22168,-0.878906,0.459473
284859023834,-0.22168,-0.879883,0.460449
284859040369,-0.223633,-0.877441,0.467285
284859064380,-0.232422,-0.884277,0.452148
284859077873,-0.23584,-0.868652,0.457031
284859100475,-0.225586,-0.865234,0.459961
284859121436,-0.219727,-0.867676,0.458984
284859137941,-0.203613,-0.86377,0.471191
284859160457,-0.1875,-0.854004,0.445801
284859181399,-0.157715,-0.86377,0.527344
284859197877,-0.133789,-0.844727,0.480957
284859220380,-0.182129,-0.872559,0.48584
284859241409,-0.17627,-0.870605,0.490234
284859257851,-0.194336,-0.850098,0.469727
284859280340,-0.205078,-0.86377,0.461426
284859301380,-0.191895,-0.850098,0.473633
284859317904,-0.203125,-0.836426,0.489746
284859340363,-0.209473,-0.838867,0.478027
284859361522,-0.217285,-0.859863,0.474121
284859377871,-0.210938,-0.874512,0.483398
284859400398,-0.220703,-0.877441,0.480957
284859421504,-0.243164,-0.896973,0.45752
284859437927,-0.241211,-0.893555,0.462402
284859460411,-0.213379,-0.861816,0.462891
284859481526,-0.217285,-0.884766,0.48291
284859497898,-0.212891,-0.902832,0.48584
284859526499,-0.232422,-0.89502,0.476074
284859541495,-0.249023,-0.886719,0.479004
284859565438,-0.248047,-0.875,0.478516
284859580423,-0.243652,-0.86377,0.493164
284859601505,-0.264648,-0.887207,0.470215
284859617843,-0.272461,-0.914062,0.463867
284859641890,-0.264648,-0.927734,0.446289
284859662918,-0.268555,-0.885254,0.436035
284859683965,-0.306641,-0.853516,0.455078
284859700436,-0.291504,-0.856445,0.467773
284859722903,-0.284668,-0.825684,0.442383
284859743943,-0.272461,-0.839844,0.443848
284859760397,-0.299805,-0.92334,0.429688
284859782968,-0.300781,-0.887695,0.494629
284859803991,-0.304199,-0.866699,0.493164
284859820435,-0.27002,-0.820312,0.51123
284859842943,-0.250977,-0.796387,0.538574
284859863973,-0.270996,-0.810059,0.504395
284859880353,-0.293945,-0.830566,0.504395
284859902849,-0.255371,-0.838379,0.531738
284859924021,-0.217773,-0.822266,0.535156
284859941911,-0.246582,-0.830078,0.533691
284859962888,-0.272461,-0.791992,0.535156
284859983882,-0.280762,-0.744141,0.536133
284860007826,-0.290527,-0.737793,0.512207
284860022844,-0.266113,-0.771973,0.493652
284860052137,-0.161133,-0.769043,0.563477
284860060313,-0.169922,-0.789062,0.566895
284860083497,-0.185059,-0.678711,0.566895
284860105417,-0.149414,-0.712891,0.554688
284860119570,-0.137695,-0.82959,0.591797
284860142119,-0.0620117,-0.917969,0.65625
284860164767,-0.0761719,-0.797363,0.668457
284860179664,-0.0859375,-0.723145,0.699219
284860202175,-0.0717773,-0.70459,0.729492
284860224598,-0.0786133,-0.763184,0.742676
284860239633,-0.0898438,-0.848633,0.747559
284860262136,-0.117188,-0.833008,0.803711
284860284597,-0.166992,-0.774414,0.854492
284860299569,-0.177246,-0.74707,0.873047
284860322172,-0.180664,-0.767578,0.842773
284860344585,-0.237305,-0.797852,0.794434
284860359693,-0.301758,-0.793945,0.782715
284860382108,-0.351074,-0.776367,0.781738
284860414268,-0.330566,-0.733398,0.813477
284860419653,-0.285156,-0.748047,0.769531
284860442096,-0.291016,-0.797852,0.700195
284860464586,-0.280273,-0.737305,0.661133
284860479600,-0.169434,-0.625977,0.640137
284860502079,-0.0581055,-0.696289,0.67334
284860524632,-0.00292969,-0.762207,0.698242
284860539641,-0.0136719,-0.687012,0.645996
284860562161,-0.0141602,-0.567383,0.595703
284860584614,-0.0229492,-0.526367,0.595215
284860599594,-0.0297852,-0.514648,0.663574
284860622068,-0.00195312,-0.51123,0.705078
284860644634,-0.0341797,-0.492676,0.724121
284860661131,-0.0751953,-0.497559,0.734863
284860682161,-0.116211,-0.513184,0.746094
284860704601,-0.161621,-0.531738,0.76416
284860721089,-0.174316,-0.537109,0.760254
284860742031,-0.171875,-0.570312,0.773926
284860764668,-0.171875,-0.568848,0.783203
284860781177,-0.1875,-0.572754,0.77002
284860802058,-0.196289,-0.588379,0.776855
284860817961,-0.187988,-0.560059,0.817871
284860841565,-0.202148,-0.552246,0.803711
284860862192,-0.163574,-0.556641,0.833008
284860884612,-0.155762,-0.532227,0.845703
284860901128,-0.195801,-0.509277,0.779297
284860922205,-0.182617,-0.577637,0.753906
284860944663,-0.166504,-0.665527,0.779785
284860961059,-0.177734,-0.67627,0.734863
284860982152,-0.210449,-0.64209,0.724121
284861004642,-0.226074,-0.618652,0.73877
284861028636,-0.225586,-0.618652,0.787109
284861042117,-0.195801,-0.63916,0.799805
284861064658,-0.178711,-0.641602,0.793457
284861081105,-0.187988,-0.659668,0.771973
284861102157,-0.195312,-0.698242,0.753906
284861124585,-0.188965,-0.711426,0.756836
284861141031,-0.165039,-0.693359,0.757324
284861162094,-0.160156,-0.678711,0.760254
284861177914,-0.163086,-0.681641,0.757812
284861201073,-0.160156,-0.686035,0.740723
284861221897,-0.15918,-0.703125,0.765625
284861238004,-0.142578,-0.727539,0.746582
284861261070,-0.194824,-0.708496,0.733887
284861282185,-0.213379,-0.664062,0.723145
284861297955,-0.196289,-0.69043,0.750977
284861321030,-0.210938,-0.736816,0.729492
284861342121,-0.209473,-0.689453,0.720215
284861364722,-0.209473,-0.583496,0.746582
284861381121,-0.185547,-0.540039,0.722168
284861402172,-0.106934,-0.586426,0.774414
284861424658,-0.102051,-0.602051,0.796387
284861441101,-0.0986328,-0.570312,0.814453
284861462225,-0.10791,-0.572754,0.823242
284861478070,-0.160156,-0.646484,0.791504
284861508568,-0.177246,-0.676758,0.782227
284861522115,-0.193359,-0.672363,0.735352
284861537964,-0.186035,-0.67334,0.745117
284861560416,-0.193848,-0.668945,0.735352
284861582173,-0.200684,-0.661133,0.740723
284861597935,-0.195801,-0.650879,0.73291
284861620429,-0.208496,-0.662109,0.725098
284861643576,-0.210449,-0.67627,0.722168
284861658017,-0.198242,-0.663574,0.733398
284861680497,-0.194824,-0.663086,0.737793
284861703647,-0.176758,-0.654297,0.739258
284861717924,-0.150879,-0.641602,0.766602
284861740465,-0.133301,-0.641113,0.79834
284861763626,-0.124512,-0.632324,0.762695
284861778033,-0.142578,-0.628906,0.783691
284861800455,-0.155762,-0.641113,0.768066
284861823555,-0.164551,-0.666016,0.766113
284861837864,-0.183105,-0.638184,0.770508
284861860369,-0.231445,-0.631348,0.75
284861883510,-0.254395,-0.668457,0.725586
284861897963,-0.24707,-0.668457,0.743164
284861920394,-0.243164,-0.651367,0.733398
284861943541,-0.250977,-0.666992,0.72168
284861957889,-0.25293,-0.686035,0.696289
284861980360,-0.274414,-0.693359,0.675293
284862003510,-0.290527,-0.701172,0.633789
284862024761,-0.28125,-0.689941,0.676758
284862040496,-0.271973,-0.692383,0.713379
284862063631,-0.274902,-0.712891,0.725586
284862084671,-0.291504,-0.706055,0.746582
284862100381,-0.261719,-0.674805,0.72998
284862131122,-0.223145,-0.652344,0.729004
284862144634,-0.191406,-0.640137,0.754395
284862160429,-0.148438,-0.647949,0.742188
284862184238,-0.112305,-0.620605,0.774414
284862204684,-0.0727539,-0.580566,0.776367
284862220470,-0.0795898,-0.629395,0.772949
284862243653,-0.0244141,-0.648926,0.794434
284862264637,-0.0263672,-0.574219,0.747559
284862280459,0.0356445,-0.597168,0.729004
284862303609,0.131348,-0.769531,0.736816
284862324736,0.152832,-0.755859,0.753418
284862340895,0.151367,-0.666992,0.717773
284862363627,0.199219,-0.591797,0.732422
284862384709,0.14209,-0.665039,0.712402
284862400428,0.116211,-0.837891,0.683594
284862423655,0.135742,-0.873535,0.71582
284862444615,0.0400391,-0.741699,0.72998
284862460456,-0.0693359,-0.71875,0.734863
284862483662,-0.0341797,-0.68457,0.719238
284862504604,-0.00488281,-0.691895,0.75
284862528656,-0.0224609,-0.77002,0.725586
284862543026,-0.019043,-0.785156,0.668945
284862566145,0.0556641,-0.739746,0.61084
284862580417,0.114746,-0.678711,0.673828
284862602871,0.126953,-0.651855,0.736816
284862626110,0.102051,-0.680176,0.746094
284862640471,0.09375,-0.707031,0.702637
284862662995,0.128418,-0.70166,0.691895
284862686064,0.159668,-0.692383,0.704102
284862700386,0.133789,-0.73291,0.634766
284862722962,0.161133,-0.802734,0.646484
284862746055,0.17627,-0.772949,0.642578
284862760440,0.213867,-0.721191,0.701172
284862783000,0.231445,-0.634766,0.727539
284862806122,0.204102,-0.597656,0.706055
284862827141,0.220703,-0.596191,0.669434
284862843010,0.271484,-0.614258,0.631348
284862866094,0.299316,-0.669922,0.620605
284862894651,0.288086,-0.725098,0.630859
284862902979,0.279785,-0.70166,0.664551
284862926064,0.236816,-0.673828,0.652832
284862947216,0.236816,-0.643555,0.651855
284862962996,0.210449,-0.652832,0.640137
284862986091,0.195801,-0.740234,0.645508
284863000367,0.172363,-0.790527,0.65918
284863022982,0.159668,-0.759766,0.652832
284863046062,0.14209,-0.671387,0.586426
284863067163,0.203125,-0.712402,0.598633
284863082996,0.190918,-0.811035,0.682617
284863106042,0.150391,-0.765625,0.706543
284863128568,0.111816,-0.723145,0.679688
284863142969,0.126953,-0.746094,0.672363
284863173537,0.134766,-0.788086,0.670898
284863187142,0.143066,-0.811523,0.689453
284863202996,0.13916,-0.827148,0.714355
284863226156,0.10498,-0.793945,0.713867
284863247187,0.105957,-0.735352,0.722168
284863262960,0.104492,-0.722656,0.705078
284863286061,0.10791,-0.762207,0.691895
284863307146,0.0913086,-0.757324,0.674805
284863322997,0.0981445,-0.725586,0.676758
284863346054,0.118652,-0.708984,0.682617
284863367167,0.152832,-0.699219,0.697754
284863382998,0.166504,-0.673828,0.695801
284863406079,0.158691,-0.654297,0.685547
284863427145,0.165527,-0.662109,0.699707
284863451117,0.155273,-0.654297,0.708496
284863465484,0.137695,-0.68457,0.717773
284863488592,0.109863,-0.705566,0.713867
284863502969,0.120117,-0.70459,0.72168
284863525404,0.148438,-0.698242,0.736816
284863548569,0.155762,-0.72168,0.73291
284863562974,0.161133,-0.71875,0.732422
284863585498,0.189941,-0.689453,0.722168
284863614670,0.212891,-0.685059,0.726562
284863622997,0.238281,-0.679199,0.731445
284863645423,0.213379,-0.682129,0.698242
284863668595,0.230957,-0.658691,0.675293
284863689670,0.20752,-0.629883,0.673828
284863696488,0.159668,-0.633789,0.688965
284863727842,0.157227,-0.644531,0.697266
284863742150,0.178711,-0.64502,0.699707
284863756499,0.181641,-0.665527,0.69873
284863779042,0.183594,-0.668945,0.70752
284863802164,0.196777,-0.680664,0.727539
284863816489,0.212402,-0.682617,0.73291
284863839004,0.206543,-0.669922,0.734863
284863862191,0.185059,-0.662598,0.734863
284863876497,0.186035,-0.648926,0.751465
284863899068,0.197754,-0.672363,0.749023
284863922233,0.197754,-0.699707,0.733887
284863936533,0.177734,-0.685547,0.716797
284863959016,0.173828,-0.681152,0.723145
284863982164,0.166504,-0.676758,0.730469
284864004693,0.171387,-0.657715,0.72998
284864018986,0.170898,-0.666016,0.71582
284864042157,0.177734,-0.686523,0.716797
284864056493,0.174316,-0.687012,0.722168
284864079017,0.175293,-0.677246,0.720215
284864102136,0.193848,-0.660156,0.717285
284864116493,0.203125,-0.668457,0.711426
284864139030,0.210938,-0.672363,0.716797
284864162169,0.197266,-0.657715,0.691406
284864176469,0.200195,-0.661621,0.702148
284864199020,0.199707,-0.659668,0.725586
284864222182,0.200684,-0.657227,0.737793
284864244674,0.208496,-0.652832,0.724609
284864259020,0.217773,-0.661621,0.716309
284864282169,0.205078,-0.679199,0.726074
284864296535,0.181152,-0.685059,0.737305
284864319030,0.182129,-0.687012,0.740234
284864342166,0.176758,-0.687012,0.725586
284864356500,0.180176,-0.664551,0.727051
284864379013,0.166016,-0.623535,0.740723
284864402132,0.161133,-0.647461,0.750488
284864416480,0.162109,-0.682129,0.745605
284864439038,0.169434,-0.671875,0.71582
284864461530,0.174805,-0.662109,0.690918
284864476532,0.188965,-0.649414,0.703125
284864499021,0.204102,-0.622559,0.703125
284864521469,0.217773,-0.626465,0.704102
284864536528,0.201172,-0.631348,0.69043
284864560426,0.192871,-0.629395,0.684082
284864581514,0.191406,-0.684082,0.690918
284864597775,0.191406,-0.731445,0.707031
284864619020,0.180176,-0.730957,0.69873
284864641535,0.197266,-0.689941,0.696777
284864656454,0.233887,-0.680176,0.72998
284864678999,0.242676,-0.692383,0.751953
284864701487,0.21582,-0.66748,0.786621
284864725146,0.191895,-0.59082,0.786621
284864739025,0.193359,-0.558105,0.769531
284864761488,0.20459,-0.579102,0.763672
284864776544,0.20752,-0.625977,0.757324
284864799048,0.20459,-0.648438,0.756348
284864821574,0.199707,-0.648438,0.748047
284864836542,0.192383,-0.651367,0.76123
284864859016,0.189941,-0.643066,0.778809
284864881524,0.17627,-0.643555,0.773926
284864896526,0.15625,-0.664062,0.753906
284864919043,0.155273,-0.674805,0.733887
284864941540,0.168457,-0.679688,0.727539
284864956584,0.188965,-0.663086,0.736816
284864978970,0.202148,-0.653809,0.718262
284865001515,0.201172,-0.647461,0.714355
284865016510,0.200684,-0.648438,0.714355
284865039041,0.193848,-0.649414,0.73291
284865061546,0.181152,-0.660156,0.742188
284865076444,0.18457,-0.65918,0.740723
284865099014,0.186523,-0.654785,0.739258
284865121489,0.180664,-0.631836,0.725098
284865136555,0.20166,-0.625977,0.741211
284865159046,0.20166,-0.647461,0.737305
284865181567,0.192871,-0.669922,0.738281
284865196512,0.174316,-0.643066,0.739258
284865219049,0.145508,-0.631348,0.707031
284865241484,0.155762,-0.638672,0.714844
284865256542,0.194336,-0.637695,0.700195
284865279061,0.215332,-0.687012,0.711426
284865301520,0.188477,-0.685059,0.720703
284865316474,0.1875,-0.670898,0.69873
284865339035,0.202148,-0.72168,0.720215
284865361538,0.196289,-0.755371,0.748535
284865377994,0.180176,-0.705078,0.778809
284865398999,0.165527,-0.624023,0.75
284865421548,0.174316,-0.591797,0.757324
284865437998,0.19043,-0.581543,0.773438
284865459141,0.220215,-0.574707,0.808105
284865481615,0.255371,-0.558594,0.796387
284865498037,0.285156,-0.524902,0.80127
284865519074,0.282715,-0.515137,0.80127
284865541560,0.262695,-0.594238,0.796875
284865558042,0.226074,-0.620117,0.785156
284865579097,0.197266,-0.602051,0.769043
284865601561,0.195312,-0.567871,0.76416
284865618018,0.213379,-0.568359,0.796875
284865639127,0.230469,-0.580078,0.796875
284865661522,0.230469,-0.622559,0.839355
284865678036,0.194824,-0.614258,0.816406
284865699161,0.172363,-0.607422,0.80127
284865723070,0.174316,-0.590332,0.770508
284865744175,0.191895,-0.578125,0.77832
284865759117,0.20166,-0.545898,0.770996
284865781614,0.212891,-0.531738,0.793457
284865798018,0.213867,-0.537598,0.797852
284865819109,0.222168,-0.525879,0.788574
284865841606,0.221191,-0.508789,0.776367
284865859433,0.224121,-0.529297,0.777832
284865882027,0.238281,-0.543457,0.801758
284865901549,0.235352,-0.543945,0.814941
284865918082,0.209961,-0.524902,0.834961
284865947234,0.189453,-0.527832,0.820312
284865961584,0.174805,-0.570312,0.826172
284865978027,0.171875,-0.609863,0.812988
284865999133,0.182617,-0.602051,0.800781
284866021601,0.179688,-0.587891,0.797852
284866038002,0.171875,-0.521484,0.803223
284866059062,0.180176,-0.491211,0.798828
284866081581,0.20459,-0.506348,0.797852
284866097974,0.216797,-0.494141,0.821289
284866119189,0.186523,-0.54834,0.821289
284866141564,0.175293,-0.626465,0.833496
284866157957,0.156738,-0.600098,0.831543
284866179065,0.137207,-0.56543,0.83252
284866201629,0.131348,-0.579102,0.834473
284866217968,0.15918,-0.594727,0.836426
284866239036,0.1875,-0.56543,0.834473
284866261545,0.23291,-0.533203,0.84082
284866277973,0.209961,-0.520508,0.817383
284866300482,0.181152,-0.519531,0.787109
284866321575,0.195312,-0.555176,0.796875
284866339442,0.152344,-0.580078,0.791992
284866360457,0.164062,-0.543457,0.799316
284866389754,0.169434,-0.51709,0.798828
284866397981,0.151855,-0.526367,0.806152
284866420576,0.125977,-0.522949,0.766113
284866441581,0.144531,-0.619141,0.780762
284866458031,0.144531,-0.653809,0.772461
284866480505,0.147949,-0.63623,0.765137
284866502973,0.181641,-0.609863,0.79834
284866517999,0.1875,-0.59668,0.802734
284866540463,0.211426,-0.58252,0.838867
284866561539,0.185059,-0.555664,0.780273
284866577962,0.190918,-0.552734,0.780762
284866600462,0.189941,-0.572754,0.77832
284866622288,0.212402,-0.599609,0.824219
284866637964,0.22998,-0.617676,0.828613
284866660459,0.24707,-0.618652,0.817871
284866681617,0.22998,-0.650391,0.791992
284866697965,0.177246,-0.608398,0.78418
284866720536,0.233887,-0.555664,0.769531
284866741614,0.271484,-0.563965,0.776367
284866758062,0.357422,-0.5625,0.794922
284866781955,0.365234,-0.618652,0.77002
284866801495,0.359375,-0.615723,0.753418
284866817988,0.338867,-0.587402,0.738281
284866840457,0.34375,-0.581055,0.741211
284866861528,0.256348,-0.562988,0.666504
284866877961,0.244141,-0.525391,0.721191
284866901133,0.244141,-0.477051,0.757812
284866921585,0.23584,-0.452637,0.807617
284866937971,0.219727,-0.483398,0.819336
284866960474,0.230469,-0.559082,0.820312
284866981551,0.21582,-0.591797,0.803223
284866997965,0.244141,-0.59375,0.821289
284867020532,0.272949,-0.554199,0.816895
284867041546,0.300293,-0.549805,0.809082
284867058006,0.280762,-0.571777,0.807617
284867080511,0.243164,-0.594238,0.791504
284867101591,0.21875,-0.571289,0.79541
284867118006,0.228027,-0.533691,0.783691
284867140514,0.262695,-0.550293,0.794434
284867161519,0.27002,-0.558594,0.798828
284867178008,0.245605,-0.556152,0.805176
284867200501,0.217285,-0.556641,0.8125
284867221526,0.187012,-0.560059,0.812988
284867245459,0.174805,-0.541992,0.777832
284867259700,0.20752,-0.535156,0.765137
284867282238,0.233887,-0.578125,0.780762
284867298634,0.242188,-0.564941,0.791016
284867319857,0.217773,-0.541016,0.796875
284867342386,0.183105,-0.557129,0.763184
284867358778,0.179688,-0.582031,0.782227
284867379837,0.20459,-0.599121,0.78418
284867402263,0.239258,-0.595215,0.79541
284867418696,0.253418,-0.588867,0.777344
284867439821,0.207031,-0.627441,0.721191
284867463770,0.209961,-0.632812,0.773438
284867478758,0.226562,-0.644043,0.84082
284867499764,0.235352,-0.598145,0.850586
284867522230,0.234375,-0.600098,0.817383
284867538659,0.242676,-0.587891,0.808594
284867559902,0.237305,-0.54248,0.779297
284867582341,0.227051,-0.589355,0.765137
284867598710,0.245605,-0.646973,0.73291
284867619793,0.298828,-0.619629,0.742188
284867642272,0.294922,-0.5625,0.773438
284867658655,0.265137,-0.569336,0.753906
284867679805,0.254395,-0.636719,0.777832
284867702257,0.209473,-0.61377,0.775879
284867718063,0.143066,-0.509277,0.785645
284867739820,0.0961914,-0.536133,0.744141
284867762229,0.178223,-0.535156,0.82959
284867784729,0.194336,-0.415039,0.783203
284867799721,0.198242,-0.414551,0.847656
284867822217,0.233887,-0.492676,0.915039
284867837980,0.260254,-0.546875,0.84082
284867859737,0.254395,-0.546875,0.842285
284867882259,0.180176,-0.63623,0.832031
284867898702,0.17627,-0.64209,0.883789
284867919730,0.140625,-0.566406,0.836914
284867942238,0.0742188,-0.404297,0.803711
284867958734,0.0776367,-0.433594,0.85498
284867979733,0.0874023,-0.491699,0.919922
284868002301,0.0410156,-0.386719,0.928223
284868018050,0.050293,-0.300781,0.89209
284868039830,0.113281,-0.307617,0.921875
284868062282,0.133789,-0.359863,0.94873
284868078088,0.105957,-0.34082,0.95166
284868099784,0.13916,-0.333008,0.93457
284868129865,0.159668,-0.376953,0.93457
284868138710,0.149902,-0.418945,0.922363
284868159819,0.141113,-0.427734,0.921875
284868182317,0.168945,-0.411621,0.912598
284868198105,0.17041,-0.429199,0.904785
284868221251,0.166504,-0.451172,0.886719
284868243849,0.175293,-0.422852,0.894531
284868258070,0.212891,-0.395508,0.898438
284868281260,0.226074,-0.394043,0.893066
284868302293,0.208008,-0.419434,0.897461
284868318077,0.200195,-0.429199,0.901367
284868341231,0.184082,-0.425293,0.893066
284868362306,0.185547,-0.436523,0.891602
284868378101,0.213867,-0.420898,0.89502
284868408714,0.211914,-0.42334,0.885254
284868422285,0.197266,-0.422852,0.883301
284868446269,0.190918,-0.405273,0.875977
284868461283,0.179199,-0.399414,0.875
284868482355,0.176758,-0.417969,0.87793
284868498073,0.171875,-0.42041,0.883789
284868521264,0.164062,-0.410156,0.873535
284868542326,0.186035,-0.428711,0.879883
284868558090,0.205078,-0.444336,0.893066
284868581290,0.178711,-0.445312,0.898438
284868602356,0.173828,-0.430176,0.89209
284868618105,0.177246,-0.418457,0.88623
284868641263,0.187012,-0.42334,0.888672
284868662241,0.192871,-0.426758,0.887207
284868678000,0.189453,-0.418457,0.885742
284868701228,0.218262,-0.425781,0.877441
284868722347,0.228516,-0.430176,0.881836
284868738143,0.224121,-0.40918,0.881348
284868761251,0.235352,-0.399414,0.882324
284868782322,0.263672,-0.399414,0.884277
284868798057,0.271973,-0.424316,0.904785
284868821279,0.258301,-0.438965,0.933594
284868842336,0.249023,-0.431152,0.917969
284868858085,0.246582,-0.410156,0.914062
284868881292,0.249023,-0.391602,0.910156
284868909803,0.24707,-0.400391,0.90918
284868918060,0.234375,-0.428223,0.916016
284868941252,0.236816,-0.429199,0.893066
284868963738,0.237793,-0.402344,0.888184
284868978069,0.214355,-0.394043,0.893066
284869001655,0.209961,-0.42334,0.89209
284869022315,0.219238,-0.469727,0.918945
284869038113,0.178711,-0.42627,0.926758
284869061303,0.152344,-0.367676,0.89209
284869082248,0.181641,-0.380371,0.848145
284869098090,0.240234,-0.458496,0.849609
284869121236,0.222656,-0.472656,0.891113
284869142210,0.170898,-0.422363,0.853027
284869158095,0.199219,-0.390137,0.810059
284869180646,0.275879,-0.449707,0.788574
284869203752,0.246094,-0.506348,0.828125
284869218077,0.0722656,-0.485352,0.848145
284869240591,-0.0102539,-0.410156,0.867676
284869263766,0.00585938,-0.410156,0.883301
284869278585,0.0214844,-0.420898,0.885742
284869300607,-0.0527344,-0.448242,0.880859
284869323845,-0.123535,-0.441406,0.908203
284869346280,-0.122559,-0.403809,0.924316
284869360610,-0.111816,-0.422363,0.894531
284869383763,-0.0795898,-0.424316,0.84375
284869398125,-0.0947266,-0.463379,0.872559
284869420587,-0.128418,-0.518066,0.888672
284869443785,-0.112793,-0.541504,0.908691
284869464892,-0.117676,-0.507812,0.866211
284869480642,-0.0751953,-0.485352,0.810547
284869503768,-0.0390625,-0.54541,0.823242
284869518108,-0.0522461,-0.55127,0.835449
284869540660,-0.0527344,-0.508301,0.816895
284869563801,-0.0351562,-0.492188,0.780273
284869584824,0.0102539,-0.529297,0.775391
284869600548,0.0419922,-0.558594,0.773438
284869623683,0.0473633,-0.546875,0.753906
284869644884,0.0454102,-0.498047,0.727051
284869660633,0.0898438,-0.465332,0.688477
284869683818,0.204102,-0.537598,0.608398
284869704845,0.264648,-0.648926,0.661133
284869720640,0.291016,-0.630371,0.699219
284869743778,0.321289,-0.541504,0.663086
284869764894,0.333008,-0.523438,0.649414
284869780657,0.26709,-0.505371,0.675781
284869803744,0.228516,-0.524414,0.72168
284869824872,0.238281,-0.528809,0.789551
284869840582,0.241699,-0.616211,0.827148
284869863742,0.32959,-0.820312,0.873535
284869884808,0.339844,-0.930176,0.868164
284869900626,0.278809,-0.863281,0.743164
284869923775,0.226562,-0.836426,0.702637
284869944846,0.176758,-0.818848,0.723145
284869960671,0.147461,-0.867676,0.730469
284869983771,0.157715,-0.927246,0.771484
284870004806,0.10791,-0.841309,0.777832
284870020602,0.0839844,-0.808105,0.679199
284870043817,0.0527344,-0.821777,0.617188
284870064860,0.046875,-0.752441,0.606934
284870080612,0.0854492,-0.812012,0.651367
284870103072,0.0874023,-0.893066,0.668457
284870126310,0.0888672,-0.807617,0.638672
284870140596,0.0878906,-0.682617,0.592285
284870163182,0.0839844,-0.657715,0.560059
284870186272,0.164551,-0.761719,0.581543
284870200709,0.253906,-0.825195,0.608398
284870223072,0.262695,-0.764648,0.602539
284870246267,0.236816,-0.687012,0.571777
284870260602,0.27002,-0.653809,0.55127
284870283081,0.289551,-0.690918,0.509766
284870306319,0.368652,-0.840332,0.600586
284870320652,0.42627,-0.828125,0.651855
284870343130,0.375977,-0.766113,0.646484
284870366236,0.402832,-0.729492,0.640137
284870387367,0.416504,-0.71582,0.616211
284870403157,0.451172,-0.715332,0.602051
284870426290,0.498535,-0.708496,0.604492
284870447413,0.507324,-0.689941,0.602539
284870463107,0.512695,-0.693848,0.60498
284870486306,0.522949,-0.690918,0.596191
284870500690,0.497559,-0.675781,0.574219
284870523126,0.48877,-0.70459,0.559082
284870546294,0.463379,-0.702148,0.554688
284870560641,0.455078,-0.693848,0.572266
284870583195,0.45752,-0.71582,0.592285
284870606271,0.418457,-0.803223,0.57959
284870627361,0.34082,-0.879395,0.612793
284870643093,0.293945,-0.871094,0.631836
284870666338,0.276855,-0.872559,0.64209
284870687418,0.309082,-0.810059,0.598145
284870703191,0.333496,-0.893555,0.619629
284870733809,0.242676,-0.949219,0.62793
284870747415,0.183594,-0.913086,0.635254
284870763102,0.164551,-0.851074,0.600586
284870793838,0.161621,-0.853516,0.616211
284870807364,0.115723,-0.833008,0.606934
284870823144,0.0810547,-0.760254,0.613281
284870846330,0.065918,-0.706055,0.57959
284870859198,0.140625,-0.771973,0.612793
284870882406,0.182617,-0.845703,0.659668
284870896711,0.135254,-0.803711,0.692871
284870919229,-0.0375977,-0.706543,0.709961
284870942404,-0.231934,-0.694336,0.774902
284870956732,-0.275879,-0.646484,0.791992
284870979228,-0.321289,-0.640625,0.80127
284871002356,-0.473145,-0.708008,0.825195
284871016737,-0.512207,-0.74707,0.810059
284871039208,-0.383301,-0.786621,0.772461
284871062398,-0.258789,-0.748535,0.70166
284871076729,-0.22998,-0.717285,0.669922
284871099270,-0.185547,-0.731934,0.634277
284871122325,-0.050293,-0.666504,0.586426
284871136739,0.0683594,-0.579102,0.558594
284871159205,0.163086,-0.594727,0.571777
284871182385,0.306152,-0.71875,0.609375
284871196641,0.418945,-0.750488,0.632324
284871220656,0.399414,-0.644043,0.594238
284871242399,0.342773,-0.520996,0.602539
284871256742,0.301758,-0.524902,0.661133
284871279216,0.308594,-0.575195,0.757324
284871302309,0.334961,-0.561523,0.748535
284871316671,0.285645,-0.569336,0.74707
284871348018,0.171875,-0.595215,0.750977
284871362379,0.0961914,-0.604492,0.769043
284871376724,0.0512695,-0.597656,0.789551
284871399238,0.00976562,-0.625488,0.79834
284871422434,-0.0180664,-0.63916,0.782715
284871436698,-0.0371094,-0.629883,0.78125
284871459192,-0.0581055,-0.621582,0.763672
284871482464,-0.0327148,-0.640625,0.803223
284871496690,0.000488281,-0.634277,0.812012
284871519214,0.0263672,-0.603027,0.825195
284871542372,0.0400391,-0.598145,0.855469
284871556709,-0.00292969,-0.588379,0.831055
284871579224,-0.0205078,-0.623535,0.833496
284871602372,-0.00195312,-0.580566,0.827148
284871624868,0.0253906,-0.564941,0.774902
284871639211,0.0268555,-0.680176,0.776855
284871662438,-0.00292969,-0.698242,0.789551
284871676686,-0.0361328,-0.713379,0.775391
284871699299,-0.0356445,-0.669434,0.766113
284871722394,0.0200195,-0.649902,0.777344
284871736746,0.0288086,-0.602051,0.801758
284871759150,0.00830078,-0.575684,0.812012
284871782439,0.0351562,-0.54834,0.8125
284871796660,0.0214844,-0.620117,0.777832
284871819164,0.0161133,-0.645996,0.772461
284871842466,-0.00878906,-0.628418,0.761719
284871856718,-0.0078125,-0.632324,0.79834
284871879270,0.0214844,-0.618652,0.801758
284871902368,0.019043,-0.60498,0.803223
284871916751,0.00390625,-0.624512,0.807129
284871939215,-0.00341797,-0.640137,0.810059
284871962405,-0.0107422,-0.634766,0.812988
284871976736,-0.00488281,-0.624023,0.808594
284871999244,0.00830078,-0.619141,0.800781
284872021742,0.00341797,-0.59668,0.782715
284872036708,0.00732422,-0.563477,0.757812
284872059207,0.019043,-0.589355,0.790039
284872081752,0.0380859,-0.638184,0.805664
284872096737,-0.00830078,-0.654785,0.796875
284872119888,-0.0283203,-0.643555,0.803711
284872141765,-0.0161133,-0.630859,0.784668
284872156783,-0.019043,-0.605469,0.773438
284872180662,0.0234375,-0.615234,0.802734
284872201688,0.00390625,-0.568359,0.776855
284872216655,0.00439453,-0.585449,0.787598
284872239187,0.00976562,-0.631348,0.807617
284872261799,0.00292969,-0.622559,0.813477
284872293042,-0.0405273,-0.624512,0.79834
284872299183,-0.0112305,-0.609375,0.804688
284872321705,0.00341797,-0.598633,0.771484
284872336755,0.0175781,-0.606445,0.781738
284872359260,0.0307617,-0.613281,0.798828
284872381743,-0.0131836,-0.618652,0.821777
284872398100,-0.0400391,-0.624023,0.810547
284872419167,-0.0375977,-0.643066,0.769043
284872449755,-0.0336914,-0.633789,0.779297
284872459660,-0.0229492,-0.621582,0.799316
284872479325,-0.0356445,-0.623535,0.819824
284872501687,-0.0146484,-0.604004,0.833984
284872516710,0.00537109,-0.608887,0.805664
284872539205,0.0351562,-0.658203,0.838867
284872561707,0.0146484,-0.666992,0.840332
284872576631,-0.0498047,-0.625977,0.773438
284872607335,-0.0390625,-0.631348,0.70752
284872621630,0.0273438,-0.614746,0.714355
284872636631,0.0288086,-0.542969,0.750977
284872659197,0.0263672,-0.561523,0.778809
284872681712,0.0302734,-0.591309,0.80127
284872696707,0.0429688,-0.612305,0.829102
284872719207,0.012207,-0.650879,0.833008
284872741723,-0.0327148,-0.635254,0.825684
284872756636,-0.0415039,-0.603516,0.795898
284872779198,-0.0327148,-0.648438,0.790039
284872801654,-0.012207,-0.683594,0.792969
284872818089,-0.0141602,-0.649414,0.80957
284872847363,-0.00244141,-0.61084,0.799805
284872861744,-0.0234375,-0.617676,0.774902
284872876790,0.00195312,-0.629883,0.766602
284872899241,0.00488281,-0.60498,0.789062
284872921819,-0.0185547,-0.597656,0.790527
284872938150,-0.00146484,-0.609863,0.799316
284872960700,-0.0273438,-0.626465,0.79541
284872981742,-0.0361328,-0.632812,0.796387
284872998087,-0.0117188,-0.626465,0.794434
284873019273,-0.00976562,-0.614258,0.811523
284873041786,-0.00976562,-0.598145,0.799805
284873058249,-0.0151367,-0.620117,0.782227
284873079193,0.0175781,-0.629883,0.823242
284873101651,-0.0224609,-0.603027,0.833008
284873125642,-0.0605469,-0.639648,0.810059
284873139290,-0.0390625,-0.630371,0.80127
284873161660,-0.0136719,-0.603027,0.795898
284873178158,-0.000976562,-0.61084,0.779785
284873199188,0.0214844,-0.625488,0.791504
284873221777,-0.0117188,-0.615234,0.784668
284873238148,-0.0424805,-0.607422,0.773438
284873259317,0.0107422,-0.609863,0.796875
284873281836,0.00830078,-0.625,0.78418
284873298185,-0.0117188,-0.612305,0.783691
284873319230,-0.0371094,-0.606445,0.780762
284873343181,-0.0126953,-0.605469,0.791016
284873358205,-0.00146484,-0.600586,0.814941
284873379217,-0.0410156,-0.615723,0.806641
284873401772,-0.027832,-0.593262,0.833984
284873418191,-0.0668945,-0.631348,0.793945
284873440674,0.00439453,-0.616211,0.820312
284873461975,-0.0131836,-0.591309,0.820801
284873478181,-0.0244141,-0.564941,0.777832
284873499264,-0.0195312,-0.524902,0.759766
284873521764,0.0322266,-0.583496,0.806641
284873538172,0.00830078,-0.67041,0.819336
284873559246,-0.0546875,-0.648438,0.793945
284873581754,-0.0551758,-0.644043,0.796875
284873598215,-0.0292969,-0.592773,0.783203
284873619290,-0.000976562,-0.61084,0.819336
284873641771,-0.00537109,-0.572266,0.79248
