myoTS,myox,myoy,myoz
1448408085,myox,myoy,myoz
83599175388,0.687988,0.306641,1.01709
83599190414,0.726074,0.311523,1.04736
83599205457,0.786621,0.300293,1.19189
83599229092,0.512695,0.200195,1.23242
83599250402,0.219727,0.228516,0.880859
83599265472,0.244629,0.166992,0.919434
83599304803,0.220703,0.179688,0.9375
83599306843,0.226074,0.197266,0.933594
83599326859,0.23291,0.208008,0.937988
83599357253,0.236328,0.21582,0.946289
83599364389,0.225586,0.20166,0.943848
83599389401,0.223145,0.21582,0.947754
83599430936,0.230469,0.223633,0.946777
83599431708,0.239746,0.209961,0.944824
83599445238,0.236328,0.208984,0.959473
83599468384,0.228027,0.213867,0.947266
83599484168,0.231445,0.208496,0.944336
83599505276,0.231445,0.208008,0.942383
83599528392,0.233398,0.206543,0.941895
83599544172,0.225586,0.216309,0.945312
83599565245,0.216797,0.226562,0.935059
83599588432,0.21582,0.216309,0.936523
83599604199,0.226074,0.216309,0.918945
83599625257,0.221191,0.20459,0.92041
83599648379,0.211426,0.218262,0.924316
83599664137,0.22168,0.23291,0.943359
83599693429,0.234375,0.229004,0.945312
83599708383,0.234375,0.214355,0.951172
83599724202,0.232422,0.228516,0.950195
83599770503,0.222168,0.23291,0.942871
83599771338,0.216309,0.231934,0.943848
83599802793,0.213867,0.226562,0.935547
83599814805,0.21875,0.247559,0.90625
83599829151,0.131348,0.207031,0.900391
83599852387,0.0913086,0.254883,0.754883
83599874810,0.253418,0.256836,1.14844
83599895892,0.57373,0.353027,0.983398
83599912322,0.216309,0.275391,0.737793
83599940897,-0.0922852,0.219727,0.673828
83599955928,-0.207031,0.218262,0.651367
83599964137,-0.156738,0.251953,0.647461
83599987126,0.123047,0.322266,0.693848
83600008383,0.632324,0.378906,0.967773
83600024155,0.265625,0.25,0.993164
83600046675,0.214355,0.26123,0.944336
83600068435,0.208496,0.255859,0.928711
83600084185,0.209961,0.260254,0.929199
83600106703,0.209961,0.249512,0.922363
83600128408,0.206543,0.244629,0.921875
83600166687,0.19873,0.252441,0.924805
83600173416,0.200195,0.274902,0.925781
83600197328,0.195801,0.282227,0.936035
83600219811,0.259766,0.275879,0.959961
83600234810,0.166504,0.335449,0.838867
83600255917,0.396484,0.316406,1.05713
83600272386,-0.0185547,0.25,0.761719
83600294809,-0.0336914,0.208496,1.05615
83600315889,0.427246,0.28418,1.20508
83600332363,0.654297,0.330566,1.17529
83600354839,0.706055,0.364746,1.14014
83600377372,0.71875,0.379883,1.18115
83600393105,0.589844,0.31543,1.23877
83600406670,0.0366211,0.178711,1.06689
83600429181,-0.324219,0.179199,0.778809
83600458452,0.130859,0.29541,0.88623
83600466709,0.175781,0.273438,0.920898
83600497343,0.206055,0.283203,0.927734
83600512339,0.203125,0.280762,0.928223
83600526672,0.206055,0.273438,0.928223
83600549168,0.200684,0.286621,0.935059
83600572356,0.196289,0.276855,0.932617
83600586680,0.201172,0.27002,0.928223
83600609180,0.199219,0.260254,0.933105
83600632343,0.191895,0.279785,0.937988
83600646662,0.190918,0.280762,0.939453
83600669183,0.188965,0.269531,0.939453
83600692375,0.194824,0.271484,0.937012
83600706695,0.197754,0.271973,0.929688
83600729183,0.199219,0.278809,0.929688
83600752334,0.196777,0.277832,0.932129
83600766672,0.203613,0.273926,0.932617
83600789169,0.198242,0.282227,0.940918
83600812315,0.202637,0.288574,0.928223
83600826702,0.200195,0.283691,0.927734
83600849211,0.203613,0.272461,0.928711
83600872375,0.202148,0.278809,0.919922
83600886680,0.210938,0.271973,0.929688
83600909188,0.193359,0.273438,0.945312
83600932345,0.196289,0.26123,0.945312
83600946679,0.192871,0.255859,0.946289
83600969241,0.195801,0.270508,0.933105
83600992365,0.204102,0.285645,0.931641
83601013427,0.204102,0.290039,0.931641
83601029178,0.20166,0.266602,0.932617
83601052824,0.207031,0.259766,0.919434
83601073430,0.208008,0.275879,0.917969
83601089248,0.206543,0.280273,0.928223
83601112355,0.205078,0.278809,0.930176
83601133429,0.203613,0.270996,0.938477
83601149187,0.197266,0.272461,0.9375
83601172337,0.196777,0.280762,0.934082
83601193392,0.195801,0.278809,0.943359
83601209203,0.194336,0.277832,0.9375
83601232367,0.19873,0.27832,0.939453
83601253418,0.200195,0.281738,0.94043
83601269180,0.199707,0.28418,0.928711
83601291696,0.197754,0.280762,0.942383
83601313443,0.201172,0.269043,0.935059
83601329179,0.20166,0.273926,0.936035
83601359885,0.200195,0.279785,0.934082
83601373397,0.202637,0.277344,0.935547
83601389161,0.20166,0.275391,0.92627
83601411708,0.204102,0.270996,0.921875
83601434863,0.205078,0.262207,0.92334
83601449206,0.19873,0.277832,0.939941
83601462842,0.195312,0.286133,0.949219
83601485290,0.195801,0.291992,0.945801
83601508437,0.194824,0.273438,0.936035
83601522824,0.204102,0.253906,0.932129
83601545249,0.205566,0.272949,0.916016
83601568448,0.204102,0.290527,0.925781
83601582725,0.20166,0.28125,0.942383
83601605279,0.200195,0.270996,0.941406
83601636623,0.196289,0.268555,0.93457
83601642840,0.198242,0.279297,0.926758
83601665225,0.202637,0.29248,0.936523
83601688461,0.203613,0.272949,0.933105
83601702742,0.203125,0.264648,0.938965
83601725266,0.208008,0.271973,0.934082
83601748407,0.202637,0.282715,0.93457
83601762830,0.203613,0.277832,0.931152
83601785274,0.199219,0.271484,0.933105
83601808450,0.199219,0.271973,0.936035
83601822812,0.203613,0.27832,0.9375
83601845292,0.204102,0.283691,0.932129
83601868468,0.20459,0.265625,0.928711
83601882834,0.203613,0.26416,0.932617
83601914087,0.19873,0.279785,0.937988
83601928428,0.197754,0.287598,0.933105
83601942827,0.203613,0.275879,0.94043
83601965311,0.204102,0.256348,0.938477
83601988450,0.205566,0.260254,0.936523
83602002811,0.204102,0.277832,0.936523
83602025297,0.207031,0.286133,0.937012
83602048450,0.201172,0.263184,0.946777
83602062807,0.197754,0.258301,0.947266
83602085254,0.201172,0.274902,0.940918
83602108427,0.20166,0.279297,0.929688
83602122839,0.202148,0.274414,0.923828
83602145264,0.205078,0.251953,0.92041
83602168430,0.208496,0.283691,0.919922
83602182819,0.208496,0.291992,0.90625
83602205298,0.210938,0.271484,0.920898
83602228473,0.216309,0.26416,0.939941
83602242748,0.211426,0.282715,0.947266
83602265295,0.198242,0.272461,0.948242
83602288471,0.200195,0.263672,0.943848
83602302764,0.202637,0.277344,0.936035
83602325295,0.19873,0.288574,0.929688
83602347841,0.199219,0.28125,0.932129
83602362826,0.202637,0.28125,0.929688
83602385294,0.205078,0.26709,0.929688
83602407778,0.200684,0.259766,0.923828
83602439852,0.203125,0.274414,0.925293
83602454877,0.20752,0.270996,0.928223
83602476003,0.217285,0.276855,0.921387
83602492404,0.174316,0.242676,0.983887
83602507400,0.034668,0.218262,0.895996
83602527873,0.48291,0.350098,1.0166
83602545733,0.0820312,0.267578,0.707031
83602567374,-0.224609,0.187012,0.794922
83602587757,-0.175781,0.166504,0.9375
83602605715,-0.102539,0.168945,0.991211
83602625261,-0.164551,0.15332,0.937012
83602647824,-0.331543,0.14502,0.773926
83602662827,0.217773,0.240234,0.996582
83602685325,0.198242,0.286133,0.932617
83602707850,0.196289,0.272949,0.943848
83602722819,0.199707,0.271484,0.946777
83602745264,0.204102,0.265137,0.947754
83602767819,0.200195,0.269043,0.930176
83602782839,0.205566,0.274902,0.936523
83602814925,0.202637,0.273438,0.932129
83602837359,0.20166,0.269531,0.936035
83602859912,0.202637,0.273438,0.93457
83602867414,0.205078,0.277832,0.92627
83602887819,0.199219,0.265137,0.941895
83602905817,0.195312,0.248047,0.940918
83602925266,0.206055,0.270996,0.936523
83602947829,0.209961,0.3125,0.940918
83602962908,0.20166,0.311035,0.971191
83602985294,0.204102,0.274414,0.960449
83603007830,0.205078,0.259277,0.94873
83603022841,0.214844,0.259766,0.918457
83603062412,0.22998,0.27002,0.906738
83603077422,0.231934,0.275879,0.92334
83603092217,0.262207,0.298828,0.929688
83603114898,0.109863,0.299805,0.879883
83603129902,0.0620117,0.272949,0.794434
83603145692,0.441406,0.301758,1.07666
83603168213,0.232422,0.330078,0.739258
83603187834,-0.156738,0.267578,0.741211
83603204250,-0.200195,0.230957,0.893066
83603225324,-0.164551,0.203613,0.93457
83603247845,0.248535,0.283691,0.920898
83603264218,0.211914,0.293945,0.878418
83603285319,0.228027,0.334473,0.884277
83603307840,0.220703,0.365723,0.893555
83603324259,0.22168,0.359375,0.918457
83603345312,0.223145,0.325195,0.919434
83603367825,0.214844,0.322754,0.90625
83603384269,0.219238,0.362305,0.918945
83603408202,0.20752,0.37793,0.932617
83603427835,0.193359,0.363281,0.92627
83603444285,0.197266,0.338867,0.918945
83603465288,0.205078,0.347168,0.918945
83603487838,0.220215,0.328125,0.913574
83603504286,0.203125,0.334961,0.915527
83603525334,0.214355,0.314941,0.900879
83603547861,0.216309,0.321289,0.911621
83603571826,0.208984,0.334473,0.911133
83603585280,0.208496,0.322754,0.92627
83603607816,0.208496,0.32373,0.914062
83603624261,0.19043,0.341309,0.925293
83603645301,0.184082,0.353027,0.931641
83603667829,0.189941,0.332031,0.934082
83603684267,0.177734,0.320801,0.941895
83603713455,0.172852,0.34082,0.939453
83603727816,0.160156,0.361816,0.93457
83603744235,0.157715,0.353516,0.918945
83603765294,0.154297,0.335449,0.924316
83603787830,0.150391,0.338379,0.92041
83603804269,0.169434,0.336426,0.916992
83603825325,0.154297,0.314453,0.920898
83603847832,0.141113,0.29541,0.922852
83603864288,0.130859,0.314941,0.917969
83603885315,0.142578,0.342773,0.922363
83603907834,0.149414,0.327637,0.919434
83603924261,0.133789,0.314453,0.933594
83603945318,0.122559,0.32959,0.935059
83603967829,0.130371,0.340332,0.926758
83603984229,0.130859,0.347168,0.929688
83604005339,0.122559,0.337891,0.932129
83604027839,0.117676,0.336914,0.936035
83604044259,0.120605,0.32373,0.937988
83604065284,0.124023,0.318359,0.936035
83604087821,0.109863,0.325684,0.950195
83604104273,0.0942383,0.334473,0.945801
83604126783,0.0830078,0.325195,0.952148
83604149228,0.0844727,0.31543,0.955566
83604171799,0.0917969,0.310547,0.935059
83604186788,0.101074,0.320801,0.944336
83604207823,0.0961914,0.292969,0.94043
83604224253,0.100098,0.279297,0.935547
83604246784,0.100098,0.264648,0.9375
83604267820,0.0795898,0.26709,0.95166
83604284259,0.0683594,0.271973,0.939941
83604306790,0.0825195,0.265137,0.931641
83604327829,0.0981445,0.248535,0.922363
83604344258,0.0878906,0.253906,0.929688
83604366789,0.0737305,0.278809,0.9375
83604387824,0.0629883,0.284668,0.934082
83604411820,0.0444336,0.282715,0.95166
83604426801,0.0268555,0.272949,0.955566
83604447847,0.0332031,0.286133,0.939941
83604464277,0.0302734,0.293945,0.943359
83604486779,0.0361328,0.289062,0.944336
83604507843,0.0449219,0.266113,0.949707
83604524229,0.0537109,0.250977,0.953125
83604546787,0.0683594,0.265137,0.946289
83604567833,0.0874023,0.29834,0.958496
83604584230,0.0844727,0.300293,0.956543
83604606797,0.0668945,0.273926,0.94873
83604627867,0.0649414,0.252441,0.947266
83604644280,0.0981445,0.251953,0.958984
83604666804,0.097168,0.248535,0.970703
83604687846,0.0698242,0.259277,0.959961
83604704286,0.0581055,0.26416,0.941406
83604726778,0.0478516,0.255859,0.931641
83604755972,0.0351562,0.273926,0.945312
83604764254,0.0200195,0.279785,0.95752
83604786794,0.00488281,0.252441,0.963379
83604807851,-0.0161133,0.243652,0.957031
83604824280,-0.03125,0.276367,0.96582
83604846801,-0.0322266,0.283691,0.939453
83604867826,-0.034668,0.27002,0.938965
83604884260,-0.0595703,0.283203,0.985352
83604906819,-0.0400391,0.283203,0.944824
83604927864,-0.0322266,0.306641,0.905273
83604950311,-0.0454102,0.330078,0.899902
83604966794,-0.0517578,0.313477,0.920898
83604987866,-0.0537109,0.31543,0.958008
83605004273,-0.0400391,0.313965,0.949707
83605026780,-0.0361328,0.317871,0.94873
83605047878,-0.0175781,0.307617,0.949219
83605063469,-0.0200195,0.341797,0.977539
83605086004,-0.019043,0.320801,0.962402
83605108550,0.00537109,0.319336,0.933594
83605123522,0.0253906,0.324707,0.952148
83605146018,0.0141602,0.321777,0.966309
83605168530,0.0200195,0.289551,0.970215
83605183534,0.0400391,0.285645,0.946289
83605206020,0.0483398,0.314453,0.944824
83605228513,0.0288086,0.327148,0.955566
83605251014,0.0131836,0.324219,0.960449
83605266020,0.0180664,0.294922,0.953613
83605288499,0.0444336,0.302734,0.947266
83605304936,0.0322266,0.333984,0.94873
83605325989,0.0371094,0.317383,0.936523
83605348473,0.0429688,0.297852,0.935547
83605364954,0.0483398,0.314941,0.941895
83605386053,0.0478516,0.34082,0.935059
83605408494,0.0493164,0.350098,0.920898
83605424936,0.0541992,0.317383,0.906738
83605446011,0.0615234,0.312012,0.919922
83605468467,0.0712891,0.339355,0.932129
83605491056,0.0625,0.36377,0.943359
83605506022,0.0566406,0.358887,0.936035
83605528472,0.0698242,0.333008,0.929688
83605544976,0.0800781,0.339355,0.945312
83605566019,0.0771484,0.345703,0.933105
83605588516,0.0966797,0.353516,0.942871
83605604937,0.125488,0.325195,0.945312
83605626022,0.122559,0.345703,0.943359
83605648491,0.129883,0.336426,0.938965
83605664952,0.12793,0.330566,0.938965
83605686014,0.119141,0.363281,0.949707
83605716028,0.104004,0.378418,0.941406
83605724931,0.106934,0.366211,0.927734
83605746009,0.122559,0.355469,0.913574
83605768506,0.115723,0.371094,0.913086
83605784928,0.12207,0.373535,0.904785
83605806041,0.111816,0.37207,0.908691
83605828523,0.112793,0.376953,0.916016
83605844955,0.106934,0.390137,0.916016
83605866042,0.101074,0.397461,0.913574
83605888512,0.0957031,0.387695,0.916992
83605904937,0.105957,0.381836,0.916016
83605926065,0.113281,0.395996,0.916016
83605948512,0.114258,0.403809,0.919922
83605964957,0.110352,0.399902,0.92041
83605986029,0.109863,0.387695,0.911133
83606008486,0.117188,0.381836,0.900879
83606024286,0.130859,0.411133,0.890625
83606046104,0.116699,0.441406,0.88623
83606076088,0.11377,0.424316,0.893066
83606084258,0.109375,0.394531,0.897461
83606106015,0.119141,0.388184,0.887207
83606128494,0.126953,0.410645,0.899414
83606144327,0.126465,0.421387,0.890625
83606165977,0.141113,0.401855,0.881348
83606189954,0.14502,0.394043,0.87207
83606204304,0.152344,0.386719,0.873047
83606227463,0.151855,0.401367,0.883301
83606248494,0.147949,0.427246,0.888672
83606264259,0.154297,0.421387,0.88916
83606287430,0.163086,0.40625,0.875488
83606308544,0.166504,0.423828,0.863281
83606324337,0.146973,0.468262,0.877441
83606347479,0.13916,0.455078,0.880859
83606369227,0.14209,0.43457,0.880371
83606384310,0.166504,0.428711,0.867676
83606407469,0.174316,0.415039,0.84668
83606444934,0.167969,0.447754,0.859863
83606447333,0.137695,0.460938,0.884277
83606467440,0.134277,0.470703,0.901367
83606488510,0.138672,0.458008,0.899414
83606504352,0.153809,0.45166,0.885742
83606527486,0.143066,0.476074,0.881348
83606548508,0.132812,0.479004,0.882324
83606564313,0.139648,0.466309,0.866211
83606587461,0.160645,0.459961,0.861328
83606608525,0.164551,0.471191,0.854004
83606632477,0.145508,0.484863,0.862305
83606647458,0.135742,0.489258,0.864746
83606668543,0.134277,0.492676,0.854004
83606684289,0.146973,0.463379,0.841309
83606707904,0.158203,0.474121,0.833008
83606728589,0.155273,0.509277,0.848633
83606744343,0.149414,0.506836,0.855469
83606767508,0.134277,0.49707,0.870117
83606788531,0.142578,0.462891,0.847168
83606804295,0.141113,0.475586,0.827148
83606827464,0.150879,0.488281,0.834473
83606848564,0.132324,0.510742,0.836426
83606864357,0.117188,0.494629,0.853516
83606887492,0.123535,0.48291,0.85498
83606908548,0.126953,0.508789,0.828613
83606924331,0.137207,0.523926,0.791504
83606946816,0.149414,0.499023,0.777832
83606968514,0.166016,0.510254,0.771484
83606984303,0.200195,0.503418,0.791016
83607006786,0.223633,0.476562,0.772949
83607028515,0.234863,0.476074,0.787109
83607044287,0.267578,0.46582,0.773926
83607066831,0.296875,0.46875,0.787598
83607088544,0.299805,0.476562,0.803711
83607104288,0.299316,0.463379,0.813477
83607126835,0.301758,0.467773,0.833984
83607149991,0.311035,0.518555,0.837402
83607164346,0.302246,0.531738,0.848145
83607186803,0.280762,0.522949,0.860352
83607209990,0.272949,0.530273,0.855957
83607224293,0.259766,0.543945,0.839844
83607246782,0.259766,0.548828,0.816895
83607269987,0.26123,0.543945,0.805176
83607284328,0.24707,0.548828,0.809082
83607306806,0.265137,0.596191,0.76123
83607329965,0.235352,0.586914,0.729492
83607344313,0.26709,0.587891,0.711914
83607366789,0.285156,0.572754,0.733398
83607390011,0.271973,0.521484,0.712402
83607411103,0.293457,0.555664,0.763184
83607426838,0.286621,0.60791,0.736328
83607449984,0.311523,0.583008,0.743164
83607471039,0.297852,0.580078,0.728516
83607486871,0.306641,0.588379,0.724121
83607509952,0.328613,0.592285,0.732422
83607531088,0.351562,0.623047,0.745117
83607546839,0.328125,0.625977,0.73877
83607569999,0.32373,0.570801,0.739746
83607591042,0.311035,0.577637,0.744629
83607606821,0.324707,0.651367,0.714355
83607629982,0.373535,0.671387,0.733398
83607651093,0.36084,0.536621,0.726074
83607666851,0.365723,0.46875,0.763184
83607689987,0.378418,0.477051,0.729004
83607711059,0.426758,0.509277,0.708496
83607726805,0.448242,0.56543,0.706543
83607749997,0.475098,0.566406,0.709961
83607778593,0.448242,0.536133,0.734863
83607786851,0.41748,0.527832,0.75
83607809337,0.415039,0.533203,0.724609
83607831090,0.444336,0.586426,0.703125
83607846832,0.472656,0.625,0.685547
83607869981,0.475098,0.593262,0.687012
83607891054,0.446777,0.546387,0.701172
83607906816,0.434082,0.51709,0.701172
83607929312,0.438477,0.52832,0.691895
83607951046,0.455078,0.552246,0.674316
83607966820,0.455078,0.566406,0.668457
83607989329,0.446777,0.554688,0.6875
83608018605,0.429199,0.542969,0.695312
83608026802,0.441895,0.54834,0.693359
83608049371,0.453613,0.554688,0.683594
83608071023,0.466309,0.543945,0.678223
83608086866,0.455566,0.536133,0.685547
83608109329,0.440918,0.534668,0.69043
83608132879,0.443359,0.533203,0.694336
83608146871,0.454102,0.548828,0.685547
83608169346,0.459961,0.552246,0.681152
83608192478,0.45752,0.545898,0.677734
83608206872,0.444336,0.537109,0.691406
83608236027,0.438477,0.537598,0.704102
83608252467,0.439941,0.542969,0.689453
83608267335,0.452148,0.548828,0.689941
83608289371,0.453125,0.545898,0.688477
83608312510,0.455566,0.550293,0.682129
83608326833,0.460938,0.543457,0.683105
83608349330,0.455566,0.543457,0.682129
83608372535,0.44873,0.54248,0.67334
83608387303,0.45459,0.540527,0.671875
83608409386,0.461426,0.544922,0.676758
83608432508,0.459961,0.543945,0.668945
83608446831,0.45752,0.538086,0.674316
83608469329,0.461914,0.539062,0.681641
83608492478,0.455566,0.53418,0.679688
83608506818,0.458008,0.539551,0.684082
83608529354,0.45166,0.537109,0.697754
83608552506,0.455566,0.539551,0.693848
83608573588,0.448242,0.546387,0.695312
83608596164,0.449219,0.55127,0.683594
83608612496,0.456543,0.549316,0.688965
83608625422,0.45459,0.553223,0.679688
83608648554,0.455566,0.548828,0.682129
83608662898,0.449707,0.546387,0.684082
83608685448,0.45459,0.54541,0.681152
83608708596,0.453613,0.549316,0.6875
83608722889,0.456055,0.549805,0.690918
83608745450,0.453613,0.548828,0.676758
83608768586,0.458984,0.543457,0.686523
83608782941,0.461426,0.532227,0.68457
83608805415,0.452637,0.535156,0.675293
83608828604,0.451172,0.546875,0.681152
83608842955,0.452637,0.547363,0.678223
83608865417,0.452148,0.545898,0.689941
83608888615,0.45166,0.541992,0.688477
83608902878,0.457031,0.553711,0.699707
83608925395,0.464844,0.560059,0.698242
83608948572,0.463867,0.55127,0.710938
83608962893,0.460449,0.538086,0.709961
83608985405,0.473145,0.539551,0.702637
83609009272,0.479492,0.549805,0.709961
83609022944,0.488281,0.550293,0.723145
83609046835,0.511719,0.528809,0.730957
83609068593,0.503906,0.538086,0.735352
83609082934,0.53125,0.529785,0.717773
83609105434,0.575195,0.514648,0.710938
83609128578,0.629395,0.559082,0.707031
83609142948,0.570312,0.592773,0.717773
83609165432,0.513184,0.558594,0.723633
83609188620,0.491699,0.492676,0.731445
83609202930,0.521973,0.515625,0.74707
83609225468,0.580566,0.590332,0.713379
83609248589,0.586426,0.585449,0.758301
83609262938,0.489746,0.510742,0.808594
83609285382,0.461914,0.504883,0.868164
83609308577,0.449707,0.561523,0.918457
83609322922,0.351562,0.602051,0.941406
83609345448,0.292969,0.586914,0.945312
83609368591,0.259766,0.607422,0.962891
83609382926,0.219238,0.612793,0.986328
83609405431,0.178223,0.609863,1.02148
83609428600,0.138184,0.556152,1.04053
83609442965,0.081543,0.53125,1.03857
83609465478,0.0825195,0.495605,1.03662
83609488587,0.078125,0.475586,1.03662
83609502935,0.0625,0.447754,1.02295
83609525448,0.00390625,0.435547,1.00635
83609548619,-0.0541992,0.413086,0.971191
83609562977,-0.0693359,0.38623,0.95166
83609585466,-0.0908203,0.391113,0.962891
83609608613,-0.123535,0.362305,0.922363
83609622933,-0.182129,0.331543,0.854004
83609654233,-0.238281,0.259766,0.846191
83609668623,-0.280273,0.199219,0.87793
83609684412,-0.346191,0.179199,0.870117
83609705402,-0.393066,0.155762,0.841309
83609728614,-0.405273,0.11377,0.788086
83609742918,-0.431641,0.0786133,0.774902
83609765461,-0.494629,0.0722656,0.756348
83609788574,-0.5625,0.0625,0.748047
83609802905,-0.588379,0.0327148,0.731934
83609825443,-0.608887,0.00683594,0.684082
83609848389,-0.625,-0.0297852,0.661621
83609862940,-0.684082,-0.0546875,0.644043
83609885481,-0.728516,-0.0805664,0.625488
83609908417,-0.745117,-0.0771484,0.600586
83609922928,-0.746094,-0.0625,0.573242
83609945445,-0.777832,-0.0380859,0.532715
83609968635,-0.773438,-0.0537109,0.498047
83609982948,-0.748535,-0.0839844,0.44043
83610005421,-0.741699,-0.0839844,0.42334
83610029406,-0.766602,-0.105957,0.379395
83610042971,-0.808105,-0.165039,0.397949
83610065413,-0.835449,-0.134277,0.351074
83610087951,-0.815918,-0.132812,0.299805
83610102979,-0.833496,-0.146973,0.301758
83610125455,-0.872559,-0.168945,0.296387
83610147976,-0.869629,-0.165527,0.28125
83610162966,-0.869141,-0.185059,0.262695
83610185422,-0.925781,-0.222168,0.292969
83610207937,-0.984375,-0.193359,0.254883
83610222941,-0.935547,-0.158691,0.223633
83610245501,-0.855469,-0.182129,0.199219
83610267975,-0.868652,-0.199219,0.222168
83610282952,-0.90918,-0.17334,0.200684
83610315058,-0.859863,-0.151855,0.149414
83610336829,-0.829102,-0.175781,0.158691
83610342966,-0.897461,-0.167969,0.189453
83610365479,-0.92627,-0.17041,0.171875
83610387997,-0.930176,-0.176758,0.194824
83610411115,-0.970215,-0.185547,0.211426
83610425489,-1.00488,-0.171387,0.215332
83610447897,-0.991699,-0.151855,0.198242
83610462941,-0.978027,-0.145996,0.192871
83610486852,-1.00049,-0.147461,0.222168
83610507953,-1.0332,-0.138672,0.234863
83610522946,-1.0083,-0.152344,0.23291
83610553612,-0.972656,-0.144043,0.230957
83610567982,-0.982422,-0.130859,0.237305
83610584411,-1.00635,-0.142578,0.247559
83610605488,-1,-0.132812,0.255859
83610636822,-0.975098,-0.123535,0.242188
83610642973,-0.961426,-0.134766,0.243164
83610665420,-0.992676,-0.113281,0.25
83610687937,-1.01318,-0.108398,0.256836
83610702971,-0.996582,-0.123047,0.258789
83610725472,-0.993652,-0.121094,0.264648
83610747966,-0.998047,-0.126465,0.26709
83610765876,-0.989746,-0.135742,0.270996
83610785509,-0.983398,-0.137207,0.272949
83610807948,-0.987793,-0.135742,0.279297
83610824386,-0.982422,-0.126465,0.270996
83610845464,-0.967773,-0.132812,0.262695
83610867975,-0.96582,-0.132324,0.26416
83610884415,-0.956543,-0.137207,0.270996
83610905490,-0.960449,-0.133789,0.275391
83610927993,-0.969238,-0.148438,0.279785
83610944354,-0.972168,-0.149414,0.246094
83610965442,-0.962891,-0.143066,0.251465
83610987980,-0.950195,-0.131348,0.246094
83611004389,-0.962402,-0.132812,0.244629
83611025474,-0.974609,-0.153809,0.26123
83611047937,-0.984375,-0.148926,0.264648
83611071882,-0.974121,-0.148926,0.262695
83611085435,-0.981934,-0.139648,0.271484
83611108003,-0.980469,-0.143555,0.276367
83611124415,-0.974121,-0.154297,0.273926
83611145464,-0.959961,-0.150391,0.273926
83611167961,-0.962891,-0.142578,0.273926
83611184405,-0.962891,-0.147461,0.282715
83611205484,-0.949219,-0.151855,0.271484
83611227974,-0.92041,-0.14502,0.270996
83611244363,-0.912598,-0.145508,0.278809
83611265672,-0.894043,-0.147461,0.272461
83611287992,-0.86377,-0.147461,0.259766
83611304388,-0.82666,-0.148926,0.255371
83611325454,-0.802734,-0.151367,0.250977
83611347957,-0.79541,-0.169434,0.26416
83611364417,-0.791992,-0.177246,0.259277
83611385439,-0.77832,-0.148926,0.269043
83611407976,-0.73291,-0.11377,0.26709
83611424414,-0.716797,-0.124023,0.263672
83611445468,-0.749512,-0.132324,0.307129
83611467990,-0.729492,-0.138184,0.328613
83611484439,-0.677246,-0.0957031,0.358887
83611505509,-0.711914,-0.0546875,0.432129
83611527991,-0.838379,-0.0556641,0.489258
83611550472,-0.837402,-0.0600586,0.554688
83611565448,-0.745605,-0.0332031,0.567871
83611588011,-0.698242,-0.0170898,0.619141
83611604430,-0.716309,-0.000488281,0.719238
83611625468,-0.744629,0.0600586,0.702148
83611647982,-0.645996,0.108398,0.644043
83611664430,-0.538574,0.14502,0.705566
83611685501,-0.482422,0.178711,0.796387
83611707988,-0.481934,0.242676,0.785156
83611724383,-0.44043,0.28418,0.753418
83611746942,-0.360352,0.245605,0.847168
83611767976,-0.383301,0.293457,0.934082
83611784398,-0.404785,0.394043,0.899414
83611806897,-0.338379,0.461914,0.897949
83611827991,-0.296387,0.49707,0.902344
83611844413,-0.245117,0.532227,0.899414
83611866920,-0.224121,0.502441,0.928711
83611887957,-0.21875,0.495605,1.00781
83611904401,-0.187012,0.480957,1.00732
83611926907,-0.146973,0.51416,0.954102
83611947943,-0.0878906,0.565918,0.937012
83611964423,-0.0439453,0.574219,0.946289
83611986898,-0.00537109,0.566406,0.985352
83612008005,0.0366211,0.588867,0.95752
83612024382,0.0766602,0.624512,0.94043
83612046932,0.11377,0.634277,0.869629
83612067996,0.148926,0.614258,0.926758
83612084451,0.180176,0.599121,0.921387
83612106951,0.235352,0.587402,0.925293
83612128001,0.274414,0.61377,0.913086
83612144436,0.313477,0.654785,0.873535
83612166931,0.326172,0.666016,0.85498
83612187999,0.32959,0.601074,0.82666
83612204439,0.373535,0.56543,0.801758
83612226144,0.398438,0.574219,0.762207
83612248633,0.423828,0.571289,0.73291
83612263664,0.450195,0.544434,0.751465
83612286142,0.513184,0.48291,0.73584
83612308667,0.540039,0.476074,0.730957
83612323661,0.515137,0.507324,0.72168
83612346135,0.573242,0.508301,0.702637
83612368613,0.654785,0.565918,0.772461
83612383716,0.645996,0.524902,0.790039
83612406161,0.592285,0.444336,0.800781
83612428632,0.501465,0.436523,0.789062
83612443645,0.473145,0.452637,0.740723
83612466122,0.472168,0.493652,0.672363
83612488650,0.469238,0.472656,0.679688
83612503631,0.466309,0.466309,0.702148
83612526125,0.45752,0.48584,0.698242
83612548705,0.460449,0.519531,0.713867
83612565107,0.456055,0.515625,0.72998
83612586144,0.446777,0.48877,0.742676
83612608651,0.445801,0.510254,0.741699
83612623681,0.443359,0.52832,0.736328
83612646147,0.449707,0.51709,0.73877
83612668638,0.455078,0.491699,0.741211
83612683633,0.456055,0.499023,0.728027
83612706142,0.453125,0.522461,0.709961
83612728648,0.46582,0.524902,0.713379
83612743646,0.472168,0.506836,0.706055
83612766148,0.468262,0.5,0.711426
83612781930,0.461426,0.512207,0.697754
83612803648,0.464355,0.508301,0.69873
83612826141,0.464844,0.506348,0.701172
83612841951,0.462891,0.507324,0.70166
83612865110,0.460938,0.524414,0.705566
83612886177,0.456543,0.52002,0.703125
83612901931,0.462402,0.510742,0.70166
83612925096,0.448242,0.510254,0.709961
83612946151,0.453613,0.52002,0.702148
83612961951,0.461914,0.538086,0.696289
83612985102,0.47168,0.528809,0.702637
83613006836,0.469727,0.509277,0.707031
83613021943,0.473145,0.507324,0.711426
83613045081,0.466309,0.518066,0.693359
83613066141,0.46875,0.510254,0.69873
83613088637,0.466797,0.49707,0.705566
83613105142,0.459961,0.493164,0.709473
83613126180,0.464844,0.512695,0.692871
83613141937,0.467285,0.523926,0.696777
83613172619,0.467285,0.513184,0.70459
83613186156,0.462402,0.513672,0.703125
83613201915,0.457031,0.511719,0.704102
83613225064,0.466309,0.509766,0.700684
83613246840,0.463379,0.504395,0.702148
83613261952,0.460449,0.513184,0.708496
83613292574,0.461426,0.519531,0.707031
83613306185,0.466797,0.516602,0.700195
83613321930,0.457031,0.497559,0.710449
83613345095,0.466797,0.519043,0.705078
83613366191,0.465332,0.519043,0.697266
83613381963,0.467285,0.501953,0.700684
83613405109,0.466797,0.506348,0.687012
83613426180,0.46582,0.516602,0.692383
83613441929,0.458008,0.51416,0.699707
83613465082,0.461426,0.519043,0.70166
83613486192,0.458984,0.521973,0.708496
83613501977,0.459961,0.514648,0.703125
83613525111,0.458008,0.508789,0.708496
83613546218,0.457031,0.503418,0.712891
83613570083,0.463867,0.505859,0.708984
83613584491,0.462891,0.510254,0.70166
83613605986,0.462891,0.513672,0.705566
83613621933,0.462891,0.518066,0.69873
83613644466,0.458496,0.524902,0.697754
83613666189,0.458008,0.527344,0.691406
83613681938,0.454102,0.523926,0.693848
83613704487,0.453613,0.508301,0.695801
83613726153,0.459473,0.509277,0.70459
83613741915,0.463867,0.519043,0.704102
83613764456,0.466797,0.521484,0.70166
83613787639,0.46582,0.520996,0.710449
83613801963,0.466309,0.509277,0.699707
83613824471,0.467773,0.519043,0.691895
83613847621,0.461426,0.509766,0.700195
83613861936,0.45459,0.516602,0.700684
83613884503,0.458496,0.515137,0.711426
83613907656,0.479492,0.53418,0.718262
83613921953,0.501953,0.539062,0.722656
83613944502,0.521484,0.541992,0.712891
83613967615,0.562988,0.497559,0.71875
83613981944,0.620605,0.521973,0.709961
83614004437,0.609863,0.506836,0.686523
83614027653,0.582031,0.47998,0.747559
83614048687,0.587891,0.410645,0.722656
83614064458,0.657715,0.480469,0.763184
83614087631,0.664551,0.553711,0.78125
83614108680,0.569824,0.565918,0.800781
83614124439,0.506836,0.589844,0.87207
83614147578,0.432617,0.57666,0.937012
83614168700,0.369141,0.613281,0.964844
83614184511,0.248047,0.728027,0.998047
83614207642,0.19043,0.741699,0.979004
83614228674,0.116211,0.735352,0.978516
83614244435,-0.0292969,0.703125,0.942383
83614267607,-0.130371,0.647461,0.956543
83614288747,-0.203125,0.621094,0.952637
83614304492,-0.259766,0.632812,0.958008
83614327631,-0.303223,0.635742,0.993652
83614348696,-0.34082,0.605957,0.995605
83614373066,-0.362793,0.587891,0.986328
83614387635,-0.367676,0.591797,0.936523
83614408701,-0.377441,0.544922,0.918457
83614424458,-0.396484,0.53125,0.908203
83614447606,-0.430176,0.534668,0.844727
83614468653,-0.458496,0.519043,0.775879
83614484913,-0.472168,0.477051,0.754883
83614507671,-0.495605,0.415039,0.725586
83614530124,-0.519043,0.372559,0.708496
83614544925,-0.524414,0.350586,0.668945
83614566981,-0.546387,0.318848,0.620117
83614588670,-0.599121,0.27832,0.583008
83614604514,-0.655762,0.221191,0.564941
83614626986,-0.665039,0.175293,0.532227
83614648690,-0.611816,0.146484,0.491211
83614664488,-0.598633,0.138184,0.460938
83614686984,-0.67041,0.137207,0.431152
83614708754,-0.707031,0.135742,0.366211
83614724484,-0.667969,0.114258,0.328613
83614746997,-0.656738,0.0878906,0.30957
83614770151,-0.689453,0.0449219,0.334473
83614784460,-0.725586,0.0214844,0.326172
83614806990,-0.736328,0.0151367,0.316406
83614830189,-0.751465,0.0107422,0.300781
83614844480,-0.805664,-0.0107422,0.295898
83614867003,-0.868652,-0.0219727,0.282715
83614890158,-0.875488,0.00732422,0.262207
83614904463,-0.85498,0.0117188,0.25293
83614926946,-0.859375,-0.0229492,0.258301
83614950123,-0.927734,-0.0209961,0.259277
83614964512,-0.980469,0.0166016,0.253906
83614986990,-0.959473,0.0229492,0.249512
83615010169,-0.943359,0.0151367,0.259277
83615024493,-0.976562,0.00537109,0.276367
83615046965,-0.981934,0.0219727,0.247559
83615076174,-0.943359,0.0537109,0.256348
83615091235,-0.93457,0.0302734,0.242188
83615115164,-0.991211,0.0454102,0.218262
83615130616,-1.00977,0.0576172,0.255371
83615151198,-0.98877,0.0639648,0.291504
83615167004,-0.986328,0.081543,0.285156
83615190144,-0.999512,0.0703125,0.296875
83615204475,-1.00098,0.0678711,0.294434
83615227009,-0.994141,0.101074,0.282227
83615250161,-0.990723,0.090332,0.290527
83615278712,-0.98877,0.0805664,0.296875
83615295596,-0.966309,0.0634766,0.298828
83615310171,-0.963379,0.0859375,0.297852
83615331196,-0.961426,0.0820312,0.299316
83615347004,-0.964355,0.0742188,0.290039
83615371282,-0.944824,0.0693359,0.285645
83615391243,-0.937012,0.0742188,0.282227
83615407643,-0.961426,0.074707,0.29834
83615430156,-0.967773,0.0693359,0.300293
83615451183,-0.961914,0.0800781,0.290527
83615466960,-0.970215,0.0795898,0.276367
83615489525,-0.949219,0.0776367,0.262207
83615511192,-0.945312,0.0766602,0.28125
83615527008,-0.962891,0.0717773,0.284668
83615549523,-0.963867,0.0571289,0.306152
83615571242,-0.958008,0.0585938,0.305664
83615587002,-0.95752,0.0644531,0.291504
83615609480,-0.958496,0.0625,0.31543
83615631210,-0.972168,0.0532227,0.321777
83615647023,-0.981934,0.0654297,0.328613
83615669489,-0.963867,0.0605469,0.341309
83615692642,-0.941406,0.0791016,0.333496
83615707005,-0.932617,0.0913086,0.33252
83615729458,-0.893066,0.105469,0.337891
83615760172,-0.848145,0.0878906,0.356934
83615767010,-0.844238,0.0463867,0.358398
83615789508,-0.862305,0.0649414,0.383789
83615812672,-0.847168,0.0883789,0.373535
83615826244,-0.795898,0.113281,0.377441
83615848733,-0.793945,0.0849609,0.378906
83615863072,-0.8125,0.0395508,0.35791
83615886192,-0.797852,0.0693359,0.353516
83615908742,-0.761719,0.114746,0.355469
83615923032,-0.755371,0.144531,0.38916
83615946201,-0.765625,0.111328,0.423828
83615976876,-0.731445,0.0854492,0.451172
83615983056,-0.627441,0.0961914,0.444336
83616006236,-0.621582,0.120117,0.495117
83616028734,-0.696777,0.12207,0.537598
83616043068,-0.66748,0.148926,0.547363
83616066264,-0.536621,0.160645,0.529297
83616088729,-0.436035,0.205566,0.602051
83616103083,-0.480957,0.268066,0.687988
83616126220,-0.547363,0.282227,0.737305
83616148689,-0.494629,0.282227,0.791504
83616163047,-0.444824,0.277832,0.858398
83616186198,-0.442383,0.29541,0.964355
83616208744,-0.447266,0.391113,0.966309
83616223033,-0.338379,0.415527,0.905273
83616246201,-0.219238,0.411133,0.88916
83616268738,-0.166016,0.415039,0.974121
83616283048,-0.125977,0.454102,0.96875
83616306020,-0.0844727,0.489746,0.904297
83616320545,-0.0610352,0.485352,0.932129
83616343073,-0.103516,0.510742,1.0459
83616366239,-0.109375,0.493652,1.06055
83616380595,-0.0400391,0.521484,1.03564
83616403078,0.0507812,0.46582,0.930176
83616426221,0.0678711,0.499023,0.894043
83616440578,0.0366211,0.624023,0.954102
83616463095,0.0639648,0.760254,0.92334
83616486243,0.180664,0.726074,0.916016
83616508746,0.201172,0.677246,0.932617
83616523087,0.205078,0.635742,0.894531
83616546256,0.248535,0.63916,0.885742
83616560569,0.34082,0.652344,0.8125
83616583054,0.405273,0.638672,0.770508
83616605627,0.419922,0.613281,0.759766
83616620611,0.407227,0.556641,0.757324
83616643081,0.439941,0.55127,0.759766
83616665558,0.496094,0.566406,0.736328
83616680597,0.51709,0.582031,0.713379
83616703060,0.51709,0.528809,0.690918
83616725609,0.521484,0.491699,0.687988
83616748740,0.599121,0.499512,0.707031
83616763093,0.733398,0.574219,0.779785
83616787044,0.69873,0.537109,0.83252
83616800608,0.537598,0.39502,0.848145
83616823113,0.419922,0.362793,0.82666
83616845542,0.421875,0.484863,0.703613
83616860563,0.471191,0.633789,0.623047
83616883069,0.476562,0.663574,0.634277
83616905611,0.464844,0.578613,0.678711
83616920581,0.440918,0.498535,0.716797
83616943115,0.435547,0.484375,0.71582
83616965561,0.445801,0.529785,0.680176
83616980593,0.456055,0.575195,0.662109
83617003114,0.46875,0.586426,0.65625
83617025605,0.459473,0.556641,0.674316
83617040593,0.453613,0.53418,0.679688
83617063122,0.469238,0.525879,0.677734
83617085569,0.476074,0.541016,0.681152
83617100546,0.477051,0.548828,0.678711
83617123174,0.476562,0.5625,0.682617
83617145595,0.470703,0.556641,0.672363
83617160612,0.464355,0.548828,0.674316
83617183063,0.463867,0.548828,0.670898
83617205550,0.462891,0.549805,0.669922
83617220581,0.463867,0.563477,0.668945
83617243107,0.460449,0.556152,0.67334
83617265615,0.456543,0.558105,0.680176
83617280638,0.459961,0.556641,0.670898
83617303082,0.455566,0.54248,0.671875
83617325572,0.45752,0.543945,0.676758
83617340590,0.46582,0.550293,0.679688
83617363094,0.46582,0.553223,0.674805
83617385615,0.458496,0.553711,0.680176
83617402008,0.456543,0.553223,0.67334
83617424522,0.458984,0.554199,0.678223
83617445581,0.463379,0.554688,0.669922
83617462058,0.458008,0.555664,0.666016
83617483095,0.461426,0.557617,0.672363
83617505657,0.461914,0.55957,0.666016
83617523505,0.459473,0.555664,0.67334
83617543109,0.46582,0.555664,0.664551
83617565615,0.459961,0.557617,0.660645
83617582041,0.45752,0.548828,0.668457
83617603105,0.464355,0.552246,0.672363
83617625595,0.46582,0.55127,0.670898
83617642008,0.461914,0.552246,0.672852
83617663064,0.461426,0.555664,0.677246
83617685580,0.456543,0.564941,0.670898
83617702028,0.461426,0.564941,0.671387
83617723062,0.461914,0.559082,0.673828
83617745615,0.456055,0.554688,0.673828
83617762075,0.459473,0.54541,0.665527
83617783075,0.466309,0.554688,0.663086
83617805605,0.463867,0.558594,0.658691
83617822071,0.465332,0.560059,0.666504
83617843120,0.462891,0.557129,0.668457
83617865650,0.458496,0.549316,0.668945
83617882048,0.458008,0.55127,0.666504
83617903122,0.463379,0.549316,0.664551
83617925578,0.463379,0.555176,0.663574
83617942035,0.466797,0.556152,0.666992
83617963102,0.462891,0.553711,0.671875
83617985652,0.461914,0.556152,0.67041
83618002065,0.460449,0.555176,0.673828
83618023070,0.459473,0.554199,0.677734
83618045616,0.460938,0.557129,0.665527
83618062066,0.464844,0.565918,0.669922
83618083108,0.462891,0.55957,0.664551
83618113760,0.462402,0.557129,0.671875
83618122052,0.464355,0.557617,0.663574
83618143096,0.470703,0.552246,0.659668
83618165601,0.464355,0.547363,0.660156
83618182060,0.467285,0.537598,0.668945
83618203099,0.468262,0.555664,0.66748
83618225621,0.466797,0.55957,0.672363
83618242081,0.462402,0.556641,0.674805
83618263152,0.461426,0.558105,0.66748
83618285679,0.462402,0.557129,0.669434
83618302033,0.461914,0.548828,0.670898
83618326047,0.466797,0.540527,0.665039
83618345620,0.473633,0.541504,0.666016
83618362014,0.469727,0.54248,0.675293
83618384556,0.471191,0.548828,0.671387
83618405640,0.469238,0.553223,0.661621
83618422050,0.469238,0.554199,0.664551
83618444557,0.470215,0.552734,0.666992
83618465594,0.470703,0.552734,0.659668
83618482042,0.479004,0.548828,0.664062
83618504531,0.500977,0.542969,0.685059
83618525647,0.521484,0.548828,0.703613
83618542102,0.527832,0.532227,0.711914
83618564559,0.567871,0.44043,0.66748
83618585614,0.65625,0.524414,0.653809
83618602075,0.651855,0.583984,0.683594
83618624552,0.667969,0.5,0.660645
83618645609,0.672852,0.472656,0.637695
83618662059,0.646484,0.615723,0.733398
83618684485,0.590332,0.636719,0.741699
83618705597,0.513672,0.536133,0.843262
83618722033,0.499023,0.569336,0.856445
83618744534,0.518066,0.700684,0.821777
83618765681,0.348145,0.692871,0.89209
83618782070,0.198242,0.561035,0.986328
83618810640,0.144531,0.583496,0.98877
83618825594,0.135254,0.769043,0.921387
83618842063,0.0507812,0.791016,0.95752
83618864530,-0.104004,0.697266,1.05029
83618885619,-0.210938,0.631348,1.09229
83618909577,-0.179688,0.647949,1.06543
83618924562,-0.157715,0.64209,1.0083
83618945643,-0.195801,0.633301,1.01709
83618971050,-0.222168,0.575195,1.01807
83618984591,-0.244141,0.55127,0.963379
83619005645,-0.262695,0.513184,0.932617
83619022055,-0.295898,0.496094,0.912598
83619044580,-0.316895,0.488281,0.875977
83619073839,-0.3125,0.472168,0.835449
83619082050,-0.342285,0.398438,0.811523
83619104649,-0.416504,0.325684,0.803223
83619125647,-0.475098,0.268066,0.73584
83619142049,-0.495605,0.237305,0.714355
83619164587,-0.483398,0.242188,0.696289
83619185645,-0.466309,0.248047,0.68457
83619202104,-0.459961,0.233398,0.650879
83619224607,-0.48291,0.187012,0.632324
83619247075,-0.542969,0.14209,0.65332
83619269589,-0.592773,0.123535,0.588379
83619284570,-0.590332,0.139648,0.543945
83619307066,-0.597168,0.199707,0.485352
83619329557,-0.624023,0.208984,0.444336
83619344570,-0.691895,0.203613,0.426758
83619368563,-0.768066,0.161621,0.407715
83619383549,-0.816406,0.137695,0.422852
83619404607,-0.807129,0.0830078,0.416504
83619426301,-0.782227,0.0419922,0.427246
83619448856,-0.799805,0.0537109,0.443848
83619463846,-0.831543,0.0698242,0.424805
83619486295,-0.842773,0.0727539,0.394043
83619508823,-0.833496,0.0615234,0.376953
83619523865,-0.839844,0.0742188,0.391113
83619546312,-0.84668,0.0805664,0.379883
83619568837,-0.876465,0.0654297,0.349609
83619583817,-0.901367,0.0664062,0.347168
83619606267,-0.867188,0.0546875,0.339355
83619628824,-0.826172,0.0673828,0.347656
83619643833,-0.849121,0.03125,0.332031
83619666352,-0.899414,0.0595703,0.34375
83619688917,-0.928711,0.0537109,0.351074
83619703826,-0.931152,0.043457,0.342285
83619726322,-0.909668,0.0302734,0.34668
83619748820,-0.880371,0.0410156,0.355957
83619763822,-0.909668,0.0629883,0.375977
83619786320,-0.941406,0.0517578,0.377441
83619802785,-0.928223,0.0366211,0.370605
83619823821,-0.899414,0.0605469,0.382812
83619846302,-0.909668,0.0766602,0.387695
83619862711,-0.939453,0.0800781,0.386719
83619883844,-0.944824,0.0678711,0.405762
83619906343,-0.926758,0.0688477,0.411621
83619923209,-0.913086,0.0810547,0.408203
83619943824,-0.91748,0.0732422,0.40918
83619966302,-0.916992,0.0732422,0.400391
83619982787,-0.91748,0.0766602,0.399902
83620003854,-0.916016,0.0908203,0.402344
83620026335,-0.942383,0.0820312,0.418457
83620042791,-0.932129,0.0668945,0.40918
83620063815,-0.90625,0.0751953,0.408203
83620086296,-0.916016,0.0820312,0.411133
83620102788,-0.919922,0.0742188,0.421387
83620123835,-0.912598,0.0673828,0.419922
83620146359,-0.905273,0.0893555,0.414551
83620162801,-0.90332,0.0893555,0.416504
83620183821,-0.902344,0.0869141,0.429688
83620206324,-0.899902,0.0893555,0.438477
83620222082,-0.888672,0.081543,0.423828
83620243827,-0.865234,0.0786133,0.427734
83620266301,-0.850098,0.0805664,0.427246
83620282081,-0.850098,0.0712891,0.421387
83620303819,-0.867676,0.0722656,0.417969
83620326331,-0.836914,0.0649414,0.42334
83620342068,-0.775879,0.03125,0.442871
83620363818,-0.772949,0.0410156,0.501465
83620386323,-0.828125,0.0126953,0.507324
83620402105,-0.857422,0.00537109,0.506348
83620425295,-0.814453,0.0390625,0.496094
83620446321,-0.742676,0.0483398,0.477539
83620468823,-0.665039,0.0244141,0.486328
83620485229,-0.62793,0.0385742,0.508301
83620506316,-0.674316,0.0766602,0.518066
83620530255,-0.694824,0.0595703,0.561523
83620545265,-0.625,0.0273438,0.594238
83620567007,-0.589355,0.0488281,0.644043
83620582088,-0.606445,0.14502,0.69873
83620605227,-0.663574,0.195801,0.726074
83620626337,-0.716309,0.143555,0.688477
83620642115,-0.686523,0.0605469,0.708984
83620665255,-0.584961,0.0854492,0.723633
83620686333,-0.504883,0.172363,0.681641
83620702078,-0.453125,0.262207,0.664551
83620725246,-0.441895,0.222168,0.791504
83620746382,-0.430664,0.119141,0.869629
83620762117,-0.317871,0.154785,0.833496
83620785278,-0.302246,0.333496,0.79248
83620806316,-0.292969,0.352051,0.844238
83620828814,-0.354492,0.230469,0.98291
83620845257,-0.374023,0.164551,1.04102
83620866288,-0.299805,0.286621,0.983887
83620882131,-0.249023,0.435547,0.982422
83620905283,-0.219238,0.490234,0.962402
83620926326,-0.134766,0.410156,0.972656
83620942109,-0.0688477,0.430664,1.00342
83620965267,-0.0625,0.513184,1.01709
83620986306,0.0136719,0.540527,0.965332
83621002117,0.156738,0.548828,0.96582
83621025297,0.153809,0.48291,0.960449
83621046385,0.154785,0.427246,0.983887
83621062107,0.171387,0.506348,0.92627
83621085271,0.258789,0.612793,0.880371
83621106298,0.354492,0.578613,0.887207
83621122078,0.347168,0.533203,0.930664
83621145238,0.337891,0.451172,0.922852
83621167780,0.378418,0.502441,0.899902
83621182084,0.401367,0.560059,0.856934
83621204585,0.418457,0.539062,0.839355
83621226317,0.413086,0.515625,0.78125
83621242088,0.461914,0.511719,0.731934
83621264596,0.508301,0.567871,0.729004
83621286305,0.514648,0.537109,0.730469
83621302093,0.531738,0.458984,0.755859
83621324670,0.516113,0.425293,0.775391
83621346326,0.492188,0.418457,0.765625
83621362089,0.54248,0.45752,0.743164
83621385061,0.654297,0.468262,0.736328
83621407810,0.719727,0.561523,0.804688
83621422105,0.671387,0.53418,0.859863
83621444611,0.516113,0.452637,0.874023
83621467779,0.410156,0.403809,0.792969
83621482079,0.40918,0.496094,0.657227
83621504633,0.45166,0.604004,0.57373
83621527800,0.475098,0.631836,0.580566
83621542130,0.479004,0.569336,0.633789
83621571353,0.456543,0.498047,0.687012
83621587791,0.456543,0.481934,0.714355
83621602101,0.453613,0.527344,0.712891
83621624588,0.461426,0.55127,0.705078
83621647789,0.463867,0.550293,0.712891
83621668928,0.465332,0.532227,0.721191
83621684615,0.462402,0.525879,0.717285
83621707806,0.473145,0.525879,0.705078
83621722099,0.472656,0.53418,0.692871
83621744589,0.462891,0.562012,0.668945
83621767785,0.46582,0.568848,0.659668
83621782147,0.469238,0.567383,0.662598
83621812796,0.462891,0.555176,0.661133
83621833828,0.463867,0.54834,0.669434
83621842115,0.459961,0.55127,0.679688
83621865086,0.458984,0.550781,0.672363
83621887790,0.469727,0.544434,0.666504
83621908905,0.463867,0.537598,0.67041
83621924637,0.463379,0.540527,0.675781
83621947797,0.464355,0.550293,0.67041
83621968838,0.467285,0.557617,0.673828
83621984610,0.464844,0.556152,0.670898
83622007794,0.459961,0.553223,0.66748
83622028869,0.463379,0.556152,0.669434
83622044629,0.464844,0.556641,0.669922
83622067772,0.467773,0.555176,0.67041
83622088863,0.468262,0.55127,0.677246
83622104642,0.464355,0.555176,0.67041
83622127135,0.462402,0.554199,0.668457
83622148878,0.459961,0.558594,0.669434
83622164637,0.464355,0.555176,0.665527
83622187129,0.466309,0.554199,0.673828
83622208866,0.46582,0.55127,0.670898
83622224648,0.462402,0.555664,0.670898
83622247102,0.461914,0.560059,0.665039
83622268827,0.460938,0.556641,0.666504
83622284612,0.464844,0.55127,0.671875
83622307108,0.462891,0.554688,0.668457
83622330258,0.462891,0.55957,0.677246
83622344685,0.463379,0.558594,0.662598
83622367158,0.464844,0.553711,0.67041
83622390305,0.461914,0.549805,0.664062
83622404635,0.461914,0.554199,0.662109
83622427142,0.469238,0.547852,0.661133
83622450303,0.461914,0.551758,0.660156
83622464677,0.466797,0.550293,0.666992
83622487156,0.468262,0.558105,0.667969
83622510310,0.463379,0.556641,0.663086
83622524637,0.460449,0.553223,0.668457
83622547295,0.466309,0.549316,0.668457
83622570278,0.46582,0.554199,0.67334
83622584619,0.459961,0.553223,0.66748
83622607178,0.459473,0.547363,0.66748
83622630313,0.461426,0.553711,0.666504
83622644660,0.469238,0.556641,0.665527
83622667138,0.46875,0.558594,0.669434
83622690283,0.460449,0.553711,0.666016
83622704640,0.455078,0.556152,0.669922
83622727586,0.45459,0.552734,0.667969
83622750341,0.459473,0.558105,0.671387
83622764655,0.461426,0.552246,0.67041
83622787129,0.460938,0.55127,0.668945
83622810281,0.461914,0.556152,0.669922
83622831392,0.466309,0.558105,0.673828
83622847105,0.459473,0.554688,0.677246
83622870349,0.458984,0.548828,0.67627
83622891409,0.459473,0.545898,0.669922
83622907145,0.463867,0.551758,0.671387
83622930311,0.464355,0.554199,0.665527
83622951391,0.463867,0.553223,0.669434
83622967137,0.461914,0.554199,0.672363
83622990291,0.455566,0.550781,0.67041
83623003281,0.454102,0.554199,0.669922
83623026398,0.460449,0.553711,0.666504
83623040727,0.462402,0.557617,0.666016
83623063251,0.463379,0.553223,0.671875
83623086369,0.461426,0.557617,0.665527
83623100705,0.460449,0.557617,0.671387
83623123297,0.458496,0.552734,0.672852
83623146394,0.459473,0.557129,0.669922
83623160763,0.458496,0.553711,0.667969
83623183199,0.462402,0.559082,0.675781
83623206346,0.459473,0.557129,0.67041
83623220684,0.45459,0.554688,0.671387
83623243232,0.458984,0.558105,0.67041
83623266401,0.459473,0.553223,0.669434
83623280724,0.459961,0.552246,0.670898
83623303237,0.460938,0.555664,0.675781
83623326411,0.460449,0.561035,0.668457
83623340717,0.458496,0.555176,0.666504
83623363243,0.456055,0.557129,0.665527
83623386433,0.456055,0.564453,0.665039
83623400749,0.458008,0.558594,0.66748
83623423175,0.451172,0.552246,0.668457
83623446507,0.457031,0.552734,0.669434
83623460713,0.458984,0.556152,0.675781
83623483239,0.459961,0.560059,0.671387
83623506418,0.462402,0.558594,0.674805
83623520713,0.458008,0.559082,0.668945
83623543220,0.458008,0.557129,0.671875
83623566372,0.457031,0.55127,0.67334
83623580724,0.456055,0.554688,0.666992
83623603238,0.456055,0.549316,0.670898
83623626391,0.45752,0.556641,0.665527
83623640748,0.459961,0.564941,0.668945
83623663244,0.458984,0.561035,0.671875
83623686410,0.455566,0.564453,0.674316
83623700762,0.453125,0.553711,0.678223
83623723193,0.455566,0.550293,0.664551
83623746445,0.460449,0.557129,0.665039
83623760687,0.461914,0.557129,0.665039
83623783214,0.459961,0.558594,0.666016
83623806843,0.453125,0.557617,0.671875
83623820702,0.456055,0.562012,0.668945
83623843218,0.45166,0.555176,0.670898
83623866393,0.456055,0.560547,0.669922
83623880717,0.460938,0.559082,0.670898
83623903260,0.458008,0.557617,0.67041
83623926430,0.458496,0.554688,0.665527
83623940742,0.458008,0.558105,0.663574
83623963280,0.458984,0.554688,0.671387
83623986395,0.457031,0.555664,0.671875
83624000731,0.455566,0.55957,0.672852
83624023209,0.459961,0.556641,0.675781
83624046370,0.456543,0.555176,0.675293
83624060731,0.456055,0.561035,0.67627
83624084665,0.455078,0.562012,0.666016
83624106388,0.45459,0.561035,0.67334
83624120736,0.453613,0.5625,0.671387
83624143286,0.45752,0.557617,0.665527
83624166397,0.456543,0.556641,0.669922
83624180726,0.461426,0.556152,0.669922
83624203210,0.459961,0.563965,0.663086
83624225745,0.455078,0.560059,0.664551
83624240737,0.457031,0.560547,0.66748
83624263243,0.454102,0.573242,0.666992
83624285716,0.453125,0.567871,0.666016
83624300699,0.458008,0.557617,0.671387
83624323225,0.45459,0.554688,0.664551
83624345746,0.458984,0.558105,0.670898
83624360824,0.460938,0.558594,0.668457
83624383211,0.457031,0.564453,0.66748
83624405715,0.452637,0.563965,0.670898
83624420760,0.450684,0.55957,0.673828
83624443281,0.453125,0.55957,0.674316
83624465764,0.452637,0.562012,0.662598
83624480819,0.455078,0.557129,0.66748
83624503213,0.456543,0.555176,0.664062
83624525718,0.458496,0.560547,0.662109
83624540726,0.458984,0.564941,0.669434
83624563267,0.440918,0.560059,0.695312
83624585831,0.447266,0.580078,0.683105
83624600816,0.491211,0.566895,0.654297
83624623249,0.473633,0.525391,0.682617
83624645779,0.429688,0.508789,0.748535
83624660739,0.481934,0.541016,0.733887
83624683258,0.547363,0.61084,0.726562
83624705838,0.597168,0.552246,0.655273
83624720692,0.594727,0.466797,0.657227
83624751449,0.637695,0.529297,0.670898
83624765736,0.705566,0.63916,0.687988
83624780751,0.666016,0.599609,0.692383
83624803230,0.583496,0.54248,0.757324
83624825740,0.478516,0.57373,0.803223
83624840808,0.455078,0.584473,0.765137
83624863259,0.390625,0.578125,0.759277
83624885717,0.342285,0.644531,0.75293
83624900742,0.331055,0.749023,0.752441
83624923254,0.19043,0.756836,0.814941
83624947186,0.0292969,0.713379,0.937988
83624960752,-0.0644531,0.675293,0.944336
83624983281,-0.0859375,0.756348,0.933105
83625005831,-0.130371,0.833984,0.94043
83625022151,-0.22998,0.767578,0.981445
83625043264,-0.273438,0.655762,1.05713
83625065761,-0.260742,0.62207,1.05615
83625082202,-0.259277,0.631348,1.0332
83625103276,-0.30127,0.652344,1.00049
83625125845,-0.338867,0.628418,0.991211
83625142174,-0.343262,0.601074,0.933105
83625163236,-0.382812,0.57373,0.908691
83625185738,-0.439453,0.530273,0.903809
83625202187,-0.461426,0.503906,0.854492
83625223226,-0.450684,0.495117,0.774902
83625245789,-0.454102,0.444336,0.771484
83625262254,-0.48584,0.375488,0.751953
83625283245,-0.539551,0.335449,0.714844
83625305815,-0.504883,0.279785,0.688477
83625322219,-0.471191,0.260254,0.65332
83625343266,-0.484863,0.269531,0.631348
83625365838,-0.511719,0.25293,0.609863
83625382161,-0.556152,0.224121,0.624023
83625403269,-0.608398,0.149902,0.601562
83625433964,-0.63916,0.109863,0.566406
83625442245,-0.639648,0.102539,0.541016
83625463281,-0.655273,0.118164,0.496582
83625485833,-0.700195,0.0966797,0.48584
83625502196,-0.775879,0.0615234,0.47998
83625523297,-0.79541,0.0498047,0.450195
83625545740,-0.759277,0.0292969,0.428223
83625562189,-0.73584,0.0214844,0.422852
83625583282,-0.75,-0.00830078,0.417969
83625605761,-0.746582,-0.043457,0.40625
83625622203,-0.755859,-0.0126953,0.40625
83625643273,-0.767578,-0.0200195,0.369629
83625665855,-0.77832,-0.0229492,0.331543
83625682203,-0.764648,-0.0244141,0.306152
83625703288,-0.792969,-0.0117188,0.275391
83625725823,-0.84668,-0.0200195,0.269043
83625749703,-0.874512,-0.0263672,0.270996
83625763290,-0.866699,-0.0356445,0.265625
83625785815,-0.884766,-0.0405273,0.260254
83625802185,-0.932129,-0.0341797,0.27832
83625823336,-0.974609,-0.0405273,0.28125
83625845740,-0.975098,-0.0532227,0.293945
83625862190,-0.965332,-0.0444336,0.300293
83625883236,-0.974609,-0.050293,0.330078
83625905799,-0.978516,-0.0463867,0.351074
83625922221,-0.973633,-0.0415039,0.354492
83625944712,-0.956055,-0.027832,0.355469
83625965834,-0.923828,-0.0136719,0.377441
83625982213,-0.92627,-0.0234375,0.39502
83626004791,-0.940918,-0.0336914,0.417969
83626025817,-0.939453,-0.0209961,0.427246
83626042246,-0.924805,0.00390625,0.438477
83626064801,-0.913086,-0.0136719,0.442871
83626085857,-0.905762,-0.00195312,0.429688
83626102184,-0.911621,-0.00537109,0.433105
83626126208,-0.922363,0.0078125,0.435059
83626145842,-0.904297,0.00146484,0.423828
83626162204,-0.871094,-0.00732422,0.405762
83626184700,-0.850098,0.00244141,0.401855
83626205827,-0.839355,-0.000976562,0.397949
83626222212,-0.839355,-0.00292969,0.387207
83626244701,-0.817383,0.00585938,0.388184
83626265825,-0.776855,-0.00830078,0.390137
83626282231,-0.733398,-0.0166016,0.378418
83626312242,-0.744629,-0.012207,0.386719
83626327194,-0.764648,0.0136719,0.382324
83626342222,-0.717285,0.00830078,0.393555
83626364694,-0.663574,-0.00488281,0.407227
83626385822,-0.674316,-0.0209961,0.429688
83626402195,-0.713867,0.0341797,0.462402
83626432238,-0.708008,0.0493164,0.478027
83626445816,-0.65625,0.0273438,0.519531
83626462263,-0.592773,-0.00732422,0.563965
83626484807,-0.654297,0.0683594,0.624023
83626505835,-0.736328,0.149902,0.673828
83626522248,-0.703613,0.131836,0.689941
83626544817,-0.604492,0.0517578,0.705078
83626565820,-0.54248,0.0966797,0.757324
83626583674,-0.565918,0.197266,0.760254
83626604816,-0.521973,0.193848,0.765137
83626626415,-0.421875,0.200684,0.809082
83626641430,-0.393066,0.237793,0.830566
83626663934,-0.361816,0.223633,0.848633
83626686480,-0.331543,0.236816,0.979004
83626701445,-0.29248,0.310059,1.04395
83626724000,-0.23584,0.383789,0.977539
83626746473,-0.169434,0.376953,0.959961
83626761502,-0.113281,0.382812,0.956543
83626783962,-0.129395,0.430176,1.02881
83626806435,-0.116699,0.523438,1.00586
83626821466,-0.0454102,0.494141,0.965332
83626843958,-0.0400391,0.420898,0.983887
83626866470,-0.0615234,0.430176,1.0166
83626881481,-0.0488281,0.563477,0.99707
83626903974,0.050293,0.652344,0.94873
83626926474,0.0976562,0.585449,0.968262
83626941491,0.0834961,0.507812,0.998047
83626963979,0.119629,0.562988,1.00098
83626986441,0.259766,0.622559,0.896484
83627001451,0.379395,0.610352,0.879883
83627023950,0.391602,0.419434,0.966309
83627046435,0.29834,0.400879,1.03467
83627062858,0.362305,0.467285,0.95166
83627083976,0.474609,0.583496,0.857422
83627106477,0.521973,0.595215,0.802734
83627122905,0.523438,0.506348,0.756836
83627143955,0.53125,0.436523,0.743652
83627166490,0.603027,0.430664,0.71582
83627182883,0.57959,0.473145,0.703125
83627204001,0.53125,0.523438,0.722656
83627233954,0.499023,0.580078,0.741211
83627242945,0.51709,0.57373,0.745117
83627263955,0.518555,0.570312,0.740723
83627286460,0.521973,0.546387,0.744629
83627302883,0.510742,0.515137,0.740723
83627324028,0.503418,0.48291,0.739746
83627346506,0.500488,0.48584,0.71875
83627362910,0.489746,0.51709,0.697754
83627383969,0.477051,0.539551,0.682617
83627406456,0.452148,0.553711,0.675293
83627422887,0.443359,0.563965,0.660156
83627443944,0.449219,0.57666,0.642578
83627466449,0.455078,0.582031,0.644043
83627482902,0.455566,0.576172,0.647949
83627504011,0.457031,0.568848,0.648438
83627526468,0.458984,0.558594,0.648438
83627542886,0.453613,0.556152,0.649414
83627563945,0.443359,0.567871,0.65625
83627586451,0.437988,0.586914,0.667969
83627602936,0.435547,0.591797,0.686523
83627623959,0.432617,0.593262,0.690918
83627646459,0.438965,0.594727,0.685547
83627662904,0.434082,0.586914,0.699219
83627683944,0.444824,0.578613,0.696289
83627706475,0.449219,0.574219,0.691406
83627723362,0.447754,0.569824,0.683105
83627743996,0.436035,0.57666,0.669434
83627766467,0.442871,0.578613,0.667969
83627782912,0.432617,0.578125,0.668945
83627803957,0.430176,0.577637,0.661621
83627826440,0.431641,0.586914,0.660645
83627842238,0.431641,0.605469,0.657715
83627863950,0.438477,0.598633,0.661621
83627886425,0.441895,0.583984,0.655273
83627902261,0.444824,0.577637,0.658203
83627923932,0.443359,0.575195,0.653809
83627946516,0.441895,0.581055,0.659668
83627962284,0.438477,0.57666,0.665527
83627985404,0.438965,0.571289,0.669922
83628006506,0.445312,0.570312,0.666504
83628022243,0.441895,0.578613,0.664062
83628045379,0.432617,0.583008,0.659668
83628066469,0.428711,0.586914,0.664062
83628082300,0.417969,0.583496,0.665039
83628105435,0.421387,0.587402,0.669434
83628126488,0.443359,0.584961,0.666504
83628142281,0.45459,0.568848,0.664062
83628165410,0.453613,0.566895,0.659668
83628186468,0.451172,0.566895,0.658203
83628202239,0.432617,0.580566,0.655273
83628225437,0.427246,0.595215,0.649902
83628247913,0.422852,0.599609,0.649902
83628262258,0.431641,0.590332,0.659668
83628285382,0.441406,0.579102,0.671387
83628306482,0.446289,0.572754,0.673828
83628322263,0.451172,0.569336,0.672363
83628345430,0.443848,0.572754,0.679688
83628366461,0.443359,0.573242,0.675293
83628382235,0.436523,0.570312,0.675293
83628405398,0.431641,0.575195,0.67334
83628426523,0.430664,0.587402,0.671875
83628442282,0.433594,0.592285,0.677734
83628465429,0.446289,0.583008,0.663086
83628486492,0.451172,0.572754,0.660645
83628502266,0.453125,0.562012,0.652832
83628525424,0.453125,0.574707,0.655273
83628546296,0.450195,0.58252,0.661621
83628562263,0.441895,0.580566,0.666992
83628585430,0.438477,0.580566,0.666504
83628606509,0.437988,0.583008,0.665039
83628622313,0.442383,0.576172,0.668945
83628645439,0.442871,0.566895,0.665039
83628666510,0.452148,0.564941,0.665039
83628682270,0.453613,0.565918,0.661133
83628705409,0.451172,0.5625,0.660645
83628726468,0.447754,0.5625,0.662109
83628742308,0.442383,0.570312,0.663086
83628764795,0.4375,0.571777,0.668945
83628786504,0.437988,0.572266,0.67627
83628802823,0.437988,0.561523,0.675781
83628824781,0.439941,0.554199,0.678711
83628846514,0.438965,0.564453,0.671875
83628862278,0.446289,0.581543,0.67334
83628884786,0.450195,0.585449,0.669922
83628906486,0.456543,0.57959,0.663574
83628922276,0.456543,0.563965,0.654297
83628944785,0.452148,0.559082,0.657227
83628967917,0.45752,0.564453,0.646973
83628982229,0.452637,0.567383,0.65625
83629004787,0.446777,0.574219,0.666504
83629027967,0.446289,0.569336,0.67041
83629042291,0.436523,0.564941,0.673828
83629064791,0.4375,0.570801,0.670898
83629087920,0.442871,0.577148,0.672363
83629108966,0.450684,0.574707,0.671387
83629124788,0.455566,0.568359,0.67334
83629147965,0.461426,0.562012,0.666016
83629162307,0.458008,0.566895,0.663574
83629184835,0.45752,0.568848,0.658691
83629207932,0.449707,0.56543,0.665039
83629222271,0.452148,0.561035,0.670898
83629244781,0.445312,0.568848,0.672363
83629267962,0.439453,0.568359,0.67627
83629282286,0.439941,0.572754,0.677734
83629304778,0.443359,0.568848,0.674805
83629327947,0.450684,0.563477,0.675293
83629342273,0.447754,0.566406,0.66748
83629364792,0.447266,0.568359,0.661621
83629387910,0.44873,0.563965,0.657715
83629402308,0.444336,0.566895,0.660645
83629424784,0.450195,0.568359,0.665039
83629447940,0.455078,0.574219,0.663086
83629468984,0.457031,0.571289,0.664551
83629484774,0.450684,0.564453,0.664062
83629507909,0.45166,0.572266,0.668945
83629529022,0.447754,0.568848,0.674316
83629544793,0.443359,0.568359,0.669434
83629567966,0.449707,0.568848,0.664551
83629589009,0.449707,0.563477,0.666016
83629604805,0.452637,0.562012,0.666504
83629635455,0.453125,0.567383,0.668945
83629649049,0.452148,0.565918,0.669434
83629664824,0.452637,0.562012,0.666016
83629687978,0.450195,0.563477,0.673828
83629709035,0.45166,0.565918,0.671387
83629724794,0.452637,0.559082,0.665527
83629747257,0.458008,0.560547,0.660156
83629769029,0.457031,0.560547,0.664062
83629784782,0.455078,0.56543,0.664551
83629807259,0.454102,0.553711,0.670898
83629829004,0.451172,0.5625,0.66748
83629844822,0.446289,0.580566,0.65625
83629867306,0.442383,0.569336,0.662598
83629888987,0.452637,0.55957,0.669922
83629904796,0.456055,0.567383,0.663086
83629927307,0.454102,0.570801,0.666016
83629950457,0.45459,0.561035,0.665527
83629964783,0.458984,0.555664,0.678711
