myot,myox,myoy,myoz
1458870074,myox,myoy,myoz
73346081849,1.09961,0.305664,-0.228027
73346103214,1.04297,0.489258,0.059082
73346118197,0.931641,0.419922,0.340332
73346141872,0.908203,-0.259277,0.936523
73346171192,0.685547,-0.332031,1.30566
73346178348,0.585938,-0.477539,1.44482
73346225813,0.268555,-0.492676,1.32373
73346226659,0.163574,0.0961914,0.609863
73346239674,0.623047,2.80273,-5.33154
73346261940,0.667969,-1.95605,0.0493164
73346283216,2.52148,-1.23486,0.00732422
73346299736,1.83496,0.0239258,-0.748535
73346335629,1.25391,0.473145,-0.157227
73346345717,0.658691,0.486328,-0.312012
73346359441,0.311523,0.693359,-0.254395
73346380552,0.397461,0.640625,-0.319336
73346404175,0.686523,0.132812,-0.467285
73346419429,1.12207,0.0693359,-0.437988
73346450158,1.44482,0.196777,-0.291504
73346471237,1.16699,0.180176,-0.431152
73346479487,0.944824,0.161621,-0.418457
73346502031,0.746094,0.254395,-0.474609
73346523739,0.626953,0.125,-0.532715
73346539495,0.685059,0.205566,-0.601562
73346560559,0.833984,0.302246,-0.518066
73346585172,0.882812,0.365234,-0.541504
73346599537,0.837402,0.212402,-0.589355
73346620511,0.722168,0.118652,-0.652832
73346643654,0.608887,0.0351562,-0.714844
73346659953,0.58252,0.027832,-0.726562
73346680496,0.585449,0.0219727,-0.750977
73346711133,0.520508,0.0639648,-0.791504
73346733443,0.440918,0.0463867,-0.84375
73346743366,0.416016,0.043457,-0.860352
73346762991,0.425781,0.191406,-0.897461
73346779430,0.478027,0.337402,-0.884766
73346800503,0.469238,0.289551,-0.890137
73346823067,0.381836,0.211914,-0.955078
73346846627,0.404297,0.249512,-0.940918
73346860485,0.448242,0.227051,-0.90918
73346883000,0.405762,0.182129,-0.874023
73346899445,0.353516,-0.0078125,-0.912109
73346920494,0.339355,0.0751953,-0.933594
73346943012,0.355469,0.0634766,-0.956055
73346960920,0.385742,0.09375,-0.956055
73346981956,0.421387,0.0786133,-0.952637
73347002974,0.488281,0.219238,-0.924316
73347019444,0.519043,0.342773,-0.876953
73347041941,0.461914,0.170898,-0.895996
73347063032,0.424316,0.0864258,-0.87793
73347079449,0.375,0.0385742,-0.842285
73347110182,0.316406,0.126465,-0.838379
73347124419,0.301758,0.150391,-0.881348
73347146192,0.361816,0.0805664,-0.902832
73347162010,0.455566,-0.0644531,-0.880859
73347183006,0.345215,0.0942383,-0.903809
73347199434,0.238281,-0.043457,-0.967773
73347230086,0.213867,-0.0913086,-0.992188
73347242980,0.284668,0.231445,-0.963379
73347259457,0.381348,0.378418,-0.978516
73347290218,0.296875,0.0917969,-0.993652
73347303020,0.279297,-0.101562,-0.981445
73347319446,0.257812,-0.130859,-0.975586
73347348008,0.306152,0.177246,-0.983398
73347363031,0.322754,0.145996,-0.955566
73347385518,0.297852,0.0986328,-0.956055
73347401970,0.28125,-0.0664062,-0.975586
73347423051,0.324219,-0.379883,-1.00439
73347455179,0.26709,-0.114258,-0.991699
73347462641,0.213867,0.17041,-0.958496
73347491295,0.22998,0.213379,-0.953613
73347499420,0.266113,0.0605469,-0.989746
73347522027,0.213867,-0.0439453,-0.99707
73347543008,0.196289,-0.0307617,-0.988281
73347560933,0.208008,0.0258789,-0.960938
73347581956,0.307617,0.289551,-0.983398
73347603049,0.39209,0.373047,-0.949707
73347618658,0.341797,0.208984,-0.95459
73347641243,0.296387,-0.0449219,-0.980469
73347663702,0.288574,-0.0131836,-0.984863
73347678740,0.26123,-0.0371094,-0.961426
73347701194,0.244141,0.0893555,-0.917969
73347739466,0.29248,0.172363,-0.903809
73347746205,0.333008,0.183594,-0.904785
73347762767,0.408203,0.273926,-0.903809
73347786386,0.45752,0.289551,-0.819336
73347815230,0.514648,0.0834961,-0.774902
73347837695,0.374023,0.152344,-0.910156
73347851050,0.56543,-0.000976562,-0.736328
73347867732,0.429199,0.00976562,-1.0835
73347888733,0.270996,0.0922852,-1.20459
73347905130,0.208496,0.0849609,-1.25195
73347981465,0.231934,0.0825195,-1.2207
73347987572,0.375488,-0.0205078,-1.12354
73348008774,0.185059,0.0610352,-0.902344
73348023772,0.313477,0.0419922,-0.93457
73348040612,0.357422,0.0375977,-0.965332
73348061234,0.349121,0.0170898,-0.954102
73348083774,0.337891,0.00537109,-0.962402
73348100152,0.346191,-0.00292969,-0.956543
73348121215,0.313477,-0.0415039,-0.947754
73348145709,0.289551,-0.0273438,-0.947266
73348160161,0.302246,0.0253906,-0.966797
73348181227,0.288086,-0.0253906,-0.975098
73348203738,0.27832,0.00878906,-0.970215
73348220180,0.282715,0.0703125,-0.954102
73348241271,0.261719,0.0429688,-0.95752
73348263767,0.290527,0.133301,-0.962402
73348280208,0.312012,0.106445,-0.960938
73348308768,0.309082,0.0361328,-0.961914
73348325192,0.310059,-0.03125,-0.959473
73348340180,0.287109,-0.106934,-0.961914
73348361179,0.265137,-0.0507812,-0.97998
73348383738,0.280273,0.0336914,-0.958984
73348400185,0.258301,-0.11084,-0.955566
73348421288,0.266602,-0.171387,-0.938477
73348443826,0.266602,-0.166016,-0.968262
73348460273,0.266113,-0.163574,-0.957031
73348498323,0.262695,-0.184082,-0.961914
73348503743,0.266602,-0.165039,-0.970703
73348520166,0.283691,-0.108887,-0.982422
73348541300,0.288574,-0.0883789,-0.975586
73348563748,0.263672,-0.0483398,-0.976562
73348580148,0.270508,0.0117188,-0.984863
73348601286,0.275391,-0.0380859,-0.982422
73348623733,0.279297,-0.0205078,-0.979492
73348640194,0.250488,-0.0898438,-0.97168
73348661183,0.22998,-0.133301,-0.972168
73348683733,0.223633,-0.160156,-0.974609
73348700692,0.215332,-0.141602,-0.972656
73348721278,0.230469,-0.0922852,-0.967285
73348745207,0.231934,-0.0932617,-0.975098
73348775871,0.240723,-0.0761719,-0.988281
73348781256,0.254883,-0.110352,-0.972656
73348803820,0.263184,-0.106934,-0.976562
73348820281,0.250488,-0.14209,-0.963867
73348841311,0.231445,-0.147461,-0.967773
73348857062,0.227051,-0.0932617,-0.975586
73348879517,0.242188,-0.0688477,-0.974121
73348902700,0.243164,-0.0708008,-0.972168
73348923788,0.23584,-0.0756836,-0.980957
73348939584,0.235352,-0.0800781,-0.978516
73348977701,0.241211,-0.0893555,-0.969727
73349000814,0.231445,-0.0786133,-0.984863
73349001658,0.22998,-0.0546875,-0.97998
73349022766,0.21875,-0.0966797,-0.979492
73349037052,0.206543,-0.106445,-0.974121
73349059575,0.215332,-0.103027,-0.97998
73349082688,0.217285,-0.119629,-0.973145
73349097022,0.226562,-0.10498,-0.981934
73349119659,0.211426,-0.10791,-0.98291
73349150207,0.205566,-0.0952148,-0.98877
73349163740,0.214355,-0.0898438,-0.991211
73349179533,0.217773,-0.0898438,-0.983398
73349202674,0.224609,-0.0966797,-0.977051
73349223772,0.213867,-0.078125,-0.972656
73349239505,0.201172,-0.097168,-0.977539
73349262761,0.18457,-0.112793,-0.981934
73349283754,0.1875,-0.123535,-0.96875
73349299613,0.186035,-0.118652,-0.982422
73349328786,0.187988,-0.0859375,-0.993652
73349343839,0.192871,-0.081543,-0.979004
73349359564,0.196777,-0.104492,-0.992676
73349382698,0.194336,-0.118164,-0.995117
73349403773,0.20459,-0.0859375,-0.995605
73349419603,0.204102,-0.097168,-0.989258
73349442757,0.208008,-0.114258,-0.981934
73349471240,0.200195,-0.120117,-0.98291
73349488414,0.187012,-0.105469,-0.978027
73349503182,0.170898,-0.124512,-0.976074
73349524447,0.187012,-0.0102539,-1.0083
73349539586,0.227539,-0.0698242,-0.974609
73349570209,0.201172,-0.149902,-0.974609
73349583801,0.191406,-0.137207,-0.985352
73349599570,0.187012,-0.188965,-0.97998
73349622725,0.182129,-0.144531,-0.974121
73349644454,0.188477,-0.0986328,-0.975098
73349659493,0.206543,-0.0991211,-0.976562
73349682642,0.205078,-0.0927734,-0.983887
73349703792,0.20459,-0.0771484,-0.989258
73349719535,0.214844,-0.0615234,-0.981934
73349742736,0.218262,-0.0825195,-0.984375
73349763761,0.217773,-0.074707,-0.982422
73349810887,0.205566,-0.0839844,-0.98877
73349812499,0.188965,-0.0839844,-0.991699
73349825147,0.183594,-0.0786133,-0.983398
73349847670,0.190918,-0.0859375,-0.975586
73349869502,0.198242,-0.0600586,-0.990234
73349900839,0.209961,-0.0820312,-0.985352
73349901669,0.20752,-0.104492,-0.97998
73349922666,0.202148,-0.108887,-0.983887
73349952665,0.200195,-0.103516,-0.980957
73349975639,0.197754,-0.101074,-0.986328
73349998355,0.20752,-0.0869141,-0.980957
73350000008,0.217285,-0.090332,-0.972168
73350026293,0.228027,-0.0966797,-0.977539
73350050235,0.223145,-0.078125,-0.979492
73350072795,0.216797,-0.0683594,-0.984863
73350094520,0.20459,-0.0615234,-0.982422
73350124505,0.205078,-0.0351562,-0.98291
73350125284,0.195312,-0.0615234,-0.983887
73350162678,0.192383,-0.0615234,-0.993164
73350170808,0.208496,-0.0605469,-0.988281
73350198787,0.193848,-0.0805664,-0.984863
73350223412,0.178223,-0.0522461,-0.991211
73350224232,0.179199,-0.0566406,-0.989746
73350245203,0.17627,-0.0751953,-0.990234
73350273744,0.177734,-0.0507812,-0.98877
73350297732,0.198242,-0.0854492,-0.976562
73350320828,0.195801,-0.0869141,-0.983887
73350321683,0.191406,-0.102539,-0.98291
73350348750,0.196289,-0.110352,-0.980957
73350372781,0.209961,-0.078125,-0.979492
73350395294,0.210938,-0.0605469,-0.987793
73350417162,0.234863,-0.102539,-0.981934
73350448472,0.20752,-0.115723,-0.980469
73350449265,0.194824,-0.0786133,-0.980469
73350470177,0.192383,-0.0786133,-0.973633
73350500147,0.199707,-0.0537109,-0.982422
73350536927,0.224609,-0.0463867,-0.978027
73350537741,0.231934,-0.0805664,-0.981934
73350545670,0.230957,-0.0986328,-0.987305
73350560221,0.21875,-0.119629,-0.982422
73350582689,0.207031,-0.105957,-0.973633
73350621453,0.215332,-0.0839844,-0.975586
73350628367,0.21875,-0.0737305,-0.975586
73350651683,0.214355,-0.113281,-0.972168
73350665209,0.213867,-0.14209,-0.974121
73350686283,0.216797,-0.14502,-0.98291
73350702496,0.206055,-0.109375,-0.989258
73350725186,0.19873,-0.106445,-0.980957
73350753789,0.200195,-0.101074,-0.984863
73350770193,0.203125,-0.0986328,-0.988281
73350792657,0.195801,-0.113281,-0.984375
73350808136,0.185059,-0.124023,-0.993164
73350822528,0.194336,-0.100586,-1.01172
73350860670,0.193848,-0.11084,-0.984863
73350898248,0.189453,-0.101074,-0.984863
73350900642,0.197754,-0.100586,-0.981934
73350928286,0.181152,-0.0771484,-0.981445
73350930683,0.1875,-0.0507812,-0.981445
73350959173,0.195312,-0.0395508,-0.984863
73350964545,0.203125,-0.0566406,-0.986328
73350988199,0.214355,-0.0668945,-0.982422
73351002028,0.226074,-0.0361328,-0.977051
73351024561,0.219727,-0.0600586,-0.972168
73351048372,0.20166,-0.0444336,-0.987305
73351070250,0.204102,-0.0576172,-0.981445
73351093172,0.218262,-0.0532227,-0.981445
73351108131,0.226074,-0.0649414,-0.975098
73351139178,0.234375,-0.0644531,-0.972656
73351168273,0.228516,-0.0634766,-0.974609
73351169849,0.218262,-0.0654297,-0.969727
73351189459,0.216309,-0.0839844,-0.979492
73351203736,0.220703,-0.112305,-0.980469
73351243251,0.216309,-0.10791,-0.986328
73351245707,0.213379,-0.106445,-0.987793
73351255631,0.214844,-0.103516,-0.98877
73351278088,0.217773,-0.0751953,-0.989258
73351309424,0.250488,-0.0390625,-1
73351323796,0.23877,-0.0981445,-0.980957
73351338131,0.219727,-0.0786133,-0.97998
73351361244,0.204102,-0.131348,-0.96875
73351375643,0.208496,-0.133789,-0.964355
73351414455,0.207031,-0.111816,-0.966797
73351421217,0.20752,-0.107422,-0.96875
73351445243,0.217773,-0.108887,-0.96875
73351458117,0.217773,-0.118652,-0.977051
73351481237,0.224609,-0.118652,-0.978516
73351495594,0.218262,-0.122559,-0.975586
73351518160,0.219238,-0.0844727,-0.986816
73351541299,0.209473,-0.104492,-0.981934
73351555587,0.212402,-0.0991211,-0.981934
73351578064,0.206543,-0.0913086,-0.984863
73351601243,0.219727,-0.0800781,-0.989258
73351615619,0.216309,-0.100098,-0.976074
73351638133,0.224121,-0.0888672,-0.983887
73351661253,0.214355,-0.0981445,-0.976562
73351693339,0.210938,-0.115234,-0.977539
73351706290,0.205078,-0.10791,-0.981445
73351720654,0.205566,-0.0825195,-0.97998
73351760162,0.20752,-0.106934,-0.978027
73351762545,0.207031,-0.108398,-0.979492
73351789439,0.199707,-0.104004,-0.98877
73351795628,0.197266,-0.0952148,-0.981445
73351827720,0.192383,-0.0810547,-0.98291
73351848559,0.195312,-0.0761719,-0.974121
73351866770,0.202637,-0.0722656,-0.97998
73351894512,0.211426,-0.065918,-0.979004
73351900617,0.217773,-0.0800781,-0.982422
73351918553,0.216309,-0.0786133,-0.98291
73351938140,0.217285,-0.0859375,-0.985352
73351960643,0.209473,-0.0869141,-0.977539
73351977130,0.200195,-0.074707,-0.979004
73351998164,0.202148,-0.0634766,-0.98584
73352020728,0.218262,-0.0976562,-0.978516
73352038614,0.226074,-0.0913086,-0.994629
73352067824,0.209961,-0.112305,-0.986328
73352105878,0.20459,-0.0917969,-0.984863
73352108233,0.192871,-0.0966797,-0.976562
73352118164,0.19873,-0.0878906,-0.981934
73352140730,0.205566,-0.100586,-0.981445
73352172716,0.209961,-0.0913086,-0.98291
73352209522,0.223633,-0.0927734,-0.978516
73352216735,0.21875,-0.0966797,-0.982422
73352249905,0.211914,-0.0947266,-0.982422
73352262743,0.206055,-0.078125,-0.983398
73352264327,0.203125,-0.104492,-0.978516
73352284586,0.200195,-0.102539,-0.981934
73352315248,0.206543,-0.11377,-0.984863
73352322738,0.206055,-0.11084,-0.979492
73352338563,0.208496,-0.102051,-0.981445
73352358226,0.206055,-0.105957,-0.983887
73352380641,0.206543,-0.117676,-0.98291
73352395658,0.198242,-0.128906,-0.978027
73352418105,0.186523,-0.130371,-0.980469
73352440762,0.194336,-0.123535,-0.979492
73352455691,0.20752,-0.126465,-0.983887
73352478138,0.209473,-0.111816,-0.977539
73352500698,0.196289,-0.100098,-0.982422
73352515713,0.211914,-0.0942383,-0.973633
73352555914,0.199707,-0.09375,-0.976562
73352560745,0.185059,-0.0932617,-0.972168
73352575672,0.168457,-0.11084,-0.979004
73352598167,0.173828,-0.117188,-0.97998
73352620655,0.189453,-0.125488,-0.98584
73352635712,0.208984,-0.116211,-0.989746
73352658224,0.202148,-0.123535,-0.993652
73352680759,0.187988,-0.130859,-0.99707
73352697129,0.184082,-0.13623,-0.993164
73352718183,0.186035,-0.147949,-0.98291
73352740665,0.208496,-0.129883,-0.975586
73352765306,0.216309,-0.119629,-0.966797
73352787095,0.208984,-0.164551,-0.972656
73352800707,0.215332,-0.20459,-0.970703
73352817113,0.187988,-0.210938,-0.978027
73352838163,0.157227,-0.202637,-0.978027
73352860764,0.164551,-0.171387,-0.990723
73352883218,0.19873,-0.152344,-0.976074
73352898230,0.199219,-0.125977,-0.973633
73352920695,0.196777,-0.12793,-0.974121
73352937126,0.206543,-0.153809,-0.968262
73352958158,0.192871,-0.143066,-0.984863
73352980661,0.181152,-0.110352,-0.983398
73352997124,0.169434,-0.112793,-0.973145
73353018102,0.172852,-0.103027,-0.980957
73353048901,0.194336,-0.105957,-0.980469
73353073211,0.213867,-0.127441,-0.993652
73353095285,0.219727,-0.100586,-1.00098
73353102831,0.229492,-0.118652,-1.00391
73353117125,0.208008,-0.185059,-0.991699
73353138225,0.188477,-0.219238,-0.969238
73353160737,0.197266,-0.150879,-0.961426
73353177128,0.177734,-0.123535,-0.962402
73353198201,0.167969,-0.0585938,-0.970215
73353220739,0.178711,-0.00634766,-0.982422
73353237135,0.20752,-0.0585938,-0.987793
73353258252,0.234375,-0.0610352,-0.995117
73353282175,0.229004,-0.0981445,-0.993164
73353297188,0.214844,-0.0444336,-0.992676
73353318168,0.193359,-0.0292969,-0.980957
73353340738,0.160645,-0.0249023,-0.977539
73353357123,0.171875,-0.0527344,-0.972168
73353378252,0.185059,-0.0649414,-0.978027
73353400609,0.210449,-0.0307617,-0.976074
73353455881,0.240234,-0.00830078,-0.98584
73353458227,0.261719,-0.0268555,-0.979492
73353463563,0.231445,-0.0341797,-0.981445
73353478578,0.203613,-0.059082,-0.984375
73353506262,0.182617,-0.0620117,-0.98584
73353522128,0.165039,-0.0576172,-0.984375
73353543211,0.18457,-0.0546875,-0.978516
73353558195,0.19873,-0.0766602,-0.983398
73353580761,0.222168,-0.0449219,-0.993652
73353597146,0.252441,-0.0625,-0.984863
73353619701,0.238281,-0.0336914,-1.00684
73353640679,0.216309,-0.0649414,-0.988281
73353664659,0.194824,-0.0654297,-0.979492
73353679734,0.173828,-0.0688477,-0.980469
73353700755,0.188477,-0.050293,-0.980469
73353717192,0.20459,-0.0522461,-0.986328
73353739728,0.206543,-0.0600586,-0.984375
73353771778,0.222656,-0.0229492,-0.994141
73353783268,0.238281,-0.065918,-0.988281
73353805770,0.222168,-0.0454102,-0.987305
73353820741,0.179688,-0.0419922,-0.987793
73353837125,0.18457,-0.0395508,-0.987793
73353859645,0.189453,-0.0649414,-0.989746
73353880774,0.20752,-0.0527344,-0.976074
73353897110,0.205078,-0.0556641,-0.976562
73353921108,0.211426,-0.0473633,-0.976074
73353940781,0.210449,-0.0537109,-0.975586
73353957153,0.212891,-0.0478516,-0.978516
73353979740,0.20752,-0.0478516,-0.977539
73354000743,0.216797,-0.034668,-0.981934
73354017231,0.241699,-0.0419922,-0.987305
73354039742,0.250488,-0.0507812,-0.993652
73354060733,0.229004,-0.0664062,-0.993164
73354083218,0.212891,-0.0546875,-0.986816
73354099696,0.206055,-0.0649414,-0.984863
73354120769,0.20459,-0.0820312,-0.982422
73354137104,0.202148,-0.0849609,-0.979004
73354159740,0.20166,-0.0795898,-0.974121
73354180738,0.225098,-0.0664062,-0.984375
73354197186,0.230957,-0.0654297,-0.983887
73354233939,0.236328,-0.0717773,-0.984863
73354257770,0.219727,-0.0810547,-0.979004
73354280978,0.206543,-0.0776367,-0.984863
73354281798,0.209961,-0.0703125,-0.978516
73354308928,0.217285,-0.0600586,-0.976562
73354340353,0.224121,-0.0673828,-0.982422
73354355286,0.229492,-0.0634766,-0.977051
73354384563,0.227539,-0.0698242,-0.977539
73354385396,0.226562,-0.0634766,-0.987305
73354407820,0.224609,-0.0693359,-0.976074
73354430325,0.218262,-0.0629883,-0.977539
73354459572,0.213867,-0.0625,-0.977539
73354461159,0.217773,-0.0712891,-0.972656
73354482811,0.229492,-0.0864258,-0.983398
73354504685,0.229492,-0.0673828,-0.977051
73354535319,0.226562,-0.103027,-0.979004
73354558536,0.224121,-0.0722656,-0.979004
73354560137,0.225098,-0.0888672,-0.97998
73354579733,0.220215,-0.0859375,-0.983887
73354610304,0.223145,-0.0917969,-0.978027
73354632765,0.224121,-0.081543,-0.977051
73354655302,0.221191,-0.0722656,-0.98291
73354660699,0.230957,-0.0820312,-0.974609
73354685328,0.225586,-0.0864258,-0.978027
73354708506,0.223633,-0.0898438,-0.981445
73354729699,0.227051,-0.0898438,-0.975098
73354760996,0.222656,-0.0844727,-0.979004
73354762664,0.228516,-0.0854492,-0.975586
73354782763,0.223145,-0.102051,-0.972656
73354804645,0.229004,-0.0952148,-0.976074
73354835268,0.222656,-0.090332,-0.972656
73354858468,0.229004,-0.107422,-0.978027
73354860105,0.22998,-0.104492,-0.979004
73354886332,0.224609,-0.100586,-0.975098
73354910243,0.226074,-0.100098,-0.973633
73354925263,0.217773,-0.0996094,-0.974121
73354949935,0.225586,-0.10498,-0.975098
73354962834,0.229492,-0.117676,-0.976074
73354985329,0.23877,-0.102051,-0.979492
73355000361,0.226562,-0.0849609,-0.981445
73355021377,0.22168,-0.100586,-0.977051
73355038891,0.223145,-0.10498,-0.977051
73355058924,0.229492,-0.113281,-0.979492
73355081366,0.224609,-0.105957,-0.979492
73355097785,0.230957,-0.109863,-0.970703
73355118857,0.215332,-0.0966797,-0.984863
73355141341,0.208984,-0.100586,-0.978516
73355157767,0.216309,-0.0966797,-0.976074
73355178805,0.218262,-0.10791,-0.979004
73355201325,0.223633,-0.0922852,-0.97168
73355218461,0.21875,-0.0932617,-0.969238
73355239241,0.22168,-0.0976562,-0.977539
73355262843,0.233887,-0.0996094,-0.98291
73355277857,0.237793,-0.104492,-0.983887
73355298834,0.22998,-0.102539,-0.982422
73355321439,0.216309,-0.0991211,-0.979004
73355337799,0.21875,-0.112305,-0.98291
73355358891,0.227539,-0.113281,-0.978516
73355381411,0.23291,-0.106445,-0.974609
73355397879,0.223145,-0.10498,-0.979004
73355418857,0.224121,-0.100586,-0.979492
73355441352,0.229492,-0.0976562,-0.977051
73355457766,0.228516,-0.0952148,-0.976562
73355478915,0.226074,-0.0922852,-0.977539
73355501416,0.226074,-0.0917969,-0.977051
73355517249,0.225586,-0.115723,-0.979004
73355540403,0.21582,-0.104004,-0.979004
73355576424,0.210938,-0.090332,-0.97998
73355600990,0.217285,-0.0893555,-0.97168
73355601915,0.225586,-0.0893555,-0.97998
73355622141,0.229492,-0.0927734,-0.977051
73355652828,0.233398,-0.0922852,-0.977051
73355675241,0.234375,-0.0839844,-0.97998
73355682772,0.233887,-0.09375,-0.975586
73355703829,0.228516,-0.0898438,-0.977539
73355720266,0.212891,-0.0976562,-0.978516
73355748862,0.216797,-0.0810547,-0.978516
73355757086,0.214844,-0.104492,-0.977539
73355780242,0.21875,-0.0917969,-0.977539
73355801781,0.219238,-0.0976562,-0.976562
73355833224,0.224121,-0.103027,-0.978516
73355862932,0.230957,-0.10498,-0.977539
73355886501,0.231445,-0.0996094,-0.979492
73355887248,0.240234,-0.0839844,-0.977539
73355907141,0.229004,-0.111816,-0.970215
73355937853,0.217773,-0.107422,-0.977051
73355961018,0.216797,-0.11377,-0.974121
73355961858,0.226562,-0.101074,-0.972656
73355990383,0.227051,-0.0991211,-0.971191
73356013133,0.228027,-0.0966797,-0.977051
73356035367,0.226074,-0.105957,-0.972656
73356057221,0.229492,-0.100098,-0.98584
73356063934,0.227539,-0.10791,-0.972168
73356087853,0.229492,-0.097168,-0.977539
73356110438,0.224121,-0.110352,-0.975586
73356148463,0.224121,-0.117676,-0.975586
73356150089,0.226562,-0.130371,-0.979492
73356162822,0.228027,-0.107422,-0.973633
73356184661,0.228027,-0.123047,-0.96582
73356199647,0.229004,-0.117188,-0.977539
73356222760,0.225098,-0.119629,-0.979004
73356237112,0.219727,-0.123047,-0.970215
73356260257,0.214355,-0.125,-0.969727
73356288869,0.214355,-0.117188,-0.972656
73356297088,0.225098,-0.121582,-0.974121
73356320318,0.23291,-0.117676,-0.973145
73356341330,0.229004,-0.110352,-0.967773
73356357174,0.234863,-0.111816,-0.981445
73356380319,0.230469,-0.118652,-0.983887
73356402521,0.226074,-0.120117,-0.977539
73356417208,0.21875,-0.127441,-0.977051
73356439729,0.206055,-0.12793,-0.980957
73356462864,0.214355,-0.143555,-0.975586
73356477160,0.228516,-0.140137,-0.972656
73356499703,0.220215,-0.118164,-0.982422
73356530292,0.218262,-0.105469,-0.988281
73356545269,0.211426,-0.125,-0.976074
73356559641,0.214844,-0.125488,-0.973633
73356582824,0.223145,-0.122559,-0.976562
73356597141,0.21875,-0.114746,-0.975098
73356619653,0.220703,-0.119141,-0.97168
73356642794,0.223633,-0.121582,-0.970215
73356657113,0.222168,-0.125488,-0.973633
73356679639,0.225098,-0.119141,-0.970703
73356702763,0.22998,-0.114746,-0.975586
73356717148,0.225586,-0.122559,-0.979004
73356739740,0.221191,-0.10791,-0.969727
73356770362,0.223145,-0.125,-0.977539
73356784527,0.234375,-0.126465,-0.978027
73356799715,0.236816,-0.123535,-0.973145
73356822846,0.225586,-0.117188,-0.984863
73356837160,0.233887,-0.119141,-0.98291
73356859759,0.21875,-0.14209,-0.970703
73356882891,0.217285,-0.131348,-0.979004
73356921071,0.21875,-0.125488,-0.967285
73356922739,0.21875,-0.117188,-0.97168
73356950348,0.223633,-0.118652,-0.977539
73356964722,0.230957,-0.119141,-0.975098
73356995786,0.229004,-0.131836,-0.97168
73357018564,0.219727,-0.117188,-0.976074
73357020165,0.217773,-0.125488,-0.96875
73357039693,0.214844,-0.107422,-0.974609
73357062857,0.226074,-0.126465,-0.972656
73357083976,0.233887,-0.126465,-0.974609
73357099668,0.231445,-0.125977,-0.98291
73357122820,0.227539,-0.119629,-0.978516
73357143866,0.229492,-0.13916,-0.978027
73357174690,0.219727,-0.126465,-0.974121
73357181499,0.217773,-0.11377,-0.974609
73357205974,0.227051,-0.119141,-0.975586
73357227909,0.214355,-0.132324,-0.983887
73357242831,0.214844,-0.123047,-0.971191
73357263946,0.216797,-0.133301,-0.979492
73357279759,0.215332,-0.128418,-0.975586
73357302895,0.215332,-0.112305,-0.976562
73357323925,0.217773,-0.121582,-0.97998
73357339699,0.212891,-0.145996,-0.970215
73357362797,0.210938,-0.133301,-0.972168
73357383907,0.210938,-0.119629,-0.975098
73357399664,0.216797,-0.119629,-0.975098
73357422166,0.224121,-0.114746,-0.977539
73357445322,0.217773,-0.126953,-0.97168
73357481375,0.220703,-0.113281,-0.979492
73357506121,0.215332,-0.110352,-0.97998
73357506900,0.221191,-0.120605,-0.98291
73357527909,0.223145,-0.12207,-0.97998
73357557909,0.219727,-0.121094,-0.977539
73357581052,0.209961,-0.111816,-0.973633
73357581865,0.20752,-0.123047,-0.978516
73357602162,0.211426,-0.131348,-0.973633
73357617257,0.214355,-0.12207,-0.97998
73357647867,0.220215,-0.12207,-0.974609
73357670396,0.219727,-0.126953,-0.981934
73357678750,0.217285,-0.126953,-0.973633
73357699685,0.214844,-0.112793,-0.983398
73357737121,0.217773,-0.115234,-0.973633
73357743824,0.218262,-0.112793,-0.974121
73357767846,0.214844,-0.116211,-0.981934
73357790355,0.210449,-0.106934,-0.980469
73357812263,0.211426,-0.102051,-0.97168
73357843615,0.211426,-0.112305,-0.985352
73357844404,0.211914,-0.123535,-0.982422
73357865397,0.214844,-0.115234,-0.977539
73357880377,0.214844,-0.11084,-0.979004
73357902280,0.22168,-0.114258,-0.980957
73357925393,0.226562,-0.106934,-0.979004
73357946374,0.222656,-0.115723,-0.979004
73357962170,0.220215,-0.115234,-0.980957
73357985324,0.216309,-0.11377,-0.978516
73358006929,0.209961,-0.123047,-0.974609
73358022295,0.205566,-0.125,-0.977539
73358045372,0.207031,-0.123535,-0.974121
73358066453,0.217285,-0.11084,-0.980469
73358082251,0.21875,-0.114258,-0.972168
73358121112,0.209961,-0.129883,-0.981934
73358121902,0.213867,-0.12793,-0.978516
73358148971,0.206543,-0.126465,-0.976074
73358172875,0.212891,-0.123535,-0.976562
73358195351,0.210449,-0.126465,-0.979004
73358200709,0.212891,-0.131836,-0.976562
73358225387,0.209961,-0.141113,-0.973633
73358247909,0.206543,-0.136719,-0.975098
73358270440,0.208984,-0.139648,-0.97168
73358301032,0.22168,-0.128418,-0.979492
73358302721,0.231445,-0.126465,-0.974609
73358322931,0.226562,-0.137695,-0.977539
73358344693,0.221191,-0.134277,-0.984375
73358384240,0.212402,-0.129395,-0.979492
73358390318,0.224121,-0.124512,-0.994141
73358399329,0.213867,-0.141602,-0.969727
73358419713,0.211426,-0.129883,-0.975098
73358441841,0.209961,-0.129395,-0.969238
73358455726,0.214355,-0.141602,-0.96875
73358478236,0.217773,-0.145996,-0.973145
73358501415,0.21582,-0.14209,-0.972168
73358515731,0.224121,-0.126465,-0.96875
73358538276,0.225098,-0.138184,-0.969238
73358561465,0.229492,-0.134277,-0.968262
73358575819,0.221191,-0.134277,-0.977051
73358598319,0.220215,-0.135742,-0.974609
73358621444,0.215332,-0.143555,-0.975586
73358635847,0.22168,-0.13623,-0.979492
73358658328,0.22168,-0.128906,-0.976074
73358681485,0.217285,-0.134277,-0.980957
73358695788,0.222656,-0.137207,-0.97168
73358718257,0.22168,-0.15332,-0.980469
73358741417,0.21875,-0.148438,-0.971191
73358755754,0.216309,-0.138672,-0.969238
73358778392,0.216797,-0.147461,-0.972656
73358801912,0.222168,-0.148438,-0.968262
73358815837,0.225586,-0.149414,-0.972168
73358838306,0.225098,-0.151367,-0.972168
73358861544,0.222656,-0.14502,-0.971191
73358875806,0.220703,-0.149902,-0.972656
73358898358,0.230469,-0.140137,-0.96875
73358922931,0.228516,-0.149902,-0.972656
73358952902,0.229004,-0.143066,-0.978516
73358973958,0.23291,-0.141113,-0.979004
73358998946,0.226074,-0.130859,-0.974609
73359003217,0.227539,-0.130859,-0.974609
73359020345,0.228027,-0.13623,-0.971191
73359048884,0.228516,-0.138672,-0.97168
73359072934,0.22998,-0.141113,-0.970215
73359095413,0.225586,-0.134277,-0.971191
73359117285,0.224121,-0.143555,-0.968262
73359124042,0.225098,-0.147461,-0.963867
73359147899,0.221191,-0.152832,-0.972656
73359170422,0.216797,-0.145996,-0.96875
73359199627,0.212891,-0.156738,-0.960938
73359201269,0.209961,-0.146484,-0.972168
73359230372,0.233398,-0.116699,-0.975586
73359245344,0.23291,-0.146484,-0.97168
73359273871,0.231445,-0.143066,-0.977539
73359298619,0.230957,-0.160156,-0.969727
73359300184,0.231445,-0.143066,-0.975098
73359320366,0.225586,-0.141602,-0.973633
73359349028,0.219238,-0.123535,-0.97168
73359372934,0.221191,-0.130859,-0.973633
73359395418,0.223633,-0.14209,-0.974121
73359417257,0.22168,-0.145996,-0.969238
73359424025,0.209473,-0.124023,-0.969238
73359447967,0.211426,-0.121582,-0.975586
73359477261,0.216797,-0.137695,-0.967285
73359484007,0.225098,-0.145996,-0.972656
73359500433,0.223633,-0.138184,-0.974121
73359529806,0.227051,-0.122559,-0.919434
73359552922,0.284668,-0.140625,-0.915039
73359567914,0.133301,-0.0634766,-0.79248
73359582917,0.369141,-0.225098,-0.945312
73359603963,0.306152,-0.155273,-1.19043
73359621183,0.221191,-0.112793,-1.24414
73359650478,0.19043,-0.104492,-1.24365
73359664740,0.22168,-0.105469,-1.24951
73359687874,0.333008,-0.119629,-1.19238
73359702934,0.43457,-0.183105,-0.975098
73359725773,0.282715,-0.183105,-0.712891
73359748495,-0.0507812,-0.111816,-0.985352
73359760836,0.239258,-0.112305,-1.19629
73359775812,0.223145,-0.139648,-1.01514
73359798360,0.23291,-0.125,-0.991699
73359820793,0.226562,-0.15332,-0.981445
73359835834,0.213867,-0.13916,-0.983398
73359858290,0.200684,-0.154785,-0.969727
73359880816,0.203613,-0.151367,-0.974609
73359895821,0.208008,-0.152832,-0.972656
73359918390,0.215332,-0.132324,-0.972168
73359940849,0.214844,-0.139648,-0.981934
73359955874,0.220215,-0.141602,-0.971191
73359978288,0.226562,-0.132324,-0.969238
73360000856,0.226562,-0.132324,-0.968262
73360015822,0.22998,-0.131836,-0.970703
73360038417,0.221191,-0.13623,-0.965332
73360060790,0.219238,-0.129883,-0.978516
73360075857,0.22168,-0.140137,-0.973145
73360098349,0.220703,-0.150879,-0.97998
73360120790,0.228027,-0.141602,-0.974121
73360135841,0.222168,-0.146973,-0.979004
73360158389,0.21582,-0.15625,-0.976074
73360180811,0.211914,-0.164551,-0.969727
73360195816,0.208984,-0.154785,-0.976562
73360218311,0.212891,-0.15918,-0.963379
73360240718,0.221191,-0.150391,-0.967285
73360264804,0.228516,-0.146973,-0.96875
73360278274,0.237793,-0.144043,-0.967773
73360300771,0.239746,-0.14209,-0.969238
73360323348,0.230957,-0.14209,-0.978516
73360338391,0.218262,-0.148926,-0.970215
73360360878,0.209473,-0.148438,-0.971191
73360377261,0.211426,-0.150391,-0.975586
73360398369,0.224121,-0.148926,-0.977539
73360420781,0.220703,-0.172363,-0.979492
73360437186,0.237305,-0.149414,-0.977051
73360458261,0.245117,-0.166992,-0.966797
73360480743,0.23584,-0.163574,-0.974121
73360497904,0.237793,-0.154297,-0.970215
73360518249,0.224609,-0.160156,-0.964355
73360549008,0.238281,-0.155762,-0.970215
73360557293,0.24707,-0.151855,-0.963867
73360578363,0.241699,-0.167969,-0.95752
73360600868,0.241699,-0.14209,-0.962402
73360617307,0.240723,-0.126953,-0.965332
73360638382,0.225586,-0.108887,-0.967285
73360660843,0.243652,-0.0986328,-0.962891
73360684714,0.25293,-0.123047,-0.952637
73360701196,0.243652,-0.12207,-0.966797
73360720763,0.233887,-0.141602,-0.960449
73360737271,0.25293,-0.124512,-0.976074
73360761219,0.26709,-0.127441,-0.96875
73360780805,0.268066,-0.119141,-0.973633
73360797315,0.259277,-0.144531,-0.973633
73360818341,0.259277,-0.121094,-0.973633
73360840893,0.248047,-0.133789,-0.969238
73360857344,0.239258,-0.126953,-0.969238
73360879748,0.239258,-0.117188,-0.970703
73360900906,0.243652,-0.13623,-0.962891
73360917272,0.260254,-0.117188,-0.960449
73360946442,0.254883,-0.13623,-0.960938
73360960767,0.251465,-0.123535,-0.967285
73360977249,0.264648,-0.123047,-0.956543
73361007918,0.268066,-0.132812,-0.969727
73361052959,0.256348,-0.135742,-0.962891
73361060494,0.258301,-0.126953,-0.971191
73361083060,0.263672,-0.131836,-0.969727
73361083757,0.266113,-0.116211,-0.972168
73361112985,0.256348,-0.126465,-0.963867
73361120398,0.258301,-0.127441,-0.973145
73361140836,0.253906,-0.129395,-0.961914
73361157232,0.253906,-0.123535,-0.965332
73361179789,0.256836,-0.121094,-0.960938
73361200884,0.255859,-0.115234,-0.967285
73361217231,0.26416,-0.106445,-0.95459
73361239722,0.262207,-0.113281,-0.965332
73361270424,0.264648,-0.125488,-0.961914
73361292877,0.26416,-0.130371,-0.962891
73361322229,0.265625,-0.126465,-0.961914
73361322991,0.261719,-0.117676,-0.959961
73361343388,0.265137,-0.135254,-0.963867
73361359777,0.27002,-0.126465,-0.963867
73361380916,0.27002,-0.123047,-0.96582
73361397273,0.273926,-0.118652,-0.965332
73361419843,0.262207,-0.132324,-0.959473
73361440848,0.254883,-0.126465,-0.965332
73361457251,0.251465,-0.119629,-0.959473
73361487867,0.255371,-0.12207,-0.964844
73361516474,0.275391,-0.0917969,-0.966309
73361525422,0.291504,-0.118652,-0.956055
73361539794,0.277832,-0.125488,-0.97168
73361560819,0.263184,-0.125,-0.972656
73361577264,0.256836,-0.127441,-0.962402
73361599788,0.252441,-0.121582,-0.956543
73361620810,0.254883,-0.124512,-0.967773
73361652968,0.255371,-0.123047,-0.959961
73361675441,0.256836,-0.121094,-0.964355
73361697259,0.26123,-0.118164,-0.962402
73361703955,0.261719,-0.118164,-0.961426
73361727913,0.266602,-0.120605,-0.95459
73361750372,0.260742,-0.11377,-0.96582
73361772241,0.255859,-0.0986328,-0.96582
73361803700,0.253418,-0.105469,-0.966309
73361804485,0.260742,-0.102051,-0.970215
73361825474,0.265137,-0.123047,-0.967773
73361854009,0.269043,-0.112305,-0.976074
73361878747,0.260254,-0.10498,-0.966797
73361880279,0.26416,-0.111328,-0.964844
73361900487,0.264648,-0.115723,-0.967773
73361922964,0.253418,-0.126953,-0.967285
73361951537,0.252441,-0.116211,-0.963379
73361975453,0.254395,-0.111328,-0.962891
73361997961,0.255371,-0.121094,-0.95752
73361998758,0.262695,-0.123535,-0.954102
73362027895,0.263184,-0.113281,-0.961914
73362050389,0.266602,-0.101562,-0.964355
73362072911,0.273438,-0.12207,-0.962891
73362102256,0.269043,-0.114258,-0.964355
73362102992,0.26416,-0.0986328,-0.966309
73362125519,0.271973,-0.0834961,-0.990234
73362147985,0.26416,-0.117676,-0.96582
73362201019,0.260254,-0.125977,-0.958008
73362203415,0.247559,-0.129395,-0.963867
73362230515,0.243652,-0.103516,-0.966309
73362237986,0.254395,-0.11084,-0.960449
73362260024,0.266113,-0.128906,-0.959961
73362281470,0.268066,-0.129395,-0.970703
73362297923,0.262695,-0.125488,-0.966797
73362319071,0.26416,-0.104004,-0.966797
73362341582,0.265137,-0.116211,-0.963867
73362357999,0.259277,-0.133789,-0.960938
73362395535,0.257812,-0.129395,-0.955566
73362426163,0.258789,-0.12793,-0.962402
73362426913,0.260742,-0.114258,-0.959961
73362455466,0.277344,-0.109375,-0.970215
73362470501,0.293945,-0.128906,-0.975098
73362492954,0.279297,-0.116699,-0.965332
73362522231,0.263672,-0.097168,-0.962402
73362523263,0.259766,-0.106934,-0.958984
73362545526,0.250488,-0.106934,-0.959961
73362567331,0.25293,-0.110352,-0.961426
73362598691,0.256836,-0.109375,-0.958008
73362600264,0.27002,-0.097168,-0.968262
73362620592,0.266113,-0.0898438,-0.960938
73362642977,0.268555,-0.0976562,-0.963379
73362658026,0.285645,-0.0727539,-0.97168
73362679018,0.284668,-0.0810547,-0.969727
73362701486,0.28125,-0.0737305,-0.972168
73362717987,0.26416,-0.0810547,-0.962891
73362739054,0.254395,-0.0712891,-0.963379
73362761550,0.257324,-0.0712891,-0.955566
73362785401,0.272949,-0.0761719,-0.956543
73362806971,0.272461,-0.0776367,-0.95459
73362824365,0.277344,-0.0615234,-0.955078
73362838746,0.293457,-0.0742188,-0.953613
73362859071,0.289551,-0.081543,-0.953125
73362881551,0.286621,-0.104492,-0.95752
73362897935,0.281738,-0.0986328,-0.962402
73362919062,0.279297,-0.0986328,-0.959961
73362941564,0.264648,-0.102051,-0.95752
73362957963,0.272461,-0.0595703,-0.975586
73363003554,0.306641,-0.0917969,-0.973633
73363005965,0.299805,-0.106934,-0.968262
73363017991,0.294922,-0.0766602,-0.970703
73363039063,0.291504,-0.0732422,-0.969727
73363061567,0.286133,-0.043457,-0.96875
73363077318,0.280273,-0.0629883,-0.963867
73363100899,0.27832,-0.0805664,-0.961914
73363121596,0.257812,-0.0932617,-0.955078
73363137367,0.236816,-0.110352,-0.95166
73363177566,0.239258,-0.104492,-0.95459
73363183001,0.257812,-0.117188,-0.956543
73363197361,0.278809,-0.104004,-0.956543
73363220473,0.291016,-0.097168,-0.96875
73363241515,0.302246,-0.102539,-0.972168
73363257296,0.296387,-0.090332,-0.967285
73363280541,0.280273,-0.0961914,-0.955566
73363301315,0.28418,-0.0883789,-0.966309
73363354704,0.285645,-0.106445,-0.963867
73363355522,0.270996,-0.120117,-0.962402
73363363032,0.283203,-0.0839844,-0.966309
73363377383,0.308594,-0.0952148,-0.987793
73363400536,0.26123,-0.119141,-1.00879
73363421580,0.277344,-0.0986328,-0.97168
73363437362,0.273438,-0.0307617,-0.968262
73363460542,0.265625,-0.0776367,-0.963867
73363481541,0.280273,-0.0639648,-0.959473
73363497782,0.280273,-0.0595703,-0.961914
73363520943,0.262207,-0.0805664,-0.96875
73363541589,0.263672,-0.0585938,-0.960449
73363557355,0.26709,-0.0424805,-0.962891
73363580487,0.296875,-0.0141602,-0.97168
73363601592,0.29248,-0.0283203,-0.967773
73363632284,0.300781,-0.00927734,-0.971191
73363663757,0.285156,-0.0615234,-0.976074
73363664433,0.267578,-0.0356445,-0.970703
73363685481,0.256836,-0.046875,-0.95166
73363714066,0.262695,-0.0439453,-0.950684
73363722960,0.275391,-0.0454102,-0.949219
73363737291,0.293457,-0.043457,-0.952637
73363775475,0.317383,-0.0419922,-0.959473
73363780906,0.324707,-0.043457,-0.956055
73363803993,0.330078,-0.0498047,-0.963379
73363822339,0.333008,-0.0395508,-0.963379
73363841526,0.312988,-0.0708008,-0.95459
73363863966,0.297852,-0.0625,-0.956055
73363886286,0.294922,-0.0751953,-0.95752
73363901518,0.291504,-0.074707,-0.950684
73363924121,0.284668,-0.0786133,-0.956543
73363940494,0.297852,-0.0556641,-0.956055
73363961339,0.305176,-0.0683594,-0.958496
73363984114,0.303711,-0.0766602,-0.958008
73364000911,0.296387,-0.081543,-0.962891
73364021544,0.290527,-0.0864258,-0.95752
73364045559,0.286133,-0.102051,-0.959961
73364059860,0.281738,-0.0888672,-0.956543
73364083033,0.275391,-0.097168,-0.957031
73364097320,0.278809,-0.0957031,-0.959961
73364119813,0.291504,-0.0986328,-0.960938
73364142954,0.30957,-0.0913086,-0.955078
73364158025,0.309082,-0.105957,-0.953125
73364179816,0.290039,-0.107422,-0.958008
73364209003,0.28418,-0.100586,-0.958984
73364217305,0.289551,-0.107422,-0.951172
73364239796,0.291016,-0.102051,-0.945801
73364262955,0.300293,-0.0874023,-0.953613
73364277323,0.30127,-0.101074,-0.956543
73364299798,0.302246,-0.0996094,-0.955566
73364323010,0.296875,-0.109375,-0.956055
73364368562,0.296387,-0.102539,-0.956543
73364370998,0.294922,-0.109375,-0.956543
73364383757,0.286133,-0.107422,-0.960449
73364397799,0.284668,-0.126953,-0.952637
73364419905,0.286621,-0.114258,-0.956055
73364443055,0.281738,-0.122559,-0.955078
73364457393,0.276855,-0.108398,-0.959473
73364504365,0.288574,-0.0922852,-0.953613
73364517957,0.304688,-0.115234,-0.953613
73364520387,0.310059,-0.101562,-0.960449
73364539868,0.306152,-0.117676,-0.964355
73364563083,0.29541,-0.103027,-0.958008
73364584124,0.290527,-0.112793,-0.955078
73364599888,0.280273,-0.110352,-0.95459
73364623031,0.274414,-0.117676,-0.958008
73364644063,0.281738,-0.108887,-0.959473
73364666962,0.28418,-0.121094,-0.963867
73364698737,0.274902,-0.121582,-0.963867
73364720556,0.266602,-0.12793,-0.964844
73364721337,0.260742,-0.128906,-0.961426
73364742998,0.265137,-0.117676,-0.955078
73364764127,0.261719,-0.131348,-0.95752
73364779804,0.265625,-0.111816,-0.963379
73364803439,0.275391,-0.0893555,-0.966797
73364831610,0.287109,-0.0888672,-0.960938
73364848012,0.291992,-0.0996094,-0.96582
73364863038,0.28418,-0.102539,-0.964844
73364884070,0.262207,-0.124023,-0.961426
73364899865,0.242188,-0.149414,-0.966309
73364923066,0.259277,-0.13916,-0.965332
73364944059,0.250488,-0.125488,-0.966309
73364959821,0.227539,-0.0986328,-0.966797
73364989107,0.229004,-0.0961914,-0.964355
73365005741,0.274414,-0.0932617,-0.963379
73365019875,0.29248,-0.10791,-0.956543
73365042454,0.290527,-0.103516,-0.95752
73365081195,0.310059,-0.0302734,-0.968262
73365082015,0.30127,-0.0795898,-0.963867
73365103021,0.289062,-0.115723,-0.960938
73365131529,0.302246,-0.141113,-0.958496
73365179362,0.310547,-0.155762,-0.945312
73365185458,0.283691,-0.197754,-0.952148
73365186268,0.22168,-0.160645,-0.961426
73365207959,0.219238,-0.0996094,-0.971191
73365236507,0.263672,-0.159668,-0.946289
73365261126,0.29834,-0.0737305,-0.978027
73365262067,0.353516,-0.0551758,-0.951172
73365289095,0.341797,-0.132812,-0.941895
73365313774,0.321777,-0.131348,-0.964355
73365334808,0.315918,-0.272949,-0.946777
73365341552,0.311523,-0.300293,-0.918945
73365365458,0.309082,-0.244141,-0.92627
73365380439,0.281738,-0.203125,-0.91748
73365402971,0.271484,-0.0922852,-0.946777
73365415842,0.266602,-0.165527,-0.92627
73365438335,0.251953,-0.215332,-0.941895
73365461496,0.253906,-0.220703,-0.943848
73365475878,0.263672,-0.19043,-0.958496
73365499064,0.251953,-0.15332,-0.966797
73365521512,0.241211,-0.110352,-0.97998
73365535894,0.265137,-0.115234,-0.958984
73365568825,0.253906,-0.153809,-0.973145
73365598399,0.263184,-0.130859,-0.983398
73365605448,0.280762,-0.149902,-0.962402
73365619849,0.28418,-0.133789,-0.962402
73365634838,0.294922,-0.109863,-1.04639
73365655879,0.349121,-0.13623,-1.0127
73365679043,0.274414,-0.153809,-0.981445
73365693371,0.257812,-0.145508,-0.957031
73365715895,0.251953,-0.137695,-0.953125
73365739010,0.256348,-0.140137,-0.948242
73365753418,0.24707,-0.146973,-0.955566
73365775903,0.240723,-0.154297,-0.961914
73365799044,0.246094,-0.138672,-0.958984
73365813368,0.231934,-0.14502,-0.966797
73365835890,0.235352,-0.120117,-0.973633
73365859098,0.242188,-0.0986328,-0.977051
73365873432,0.257324,-0.0654297,-0.981934
73365895917,0.268555,-0.101562,-0.976562
73365918418,0.280273,-0.106445,-0.980469
73365933410,0.27832,-0.109375,-0.981445
73365955914,0.272949,-0.114258,-0.966797
73365978368,0.256836,-0.123047,-0.962891
73365993395,0.244629,-0.125,-0.959961
73366015898,0.236328,-0.159668,-0.95459
73366038377,0.235352,-0.142578,-0.960449
73366053422,0.243164,-0.146973,-0.95752
73366075857,0.251953,-0.126953,-0.956055
73366098400,0.245117,-0.14209,-0.958984
73366113396,0.243164,-0.135742,-0.970215
73366135912,0.250977,-0.146484,-0.957031
73366158408,0.253418,-0.140137,-0.964355
73366173423,0.263672,-0.120117,-0.969238
73366195841,0.265625,-0.110352,-0.96875
73366218404,0.266602,-0.119629,-0.975098
73366233382,0.261719,-0.13916,-0.970215
73366255909,0.260254,-0.141113,-0.967285
73366280484,0.257324,-0.11084,-0.972656
73366309028,0.251465,-0.108398,-0.96582
73366332993,0.24707,-0.119629,-0.974609
73366356211,0.242676,-0.135742,-0.96875
73366357820,0.23584,-0.146973,-0.958984
73366375873,0.23877,-0.106445,-0.965332
73366398387,0.245117,-0.108887,-0.957031
73366413403,0.244141,-0.116211,-0.967285
73366435903,0.250977,-0.135742,-0.966797
73366458405,0.25,-0.145508,-0.963379
73366473382,0.25293,-0.114746,-0.969238
73366495929,0.256836,-0.105469,-0.966797
73366518466,0.247559,-0.101562,-0.969238
73366533409,0.249023,-0.0820312,-0.974609
73366555895,0.25293,-0.102539,-0.963379
73366579869,0.252441,-0.115723,-0.969238
73366593384,0.242188,-0.12207,-0.967285
73366615939,0.240723,-0.0942383,-0.970215
73366638392,0.248047,-0.097168,-0.969727
73366653426,0.244141,-0.112793,-0.96582
73366675922,0.23877,-0.11377,-0.97168
73366698432,0.23584,-0.122559,-0.96875
73366713409,0.233398,-0.124512,-0.973145
73366735902,0.23584,-0.110352,-0.975586
73366758413,0.232422,-0.106934,-0.978027
73366773418,0.230469,-0.111328,-0.979492
73366795949,0.237793,-0.104492,-0.982422
73366818390,0.244141,-0.103516,-0.977539
73366833401,0.236328,-0.100098,-0.977051
73366855973,0.233398,-0.0927734,-0.974609
73366878466,0.222168,-0.12207,-0.970215
73366894985,0.220703,-0.117676,-0.969727
73366915973,0.227051,-0.115723,-0.973633
73366938529,0.229004,-0.10498,-0.972656
73366954958,0.222656,-0.112793,-0.974609
73366975987,0.219727,-0.111816,-0.974121
73366998494,0.211426,-0.107422,-0.980469
73367014935,0.215332,-0.111816,-0.977539
73367036032,0.216309,-0.108398,-0.981934
73367058468,0.219727,-0.114258,-0.980469
73367074929,0.220215,-0.118652,-0.980469
73367095972,0.216309,-0.126953,-0.970215
73367118507,0.219727,-0.117676,-0.980469
73367140966,0.222168,-0.114258,-0.978027
73367155992,0.224121,-0.120117,-0.975098
73367178493,0.217285,-0.120117,-0.977539
73367194911,0.219238,-0.0996094,-0.976562
73367215952,0.225098,-0.138672,-0.976074
73367238429,0.217773,-0.125977,-0.976562
73367260952,0.221191,-0.131348,-0.974609
73367276005,0.214844,-0.111816,-0.973145
73367298442,0.219238,-0.114258,-0.972656
73367314901,0.21582,-0.102539,-0.976562
73367335998,0.219727,-0.109863,-0.981934
73367358520,0.214355,-0.129395,-0.976074
73367374861,0.212891,-0.112793,-0.977051
73367395991,0.211914,-0.0996094,-0.97998
73367418479,0.217285,-0.10791,-0.977051
73367434930,0.217285,-0.128906,-0.974609
73367455939,0.209473,-0.13623,-0.980957
73367478492,0.206543,-0.125,-0.978516
73367494943,0.220703,-0.118164,-0.975586
73367516005,0.225098,-0.106934,-0.977051
73367538488,0.222168,-0.120605,-0.979492
73367554956,0.224121,-0.137695,-0.975098
73367576003,0.211426,-0.135742,-0.973145
73367598495,0.206543,-0.116211,-0.97168
73367615026,0.219238,-0.105957,-0.974121
73367645553,0.214844,-0.120605,-0.973145
73367668065,0.213379,-0.124023,-0.981445
73367697091,0.216309,-0.123047,-0.973633
73367721243,0.225586,-0.11377,-0.978516
73367722077,0.228516,-0.118164,-0.980469
73367743107,0.224121,-0.109375,-0.984863
73367758092,0.21875,-0.118652,-0.978027
73367778513,0.21582,-0.114746,-0.976074
73367802437,0.228516,-0.106934,-0.974121
73367833785,0.230469,-0.11377,-0.970215
73367856262,0.226074,-0.121094,-0.980957
73367857876,0.222656,-0.11377,-0.976562
73367877403,0.22168,-0.112793,-0.979492
73367908092,0.21875,-0.109375,-0.983398
73367930611,0.218262,-0.115234,-0.976562
73367953144,0.226562,-0.108887,-0.984375
73367960630,0.220703,-0.0991211,-0.97998
73367976349,0.221191,-0.0932617,-0.973145
73367997420,0.223145,-0.0991211,-0.976562
73368018554,0.230957,-0.104492,-0.976074
73368034921,0.229004,-0.108887,-0.975586
73368057451,0.229004,-0.101074,-0.981934
73368078554,0.219727,-0.0986328,-0.978027
73368094914,0.231445,-0.0976562,-0.974609
73368125568,0.23291,-0.0917969,-0.977539
73368154161,0.238281,-0.0693359,-0.974609
73368178817,0.235352,-0.0869141,-0.979004
73368179680,0.233398,-0.090332,-0.974609
73368201000,0.228027,-0.0771484,-0.977539
73368229180,0.241211,-0.0864258,-0.964355
73368253081,0.238281,-0.0996094,-0.975098
73368276299,0.22168,-0.0810547,-0.969727
73368277977,0.219727,-0.0771484,-0.976074
73368304171,0.230957,-0.0825195,-0.983398
73368328079,0.240234,-0.0864258,-0.978027
73368350564,0.232422,-0.0727539,-0.978516
73368372463,0.23291,-0.0800781,-0.970703
73368379884,0.225098,-0.0839844,-0.986328
73368403057,0.224609,-0.065918,-0.974121
73368425552,0.224121,-0.0874023,-0.979004
73368448189,0.231445,-0.0830078,-0.975586
73368476620,0.224121,-0.0751953,-0.976074
73368501242,0.226562,-0.0615234,-0.969727
73368502075,0.224121,-0.0878906,-0.981934
73368523161,0.230469,-0.0761719,-0.973145
73368551622,0.225098,-0.0776367,-0.977051
73368575619,0.22168,-0.078125,-0.977051
73368598844,0.223633,-0.104004,-0.976562
73368599665,0.224609,-0.0820312,-0.984863
73368634177,0.22168,-0.0751953,-0.985352
73368650619,0.22168,-0.0615234,-0.986328
73368673096,0.224121,-0.0639648,-0.978516
73368694899,0.212891,-0.0986328,-0.979492
73368701615,0.208984,-0.0908203,-0.973633
73368725604,0.210938,-0.104492,-0.981445
73368748135,0.217285,-0.0922852,-0.981445
73368776786,0.218262,-0.0854492,-0.97998
73368801277,0.213867,-0.0986328,-0.981934
73368802139,0.209961,-0.090332,-0.983398
73368823130,0.214355,-0.0854492,-0.981445
73368844984,0.213867,-0.0947266,-0.97998
73368875619,0.213379,-0.0942383,-0.980957
73368898781,0.20459,-0.074707,-0.976562
73368899582,0.210449,-0.0825195,-0.985352
73368920644,0.20459,-0.0996094,-0.977051
73368949138,0.208496,-0.0908203,-0.978027
73368973136,0.204102,-0.101074,-0.986328
73368996296,0.203613,-0.107422,-0.980957
73368997109,0.209961,-0.100586,-0.983887
73369024187,0.20166,-0.10498,-0.979492
73369048129,0.197754,-0.0961914,-0.986328
73369070736,0.205078,-0.0844727,-0.985352
73369092425,0.210449,-0.0991211,-0.983398
73369099983,0.203613,-0.0986328,-0.980469
73369123069,0.202148,-0.0957031,-0.977051
73369145636,0.208496,-0.0976562,-0.979004
73369174137,0.205566,-0.100098,-0.987793
73369198765,0.203125,-0.100098,-0.985352
73369199586,0.205566,-0.103027,-0.980957
73369220647,0.20459,-0.0961914,-0.984863
73369249266,0.200195,-0.102539,-0.987793
73369273090,0.20459,-0.101074,-0.978516
73369296302,0.200684,-0.09375,-0.98291
73369297102,0.200684,-0.097168,-0.979492
73369324178,0.199707,-0.102539,-0.984863
73369348161,0.200684,-0.0961914,-0.981445
73369370693,0.20459,-0.0805664,-0.984863
73369399851,0.20459,-0.0981445,-0.982422
73369400749,0.200684,-0.0966797,-0.984375
73369423065,0.200684,-0.0922852,-0.988281
73369445953,0.198242,-0.0942383,-0.977539
73369467400,0.195312,-0.100098,-0.983398
73369498743,0.203613,-0.0893555,-0.97998
73369500368,0.203125,-0.106445,-0.979492
73369520550,0.192871,-0.108887,-0.980957
73369542376,0.189941,-0.104004,-0.983887
73369573101,0.193848,-0.101074,-0.978516
73369595525,0.200684,-0.104492,-0.979492
73369626408,0.200195,-0.106445,-0.983887
73369627164,0.197266,-0.105957,-0.97998
73369648777,0.198242,-0.100098,-0.98291
73369665219,0.204102,-0.100098,-0.982422
73369678094,0.200684,-0.108398,-0.981934
73369700565,0.202148,-0.0952148,-0.983398
73369723134,0.20459,-0.102539,-0.979004
73369738953,0.199219,-0.100586,-0.978027
73369763476,0.203125,-0.103027,-0.982422
73369783052,0.206543,-0.100098,-0.974121
73369813076,0.204102,-0.0996094,-0.984375
73369834877,0.203125,-0.0952148,-0.984863
73369841576,0.211426,-0.0986328,-0.977051
73369858873,0.209961,-0.100098,-0.983887
73369880562,0.205566,-0.0966797,-0.981445
73369910520,0.199707,-0.105957,-0.981934
73369939801,0.199707,-0.10791,-0.983887
73369940651,0.191895,-0.103516,-0.977051
73369963137,0.197266,-0.102539,-0.977539
73369985733,0.196289,-0.111328,-0.979492
73370007429,0.200684,-0.10498,-0.98584
73370039298,0.204102,-0.101562,-0.983398
73370040895,0.205078,-0.103027,-0.98584
73370060721,0.203125,-0.114746,-0.980469
73370082455,0.206543,-0.113281,-0.980469
73370120566,0.206543,-0.111328,-0.977051
73370136042,0.197754,-0.11084,-0.979004
73370140952,0.197754,-0.112305,-0.986328
73370157399,0.201172,-0.10791,-0.982422
73370188080,0.196777,-0.112793,-0.98291
73370210556,0.202148,-0.112793,-0.980957
73370233067,0.20166,-0.111816,-0.983398
73370246133,0.204102,-0.105469,-0.977051
73370263156,0.199707,-0.10791,-0.982422
73370285699,0.199219,-0.109375,-0.977051
73370308156,0.20166,-0.112305,-0.97998
73370337390,0.205566,-0.108887,-0.97998
73370338949,0.204102,-0.114258,-0.981445
73370360783,0.203125,-0.117676,-0.976074
73370382483,0.199707,-0.11084,-0.981934
73370413499,0.197266,-0.111816,-0.980957
73370436274,0.201172,-0.113281,-0.981934
73370437923,0.200684,-0.109863,-0.984863
73370464067,0.198242,-0.11377,-0.985352
73370488078,0.204102,-0.105469,-0.979004
73370510553,0.199707,-0.110352,-0.987305
73370539224,0.20166,-0.111816,-0.983398
73370563829,0.201172,-0.097168,-0.989258
73370564735,0.214355,-0.101562,-0.983887
73370593143,0.202148,-0.134766,-0.982422
73370615664,0.199219,-0.124023,-0.98291
73370638834,0.209961,-0.107422,-0.978027
73370639733,0.209473,-0.0654297,-0.985352
73370666727,0.217773,-0.0693359,-0.986328
73370690735,0.208984,-0.136719,-0.97168
73370713117,0.215332,-0.181152,-0.97168
73370718567,0.203613,-0.136719,-0.98291
73370750677,0.211914,-0.0834961,-0.979004
73370803661,0.228516,-0.0678711,-0.97998
73370806143,0.225586,-0.0366211,-0.986328
73370819385,0.210449,-0.065918,-0.983398
73370820212,0.200195,-0.125977,-0.994629
73370839924,0.206543,-0.0976562,-0.991699
73370854909,0.210449,-0.0839844,-0.992676
73370886921,0.211426,-0.0664062,-0.989746
73370900737,0.216797,-0.0380859,-0.997559
73370924449,0.240723,-0.0244141,-0.990234
73370945578,0.22168,0.00146484,-1.00684
73370960748,0.237793,0.0883789,-1.02588
73370982162,0.250977,0.0703125,-1.0127
73371005729,0.275879,-0.00732422,-1.00684
73371020652,0.26123,0.0214844,-1.00488
73371049700,0.213867,-0.0151367,-0.998047
73371067147,0.213379,-0.046875,-0.977051
73371080681,0.248047,-0.0961914,-0.958008
73371101779,0.335449,-0.0361328,-0.940918
73371117500,0.445312,0.0668945,-0.932129
73371146687,0.465332,0.0576172,-0.901367
73371161771,0.419434,0.0532227,-0.90625
73371177491,0.375488,0.0786133,-0.90918
73371200680,0.366699,0.0654297,-0.881836
73371223071,0.430176,0.0761719,-0.86377
73371237878,0.453125,0.00683594,-0.862793
73371260544,0.490723,0.0341797,-0.861816
73371281747,0.571777,0.111816,-0.85498
73371297496,0.616699,0.11377,-0.810547
73371320702,0.602051,0.151855,-0.825684
73371341770,0.595215,0.124512,-0.828613
73371357482,0.523926,0.0610352,-0.79541
73371380741,0.540039,0.0561523,-0.827148
73371401753,0.57373,0.0722656,-0.811035
73371417548,0.580078,0.0805664,-0.804688
73371440646,0.61377,0.0893555,-0.765137
73371461670,0.69043,0.0932617,-0.73291
73371477426,0.699219,0.0849609,-0.716797
73371501135,0.713867,0.117188,-0.682617
73371521774,0.715332,0.182129,-0.662598
73371537567,0.806641,0.203613,-0.644531
73371560715,0.802246,0.166992,-0.60498
73371581741,0.729004,0.165039,-0.628418
73371597479,0.733887,0.0996094,-0.596191
73371619968,0.712891,0.0556641,-0.646484
73371641774,0.714355,0.116699,-0.616699
73371657519,0.86084,0.137207,-0.555664
73371679975,1.01465,0.123535,-0.499512
73371703081,1.07812,0.167969,-0.469727
73371717450,1.01367,0.203125,-0.452148
73371739948,0.927246,0.0615234,-0.543457
73371763085,0.80127,0.0117188,-0.588867
73371784190,0.789551,0.0571289,-0.604004
73371800044,0.779297,0.0664062,-0.56543
73371823120,0.852539,0.012207,-0.421387
73371845735,0.947266,-0.0214844,-0.385254
73371859988,1,0.0463867,-0.372559
73371883186,0.887207,0.114258,-0.484375
73371904206,0.914062,0.130371,-0.364746
73371920017,0.883789,0.156738,-0.172363
73371943211,0.738281,-0.0371094,0.130859
73371964200,0.839844,-0.217285,0.297852
73371979943,0.798828,-0.0664062,0.158203
73372010647,0.808105,0.0336914,0.0952148
73372024128,0.832031,0.0205078,0.0512695
73372039937,0.853516,0.0917969,-0.0302734
73372116205,0.921387,0.146973,-0.0820312
73372118602,1.00342,0.165039,-0.10791
73372125289,1.06445,0.164551,-0.172852
73372128991,1.09473,0.179199,-0.230469
73372144229,1.07275,0.176758,-0.327637
73372160034,1.11328,0.15332,-0.404297
73372183210,1.11084,0.0786133,-0.349121
73372204245,1.07764,0.0615234,-0.367188
73372219971,1.04834,0.112793,-0.547363
73372243146,0.989258,0.286621,-0.555664
73372264184,1.02148,0.245605,-0.480469
73372279959,0.963379,0.216309,0.0493164
73372303120,0.949219,0.00976562,0.366211
73372324236,0.999512,-0.0424805,0.0766602
73372340017,1.09619,-0.0205078,-0.163086
73372363167,1.01172,-0.0234375,-0.0273438
73372384238,0.940918,-0.105469,-0.0444336
73372399986,0.95459,-0.17627,-0.0825195
73372423183,0.961914,-0.168457,-0.0722656
73372445685,0.966797,-0.102539,0.0410156
73372460734,1.0957,-0.0791016,0.0776367
73372483153,1.09619,-0.081543,0.0556641
73372504020,1.02295,-0.0668945,0.0161133
73372519991,0.960449,-0.0805664,-0.015625
73372542498,0.933594,-0.17627,-0.0273438
73372556096,0.904785,-0.202148,-0.0170898
73372579244,0.927246,-0.172852,0.00439453
73372593626,0.948242,-0.140137,-0.0209961
73372616170,0.991699,-0.141113,-0.00146484
73372639212,1.04541,-0.105469,-0.0224609
73372653623,1.01758,-0.125488,-0.0229492
73372676068,0.972168,-0.137207,-0.0239258
73372699199,0.963867,-0.19043,-0.0317383
73372713463,0.970703,-0.186523,0.0078125
73372735989,0.972656,-0.166504,-0.0258789
73372759190,0.949707,-0.108398,-0.0239258
73372773592,0.980957,-0.160645,-0.00537109
73372796088,0.965332,-0.15625,-0.0185547
73372819196,0.972656,-0.151855,-0.0136719
73372833530,0.969238,-0.187012,-0.000976562
73372856088,0.962891,-0.185547,-0.0161133
73372879266,0.963867,-0.156738,-0.0283203
73372901787,0.95752,-0.166504,-0.0317383
73372916084,0.952637,-0.164551,-0.0244141
73372939208,0.965332,-0.19873,0.000976562
73372953556,0.989258,-0.152344,-0.0317383
73372976048,0.972656,-0.112305,-0.0380859
73372999751,0.971191,-0.147949,-0.0356445
73373015000,0.952148,-0.108887,-0.0385742
73373036084,0.958008,-0.16748,-0.0175781
73373059273,0.973145,-0.199707,-0.0146484
73373075737,0.982422,-0.164551,-0.0185547
73373096102,0.981445,-0.120117,-0.0180664
73373119277,0.977539,-0.133301,-0.0209961
73373133636,0.96875,-0.123047,-0.0283203
73373156038,0.959473,-0.142578,-0.0239258
73373180070,0.961914,-0.186523,-0.0292969
73373193568,0.97168,-0.140625,-0.0400391
73373216000,0.968262,-0.116211,-0.0351562
73373239217,0.970703,-0.130371,-0.0131836
73373253479,0.970703,-0.124512,-0.0268555
73373276118,0.974609,-0.113281,-0.0307617
73373299213,0.975098,-0.144531,-0.0302734
73373313591,0.964844,-0.135254,-0.0395508
73373337467,0.970215,-0.118164,-0.0390625
73373360691,0.975586,-0.12793,-0.0380859
73373375043,0.966797,-0.10791,-0.0390625
73373396088,0.96875,-0.112305,-0.0405273
73373419279,0.947266,-0.119629,-0.0405273
73373433539,0.939453,-0.105957,-0.0356445
73373456051,0.975586,-0.13623,-0.0244141
73373479181,1.01221,-0.14209,-0.0166016
73373493601,0.990723,-0.109375,-0.0258789
73373516123,0.962891,-0.116699,-0.0317383
73373539264,0.959473,-0.13916,-0.015625
73373553661,0.973145,-0.124512,-0.0141602
73373576111,0.971191,-0.121094,-0.0131836
73373598620,0.995117,-0.192871,0.0180664
73373613598,1.00537,-0.125977,0.00537109
73373637509,0.983398,-0.0869141,-0.0107422
73373658590,0.973633,-0.118164,-0.00976562
73373673632,0.958496,-0.15332,-0.0146484
73373696146,0.963379,-0.144531,-0.0209961
73373721433,0.957031,-0.203125,-0.0078125
73373733492,0.959473,-0.172363,-0.00585938
73373756053,0.96582,-0.12207,-0.0161133
73373778513,0.960938,-0.150391,0.00292969
73373793595,0.959961,-0.166504,-0.0146484
73373816052,0.960449,-0.132812,-0.0166016
73373838631,0.960938,-0.183105,0.0170898
73373853568,0.993652,-0.184082,0.00683594
73373876032,0.984375,-0.103027,-0.00732422
73373898536,0.979492,-0.136719,-0.00195312
73373913619,0.969727,-0.140137,-0.00488281
73373936165,0.95459,-0.130859,-0.0273438
73373958602,0.917969,-0.149414,-0.0327148
73373973630,0.924805,-0.192383,-0.0141602
73373996091,0.961914,-0.17041,-0.0146484
73374018557,0.979004,-0.123535,-0.0170898
73374033621,0.987305,-0.131836,-0.000976562
73374057499,0.979492,-0.130371,-0.000976562
73374078530,0.96875,-0.149902,-0.0117188
73374093578,0.960449,-0.204102,0.0078125
73374116007,0.975586,-0.227539,0.0117188
73374138512,0.977539,-0.169922,-0.00146484
73374161703,0.952637,-0.13916,-0.00634766
73374176062,0.961426,-0.146973,-0.00927734
73374198625,0.965332,-0.148926,-0.019043
73374213688,0.935059,-0.140137,-0.0366211
73374236146,0.940918,-0.213379,0.0234375
73374267510,1.00391,-0.205566,0.0219727
73374273566,0.994141,-0.130859,-0.00585938
73374296101,0.961914,-0.144043,-0.00927734
73374318647,0.947266,-0.159668,-0.0166016
73374333599,0.935059,-0.144531,-0.0458984
73374364183,0.918945,-0.134766,-0.0605469
73374378621,0.936035,-0.280762,0.138184
73374393619,1.02344,-0.262695,0.0302734
73374416124,1.02783,-0.115723,-0.027832
73374438638,0.978027,-0.0649414,-0.043457
73374461658,0.958496,-0.136719,-0.0541992
73374484208,0.958496,-0.186035,-0.0478516
73374515599,0.970703,-0.174805,-0.0380859
73374517999,0.977051,-0.211426,-0.000976562
73374539349,0.977051,-0.20752,0.0341797
73374558563,0.961914,-0.175781,-0.00976562
73374574995,0.959473,-0.169434,-0.012207
73374596071,0.949219,-0.179688,-0.03125
73374618624,0.945801,-0.207031,-0.0454102
73374635090,0.945312,-0.220215,-0.0449219
73374664270,0.959961,-0.182129,-0.0537109
73374678631,0.941406,-0.143066,-0.0727539
73374695091,0.915527,-0.182129,-0.0410156
73374716153,0.976074,-0.443848,0.22168
73374757099,1.1001,-0.117676,-0.118652
73374769868,0.956543,-0.111816,-0.0957031
73374784226,0.969727,-0.189941,-0.0849609
73374815600,0.94043,-0.162598,-0.0551758
73374818008,0.922852,-0.195312,-0.0532227
73374844236,0.932617,-0.227051,-0.0512695
73374858621,0.925293,-0.204102,-0.09375
73374889965,0.878906,-0.156738,-0.124023
73374896123,0.868164,-0.25293,-0.0605469
73374918649,0.967285,-0.39209,0.114746
73374935709,1.03613,-0.121094,-0.124023
73374956157,0.962402,-0.153809,-0.163086
73374980080,0.969727,-0.177246,-0.193359
73374995154,0.967773,-0.150391,-0.198242
73375016116,0.973145,-0.14502,-0.195312
73375046810,0.960449,-0.214355,-0.0795898
73375055111,0.978027,-0.166504,-0.0810547
73375092549,0.997559,-0.104004,-0.208008
73375098565,0.932617,-0.169922,-0.191895
73375121120,0.927246,-0.178223,-0.183594
73375136161,0.919434,-0.219727,-0.140137
73375168294,0.947754,-0.216797,-0.186523
73375175040,0.946777,-0.144043,-0.241699
73375196215,0.927734,-0.124512,-0.275391
73375228235,0.939453,-0.0756836,-0.239746
73375235043,0.95752,-0.154785,-0.20166
73375257587,0.967773,-0.214844,-0.258789
73375278577,0.944336,-0.0629883,-0.358887
73375295073,0.95166,0.00683594,-0.373047
73375316202,0.944336,-0.0307617,-0.36084
73375340094,0.929688,-0.0727539,-0.362305
73375355085,0.966797,-0.0771484,-0.356934
73375384265,1.0249,-0.101074,-0.345215
73375398608,1.01807,-0.0766602,-0.355957
73375415024,0.999512,-0.00585938,-0.369141
73375438963,1.07666,-0.0478516,-0.377441
73375466696,1.17969,-0.109863,-0.315918
73375475012,1.25146,-0.0810547,-0.317383
73375498990,1.31787,0.0175781,-0.225586
73375518606,1.3335,0.0375977,-0.14502
73375535068,1.46875,0.0292969,0.111816
73375557528,1.73193,-0.146973,0.456543
73375578592,1.7002,-0.750488,0.547363
73375595049,1.38477,-0.780273,-0.399902
73375623649,1.7168,-0.678223,-0.244141
73375638652,1.29736,-0.815918,-0.17627
73375655022,1.02295,-0.450195,-0.500977
73375693741,1.02393,-0.272949,-0.655273
73375725384,0.766602,-0.305664,0.121094
73375730725,0.448242,-0.134277,0.0717773
73375752212,0.416992,0.0625,-0.0820312
73375761583,0.489258,0.00634766,0.0385742
73375775109,0.579102,0.0102539,-0.059082
73375797544,0.76123,0.103027,-0.09375
73375821541,0.903809,0.21582,-0.0415039
73375835089,1.04297,0.139648,-0.00927734
73375863671,1.12012,0.0585938,-0.0683594
73375878675,1.23047,0.0795898,-0.155273
73375895085,1.35547,0.0541992,-0.227051
73375926543,1.52979,0.00878906,-0.35498
73375938677,1.59521,0.00976562,-0.369141
73375962613,1.6333,-0.0078125,-0.411621
73375992505,1.54248,-0.150391,-0.534668
73375998642,1.48682,-0.211426,-0.5625
73376015079,1.39697,-0.0791016,-0.807129
73376045013,1.35352,0.313477,-0.992676
73376076985,1.08203,0.321777,-1.19482
73376081086,0.81543,0.338867,-1.40918
73376106460,0.795898,0.489258,-1.3999
73376126705,0.878418,0.51123,-1.26221
73376142590,1.07422,-0.0595703,-0.914551
73376158196,1.56738,-1.66064,3.44775
73376179251,2.1001,0.648438,-0.399414
73376195707,2.7915,0.890625,-0.708496
73376216762,0.495117,0.195312,0.128906
73376239246,0.956543,-0.561035,-0.325684
73376254276,0.933594,-0.129395,-0.625
73376276714,1.18164,0.0581055,-0.135254
73376300806,1.20215,-0.123047,-0.0688477
73376314300,0.948242,-0.251465,0.19043
73376336817,1.11377,-0.164062,0.0078125
73376359359,1.10889,-0.134766,-0.117188
73376374351,0.994629,-0.165039,-0.185059
73376421305,0.992676,-0.235352,-0.117188
73376423712,1.01074,-0.25,-0.122559
73376435733,0.993164,-0.227539,-0.106934
73376458307,0.973145,-0.218262,-0.129883
73376479257,0.922852,-0.217285,-0.175293
73376495716,0.875977,-0.21582,-0.199219
73376517274,0.89502,-0.182129,-0.247559
73376539303,0.890625,-0.207031,-0.243652
73376555730,0.896973,-0.172852,-0.263672
73376578281,0.939941,-0.146973,-0.23877
73376599350,0.972656,-0.145508,-0.240234
73376623217,0.981934,-0.117188,-0.234375
73376636740,1.00879,-0.158203,-0.233887
73376659376,1.06494,-0.183594,-0.239258
73376675808,1.11768,-0.150391,-0.205566
73376774556,1.19873,-0.123047,-0.145996
73376818746,1.20898,-0.18457,-0.0751953
73376821198,1.5708,-0.241211,0.370605
73376826520,1.69971,-0.33252,0.771484
73376839264,2.20215,-0.591309,-0.297363
73376855726,1.87549,-0.626465,-0.42627
73376878013,1.35156,-0.652344,-0.318848
73376902165,1.38135,-0.161133,-0.762695
73376931410,0.813477,-0.374023,0.311523
73376936800,0.605469,-0.173828,0.308105
73376959737,0.384277,-0.0102539,0.0649414
73376975733,0.514648,-0.0161133,0.000488281
73377005702,0.57959,-0.0356445,-0.0454102
73377019218,0.689453,0.0507812,-0.0463867
73377035721,0.789551,0.0874023,-0.0209961
73377056848,0.888672,0.059082,0.0146484
73377079383,1.01904,0.116699,-0.0605469
73377095822,1.15625,0.202637,-0.182129
73377116786,1.27881,0.214844,-0.227539
73377146882,1.42285,0.150391,-0.217773
73377156231,1.54541,0.115723,-0.271973
73377176796,1.67041,0.074707,-0.322266
73377200394,1.78125,0.00927734,-0.412109
73377217231,1.86768,-0.0410156,-0.57959
73377238259,1.75635,0.0820312,-0.858887
73377259288,1.47217,0.294434,-1.23779
73377275160,1.1416,0.664551,-1.64062
73377297481,0.801758,0.44873,-1.74561
73377319366,0.845215,0.0673828,-1.42969
73377335806,0.964355,0.268555,-1.16602
73377358273,1.22803,-0.366211,-0.253418
73377386780,0.867188,-0.774414,0.938965
73377410809,1.42188,-0.540039,2.33984
73377418222,3.65137,1.35889,-1.42529
73377439341,0.287109,-0.384766,0.507324
73377455104,0.747559,-0.0146484,-0.0727539
73377478669,1.08936,-0.394531,-0.333008
73377500703,1.00049,-0.00537109,-0.197754
73377515112,1.24023,-0.124512,0.00488281
73377545770,0.963379,-0.169434,-0.0253906
73377559344,1.02783,-0.09375,-0.0205078
73377575725,1.00635,-0.216797,0.00634766
73377598681,1.00781,-0.0976562,-0.172852
73377619252,1.05615,-0.0996094,-0.110352
73377635020,1.00635,-0.160156,-0.123535
73377667232,0.991211,-0.189453,-0.0693359
73377679370,0.99707,-0.255859,-0.0874023
73377695100,0.952148,-0.236328,-0.125977
73377718242,0.930176,-0.260742,-0.164062
73377739421,0.921875,-0.26709,-0.140625
73377755119,0.927734,-0.226074,-0.151855
73377778266,0.955566,-0.209473,-0.163086
73377806862,0.943848,-0.147461,-0.191895
73377815097,0.945312,-0.212891,-0.169922
73377838192,0.987793,-0.223145,-0.204102
73377859290,1.05078,-0.11377,-0.245605
73377875066,1.06787,-0.097168,-0.239746
73377898215,1.06738,-0.104492,-0.227539
73377919304,1.10107,-0.0449219,-0.156738
73377935055,1.1499,-0.0698242,-0.129395
73377958194,1.26416,-0.0229492,-0.150391
73377979220,1.33105,-0.0742188,-0.0966797
73378001802,1.39258,-0.0825195,0.0185547
73378018252,1.68604,-0.208496,0.300781
73378040698,1.93066,-0.490234,0.669434
73378055043,1.9585,-0.813477,0.770996
73378078253,1.89746,-0.783203,-0.306641
73378100724,1.89697,-1.11133,-0.97998
73378115140,1.4624,-0.992188,-0.330566
73378146890,0.959473,-0.376465,-0.181152
73378184516,0.749023,0.0112305,-0.267578
73378189280,0.248047,-0.279785,0.267578
73378221358,0.166992,-0.201172,0.29248
73378223766,0.294434,-0.0195312,-0.0107422
73378235129,0.375488,-0.0927734,-0.101562
73378257610,0.487305,-0.0786133,0.046875
73378279335,0.646484,-0.00146484,0.0146484
73378295171,0.850098,0.0249023,0.0439453
73378317648,1.01953,0.105957,-0.0947266
73378340728,1.1416,0.165527,-0.268066
73378363316,1.24463,0.0234375,-0.260742
73378377733,1.45312,-0.0107422,-0.421875
73378400742,1.43701,-0.0380859,-0.460449
73378421784,1.51318,-0.0126953,-0.493652
73378437583,1.51611,-0.0356445,-0.475098
73378466840,1.51953,-0.0498047,-0.436523
73378489777,1.50537,-0.0219727,-0.460938
73378513310,1.47607,0.0205078,-0.504883
73378543838,1.40674,0.17627,-0.627441
73378546290,1.23926,0.264648,-1.10205
73378567274,0.85498,0.493652,-1.47852
73378611363,0.796875,0.290039,-1.32324
73378613767,0.990723,0.291992,-1.20117
73378624397,1.02246,-0.347168,-0.921875
73378640822,1.2373,-0.0439453,-0.0107422
73378670839,1.22754,-1.85498,4.16846
73378677695,2.6665,1.06738,-1.42188
73378700845,1.26123,0.459961,-0.0517578
73378721896,1.17529,-0.12793,-0.139648
73378737764,0.570312,-0.671875,-0.209961
73378761166,0.907715,-0.0126953,-0.0898438
73378781856,1.08301,-0.251953,-0.0947266
73378797705,1.1748,0.142578,-0.0239258
73378828381,1.01904,-0.207031,-0.00537109
73378841865,1.00732,-0.230957,-0.0864258
73378857701,1.02588,-0.149902,-0.104004
73378880769,1.01904,-0.152832,-0.109375
73378901783,0.996094,-0.191895,-0.121582
73378917644,0.992188,-0.251953,-0.105469
73378940828,1.01465,-0.182617,-0.128906
73378961860,0.963379,-0.185547,-0.174805
73378977732,0.939453,-0.203125,-0.204102
73379000761,0.928711,-0.192383,-0.209961
73379021825,0.983887,-0.219727,-0.199219
73379037645,0.991211,-0.106445,-0.168945
73379060862,0.966797,-0.143066,-0.148438
73379081888,1.00195,-0.173828,-0.175293
73379097690,1.0083,-0.0771484,-0.216309
73379128305,0.996094,-0.128418,-0.216797
73379141872,0.999512,-0.18457,-0.217773
73379165879,1.02441,-0.243164,-0.195312
73379188261,1.08594,-0.201172,-0.173828
73379201865,1.1665,-0.139648,-0.115723
73379231885,1.24365,-0.0878906,-0.0683594
73379240155,1.37695,-0.206055,0.0239258
73379263357,1.5957,-0.274902,0.225098
73379331308,1.8291,-0.493164,0.585449
73379333719,2.05957,-0.725586,0.774902
73379340337,1.78906,-0.574219,0.00488281
73379359736,1.8667,-0.47168,-0.516113
73379368263,1.52783,-0.591309,-0.388672
73379406331,1.18115,-0.0961914,-0.336426
73379408753,0.932129,-0.390137,-0.259766
73379429707,0.388672,-0.273926,0.456055
73379443237,0.343262,0.0249023,0.273438
73379489774,0.382812,-0.0551758,0.0917969
73379494355,0.506836,-0.147949,0.0136719
73379518902,0.620117,-0.0498047,-0.00927734
73379524343,0.771484,0.078125,0.0390625
73379540587,0.906738,0.0849609,0.0942383
73379563308,1.09277,0.192871,0.00341797
73379584370,1.15576,0.288086,-0.193359
73379600174,1.3125,0.284668,-0.140137
73379623314,1.51123,0.209961,-0.323242
73379645748,1.51416,0.229004,-0.393555
73379660123,1.5542,0.253418,-0.471191
73379683281,1.57959,0.158203,-0.401855
73379704386,1.62061,0.140137,-0.465332
73379719393,1.63525,0.129395,-0.5625
73379733698,1.56201,0.0673828,-0.791504
73379781397,1.37207,0.305664,-1.17725
73379783723,1.05225,0.731445,-1.72461
73379809855,0.772461,0.407715,-1.6416
73379817698,0.991211,0.343262,-1.28271
73379839414,0.95752,0.242188,-0.836426
73379853736,1.07373,-0.592773,0.677734
73379876184,0.647949,-2.41895,3.38623
73379899405,2.21777,0.605957,-0.848633
73379913653,1.88037,0.474609,-0.565918
73379936205,1.45508,0.891602,-0.107422
73379959269,1.01953,-0.164551,-0.137695
73379973798,0.876465,-0.285645,-0.275391
73379996244,0.941895,-0.202148,-0.000976562
73380027316,1.21973,-0.362305,0.268555
73380035220,1.04297,-0.0581055,-0.0273438
73380056278,1.01807,-0.129883,-0.0717773
73380087341,1.04688,-0.196289,-0.0830078
73380095128,0.950684,-0.245117,-0.0952148
73380116212,0.98584,-0.217773,-0.0751953
73380139414,1.01074,-0.209961,-0.0703125
73380161660,0.95459,-0.214355,-0.0874023
73380176238,0.939453,-0.23291,-0.121094
73380199446,0.933105,-0.272461,-0.125977
73380213735,0.928711,-0.201172,-0.150391
73380236220,0.907227,-0.236328,-0.128906
73380259364,0.944336,-0.275391,-0.137695
73380273773,0.985352,-0.191406,-0.177734
73380304993,0.987305,-0.206055,-0.195312
73380319403,1.00635,-0.20459,-0.222168
73380341938,1.00098,-0.188965,-0.20752
73380356243,1.04346,-0.152832,-0.23291
73380379410,1.05371,-0.116699,-0.219238
73380393748,1.03662,-0.0732422,-0.206055
73380416235,1.05762,-0.140625,-0.162598
73380447545,1.15967,-0.0825195,-0.159668
73380461838,1.25928,-0.0839844,-0.100586
73380477645,1.37988,-0.0957031,0.00585938
73380507263,1.52295,-0.159668,0.185547
73380515175,1.74854,-0.35791,0.593262
73380536189,1.79541,-0.861328,0.544922
73380559390,1.87988,-0.425293,-0.538086
73380581869,2.04883,-0.769043,-0.361328
73380597698,1.57568,-0.641113,-0.309082
73380619298,1.03857,-0.0639648,-0.489746
73380650052,0.811035,-0.22168,-0.416016
73380656251,0.306152,-0.501953,0.139648
73380679380,0.478027,-0.306641,0.180176
73380693724,0.394531,-0.111328,0.0908203
73380719091,0.487305,0.00537109,-0.0297852
73380739358,0.611816,0.0678711,-0.0649414
73380753703,0.693848,0.0454102,-0.0322266
73380776208,0.826172,0.0654297,-0.012207
73380799318,0.922363,0.0610352,-0.00341797
73380813707,1.03662,0.0341797,-0.0322266
73380836208,1.12842,0.0639648,-0.185059
73380859342,1.31934,-0.0483398,-0.26416
73380873725,1.61475,0.0410156,-0.406738
73380896209,1.62891,-0.171387,-0.374023
73380919385,1.74902,-0.137695,-0.424805
73380933711,1.84277,-0.117676,-0.560059
73380965071,1.94434,-0.0761719,-0.757324
73380979823,1.75049,0.383789,-1.22266
73380996642,1.2207,1.17871,-2.25098
73381016228,0.710938,0.433105,-2.05176
73381039363,1.00781,0.140137,-1.45801
73381070008,1.24561,0.346191,-0.743652
73381076194,1.04834,-0.450195,0.841309
73381099346,1.23389,-1.41357,3.55176
73381113699,2.83643,1.11914,-1.35498
73381136170,0.79248,-0.185059,-0.472656
73381158680,1.17725,0.512695,0.161133
73381173719,0.794434,-0.423828,-0.574219
73381196232,1.0249,0.0292969,-0.180664
73381218731,1.23926,-0.11377,0.0375977
73381233713,1.06885,-0.118164,-0.0463867
73381257652,1.04834,-0.139648,-0.0922852
73381278690,1.02197,-0.133789,-0.114746
73381293653,1.01904,-0.143066,-0.154297
73381316203,1.00879,-0.100586,-0.160645
73381338706,0.932617,-0.255859,-0.104004
73381353736,0.96875,-0.219238,-0.135254
73381376233,0.954102,-0.211914,-0.135742
73381398710,0.956543,-0.131348,-0.168945
73381416628,0.958984,-0.121094,-0.189453
73381436174,0.92334,-0.181641,-0.182617
73381458729,0.960938,-0.128906,-0.158691
73381473709,0.996094,-0.197266,-0.154785
73381496218,1.01562,-0.182617,-0.166992
73381520118,1.02393,-0.175293,-0.173828
73381533726,1.06348,-0.194824,-0.196289
73381556233,1.08594,-0.211426,-0.15918
73381578755,1.17529,-0.183594,-0.11084
73381601888,1.19922,-0.0629883,-0.0415039
73381616214,1.27588,0.0703125,-0.0385742
73381640152,1.44141,-0.0737305,0.0322266
73381656680,1.63867,-0.26709,0.165039
73381692599,2.04541,-0.547852,0.603027
73381698694,2.20117,-1.03271,1.09277
73381713684,2.02393,-0.952637,0.544434
73381736208,1.81445,-1.07178,-1.30664
73381758731,1.63086,-0.877441,-0.304199
73381781873,1.2666,-0.127441,-0.326172
73381805803,0.923828,0.0703125,-0.249512
73381818667,0.395996,-0.40918,0.449707
73381833702,0.155762,-0.364746,0.328125
73381856267,0.196777,-0.250488,-0.019043
73381880253,0.268066,-0.0175781,-0.142578
73381893774,0.425293,0.0258789,0.00537109
73381916332,0.507324,-0.03125,0.0761719
73381938783,0.727539,0.100586,0.0688477
73381953755,0.95459,0.131836,0.0620117
73381976313,1.01465,0.216309,-0.090332
73381998759,1.22266,0.116699,-0.13916
73382015278,1.59131,0.160645,-0.386719
73382036239,1.6875,0.0820312,-0.398926
73382058775,1.80566,0.131836,-0.470703
73382075216,1.88721,0.0292969,-0.428711
73382096260,1.93164,0.0727539,-0.59375
73382118828,1.77783,0.0512695,-0.905762
73382136702,1.57959,0.48291,-1.39111
73382156296,1.04736,0.980957,-2.16797
73382178818,0.807129,0.312012,-1.79004
73382195218,1.12646,0.414551,-1.36133
73382216273,1.01172,0.276855,-0.245605
73382238793,0.94043,-0.533691,1.1582
73382255206,1.1958,-1.0625,1.51221
73382276288,3.25342,1.12842,-0.939941
73382298765,1.00244,0.0244141,-0.564941
73382315135,1.25098,0.151855,-0.108887
73382336658,0.974121,-0.279785,-0.306152
73382358762,1.0918,-0.178223,-0.130859
73382381238,1.18652,-0.420898,-0.027832
73382396258,1.07764,-0.166992,-0.0859375
73382418789,1.06348,-0.00488281,-0.121582
73382450144,1.03516,-0.146973,-0.102539
73382456275,0.958496,-0.23877,-0.136719
73382478778,0.927246,-0.366211,-0.123047
73382497287,0.944824,-0.312012,-0.112305
73382516286,0.949219,-0.214355,-0.118164
73382538764,0.934082,-0.219238,-0.12793
73382555198,0.907715,-0.200195,-0.14502
73382576272,0.892578,-0.245605,-0.134277
73382607014,0.905273,-0.267578,-0.149414
73382615241,0.934082,-0.230469,-0.174805
73382636292,0.946777,-0.203613,-0.18457
73382658795,0.914551,-0.230469,-0.200684
73382675176,0.961914,-0.258789,-0.188477
73382696321,0.99707,-0.209473,-0.195801
73382718759,1.01807,-0.182617,-0.171387
73382735230,1.07178,-0.156738,-0.132812
73382756303,1.12646,-0.133301,-0.133789
73382778808,1.271,-0.161133,-0.138672
73382802756,1.37744,-0.248047,-0.120605
73382816271,1.49805,-0.242188,-0.0488281
73382838687,1.75928,-0.254883,0.221191
73382862704,2.01611,-0.45166,0.636719
73382876321,2.21533,-1.02295,0.858887
73382901703,1.4043,-0.67041,-0.299805
73382915194,1.74805,-0.533691,-0.183594
73382947370,1.28613,-0.667969,-0.17334
73382992210,1.05664,-0.135254,-0.555176
73383004881,0.753906,0.193848,-0.654297
73383014083,0.307129,-0.228027,0.313477
73383018794,0.53125,-0.227539,0.603516
73383035210,0.354004,-0.162598,0.106934
73383057761,0.526855,-0.107422,-0.0288086
73383078790,0.592285,-0.108398,0.015625
73383095289,0.697754,-0.118652,0.0410156
73383117760,0.834473,0.015625,-0.0170898
73383138742,0.957031,0.0292969,0.0151367
73383155241,1.08154,0.0117188,-0.00195312
73383177761,1.19434,0.0161133,-0.0947266
73383198788,1.37988,-0.0454102,-0.149902
73383215215,1.62012,-0.0927734,-0.279785
73383237713,1.80225,-0.143066,-0.354004
73383281820,1.87842,-0.121094,-0.408203
73383300462,1.96533,0.0678711,-0.647949
73383305234,1.84619,0.208008,-0.937012
73383327010,1.5752,0.65332,-1.53955
73383334417,0.901367,1.00928,-2.33838
73383356916,0.830566,0.186035,-1.76855
73383380879,1.07471,0.421875,-1.38867
73383394497,1.19971,0.215332,-0.0737305
73383416960,0.878418,-1.30615,1.75342
73383439455,1.63379,0.00439453,0.798828
73383461944,3.49512,0.960938,-0.849121
73383476963,0.549805,-0.0825195,0.338379
73383499435,0.689453,-0.51709,-0.371094
73383515872,0.886719,-0.216309,-0.325195
73383536919,1.13037,-0.0634766,-0.0761719
73383559461,1.21143,-0.306152,-0.128418
73383581909,1.08594,-0.0610352,-0.105469
73383596921,1.03809,-0.0742188,-0.0703125
73383619379,1.03857,-0.213379,-0.100098
73383634450,1.03613,-0.120605,-0.13916
73383656885,0.961426,-0.230957,-0.147949
73383679405,0.958496,-0.299316,-0.145508
73383694421,0.95459,-0.226074,-0.154785
73383716939,0.95166,-0.194336,-0.164551
73383739363,0.917969,-0.21875,-0.174805
73383754374,0.905273,-0.216797,-0.179688
73383776886,0.820312,-0.425293,-0.1875
73383799408,0.933594,-0.227539,-0.211914
73383814386,0.935547,-0.196289,-0.186523
73383837310,0.950195,-0.153809,-0.163086
73383859419,0.990234,-0.151855,-0.165527
73383874488,0.96582,-0.198242,-0.137695
73383896947,0.953613,-0.253418,-0.111328
73383919456,1.0625,-0.258301,-0.126465
73383934369,1.18164,-0.0947266,-0.134277
73383956960,1.19287,-0.0498047,-0.111328
73383979487,1.27637,-0.209961,-0.135742
73383995947,1.38867,-0.272949,-0.13623
73384017031,1.5625,-0.251465,0.00830078
73384040909,1.78467,-0.376953,0.40625
73384055908,2.05957,-0.520996,0.89209
73384078791,1.96143,-0.621582,0.900391
73384099245,1.77979,-0.308594,-0.435059
73384117336,1.78809,-0.959961,-0.327148
73384136974,1.29639,-0.597168,-0.0131836
73384184730,0.953125,-0.0737305,-0.337891
73384190134,0.604004,-0.254883,-0.296387
73384205131,0.230469,-0.482422,0.344727
73384212804,0.390625,-0.147461,0.384766
73384237200,0.351074,-0.0639648,0.00292969
73384256984,0.433594,-0.125977,0.0209961
73384272784,0.577148,-0.152344,0.0849609
73384295907,0.729004,-0.0683594,-0.00830078
73384316957,0.880371,0.015625,-0.0170898
73384332747,1.02148,-0.0292969,0.0532227
73384355844,1.16162,-0.0307617,0.00341797
73384377024,1.34473,0.0400391,-0.123047
73384392786,1.54541,0.034668,-0.163086
73384415954,1.82129,0.0522461,-0.277832
73384436930,2.01855,0.0112305,-0.392578
73384452756,2.01807,-0.03125,-0.603516
73384475904,1.83398,0.110352,-0.87207
73384496968,1.67871,0.381348,-1.28711
73384512810,1.1875,1.19531,-2.23242
73384536420,0.732422,0.326172,-1.98633
73384556992,1.09033,0.0791016,-1.41406
73384572778,1.37891,-0.23291,-0.636719
73384602053,0.901367,-0.477051,0.422363
73384616964,1.10059,-1.22607,3.56543
73384632779,2.50146,1.22119,-1.03174
73384655941,1.47217,0.220703,-0.338867
73384676929,0.935059,-0.154785,0.0922852
73384692827,0.695801,-0.29248,-0.467773
73384715951,0.98291,-0.10791,-0.179688
73384738903,1.13379,-0.00244141,-0.0517578
73384760913,1.25049,-0.157227,0.00927734
73384783495,0.983398,-0.146484,-0.0170898
73384798438,1.02148,-0.108887,0.00439453
73384812695,1.0708,-0.123535,-0.0942383
73384835965,1.00879,-0.137695,-0.0703125
73384856987,0.983887,-0.246094,-0.078125
73384872782,0.953613,-0.28418,-0.125977
73384895317,0.925781,-0.246094,-0.125488
73384916994,0.954102,-0.208496,-0.125977
73384932793,0.934082,-0.189941,-0.157227
73384955240,0.890137,-0.20166,-0.1875
73384985921,0.928223,-0.160156,-0.181641
73384992748,0.956543,-0.170898,-0.164062
73385030911,0.979004,-0.154785,-0.173828
73385038421,0.980469,-0.151855,-0.176758
73385052771,1.03564,-0.123535,-0.206543
73385075251,1.0791,-0.120605,-0.211914
73385098427,1.08496,-0.10791,-0.16748
73385112806,1.09033,-0.145508,-0.101074
73385144096,1.12744,-0.0439453,-0.0893555
73385165958,1.25293,-0.0473633,-0.110352
73385180918,1.3833,-0.23584,-0.101074
73385195236,1.53955,-0.259277,0.00683594
73385218435,1.82471,-0.29248,0.373535
73385246997,2.11182,-0.67041,0.874512
73385255231,2.19043,-1.08398,0.881348
73385316490,1.77588,-0.254883,-0.483398
73385318874,1.83154,-0.719727,-0.413086
73385339205,1.3374,-0.663086,0.169434
73385355497,0.806152,-0.0336914,-0.22168
73385360933,0.669434,0.0727539,-0.503906
73385375282,0.276367,-0.349121,0.159668
73385398430,0.325684,-0.197754,0.415039
73385427012,0.270508,-0.177734,0.0961914
73385435306,0.400391,-0.17334,-0.0488281
73385458490,0.598633,-0.120117,0.0205078
73385479485,0.681152,-0.0107422,0.00439453
73385495296,0.818359,0.081543,0.00439453
73385518392,0.928711,0.103027,0.0390625
73385539470,1.05762,-0.00683594,0.0649414
73385555305,1.21533,-0.00683594,-0.0527344
73385594789,1.42334,0.027832,-0.150879
73385606907,1.73682,0.106934,-0.320312
73385615316,2.04639,0.0576172,-0.437012
73385638172,1.95557,-0.0112305,-0.454102
73385659516,1.90283,0.113281,-0.755371
73385683471,1.78369,0.20752,-1.0376
73385698431,1.51074,0.958008,-1.74316
73385720930,0.795898,0.956543,-2.31982
73385735305,0.953125,0.137207,-1.67969
73385775509,1.25537,0.0449219,-0.881836
73385788376,1.15381,-0.40332,0.326172
73385795285,0.89502,-1.06348,3.17969
73385824525,2.18604,0.709473,-0.902344
73385839504,1.76562,0.262695,-0.0878906
73385855246,0.970703,-0.557617,-0.307129
73385877742,0.66748,-0.346191,0.034668
73385900920,0.900391,-0.172363,-0.46875
73385929521,1.15674,0.154297,-0.146973
73385937806,1.29639,0.0415039,0.00585938
73385962428,1.00586,-0.0810547,-0.0512695
73385975336,1.0332,-0.112793,-0.0488281
73386005948,0.990723,-0.293945,-0.090332
73386043976,1.0293,-0.225586,-0.10791
73386046348,0.976562,-0.156738,-0.152832
73386064577,0.972656,-0.166016,-0.150879
73386081417,0.975586,-0.163574,-0.134766
73386095777,0.973145,-0.183105,-0.144531
73386117762,0.914551,-0.24707,-0.118652
73386142402,0.953125,-0.260254,-0.123047
73386162012,0.946289,-0.254883,-0.15332
73386202332,0.92041,-0.208984,-0.161133
73386207016,0.953125,-0.152832,-0.175293
73386238372,0.961426,-0.196289,-0.155273
73386240753,0.971191,-0.226074,-0.161621
73386276620,0.992188,-0.25293,-0.190918
73386282436,0.983887,-0.152832,-0.218262
73386313438,1.02344,-0.155273,-0.19043
73386321561,1.12695,-0.17334,-0.142578
73386343482,1.22705,-0.126953,-0.140137
73386357838,1.3418,-0.162598,-0.11084
73386380967,1.4541,-0.231934,-0.0429688
73386409515,1.75293,-0.231445,0.196777
73386464815,2.19531,-0.354004,0.778809
73386470111,2.35742,-0.664551,0.953125
73386477755,1.54736,-0.694824,-0.986816
73386501681,1.4458,-0.832031,-0.425781
73386540161,1.03223,0.121094,-0.499023
73386569741,0.650391,-0.0292969,-0.160156
73386584058,0.293945,-0.253418,0.46875
73386586438,0.239746,-0.311523,0.310547
73386604483,0.277344,-0.186035,0.0351562
73386620896,0.414551,-0.172852,-0.0429688
73386643503,0.560547,-0.0703125,0.0112305
73386657767,0.630859,0.015625,-0.0283203
73386680989,0.723145,-0.0463867,0.0112305
73386701907,0.867188,-0.0576172,-0.0107422
73386717740,1.03711,-0.012207,-0.0517578
73386748234,1.19434,0.0732422,-0.1875
73386762038,1.41748,0.00683594,-0.28125
73386777810,1.72363,-0.0664062,-0.351074
73386800293,1.87598,-0.065918,-0.405273
73386822057,1.97852,-0.0507812,-0.499512
73386837790,1.92627,0.0732422,-0.64209
73386860318,1.79785,0.218262,-0.828125
73386883457,1.53076,0.689453,-1.33496
73386896955,0.953613,0.879395,-1.99561
73386911373,0.850586,0.147949,-1.64404
73386933908,1.0376,0.47998,-1.31201
73386956964,1.37988,-0.258301,-0.385254
73386979424,0.938477,-0.547363,0.858887
73386993744,1.30615,-1.31738,3.59424
73387016928,2.96875,1.33154,-1.30811
73387031240,0.73584,0.097168,-0.130371
73387062600,0.685547,-0.0336914,0.172363
73387076939,0.941895,-0.238281,-0.638184
73387099517,0.913086,0.090332,-0.0605469
73387113784,1.29395,0.0302734,0.0556641
73387136982,1.14404,-0.0961914,-0.0649414
73387167722,1.01221,-0.178223,-0.0717773
73387182724,0.994629,-0.195801,-0.118164
73387197102,1.0127,-0.0888672,-0.129395
73387212865,1.02051,-0.0942383,-0.106445
73387233891,0.995605,-0.217773,-0.0527344
73387257038,0.969727,-0.141113,-0.108398
73387271435,0.95752,-0.192383,-0.113281
73387293895,0.959961,-0.20752,-0.13623
73387317049,0.930664,-0.169434,-0.122559
73387331360,0.942871,-0.189453,-0.0922852
73387353895,0.964355,-0.175781,-0.09375
73387377042,0.984863,-0.167969,-0.0810547
73387399512,0.979004,-0.165039,-0.0986328
73387413868,0.966309,-0.196289,-0.097168
73387445242,1.00146,-0.251953,-0.140137
73387451448,1.04736,-0.121582,-0.1875
73387473814,1.13232,-0.143066,-0.120117
73387513429,1.12012,-0.0336914,-0.0585938
73387515800,1.26807,0.0766602,-0.0610352
73387542661,1.47852,-0.109375,-0.0605469
73387557054,1.74414,-0.329102,0.0224609
73387580245,2.0332,-0.629395,0.340332
73387593881,2.26904,-1.01123,0.848145
73387633424,2.00439,-0.725098,0.816895
73387635780,1.64844,-0.548828,-0.608398
73387653863,1.63184,-0.664551,-0.148926
73387693417,1.13037,-0.537109,-0.153809
73387695757,0.726074,0.196777,-0.708984
73387715313,0.557129,-0.104492,0.153809
73387740531,0.335449,-0.169434,0.415527
73387751363,0.259766,-0.252441,0.13916
73387781992,0.357422,-0.0913086,0.00976562
73387796364,0.468262,0.129395,0.0249023
73387811303,0.556152,0.120605,0.0825195
73387833914,0.643555,0.132812,0.130859
73387856384,0.746094,0.137695,0.101074
73387871337,0.897949,0.108887,0.0947266
73387902147,1.01953,0.123535,0.0639648
73387917820,1.19141,0.111328,-0.065918
73387931417,1.4248,-0.000488281,-0.103027
73387956827,1.80127,-0.027832,-0.31543
73387976347,2.05127,-0.11084,-0.368652
73387994274,2.04883,-0.0151367,-0.538574
73388013866,1.89258,0.204102,-0.883301
73388036410,1.67969,0.717285,-1.43506
73388051386,0.884766,1.18018,-2.46289
73388073886,0.673828,0.0146484,-1.68457
73388097825,1.19482,0.326172,-1.04639
73388111455,0.994629,0.316895,-0.385254
73388142017,1.28857,-2.36963,3.56396
73388156392,2.36572,1.13965,-1.4165
73388179616,2.00781,-0.0805664,-1.16748
73388193886,0.788574,0.351562,0.358887
73388216382,0.859863,-0.455566,-0.585449
73388232882,0.816895,-0.104004,-0.268555
73388253870,1.26123,-0.207031,-0.090332
73388277846,1.20752,-0.283691,-0.09375
73388299979,0.979492,-0.0791016,-0.105469
73388313908,1.04639,0.0429688,-0.145996
73388336351,1.08594,-0.104004,-0.101562
73388351427,0.99707,-0.166992,-0.148926
73388373891,0.976074,-0.197266,-0.130859
73388396369,0.959961,-0.236816,-0.137695
73388411423,0.924316,-0.258789,-0.140137
73388459793,0.905273,-0.226562,-0.145996
73388465247,0.90918,-0.186523,-0.15332
73388479639,0.902344,-0.248047,-0.145508
73388495347,0.877441,-0.128906,-0.169434
73388525278,0.928711,-0.186035,-0.148926
73388531365,0.986328,-0.181152,-0.20752
73388562159,0.996582,-0.102051,-0.244629
73388577039,0.969238,-0.0878906,-0.239746
73388591429,0.965332,-0.104004,-0.207031
73388613853,0.995605,-0.189941,-0.149414
73388653414,1.1499,-0.19043,-0.163086
73388655852,1.18848,-0.0571289,-0.179199
73388673921,1.27393,-0.135254,-0.147949
73388704531,1.4707,-0.284668,-0.108887
73388712794,1.72461,-0.242188,0.0639648
73388733911,2.10596,-0.0585938,0.490234
73388757036,2.46582,-0.362305,0.974121
73388803977,1.90967,-0.579102,0.92627
73388806335,1.43652,-1.23047,-1.37402
73388827332,1.43604,-0.766113,-0.27002
73388832792,0.893555,-0.328125,-0.531738
73388879803,0.709473,0.198242,-0.544434
73388884607,0.48291,-0.0415039,0.129883
73388892886,0.165527,-0.383301,0.362793
73388913975,0.27832,-0.230957,0.186035
73388937833,0.35498,-0.182617,-0.0488281
73388952852,0.52002,-0.108887,0.00488281
73388973927,0.657227,0.0307617,-0.0102539
73388997544,0.762207,0.0424805,-0.0600586
73389014256,0.885254,0.0268555,-0.11377
73389033872,1.01709,0.00732422,-0.0458984
73389057058,1.16895,0.0996094,-0.0483398
73389072846,1.30859,-0.0395508,-0.185547
73389093885,1.58545,0.0297852,-0.322266
73389116401,1.83398,-0.0473633,-0.436035
73389132818,1.85449,-0.027832,-0.564941
73389153934,1.85059,0.0849609,-0.638184
73389184582,1.79688,0.282227,-0.85498
73389192895,1.59375,0.333008,-1.33252
73389213877,1.19971,0.991699,-1.95068
73389246070,0.755371,0.645508,-1.96631
73389252869,1.24609,-0.227539,-1.54834
73389273919,1.36914,0.225586,0.00976562
73389296387,1.08936,-1.21875,3.40918
73389313488,1.81104,1.00537,-0.311035
73389333951,2.53369,0.55127,-0.426758
73389356408,0.786133,-0.269043,0.243164
73389372785,0.663086,-0.608887,-0.375488
73389393897,0.852539,-0.121582,-0.347656
73389424565,1.16797,0.0449219,-0.118164
73389432824,1.26855,-0.139648,-0.0668945
73389455333,1.04102,-0.0610352,-0.0385742
73389476394,1.03955,-0.0917969,-0.0307617
73389492937,1.0459,-0.172363,-0.0844727
73389515431,0.992188,-0.182129,-0.106934
73389536477,0.987793,-0.15625,-0.151855
73389552862,0.969727,-0.224609,-0.147461
73389573921,0.956543,-0.208008,-0.125977
73389596401,0.942383,-0.200195,-0.125
73389620344,0.907715,-0.279785,-0.120117
73389643541,0.928223,-0.235352,-0.106934
73389664596,0.94043,-0.227051,-0.112305
73389672888,0.944824,-0.251953,-0.114746
73389695343,0.939453,-0.227051,-0.120605
73389716346,0.914551,-0.287109,-0.134766
73389732884,0.94043,-0.256348,-0.186523
73389755368,0.974609,-0.179199,-0.227539
73389776442,0.989746,-0.14502,-0.222656
73389794331,1.04053,-0.153809,-0.210938
73389815388,1.10254,-0.132812,-0.182617
73389836456,1.18896,-0.0722656,-0.19043
73389852833,1.25439,-0.0771484,-0.163574
73389875356,1.37012,-0.19043,-0.126465
73389896442,1.53076,-0.222168,-0.0151367
73389912886,1.85596,-0.220215,0.30127
73389935306,2.14307,-0.422852,0.787109
73389956337,2.27539,-0.786621,0.875
73389972804,1.58936,-0.334473,-0.25
73389995380,1.67578,-0.845703,-0.643066
73390016429,1.22021,-0.552246,-0.169922
73390040340,0.912598,-0.20166,-0.568848
73390055358,0.624512,0.182129,-0.444824
73390076461,0.320801,-0.0957031,0.432617
73390092857,0.253906,-0.296387,0.325195
73390115327,0.293945,-0.279297,0.0151367
73390139397,0.405762,-0.229004,-0.0976562
73390160394,0.560059,-0.0380859,-0.0361328
73390175388,0.614258,0.0541992,-0.0908203
73390196411,0.692383,0.0273438,-0.139648
73390212882,0.828613,-0.0317383,-0.133789
73390235384,1.00928,-0.0249023,-0.0717773
73390256374,1.1665,0.0361328,-0.169434
73390272823,1.40381,0.0112305,-0.209473
73390295374,1.75781,0.0512695,-0.438965
73390316441,1.70459,-0.0878906,-0.438965
73390332862,1.80371,-0.0517578,-0.467285
73390355356,1.79688,0.0375977,-0.550781
73390376437,1.75586,0.162598,-0.755371
73390392869,1.55615,0.295898,-1.06738
73390415409,1.17334,0.875,-1.7041
73390436471,0.819824,0.674805,-1.80371
73390452904,1.03174,0.358887,-1.44043
73390475458,1.24854,-0.177734,-0.283691
73390497084,0.906738,-0.508301,0.824219
73390512113,0.947266,-1.37939,2.8667
73390534591,2.61084,0.806641,-0.784668
73390557148,1.37207,-0.109375,-0.907715
73390572055,1.23877,0.221191,0.48584
73390594571,0.53418,-0.687988,-0.137207
73390617124,0.852051,-0.104004,-0.430664
73390641079,1.02002,-0.142578,0.0629883
73390654596,1.36621,0.0527344,0.0209961
73390677173,1.0332,-0.120605,-0.115723
73390693574,0.956055,-0.151367,-0.0649414
73390714632,1.03857,-0.213379,-0.0678711
73390737050,1.0415,-0.157227,-0.0942383
73390753564,0.992676,-0.197754,-0.102539
73390774563,0.975586,-0.323242,-0.10498
73390798567,0.944336,-0.263184,-0.124023
73390813558,0.939941,-0.230469,-0.14209
73390834607,0.919434,-0.229492,-0.148926
73390864590,0.888184,-0.245605,-0.145508
73390873490,0.914551,-0.23291,-0.150391
73390895022,0.92334,-0.218262,-0.160156
73390917543,0.90332,-0.21582,-0.181152
73390933574,0.912598,-0.184082,-0.205566
73390954616,0.960449,-0.186523,-0.202148
73390984655,0.998535,-0.168457,-0.192383
73390993573,1.00146,-0.140137,-0.182617
73391014664,0.955566,-0.171387,-0.16748
73391044596,0.983887,-0.244629,-0.152344
73391053545,1.11084,-0.212402,-0.176758
73391074567,1.18848,-0.153809,-0.187012
73391097229,1.26855,-0.148438,-0.177734
73391113593,1.33594,-0.204102,-0.122559
73391134602,1.53613,-0.181152,-0.0141602
73391157089,1.75049,-0.399902,0.338379
73391181035,2.04785,-0.470215,0.684082
73391196084,2.14209,-0.751953,0.812988
73391219218,1.6377,-0.0703125,-0.283203
73391233523,1.52148,-0.796875,-0.637695
73391256088,1.16357,-0.655762,-0.0537109
73391278540,0.853516,-0.248047,-0.406738
73391301061,0.496582,0.131836,-0.575684
73391323523,0.375,-0.199219,0.27002
73391344622,0.296387,-0.194824,0.368652
73391353504,0.325684,-0.224609,0.19043
73391376087,0.397949,-0.181641,0.0146484
73391398540,0.524414,-0.104004,-0.0483398
73391413553,0.651855,-0.0664062,-0.0771484
73391459869,0.74707,0.019043,-0.0341797
73391464638,0.854492,0.0581055,0.0131836
73391502573,1.03174,0.00585938,0.0576172
73391528150,1.20947,0.0708008,-0.125977
73391534843,1.4292,0.0239258,-0.227051
73391539613,1.78369,0.0415039,-0.405762
73391556083,1.92236,-0.0195312,-0.519043
73391577114,1.854,-0.0405273,-0.634277
73391592959,1.73193,0.141113,-0.771973
73391624206,1.65723,0.239746,-0.916504
73391637174,1.43408,0.654785,-1.34473
73391659655,0.905762,0.772949,-1.8501
73391690312,0.817871,0.248535,-1.49658
73391697869,1.01514,0.602051,-1.2793
73391721112,1.29932,-0.187988,0.216309
73391736046,1.08057,-1.66309,3.51562
73391757562,2.24463,1.00781,-1.26172
73391781026,1.44922,0.240723,-0.166016
73391796039,0.702148,-0.278809,0.119141
73391817064,0.737793,-0.302734,-0.393555
73391832827,0.910156,-0.0825195,-0.0844727
73391856107,1.12354,0.0634766,-0.0683594
73391877137,1.23389,-0.0600586,-0.0703125
73391892892,1.02539,-0.118652,-0.100586
73391916105,0.993652,-0.117676,-0.078125
73391937068,1.03564,-0.176758,-0.081543
73391952946,1.00537,-0.169434,-0.129883
73391976060,0.993652,-0.229492,-0.154785
73391997090,0.96582,-0.264648,-0.138672
73392012923,0.965332,-0.233398,-0.143555
73392036022,0.943359,-0.224609,-0.158203
73392057217,0.908203,-0.208496,-0.169922
73392088544,0.908691,-0.214844,-0.15918
73392096078,0.934082,-0.213867,-0.176758
73392125874,0.939941,-0.166992,-0.177734
73392147153,0.950684,-0.170898,-0.183105
73392163524,0.968262,-0.183105,-0.181152
73392193492,1.00439,-0.157715,-0.205078
73392195884,1.00488,-0.100098,-0.224609
73392237600,1.00439,-0.116211,-0.207031
73392277450,1.03516,-0.129883,-0.168457
73392305081,1.07617,-0.149902,-0.112793
73392315739,1.19873,-0.0908203,-0.134277
73392352397,1.32031,-0.18457,-0.115234
73392387615,1.47705,-0.213867,-0.0332031
73392418343,1.67383,-0.231445,0.190918
73392428204,1.88184,-0.42041,0.59375
73392457326,1.61963,-0.589844,-0.694336
73392462140,1.35254,-0.592773,-0.313477
73392484586,1.08203,-0.120605,-0.633789
73392517410,0.831543,0.0180664,-0.55957
73392621712,0.517578,-0.320801,0.26123
73392624047,0.445801,-0.298828,0.456055
73392645721,0.326172,-0.213867,0.108398
73392659168,0.73291,0.0776367,0.0268555
73392661563,0.861816,0.105957,0.0961914
73392672901,0.967285,0,0.136719
73392702075,1.08838,0.0610352,-0.0449219
73392718619,1.31006,0.119629,-0.168457
73392732937,1.62061,0.143555,-0.288086
73392755400,1.75732,-0.00537109,-0.338379
73392792816,1.75342,0.000976562,-0.42041
73392799619,1.81201,0.0820312,-0.611816
73392815374,1.73291,0.127441,-0.872559
73392838546,1.50684,0.359375,-1.30811
73392859646,1.08252,0.996094,-1.79346
73392875454,0.671387,0.484863,-1.8457
73392898599,0.899902,0.239258,-1.34717
73392919644,1.06201,0.438965,-0.982422
73392935432,0.990723,-0.306641,0.836914
73392974879,0.895508,-2.13525,3.62842
73392987023,2.47559,0.850098,-1.42139
73393002226,2.29248,0.218262,-0.493164
73393018549,0.545898,0.214355,0.398438
73393041121,0.591797,-0.260742,-1.04248
73393055456,1.18164,0.153809,-0.38623
73393078557,1.2627,-0.182129,-0.0283203
73393099627,1.21143,-0.111816,-0.0600586
73393115381,0.993164,-0.0878906,-0.158691
73393138417,1.05322,-0.012207,-0.185059
73393176021,1.06836,-0.0610352,-0.165527
73393178426,1.00146,-0.16748,-0.165527
73393214942,0.999023,-0.202148,-0.14502
73393221057,0.983398,-0.223145,-0.147949
73393252178,0.982422,-0.216309,-0.135742
73393260057,0.939453,-0.22998,-0.125
73393356625,0.941895,-0.216309,-0.126953
73393359080,0.90332,-0.22168,-0.14502
73393365418,0.887695,-0.203613,-0.150391
73393402171,0.907227,-0.148438,-0.229004
73393425683,0.916016,-0.195312,-0.22998
73393454908,0.947266,-0.198242,-0.279785
73393491643,1.01514,-0.131348,-0.290039
73393494034,1.02832,-0.050293,-0.276855
73393560717,1.06201,-0.00537109,-0.249512
73393596588,1.13135,-0.0317383,-0.212891
73393662795,2.08643,0.0703125,0.472168
73393897463,1.52344,-1.09131,-0.0795898
73393910986,0.980469,0.186523,-0.901855
73393912633,1.13818,0.123535,-0.137207
73393917962,1.3374,0.0473633,-0.170898
73393941065,1.70752,0.0561523,-0.382812
73393962177,1.67578,-0.0737305,-0.407227
73393977986,1.81982,0.0986328,-0.592285
73394001151,1.68799,0.0825195,-0.529297
73394022112,1.63965,0.182617,-0.593262
73394046091,1.48389,0.151855,-0.866211
73394061109,1.22705,0.313477,-1.09375
73394074022,0.965332,0.755371,-1.52393
73394097654,0.838379,0.544434,-1.52686
73394113609,1.07227,0.291504,-1.10645
73394134048,0.992188,0.344238,-0.766113
73394157210,1.49072,-2.44141,4.61865
73394171490,2.63965,1.31201,-1.40967
73394194053,1.59375,-0.065918,-0.560547
73394217160,0.745605,-0.203613,0.302734
73394232964,0.625,-0.525879,-0.288574
73394254038,0.901367,-0.0166016,-0.309082
73394276958,1.17041,0.0390625,-0.236328
73394300401,1.31396,0.0117188,-0.0126953
73394314041,1.02344,-0.119141,-0.0961914
73394337107,1.01367,-0.0795898,-0.142578
73394351465,1.0083,-0.164062,-0.163574
73394374036,0.999023,-0.117676,-0.179199
73394397246,0.964355,-0.21875,-0.175781
73394411492,0.967285,-0.248535,-0.168457
73394434037,0.947754,-0.232422,-0.130859
73394458574,0.943359,-0.215332,-0.13623
73394489734,0.952148,-0.209961,-0.13623
73394495403,0.924805,-0.202148,-0.151855
73394669903,0.904785,-0.192383,-0.183105
73394708281,0.909668,-0.196289,-0.175293
73395036762,1.10352,-0.137695,-0.170898
73395037592,1.15625,-0.0927734,-0.17334
73395038395,1.23828,-0.0732422,-0.186035
73395044992,1.3042,-0.081543,-0.14502
73395045833,1.74219,-0.610352,0.629395
73395111742,0.629883,-0.181641,0.0986328
73395114081,0.855469,-0.046875,-0.0283203
73395150772,0.998047,0.0722656,-0.215332
73395151598,1.13037,0.012207,-0.220703
73395157569,1.396,-0.00341797,-0.333496
73395158456,1.48926,-0.0463867,-0.449219
73395178732,1.47803,-0.0195312,-0.472656
73395191601,1.479,-0.043457,-0.435547
73395214027,1.4707,-0.105957,-0.400879
73395237210,1.4751,-0.0703125,-0.447266
73395251522,1.49805,0.0146484,-0.484375
73395274084,1.48877,0.184082,-0.596191
73395297166,1.33398,0.325684,-0.914062
73395312980,1.01221,0.568359,-1.41357
73395334014,0.814941,0.410156,-1.54053
73395357974,0.987305,0.324219,-1.14746
73395371495,0.974609,0.263672,-0.696777
73395394099,1.00293,0.00927734,0.553711
73395416545,0.915527,-2.77051,3.23633
73395434393,2.46826,1.29346,-0.825684
73395454104,1.22412,-0.903809,-2.3252
73395494170,1.84229,1.35547,-0.0976562
73395496573,0.973145,-0.228027,-0.312988
73395513999,0.85791,-0.0942383,-0.461914
73395536500,1.1499,-0.210938,-0.199707
73395551402,1.05273,-0.266602,-0.208496
73395576863,1.1416,-0.0898438,-0.128418
73395608194,1.05566,0.0200195,-0.241699
73395637172,0.998535,-0.135254,-0.231445
73395671917,0.952148,-0.190918,-0.243164
73396327431,0.96582,-0.236328,-0.205566
73396341704,0.957031,-0.258301,-0.201172
73396342486,0.901855,-0.351562,-0.245117
73396343329,1.78955,-0.763184,0.477051
73396347822,1.31055,0.0102539,-0.24707
73396370263,1.52344,-0.0541992,-0.507324
73396377188,1.49609,-0.0766602,-0.502441
73396409254,1.5293,-0.0551758,-0.57373
73396414018,1.47461,-0.107422,-0.552734
73396436514,1.42188,-0.133301,-0.726074
73396452949,1.39307,-0.0454102,-0.764648
73396474007,1.42725,0.19873,-0.83252
73396496517,1.27344,0.254395,-1.08643
73396512900,0.963379,0.59668,-1.57373
73396534025,0.812012,0.86377,-1.83691
73396564719,0.873535,0.50293,-1.47949
73396579022,1.09082,0.440918,-0.935547
73396593973,1.27246,-1.16602,1.85986
73396633523,0.975586,-3.18213,4.63379
73396635915,4.34961,0.925781,-1.66748
73396663692,0.60791,0.624023,-0.436035
73396677922,1.42578,0.957031,0.109863
73396694421,0.68457,-0.421875,-0.185547
73396722156,1.19824,0.256348,-0.578613
73396736482,1.14795,-0.254883,-0.131348
73396754341,1.13086,-0.259277,0.0585938
73396782203,1.08789,0.034668,-0.100586
73396821040,1.05371,-0.0595703,-0.1875
73396823449,0.998047,-0.151855,-0.166016
73396890008,0.965332,-0.243652,-0.153809
73396993344,0.964844,-0.28125,-0.14209
73397270205,0.938965,-0.171387,-0.12793
73397495301,0.898926,-0.196777,-0.164062
73397544030,1.69629,-1.05664,-0.602539
73397550129,1.12402,0.0800781,-0.181641
73397555442,1.2832,-0.0795898,-0.185059
73397579510,1.65625,0.0219727,-0.428223
73397593043,1.72656,-0.162109,-0.431641
73397616957,1.80078,-0.0786133,-0.559082
73397636566,1.83691,-0.0380859,-0.549805
73397652294,1.76367,-0.0166016,-0.583496
73397674770,1.72314,0.212891,-0.793945
73397697209,1.45752,0.382812,-1.04395
73397712216,1.10059,0.73291,-1.57324
73397734733,0.8125,0.383301,-1.52051
73397757210,0.922363,0.347168,-1.22705
73397772233,1.05322,0.388672,-0.867188
73397794772,1.16943,-0.336426,0.112793
73397818742,0.728027,-2.73193,2.05127
73397833362,1.896,1.10596,-0.598633
73397854751,2.63818,1.13135,-0.183594
73397877302,0.730957,0.282227,0.475098
73397892273,0.954102,-0.282227,-0.477539
73397914718,0.864746,-0.302246,-0.0390625
73397937274,1.08936,-0.232422,-0.0913086
73397959795,1.15771,-0.130859,-0.09375
73397974721,1.08008,-0.119141,-0.148926
73397999400,1.05566,-0.0551758,-0.0854492
73398013689,1.04443,-0.140137,-0.0771484
73398066725,1,-0.206543,-0.110352
73398207086,0.964355,-0.271973,-0.121582
73398277489,0.974609,-0.266113,-0.119629
73398770286,0.952148,-0.191406,-0.178223
73398770952,0.96875,-0.227539,-0.20166
73398779997,0.997559,-0.173828,-0.239258
73398794298,1.2749,-0.118652,-0.140625
73398795025,1.22314,0.101562,-0.109863
73398796688,1.37646,0.0761719,-0.147949
73398814741,1.62988,0.125,-0.253906
73398837263,1.65771,-0.027832,-0.31543
73398859818,1.67285,0.0444336,-0.36084
73398874787,1.64258,0.0732422,-0.432129
73398898694,1.62891,0.050293,-0.504395
73398936776,1.5918,0.239746,-0.679688
73398939078,1.41504,0.369141,-0.915039
73398964813,1.16162,0.711426,-1.44873
73398973690,0.887695,0.616699,-1.68213
73398994718,1.0166,0.413086,-1.37109
73399032065,1.33887,-0.130371,-1.34717
73399042685,1.28955,-0.600098,0.559082
73399054540,1.00098,-1.69678,2.97217
73399092035,2.21826,1.10938,-1.20068
73399102655,1.49316,0.27832,0.246582
73399116886,0.641602,-0.299805,0.114258
73399138730,0.926758,-0.268066,-0.416504
73399168723,0.933594,-0.288574,-0.104492
73399176194,1.19678,0.0639648,-0.0849609
73399198752,1.1543,-0.0522461,0.0307617
73399213044,0.958984,-0.177246,-0.0229492
73399237694,1.01416,-0.102539,-0.0317383
73399264546,1.0376,-0.20459,-0.0224609
73399483374,0.972168,-0.208008,-0.0307617
73399507495,1.00684,-0.116211,-0.102051
73399513612,0.968262,-0.191895,-0.097168
73399515979,0.97998,-0.178711,-0.202148
73399552513,1.0249,-0.202637,-0.206543
73399557667,1.09521,-0.166504,-0.225586
73399590209,1.104,-0.170898,-0.192383
73399596179,1.11914,-0.149414,-0.130371
73399769293,1.16895,-0.157715,-0.0913086
73399771677,1.2915,-0.186523,-0.0961914
73399793352,1.93457,-0.774902,0.614258
73399806783,1.91895,-0.964355,-0.492676
73399809208,1.229,-0.743652,-0.0478516
73400025761,0.907227,-0.046875,-0.349609
73400040103,0.842773,-0.0976562,-0.208984
73400044791,1.22803,-0.0419922,-0.240723
73400059753,1.50244,-0.0429688,-0.399902
73400075582,1.6626,-0.0727539,-0.458496
73400115032,1.59863,-0.0625,-0.425781
73400119724,1.67822,-0.0371094,-0.412109
73400142296,1.67627,-0.0385742,-0.443359
73400158754,1.66357,-0.034668,-0.566406
73400173106,1.52441,0.115723,-0.805664
73400220057,1.35938,0.541016,-1.14795
73400225193,0.949707,0.816406,-1.64893
73400247262,0.800293,0.367676,-1.49658
73400262283,1.14307,-0.0102539,-1.29443
73400286249,1.2876,0.43457,-0.572754
73400308718,1.22754,-1.02393,2.44775
73400337080,1.43115,-0.132324,0.458984
73400347431,3.02686,0.84668,-0.898438
73400362341,0.692383,-0.149902,0.606934
73400399977,0.550781,-0.611816,-0.280762
73400436789,0.825684,-0.571777,-0.390625
73400439180,1.09473,0.25293,-0.167969
73400468341,1.49463,0.260254,0.0820312
73400480850,1.07764,0.105469,0.0239258
73400495862,0.958984,-0.191895,-0.00585938
73400502293,1.01562,-0.263184,0.0214844
73400562053,0.991699,-0.240723,0.0102539
73400737584,0.940918,-0.17627,-0.13916
73400803361,0.931641,-0.312988,-0.0834961
73400813327,1.05762,-0.223145,-0.19873
73400880776,1.1875,-0.140137,-0.115723
73401195082,1.23389,0.0224609,-0.065918
73401209350,1.91016,-0.592285,0.415527
73401210933,1.00732,-0.40625,-0.296875
73401216193,0.96875,0.150879,0.0830078
73401218524,1.104,0.129395,0.00537109
73401229127,1.25098,0.132324,-0.163086
73401251670,1.44629,0.078125,-0.191895
73401291190,1.69336,0.160156,-0.268066
73401293536,1.75244,-0.0185547,-0.240723
73401311615,1.9165,-0.0151367,-0.351074
73401335241,1.98486,0.00488281,-0.551758
73401357740,1.83789,0.00976562,-0.882812
73401371573,1.57031,0.808594,-1.65625
73401396183,0.970703,1.27539,-2.33545
73401409087,0.851562,0.317871,-1.69287
73401431630,1.17822,0.479492,-1.33545
73401454827,1.32275,-0.0898438,-0.290039
73401469083,0.922363,-1.30371,1.68506
73401493043,0.751953,-0.736816,2.1123
73401522140,3.44727,0.943848,-1.63818
73401548342,0.986328,0.137207,0.349121
73401576887,0.755859,-0.185547,0.0791016
73401579153,0.697754,-0.461426,-0.567871
73401589127,1.09033,0.0444336,-0.149414
73401611565,1.19824,0.00878906,-0.00878906
73401634797,1.1167,-0.161621,-0.0131836
73401649076,0.992676,-0.09375,-0.0673828
73401741796,1.01123,-0.196289,-0.0195312
73401744236,0.995117,-0.286621,-0.0297852
73401951912,0.959961,-0.266602,-0.0678711
73401952688,0.967285,-0.207031,-0.157715
73402025327,0.967773,-0.211426,-0.14502
73402086896,0.973633,-0.167969,-0.188965
73402089250,1.02686,-0.264648,-0.152344
73402162621,1.22852,-0.0839844,-0.0625
73402164187,1.69238,-0.271484,0.267578
73402365856,1.97656,-0.540527,0.780762
73402370870,2.02686,-0.869141,-0.580566
73402394376,0.79834,0.0219727,0.0556641
73402399824,0.983398,0.0576172,0.0131836
73402424429,1.12744,0.111328,0.0605469
73402429188,1.29443,0.15625,-0.0229492
73402451647,1.44629,0.118652,-0.125488
73402474192,1.68555,0.0854492,-0.17041
73402489076,1.96484,0.0712891,-0.344727
73402511663,1.92188,-0.0996094,-0.459961
73402534190,1.85303,-0.0664062,-0.719727
73402549211,1.66748,0.113281,-1.00293
73402571780,1.55371,0.585449,-1.39551
73402602993,1.10059,1.0249,-2.13428
73402609191,0.830078,0.305664,-1.92822
73402631783,1.34961,-0.0683594,-1.63135
73402654136,1.40771,-0.0546875,-0.256348
73402669134,1.16504,-1.74951,3.92139
73402691682,2.2251,0.656738,-1.16943
73402714190,1.55762,0.434082,-0.0600586
73402737346,0.48877,-0.210449,0.529297
73402751778,0.762207,-0.69873,-0.866211
73402782960,1.0166,-0.251953,-0.172363
73402789226,1.16406,0.124512,-0.175781
73402811741,1.22998,0.000976562,-0.0175781
73402834184,1.03125,-0.0800781,-0.0102539
73402850618,1.021,-0.0224609,-0.0273438
73402887997,1.05225,-0.164062,0.015625
73402926798,1.00537,-0.194824,-0.0263672
73402929184,0.961914,-0.122559,-0.140625
73402943142,0.98291,-0.108887,-0.15625
73402965192,0.952148,-0.304688,-0.0805664
73402995133,0.975586,-0.244141,-0.0683594
73403024433,0.967773,-0.190918,-0.0952148
73403026754,0.954102,-0.220215,-0.128418
73403032067,0.952637,-0.196289,-0.143066
73403166844,0.960938,-0.199707,-0.13916
73403169206,0.959961,-0.199707,-0.136719
73403205110,0.986816,-0.191895,-0.146484
73403206787,1.13232,-0.178223,-0.169434
73403265689,1.14355,-0.171387,-0.13623
73403377684,1.18018,-0.115234,-0.0668945
73403415094,1.56006,-0.268066,0.213867
73403565090,1.23291,-0.766602,-0.0419922
73403572729,0.746582,-0.216309,-0.0712891
73403585473,0.916992,-0.0112305,-0.0151367
73403591662,1.05957,-0.0112305,0.0112305
73403630961,1.14795,0.128906,-0.185059
73403636737,1.26416,-0.019043,-0.233398
73403654584,1.51855,-0.0205078,-0.288574
73403674187,1.69873,-0.0351562,-0.402832
73403690639,1.7583,-0.0932617,-0.357422
73403711741,1.86719,0.118164,-0.394531
73403734199,1.88477,0.140137,-0.682129
73403750599,1.63232,0.269531,-1.24023
73403771732,1.45068,1.10938,-1.88623
73403794179,0.914062,1.021,-2.08838
73403841838,1.24805,-0.227539,-1.73291
73403844249,1.38867,0.487305,-0.662598
73403857052,0.973633,-2.0752,2.19824
73403870592,1.36328,0.655762,0.175293
73403894705,2.53613,0.490723,-0.330566
73403915734,0.993652,-0.520508,-0.578125
73403930687,0.771484,-0.424316,-0.0854492
73403970913,0.84082,-0.17334,-0.545898
73403998552,1.23096,0.245605,-0.208008
73404007697,1.25293,-0.0493164,0
73404020687,1.05225,-0.130859,-0.0219727
73404037073,1.06689,-0.107422,-0.114258
73404066232,1.00439,-0.173828,-0.151367
73404073130,1.00586,-0.17041,-0.120117
73404105288,0.981445,-0.239258,-0.119629
73404110707,0.938965,-0.300293,-0.121094
73404140734,0.935547,-0.29248,-0.118164
73404154161,0.921387,-0.280273,-0.113281
73404247752,0.921387,-0.268066,-0.11377
73404268547,0.93457,-0.251953,-0.102539
73404279182,0.945312,-0.219727,-0.15625
73404314379,0.930664,-0.269043,-0.143555
73404316804,0.958008,-0.311035,-0.14502
73404334152,1.06494,-0.172852,-0.222656
73404412346,1.09326,-0.137695,-0.171875
73404419461,1.18262,-0.105469,-0.131348
73404433792,1.33789,-0.234863,-0.0864258
73404457043,1.44189,-0.225098,0.0444336
73404470697,1.625,-0.184082,0.326172
73404500741,1.76611,-0.374512,0.720703
73404537134,1.76855,-0.819336,0.713867
73404555849,1.95312,-0.318848,-0.489258
73404576757,2.01562,-1.10254,-0.484375
73404591101,1.46191,-0.889648,-0.218262
73404608186,0.994629,-0.0625,-0.305664
73404622758,0.973145,-0.172852,-0.35791
73404660908,0.401367,-0.55957,0.285645
73404697689,0.378418,-0.240234,0.330566
73404764346,0.314941,-0.0424805,0.0991211
73404778751,0.487793,-0.0673828,-0.0864258
73404781077,0.891602,-0.0234375,0.100098
73404793116,1.10107,0.0898438,-0.197266
73404816370,1.21338,0.012207,-0.356445
73404830683,1.44678,0.0776367,-0.361328
73404852400,1.56982,-0.0541992,-0.44873
73404883466,1.60986,-0.123047,-0.537598
73404892082,1.62207,-0.0566406,-0.491699
73404912360,1.56348,-0.138672,-0.518555
73404936086,1.54688,0.0356445,-0.585449
73404952151,1.39502,0.127441,-0.834961
73404974265,1.22559,0.286133,-1.06885
73404994851,0.994141,0.790039,-1.55029
73405025381,0.68457,0.509277,-1.49463
73405041307,0.629883,0.803223,-1.33643
73405054899,1.05811,-0.828125,0.6875
73405070736,1.68115,0.0102539,0.148438
73405092345,3.47461,0.554688,-0.307129
73405114878,1.17383,0.972656,0.40332
73405130704,0.700684,-0.190918,-0.165527
73405152367,0.75,-0.56543,-0.15332
73405174871,1.17627,0.0864258,-0.310059
73405190743,1.12402,-0.29541,0.10498
73405212429,1.07861,-0.0283203,0.078125
73405251875,1.04932,-0.0952148,0.0717773
73405254324,1.00928,-0.162598,0.0463867
73405272330,0.915039,-0.280273,-0.00488281
73405294901,0.914062,-0.294922,0.0219727
73405310677,0.937012,-0.280273,0.0620117
73405332387,0.919922,-0.237305,0.0571289
73405354886,0.933105,-0.275391,0.0737305
73405371316,0.92334,-0.295898,0.0751953
73405393099,0.883301,-0.319336,0.0322266
73405414929,0.916504,-0.291504,0.0317383
73405430700,0.950684,-0.241699,0.0292969
73405452333,0.946289,-0.308105,0.0742188
73405474864,0.971191,-0.339844,0.097168
73405491335,0.997559,-0.205566,-0.0541992
73405513384,0.955566,-0.243164,-0.130859
73405534892,0.991699,-0.134277,-0.0493164
73405573615,1.00537,-0.139648,-0.0283203
73405596784,0.990234,-0.147461,-0.0532227
73405611794,0.958008,-0.207031,-0.00244141
73405614275,0.940918,-0.257812,-0.00732422
73405632438,0.910156,-0.318848,0.0366211
73405662092,0.91748,-0.335938,0.0844727
73405672780,0.932617,-0.309082,0.0742188
73405694960,0.916504,-0.269531,0.0117188
73405714958,0.940918,-0.273438,0.0390625
73405730735,0.95166,-0.260742,0.0253906
73405776123,0.954102,-0.25293,0.00488281
73405807748,0.937988,-0.23291,-0.00878906
73405814392,0.962402,-0.204102,-0.0317383
73405816776,0.960938,-0.229004,-0.0424805
73405851216,0.953613,-0.206055,-0.0375977
73405853651,0.956055,-0.149414,-0.0146484
73405890090,0.972168,-0.174316,-0.0498047
73405911888,0.976562,-0.156738,-0.0556641
73405917785,0.962891,-0.172363,-0.0820312
73405965089,0.977051,-0.146973,-0.0834961
73405971061,0.981934,-0.189453,-0.0825195
73405995736,0.979492,-0.15918,-0.0917969
73406039412,0.980469,-0.118164,-0.0932617
73406041816,1.0083,-0.0336914,-0.105957
73406085238,1.00635,-0.0688477,-0.0683594
73406090368,0.995605,-0.115723,-0.0263672
73406115921,0.999023,-0.130859,-0.0776367
73406122011,0.995605,-0.139648,-0.0883789
73406134915,1.03125,-0.142578,-0.0820312
73406151807,1.15088,-0.244141,-0.0961914
73406175951,1.08496,-0.125488,-0.0615234
73406202120,1.03711,-0.059082,-0.152344
73406249365,1.02295,0.0654297,-0.198242
73406251777,1.01562,0.0756836,-0.200684
73406280932,1.03564,0.00830078,-0.175781
73406286290,0.981445,-0.0561523,-0.132324
73406504425,0.975586,-0.0869141,-0.0844727
73406506778,0.950684,0,-0.0336914
73406572725,0.827148,-0.0385742,-0.150391
73406578069,0.834961,-0.03125,-0.229004
73406593806,0.674316,-0.00585938,-0.0292969
73406614748,0.46582,0.383789,-3.88623
73406637384,1.59912,-0.23584,0.291992
73406668155,0.753418,-0.665527,0.654297
73406674903,1.23291,0.57373,-0.00927734
73406690712,1.06689,-0.0498047,-0.0795898
73406713253,0.887695,-0.166992,-0.0395508
73406736388,1.00098,-0.175781,-0.163086
73406750689,0.920898,-0.168457,-0.0585938
73406773133,0.976074,-0.152344,-0.00537109
73406796320,0.968262,-0.23291,0.0556641
73406810717,0.990234,-0.158691,0.0625
73406833674,0.966797,-0.164062,0.034668
73406856385,0.936035,-0.204102,0.0185547
73406870731,0.919434,-0.234863,0.0224609
73406893207,0.969238,-0.169922,0.0166016
73406916356,0.967285,-0.144531,-0.00878906
73406930685,0.974609,-0.142578,-0.00878906
73406954670,0.982422,-0.123047,-0.0112305
73406976330,0.989258,-0.12793,-0.0102539
73406990696,0.983887,-0.144043,-0.00439453
73407013099,0.959473,-0.150879,0
73407043840,0.95166,-0.171875,0.00488281
73407050726,0.958008,-0.171387,0.027832
73407073227,0.96875,-0.148438,0.00634766
73407096137,0.958496,-0.166016,0.0166016
73407110706,0.977051,-0.170898,0.00732422
73407133174,0.973633,-0.152832,0
73407156334,0.975586,-0.146973,-0.00537109
73407170719,0.958984,-0.155273,0.00341797
73407201299,0.964355,-0.162109,0.0141602
73407216390,0.977539,-0.147949,-0.00244141
73407237442,0.970703,-0.150879,0.0078125
73407253221,0.961426,-0.165039,0.00244141
73407298737,0.960938,-0.160645,0.00341797
73407307773,0.967285,-0.169434,0.00390625
73407327475,0.976074,-0.166992,0.00488281
73407336300,0.975098,-0.136719,0.00146484
73407357473,0.968262,-0.147461,0.00634766
73407373257,0.96582,-0.158203,0.00634766
73407397012,0.964355,-0.156738,0.0146484
73407417341,0.962891,-0.152344,0.00830078
73407433220,0.96582,-0.157227,0.0107422
73407456370,0.974121,-0.14209,0.00488281
73407477345,0.976074,-0.147949,0.0214844
73407493694,0.978027,-0.14209,0.00537109
73407516326,0.962402,-0.138672,0.00830078
73407537358,0.96582,-0.147949,0.00341797
73407561342,0.972168,-0.140625,0.00976562
73407575667,0.961914,-0.151855,0.0112305
73407597211,0.963867,-0.145508,0.015625
73407613114,0.965332,-0.140137,0.0151367
73407635769,0.970215,-0.152344,0.0219727
73407658792,0.975098,-0.143066,0.00585938
73407673762,0.967773,-0.132324,0.00585938
73407695770,0.969238,-0.151367,0.0078125
73407718815,0.969238,-0.146484,0.0112305
73407733233,0.970703,-0.143066,0.00878906
73407771413,0.974609,-0.147949,0.0185547
73407778868,0.973145,-0.13916,0.00830078
73407793178,0.97168,-0.140137,0.0112305
73407817176,0.973145,-0.15332,0.00732422
73407853724,0.972168,-0.146484,0.00976562
73407856185,0.968262,-0.149902,0.015625
73407875794,0.979492,-0.148926,0.0102539
73407898910,0.969727,-0.134277,0.00976562
73407913735,0.967285,-0.140137,0.00488281
73407935689,0.963379,-0.147949,0.0131836
73407958885,0.967773,-0.137695,0.00878906
73407973166,0.963379,-0.131348,0.00732422
73407995717,0.96582,-0.150879,0.0126953
73408026997,0.972656,-0.145996,0.0107422
73408033226,0.966797,-0.138184,0.00830078
73408055743,0.970215,-0.149902,0.00927734
73408078814,0.975098,-0.150391,0.00537109
73408093202,0.970703,-0.13916,0.00830078
73408122465,0.966309,-0.144043,0.0170898
73408138878,0.97168,-0.15625,0.0102539
73408159939,0.978027,-0.140625,0.00585938
73408175734,0.971191,-0.133301,0.0078125
73408198930,0.964844,-0.141602,0.00830078
73408219916,0.967285,-0.14502,0.0131836
73408235732,0.963379,-0.143066,0.0107422
73408258911,0.972168,-0.146484,0.0195312
73408279940,0.972168,-0.137695,0.0180664
73408295690,0.971191,-0.142578,0.0117188
73408318878,0.969238,-0.145996,0.0112305
73408339916,0.968262,-0.142578,0.0102539
73408363871,0.96875,-0.14502,0.0161133
73408378907,0.970703,-0.145996,0.0136719
73408401349,0.974609,-0.134766,0.0107422
73408415002,0.968262,-0.142578,0.00830078
73408429260,0.971191,-0.148438,0.0161133
73408451768,0.970703,-0.139648,0.0136719
73408474973,0.965332,-0.144531,0.0146484
73408489318,0.967285,-0.14502,0.0205078
73408511747,0.968262,-0.144043,0.0200195
73408534956,0.967773,-0.145996,0.0229492
73408549293,0.972168,-0.145996,0.0249023
73408573215,0.976562,-0.138184,0.0078125
73408595400,0.967773,-0.135742,0.0107422
73408609309,0.968262,-0.149414,0.0151367
73408631814,0.965332,-0.144531,0.0146484
73408655015,0.96875,-0.141113,0.0166016
73408669315,0.974609,-0.144531,0.0209961
73408691717,0.974121,-0.143066,0.015625
73408714966,0.972656,-0.133301,0.0131836
73408729319,0.965332,-0.146484,0.0205078
73408751797,0.972168,-0.150879,0.0166016
73408783107,0.961914,-0.135254,0.0141602
73408789298,0.962891,-0.134766,0.0166016
73408813243,0.97168,-0.142578,0.0253906
73408834993,0.965332,-0.135254,0.019043
73408858704,0.97168,-0.137695,0.0234375
73408882658,0.967285,-0.13623,0.0180664
73408895008,0.970703,-0.140137,0.0112305
73408909305,0.970703,-0.134766,0.0195312
73408931812,0.969238,-0.138184,0.0131836
73408954934,0.976074,-0.141113,0.0161133
73408969335,0.970703,-0.135742,0.0200195
73408991754,0.964355,-0.138672,0.0195312
73409015485,0.966797,-0.144531,0.0214844
73409029246,0.967285,-0.141602,0.0283203
73409051790,0.965332,-0.138672,0.0170898
73409075017,0.972656,-0.137207,0.0205078
73409089262,0.971191,-0.137207,0.0258789
73409111806,0.969727,-0.135742,0.0195312
73409135032,0.967285,-0.140137,0.0205078
73409149358,0.972656,-0.137207,0.0234375
73409171740,0.973145,-0.143555,0.0175781
73409194744,0.968262,-0.137695,0.0185547
73409225599,0.969238,-0.137207,0.0185547
73409231782,0.96875,-0.135742,0.0185547
73409254953,0.966309,-0.137207,0.0200195
73409269467,0.970215,-0.134277,0.0214844
73409293255,0.973145,-0.140625,0.0302734
73409314960,0.977051,-0.128906,0.0229492
73409329309,0.966797,-0.133789,0.0288086
73409351762,0.965332,-0.139648,0.0214844
73409377821,0.967285,-0.135254,0.0180664
73409397236,0.968262,-0.138184,0.0219727
73409411801,0.971191,-0.140137,0.027832
73409434972,0.972168,-0.132324,0.0258789
73409449297,0.968262,-0.133789,0.0224609
73409471785,0.970703,-0.140625,0.0288086
73409494937,0.967285,-0.135254,0.0185547
73409510739,0.966797,-0.134766,0.0214844
73409540366,0.970703,-0.137207,0.0292969
73409554956,0.970215,-0.138184,0.0292969
73409569403,0.973145,-0.135254,0.0283203
73409591855,0.966309,-0.138672,0.027832
73409614979,0.971191,-0.138672,0.0317383
73409629298,0.967285,-0.137695,0.0219727
73409651726,0.972168,-0.130859,0.0273438
73409674277,0.975586,-0.130859,0.0317383
73409689324,0.970215,-0.125488,0.0302734
73409721425,0.976562,-0.126465,0.0283203
73409734283,0.977539,-0.129883,0.0239258
73409749326,0.972656,-0.125,0.0268555
73409779972,0.969727,-0.121582,0.03125
73409795694,0.959961,-0.134277,0.0327148
73409809292,0.96582,-0.129883,0.0400391
73409831782,0.974609,-0.127441,0.0424805
73409854318,0.963867,-0.128418,0.0405273
73409869309,0.966309,-0.137695,0.0454102
73409893201,0.966309,-0.126953,0.03125
73409914384,0.970703,-0.131348,0.0371094
73409929360,0.977539,-0.131348,0.0375977
73409951835,0.973633,-0.117188,0.0307617
73409974317,0.965332,-0.139648,0.0283203
73409989327,0.963379,-0.137695,0.0336914
73410011809,0.967773,-0.129883,0.0341797
73410034328,0.973633,-0.125,0.0371094
73410050781,0.973145,-0.130371,0.0361328
73410074718,0.969727,-0.116211,0.0288086
73410094253,0.964844,-0.127441,0.0297852
73410109289,0.973145,-0.125,0.0268555
73410131867,0.973145,-0.129883,0.0454102
73410154316,0.981934,-0.11084,0.0195312
73410169376,0.969238,-0.0732422,0.0356445
73410191816,0.981934,-0.0634766,0.0302734
73410223193,0.977539,-0.12207,0.0371094
73410229316,0.980469,-0.157715,0.0297852
73410251759,0.974121,-0.129395,0.00390625
73410274287,0.957031,-0.146484,0.0141602
73410289296,0.969238,-0.111328,0.00488281
73410311829,0.968262,-0.0839844,0.0161133
73410334317,0.973145,-0.106934,0.0219727
