myot,myox,myoy,myoz
4371706720,-0.0395508,-0.0737305,0.993164
4371736717,-0.0463867,-0.103027,0.927246
4371746783,-0.109863,-0.0874023,0.993164
4371759839,-0.145996,-0.0444336,1.02686
4371774812,-0.145996,0.0571289,1.06055
4371797336,-0.129883,-0.0117188,1.01221
4371819855,-0.185059,0.0229492,1.06055
4371834866,-0.17334,-0.00390625,1.08252
4371857331,-0.137207,0.00585938,1.02637
4371879840,-0.120117,-0.0537109,1.02979
4371894797,-0.125,-0.034668,0.999023
4371925705,-0.116211,-0.0454102,0.980957
4371939918,-0.132812,-0.0507812,0.976074
4371955016,-0.0292969,0.140137,1.03906
4371977487,-0.12793,-0.126465,0.970703
4371991924,-0.186523,-0.157715,0.921387
4372014878,-0.137695,0.10791,0.947266
4372037522,-0.118164,0.000488281,1.04932
4372060071,-0.128906,-0.0214844,1.08154
4372074936,-0.107422,-0.0717773,1.0874
4372097366,-0.115723,-0.0864258,1.06348
4372136265,-0.141602,-0.0800781,1.05469
4372165562,-0.117188,-0.0883789,1.02051
4372166373,-0.0961914,-0.0883789,0.963867
4372187383,-0.150879,-0.0341797,0.979492
4372202385,-0.0917969,-0.0522461,1.01611
4372218844,-0.122559,-0.0776367,1.06689
4372241405,-0.178223,-0.0546875,0.870117
4372262155,-0.00341797,-0.115234,1.1543
4372278883,-0.0859375,-0.0541992,0.972168
4372301348,-0.144043,0.00634766,0.924805
4372322575,-0.175293,-0.0546875,0.900391
4372338219,-0.177246,-0.0678711,0.912109
4372361346,-0.172852,-0.0908203,0.902832
4372383802,-0.147949,-0.0834961,0.94873
4372398141,-0.0966797,-0.0498047,1.09131
4372420016,-0.103516,-0.00830078,1.14551
4372434384,-0.252441,0.00830078,0.942871
4372464921,-0.0893555,-0.0834961,1.03711
4372480053,-0.081543,-0.097168,1.02002
4372495701,-0.0400391,-0.0922852,0.980957
4372517572,0.0112305,-0.065918,0.947266
4372533171,-0.00439453,-0.0258789,0.921875
4372554199,-0.0683594,0.012207,0.94043
4372577328,-0.123047,0.102051,0.990723
4372601319,-0.202148,0.00585938,1.08203
4372622657,-0.301758,-0.0219727,1.04199
4372637541,-0.202637,-0.140137,0.986816
4372660068,-0.123535,-0.0341797,0.957031
4372675736,-0.0439453,0.0102539,0.916016
4372697331,-0.168457,0.108887,0.979004
4372719641,-0.165039,0.0263672,1.05127
4372743940,-0.118652,-0.0112305,1.09229
4372758828,-0.141113,-0.108887,1.06445
4372780069,-0.0986328,-0.106934,1.06348
4372803846,-0.0869141,-0.0214844,1.01221
4372841837,-0.127441,0.0444336,0.997559
4372842636,-0.174805,0.00244141,1.00049
4372863844,-0.127441,-0.0688477,1.05859
4372878913,-0.122559,-0.0839844,1.04004
4372909257,-0.0507812,-0.0493164,1.0332
4372930120,0.0175781,-0.0219727,0.939941
4372946404,0.0078125,-0.0498047,1.01514
4372968859,-0.176758,-0.0424805,0.910156
4372975721,-0.115723,-0.0639648,1.02246
4372998899,0.0205078,-0.0664062,1.08496
4373019957,0.012207,-0.0395508,1.01367
4373035791,-0.0214844,-0.0351562,1.02051
4373058922,-0.131836,-0.0214844,0.989258
4373079875,-0.117676,-0.0454102,1.00537
4373102366,-0.140625,-0.0473633,1.01465
4373118775,-0.0810547,-0.0825195,1.03613
4373139812,-0.0283203,-0.0361328,1.02002
4373155809,-0.0170898,0.0424805,1.04053
4373178872,0.0200195,-0.0380859,0.98584
4373200126,0.00537109,-0.113281,0.95459
4373215724,-0.0170898,-0.0854492,0.957031
4373239004,-0.0703125,-0.0429688,0.925781
4373267495,-0.13916,-0.0205078,0.945312
4373275725,-0.144043,-0.0380859,0.999512
4373298195,-0.115723,0.0268555,0.999023
4373344598,-0.118652,0.00927734,1.06738
4373345350,-0.182129,-0.0488281,1.03955
4373366308,-0.0966797,-0.160645,0.996094
4373381364,-0.00683594,-0.109375,1.03955
4373396380,-0.074707,-0.0317383,1.08105
4373418204,-0.090332,-0.0263672,1.09863
4373441402,-0.206055,-0.0507812,1.04736
4373487188,-0.0712891,-0.0307617,1.09912
4373487783,-0.114746,0.0332031,1.00049
4373523253,-0.182617,0.0327148,0.973633
4373530074,-0.109375,-0.0375977,0.91748
4373546434,-0.0654297,-0.0395508,0.994141
4373561417,-0.117188,-0.090332,0.995605
4373576209,-0.195801,-0.138184,1.08203
4373598242,-0.186523,-0.0673828,0.925781
4373621441,-0.175781,-0.0415039,0.931152
4373635736,-0.180664,-0.043457,0.976562
4373658248,-0.175781,-0.00292969,0.98291
4373681448,-0.0869141,-0.065918,1.02197
4373702601,-0.192383,-0.124023,1.04346
4373718284,-0.260742,-0.078125,1.01416
4373741434,-0.192871,-0.0146484,0.952637
4373762439,-0.123535,-0.0942383,0.96875
4373786424,-0.131836,-0.0493164,0.984863
4373801473,-0.19043,-0.0639648,1.01562
4373822600,-0.144531,-0.121094,1.03125
4373838262,-0.220215,-0.118652,1.04688
4373861375,-0.0629883,-0.0864258,1.01367
4373882580,-0.0161133,-0.130859,0.907715
4373898196,-0.0224609,-0.124023,0.916992
4373921425,-0.0771484,-0.149902,0.92627
4373942551,-0.108887,-0.0830078,0.927734
4373958215,-0.0454102,-0.0878906,0.928223
4373981384,-0.0146484,-0.166016,1.05859
4374002605,0.00341797,-0.0712891,1.11719
4374018273,-0.116699,-0.164551,1.11084
4374041346,-0.0947266,-0.146484,0.92627
4374062499,-0.0893555,-0.214844,1.05957
4374078273,-0.0463867,-0.19043,1.1167
4374101389,-0.0644531,-0.18457,1.04443
4374122583,-0.0117188,-0.156738,1.01807
4374138253,0.0615234,-0.0898438,0.932617
4374167416,0.0283203,-0.164551,0.995605
4374182576,-0.027832,-0.130859,1.08887
4374198184,-0.027832,-0.122559,1.10352
4374220734,-0.034668,-0.0922852,1.146
4374242489,0.0400391,-0.213867,1.01855
4374258241,0.0522461,-0.198242,0.986328
4374295706,-0.0258789,-0.158203,1.01123
4374302470,-0.147949,-0.0400391,1.04785
4374326416,-0.0390625,-0.0410156,0.865723
4374340727,-0.00390625,-0.0400391,0.898438
4374363899,-0.00341797,-0.106934,0.916992
4374384433,-0.0336914,-0.134277,0.928223
4374401430,-0.0297852,-0.151367,1.0542
4374423967,-0.00244141,-0.219727,1.05664
4374452573,0.0737305,-0.318359,0.987793
4374477117,0.0131836,-0.279297,1.05322
4374477823,0.0693359,-0.333008,1.09717
4374498309,0.0786133,-0.385742,1.21045
4374527571,-0.00830078,-0.274902,1.01123
4374557522,-0.11084,-0.219238,0.924805
4374573897,-0.0498047,-0.126465,0.946289
4374603362,0.00244141,-0.171387,0.962891
4374604063,-0.0458984,-0.185059,0.978027
4374626418,-0.0874023,-0.30957,1.06934
4374655084,-0.0595703,-0.225098,1.03516
4374679650,0.0292969,-0.237793,0.855957
4374680466,0.00244141,-0.195801,0.924805
4374707446,0.00439453,-0.16748,0.876953
4374731369,0.0380859,-0.198242,0.939941
4374753963,0.0214844,-0.210449,0.957031
4374754752,0.0166016,-0.242676,1.01318
4374783894,-0.0546875,-0.231934,1.01758
4374806404,-0.100098,-0.20752,1.05518
4374828209,-0.0708008,-0.224121,1.02588
4374851890,-0.0234375,-0.192871,0.98877
4374861196,0.0732422,-0.227539,0.929199
4374873314,-0.0600586,-0.237793,0.995605
4374894442,0.0375977,-0.270996,1.0376
4374917214,-0.0551758,-0.218262,1.02246
4374932008,-0.00488281,-0.234375,1.01514
4374954409,0.00585938,-0.231934,1.02393
4374977650,0.00878906,-0.138184,1.02588
4374991873,0.03125,-0.154297,1.07373
4375014319,0.059082,-0.188965,1.04639
4375037633,-0.0141602,-0.185547,0.94873
4375051859,0.0673828,-0.216309,1.03809
4375074372,-0.0605469,-0.180176,0.950195
4375097590,-0.0141602,-0.186523,1.00146
4375113324,-0.00537109,-0.168945,0.957031
4375134456,0.0380859,-0.201172,1.00391
4375158972,0.0454102,-0.0957031,0.976074
4375171869,0.050293,-0.123535,0.960449
4375194307,0.0219727,-0.177246,1.00098
4375217568,0.0288086,-0.179688,0.962402
4375231836,0.0107422,-0.159668,0.921875
4375254438,-0.0136719,-0.145996,0.973633
4375276937,-0.0463867,-0.134766,1.01855
4375291951,0.0234375,-0.147461,1.08057
4375314528,-0.0375977,-0.168457,0.978516
4375336957,-0.0488281,-0.152344,1.00244
4375351959,-0.0424805,-0.169434,1.01123
4375374485,-0.0195312,-0.155273,1.05859
4375396772,0.0302734,-0.16748,0.975586
4375412013,-0.012207,-0.152344,1.03809
4375434443,0.0161133,-0.148438,0.958496
4375465669,-0.0117188,-0.137695,0.918457
4375471869,-0.189453,-0.187988,0.886719
4375494407,0.0249023,-0.182129,1.1377
4375516915,0.0380859,-0.126953,1.04053
4375531906,0.0839844,-0.118652,1.0332
4375570807,0.17334,-0.15625,0.898438
4375577038,0.144531,-0.152344,0.893555
4375591939,0.15625,-0.148926,1.00439
4375622636,0.117188,-0.138184,1.01562
4375637006,0.132324,-0.145996,1.02148
4375651985,0.0678711,-0.166504,1.03369
4375674425,0.0830078,-0.130859,1.04834
4375696885,0.169922,-0.0932617,1.08691
4375711831,0.149902,-0.0844727,0.904297
4375734458,0.178711,-0.0922852,0.693848
4375756878,0.0908203,-0.119141,0.749023
4375772019,0.0722656,-0.162109,0.711914
4375794470,0.156738,-0.0849609,0.810059
4375816981,0.334473,0.0488281,0.90625
4375831820,0.269043,-0.141602,0.887695
4375854432,0.310547,-0.0380859,1.04932
4375878308,0.401367,0.0341797,1.03271
4375891946,0.530762,0.118164,0.879883
4375915693,0.467773,-0.00390625,0.947754
4375936898,0.490234,-0.00830078,0.970215
4375951842,0.509766,-0.0405273,0.924316
4375974405,0.487793,-0.0390625,0.923828
4375996935,0.495117,-0.0283203,0.866211
4376012014,0.625488,-0.109375,0.759766
4376034475,0.671875,-0.170898,0.812988
4376056815,0.65625,-0.171387,0.900879
4376071862,0.615234,-0.198242,0.871094
4376094365,0.577148,-0.270996,0.79834
4376116958,0.625,-0.229004,0.773926
4376133247,0.64502,-0.260254,0.756836
4376154380,0.638184,-0.283203,0.594727
4376177000,0.728027,-0.271973,0.535156
4376193323,0.803711,-0.259766,0.612305
4376222636,0.648438,-0.206055,0.689453
4376236937,0.694336,-0.208984,0.748047
4376253271,0.552734,-0.280762,0.630371
4376274326,0.580566,-0.188965,0.549805
4376297016,0.725586,-0.291992,0.682617
4376313314,0.770508,-0.244141,0.664551
4376334463,0.833496,-0.185547,0.607422
4376356913,0.790527,-0.24707,0.739746
4376373261,0.771973,-0.209473,0.703613
4376394496,0.59082,-0.22168,0.68457
4376418260,0.583984,-0.398438,0.485352
4376433267,0.677246,-0.276367,0.505859
4376454515,0.850098,-0.229004,0.578125
4376476957,0.999023,-0.266602,0.577148
4376499301,0.935547,-0.234375,0.566895
4376514448,0.820312,-0.161133,0.582031
4376545062,0.743164,-0.23584,0.602051
4376553254,0.694824,-0.230957,0.542969
4376577243,0.678711,-0.189453,0.637695
4376597011,0.704102,-0.245117,0.744629
4376613265,0.730957,-0.293945,0.624023
4376634343,0.750488,-0.307129,0.574707
4376656926,0.786621,-0.323242,0.642578
4376673313,0.775391,-0.292969,0.557617
4376694487,0.773438,-0.275391,0.560547
4376716815,0.828613,-0.254883,0.672363
4376733263,0.758789,-0.231934,0.598633
4376757204,0.687012,-0.238281,0.568848
4376776978,0.692383,-0.249023,0.632812
4376793327,0.688965,-0.254395,0.612305
4376814404,0.741211,-0.300293,0.581543
4376836948,0.773926,-0.324707,0.59668
4376853266,0.769043,-0.305176,0.59082
4376874339,0.802246,-0.312988,0.566895
4376897001,0.740234,-0.296387,0.546875
4376913221,0.745605,-0.290527,0.614746
4376942591,0.729492,-0.272461,0.592773
4376956819,0.694824,-0.290039,0.59082
4376973344,0.710938,-0.287598,0.616211
4376994490,0.711914,-0.28418,0.60791
4377017030,0.744141,-0.307129,0.571289
4377033264,0.760254,-0.335938,0.595703
4377063962,0.759766,-0.312012,0.604004
4377076862,0.756348,-0.30957,0.593262
4377093322,0.740723,-0.321777,0.596191
4377115819,0.727539,-0.311523,0.608887
4377136961,0.711914,-0.305664,0.615234
4377153364,0.708496,-0.3125,0.610352
4377175833,0.731934,-0.297363,0.613281
4377196963,0.753906,-0.29834,0.619629
4377213393,0.761719,-0.312988,0.602539
4377235805,0.75,-0.3125,0.59668
4377266420,0.746094,-0.311523,0.61084
4377273319,0.73877,-0.315918,0.612305
4377295879,0.726562,-0.316895,0.60791
4377316881,0.723633,-0.314941,0.620605
4377335136,0.726562,-0.320312,0.622559
4377357216,0.725586,-0.297363,0.606445
4377385726,0.731934,-0.305664,0.601562
4377393384,0.735352,-0.30957,0.607422
4377415769,0.737305,-0.313477,0.608398
4377436878,0.714355,-0.312012,0.613281
4377453302,0.70459,-0.323242,0.615723
4377475831,0.695312,-0.331055,0.608887
4377496957,0.693848,-0.330078,0.618164
4377514757,0.692871,-0.328125,0.615723
4377535813,0.697754,-0.319336,0.617676
4377556967,0.70459,-0.319336,0.611328
4377573293,0.706055,-0.317871,0.608398
4377595856,0.70166,-0.312012,0.609375
4377617072,0.698242,-0.3125,0.605469
4377633319,0.688965,-0.30957,0.620117
4377663320,0.695312,-0.315918,0.615723
4377676995,0.701172,-0.319336,0.623535
4377693276,0.698242,-0.311523,0.614746
4377715757,0.706055,-0.309082,0.616211
4377736849,0.71582,-0.307129,0.608887
4377753259,0.722168,-0.302246,0.607422
4377775793,0.71875,-0.29541,0.615723
4377797662,0.716797,-0.289062,0.615723
4377820029,0.719238,-0.286621,0.615723
4377835007,0.716309,-0.288574,0.624512
4377857469,0.719238,-0.290527,0.626465
4377872641,0.727539,-0.293945,0.628418
4377895183,0.734863,-0.294434,0.625488
4377917515,0.737793,-0.294922,0.618164
4377932504,0.733398,-0.294922,0.623535
4377955135,0.733398,-0.292969,0.628906
4377977601,0.740723,-0.288574,0.630371
4377992613,0.729492,-0.285156,0.628906
4378015055,0.728027,-0.291504,0.619629
4378037732,0.724121,-0.286621,0.623535
4378052520,0.733398,-0.291992,0.618164
4378075104,0.73291,-0.294434,0.623047
4378098079,0.734863,-0.29541,0.62207
4378113922,0.733887,-0.298828,0.620605
4378135058,0.732422,-0.30127,0.61377
4378157550,0.724121,-0.299805,0.614746
4378174681,0.721191,-0.294922,0.620117
4378195186,0.723145,-0.297852,0.614258
4378217510,0.723633,-0.289062,0.616699
4378233912,0.724121,-0.292969,0.613281
4378254950,0.719238,-0.294434,0.614258
4378277655,0.726074,-0.299805,0.612793
4378294591,0.725586,-0.297852,0.615234
4378315039,0.724609,-0.297363,0.616211
4378337669,0.719238,-0.306641,0.615234
4378353975,0.720703,-0.297852,0.613281
4378375233,0.71875,-0.295898,0.618164
4378397619,0.71582,-0.298828,0.616699
4378413968,0.724121,-0.293945,0.619629
4378435063,0.728027,-0.30127,0.619629
4378457644,0.722656,-0.296875,0.616699
4378473993,0.723145,-0.304199,0.615234
4378495171,0.724609,-0.306152,0.616211
4378517371,0.724121,-0.303223,0.621582
4378541492,0.725586,-0.30127,0.617188
4378555006,0.723145,-0.297852,0.629883
4378579001,0.725098,-0.29834,0.624023
4378594014,0.726562,-0.29834,0.621094
4378615064,0.724121,-0.295898,0.621582
4378639009,0.728027,-0.293457,0.623535
4378661507,0.726562,-0.296875,0.622559
4378675196,0.723145,-0.296875,0.62793
4378697752,0.723145,-0.294922,0.625977
4378721525,0.722168,-0.294434,0.625977
4378735031,0.720703,-0.291504,0.617188
4378757539,0.719238,-0.291992,0.62207
4378774059,0.717773,-0.290527,0.62207
4378795190,0.714844,-0.289062,0.621582
4378817682,0.718262,-0.289062,0.615723
4378834079,0.712402,-0.289062,0.617676
4378855222,0.713379,-0.291016,0.62207
4378885175,0.70752,-0.287598,0.615234
4378894033,0.712891,-0.288574,0.614746
4378915184,0.706543,-0.286133,0.615723
4378937689,0.708008,-0.291016,0.612793
4378953395,0.710938,-0.286621,0.614746
4378975177,0.708008,-0.284668,0.618164
4378997681,0.708496,-0.283203,0.61377
4379013248,0.710938,-0.286133,0.616699
4379035119,0.710449,-0.285645,0.617188
4379065088,0.711914,-0.287598,0.617676
4379089003,0.715332,-0.290039,0.620117
4379104026,0.71582,-0.290039,0.620117
4379118904,0.714844,-0.290527,0.621582
4379141913,0.716797,-0.289551,0.625
4379156533,0.716309,-0.291504,0.625
4379177655,0.71875,-0.291504,0.62793
4379193368,0.721191,-0.290527,0.622559
4379216494,0.720703,-0.291016,0.623047
4379237624,0.725098,-0.294434,0.628906
4379253318,0.725098,-0.294434,0.629883
4379276489,0.723633,-0.297852,0.628906
4379297503,0.729492,-0.297363,0.631348
4379313242,0.729492,-0.29834,0.62793
4379336435,0.726562,-0.29541,0.626953
4379357548,0.727539,-0.297852,0.628418
4379373338,0.727539,-0.294434,0.625
4379396544,0.728516,-0.30127,0.625
4379417471,0.729004,-0.296387,0.624023
4379433288,0.72998,-0.303711,0.622559
4379456421,0.724609,-0.296875,0.620117
4379477542,0.725098,-0.296387,0.623047
4379493312,0.723633,-0.299316,0.620605
4379522522,0.727539,-0.302734,0.617676
4379537540,0.722656,-0.298828,0.623047
4379553331,0.722656,-0.29541,0.614746
4379576458,0.720215,-0.297363,0.613281
4379605026,0.71875,-0.300781,0.617188
4379613299,0.72168,-0.299316,0.611816
4379636889,0.719727,-0.30127,0.618164
4379657524,0.71582,-0.299805,0.613281
4379673317,0.71875,-0.303711,0.618652
4379696482,0.717285,-0.301758,0.617676
4379725476,0.718262,-0.299805,0.61377
4379734744,0.720215,-0.301758,0.612305
4379756448,0.719727,-0.299316,0.609375
4379777582,0.722656,-0.300293,0.619141
4379793300,0.722168,-0.30127,0.61377
4379816440,0.720703,-0.299316,0.618164
4379837533,0.716797,-0.302734,0.614258
4379853280,0.724609,-0.303223,0.616699
4379876421,0.727051,-0.304688,0.618164
4379897547,0.724121,-0.304688,0.62207
4379913756,0.725586,-0.302734,0.625488
4379935835,0.725586,-0.303711,0.620605
4379957563,0.725586,-0.301758,0.619629
4379973298,0.728027,-0.303223,0.621094
4379995795,0.725586,-0.303223,0.62793
4380018977,0.724121,-0.29834,0.624512
4380033272,0.72168,-0.301758,0.620605
4380055829,0.724609,-0.301758,0.625488
4380078978,0.722168,-0.300781,0.616699
4380093330,0.722656,-0.302734,0.623047
4380115796,0.717773,-0.299316,0.617188
4380138954,0.719727,-0.293945,0.618652
4380153284,0.709961,-0.299316,0.617676
4380175776,0.715332,-0.292969,0.623047
4380198922,0.713379,-0.29541,0.625
4380221446,0.716309,-0.293457,0.621094
4380235784,0.712402,-0.291016,0.615723
4380258928,0.708496,-0.295898,0.611328
4380273284,0.70752,-0.289062,0.616211
4380295827,0.70752,-0.288086,0.61377
4380326454,0.709473,-0.291504,0.621094
4380339999,0.710938,-0.290527,0.615723
4380355833,0.709961,-0.283203,0.612305
4380385028,0.709961,-0.288574,0.61377
4380393296,0.710938,-0.287598,0.616699
4380415814,0.710938,-0.287109,0.611328
4380438951,0.709961,-0.291016,0.612793
4380460132,0.709473,-0.288086,0.618652
4380483971,0.714355,-0.29248,0.620117
4380498964,0.714355,-0.289551,0.614258
4380520030,0.717285,-0.291504,0.619629
4380535793,0.719238,-0.291016,0.623047
4380558983,0.72168,-0.290039,0.625488
4380580066,0.723145,-0.290527,0.630371
4380595805,0.724609,-0.294434,0.62207
4380618972,0.725098,-0.294434,0.625488
4380640087,0.723145,-0.294922,0.621094
4380664020,0.726074,-0.29541,0.631348
4380678995,0.726562,-0.296387,0.623535
4380700203,0.727051,-0.29248,0.628906
4380715887,0.729004,-0.300293,0.624512
4380746280,0.726562,-0.296387,0.626953
4380760190,0.730957,-0.294434,0.627441
4380775942,0.73291,-0.299805,0.625977
4380799036,0.729004,-0.296387,0.626465
4380820220,0.729492,-0.299316,0.626465
4380842749,0.728027,-0.294922,0.62207
4380858308,0.725586,-0.29834,0.620117
4380880135,0.722656,-0.30127,0.624023
4380910258,0.725098,-0.301758,0.616211
4380918351,0.725586,-0.296875,0.612305
4380940086,0.721191,-0.300293,0.617676
4380955937,0.718262,-0.298828,0.616699
4380978346,0.71875,-0.302246,0.616699
4381001484,0.720703,-0.296387,0.61084
4381015881,0.721191,-0.300293,0.61377
4381038414,0.717285,-0.299805,0.612305
4381061646,0.715332,-0.302734,0.619141
4381075896,0.71875,-0.300781,0.614258
4381098435,0.719727,-0.299805,0.615234
4381121591,0.716309,-0.302246,0.612305
4381135943,0.720703,-0.299805,0.614258
4381158331,0.717285,-0.30127,0.612793
4381181574,0.722656,-0.305664,0.617188
4381195848,0.72168,-0.302246,0.617676
4381218343,0.722168,-0.30127,0.619141
4381241543,0.722656,-0.303711,0.612305
4381254444,0.723145,-0.305176,0.618164
4381277716,0.72168,-0.306152,0.618164
4381292056,0.725586,-0.301758,0.624023
4381314458,0.724121,-0.30127,0.62207
4381337787,0.720703,-0.303223,0.621094
4381352118,0.726074,-0.30127,0.624023
4381374482,0.722656,-0.304199,0.618652
4381397720,0.724609,-0.300781,0.626465
4381412109,0.724609,-0.300293,0.624023
4381435099,0.723145,-0.306641,0.625977
4381457574,0.723633,-0.301758,0.620117
4381472066,0.722656,-0.29834,0.624512
4381495666,0.720703,-0.29541,0.621582
4381517713,0.720703,-0.296387,0.621094
4381532045,0.720215,-0.29541,0.621094
4381554657,0.716309,-0.294434,0.620605
4381577747,0.715332,-0.294434,0.615234
4381591982,0.717773,-0.294434,0.61377
4381614611,0.71582,-0.291504,0.614746
4381637751,0.712891,-0.292969,0.61084
4381652003,0.710449,-0.291992,0.617676
4381674528,0.711914,-0.290039,0.619141
4381697743,0.708496,-0.285156,0.609863
4381712143,0.709961,-0.291992,0.616699
4381734616,0.706543,-0.288574,0.615234
4381757669,0.708496,-0.285645,0.611328
4381772107,0.708496,-0.287109,0.616211
4381795267,0.713379,-0.288086,0.61377
4381817793,0.708496,-0.286621,0.616211
4381832048,0.712891,-0.288086,0.611816
4381855946,0.713379,-0.286133,0.619629
4381877675,0.714355,-0.289062,0.616211
4381891935,0.717773,-0.291016,0.616699
4381914586,0.717773,-0.288574,0.625
4381937766,0.717285,-0.293945,0.621094
4381952012,0.722168,-0.292969,0.626953
4381974489,0.724609,-0.292969,0.626953
4381997811,0.724121,-0.292969,0.629395
4382012027,0.726074,-0.297852,0.620117
4382034619,0.726074,-0.292969,0.618652
4382057647,0.725098,-0.294922,0.628418
4382072162,0.729004,-0.296875,0.625
4382094475,0.726074,-0.294922,0.627441
4382117769,0.726074,-0.292969,0.626465
4382131970,0.728516,-0.299805,0.623535
4382154620,0.729492,-0.293457,0.627441
4382177750,0.726562,-0.297852,0.625977
4382191944,0.724121,-0.295898,0.620117
4382223406,0.727051,-0.29834,0.621582
4382237738,0.728027,-0.298828,0.624023
4382252004,0.728516,-0.296387,0.625
4382274576,0.721191,-0.295898,0.623047
4382297736,0.724121,-0.300781,0.621094
4382312104,0.723633,-0.296875,0.615234
4382334491,0.720703,-0.304199,0.614258
4382357676,0.72168,-0.297363,0.616699
4382372034,0.717285,-0.297363,0.616211
4382394628,0.715332,-0.297852,0.620605
4382409568,0.716309,-0.303223,0.614258
4382432072,0.721191,-0.300781,0.609863
4382454620,0.719727,-0.299805,0.615723
4382469474,0.719727,-0.299805,0.612793
4382491926,0.717773,-0.30127,0.614746
4382514620,0.71875,-0.302246,0.61377
4382529442,0.71875,-0.304199,0.612793
4382552033,0.719238,-0.304688,0.618164
4382574487,0.719238,-0.301758,0.621582
4382589592,0.717285,-0.302246,0.619629
4382612113,0.722168,-0.302246,0.619629
4382634512,0.724609,-0.298828,0.615723
4382649578,0.725586,-0.301758,0.622559
4382672096,0.726074,-0.304199,0.623047
4382695935,0.723633,-0.305176,0.617188
4382709609,0.727539,-0.300293,0.620117
4382731947,0.723145,-0.301758,0.630371
4382754546,0.722656,-0.303711,0.621582
4382777806,0.72168,-0.30127,0.623535
4382791937,0.72168,-0.30127,0.616211
4382814653,0.721191,-0.302246,0.624023
4382830949,0.724121,-0.300293,0.624023
4382851962,0.719727,-0.30127,0.622559
4382874519,0.720703,-0.29834,0.616699
4382890934,0.721191,-0.302246,0.622559
4382912095,0.716797,-0.298828,0.620117
4382934457,0.71582,-0.296387,0.624512
4382950776,0.71582,-0.296387,0.620117
4382972003,0.714844,-0.294922,0.618164
4382994626,0.712891,-0.292969,0.617676
4383010879,0.713867,-0.291504,0.614258
4383032094,0.710938,-0.291504,0.615234
4383054547,0.711426,-0.286621,0.617676
4383070879,0.70752,-0.287598,0.619141
4383092093,0.709961,-0.291504,0.616211
4383114596,0.708984,-0.291504,0.615234
4383130921,0.708496,-0.289551,0.619629
4383151945,0.709473,-0.289062,0.61084
4383174575,0.711426,-0.289062,0.617676
4383190987,0.709961,-0.287109,0.615234
4383212122,0.711914,-0.287109,0.616211
4383234489,0.714844,-0.286621,0.620117
4383250877,0.714844,-0.287109,0.617188
4383272133,0.714355,-0.290039,0.620117
4383295925,0.719727,-0.290039,0.624512
4383310929,0.719727,-0.293945,0.619141
4383332106,0.71875,-0.289062,0.62207
4383354673,0.720215,-0.293945,0.624023
4383371010,0.723145,-0.291504,0.620605
4383392005,0.722656,-0.291992,0.625488
4383414682,0.724609,-0.291992,0.622559
4383437043,0.723145,-0.293945,0.624512
4383460287,0.727539,-0.294922,0.62793
4383474525,0.73291,-0.292969,0.621094
4383490938,0.725586,-0.29541,0.629395
4383511971,0.72998,-0.299316,0.620605
4383534639,0.729004,-0.296387,0.623535
4383550963,0.724609,-0.300293,0.622559
4383572202,0.729004,-0.297363,0.624023
4383602762,0.727051,-0.29834,0.621582
4383610958,0.728027,-0.300293,0.625488
4383632091,0.728516,-0.300293,0.624023
4383654551,0.723633,-0.296875,0.621582
4383670915,0.724609,-0.302734,0.619629
4383693409,0.724121,-0.30127,0.616699
4383714546,0.718262,-0.301758,0.615723
4383730959,0.71875,-0.297363,0.614746
4383761645,0.716309,-0.300781,0.615723
4383774568,0.719727,-0.296387,0.61377
4383790999,0.719727,-0.298828,0.615234
4383813463,0.712891,-0.304199,0.616211
4383834617,0.717773,-0.303223,0.614746
4383858402,0.718262,-0.29834,0.612305
4383873470,0.715332,-0.302246,0.616211
4383894575,0.718262,-0.306152,0.613281
4383910999,0.723145,-0.302734,0.614258
4383933417,0.719238,-0.29834,0.620605
4383954603,0.720703,-0.302246,0.616699
4383970900,0.71875,-0.303711,0.617188
4383993483,0.719238,-0.299805,0.612305
4384014586,0.72168,-0.299805,0.616699
4384030893,0.723633,-0.300781,0.621094
4384053432,0.724609,-0.299805,0.618164
4384077666,0.723145,-0.300781,0.624023
4384090915,0.725098,-0.304688,0.619629
4384113399,0.720215,-0.304688,0.623535
4384134451,0.722656,-0.307617,0.618164
4384150875,0.728516,-0.303223,0.624512
4384173400,0.724609,-0.302246,0.624512
4384194416,0.726074,-0.300293,0.625
4384218415,0.722656,-0.299805,0.62207
4384233398,0.721191,-0.30127,0.627441
4384254438,0.721191,-0.297852,0.617188
4384270898,0.725098,-0.297852,0.620605
4384293434,0.720215,-0.29834,0.621582
4384314499,0.716309,-0.297363,0.62207
4384330894,0.717773,-0.29541,0.618652
4384353382,0.713867,-0.296387,0.617676
4384374518,0.716309,-0.295898,0.609863
4384390900,0.712402,-0.293457,0.616211
4384413425,0.711426,-0.291504,0.610352
4384434493,0.710449,-0.291504,0.617676
4384450935,0.712402,-0.290527,0.615234
4384473427,0.708984,-0.290039,0.612305
4384494492,0.710938,-0.291504,0.617188
4384518431,0.711426,-0.291016,0.618652
4384533418,0.711914,-0.289062,0.615234
4384554454,0.712402,-0.291504,0.612305
4384570948,0.709961,-0.291992,0.614746
4384599493,0.711426,-0.290039,0.616699
4384614498,0.71582,-0.288086,0.612793
4384630913,0.715332,-0.294922,0.613281
4384653455,0.71582,-0.288574,0.618652
4384675922,0.716309,-0.293457,0.623535
4384690908,0.717285,-0.292969,0.622559
4384713399,0.721191,-0.293945,0.614746
4384735146,0.723145,-0.290527,0.620117
4384757603,0.721191,-0.294922,0.617676
4384772635,0.723145,-0.293457,0.619629
4384795117,0.727539,-0.296387,0.619141
4384810905,0.724121,-0.297852,0.623535
4384832664,0.727051,-0.295898,0.625
4384855134,0.729004,-0.297852,0.623535
4384870922,0.72998,-0.300293,0.623047
4384892613,0.724121,-0.295898,0.626465
4384915141,0.726562,-0.296875,0.625977
4384930891,0.725586,-0.302246,0.619629
4384954068,0.723633,-0.29834,0.62207
4384975108,0.723633,-0.300781,0.619629
4384990885,0.723633,-0.300293,0.626953
4385012592,0.726074,-0.300781,0.619141
4385035129,0.723633,-0.300781,0.622559
4385050887,0.721191,-0.303711,0.615723
4385072604,0.72168,-0.29834,0.613281
4385095177,0.71875,-0.299805,0.614258
4385111646,0.717285,-0.302246,0.616211
4385132608,0.722656,-0.300781,0.614258
4385155183,0.720215,-0.29834,0.621582
4385171595,0.718262,-0.300293,0.611816
4385192616,0.71875,-0.298828,0.609863
4385215138,0.71582,-0.299805,0.615723
4385231512,0.72168,-0.299805,0.619141
4385252674,0.719727,-0.30127,0.618164
4385275154,0.717773,-0.302246,0.61377
4385291627,0.71582,-0.301758,0.617676
4385312595,0.720215,-0.30127,0.618164
4385335092,0.71875,-0.301758,0.620117
4385350895,0.724121,-0.306152,0.621094
4385372590,0.720215,-0.29834,0.614258
4385396605,0.722168,-0.300293,0.619629
4385411567,0.720703,-0.305664,0.619141
4385432641,0.723145,-0.299316,0.616699
4385462688,0.724121,-0.300293,0.622559
4385471552,0.723145,-0.302246,0.62207
4385492634,0.724609,-0.299805,0.621582
4385515136,0.726074,-0.303223,0.615723
4385531605,0.726562,-0.299805,0.616699
4385552663,0.722656,-0.303223,0.623535
4385575147,0.723145,-0.300781,0.621094
4385590930,0.722656,-0.300781,0.626953
4385612656,0.72168,-0.29834,0.618652
4385635140,0.72168,-0.30127,0.62793
4385659094,0.719238,-0.300781,0.620605
4385672683,0.719238,-0.297852,0.622559
4385695189,0.719238,-0.300781,0.621094
4385710936,0.713379,-0.29248,0.616211
4385734076,0.716309,-0.296387,0.618652
4385755162,0.712402,-0.291504,0.61377
4385770888,0.71582,-0.293457,0.617676
4385794122,0.710938,-0.290527,0.616211
4385815166,0.714355,-0.289551,0.615723
4385830917,0.711426,-0.289062,0.612305
4385854057,0.711426,-0.291504,0.608398
4385875177,0.708984,-0.29248,0.60791
4385890893,0.710449,-0.290527,0.614746
4385914087,0.712402,-0.29248,0.612793
4385935136,0.708008,-0.291016,0.617188
4385959066,0.710938,-0.288086,0.615234
4385974065,0.712891,-0.291016,0.616211
4385995118,0.714844,-0.286133,0.61377
4386010893,0.712402,-0.289551,0.620117
4386034121,0.71582,-0.289551,0.615234
4386055171,0.71582,-0.288574,0.613281
4386070907,0.718262,-0.289062,0.62207
4386094096,0.720703,-0.291016,0.624512
4386115139,0.721191,-0.290527,0.619141
4386130892,0.721191,-0.29248,0.619141
4386161566,0.724609,-0.29248,0.622559
4386175144,0.722168,-0.293457,0.629883
4386190915,0.72168,-0.296387,0.628418
4386214063,0.724121,-0.298828,0.624023
4386235134,0.720215,-0.294922,0.626465
4386250929,0.722656,-0.295898,0.627441
4386274141,0.723633,-0.29834,0.624512
4386295168,0.725098,-0.295898,0.621582
4386310921,0.723145,-0.299316,0.626953
4386334091,0.720703,-0.29541,0.619629
4386355199,0.724609,-0.300781,0.621582
4386370912,0.725098,-0.300781,0.626953
4386394068,0.724121,-0.300293,0.624512
4386422695,0.724609,-0.299805,0.623535
4386431000,0.723633,-0.301758,0.625977
4386454107,0.723145,-0.301758,0.618164
4386482700,0.71582,-0.303223,0.620605
4386490898,0.717773,-0.301758,0.619629
4386514095,0.720215,-0.298828,0.618164
4386535205,0.717285,-0.299805,0.623047
4386551032,0.721191,-0.300293,0.621094
4386573475,0.71875,-0.293457,0.620117
4386595189,0.719238,-0.302246,0.615723
4386610986,0.719727,-0.299316,0.618164
4386633454,0.716309,-0.299805,0.612793
4386655172,0.719727,-0.298828,0.612305
4386670927,0.71582,-0.301758,0.613281
4386693458,0.720703,-0.299316,0.618164
4386716580,0.72168,-0.300293,0.618164
4386730898,0.717285,-0.30127,0.612793
4386753462,0.720703,-0.302734,0.617188
4386784104,0.720215,-0.301758,0.616211
4386790940,0.72168,-0.303223,0.614746
4386813460,0.719727,-0.301758,0.619629
4386836600,0.724609,-0.305664,0.622559
4386850951,0.725098,-0.300781,0.617188
4386873498,0.724121,-0.304199,0.620605
4386896621,0.723145,-0.299805,0.619141
4386910999,0.726562,-0.30127,0.621582
4386933463,0.726562,-0.30127,0.618652
4386956628,0.72168,-0.299805,0.62207
4386977470,0.721191,-0.301758,0.62207
4386993476,0.720215,-0.300293,0.622559
4387016610,0.722656,-0.299316,0.614746
4387039148,0.723145,-0.300781,0.619141
4387053453,0.721191,-0.297852,0.621582
4387076623,0.717773,-0.296875,0.618164
4387097664,0.717773,-0.29541,0.615234
4387113418,0.719238,-0.292969,0.621094
4387136575,0.718262,-0.291504,0.619629
4387157898,0.712402,-0.294434,0.618652
4387181604,0.71582,-0.292969,0.617188
4387196592,0.715332,-0.294922,0.612305
4387217626,0.711914,-0.292969,0.61377
4387241621,0.713867,-0.291992,0.615723
4387256601,0.710449,-0.29248,0.612305
4387277679,0.713379,-0.287598,0.613281
4387293427,0.709473,-0.288086,0.615234
4387316662,0.710938,-0.291016,0.618652
4387345187,0.713379,-0.286133,0.616699
4387353437,0.714355,-0.290039,0.614746
4387376593,0.71582,-0.289551,0.614746
4387397672,0.715332,-0.291992,0.62207
4387413454,0.714844,-0.29248,0.624023
4387436602,0.715332,-0.289062,0.618652
4387457705,0.716797,-0.292969,0.620605
4387473443,0.720703,-0.293457,0.62207
4387495967,0.717285,-0.293945,0.624512
4387517693,0.720703,-0.29248,0.622559
4387533481,0.719727,-0.295898,0.625
4387555980,0.72168,-0.297852,0.619629
4387577756,0.722168,-0.295898,0.618164
4387593490,0.725586,-0.291992,0.626465
4387615928,0.720703,-0.294922,0.626953
4387639113,0.723145,-0.293945,0.621582
4387661617,0.724121,-0.297363,0.619141
4387675977,0.722168,-0.29834,0.622559
4387699138,0.721191,-0.297852,0.622559
4387713464,0.725098,-0.29541,0.62207
4387744130,0.723633,-0.294922,0.620117
4387759118,0.725586,-0.301758,0.621582
4387773459,0.723633,-0.300293,0.623047
4387795945,0.722168,-0.300781,0.621094
4387819144,0.724121,-0.30127,0.616699
4387833481,0.725098,-0.30127,0.621094
4387855941,0.723633,-0.305176,0.625488
4387879122,0.717285,-0.302734,0.623047
4387900222,0.721191,-0.303711,0.615234
4387915939,0.722168,-0.297852,0.618164
4387939096,0.71875,-0.29834,0.62207
4387960260,0.716797,-0.299316,0.614258
4387976025,0.721191,-0.302734,0.623047
4387999126,0.718262,-0.302734,0.613281
4388013553,0.717773,-0.303711,0.618164
4388035995,0.719727,-0.29834,0.611816
4388059210,0.722656,-0.302246,0.611328
4388073586,0.717285,-0.297852,0.616699
4388096016,0.71875,-0.302734,0.614746
4388119218,0.72168,-0.300781,0.61377
4388140375,0.720215,-0.302246,0.616699
4388156048,0.71875,-0.300293,0.617188
4388179189,0.723633,-0.305176,0.612793
4388192103,0.724609,-0.303223,0.623535
4388215325,0.721191,-0.299316,0.616699
4388229694,0.721191,-0.30127,0.612793
4388252127,0.723145,-0.300293,0.625
4388275259,0.720215,-0.297363,0.617188
4388289661,0.720215,-0.30127,0.617188
4388312157,0.722656,-0.300293,0.617676
4388335399,0.720215,-0.300781,0.615234
4388349793,0.722168,-0.299805,0.618652
4388372260,0.72168,-0.29834,0.62207
4388395364,0.723145,-0.301758,0.62207
4388409670,0.72168,-0.296875,0.616699
4388433467,0.719238,-0.297852,0.621094
4388455314,0.71875,-0.296875,0.619141
4388469581,0.71875,-0.299316,0.618652
4388492127,0.716797,-0.29541,0.619629
4388515238,0.718262,-0.296875,0.616211
4388529543,0.71582,-0.29541,0.617188
4388552034,0.717773,-0.297363,0.618652
4388575236,0.711426,-0.29248,0.611816
4388589688,0.713867,-0.291016,0.616211
4388621126,0.711426,-0.291992,0.617676
4388635281,0.711426,-0.291992,0.617676
4388649745,0.71582,-0.288086,0.617188
4388672269,0.711426,-0.293457,0.615723
4388695336,0.710449,-0.290527,0.608398
4388709642,0.716797,-0.291992,0.614258
4388732174,0.71875,-0.289062,0.614258
4388755192,0.710938,-0.291504,0.621094
4388769559,0.714844,-0.293945,0.614258
4388792011,0.714355,-0.290039,0.616211
4388823572,0.714844,-0.291992,0.615723
4388829685,0.720215,-0.290039,0.618164
4388852165,0.715332,-0.291016,0.617676
4388875252,0.718262,-0.292969,0.619141
4388889634,0.72168,-0.290527,0.62207
4388912009,0.719727,-0.295898,0.623535
4388935152,0.719727,-0.292969,0.619629
4388949510,0.719727,-0.296387,0.623047
4388972065,0.719238,-0.297363,0.630859
4388995222,0.723633,-0.293945,0.620117
4389009469,0.723633,-0.297363,0.625977
4389031995,0.722656,-0.296387,0.625488
4389055174,0.722168,-0.295898,0.623047
4389069495,0.72168,-0.296875,0.621582
4389091987,0.726562,-0.296875,0.623047
4389115612,0.72168,-0.297852,0.629395
4389129518,0.727051,-0.299805,0.628418
4389160858,0.723633,-0.305664,0.620117
4389175222,0.723633,-0.30127,0.621094
4389189592,0.723633,-0.302734,0.616211
4389212011,0.721191,-0.30127,0.623535
4389235217,0.721191,-0.30127,0.619141
4389249497,0.722656,-0.301758,0.618164
4389272106,0.71875,-0.300781,0.614746
4389295216,0.724121,-0.300293,0.619141
4389309560,0.718262,-0.30127,0.613281
4389332001,0.71875,-0.296387,0.617188
4389355209,0.717773,-0.300781,0.612793
4389369521,0.720703,-0.304199,0.615723
4389393517,0.71875,-0.301758,0.616211
4389415179,0.71875,-0.29834,0.622559
4389429513,0.719727,-0.295898,0.615234
4389452604,0.718262,-0.296875,0.614746
4389475244,0.717773,-0.304688,0.619629
4389489560,0.718262,-0.301758,0.616211
4389512081,0.719238,-0.301758,0.617188
4389534549,0.719727,-0.302246,0.615723
4389549555,0.722656,-0.30127,0.619141
4389572077,0.723145,-0.302734,0.620117
4389594513,0.722656,-0.302734,0.620605
4389609582,0.722168,-0.302246,0.612793
4389640223,0.72168,-0.299316,0.615234
4389654586,0.72168,-0.302734,0.615723
4389669500,0.717773,-0.299316,0.614258
4389700208,0.720215,-0.30127,0.614746
4389714520,0.717773,-0.302734,0.617676
4389729524,0.720215,-0.297363,0.624512
4389753493,0.717773,-0.300293,0.618164
4389774524,0.719727,-0.297852,0.616211
4389797798,0.720703,-0.299805,0.62207
4389812090,0.719727,-0.301758,0.616211
4389834553,0.720703,-0.29834,0.61377
4389849519,0.718262,-0.298828,0.622559
4389872099,0.718262,-0.298828,0.618164
4389894566,0.714355,-0.297363,0.62207
4389909516,0.714844,-0.294434,0.619629
4389932106,0.716309,-0.294434,0.618652
4389954583,0.716309,-0.294922,0.619141
4389969612,0.718262,-0.295898,0.614746
4389992089,0.718262,-0.291504,0.612305
4390014568,0.715332,-0.29541,0.615723
4390029567,0.71582,-0.286621,0.615234
4390052068,0.715332,-0.29248,0.613281
4390074527,0.716797,-0.287598,0.615723
4390089551,0.713867,-0.288086,0.616211
4390112097,0.71582,-0.290039,0.613281
4390134563,0.71582,-0.294434,0.622559
4390152511,0.713867,-0.29541,0.621582
4390172098,0.713379,-0.29248,0.616699
4390194575,0.717285,-0.291016,0.619629
4390209523,0.712891,-0.291504,0.62207
4390232082,0.717285,-0.292969,0.625977
4390254565,0.718262,-0.296387,0.62207
4390279195,0.717285,-0.293945,0.614258
4390292072,0.720215,-0.291504,0.625977
4390314554,0.718262,-0.29248,0.625
4390331069,0.71875,-0.295898,0.620605
4390352093,0.716309,-0.296875,0.62207
4390374555,0.720703,-0.294434,0.622559
4390390995,0.719727,-0.297363,0.620605
4390412089,0.728027,-0.296875,0.624023
4390434551,0.720703,-0.299316,0.625977
4390458512,0.725586,-0.29834,0.619141
4390472088,0.721191,-0.296387,0.617188
4390494558,0.719727,-0.302246,0.630371
4390518502,0.722656,-0.299805,0.619629
4390540176,0.724121,-0.303223,0.621582
4390554536,0.721191,-0.300781,0.619629
4390571070,0.722656,-0.299805,0.622559
4390594954,0.722168,-0.299805,0.625
4390614537,0.720215,-0.298828,0.614746
4390631075,0.724609,-0.301758,0.619629
4390652100,0.723633,-0.300781,0.618164
4390674557,0.719727,-0.304199,0.617676
4390691075,0.717773,-0.301758,0.615723
4390712086,0.723633,-0.296387,0.618652
4390734554,0.716797,-0.303223,0.617188
4390751067,0.717285,-0.301758,0.616699
4390772080,0.720215,-0.29834,0.615234
4390794597,0.719238,-0.303711,0.607422
4390825875,0.720215,-0.297363,0.614746
4390832117,0.71875,-0.300293,0.615723
4390854595,0.71875,-0.299316,0.614258
4390872511,0.717773,-0.299316,0.615234
4390892152,0.720215,-0.299805,0.611328
4390914597,0.720703,-0.304688,0.614746
4390932523,0.718262,-0.300781,0.615234
4390952113,0.716797,-0.301758,0.611816
4390974602,0.718262,-0.299316,0.617676
4390991077,0.71875,-0.300781,0.619141
4391012103,0.719238,-0.300781,0.617188
4391034572,0.72168,-0.299805,0.621094
4391051110,0.723145,-0.299316,0.620117
4391072126,0.723145,-0.300293,0.617188
4391102728,0.720215,-0.30127,0.617188
4391111069,0.720215,-0.299805,0.617676
4391132096,0.723145,-0.301758,0.620605
4391157514,0.720215,-0.299316,0.623047
4391171083,0.719727,-0.299316,0.619141
4391192087,0.721191,-0.300781,0.619141
4391214561,0.716797,-0.300781,0.620117
4391231066,0.714844,-0.295898,0.615234
4391252193,0.718262,-0.29834,0.615723
4391274644,0.712891,-0.29541,0.617676
4391291100,0.716797,-0.294434,0.622559
4391313541,0.719727,-0.297363,0.617676
4391334632,0.71875,-0.292969,0.616699
4391351071,0.713867,-0.290039,0.617188
4391373543,0.71582,-0.291016,0.619141
4391394672,0.716797,-0.291016,0.616699
4391411071,0.713379,-0.291016,0.612305
4391433522,0.714355,-0.291016,0.617188
4391454629,0.71582,-0.286621,0.612793
4391471108,0.712402,-0.290527,0.614746
4391493541,0.715332,-0.293457,0.615723
4391514620,0.712891,-0.290039,0.615723
4391538523,0.708984,-0.289062,0.612793
4391553540,0.716797,-0.291504,0.621094
4391576064,0.715332,-0.291504,0.617188
4391592540,0.717773,-0.290039,0.621582
4391613551,0.714844,-0.29248,0.620117
4391634547,0.717285,-0.289062,0.620605
4391652511,0.715332,-0.294434,0.624512
4391672802,0.718262,-0.29541,0.618164
4391695244,0.714844,-0.29541,0.623047
4391710304,0.715332,-0.297363,0.620605
4391732783,0.721191,-0.292969,0.623047
4391755012,0.720703,-0.296387,0.623535
4391770295,0.720215,-0.294922,0.620605
4391792771,0.719727,-0.296875,0.625488
4391823491,0.722656,-0.293945,0.619629
4391830255,0.720703,-0.292969,0.62207
4391852777,0.724609,-0.299805,0.62207
4391875276,0.723145,-0.300781,0.627441
4391897778,0.721191,-0.297363,0.62207
4391912792,0.726074,-0.300293,0.621094
4391935290,0.723145,-0.296875,0.619629
4391950271,0.722656,-0.300781,0.620605
4391972807,0.723145,-0.30127,0.616211
4391995260,0.721191,-0.300293,0.624512
4392010311,0.719727,-0.301758,0.625
4392032789,0.727539,-0.302734,0.616211
4392056671,0.718262,-0.302246,0.623047
4392070278,0.719238,-0.30127,0.617676
4392092757,0.720215,-0.303223,0.617188
4392115326,0.719727,-0.302246,0.614258
4392130281,0.71875,-0.301758,0.616211
4392152842,0.718262,-0.297852,0.61377
4392175298,0.713379,-0.297852,0.615234
4392190253,0.719238,-0.29834,0.614746
4392212806,0.720703,-0.296387,0.61377
4392228580,0.719727,-0.302246,0.613281
4392250347,0.718262,-0.300781,0.613281
4392272804,0.71875,-0.30127,0.617188
4392295354,0.717773,-0.299805,0.611816
4392310300,0.717773,-0.305664,0.613281
4392332795,0.717773,-0.303711,0.611816
4392362743,0.71875,-0.300293,0.612305
4392371711,0.717285,-0.300293,0.621582
4392392762,0.716797,-0.301758,0.617188
4392416732,0.720215,-0.303711,0.615723
4392431731,0.723145,-0.297852,0.621094
4392460361,0.722168,-0.299805,0.624023
4392475271,0.720215,-0.297852,0.620117
4392491728,0.72168,-0.297852,0.620117
4392512828,0.71875,-0.29834,0.614258
4392528619,0.72168,-0.298828,0.623535
4392551730,0.722656,-0.299805,0.625977
4392572809,0.717773,-0.30127,0.621582
4392588584,0.719238,-0.297852,0.625
4392611698,0.719727,-0.300293,0.624512
4392632823,0.716797,-0.295898,0.623535
4392655363,0.716797,-0.297852,0.614258
4392671746,0.716309,-0.294922,0.619141
4392692811,0.718262,-0.294434,0.619141
4392708573,0.717285,-0.296387,0.618164
4392731753,0.720703,-0.292969,0.621094
4392752961,0.716309,-0.29248,0.62207
4392769219,0.710938,-0.29248,0.617188
4392791786,0.714844,-0.288574,0.618164
4392814236,0.714355,-0.291504,0.618652
4392828730,0.712402,-0.293457,0.615234
4392851799,0.713379,-0.297363,0.615234
4392872911,0.71582,-0.290039,0.615234
4392888661,0.712891,-0.294922,0.618652
4392911744,0.713379,-0.289062,0.613281
4392932781,0.710938,-0.293457,0.611328
4392955339,0.714355,-0.294434,0.619141
4392971764,0.710449,-0.291016,0.618164
4392992785,0.719238,-0.294922,0.615723
4393008578,0.714844,-0.29541,0.621582
4393031845,0.714355,-0.29248,0.621094
4393052957,0.717285,-0.291016,0.621582
4393068548,0.714844,-0.292969,0.624512
4393091787,0.71875,-0.294922,0.621582
4393120332,0.72168,-0.292969,0.621582
4393128689,0.718262,-0.294434,0.622559
4393151746,0.720703,-0.297852,0.62793
4393172804,0.720703,-0.296875,0.614258
4393188621,0.726074,-0.298828,0.620117
4393211125,0.723145,-0.300293,0.623047
4393232749,0.723633,-0.296387,0.626465
4393255478,0.722656,-0.297852,0.625977
4393271120,0.724609,-0.297363,0.619629
4393292831,0.72168,-0.298828,0.626465
4393308557,0.726074,-0.29834,0.620117
4393331172,0.727539,-0.303223,0.619629
4393354329,0.725098,-0.302734,0.619629
4393368721,0.72168,-0.30127,0.621582
4393391227,0.725098,-0.300781,0.616699
4393414346,0.724121,-0.302734,0.618164
4393428692,0.724121,-0.302246,0.623047
4393451088,0.725098,-0.299805,0.619141
4393474307,0.719727,-0.30127,0.625
4393488683,0.717773,-0.299316,0.615723
4393511212,0.720215,-0.29834,0.614258
4393534299,0.722656,-0.30127,0.613281
4393548704,0.718262,-0.302246,0.612305
4393571115,0.716797,-0.300781,0.616211
4393594267,0.715332,-0.300293,0.612793
4393608653,0.717773,-0.299316,0.614258
4393631193,0.716309,-0.303223,0.61084
4393654341,0.718262,-0.301758,0.614258
4393668601,0.717285,-0.29834,0.618164
4393691082,0.714844,-0.300781,0.612793
4393714276,0.714355,-0.301758,0.615234
4393735533,0.718262,-0.305176,0.614746
4393751122,0.719727,-0.302246,0.61377
4393774352,0.717773,-0.298828,0.615723
4393795498,0.719238,-0.303711,0.62207
4393811119,0.719238,-0.298828,0.620117
4393841863,0.722168,-0.298828,0.618652
4393855463,0.722168,-0.300293,0.616699
4393871265,0.719238,-0.298828,0.619141
4393894318,0.721191,-0.297852,0.619141
4393915487,0.722168,-0.299805,0.615234
4393931148,0.721191,-0.300293,0.623047
4393954299,0.720703,-0.297852,0.618164
4393975470,0.72168,-0.302246,0.616699
4393991199,0.71875,-0.299316,0.618652
4394014315,0.716309,-0.298828,0.617188
4394035379,0.721191,-0.294434,0.620117
4394051201,0.716309,-0.299805,0.619141
4394074300,0.71582,-0.293945,0.620605
4394096833,0.716797,-0.294922,0.616211
4394111135,0.712891,-0.295898,0.622559
4394133706,0.715332,-0.293945,0.619141
4394155503,0.718262,-0.291992,0.617676
4394171087,0.715332,-0.29541,0.61377
4394193604,0.714355,-0.293945,0.62207
4394215537,0.714355,-0.293457,0.616699
4394237977,0.71582,-0.292969,0.615234
4394253611,0.717773,-0.29248,0.619629
4394276825,0.712402,-0.289062,0.610352
4394291155,0.710938,-0.291016,0.619629
4394313701,0.713379,-0.288574,0.612793
4394336777,0.712402,-0.290039,0.617676
4394351129,0.713867,-0.290039,0.624023
4394373646,0.712402,-0.291504,0.619141
4394396831,0.712402,-0.294922,0.621094
4394411078,0.714844,-0.29248,0.618652
4394433691,0.714844,-0.294434,0.617188
4394456934,0.716309,-0.29541,0.622559
4394471120,0.715332,-0.29248,0.616699
4394493625,0.719238,-0.295898,0.622559
4394516775,0.721191,-0.296387,0.619141
4394538069,0.716797,-0.294922,0.625977
4394561831,0.719238,-0.29248,0.622559
4394582765,0.72168,-0.296387,0.625977
4394597952,0.725098,-0.296875,0.621094
4394613716,0.728027,-0.297852,0.62207
4394636838,0.727539,-0.299316,0.624023
4394658760,0.723145,-0.29834,0.623047
4394673615,0.724609,-0.298828,0.624023
4394696741,0.725586,-0.300781,0.629883
4394718027,0.725586,-0.299805,0.621094
4394733618,0.726562,-0.304199,0.624023
4394756766,0.722656,-0.299805,0.619629
4394777807,0.722168,-0.299805,0.620117
4394800323,0.723145,-0.30127,0.617676
4394816810,0.71875,-0.302734,0.624023
4394837851,0.720703,-0.300781,0.616699
4394853640,0.720215,-0.302246,0.616699
4394876867,0.71875,-0.30127,0.617676
4394897891,0.717773,-0.298828,0.616211
4394913717,0.715332,-0.30127,0.614746
4394936762,0.716309,-0.300293,0.61377
4394958032,0.715332,-0.30127,0.617676
4394973656,0.714844,-0.302734,0.611816
4394996895,0.716797,-0.298828,0.615723
4395025514,0.712402,-0.297852,0.617676
4395033836,0.712402,-0.298828,0.61084
4395056112,0.716309,-0.298828,0.609863
4395077930,0.713867,-0.29834,0.61084
4395094097,0.716797,-0.302734,0.615723
4395116187,0.714355,-0.300781,0.616211
4395137939,0.71582,-0.303223,0.61377
4395152872,0.714844,-0.303223,0.62207
4395167209,0.719238,-0.29834,0.614746
4395189886,0.717285,-0.303711,0.612793
4395213019,0.719727,-0.301758,0.60791
4395227203,0.723145,-0.302246,0.619629
4395249787,0.71875,-0.302246,0.617676
4395281170,0.719727,-0.29541,0.619141
4395287377,0.717773,-0.298828,0.623047
4395309782,0.719238,-0.302246,0.620605
4395332977,0.717773,-0.297363,0.619141
4395347361,0.719727,-0.299805,0.621094
4395371131,0.72168,-0.29834,0.619629
4395392915,0.716797,-0.298828,0.618652
4395407247,0.720215,-0.29834,0.618652
4395431197,0.719238,-0.295898,0.623535
4395452836,0.720703,-0.295898,0.616211
4395467274,0.719238,-0.293945,0.620605
4395489858,0.717285,-0.293945,0.618164
4395512891,0.719727,-0.294922,0.618164
4395527358,0.719238,-0.294434,0.618652
4395549835,0.712891,-0.29541,0.616699
4395572894,0.716797,-0.292969,0.619141
4395587210,0.711426,-0.290527,0.611328
4395609753,0.715332,-0.290039,0.620605
4395633046,0.714355,-0.293457,0.612305
4395647370,0.71582,-0.289551,0.617188
4395669808,0.717285,-0.29248,0.616699
4395692988,0.710938,-0.294922,0.619141
4395707435,0.714355,-0.292969,0.620605
4395746155,0.713379,-0.291992,0.615234
4395752959,0.713867,-0.291016,0.615723
4395767412,0.712891,-0.291016,0.622559
4395791218,0.711914,-0.288086,0.617676
4395812919,0.71582,-0.294434,0.620117
4395827364,0.716309,-0.291992,0.617676
4395849775,0.714355,-0.296387,0.619629
4395874483,0.717773,-0.294922,0.622559
4395903673,0.721191,-0.292969,0.618652
4395909851,0.717773,-0.296387,0.623047
4395932989,0.721191,-0.296875,0.622559
4395947248,0.722656,-0.294922,0.62207
4395969727,0.72168,-0.297363,0.620117
4395993109,0.721191,-0.300293,0.623535
4396007227,0.723633,-0.29834,0.619629
4396029727,0.723145,-0.296875,0.625
4396052908,0.723145,-0.297363,0.622559
4396067397,0.723633,-0.29834,0.624023
4396091214,0.722168,-0.300781,0.620117
4396114423,0.724609,-0.296875,0.618652
4396127272,0.725098,-0.300781,0.620605
4396151246,0.724121,-0.302734,0.620117
4396172233,0.723145,-0.299805,0.624023
4396187268,0.72168,-0.303223,0.617188
4396209726,0.717773,-0.30127,0.616699
4396232404,0.720215,-0.299316,0.614258
4396247375,0.719238,-0.29834,0.617188
4396269772,0.718262,-0.303223,0.610352
4396292471,0.717285,-0.298828,0.617676
4396307267,0.717773,-0.295898,0.612305
4396329857,0.715332,-0.302734,0.620117
4396352214,0.713379,-0.301758,0.617188
4396368766,0.716309,-0.297363,0.609863
4396389833,0.715332,-0.302246,0.615723
4396412324,0.712891,-0.303223,0.609375
4396427235,0.716797,-0.302734,0.616699
4396449858,0.712891,-0.299805,0.610352
4396481282,0.715332,-0.302734,0.617676
4396495425,0.716797,-0.297852,0.60791
4396509992,0.717285,-0.301758,0.610352
4396532381,0.716797,-0.300781,0.622559
4396547272,0.716797,-0.300781,0.617676
4396577977,0.719238,-0.300781,0.61377
4396592381,0.719727,-0.299316,0.609375
4396607385,0.71875,-0.296387,0.619629
4396629949,0.720703,-0.299805,0.617188
4396652392,0.717285,-0.298828,0.619141
4396667235,0.720215,-0.300293,0.620605
4396689837,0.722168,-0.29834,0.62207
4396712177,0.716309,-0.29834,0.621094
4396727235,0.720215,-0.306641,0.620605
4396749789,0.717773,-0.297363,0.622559
4396772283,0.719238,-0.299316,0.621094
4396787431,0.717773,-0.293945,0.624512
4396809771,0.723145,-0.295898,0.624512
4396832243,0.717285,-0.293457,0.621582
4396848773,0.717285,-0.296387,0.617676
4396869761,0.724121,-0.293457,0.616699
4396892472,0.720215,-0.293457,0.620605
4396907361,0.714355,-0.293457,0.618652
4396929842,0.715332,-0.29248,0.614258
4396952407,0.715332,-0.293457,0.617188
4396968701,0.712891,-0.293457,0.621094
4396989981,0.709961,-0.293457,0.617676
4397012263,0.710449,-0.291992,0.615234
4397028748,0.711914,-0.291016,0.617188
4397049890,0.712402,-0.289062,0.617188
4397072301,0.713867,-0.29248,0.621582
4397088752,0.713379,-0.294922,0.623047
4397109772,0.713867,-0.291016,0.614258
4397132477,0.714844,-0.289062,0.621582
4397148756,0.713867,-0.29541,0.616699
4397169814,0.712402,-0.29248,0.618652
4397192268,0.718262,-0.291992,0.621582
4397210234,0.717285,-0.290527,0.623047
4397229920,0.717773,-0.294434,0.625
4397252491,0.717285,-0.29248,0.61377
4397274825,0.719727,-0.293945,0.621582
4397289906,0.71875,-0.293457,0.620605
4397312257,0.721191,-0.295898,0.619141
4397328735,0.722656,-0.301758,0.622559
4397349924,0.723145,-0.298828,0.622559
4397373744,0.724121,-0.29834,0.620605
4397388682,0.726562,-0.30127,0.620605
4397409704,0.724609,-0.299316,0.625
4397432198,0.723633,-0.302734,0.624512
4397448810,0.723633,-0.297852,0.623535
4397469758,0.724609,-0.297852,0.622559
4397492415,0.722168,-0.30127,0.623047
4397508727,0.722656,-0.300293,0.621094
4397532676,0.722168,-0.300293,0.62207
4397552275,0.720703,-0.301758,0.614258
4397568693,0.72168,-0.302734,0.619141
4397591291,0.718262,-0.30127,0.621582
4397612243,0.719727,-0.297852,0.613281
4397628730,0.720215,-0.302246,0.618164
4397649827,0.72168,-0.302734,0.616699
4397672457,0.717285,-0.302246,0.607422
4397690274,0.720215,-0.301758,0.611816
4397709878,0.716309,-0.298828,0.613281
4397732429,0.714844,-0.300781,0.604492
4397748692,0.717285,-0.298828,0.611816
4397769790,0.712891,-0.299805,0.606934
4397792491,0.712402,-0.298828,0.610352
4397808774,0.713867,-0.297852,0.612793
4397829933,0.717773,-0.297363,0.612793
4397852330,0.713867,-0.297852,0.615234
4397868699,0.713867,-0.299805,0.610352
4397889971,0.71582,-0.303711,0.609863
4397912384,0.716797,-0.300293,0.612305
4397928779,0.720703,-0.297363,0.611328
4397951247,0.71582,-0.301758,0.616699
4397972297,0.718262,-0.29541,0.617676
4397988680,0.718262,-0.302246,0.619141
4398011220,0.72168,-0.302734,0.616211
4398032390,0.72168,-0.304199,0.618164
4398050199,0.72168,-0.30127,0.617676
4398071191,0.72168,-0.302734,0.627441
4398095221,0.718262,-0.304688,0.618164
4398108820,0.720215,-0.297852,0.62207
4398131319,0.723145,-0.298828,0.625
4398152338,0.719238,-0.29834,0.623047
4398168779,0.717773,-0.299316,0.621094
4398191325,0.719727,-0.296875,0.621094
4398212402,0.716797,-0.294434,0.618652
4398228789,0.718262,-0.29541,0.620117
4398252675,0.719727,-0.296875,0.621094
4398272482,0.713379,-0.298828,0.617188
4398288775,0.720215,-0.291504,0.621582
4398311230,0.71582,-0.293457,0.620605
4398332453,0.71582,-0.297852,0.616211
4398364384,0.712891,-0.291992,0.620117
4398371276,0.715332,-0.290039,0.617188
4398400564,0.710449,-0.29541,0.62207
4398408767,0.714844,-0.293945,0.619629
4398431238,0.711426,-0.290527,0.618652
4398452387,0.714355,-0.293457,0.616211
4398468729,0.713867,-0.291992,0.612793
4398491215,0.710449,-0.295898,0.613281
4398512346,0.71582,-0.29248,0.610352
4398528854,0.714355,-0.291016,0.612305
4398551262,0.712891,-0.293457,0.617188
4398572310,0.719727,-0.289551,0.619141
4398588800,0.715332,-0.29248,0.616699
4398611254,0.719727,-0.294922,0.622559
4398632516,0.71875,-0.292969,0.617188
4398648125,0.719238,-0.291992,0.620117
4398670506,0.720215,-0.296875,0.617188
4398717681,0.720215,-0.296387,0.623047
4398719824,0.724121,-0.294922,0.623535
4398730580,0.725098,-0.300293,0.624023
4398753089,0.727539,-0.30127,0.618652
4398775649,0.722168,-0.297363,0.622559
4398790618,0.724121,-0.30127,0.628418
4398812964,0.727539,-0.300781,0.619629
4398828077,0.724609,-0.302246,0.627441
4398850610,0.724121,-0.299805,0.620605
4398872957,0.724609,-0.304688,0.621094
4398888095,0.722168,-0.300293,0.614258
4398910497,0.723145,-0.303223,0.621094
4398933080,0.719727,-0.29834,0.624023
4398948006,0.724609,-0.301758,0.625488
4398970601,0.718262,-0.301758,0.616211
4398993219,0.719727,-0.298828,0.614746
4399009439,0.717773,-0.299805,0.614746
4399030496,0.71582,-0.297363,0.612305
4399060484,0.712891,-0.307617,0.612793
4399069369,0.716797,-0.300293,0.614746
4399090590,0.714844,-0.301758,0.611816
4399120488,0.715332,-0.301758,0.614746
4399129487,0.714355,-0.29541,0.61084
4399150623,0.713379,-0.29834,0.607422
4399173118,0.712891,-0.299316,0.615723
4399189348,0.713379,-0.299316,0.610352
4399210453,0.714844,-0.297852,0.607422
4399233121,0.714355,-0.30127,0.609375
4399249438,0.711914,-0.298828,0.609863
4399270624,0.709961,-0.299316,0.616699
4399293242,0.714844,-0.300781,0.613281
4399309456,0.715332,-0.296387,0.617676
4399331906,0.715332,-0.303711,0.611328
4399353176,0.717285,-0.299805,0.619629
4399369420,0.71875,-0.304199,0.616211
4399390488,0.720215,-0.302734,0.619141
4399413122,0.720703,-0.299316,0.614746
4399429388,0.720703,-0.303711,0.623535
4399450579,0.71875,-0.304688,0.624023
4399474415,0.719727,-0.297852,0.619141
4399489390,0.723145,-0.299316,0.620117
4399510443,0.722168,-0.295898,0.631836
4399533154,0.72168,-0.295898,0.618652
4399549418,0.72168,-0.298828,0.618652
4399570647,0.718262,-0.295898,0.619629
4399593258,0.716797,-0.299316,0.621582
4399609475,0.720703,-0.294922,0.620605
4399630623,0.716797,-0.294434,0.618164
4399653094,0.718262,-0.296387,0.618164
4399669470,0.715332,-0.299316,0.61084
4399690682,0.71582,-0.296387,0.617188
4399713105,0.71582,-0.295898,0.615234
4399729508,0.713867,-0.29248,0.617188
4399750583,0.711426,-0.289551,0.619141
4399780632,0.713867,-0.291992,0.615723
4399789397,0.713867,-0.292969,0.617188
4399811969,0.713379,-0.290039,0.61377
4399833137,0.713867,-0.291016,0.618652
4399848766,0.711914,-0.292969,0.622559
4399871924,0.708496,-0.290527,0.613281
4399894468,0.712402,-0.291504,0.623047
4399908806,0.708008,-0.291016,0.614746
4399938161,0.717773,-0.291504,0.617188
4399953130,0.710449,-0.291016,0.617188
4399968744,0.713867,-0.294922,0.614258
4399991973,0.719238,-0.291992,0.617676
4400012943,0.720215,-0.291016,0.617676
4400028827,0.720215,-0.29541,0.621094
4400051934,0.719727,-0.291504,0.619141
4400073137,0.720703,-0.296875,0.620117
4400088804,0.723145,-0.296875,0.622559
4400111885,0.726562,-0.299805,0.623535
4400133183,0.722656,-0.299805,0.62207
4400148803,0.724121,-0.30127,0.623047
4400179446,0.723633,-0.301758,0.620605
4400193202,0.727539,-0.300293,0.626953
4400208844,0.723145,-0.301758,0.625488
4400231953,0.728027,-0.301758,0.625977
4400253112,0.724121,-0.299805,0.618652
4400268787,0.724121,-0.302734,0.617676
4400292425,0.726562,-0.30127,0.62207
4400313119,0.724609,-0.300293,0.618652
4400328828,0.723145,-0.30127,0.617188
4400359432,0.719727,-0.297852,0.613281
4400372977,0.722168,-0.304199,0.619141
4400388815,0.716309,-0.300293,0.618164
4400427624,0.716797,-0.29834,0.612793
4400433163,0.717285,-0.300293,0.61084
4400448839,0.714355,-0.298828,0.614746
4400471889,0.713379,-0.29541,0.61377
4400493193,0.713379,-0.30127,0.609863
4400508808,0.712402,-0.300781,0.610352
4400531999,0.715332,-0.30127,0.611328
4400554886,0.715332,-0.301758,0.61377
4400568775,0.714844,-0.30127,0.611816
4400591922,0.714844,-0.29834,0.614258
4400612986,0.716797,-0.300293,0.608398
4400628749,0.711914,-0.300293,0.615723
4400659489,0.712891,-0.304199,0.609375
4400673171,0.718262,-0.296387,0.605469
4400695572,0.717285,-0.297852,0.617676
4400711986,0.716797,-0.301758,0.619141
4400733208,0.71582,-0.300781,0.621094
4400748894,0.714844,-0.297363,0.614258
4400771407,0.717285,-0.299316,0.615723
4400793166,0.720215,-0.297363,0.615234
4400808762,0.71875,-0.302246,0.622559
4400831370,0.722656,-0.302734,0.615723
4400854907,0.722656,-0.299805,0.628906
4400868818,0.72168,-0.298828,0.615234
4400891319,0.719238,-0.300781,0.617676
4400914466,0.721191,-0.29834,0.615234
4400928728,0.72168,-0.298828,0.620605
4400951272,0.716309,-0.296387,0.618164
4400974429,0.72168,-0.298828,0.620117
4400988785,0.717773,-0.295898,0.623047
4401011939,0.717285,-0.29541,0.625977
4401034504,0.720215,-0.294922,0.620605
4401048875,0.71582,-0.296387,0.620605
4401071269,0.714355,-0.293457,0.617676
4401094529,0.716309,-0.29248,0.612305
4401108768,0.713379,-0.291504,0.62207
4401131428,0.716309,-0.291504,0.617676
4401155071,0.712891,-0.291016,0.620117
4401168901,0.712402,-0.29248,0.619141
4401198074,0.712891,-0.291016,0.615723
4401214528,0.711426,-0.29248,0.611816
4401228787,0.714355,-0.291992,0.612305
4401251347,0.712402,-0.291992,0.616211
4401274528,0.712891,-0.290039,0.615234
4401288797,0.710938,-0.292969,0.616211
4401311284,0.711914,-0.291992,0.619141
4401334543,0.714355,-0.289551,0.613281
4401348906,0.719727,-0.292969,0.62207
4401371260,0.716797,-0.29248,0.618652
4401394516,0.71875,-0.295898,0.62207
4401415444,0.723633,-0.294434,0.615723
4401431290,0.722168,-0.296387,0.615234
4401454508,0.719727,-0.294922,0.616699
4401475615,0.725098,-0.299805,0.617676
4401499579,0.721191,-0.296387,0.625977
4401514491,0.725586,-0.299316,0.629883
4401536929,0.728516,-0.30127,0.622559
4401551319,0.721191,-0.300781,0.622559
4401574498,0.725586,-0.297852,0.62207
4401595693,0.72168,-0.30127,0.623535
4401611265,0.725586,-0.300781,0.625
4401634455,0.725586,-0.302734,0.623047
4401655578,0.723145,-0.302734,0.621094
4401671300,0.725586,-0.297852,0.619141
4401693859,0.723633,-0.304199,0.614258
4401715661,0.722656,-0.299805,0.615723
4401731374,0.722656,-0.299805,0.614258
4401753756,0.717773,-0.303711,0.612305
4401775524,0.719238,-0.300293,0.61084
4401791260,0.720703,-0.300781,0.616211
4401813892,0.714355,-0.297363,0.615234
4401843181,0.712891,-0.298828,0.612305
4401851342,0.714355,-0.296387,0.609863
4401873880,0.714844,-0.303711,0.608398
4401896929,0.712891,-0.301758,0.609863
4401911265,0.711914,-0.300781,0.610352
4401933831,0.713867,-0.30127,0.608398
4401956952,0.713867,-0.296875,0.611816
4401971245,0.708984,-0.301758,0.61377
4401993802,0.710449,-0.299316,0.608398
4402016953,0.710938,-0.301758,0.613281
4402031359,0.713867,-0.300293,0.611328
4402053787,0.713867,-0.300781,0.61084
4402083225,0.71582,-0.304688,0.608887
4402091342,0.717773,-0.304688,0.614258
4402113860,0.715332,-0.30127,0.617188
4402136217,0.716797,-0.300781,0.617676
4402149997,0.72168,-0.299316,0.620605
4402173102,0.717285,-0.297852,0.625488
4402187580,0.72168,-0.302734,0.616211
4402210039,0.722168,-0.30127,0.618652
4402233176,0.72168,-0.29834,0.618164
4402247500,0.720703,-0.299316,0.623535
4402269890,0.726074,-0.30127,0.625
4402293232,0.720215,-0.300293,0.627441
4402308906,0.724609,-0.297363,0.625
4402330558,0.720703,-0.296875,0.620605
4402353195,0.71875,-0.296875,0.618652
4402367503,0.720703,-0.296875,0.622559
4402390559,0.720215,-0.300293,0.624023
4402413167,0.721191,-0.295898,0.620605
4402427433,0.715332,-0.292969,0.615234
4402450027,0.714355,-0.297363,0.612793
4402473179,0.713867,-0.292969,0.614258
4402487475,0.715332,-0.290039,0.618652
4402509835,0.71582,-0.293945,0.62207
4402533140,0.708008,-0.289551,0.615234
4402547503,0.714355,-0.289551,0.616699
4402571163,0.709961,-0.288574,0.613281
4402584878,0.710449,-0.287598,0.617188
4402607502,0.711914,-0.291504,0.611816
4402630613,0.716797,-0.293457,0.614258
4402644812,0.712402,-0.296387,0.61084
4402667344,0.717285,-0.294434,0.612305
4402690528,0.71582,-0.29248,0.615234
4402706274,0.714844,-0.296875,0.618164
4402735560,0.714844,-0.29248,0.619629
4402752030,0.715332,-0.29248,0.621094
4402773221,0.720215,-0.297363,0.618164
4402787545,0.720215,-0.295898,0.619629
4402810058,0.720215,-0.291016,0.620605
4402841292,0.719238,-0.29541,0.625977
4402847515,0.726074,-0.294434,0.620605
4402870089,0.72168,-0.297363,0.623535
4402893117,0.726562,-0.297363,0.619629
4402908864,0.724609,-0.295898,0.625
4402930034,0.727051,-0.300781,0.625977
4402953141,0.724121,-0.296387,0.624023
4402968824,0.727051,-0.300293,0.619141
4402997963,0.723633,-0.299316,0.624023
4403012996,0.724609,-0.296387,0.623047
4403027363,0.723145,-0.301758,0.618652
4403058833,0.724609,-0.303223,0.619629
4403081230,0.722168,-0.300293,0.616699
4403087418,0.720215,-0.300781,0.612305
4403109968,0.724609,-0.303223,0.612793
4403141168,0.722656,-0.30127,0.614258
4403147548,0.717285,-0.299316,0.615234
4403169875,0.713867,-0.301758,0.611328
4403201328,0.713379,-0.301758,0.612305
4403215641,0.715332,-0.296387,0.614258
4403229974,0.717773,-0.299316,0.615234
4403244850,0.71582,-0.299805,0.607422
4403267331,0.713867,-0.300781,0.605469
4403289858,0.711914,-0.303223,0.610352
4403304881,0.714355,-0.299805,0.61084
4403327338,0.712402,-0.299316,0.610352
4403349884,0.713379,-0.302246,0.611328
4403364892,0.711426,-0.300781,0.607422
4403387352,0.716797,-0.301758,0.612305
4403409872,0.713867,-0.304199,0.613281
4403424885,0.714844,-0.304199,0.613281
4403447365,0.716309,-0.300293,0.619629
4403469903,0.717773,-0.30127,0.619629
4403493019,0.719238,-0.303223,0.617676
4403507413,0.716309,-0.297852,0.611816
4403529853,0.718262,-0.30127,0.616699
4403553048,0.720703,-0.29834,0.619141
4403567363,0.722656,-0.303223,0.624023
4403589849,0.719238,-0.305664,0.617188
4403606329,0.723145,-0.302734,0.624512
4403628775,0.723145,-0.299805,0.626465
4403649887,0.723145,-0.300293,0.623047
4403667736,0.717285,-0.298828,0.615234
4403687337,0.723633,-0.29248,0.623047
4403709880,0.722656,-0.29541,0.623047
4403726327,0.721191,-0.296875,0.622559
4403747372,0.719238,-0.297852,0.617188
4403769900,0.717773,-0.296875,0.613281
4403786277,0.719238,-0.297363,0.626465
4403807404,0.720215,-0.291016,0.62207
4403829842,0.712891,-0.294434,0.613281
4403852341,0.713867,-0.290527,0.619629
4403867371,0.714355,-0.293457,0.619141
4403889894,0.713867,-0.293945,0.617676
4403906362,0.713867,-0.294434,0.621582
4403927416,0.712891,-0.290039,0.620117
4403949913,0.712891,-0.293945,0.608887
4403973829,0.712402,-0.29248,0.612793
4403990296,0.712402,-0.290039,0.611816
4404009943,0.713867,-0.289551,0.617188
4404026362,0.713379,-0.291992,0.618652
4404047387,0.711914,-0.290527,0.616699
4404069902,0.713867,-0.291504,0.618164
4404086265,0.717773,-0.293945,0.61377
4404107397,0.717773,-0.291016,0.62207
4404129871,0.718262,-0.293945,0.614258
4404146318,0.718262,-0.293945,0.618164
4404167323,0.719238,-0.291504,0.620117
4404189886,0.723633,-0.29541,0.616699
4404206299,0.722656,-0.29541,0.625488
4404227328,0.727539,-0.297852,0.622559
4404249871,0.725098,-0.293945,0.625488
4404266315,0.726562,-0.30127,0.622559
4404295532,0.725586,-0.295898,0.621094
4404309880,0.725098,-0.303711,0.620605
4404326341,0.723145,-0.301758,0.62207
4404350275,0.726074,-0.30127,0.622559
4404386919,0.724609,-0.29834,0.623047
4404389399,0.723633,-0.296875,0.620117
4404407417,0.724121,-0.300781,0.625977
4404429893,0.723145,-0.299316,0.614746
4404446323,0.719727,-0.297852,0.624023
4404467405,0.724121,-0.299805,0.616211
4404489905,0.720703,-0.297852,0.616211
4404506298,0.719238,-0.300293,0.616699
4404530323,0.717285,-0.303223,0.616211
4404549900,0.711914,-0.297363,0.609375
4404566377,0.716309,-0.299805,0.609863
4404588837,0.714355,-0.302734,0.610352
4404609935,0.716309,-0.298828,0.609863
4404626330,0.709473,-0.29541,0.608887
4404648767,0.71582,-0.300293,0.612305
4404670004,0.715332,-0.294922,0.612793
4404686401,0.711426,-0.29834,0.609375
4404708915,0.711914,-0.300293,0.611816
4404730074,0.715332,-0.29834,0.606445
4404746425,0.712891,-0.300781,0.611816
4404768804,0.714844,-0.302246,0.609863
4404790085,0.716797,-0.29834,0.615723
4404806334,0.71582,-0.30127,0.611328
4404828916,0.716797,-0.302246,0.608887
4404850031,0.716309,-0.299316,0.614258
4404866388,0.720215,-0.303711,0.621582
4404888841,0.715332,-0.299316,0.62207
4404910136,0.72168,-0.297852,0.622559
4404926402,0.723145,-0.298828,0.623535
4404948908,0.721191,-0.297852,0.620117
4404969934,0.720703,-0.301758,0.621582
4404986354,0.723633,-0.300293,0.614746
4405008872,0.718262,-0.300293,0.625977
4405029912,0.718262,-0.300781,0.621094
4405046357,0.71875,-0.301758,0.619141
4405068936,0.722168,-0.300781,0.616699
4405093258,0.720215,-0.297852,0.621582
4405107844,0.721191,-0.297852,0.618652
4405128933,0.719238,-0.296387,0.624023
4405150094,0.714844,-0.29834,0.620117
4405166331,0.720215,-0.296875,0.621094
4405188851,0.714844,-0.294434,0.621582
4405210004,0.714844,-0.29541,0.618164
4405226352,0.717285,-0.290527,0.608887
4405256425,0.716309,-0.29248,0.616699
4405278128,0.714355,-0.291016,0.614258
4405286413,0.711914,-0.29541,0.617676
4405310343,0.711426,-0.293945,0.611816
4405330045,0.712891,-0.290527,0.615723
4405353924,0.709961,-0.288574,0.617676
4405368942,0.715332,-0.292969,0.616211
4405389930,0.714355,-0.290039,0.615234
4405422112,0.713867,-0.291504,0.615234
4405428898,0.713379,-0.289551,0.616211
4405450079,0.714844,-0.291016,0.618652
4405466427,0.715332,-0.29248,0.616211
4405504569,0.719238,-0.291992,0.617676
4405511323,0.72168,-0.292969,0.615723
4405526325,0.719238,-0.290039,0.619141
4405548922,0.720703,-0.29248,0.624512
4405572862,0.722168,-0.29541,0.616699
4405592593,0.724121,-0.296387,0.614258
4405616366,0.722656,-0.298828,0.617676
4405630537,0.723633,-0.29541,0.621094
4405654527,0.722656,-0.294434,0.624512
4405669534,0.724121,-0.299316,0.622559
4405690629,0.725098,-0.300293,0.623047
4405721269,0.723145,-0.299805,0.624023
4405728148,0.723633,-0.30127,0.618164
4405750604,0.725098,-0.30127,0.621094
4405773116,0.723633,-0.297363,0.621094
4405788155,0.72168,-0.300293,0.624023
4405812025,0.727539,-0.30127,0.620605
4405834642,0.72168,-0.298828,0.621094
4405848281,0.721191,-0.303711,0.616699
4405878135,0.720215,-0.300781,0.617676
4405886355,0.713867,-0.299316,0.615723
4405915787,0.717285,-0.298828,0.614746
4405930736,0.716797,-0.300293,0.61377
4405947121,0.71582,-0.295898,0.614746
4405975777,0.717773,-0.297852,0.612793
4405990521,0.71582,-0.30127,0.611328
4406007073,0.711914,-0.299316,0.610352
4406028141,0.714844,-0.294922,0.612305
4406050789,0.709473,-0.300781,0.615234
4406067185,0.712402,-0.299316,0.60791
4406088214,0.709961,-0.300781,0.614746
4406110600,0.713379,-0.296387,0.616699
4406126967,0.714355,-0.299805,0.611816
4406148156,0.714355,-0.301758,0.610352
4406170704,0.71582,-0.305176,0.611328
4406187177,0.713379,-0.299805,0.614746
4406208114,0.71582,-0.301758,0.613281
4406230636,0.717285,-0.303223,0.616699
4406246367,0.721191,-0.297363,0.617188
4406268171,0.716309,-0.301758,0.615723
4406292095,0.718262,-0.305176,0.616211
4406306513,0.723633,-0.30127,0.624023
4406328281,0.720215,-0.297852,0.620117
4406350502,0.720215,-0.298828,0.62207
4406367767,0.723145,-0.299316,0.62793
4406388106,0.720703,-0.297363,0.623535
4406411999,0.719727,-0.299805,0.620605
4406426973,0.722168,-0.296875,0.620117
4406448164,0.722168,-0.299805,0.625
4406478159,0.719238,-0.302246,0.618164
4406486495,0.722168,-0.296875,0.619141
4406508155,0.717285,-0.297363,0.618652
4406530611,0.722168,-0.295898,0.615234
4406546341,0.716309,-0.294922,0.620605
4406568168,0.719238,-0.295898,0.616211
4406598192,0.717285,-0.294434,0.618652
4406606380,0.717285,-0.296387,0.618164
4406653419,0.717285,-0.29541,0.617188
4406658072,0.715332,-0.288574,0.617188
4406666348,0.710449,-0.289062,0.614746
4406689530,0.713379,-0.294922,0.618652
4406710566,0.716309,-0.291504,0.61377
4406726420,0.712891,-0.28418,0.612793
4406757183,0.712402,-0.291016,0.611328
4406770782,0.712402,-0.292969,0.612305
4406786488,0.714844,-0.291992,0.617188
4406809585,0.714355,-0.288086,0.614746
4406830820,0.717773,-0.293945,0.61084
4406846498,0.71582,-0.29248,0.621094
