timestamp,x,y,z
61902606070,0.927246,-0.174805,0.292969
61902637873,0.925293,-0.174805,0.27832
61902638647,0.911621,-0.169434,0.272949
61902651725,0.923828,-0.169434,0.292969
61902674298,0.927734,-0.180176,0.291016
61902696788,0.914551,-0.191895,0.302734
61902711724,0.914551,-0.18457,0.289062
61902734277,0.915527,-0.168457,0.286133
61902756734,0.913574,-0.17041,0.285156
61902771096,0.920898,-0.181152,0.298828
61902794784,0.928711,-0.185059,0.300781
61902824924,0.925293,-0.189453,0.293945
61902839221,0.919434,-0.181152,0.289062
61902855675,0.913086,-0.17334,0.296387
61902884886,0.919434,-0.187988,0.300293
61902891115,0.919922,-0.196289,0.302246
61902947073,0.914551,-0.189941,0.297852
61902959087,0.915527,-0.172363,0.294922
61902970338,0.913574,-0.171875,0.293945
61902975767,0.925293,-0.182617,0.299805
61902996750,0.918457,-0.189453,0.291016
61903011131,0.913086,-0.195801,0.297363
61903034288,0.928711,-0.178711,0.298828
61903056774,0.927246,-0.169922,0.29541
61903071077,0.919922,-0.17334,0.293945
61903094246,0.912109,-0.181152,0.30127
61903116904,0.919922,-0.186523,0.307129
61903131093,0.933594,-0.184082,0.31543
61903154303,0.929199,-0.180664,0.32373
61903178214,0.905762,-0.17627,0.315918
61903191081,0.912598,-0.169434,0.306641
61903215656,0.904785,-0.18457,0.305176
61903236779,0.908203,-0.187012,0.302246
61903251074,0.909668,-0.187012,0.296387
61903274279,0.910645,-0.178711,0.302246
61903296764,0.914551,-0.176758,0.308594
61903311128,0.911133,-0.172363,0.312988
61903334247,0.908203,-0.179688,0.305176
61903356801,0.910645,-0.171875,0.302246
61903372501,0.917969,-0.176758,0.299805
61903394325,0.915527,-0.174805,0.302734
61903416773,0.911133,-0.177246,0.287598
61903432519,0.916504,-0.17041,0.293945
61903454272,0.924316,-0.173828,0.304199
61903476806,0.925293,-0.177734,0.302734
61903492589,0.92334,-0.173828,0.297363
61903522838,0.916504,-0.174805,0.29541
61903536768,0.92627,-0.177246,0.303711
61903552542,0.92334,-0.181152,0.308105
61903574241,0.921875,-0.183105,0.307617
61903596821,0.916992,-0.175781,0.304688
61903612574,0.915039,-0.179688,0.313965
61903635751,0.911133,-0.178223,0.32959
61903656807,0.900879,-0.174316,0.337402
61903672520,0.901367,-0.179199,0.341797
61903695075,0.907715,-0.174805,0.330566
61903716806,0.899902,-0.16748,0.328613
61903732502,0.900391,-0.169434,0.333496
61903755083,0.895508,-0.187988,0.34082
61903778187,0.900879,-0.196777,0.341797
61903792579,0.905273,-0.191406,0.32959
61903815057,0.905762,-0.180176,0.323242
61903838219,0.900879,-0.182129,0.335449
61903852574,0.890137,-0.210938,0.354004
61903875129,0.868164,-0.222168,0.374023
61903898238,0.861816,-0.219727,0.393066
61903912608,0.867676,-0.217285,0.410156
61903935048,0.882324,-0.202148,0.414062
61903958221,0.899902,-0.209961,0.42627
61903972566,0.890625,-0.205078,0.429688
61903995054,0.887695,-0.197754,0.434082
61904018220,0.883301,-0.185547,0.429199
61904032535,0.888184,-0.20166,0.422363
61904055060,0.872559,-0.223145,0.411621
61904078184,0.862793,-0.218262,0.415039
61904092536,0.856445,-0.199219,0.461914
61904115086,0.885254,-0.217773,0.475586
61904138899,0.840332,-0.225586,0.479004
61904159332,0.810059,-0.212891,0.466797
61904175107,0.788086,-0.190918,0.461914
61904198186,0.791504,-0.157715,0.463379
61904212576,0.808594,-0.147461,0.469727
61904236785,0.811523,-0.160645,0.488281
61904258250,0.805176,-0.155762,0.500488
61904279274,0.801758,-0.178223,0.517578
61904295131,0.800293,-0.189941,0.540039
61904318254,0.821777,-0.197266,0.554199
61904339296,0.807129,-0.183105,0.563477
61904355101,0.798828,-0.175781,0.563965
61904378200,0.809082,-0.145996,0.552246
61904399312,0.826172,-0.147461,0.533203
61904415062,0.830078,-0.154297,0.527344
61904438217,0.82959,-0.158691,0.52002
61904459338,0.813477,-0.145508,0.515137
61904475024,0.826172,-0.147949,0.512695
61904498209,0.819824,-0.151367,0.501953
61904519297,0.842285,-0.152344,0.50293
61904535047,0.820801,-0.168457,0.532227
61904558197,0.800781,-0.177734,0.576172
61904579289,0.771973,-0.186035,0.580078
61904595129,0.761719,-0.166016,0.581543
61904617536,0.766113,-0.165039,0.571289
61904639284,0.754395,-0.165039,0.581543
61904655047,0.770996,-0.165039,0.594727
61904677564,0.763672,-0.166992,0.620117
61904699310,0.745605,-0.173828,0.635742
61904715054,0.737305,-0.171875,0.642578
61904737583,0.717773,-0.174805,0.637207
61904760731,0.709473,-0.177246,0.631836
61904775057,0.711914,-0.181152,0.64502
61904797603,0.714844,-0.208008,0.648926
61904820704,0.713379,-0.229492,0.65625
61904835090,0.702637,-0.233887,0.675781
61904857577,0.708984,-0.231445,0.693848
61904880705,0.705566,-0.227539,0.695801
61904895101,0.694336,-0.216797,0.711426
61904917551,0.686523,-0.208984,0.713867
61904940730,0.690918,-0.207031,0.726074
61904956765,0.692383,-0.212891,0.715332
61904977588,0.688477,-0.204102,0.693848
61905000814,0.692383,-0.187988,0.670898
61905015026,0.699219,-0.174316,0.656738
61905037579,0.706543,-0.160645,0.654297
61905060752,0.718262,-0.163086,0.662598
61905075093,0.725098,-0.164062,0.663574
61905106611,0.714355,-0.158691,0.660645
61905120745,0.718262,-0.159668,0.654785
61905135084,0.716797,-0.154297,0.660645
61905159366,0.719238,-0.159668,0.657227
61905180724,0.706055,-0.168457,0.650391
61905195045,0.710938,-0.168945,0.64209
61905217576,0.731445,-0.166504,0.653809
61905240709,0.734375,-0.166992,0.643555
61905261761,0.725586,-0.177246,0.650391
61905277590,0.716797,-0.174805,0.640137
61905300759,0.717773,-0.168457,0.638672
61905321994,0.72998,-0.163574,0.63916
61905337674,0.741699,-0.162598,0.632812
61905360764,0.748535,-0.161133,0.633789
61905381870,0.742188,-0.162109,0.622559
61905397573,0.743652,-0.15918,0.616699
61905420810,0.748535,-0.149902,0.600098
61905441979,0.750488,-0.13623,0.595703
61905464356,0.759277,-0.13916,0.593262
61905480754,0.758789,-0.147949,0.604492
61905501801,0.744141,-0.166504,0.616211
61905517624,0.733887,-0.168457,0.619629
61905540743,0.733398,-0.162109,0.616699
61905561818,0.740234,-0.160156,0.621094
61905577547,0.741211,-0.193848,0.623047
61905600057,0.71582,-0.212891,0.63623
61905621851,0.709473,-0.217773,0.664551
61905637569,0.71875,-0.224609,0.681152
61905651164,0.699707,-0.213379,0.702148
61905674857,0.685059,-0.217285,0.701172
61905696884,0.681152,-0.200684,0.698242
61905711119,0.673828,-0.189941,0.696289
61905733641,0.67041,-0.186035,0.6875
61905756840,0.674805,-0.198242,0.679688
61905771183,0.658691,-0.228516,0.695312
61905794388,0.649902,-0.243652,0.702148
61905816870,0.63623,-0.248535,0.715332
61905831146,0.634277,-0.233887,0.715332
61905853682,0.628906,-0.221191,0.729492
61905876822,0.631348,-0.227539,0.736816
61905891121,0.631836,-0.241211,0.743164
61905913717,0.625977,-0.241699,0.745117
61905936843,0.635254,-0.225586,0.735352
61905951161,0.645996,-0.219727,0.718262
61905973689,0.641602,-0.214844,0.715332
61905996837,0.64209,-0.209473,0.723633
61906012039,0.634277,-0.217285,0.72998
61906033705,0.643066,-0.227539,0.740723
61906056848,0.637207,-0.243652,0.735352
61906071196,0.63916,-0.240723,0.720703
61906093634,0.64502,-0.228027,0.728516
61906116815,0.646973,-0.226562,0.724609
61906131185,0.649902,-0.223633,0.743164
61906153694,0.641602,-0.243652,0.746094
61906176899,0.616699,-0.252441,0.754883
61906191201,0.604492,-0.238281,0.744141
61906213668,0.598633,-0.209473,0.736328
61906236849,0.603516,-0.205566,0.738281
61906251183,0.597168,-0.219238,0.749512
61906273687,0.596191,-0.230957,0.744629
61906296889,0.605469,-0.219727,0.748535
61906311154,0.611816,-0.208496,0.749023
61906333666,0.608398,-0.213379,0.743652
61906356797,0.610352,-0.208496,0.760742
61906371187,0.605469,-0.20166,0.763672
61906393645,0.603027,-0.219727,0.764648
61906416825,0.597168,-0.224121,0.772461
61906431149,0.606934,-0.234863,0.773438
61906453687,0.594727,-0.239258,0.774902
61906476824,0.586426,-0.237305,0.765137
61906491216,0.591309,-0.239258,0.770996
61906513727,0.584961,-0.242676,0.782715
61906536859,0.570801,-0.250977,0.793457
61906551164,0.588379,-0.233398,0.780273
61906575103,0.602051,-0.206055,0.764648
61906596865,0.606934,-0.199707,0.762695
61906611159,0.603027,-0.211914,0.760742
61906633689,0.604492,-0.22168,0.76416
61906656192,0.603027,-0.213379,0.756836
61906671149,0.602539,-0.192383,0.749023
61906693717,0.60791,-0.181152,0.755371
61906716202,0.598145,-0.195801,0.764648
61906731117,0.59082,-0.21582,0.775391
61906753675,0.582031,-0.226074,0.765625
61906784961,0.589844,-0.222656,0.764648
61906791223,0.595215,-0.219238,0.773438
61906814508,0.598145,-0.219727,0.771973
61906836197,0.602051,-0.219238,0.774414
61906851169,0.594727,-0.219238,0.763672
61906873700,0.588379,-0.213867,0.772461
61906896204,0.590332,-0.218262,0.781738
61906911772,0.591797,-0.225098,0.771973
61906933720,0.597656,-0.221191,0.770508
61906956239,0.605469,-0.216797,0.753906
61906971183,0.603516,-0.212891,0.758789
61906993766,0.602539,-0.213379,0.754395
61907016684,0.595703,-0.21875,0.765625
61907031209,0.592285,-0.221191,0.757812
61907053714,0.597656,-0.217773,0.762207
61907076179,0.601562,-0.212402,0.759766
61907091287,0.600098,-0.223145,0.750488
61907113688,0.598145,-0.222168,0.752441
61907136231,0.59375,-0.214355,0.74707
61907151232,0.592773,-0.217285,0.751465
61907173651,0.59375,-0.21582,0.761719
61907196237,0.597656,-0.215332,0.76709
61907211238,0.594727,-0.208008,0.766602
61907233689,0.597168,-0.208008,0.756348
61907265072,0.605469,-0.207031,0.751953
61907271153,0.605957,-0.226074,0.757324
61907293986,0.596191,-0.230469,0.759766
61907316197,0.600586,-0.225098,0.755859
61907331165,0.599609,-0.215332,0.758789
61907353698,0.603516,-0.223633,0.760254
61907376215,0.601074,-0.230469,0.756348
61907391196,0.601074,-0.223145,0.754883
61907413708,0.603516,-0.21582,0.758301
61907436217,0.602539,-0.214844,0.765137
61907451228,0.600098,-0.216309,0.767578
61907473708,0.595215,-0.222656,0.768066
61907496141,0.594238,-0.21875,0.766602
61907512641,0.592285,-0.217285,0.76709
61907533692,0.586914,-0.222168,0.768066
61907556194,0.580566,-0.228516,0.768066
61907572642,0.587891,-0.229492,0.771484
61907601879,0.595215,-0.213379,0.765137
61907616237,0.599121,-0.201172,0.76123
61907632609,0.599609,-0.194824,0.762695
61907653659,0.600586,-0.203613,0.761719
61907676209,0.596191,-0.219727,0.761719
61907692625,0.599609,-0.223145,0.764648
61907713732,0.603027,-0.213379,0.768555
61907736244,0.603027,-0.216309,0.772949
61907752635,0.599121,-0.223145,0.763672
61907773755,0.602051,-0.222656,0.762207
61907796172,0.601074,-0.214355,0.760254
61907812629,0.594238,-0.214355,0.760254
61907834546,0.599121,-0.21582,0.762695
61907856325,0.597168,-0.220703,0.756836
61907872630,0.593262,-0.218262,0.752441
61907893690,0.596191,-0.208496,0.756836
61907916233,0.597168,-0.216309,0.775391
61907934579,0.596191,-0.227051,0.771973
61907953719,0.592773,-0.225098,0.774902
61907976232,0.588867,-0.219238,0.758789
61907992620,0.594238,-0.211426,0.751465
61908013731,0.596191,-0.208496,0.753906
61908036285,0.609375,-0.219238,0.761719
61908052673,0.604492,-0.218262,0.76123
61908073752,0.602051,-0.216797,0.760254
61908096310,0.597168,-0.212402,0.760742
61908112625,0.592285,-0.212402,0.764648
61908133726,0.597656,-0.219238,0.764648
61908156269,0.596191,-0.227051,0.763184
61908172650,0.598145,-0.216309,0.760254
61908193732,0.598145,-0.217285,0.756348
61908216259,0.600098,-0.213867,0.769531
61908232674,0.602051,-0.21582,0.774414
61908253724,0.602051,-0.217285,0.772949
61908276240,0.595215,-0.212891,0.760254
61908292673,0.598145,-0.220215,0.76416
61908313737,0.599609,-0.219238,0.746094
61908336210,0.602051,-0.215332,0.757812
61908354559,0.60498,-0.21582,0.763184
61908373773,0.59668,-0.21875,0.757812
61908396245,0.591797,-0.213379,0.754883
61908412676,0.595215,-0.205078,0.754395
61908435123,0.593262,-0.208008,0.762207
61908457177,0.599609,-0.216309,0.78125
61908472717,0.601074,-0.222656,0.773438
61908495139,0.597168,-0.219238,0.772461
61908516247,0.597656,-0.195801,0.753906
61908533152,0.59375,-0.1875,0.758301
61908556778,0.598633,-0.206055,0.766113
61908576168,0.602539,-0.225586,0.774414
61908592654,0.603027,-0.230469,0.772461
61908615142,0.604004,-0.212402,0.761719
61908636224,0.60498,-0.1875,0.755859
61908652622,0.609375,-0.191895,0.758789
61908675183,0.606934,-0.203613,0.759277
61908696217,0.603516,-0.206055,0.76416
61908712660,0.601074,-0.204102,0.757324
61908735158,0.600098,-0.205078,0.752441
61908757072,0.59375,-0.203125,0.75
61908772627,0.602539,-0.20459,0.760254
61908795202,0.600098,-0.210938,0.762207
61908816249,0.599121,-0.217773,0.77832
61908832762,0.592285,-0.210449,0.766602
61908855145,0.599609,-0.20752,0.762695
61908876196,0.59668,-0.209961,0.753906
61908892671,0.597168,-0.212891,0.762207
61908915135,0.601074,-0.213379,0.760742
61908936226,0.605469,-0.214844,0.762207
61908952655,0.605957,-0.21582,0.76709
61908975192,0.604004,-0.219238,0.758301
61908996224,0.604492,-0.210938,0.754883
61909012673,0.605469,-0.212891,0.758789
61909036048,0.601074,-0.213867,0.763184
61909056247,0.602539,-0.214355,0.757812
61909072637,0.602051,-0.209473,0.762207
61909095125,0.595703,-0.211914,0.763672
61909116258,0.598633,-0.205078,0.76123
61909132632,0.598633,-0.208984,0.768555
61909155167,0.598633,-0.216797,0.762207
61909176215,0.599609,-0.208008,0.750488
61909192657,0.600098,-0.199219,0.75293
61909215175,0.592285,-0.203613,0.762695
61909236262,0.599121,-0.212402,0.768066
61909252702,0.601074,-0.221191,0.766113
61909275215,0.601562,-0.220703,0.765625
61909296278,0.604004,-0.21582,0.757812
61909312671,0.601074,-0.208496,0.753906
61909335174,0.604004,-0.20459,0.754395
61909357679,0.599609,-0.209961,0.770996
61909372828,0.602051,-0.20752,0.762695
61909394358,0.596191,-0.203613,0.776855
61909416846,0.595703,-0.204102,0.773438
61909431880,0.596191,-0.207031,0.774414
61909454394,0.598145,-0.212891,0.771973
61909477493,0.594727,-0.221191,0.768555
61909493299,0.599121,-0.213867,0.765137
61909514410,0.595703,-0.215332,0.764648
61909536922,0.590332,-0.208984,0.76416
61909553356,0.59375,-0.20752,0.758301
61909574383,0.59668,-0.211914,0.762207
61909596876,0.586914,-0.228027,0.781738
61909613374,0.596191,-0.238281,0.766602
61909634417,0.595703,-0.21875,0.765625
61909656914,0.597168,-0.176758,0.756836
61909673357,0.595215,-0.183594,0.762695
61909694419,0.59668,-0.199707,0.773926
61909716931,0.601562,-0.208984,0.780762
61909733330,0.60791,-0.208984,0.763672
61909754435,0.606934,-0.197754,0.763184
61909776907,0.604492,-0.208984,0.765137
61909793353,0.603516,-0.209473,0.772949
61909814395,0.605469,-0.225586,0.780762
61909836910,0.60791,-0.220703,0.803711
61909853313,0.616211,-0.219238,0.82959
61909874391,0.618652,-0.254883,0.812988
61909896937,0.606445,-0.270508,0.788574
61909913322,0.59668,-0.291016,0.731934
61909934357,0.595703,-0.287109,0.717773
61909956879,0.56543,-0.263184,0.726074
61909973313,0.569336,-0.22168,0.738281
61909994398,0.630371,-0.208496,0.766113
61910016867,0.645508,-0.208008,0.768555
61910033308,0.625977,-0.226562,0.760254
61910054462,0.625,-0.195801,0.73584
61910076866,0.640625,-0.203613,0.724121
61910095482,0.647461,-0.233887,0.731445
61910114446,0.67627,-0.259766,0.724121
61910136929,0.706055,-0.237793,0.730957
61910153350,0.699219,-0.235352,0.724121
61910174173,0.689941,-0.218262,0.713867
61910196919,0.681641,-0.179199,0.692383
61910213337,0.720215,-0.160645,0.661133
61910234418,0.73877,-0.174805,0.643066
61910256924,0.738281,-0.205566,0.634277
61910273318,0.740234,-0.191406,0.620605
61910296821,0.770996,-0.169434,0.593262
61910316927,0.772949,-0.147461,0.574707
61910332827,0.754395,-0.148926,0.562012
61910354432,0.753418,-0.122559,0.54834
61910376953,0.766602,-0.100098,0.546875
61910394349,0.787598,-0.0893555,0.521484
61910414463,0.768066,-0.100098,0.501953
61910436949,0.730469,-0.100586,0.487793
61910452700,0.698242,-0.0473633,0.476074
61910475849,0.72998,-0.0205078,0.46582
61910498069,0.725098,0.0219727,0.520508
61910512726,0.713867,0.0297852,0.566895
61910535863,0.724121,0.0336914,0.627441
61910556922,0.780273,0.0151367,0.661133
61910572702,0.773926,-0.0444336,0.647461
61910598093,0.781738,-0.0664062,0.609863
61910616924,0.800293,-0.0576172,0.59082
61910632686,0.848633,-0.050293,0.583496
61910655832,0.921875,-0.0664062,0.582031
61910676966,0.98291,-0.12793,0.572266
61910700828,0.991211,-0.168457,0.562988
61910715833,0.961426,-0.170898,0.544434
61910736974,0.882812,-0.132812,0.542969
61910752717,0.813477,-0.0610352,0.554688
61910775809,0.789062,-0.0205078,0.578125
61910797706,0.748047,-0.00732422,0.610352
61910812701,0.73291,-0.0209961,0.630859
61910835874,0.73877,-0.0668945,0.630859
61910856969,0.734863,-0.105469,0.646484
61910872719,0.73877,-0.121094,0.63623
61910896858,0.739746,-0.128906,0.639648
61910916927,0.732422,-0.13916,0.630371
61910932689,0.726074,-0.152832,0.623047
61910955861,0.749023,-0.173828,0.601074
61910976960,0.757812,-0.188477,0.572266
61910992681,0.722656,-0.155273,0.524414
61911015857,0.746094,-0.151367,0.522461
61911036903,0.856445,-0.111816,0.554199
61911060848,0.911621,-0.100586,0.545898
61911075873,0.824707,-0.102051,0.527832
61911097000,0.780273,-0.122559,0.503418
61911112703,0.81543,-0.143066,0.489746
61911135850,0.842285,-0.14502,0.46582
61911158357,0.848633,-0.188477,0.475098
61911172813,0.838379,-0.224609,0.48877
61911195830,0.815918,-0.241211,0.507812
61911216920,0.824707,-0.242676,0.508301
61911232685,0.848633,-0.234375,0.49707
61911255264,0.864258,-0.227051,0.475586
61911276928,0.888184,-0.212402,0.459961
61911292686,0.916504,-0.199707,0.432129
61911315177,0.918457,-0.185059,0.408203
61911336918,0.885254,-0.202637,0.397461
61911352834,0.890625,-0.220703,0.376465
61911375211,0.89502,-0.225098,0.376953
61911398365,0.904785,-0.21875,0.361328
61911412740,0.868652,-0.199707,0.346191
61911435187,0.86377,-0.175293,0.32959
61911458387,0.856445,-0.169922,0.318359
61911472766,0.845703,-0.164551,0.311035
61911495182,0.85498,-0.189941,0.318848
61911518347,0.900391,-0.181641,0.355469
61911532706,0.893066,-0.200684,0.371582
61911555249,0.883301,-0.25,0.381348
61911578456,0.890625,-0.280273,0.356934
61911593648,0.901367,-0.293945,0.307129
61911615310,0.91748,-0.282227,0.296387
61911638349,0.92041,-0.245117,0.257324
61911659498,0.892578,-0.237305,0.25293
61911675205,0.894043,-0.243164,0.250488
61911698396,0.950195,-0.280762,0.255371
61911712722,0.952637,-0.297363,0.286133
61911735282,0.910156,-0.32373,0.317871
61911758384,0.900879,-0.331543,0.304688
61911772740,0.946289,-0.289551,0.293945
61911796092,1.00635,-0.300781,0.274414
61911818362,0.980469,-0.277832,0.251465
61911832701,0.984375,-0.240723,0.279297
61911855210,0.973145,-0.286621,0.214844
61911878343,0.923828,-0.352051,0.244629
61911906991,0.92627,-0.405273,0.251953
61911915233,0.956055,-0.420898,0.304688
61911938361,0.973633,-0.385742,0.329102
61911959468,0.921387,-0.334961,0.36084
61911975248,0.910645,-0.250977,0.308594
61911998395,0.912598,-0.209473,0.266602
61912019448,0.896973,-0.228027,0.290039
61912035180,0.83252,-0.28418,0.314453
61912058410,0.805664,-0.30957,0.339844
61912079543,0.729492,-0.322266,0.34668
61912095227,0.688477,-0.313965,0.382324
61912118506,0.680664,-0.300781,0.381348
61912139561,0.651855,-0.334961,0.42627
61912155227,0.637695,-0.367676,0.459473
61912178373,0.663574,-0.374512,0.445312
61912199461,0.766602,-0.360352,0.384766
61912215222,0.854004,-0.294434,0.376465
61912237750,0.856445,-0.24707,0.369629
61912259557,0.952148,-0.273438,0.338379
61912275242,1.04736,-0.258301,0.30127
61912297755,0.969727,-0.255859,0.30127
61912319432,0.863281,-0.273926,0.281738
61912337280,0.938477,-0.28418,0.233398
61912357753,1.01025,-0.277832,0.163574
61912380913,0.976074,-0.324707,0.123047
61912403489,0.937012,-0.326172,0.122559
61912417725,0.95459,-0.345215,0.11084
61912440874,0.949219,-0.346191,0.0942383
61912455230,0.921387,-0.304688,0.125488
61912477709,0.921387,-0.289551,0.146973
61912500851,0.957031,-0.275879,0.14209
61912515216,0.964355,-0.270508,0.164551
61912540023,0.959473,-0.285156,0.170898
61912560859,0.932617,-0.256836,0.197754
61912575230,0.905762,-0.240723,0.227051
61912597779,0.898438,-0.286133,0.236328
61912620853,0.916504,-0.304688,0.223145
61912635202,0.910156,-0.296387,0.20459
61912657704,0.899902,-0.293945,0.207031
61912680906,0.909668,-0.299316,0.201172
61912695220,0.90625,-0.292969,0.217285
61912717752,0.916992,-0.306641,0.204102
61912742508,0.927734,-0.302734,0.208008
61912755223,0.920898,-0.300293,0.194824
61912777734,0.929199,-0.312988,0.208008
61912800899,0.915039,-0.319336,0.225098
61912815224,0.910645,-0.319336,0.225586
61912837810,0.914551,-0.304688,0.220703
61912860967,0.926758,-0.302734,0.202637
61912881954,0.917969,-0.29834,0.203613
61912897713,0.90625,-0.300781,0.199219
61912920928,0.904297,-0.308594,0.209473
61912943028,0.906738,-0.303711,0.209961
61912957755,0.90918,-0.307617,0.204102
61912980876,0.912598,-0.311035,0.204102
61913001940,0.908691,-0.307129,0.206055
61913017725,0.897949,-0.300781,0.209473
61913043218,0.903809,-0.29248,0.22168
61913061943,0.915039,-0.306641,0.220215
61913077731,0.928711,-0.317383,0.218262
61913100946,0.918457,-0.308594,0.217285
61913113835,0.912109,-0.303711,0.207031
61913137010,0.908203,-0.302734,0.206055
61913151317,0.906738,-0.303223,0.211426
61913173870,0.912598,-0.307129,0.198242
61913197009,0.916504,-0.303711,0.204102
61913211363,0.912109,-0.296875,0.207031
61913235294,0.911621,-0.293945,0.208008
61913257014,0.914551,-0.301758,0.212891
61913271298,0.914551,-0.310059,0.216797
61913293825,0.915527,-0.307129,0.21582
61913317041,0.911133,-0.307617,0.214355
61913331320,0.912598,-0.300781,0.215332
61913353869,0.905273,-0.29834,0.213379
61913377029,0.922363,-0.30127,0.209961
61913391379,0.910156,-0.307129,0.215332
61913413774,0.90332,-0.298828,0.211914
61913436976,0.907715,-0.299316,0.208984
61913451347,0.912109,-0.308105,0.208008
61913473870,0.918945,-0.308594,0.20459
61913496997,0.909668,-0.304688,0.202637
61913511492,0.912109,-0.301758,0.20459
61913533856,0.915039,-0.296387,0.216309
61913556967,0.913574,-0.303711,0.203613
61913571338,0.905273,-0.308105,0.214844
61913593865,0.909668,-0.304688,0.213379
61913616953,0.911621,-0.302246,0.214355
61913631345,0.914062,-0.30957,0.220703
61913654778,0.907227,-0.30957,0.217773
61913677009,0.907715,-0.3125,0.21582
61913691350,0.908203,-0.307617,0.220703
61913713860,0.905762,-0.306641,0.22168
61913736953,0.910156,-0.309082,0.212891
61913752142,0.913086,-0.302734,0.219727
61913773852,0.912598,-0.303711,0.219727
61913797115,0.907715,-0.304199,0.213379
61913811364,0.911133,-0.299805,0.215332
61913833752,0.912598,-0.29541,0.217773
61913857968,0.910156,-0.294922,0.218262
61913871381,0.909668,-0.299805,0.215332
61913893835,0.911133,-0.306641,0.207031
61913917016,0.903809,-0.312988,0.21582
61913931336,0.905762,-0.305664,0.212891
61913953824,0.912109,-0.299316,0.209473
61913976984,0.913574,-0.302246,0.217773
61913991347,0.91748,-0.307129,0.223633
61914013843,0.915039,-0.308594,0.221191
61914037017,0.904785,-0.304199,0.221191
61914051365,0.904297,-0.299316,0.228516
61914073832,0.907715,-0.305664,0.222168
61914096999,0.910156,-0.312988,0.228027
61914111405,0.917969,-0.30957,0.220703
61914133852,0.915527,-0.301758,0.212891
61914157020,0.913574,-0.293457,0.208496
61914171349,0.904297,-0.295898,0.211914
61914193877,0.911133,-0.307129,0.214355
61914217034,0.910156,-0.308594,0.213867
61914231358,0.915527,-0.310059,0.212402
61914253820,0.911133,-0.301758,0.21582
61914276339,0.910156,-0.29541,0.214355
61914291290,0.916504,-0.306641,0.217285
61914313805,0.906738,-0.30957,0.236816
61914345189,0.912109,-0.312988,0.223633
61914351305,0.905762,-0.313965,0.217285
61914373883,0.902344,-0.30957,0.223145
61914396417,0.901367,-0.303223,0.215332
61914411332,0.908203,-0.308105,0.21875
61914433838,0.913086,-0.306641,0.217773
61914456368,0.910645,-0.307129,0.214355
61914471340,0.907715,-0.305176,0.220703
61914493870,0.909668,-0.296387,0.21582
61914516381,0.90918,-0.303223,0.221191
61914539726,0.908203,-0.303223,0.221191
61914553841,0.911133,-0.310059,0.220703
61914576351,0.912598,-0.307617,0.22168
61914591413,0.911133,-0.30127,0.220703
61914613858,0.910156,-0.305176,0.220703
61914636366,0.908203,-0.303223,0.220703
61914651361,0.913086,-0.300781,0.216309
61914673845,0.908691,-0.301758,0.219727
61914696359,0.912109,-0.300781,0.21582
61914711313,0.907227,-0.304199,0.221191
61914733847,0.907715,-0.308594,0.213867
61914756367,0.914551,-0.311523,0.22168
61914771919,0.908691,-0.308105,0.216309
61914794035,0.903809,-0.30127,0.216797
61914816376,0.912598,-0.303223,0.223633
61914831357,0.915039,-0.300293,0.226074
61914853880,0.907715,-0.299316,0.217285
61914876343,0.908691,-0.306152,0.224121
61914891348,0.90625,-0.309082,0.219238
61914913839,0.912109,-0.313477,0.223633
61914936402,0.908691,-0.30957,0.219727
61914951412,0.907715,-0.298828,0.216309
61914975023,0.912109,-0.303711,0.216309
61914996395,0.903809,-0.300781,0.225098
61915011347,0.915039,-0.30127,0.220215
61915033875,0.911621,-0.302734,0.219727
61915056386,0.906738,-0.305664,0.225586
61915075235,0.905762,-0.310059,0.214355
61915093874,0.907715,-0.306152,0.220215
61915116339,0.912109,-0.305664,0.218262
61915132758,0.911133,-0.304688,0.217773
61915153903,0.908691,-0.303223,0.223633
61915176696,0.913574,-0.30957,0.223633
61915192805,0.90625,-0.310059,0.216309
61915213842,0.901367,-0.306152,0.211914
61915236337,0.911133,-0.307129,0.222656
61915252818,0.907227,-0.304688,0.224609
61915274883,0.915527,-0.303711,0.222656
61915296334,0.912598,-0.298828,0.216797
61915312819,0.90918,-0.298828,0.216309
61915333859,0.907227,-0.29834,0.22168
61915356407,0.909668,-0.305176,0.217285
61915377504,0.912109,-0.314941,0.222168
61915393890,0.906738,-0.310059,0.219238
61915416370,0.902832,-0.302734,0.223145
61915432756,0.90625,-0.30957,0.224121
61915456771,0.913086,-0.307617,0.229004
61915477546,0.909668,-0.307129,0.219238
61915492883,0.912109,-0.305176,0.224121
61915513874,0.910156,-0.29834,0.231445
61915536365,0.900879,-0.298828,0.221191
61915552758,0.90918,-0.30957,0.229004
61915573961,0.915039,-0.306641,0.226562
61915596341,0.915527,-0.305176,0.219238
61915612806,0.908203,-0.29541,0.216797
61915633907,0.906738,-0.300781,0.220215
61915656336,0.909668,-0.306641,0.225586
61915672754,0.911621,-0.30957,0.218262
61915693893,0.910156,-0.302734,0.218262
61915716363,0.908691,-0.296387,0.21582
61915732805,0.907227,-0.29248,0.222656
61915753899,0.910645,-0.297852,0.231934
61915777812,0.914551,-0.316406,0.230469
61915792805,0.909668,-0.3125,0.229004
61915813911,0.90332,-0.302246,0.220215
61915836422,0.900879,-0.288574,0.218262
61915852763,0.910156,-0.296875,0.219727
61915873857,0.91748,-0.291504,0.222168
61915896396,0.916016,-0.301758,0.223145
61915912840,0.911133,-0.300293,0.219238
61915933895,0.908203,-0.294434,0.222656
61915956344,0.906738,-0.30957,0.226562
61915972778,0.908691,-0.306152,0.232422
61915995272,0.912109,-0.30957,0.226074
61916016386,0.911621,-0.297363,0.222168
61916032843,0.904785,-0.29248,0.223145
61916055384,0.913574,-0.298828,0.22168
61916076352,0.91748,-0.304199,0.217773
61916093508,0.909668,-0.30127,0.213867
61916115340,0.902344,-0.291016,0.211914
61916136398,0.904785,-0.297852,0.21582
61916152801,0.915527,-0.300781,0.216797
61916175336,0.916016,-0.299316,0.219238
61916196413,0.916016,-0.29541,0.223633
61916212776,0.904785,-0.293457,0.22168
61916235336,0.916504,-0.301758,0.225098
61916256454,0.916504,-0.296875,0.217773
61916272777,0.915039,-0.29834,0.20752
61916295304,0.912109,-0.292969,0.212891
61916316396,0.908691,-0.28418,0.211914
61916332815,0.912598,-0.29834,0.223145
61916355930,0.912598,-0.301758,0.225586
61916376391,0.915039,-0.303711,0.222656
61916394395,0.913086,-0.29541,0.224609
61916415347,0.915039,-0.291992,0.220703
61916436367,0.908691,-0.313477,0.229492
61916452835,0.910645,-0.313965,0.228516
61916482853,0.907715,-0.294922,0.219727
61916497475,0.913086,-0.287109,0.212402
61916512794,0.916504,-0.288574,0.208496
61916535347,0.904297,-0.298828,0.213867
61916564518,0.911621,-0.300293,0.220703
61916572817,0.915527,-0.293945,0.223145
61916595348,0.918945,-0.287109,0.228027
61916616383,0.915527,-0.292969,0.220703
61916632797,0.907715,-0.293457,0.219727
61916655367,0.908691,-0.305176,0.222656
61916676397,0.910645,-0.299316,0.224609
61916692811,0.911621,-0.298828,0.216797
61916715317,0.913086,-0.293457,0.22168
61916736449,0.913574,-0.291504,0.220215
61916752838,0.910156,-0.297852,0.219238
61916775278,0.916016,-0.293945,0.222656
61916796379,0.911621,-0.307617,0.224121
61916814926,0.902832,-0.317383,0.22998
61916842850,0.917969,-0.306641,0.222168
61916856398,0.90625,-0.287109,0.216309
61916872100,0.908691,-0.291016,0.213379
61916894614,0.915039,-0.294922,0.222168
61916918024,0.911621,-0.296875,0.213867
61916932025,0.910645,-0.29834,0.215332
61916954541,0.913086,-0.300781,0.211426
61916977076,0.90918,-0.293945,0.219238
61916992078,0.910156,-0.291992,0.221191
61917014598,0.916016,-0.299805,0.216309
61917037051,0.910156,-0.291016,0.224609
61917053476,0.912109,-0.302246,0.222656
61917074531,0.914551,-0.301758,0.225586
61917097064,0.909668,-0.303711,0.228027
61917123377,0.913574,-0.30127,0.225098
61917134511,0.911133,-0.29248,0.217773
61917157137,0.910645,-0.295898,0.215332
61917173513,0.911621,-0.293457,0.222168
61917194562,0.908203,-0.295898,0.217285
61917217113,0.913574,-0.298828,0.223145
61917233532,0.914062,-0.299805,0.226074
61917254599,0.910645,-0.308105,0.227051
61917277088,0.910645,-0.300293,0.216309
61917293514,0.909668,-0.295898,0.216797
61917314636,0.915527,-0.297363,0.21582
61917337084,0.90625,-0.30127,0.219727
61917353478,0.904785,-0.295898,0.219727
61917374593,0.910645,-0.291504,0.226562
61917397086,0.915527,-0.302734,0.229004
61917413491,0.92041,-0.292969,0.222656
61917434558,0.916992,-0.292969,0.21582
61917457087,0.910645,-0.298828,0.214844
61917479613,0.90625,-0.299316,0.221191
61917494533,0.910156,-0.302734,0.216797
61917517069,0.911621,-0.297363,0.229492
61917533506,0.913086,-0.290039,0.223633
61917554575,0.912109,-0.288574,0.217285
61917577050,0.911621,-0.29248,0.224121
61917593480,0.914551,-0.305176,0.228516
61917614567,0.90332,-0.302246,0.225586
61917637064,0.90918,-0.296875,0.228027
61917653471,0.907227,-0.29834,0.221191
61917674554,0.908691,-0.295898,0.228027
61917697091,0.915527,-0.299805,0.229004
61917713487,0.915039,-0.301758,0.234375
61917734563,0.908691,-0.29248,0.228027
61917757127,0.908203,-0.300293,0.224609
61917773511,0.902832,-0.300293,0.216797
61917794603,0.909668,-0.299316,0.220215
61917817105,0.916992,-0.301758,0.218262
61917833479,0.911621,-0.29541,0.224121
61917854602,0.909668,-0.295898,0.227051
61917877074,0.909668,-0.295898,0.229004
61917892921,0.910645,-0.298828,0.231445
61917914558,0.913574,-0.298828,0.221191
61917937078,0.910645,-0.291016,0.227051
61917952849,0.908203,-0.290527,0.232422
61917974547,0.905273,-0.29834,0.227051
61917997052,0.911621,-0.308594,0.224609
61918012848,0.908691,-0.300781,0.231445
61918038377,0.907715,-0.302246,0.217285
61918057049,0.908203,-0.299316,0.234863
61918072825,0.912109,-0.293945,0.226562
61918096031,0.911133,-0.300293,0.223633
61918117070,0.911621,-0.292969,0.219727
61918133850,0.910645,-0.299316,0.218262
61918156084,0.908203,-0.297852,0.22168
61918177091,0.909668,-0.302734,0.227051
61918192852,0.908691,-0.309082,0.219238
61918216035,0.899414,-0.293945,0.219238
61918238276,0.916016,-0.29541,0.223145
61918252884,0.90918,-0.297852,0.229492
61918276004,0.916992,-0.299805,0.233887
61918297084,0.912109,-0.297363,0.23584
61918312908,0.908203,-0.296387,0.224609
61918337640,0.912598,-0.29248,0.224609
61918357097,0.911133,-0.291016,0.222656
61918372875,0.910156,-0.289551,0.227051
61918395977,0.910156,-0.290039,0.223633
61918416858,0.914551,-0.294922,0.222168
61918432859,0.909668,-0.293945,0.223633
61918456006,0.914062,-0.299316,0.221191
61918477081,0.90625,-0.293945,0.227539
61918492829,0.907227,-0.304199,0.229492
61918516011,0.913086,-0.306641,0.229492
61918537114,0.908203,-0.300781,0.23291
61918552865,0.909668,-0.293945,0.228027
61918576045,0.912109,-0.29541,0.227539
61918597120,0.911133,-0.295898,0.230469
61918612886,0.907227,-0.30127,0.227051
61918635997,0.907227,-0.301758,0.226074
61918657118,0.903809,-0.298828,0.227051
61918672846,0.907715,-0.30127,0.219238
61918695970,0.913086,-0.291504,0.22998
61918717121,0.917969,-0.289551,0.227051
61918732872,0.914551,-0.293945,0.227051
61918755338,0.912109,-0.297852,0.229492
61918777090,0.907227,-0.296875,0.225098
61918792830,0.912109,-0.296875,0.229492
61918816032,0.915527,-0.298828,0.231445
61918837094,0.90625,-0.295898,0.229492
61918852840,0.911133,-0.299316,0.223633
61918875351,0.907715,-0.295898,0.225586
61918897152,0.910645,-0.296387,0.229004
61918912828,0.90918,-0.299316,0.231445
61918935353,0.906738,-0.29248,0.22998
61918958590,0.908691,-0.302734,0.227539
61918972897,0.908203,-0.294434,0.234375
61918995359,0.914062,-0.29541,0.229004
61919018552,0.912598,-0.287598,0.226074
61919032855,0.911621,-0.286621,0.225098
61919055348,0.916016,-0.29541,0.228027
61919078530,0.913574,-0.300293,0.227051
61919092823,0.910645,-0.303223,0.220703
61919115354,0.903809,-0.293457,0.220703
61919138504,0.90918,-0.296875,0.224121
61919155011,0.92041,-0.29834,0.234863
61919175376,0.913086,-0.30127,0.237793
61919198542,0.912598,-0.299805,0.224609
61919212906,0.905762,-0.295898,0.226074
61919235334,0.905273,-0.297852,0.227051
61919258502,0.907715,-0.29541,0.22998
61919272846,0.911621,-0.298828,0.225098
61919295407,0.907715,-0.294434,0.224609
61919318567,0.910156,-0.290527,0.219238
61919332889,0.911133,-0.287109,0.220703
61919356977,0.908691,-0.291992,0.223633
61919378601,0.915039,-0.302246,0.230469
61919392878,0.910645,-0.296387,0.227539
61919415348,0.908691,-0.297363,0.225098
61919438562,0.904297,-0.297363,0.222656
61919460530,0.911133,-0.300293,0.225098
61919475494,0.911621,-0.302246,0.231445
61919498516,0.910645,-0.299316,0.226074
61919519602,0.90625,-0.289551,0.226562
61919536171,0.90625,-0.291992,0.227051
61919558568,0.911133,-0.299316,0.231934
61919579621,0.908691,-0.301758,0.227051
61919595355,0.912109,-0.291504,0.226074
61919618538,0.915039,-0.28418,0.222656
61919639588,0.913574,-0.294434,0.224121
61919655402,0.906738,-0.303223,0.226562
61919678521,0.902832,-0.303223,0.229492
61919699638,0.912109,-0.299316,0.225586
61919715374,0.908691,-0.287109,0.22998
61919738545,0.913086,-0.286621,0.222168
61919759741,0.910156,-0.29248,0.228027
61919775393,0.911621,-0.299805,0.228516
61919797881,0.910156,-0.298828,0.233887
61919819648,0.913086,-0.297363,0.220703
61919836301,0.912598,-0.287598,0.226562
61919857903,0.907715,-0.29248,0.226562
61919879602,0.912109,-0.296387,0.232422
61919895349,0.909668,-0.297363,0.222656
61919917842,0.903809,-0.297363,0.227539
61919941058,0.906738,-0.294922,0.228027
61919955347,0.912109,-0.295898,0.224121
61919977851,0.914551,-0.293945,0.222656
61920001011,0.909668,-0.295898,0.226562
61920015397,0.908203,-0.291016,0.221191
61920038812,0.914551,-0.289551,0.227051
61920061165,0.919922,-0.294434,0.235352
61920075864,0.915527,-0.289551,0.228516
61920097948,0.907227,-0.297363,0.226074
61920121053,0.904785,-0.29834,0.229004
61920135388,0.910645,-0.292969,0.223633
61920157904,0.910156,-0.290527,0.223633
61920181050,0.908203,-0.290527,0.227539
61920195447,0.914551,-0.285156,0.227539
61920217905,0.911133,-0.290527,0.229004
61920241558,0.909668,-0.291992,0.226562
61920255405,0.905762,-0.289551,0.228027
61920277936,0.910645,-0.299316,0.223145
61920300797,0.90918,-0.304199,0.226074
61920315413,0.90918,-0.295898,0.227051
61920337888,0.912109,-0.290039,0.229492
61920368533,0.910156,-0.293945,0.229492
61920377134,0.915527,-0.302246,0.230469
61920397920,0.913574,-0.295898,0.230469
61920421155,0.907715,-0.295898,0.227539
61920442254,0.906738,-0.293457,0.227051
61920457880,0.912598,-0.293457,0.228027
61920481070,0.914062,-0.292969,0.22168
61920502126,0.913574,-0.299805,0.232422
61920517889,0.907715,-0.294922,0.228027
61920541050,0.910645,-0.288086,0.225098
61920562146,0.913574,-0.293945,0.229004
61920580047,0.912109,-0.295898,0.227051
61920601060,0.913086,-0.296875,0.232422
61920613970,0.915039,-0.295898,0.228516
61920636884,0.909668,-0.292969,0.23291
61920651548,0.910156,-0.296387,0.225098
61920673980,0.908691,-0.292969,0.21875
61920697176,0.910645,-0.293945,0.228516
61920711528,0.911133,-0.290527,0.224121
61920734021,0.913574,-0.290527,0.224121
61920757196,0.908203,-0.290039,0.224121
61920771448,0.912109,-0.299805,0.222656
61920794008,0.912598,-0.297363,0.225098
61920817119,0.904785,-0.295898,0.225098
61920831551,0.907227,-0.29248,0.223145
61920854128,0.90918,-0.297363,0.227051
61920877131,0.910156,-0.301758,0.234375
61920891509,0.913574,-0.295898,0.226074
61920914005,0.919434,-0.294922,0.224609
61920937151,0.912109,-0.298828,0.235352
61920951497,0.90625,-0.297363,0.224609
61920973964,0.911133,-0.29834,0.233398
61921005337,0.910156,-0.291016,0.224609
61921011468,0.913086,-0.291504,0.229492
61921033998,0.908691,-0.299805,0.229492
61921057104,0.90918,-0.299316,0.234863
61921071523,0.911621,-0.299805,0.233398
61921093944,0.913086,-0.299316,0.230469
61921117206,0.90918,-0.299805,0.228516
61921131461,0.910645,-0.29834,0.224121
61921153983,0.908691,-0.293945,0.222656
61921177151,0.912109,-0.290039,0.230957
61921191531,0.907715,-0.29248,0.222168
61921213970,0.913086,-0.298828,0.225098
61921237183,0.913574,-0.297363,0.228516
61921251487,0.90918,-0.297363,0.229492
61921273970,0.904297,-0.29541,0.221191
61921297127,0.905762,-0.296387,0.226562
61921311525,0.911133,-0.296387,0.229004
61921333951,0.911133,-0.29541,0.229004
61921357277,0.910645,-0.29248,0.225586
61921371557,0.908691,-0.29541,0.232422
61921395036,0.911621,-0.295898,0.224121
61921417146,0.911133,-0.29834,0.227051
61921431571,0.904785,-0.291992,0.226074
61921453994,0.910156,-0.29248,0.231934
61921477161,0.906738,-0.291504,0.22998
61921492245,0.909668,-0.295898,0.226562
61921513976,0.911133,-0.296387,0.234863
61921537171,0.908691,-0.296875,0.228027
61921551532,0.910645,-0.298828,0.229492
61921574095,0.908203,-0.302246,0.232422
61921598384,0.914062,-0.296875,0.226562
61921611540,0.907715,-0.293457,0.227051
61921634006,0.916016,-0.293945,0.234375
61921657189,0.908691,-0.298828,0.227051
61921671482,0.906738,-0.30127,0.222656
61921694037,0.903809,-0.294434,0.226074
61921717165,0.90918,-0.296387,0.225586
61921731537,0.916992,-0.297363,0.229004
61921754031,0.914551,-0.290039,0.228516
61921777332,0.908691,-0.297852,0.241211
61921791551,0.90918,-0.300293,0.245117
61921814010,0.905762,-0.302246,0.236328
61921836528,0.906738,-0.295898,0.239258
61921851536,0.90918,-0.294922,0.228516
61921874071,0.912598,-0.29248,0.225098
61921896523,0.907227,-0.294434,0.226074
61921911535,0.909668,-0.294922,0.225098
61921934017,0.911133,-0.292969,0.23291
61921956559,0.912598,-0.297363,0.233887
61921971548,0.90625,-0.294434,0.233398
61921994011,0.906738,-0.30127,0.229004
61922016542,0.90625,-0.301758,0.231445
61922032902,0.907715,-0.296875,0.236328
61922054044,0.913086,-0.295898,0.22998
61922076527,0.911133,-0.297852,0.236816
61922091513,0.905762,-0.298828,0.224121
61922113980,0.903809,-0.295898,0.21875
61922136517,0.907715,-0.297852,0.228516
61922151510,0.909668,-0.291992,0.235352
61922174050,0.914551,-0.297363,0.230469
61922196545,0.911133,-0.29541,0.233887
61922212196,0.90918,-0.291992,0.225586
61922233968,0.907715,-0.299805,0.230957
61922256549,0.904785,-0.297852,0.233887
61922271509,0.907227,-0.293945,0.233398
61922294068,0.910156,-0.298828,0.232422
61922317220,0.90918,-0.293945,0.234375
61922331533,0.90918,-0.29834,0.224609
61922354044,0.907227,-0.299316,0.234863
61922376527,0.910156,-0.294434,0.237793
61922391559,0.907227,-0.29834,0.231934
61922414861,0.905762,-0.299316,0.231445
61922436526,0.911621,-0.297363,0.225098
61922451523,0.912109,-0.297363,0.237305
61922474008,0.909668,-0.297852,0.23291
61922496580,0.906738,-0.292969,0.230469
61922511531,0.907715,-0.296387,0.227051
61922533990,0.909668,-0.295898,0.232422
61922556557,0.908691,-0.300781,0.226562
61922571522,0.90625,-0.307617,0.233398
61922593995,0.905273,-0.298828,0.22998
61922616514,0.912109,-0.302246,0.231934
61922632960,0.909668,-0.297852,0.234863
61922654066,0.914062,-0.294922,0.231934
61922676549,0.910645,-0.293945,0.23877
61922692898,0.910156,-0.298828,0.235352
61922714065,0.907715,-0.302734,0.233398
61922736520,0.905762,-0.288086,0.224121
61922752917,0.911621,-0.284668,0.219238
61922774075,0.90918,-0.285645,0.221191
61922796537,0.910156,-0.296875,0.224121
61922812956,0.913086,-0.300781,0.227051
61922835206,0.909668,-0.300293,0.229492
61922856568,0.904785,-0.295898,0.23877
61922872934,0.901855,-0.299316,0.231934
61922902202,0.901367,-0.30127,0.233398
61922916539,0.908691,-0.296875,0.233398
61922933925,0.912598,-0.296387,0.22998
61922953984,0.911621,-0.29834,0.234863
61922976597,0.910156,-0.299316,0.234375
61922992953,0.907715,-0.299316,0.231934
61923014046,0.906738,-0.296875,0.224121
61923037045,0.908203,-0.300781,0.227539
61923052966,0.908691,-0.296875,0.228516
61923073997,0.90918,-0.288086,0.230957
61923096553,0.912598,-0.296875,0.233398
61923112944,0.912109,-0.30127,0.227539
61923134043,0.906738,-0.294434,0.227539
61923156547,0.90918,-0.290039,0.22998
61923172956,0.908203,-0.289062,0.227051
61923194024,0.909668,-0.297363,0.232422
61923224705,0.908203,-0.297363,0.222168
61923232992,0.910645,-0.292969,0.229004
61923254041,0.911133,-0.29248,0.229492
61923276558,0.909668,-0.291016,0.233887
61923292954,0.913086,-0.303711,0.237793
61923314019,0.911133,-0.299316,0.229004
61923336539,0.905762,-0.295898,0.231445
61923352996,0.911133,-0.293457,0.226562
61923374052,0.912598,-0.293457,0.226074
61923396557,0.909668,-0.290527,0.229492
61923420474,0.911621,-0.296387,0.22998
61923434017,0.905762,-0.29248,0.228027
61923456537,0.912598,-0.293457,0.227051
61923472973,0.906738,-0.297363,0.230469
61923502218,0.910156,-0.297852,0.228027
61923516559,0.910645,-0.290527,0.230469
61923532959,0.913086,-0.286133,0.239746
61923555494,0.914062,-0.294922,0.236816
61923576520,0.90918,-0.305664,0.236328
61923592965,0.905762,-0.296875,0.228516
61923615474,0.910156,-0.28418,0.227539
61923636543,0.911621,-0.287109,0.224609
61923652977,0.911133,-0.288086,0.230957
61923675516,0.909668,-0.293457,0.227539
61923696538,0.913086,-0.287109,0.231934
61923713860,0.912598,-0.291992,0.23291
61923735502,0.911133,-0.29248,0.232422
61923756573,0.907227,-0.300293,0.232422
61923779072,0.903809,-0.29541,0.228516
61923795476,0.908691,-0.289551,0.232422
61923816500,0.910156,-0.289062,0.23291
61923832958,0.916016,-0.302246,0.233887
61923855526,0.910156,-0.299805,0.238281
61923876562,0.906738,-0.295898,0.231445
61923893001,0.902832,-0.287109,0.221191
61923915525,0.910156,-0.291992,0.227051
61923936551,0.911621,-0.298828,0.227051
61923955076,0.90918,-0.294434,0.234863
61923975484,0.910645,-0.291504,0.231445
61923996546,0.912109,-0.287109,0.234375
61924020476,0.90918,-0.29248,0.231934
61924035489,0.911621,-0.291016,0.229004
61924059487,0.911133,-0.29541,0.226074
61924073033,0.910645,-0.296875,0.230957
61924095471,0.911621,-0.299316,0.230469
61924116560,0.907715,-0.292969,0.230469
61924132993,0.909668,-0.292969,0.22998
61924157521,0.907715,-0.291016,0.231934
61924176491,0.914551,-0.29541,0.235352
61924192950,0.911621,-0.296387,0.228027
61924215480,0.904785,-0.296387,0.226074
61924236526,0.912109,-0.290527,0.227539
61924252996,0.911621,-0.296875,0.232422
61924275485,0.911621,-0.297852,0.223633
61924296545,0.908203,-0.299805,0.234863
61924312971,0.909668,-0.291504,0.233398
61924335555,0.90918,-0.291016,0.237305
61924356542,0.912598,-0.299316,0.23291
61924372157,0.912109,-0.294434,0.231934
61924394749,0.909668,-0.291016,0.227539
61924417265,0.907715,-0.296387,0.225586
61924432318,0.909668,-0.293945,0.233887
61924454695,0.911133,-0.296875,0.240234
61924477160,0.90918,-0.299316,0.229492
61924492211,0.90625,-0.290527,0.234375
61924514695,0.911621,-0.290527,0.22998
61924537177,0.911621,-0.299316,0.240723
61924552272,0.911621,-0.298828,0.230957
61924574689,0.90332,-0.299316,0.233398
61924597205,0.907715,-0.302246,0.238281
61924612217,0.907227,-0.297363,0.22998
61924634705,0.913574,-0.293457,0.23584
61924657229,0.911621,-0.295898,0.234863
61924675774,0.914551,-0.29248,0.229004
61924694725,0.902344,-0.291504,0.230957
61924717221,0.908203,-0.297363,0.230957
61924733666,0.907227,-0.296387,0.232422
61924754682,0.908203,-0.299805,0.234863
61924777806,0.912109,-0.295898,0.229492
61924794124,0.904785,-0.288574,0.229492
61924814695,0.909668,-0.299805,0.237793
61924837196,0.908203,-0.299316,0.236328
61924854533,0.912109,-0.300781,0.240723
61924874707,0.907227,-0.294434,0.238281
61924897219,0.913086,-0.292969,0.224121
61924913631,0.908691,-0.296875,0.229004
61924934748,0.909668,-0.29541,0.232422
61924957180,0.90918,-0.295898,0.233398
61924973608,0.907715,-0.292969,0.233887
61924994667,0.909668,-0.292969,0.228516
61925017243,0.90625,-0.294922,0.230469
61925033660,0.910156,-0.302734,0.235352
61925054728,0.907715,-0.298828,0.239258
61925076985,0.90625,-0.299805,0.229004
61925093656,0.911133,-0.29248,0.23291
61925114766,0.909668,-0.296387,0.223145
61925137217,0.902344,-0.29834,0.225098
61925153660,0.902344,-0.29248,0.225098
61925174735,0.912598,-0.294922,0.233398
61925197272,0.913574,-0.293457,0.236816
61925213650,0.911621,-0.29248,0.234375
61925234736,0.913574,-0.29541,0.23584
61925257221,0.905762,-0.298828,0.228516
61925273660,0.908691,-0.299805,0.230469
61925294710,0.904297,-0.291504,0.235352
61925317220,0.90625,-0.287109,0.229492
61925333701,0.913086,-0.29248,0.22998
61925354712,0.909668,-0.290527,0.228027
61925377254,0.910645,-0.29541,0.23291
61925395726,0.908203,-0.292969,0.233887
61925414747,0.910645,-0.29541,0.236816
61925437238,0.909668,-0.304688,0.23584
61925453673,0.905762,-0.306152,0.236328
61925474711,0.906738,-0.297852,0.23584
61925498371,0.906738,-0.293945,0.229004
61925512971,0.910645,-0.293945,0.23291
61925534730,0.909668,-0.296875,0.237305
61925557218,0.911133,-0.30127,0.233887
61925573043,0.905273,-0.297852,0.230469
61925594755,0.904785,-0.302734,0.234375
61925617198,0.914551,-0.297852,0.23584
61925633013,0.904785,-0.295898,0.237793
61925656195,0.908203,-0.296387,0.233398
61925677333,0.907227,-0.293945,0.226562
61925693057,0.90625,-0.296387,0.230957
61925716180,0.907715,-0.300781,0.233398
61925737216,0.910645,-0.299316,0.234375
61925752978,0.912598,-0.297852,0.23584
61925776207,0.911621,-0.297363,0.227051
61925797201,0.909668,-0.293945,0.23291
61925815274,0.907227,-0.294434,0.229492
61925836137,0.909668,-0.291504,0.231934
61925857421,0.908203,-0.300781,0.233398
61925873135,0.907227,-0.306152,0.233887
61925896228,0.905273,-0.296875,0.233887
61925917224,0.907227,-0.294434,0.23584
61925933051,0.910645,-0.293457,0.234375
61925956196,0.908203,-0.29248,0.23877
61925977298,0.906738,-0.294434,0.240723
61925992998,0.90625,-0.29834,0.238281
61926018355,0.912598,-0.299805,0.234863
61926037249,0.902832,-0.296387,0.235352
61926053047,0.903809,-0.290527,0.225586
61926076225,0.908203,-0.302734,0.237793
61926097306,0.911133,-0.303223,0.239258
61926113144,0.912109,-0.302246,0.245117
61926136163,0.910156,-0.297852,0.242188
61926157238,0.90918,-0.296387,0.22998
61926172973,0.904297,-0.293945,0.231934
61926196145,0.907715,-0.294434,0.233398
61926218083,0.907227,-0.289062,0.232422
61926232989,0.912598,-0.288086,0.225586
61926256167,0.908691,-0.286621,0.229004
61926277303,0.913574,-0.291504,0.231934
61926293091,0.907227,-0.291992,0.237305
61926316211,0.907227,-0.296387,0.241699
61926337268,0.905762,-0.298828,0.238281
61926353043,0.90918,-0.307617,0.235352
61926376233,0.907715,-0.305176,0.235352
61926397231,0.905762,-0.297852,0.237305
61926413037,0.911133,-0.293945,0.23291
61926435543,0.908691,-0.299805,0.23291
61926457270,0.90625,-0.300293,0.231445
61926473058,0.908691,-0.295898,0.23291
61926495554,0.904785,-0.293945,0.231934
61926517219,0.911621,-0.297852,0.234375
61926535135,0.910645,-0.300781,0.23877
61926555963,0.912598,-0.300293,0.229004
61926578794,0.908203,-0.295898,0.230469
61926593065,0.908691,-0.293945,0.228516
61926615555,0.908691,-0.294434,0.230469
61926640950,0.908203,-0.29834,0.230957
61926653070,0.909668,-0.297852,0.233887
61926675552,0.910156,-0.294922,0.230469
61926698681,0.914062,-0.291992,0.226562
61926713067,0.910156,-0.286621,0.23291
61926735542,0.911133,-0.290527,0.236328
61926758789,0.90918,-0.300781,0.22998
61926773039,0.90918,-0.298828,0.23877
61926795552,0.910645,-0.29541,0.23584
61926818678,0.913574,-0.285156,0.22998
61926833515,0.909668,-0.29248,0.229492
61926855528,0.904785,-0.291016,0.237305
61926878691,0.913086,-0.299805,0.242188
61926893002,0.912598,-0.302734,0.237305
61926915556,0.90625,-0.294434,0.22998
61926938718,0.899414,-0.288086,0.229004
61926953016,0.908691,-0.290039,0.229492
61926975506,0.914062,-0.294434,0.241211
61926998731,0.914551,-0.296875,0.244629
61927013031,0.914551,-0.294434,0.240723
61927035549,0.907715,-0.299805,0.233398
61927058650,0.906738,-0.296875,0.229492
61927079810,0.905762,-0.291016,0.233398
61927095540,0.904785,-0.293457,0.230469
61927119524,0.911621,-0.291016,0.230957
61927139787,0.910645,-0.29248,0.22998
61927157241,0.907227,-0.294434,0.235352
61927178708,0.90918,-0.291016,0.234375
61927199945,0.910156,-0.290527,0.227051
61927215533,0.907227,-0.299805,0.234863
61927238707,0.903809,-0.301758,0.237305
61927259733,0.908203,-0.29541,0.235352
61927275554,0.915527,-0.29248,0.241699
61927298475,0.908203,-0.291992,0.23877
61927319708,0.90625,-0.29541,0.237793
61927335569,0.910645,-0.295898,0.233398
61927358697,0.907227,-0.29834,0.229004
61927379788,0.90332,-0.297363,0.228516
61927395585,0.911133,-0.294434,0.233887
61927418053,0.905762,-0.290527,0.22998
61927439755,0.908203,-0.293457,0.236816
61927457172,0.904297,-0.294922,0.23584
61927478027,0.907715,-0.291504,0.237793
61927499787,0.907227,-0.294922,0.238281
61927515523,0.908691,-0.289551,0.233398
61927538030,0.910156,-0.291504,0.23291
61927561228,0.906738,-0.293457,0.236816
61927583689,0.914551,-0.297363,0.233398
61927598064,0.906738,-0.30127,0.232422
61927621206,0.908691,-0.295898,0.236816
61927635589,0.910645,-0.288574,0.236328
61927664793,0.90918,-0.289551,0.234375
61927681219,0.906738,-0.294434,0.231445
61927695597,0.907227,-0.300293,0.237793
61927718042,0.908203,-0.30127,0.233398
61927741243,0.907715,-0.291016,0.23877
61927755625,0.907715,-0.287598,0.23291
61927778052,0.909668,-0.290039,0.233887
61927801202,0.911621,-0.291504,0.23291
61927815520,0.913086,-0.286621,0.23877
61927838052,0.914551,-0.286133,0.235352
61927862181,0.907715,-0.30127,0.23584
61927875617,0.907715,-0.298828,0.237793
61927898106,0.90625,-0.294434,0.239746
61927921205,0.910645,-0.289062,0.233398
61927935528,0.90918,-0.286621,0.23584
61927958036,0.90918,-0.289551,0.234863
61927981220,0.90918,-0.295898,0.231934
61927995555,0.910645,-0.296875,0.237793
61928018115,0.910156,-0.296387,0.233887
61928041181,0.905762,-0.302734,0.237305
61928063166,0.906738,-0.297852,0.241699
61928078079,0.908691,-0.297852,0.236328
61928101253,0.90625,-0.294434,0.241211
61928122315,0.912109,-0.29541,0.238281
61928137290,0.908691,-0.29541,0.240723
61928151582,0.905273,-0.294434,0.231934
61928174112,0.903809,-0.295898,0.232422
61928197282,0.911133,-0.299316,0.227051
61928211678,0.901367,-0.292969,0.23291
61928234149,0.909668,-0.29248,0.237793
61928257293,0.910156,-0.296875,0.242676
61928271627,0.910645,-0.299316,0.237793
61928294145,0.906738,-0.296875,0.242188
61928317294,0.913574,-0.29541,0.230469
61928331671,0.908691,-0.296387,0.231445
61928354160,0.906738,-0.293945,0.232422
61928377257,0.906738,-0.290039,0.235352
61928391659,0.907715,-0.291992,0.233887
61928414116,0.911621,-0.297852,0.237793
61928437297,0.90625,-0.297852,0.237793
61928451672,0.913086,-0.29541,0.232422
61928474063,0.905273,-0.293457,0.233398
61928497286,0.909668,-0.293945,0.235352
61928511604,0.904297,-0.29834,0.239746
61928534142,0.911133,-0.295898,0.233887
61928557337,0.909668,-0.293945,0.234863
61928572350,0.901367,-0.294434,0.230469
61928594120,0.905762,-0.294922,0.229492
61928617346,0.908691,-0.293945,0.234863
61928631653,0.911133,-0.297852,0.237305
61928654157,0.910645,-0.293457,0.242188
61928677625,0.912598,-0.29834,0.236816
61928691748,0.904297,-0.305664,0.245605
61928714126,0.905273,-0.303223,0.238281
61928737316,0.908691,-0.29541,0.240723
61928751650,0.910156,-0.294434,0.23877
61928777172,0.904785,-0.294434,0.22998
61928797299,0.913574,-0.297363,0.236816
61928811667,0.911133,-0.298828,0.239746
61928834184,0.908203,-0.294434,0.236816
61928857356,0.905273,-0.293457,0.235352
61928871618,0.908203,-0.296875,0.23584
61928894151,0.910156,-0.299316,0.233887
61928917289,0.90625,-0.297363,0.237793
61928931653,0.908203,-0.294434,0.233398
61928954169,0.910645,-0.293945,0.242676
61928978031,0.911621,-0.296387,0.242676
61928991665,0.910156,-0.296387,0.243652
61929014153,0.902832,-0.296875,0.230957
61929037304,0.904297,-0.299805,0.235352
61929051594,0.904785,-0.297852,0.239258
61929074146,0.908691,-0.29248,0.239258
61929097304,0.911621,-0.294922,0.236816
61929111701,0.908203,-0.29834,0.23584
61929134178,0.90625,-0.291504,0.22998
61929157365,0.904297,-0.295898,0.241211
61929171616,0.90625,-0.293945,0.23877
61929194151,0.907227,-0.299316,0.23877
61929217797,0.915527,-0.293945,0.236816
61929231674,0.907227,-0.291504,0.239746
61929254225,0.904785,-0.295898,0.233887
61929277313,0.908203,-0.29834,0.239746
61929291649,0.911133,-0.29834,0.23584
61929314183,0.910156,-0.295898,0.238281
61929337328,0.90918,-0.296387,0.242676
61929352300,0.907715,-0.293945,0.237793
61929374175,0.909668,-0.293457,0.233398
61929396682,0.908203,-0.291504,0.226562
61929411675,0.907227,-0.296875,0.23877
61929434172,0.909668,-0.300293,0.242188
61929456773,0.908203,-0.300293,0.23291
61929471625,0.905273,-0.299805,0.235352
61929494177,0.897949,-0.289551,0.231934
61929516711,0.90625,-0.29248,0.232422
61929531789,0.910645,-0.301758,0.241699
61929554123,0.911621,-0.296387,0.245605
61929576695,0.913574,-0.29541,0.233887
61929591669,0.90625,-0.294922,0.239746
61929614213,0.902832,-0.296387,0.237305
61929636653,0.90625,-0.300293,0.240234
61929651617,0.90625,-0.291016,0.234375
61929674229,0.913574,-0.286133,0.236328
61929696687,0.911133,-0.289551,0.230469
61929711624,0.904785,-0.297363,0.231445
61929734163,0.90625,-0.298828,0.236328
61929756630,0.909668,-0.29834,0.244629
61929771646,0.905273,-0.297363,0.233887
61929794169,0.908203,-0.300781,0.239746
61929816689,0.906738,-0.303223,0.23877
61929831611,0.911133,-0.293945,0.239746
61929854168,0.909668,-0.296387,0.234375
61929886285,0.908203,-0.29541,0.23877
61929892919,0.907227,-0.293945,0.230957
61929914225,0.906738,-0.30127,0.236328
61929936693,0.899902,-0.297363,0.237793
61929951655,0.90918,-0.29834,0.23584
61929974180,0.910156,-0.294434,0.240234
61929996683,0.908203,-0.29541,0.236816
61930011661,0.907715,-0.293457,0.246582
61930034183,0.905762,-0.297852,0.23584
61930057361,0.905762,-0.295898,0.236816
61930071695,0.90918,-0.299805,0.238281
61930094149,0.902832,-0.289062,0.233398
61930116699,0.905273,-0.286133,0.234375
61930131718,0.911621,-0.291016,0.239258
61930154142,0.911621,-0.291016,0.23584
61930176692,0.902832,-0.293945,0.242676
61930192716,0.90918,-0.29541,0.236328
61930214300,0.908691,-0.289551,0.237793
61930236681,0.907227,-0.291016,0.238281
61930253103,0.914062,-0.297852,0.240234
61930274167,0.904297,-0.293945,0.239746
61930296688,0.90625,-0.291016,0.240723
61930313161,0.910156,-0.297852,0.236328
61930334216,0.909668,-0.291992,0.235352
61930356668,0.905762,-0.301758,0.233887
61930373126,0.90625,-0.292969,0.23877
61930395152,0.909668,-0.292969,0.233398
61930416897,0.910156,-0.296387,0.245117
61930433095,0.912598,-0.292969,0.243652
61930454182,0.90918,-0.291504,0.246094
61930476717,0.904785,-0.298828,0.234375
61930494076,0.907227,-0.290039,0.235352
61930514171,0.90918,-0.290039,0.23584
61930536703,0.903809,-0.288574,0.233398
61930553079,0.912109,-0.287109,0.233398
61930574202,0.912109,-0.289551,0.236328
61930597846,0.912109,-0.290039,0.234863
61930613164,0.910156,-0.293457,0.234863
61930637130,0.905273,-0.295898,0.236816
61930656703,0.908203,-0.293945,0.231934
61930673087,0.902832,-0.30127,0.237305
61930694207,0.903809,-0.302246,0.237305
61930716698,0.907715,-0.291016,0.239746
61930733106,0.912109,-0.289551,0.23877
61930754190,0.910156,-0.292969,0.240234
61930776721,0.90918,-0.29248,0.232422
61930793107,0.904785,-0.296875,0.237793
61930814160,0.90918,-0.295898,0.234375
61930836706,0.907715,-0.29248,0.239258
61930853116,0.90918,-0.290039,0.237793
61930874174,0.905273,-0.290527,0.241699
61930897275,0.912598,-0.293945,0.243164
61930913130,0.908203,-0.295898,0.247559
61930934171,0.908203,-0.29248,0.23877
61930956691,0.910645,-0.288086,0.234375
61930974000,0.911133,-0.286133,0.230469
61930994218,0.903809,-0.29248,0.23584
61931016719,0.905273,-0.295898,0.23877
61931033101,0.90625,-0.297363,0.241211
61931054176,0.90625,-0.293945,0.242188
61931076659,0.90918,-0.294922,0.241699
61931093070,0.906738,-0.299316,0.23877
61931114154,0.912598,-0.293945,0.243652
61931136678,0.910156,-0.290039,0.233398
61931153134,0.908691,-0.290527,0.22998
61931176013,0.908203,-0.291992,0.234375
61931196763,0.908691,-0.297363,0.245605
61931213128,0.907715,-0.299316,0.236816
61931235588,0.903809,-0.287109,0.23877
61931256711,0.907715,-0.293457,0.238281
61931275473,0.908203,-0.304199,0.242676
61931295599,0.910645,-0.292969,0.246094
61931318101,0.913086,-0.291504,0.236328
61931333143,0.904297,-0.291504,0.242188
61931355631,0.90332,-0.298828,0.243652
61931376693,0.908203,-0.297363,0.243652
61931393157,0.912109,-0.291504,0.238281
61931415649,0.911621,-0.287109,0.234375
61931436698,0.910156,-0.291992,0.238281
61931453158,0.907227,-0.289062,0.237305
61931476534,0.910156,-0.291992,0.239746
61931496732,0.905762,-0.291504,0.238281
61931513102,0.908203,-0.294434,0.239746
61931535602,0.902832,-0.303223,0.237793
61931556763,0.905273,-0.304688,0.236328
61931573158,0.904785,-0.297852,0.23877
61931595645,0.910156,-0.291504,0.236328
61931616686,0.908691,-0.29834,0.239746
61931633162,0.910156,-0.298828,0.246094
61931655600,0.907227,-0.299316,0.240234
61931676692,0.902344,-0.297852,0.23291
61931693148,0.906738,-0.29541,0.234375
61931715656,0.912109,-0.29248,0.237793
61931736708,0.910645,-0.291016,0.230469
61931753151,0.910645,-0.290527,0.237305
61931776558,0.910645,-0.296875,0.241699
61931796710,0.90625,-0.297852,0.23877
61931813124,0.908691,-0.295898,0.236816
61931835599,0.90332,-0.291016,0.238281
61931856761,0.908203,-0.291992,0.232422
61931873124,0.909668,-0.296387,0.23877
61931894883,0.908691,-0.299805,0.237305
61931917342,0.908203,-0.293945,0.240723
61931932409,0.907227,-0.291992,0.233398
61931954863,0.904785,-0.29541,0.234375
61931977409,0.90625,-0.295898,0.238281
61931992462,0.908203,-0.293945,0.241211
61932014895,0.912109,-0.291992,0.243164
61932037359,0.910645,-0.29248,0.237793
61932053812,0.904785,-0.291992,0.251953
61932074871,0.908203,-0.300781,0.23877
61932097346,0.911133,-0.302734,0.239258
61932113799,0.907227,-0.296875,0.237305
61932134900,0.904785,-0.294434,0.236328
61932157367,0.907227,-0.292969,0.237305
61932172363,0.910156,-0.295898,0.245605
61932194899,0.90918,-0.291992,0.243164
61932217430,0.910645,-0.293457,0.23877
61932232367,0.90625,-0.298828,0.245605
61932254894,0.904297,-0.297363,0.240234
61932277382,0.908203,-0.292969,0.241699
61932293863,0.905762,-0.287109,0.24707
61932314920,0.90918,-0.306641,0.244629
61932337406,0.911133,-0.294434,0.237793
61932353818,0.904785,-0.291992,0.235352
61932382549,0.904297,-0.293945,0.243652
61932397401,0.910156,-0.291016,0.240234
61932413827,0.909668,-0.296387,0.241699
61932434907,0.90332,-0.29541,0.241211
61932457458,0.902832,-0.297363,0.23877
61932473777,0.904297,-0.292969,0.240234
61932494894,0.906738,-0.288086,0.244629
61932517377,0.90625,-0.296875,0.243652
61932533879,0.908691,-0.297852,0.23877
61932554873,0.905273,-0.30127,0.237305
61932578793,0.905273,-0.294922,0.242676
61932593844,0.904785,-0.291016,0.238281
61932614853,0.908691,-0.291016,0.230957
61932637390,0.908203,-0.29541,0.245605
61932653806,0.912598,-0.294434,0.242188
61932674894,0.906738,-0.293457,0.243164
61932697443,0.906738,-0.292969,0.239746
61932714807,0.904785,-0.29248,0.243164
61932734878,0.907227,-0.292969,0.239746
61932757408,0.90918,-0.293457,0.250488
61932773793,0.90625,-0.293457,0.235352
61932794892,0.908203,-0.294434,0.239258
61932818362,0.910645,-0.302734,0.248535
61932833800,0.910156,-0.292969,0.242676
61932854896,0.910156,-0.290039,0.228516
61932877385,0.899902,-0.288574,0.23877
61932893835,0.908203,-0.291016,0.236816
61932914912,0.910645,-0.294922,0.23877
61932937362,0.906738,-0.294922,0.248535
61932953818,0.907227,-0.297363,0.246582
61932974959,0.90625,-0.296387,0.246094
61932997405,0.907227,-0.295898,0.242676
61933013786,0.907715,-0.292969,0.242188
61933034888,0.90625,-0.29248,0.237793
61933057393,0.909668,-0.297363,0.22998
61933073186,0.905762,-0.296875,0.23584
61933095072,0.906738,-0.290039,0.239746
61933118392,0.916504,-0.296387,0.245117
61933133166,0.907227,-0.291504,0.242188
61933154882,0.913574,-0.289551,0.245605
61933177436,0.902832,-0.298828,0.244141
61933193490,0.899414,-0.296875,0.249023
61933216298,0.904785,-0.295898,0.243652
61933237393,0.90625,-0.290527,0.246094
61933253138,0.910156,-0.292969,0.236328
61933276358,0.909668,-0.29248,0.241211
61933297437,0.905273,-0.294922,0.237793
61933313148,0.907715,-0.288574,0.234863
61933336281,0.904785,-0.288086,0.244141
61933357423,0.915527,-0.296875,0.238281
61933373227,0.901367,-0.295898,0.244629
61933396346,0.90625,-0.298828,0.23877
61933417451,0.910645,-0.29541,0.240723
61933433212,0.911621,-0.291992,0.243164
61933456333,0.906738,-0.296875,0.244141
61933477446,0.90625,-0.29541,0.240723
61933493224,0.907715,-0.299316,0.237305
61933516342,0.907227,-0.292969,0.23877
61933537423,0.908203,-0.294922,0.237793
61933553154,0.907227,-0.286133,0.233398
61933576302,0.910645,-0.285645,0.243164
61933597363,0.912109,-0.293457,0.243652
61933613172,0.907227,-0.29248,0.239746
61933636324,0.910156,-0.290527,0.246582
61933657406,0.908691,-0.291016,0.240234
61933673173,0.911621,-0.291016,0.239746
61933696380,0.908203,-0.289551,0.242676
61933717374,0.907227,-0.289551,0.242188
61933733901,0.90918,-0.294922,0.239746
61933756402,0.90918,-0.293457,0.232422
61933777466,0.911133,-0.286621,0.232422
61933793197,0.910156,-0.287598,0.234375
61933816353,0.910156,-0.290527,0.239258
61933837415,0.911621,-0.285645,0.235352
61933853176,0.904785,-0.286621,0.240723
61933876345,0.908203,-0.286621,0.237305
61933897492,0.910645,-0.29248,0.241211
61933913220,0.907715,-0.293945,0.237305
61933936378,0.909668,-0.291992,0.238281
61933957384,0.90625,-0.289062,0.239746
61933973214,0.907715,-0.288574,0.244629
61933995665,0.908203,-0.299316,0.244141
61934017455,0.911621,-0.297852,0.251953
61934035317,0.910645,-0.285645,0.240723
61934055686,0.914062,-0.290039,0.240723
61934077474,0.906738,-0.29834,0.234863
61934093193,0.905762,-0.291016,0.240723
61934115649,0.910156,-0.282715,0.239258
61934139336,0.908203,-0.286133,0.242676
61934153199,0.908691,-0.29248,0.238281
61934175676,0.905762,-0.288086,0.240234
61934198879,0.903809,-0.291992,0.238281
61934213259,0.90918,-0.29541,0.245605
61934235771,0.908691,-0.291016,0.243652
61934258888,0.90625,-0.293457,0.237793
61934273172,0.904297,-0.288086,0.23877
61934295677,0.907227,-0.287598,0.240234
61934324958,0.908691,-0.291504,0.235352
61934333209,0.911133,-0.293457,0.243164
61934355691,0.904785,-0.290039,0.248047
61934378851,0.905762,-0.294922,0.240723
61934393266,0.907227,-0.297363,0.23877
61934415784,0.901367,-0.300293,0.239258
61934438860,0.906738,-0.289551,0.240723
61934453210,0.906738,-0.288086,0.240234
61934475712,0.908691,-0.291016,0.240234
61934498831,0.906738,-0.297852,0.244629
61934513211,0.907227,-0.291504,0.245117
61934535670,0.907715,-0.291016,0.23291
61934558847,0.910645,-0.289062,0.23877
61934573192,0.907715,-0.288086,0.240234
61934595701,0.909668,-0.296387,0.241699
61934618851,0.910645,-0.288574,0.238281
61934633206,0.910156,-0.293945,0.248047
61934655726,0.907227,-0.295898,0.237793
61934678843,0.909668,-0.29248,0.243164
61934699908,0.90332,-0.291504,0.237793
61934715652,0.910156,-0.29248,0.241699
61934738829,0.908203,-0.29834,0.248535
61934759951,0.911621,-0.29834,0.244141
61934775694,0.907227,-0.291504,0.239746
61934798825,0.902832,-0.295898,0.241211
61934819956,0.901367,-0.29834,0.241699
61934835704,0.905762,-0.289062,0.236816
61934858830,0.908203,-0.295898,0.239746
61934881360,0.910156,-0.296387,0.245605
61934895681,0.910156,-0.291016,0.250977
61934918824,0.907715,-0.290039,0.242676
61934939953,0.905762,-0.299805,0.242676
61934963852,0.905762,-0.292969,0.242676
61934978216,0.90918,-0.291992,0.236816
61934999887,0.90918,-0.287109,0.237793
61935015666,0.90918,-0.285156,0.234375
61935046400,0.906738,-0.286621,0.241211
61935067449,0.90625,-0.290527,0.240234
61935075674,0.910645,-0.301758,0.245605
61935098228,0.908203,-0.296387,0.249512
61935121381,0.90625,-0.294922,0.234375
61935135729,0.90625,-0.297363,0.237793
61935159381,0.907715,-0.297852,0.245117
61935181459,0.908203,-0.291992,0.248535
61935195713,0.910156,-0.29248,0.245605
61935218199,0.910645,-0.293945,0.245605
61935241850,0.90625,-0.29541,0.242188
61935257614,0.905762,-0.299316,0.249023
61935278204,0.903809,-0.29834,0.241211
61935301383,0.904785,-0.293945,0.240723
61935315681,0.908203,-0.288086,0.245605
61935338680,0.909668,-0.294434,0.245605
61935363608,0.906738,-0.293945,0.243164
61935375703,0.907715,-0.296387,0.242188
61935398174,0.905762,-0.294434,0.242676
61935421329,0.907227,-0.290039,0.242188
61935435709,0.90625,-0.285645,0.240723
61935458247,0.904297,-0.289062,0.242188
61935481349,0.910156,-0.289062,0.243164
61935495704,0.904785,-0.291504,0.244141
61935518231,0.909668,-0.29834,0.250977
61935541365,0.90918,-0.293945,0.244141
61935555679,0.905762,-0.29248,0.240723
61935578180,0.904785,-0.297363,0.231934
61935601378,0.907227,-0.29541,0.242188
61935622475,0.90332,-0.291504,0.243164
61935638244,0.909668,-0.294434,0.244629
61935651780,0.910156,-0.292969,0.24707
61935674277,0.906738,-0.302734,0.241211
61935697559,0.907227,-0.29248,0.244141
61935711773,0.905762,-0.293945,0.242188
61935734293,0.908203,-0.286133,0.238281
61935757438,0.909668,-0.293945,0.241211
61935771797,0.904785,-0.29248,0.239258
61935794279,0.908203,-0.295898,0.245117
61935817442,0.907227,-0.289062,0.245605
61935831762,0.911621,-0.291992,0.244141
61935854347,0.911133,-0.294434,0.248535
61935877501,0.908203,-0.297852,0.249512
61935891819,0.902832,-0.296387,0.245605
61935914290,0.907227,-0.296387,0.240234
61935937517,0.911133,-0.289062,0.245117
61935951799,0.90918,-0.285645,0.236816
61935974308,0.906738,-0.284668,0.240723
61935997480,0.90625,-0.290039,0.240723
61936011824,0.905273,-0.296387,0.246094
61936034268,0.907227,-0.294922,0.24707
61936057421,0.910645,-0.298828,0.244629
61936073003,0.904785,-0.295898,0.241699
61936094413,0.908203,-0.29541,0.245605
61936117538,0.907227,-0.293457,0.243164
61936131810,0.907715,-0.288574,0.248535
61936154284,0.910645,-0.29248,0.240234
61936177459,0.905762,-0.296875,0.242188
61936191797,0.907227,-0.291504,0.239746
61936214322,0.904785,-0.291504,0.238281
61936237458,0.906738,-0.295898,0.239746
61936251812,0.913574,-0.296875,0.247559
61936274882,0.911133,-0.296387,0.248535
61936297502,0.907715,-0.291504,0.247559
61936311828,0.908691,-0.29248,0.244141
61936334289,0.90625,-0.29541,0.243652
61936357559,0.904785,-0.294922,0.237305
61936372389,0.90918,-0.289551,0.240723
61936394320,0.907227,-0.290527,0.23877
61936417494,0.907227,-0.290527,0.245605
61936431797,0.909668,-0.294434,0.248535
61936454315,0.906738,-0.302246,0.249512
61936477392,0.903809,-0.29541,0.245117
61936491791,0.908691,-0.290039,0.236328
61936514287,0.906738,-0.289062,0.239746
61936545627,0.907715,-0.290039,0.240723
61936551826,0.907715,-0.297852,0.242676
61936574909,0.904297,-0.296387,0.234375
61936597530,0.905273,-0.291504,0.23584
61936611832,0.906738,-0.293945,0.235352
61936634347,0.907715,-0.293457,0.242188
61936657575,0.911133,-0.293457,0.244629
61936671758,0.907715,-0.293457,0.244141
61936694338,0.904785,-0.291016,0.237305
61936717447,0.911621,-0.293457,0.234863
61936731834,0.910156,-0.292969,0.242188
61936754279,0.90332,-0.290527,0.242188
61936778014,0.90918,-0.289551,0.243652
61936791831,0.915527,-0.290527,0.248535
61936814313,0.912598,-0.289062,0.249512
61936837480,0.905273,-0.298828,0.249023
61936851994,0.903809,-0.296387,0.24707
61936874303,0.901855,-0.291016,0.248047
61936897472,0.908203,-0.286621,0.244141
61936911854,0.909668,-0.291992,0.243652
61936934342,0.908203,-0.288086,0.240723
61936957432,0.908691,-0.285645,0.240723
61936971782,0.907715,-0.285156,0.238281
61936994328,0.904297,-0.293945,0.245117
61937018248,0.911133,-0.294434,0.24707
61937031880,0.904297,-0.297363,0.23877
61937054483,0.90332,-0.29248,0.244141
61937076836,0.90918,-0.291016,0.242188
61937091869,0.909668,-0.289551,0.243164
61937114343,0.912598,-0.291504,0.235352
61937136789,0.90918,-0.287109,0.24707
61937151821,0.901367,-0.290527,0.236328
61937174281,0.906738,-0.293457,0.243652
61937196815,0.90918,-0.294922,0.238281
61937211817,0.905762,-0.293945,0.246582
61937234337,0.910645,-0.284668,0.247559
61937256769,0.90625,-0.285645,0.23877
61937279972,0.90918,-0.290527,0.241211
61937294326,0.908691,-0.289062,0.243652
61937316820,0.909668,-0.291016,0.245605
61937331836,0.908691,-0.291504,0.246582
61937354311,0.905273,-0.289062,0.24707
61937376819,0.911133,-0.289062,0.239746
61937392571,0.905762,-0.28418,0.244141
61937414287,0.911133,-0.294922,0.241211
61937436842,0.908691,-0.293457,0.241699
61937451820,0.90625,-0.289551,0.240234
61937474343,0.90918,-0.283203,0.243652
61937497634,0.908203,-0.291016,0.245605
61937511792,0.909668,-0.290039,0.238281
61937534339,0.90918,-0.289062,0.240723
61937556847,0.908691,-0.287109,0.25293
61937573263,0.906738,-0.285645,0.246094
61937595526,0.906738,-0.288086,0.242676
61937616901,0.906738,-0.290527,0.240723
61937631863,0.90918,-0.291504,0.239746
61937654346,0.90918,-0.285645,0.244141
61937676828,0.904785,-0.289062,0.236328
61937691842,0.907715,-0.291992,0.248535
61937714303,0.913086,-0.290039,0.25
61937736832,0.911621,-0.289551,0.238281
61937751833,0.90332,-0.294922,0.238281
61937774481,0.905273,-0.287598,0.23877
61937797524,0.907227,-0.287598,0.243164
61937813305,0.907227,-0.285156,0.244141
61937834389,0.910156,-0.28418,0.234375
61937856867,0.908691,-0.290039,0.237305
61937874002,0.905762,-0.288086,0.245117
61937894418,0.907715,-0.294922,0.239258
61937916854,0.908203,-0.291504,0.246094
61937933270,0.90625,-0.294922,0.249023
61937954334,0.90332,-0.294434,0.249512
61937976876,0.904297,-0.292969,0.247559
61937993250,0.910645,-0.286621,0.243164
61938014351,0.90918,-0.294434,0.241699
61938036848,0.911133,-0.289551,0.241211
61938053225,0.902832,-0.290039,0.239746
61938074347,0.90625,-0.290039,0.247559
61938096848,0.912109,-0.289551,0.245117
61938113306,0.910645,-0.293457,0.249512
61938134326,0.905762,-0.285156,0.24707
61938156852,0.908203,-0.286133,0.242188
61938173277,0.907227,-0.287109,0.234863
61938194294,0.911133,-0.291992,0.243652
61938216828,0.907715,-0.291016,0.241699
61938233296,0.90918,-0.291992,0.236328
61938254320,0.90625,-0.28418,0.241211
61938276844,0.913574,-0.291016,0.23877
61938293286,0.913086,-0.290039,0.246582
61938314909,0.90625,-0.292969,0.244141
61938336821,0.908203,-0.296387,0.244141
61938353282,0.903809,-0.290527,0.243164
61938374373,0.905273,-0.288574,0.240723
61938396794,0.906738,-0.292969,0.249023
61938415326,0.905273,-0.291992,0.246582
61938434335,0.906738,-0.291992,0.245605
61938456824,0.913086,-0.291504,0.246582
61938473272,0.90332,-0.292969,0.24707
61938494361,0.910156,-0.289551,0.243164
61938517792,0.905273,-0.292969,0.24707
61938533286,0.908203,-0.292969,0.240234
61938554332,0.90332,-0.284668,0.236816
61938576855,0.906738,-0.290039,0.241211
61938593243,0.910156,-0.292969,0.244629
61938614343,0.90918,-0.288086,0.252441
61938636823,0.910156,-0.286621,0.243164
61938653292,0.909668,-0.296875,0.254883
61938674343,0.898926,-0.297852,0.25
61938696824,0.904785,-0.295898,0.246582
61938713250,0.90625,-0.291504,0.241699
61938735758,0.908203,-0.287598,0.239258
61938756841,0.910156,-0.286133,0.242188
61938773281,0.90625,-0.288574,0.233887
61938795817,0.907227,-0.284668,0.244141
61938816864,0.90918,-0.291992,0.245605
61938833256,0.90625,-0.295898,0.243164
61938855759,0.905273,-0.294922,0.240234
61938876885,0.905762,-0.293945,0.244141
61938893271,0.90918,-0.290527,0.246094
61938915795,0.905762,-0.291504,0.24707
61938936862,0.908203,-0.291504,0.251465
61938953308,0.907227,-0.293945,0.244141
61938975823,0.905762,-0.295898,0.248047
61938996860,0.902344,-0.29834,0.248047
61939013295,0.904785,-0.291504,0.252441
61939037315,0.90625,-0.292969,0.242188
61939056902,0.909668,-0.291992,0.244141
61939073270,0.912109,-0.291016,0.249023
61939095773,0.908203,-0.296875,0.246094
61939116831,0.906738,-0.296387,0.250977
61939133277,0.909668,-0.288086,0.248535
61939155803,0.911621,-0.287109,0.244141
61939176861,0.905273,-0.285156,0.249023
61939193284,0.912109,-0.288574,0.243652
61939215818,0.910156,-0.290039,0.237305
61939238061,0.904297,-0.291504,0.236328
61939253266,0.906738,-0.283691,0.243652
61939275820,0.914551,-0.290039,0.244141
61939296897,0.907227,-0.287109,0.251953
61939320801,0.904785,-0.294922,0.246582
61939335766,0.908203,-0.297852,0.243164
61939356820,0.90625,-0.288574,0.248047
61939373274,0.911133,-0.287109,0.239746
61939395752,0.909668,-0.292969,0.244629
61939417520,0.903809,-0.29541,0.242676
61939432510,0.906738,-0.294922,0.246094
61939455039,0.907715,-0.286133,0.236328
61939477527,0.906738,-0.291016,0.235352
61939492544,0.904297,-0.286133,0.242188
61939515022,0.90625,-0.293457,0.239258
61939537562,0.90918,-0.297363,0.253418
61939553150,0.912598,-0.294434,0.25293
61939575043,0.910645,-0.289062,0.246094
61939597504,0.906738,-0.288574,0.246582
61939612579,0.905762,-0.29541,0.252441
61939635053,0.908203,-0.29248,0.248535
61939657545,0.905273,-0.291016,0.243652
61939672539,0.912598,-0.287109,0.241699
61939695039,0.907227,-0.27832,0.242676
61939717555,0.912109,-0.289062,0.245605
61939732547,0.90918,-0.288086,0.24707
61939755413,0.905273,-0.290527,0.242676
61939777532,0.907227,-0.290039,0.250488
61939792510,0.906738,-0.291504,0.250977
61939815094,0.905273,-0.292969,0.248535
61939837535,0.907715,-0.286621,0.243164
61939855576,0.909668,-0.286621,0.243652
61939875013,0.908203,-0.287109,0.241699
61939897542,0.908691,-0.287598,0.240234
61939913925,0.908203,-0.291016,0.238281
61939934992,0.905273,-0.292969,0.241699
61939958727,0.90625,-0.291016,0.242188
61939973966,0.910156,-0.280273,0.241211
61939995029,0.90918,-0.285156,0.245605
61940017552,0.905273,-0.292969,0.249023
61940034565,0.907715,-0.291504,0.245605
61940055005,0.909668,-0.286133,0.245605
61940077511,0.909668,-0.285156,0.243164
61940093986,0.910645,-0.297852,0.243652
61940115071,0.90332,-0.289551,0.24707
61940137543,0.908691,-0.285645,0.243164
61940154037,0.911621,-0.278809,0.243164
61940175064,0.909668,-0.286133,0.244629
61940197558,0.906738,-0.291992,0.243652
61940213951,0.904785,-0.289551,0.243164
61940235079,0.90918,-0.289062,0.242676
61940257543,0.90918,-0.284668,0.242676
61940273971,0.911621,-0.283691,0.249023
61940295072,0.90918,-0.283203,0.241211
61940317515,0.913086,-0.279785,0.241699
61940333962,0.911133,-0.275879,0.243652
61940355013,0.913574,-0.281738,0.245117
61940377554,0.906738,-0.291016,0.252441
61940393961,0.905762,-0.285645,0.244141
61940415034,0.909668,-0.286133,0.245117
61940437497,0.907715,-0.283691,0.246094
61940453964,0.906738,-0.281738,0.251465
61940475004,0.915039,-0.278809,0.253906
61940497545,0.912109,-0.289551,0.251465
61940513972,0.902832,-0.295898,0.249512
61940535103,0.903809,-0.291016,0.246582
61940557522,0.905273,-0.285156,0.249512
61940574817,0.913086,-0.281738,0.246582
61940595045,0.911133,-0.287109,0.245117
61940617542,0.908203,-0.290039,0.248535
61940633355,0.908203,-0.290527,0.246582
61940655084,0.908691,-0.288574,0.245605
61940678295,0.905273,-0.28418,0.248535
61940693373,0.911621,-0.285645,0.243164
61940715014,0.905273,-0.282227,0.241211
61940737604,0.908203,-0.284668,0.245117
61940753317,0.912598,-0.284668,0.248535
61940778482,0.912598,-0.285156,0.246094
61940797561,0.913574,-0.284668,0.24707
61940813336,0.905273,-0.289062,0.243652
61940836493,0.898926,-0.288086,0.236816
61940857537,0.90625,-0.28418,0.239746
61940873329,0.913086,-0.282715,0.244141
61940902551,0.913086,-0.277344,0.245117
61940917685,0.910645,-0.286133,0.246582
61940933340,0.912109,-0.283691,0.247559
61940956546,0.90625,-0.287598,0.244629
61940978476,0.908203,-0.286133,0.249023
61940993356,0.907227,-0.283691,0.246582
61941016573,0.90332,-0.28418,0.244629
61941037590,0.911133,-0.28125,0.241699
61941053381,0.908691,-0.286133,0.246094
61941078319,0.910645,-0.284668,0.244141
61941097598,0.906738,-0.289551,0.241211
61941113362,0.90625,-0.282227,0.238281
61941136479,0.911133,-0.285156,0.244629
61941157540,0.912598,-0.289062,0.247559
61941173304,0.907715,-0.288574,0.246582
61941196513,0.907715,-0.283203,0.243652
61941217603,0.914551,-0.279785,0.244629
61941233307,0.911133,-0.285156,0.246094
61941264037,0.908691,-0.288086,0.243652
61941277563,0.90625,-0.283203,0.237305
61941294475,0.915527,-0.290527,0.250488
61941316504,0.908691,-0.291504,0.249023
61941337518,0.909668,-0.279785,0.250977
61941353360,0.902832,-0.288574,0.247559
61941376473,0.908203,-0.295898,0.248535
61941397542,0.902832,-0.291504,0.24707
61941413365,0.90918,-0.282715,0.243652
61941436506,0.909668,-0.280762,0.242676
61941457596,0.911621,-0.285156,0.244629
61941473310,0.910156,-0.285645,0.241699
61941497999,0.910156,-0.289062,0.243652
61941517640,0.90918,-0.287598,0.243652
61941533371,0.912598,-0.283691,0.248047
61941556479,0.907227,-0.293945,0.247559
61941577573,0.90625,-0.290527,0.252441
61941595274,0.903809,-0.281738,0.248535
61941615889,0.910645,-0.287109,0.248535
61941637580,0.913086,-0.291504,0.248535
61941653354,0.910156,-0.289062,0.251465
61941675854,0.902344,-0.28418,0.244629
61941698815,0.90332,-0.285156,0.243652
61941713307,0.912109,-0.288574,0.24707
61941735858,0.911621,-0.288574,0.245605
61941759003,0.908203,-0.286621,0.242188
61941773306,0.90918,-0.280762,0.248047
61941796868,0.905762,-0.283691,0.245117
61941819169,0.911621,-0.283691,0.243652
61941833376,0.899902,-0.293945,0.251953
61941855854,0.911621,-0.289551,0.252441
61941879014,0.90332,-0.284668,0.250977
61941893373,0.909668,-0.285156,0.248535
61941915875,0.908203,-0.283203,0.243652
61941939012,0.904785,-0.287109,0.241699
61941953330,0.908203,-0.289551,0.249512
61941975874,0.905762,-0.284668,0.241211
61941998999,0.912109,-0.284668,0.243652
61942013374,0.910645,-0.288086,0.245117
