myot,myox,myoy,myoz
1455556193,myox,myoy,myoz
609102781178,0.875,-0.148926,-0.420898
609102795593,0.877441,-0.147461,-0.421875
609102819263,0.870117,-0.149414,-0.419922
609102840637,0.875488,-0.147461,-0.418945
609102855566,0.873535,-0.149414,-0.421875
609102879258,0.875,-0.144043,-0.427246
609102933302,0.874512,-0.147461,-0.417969
609102934089,0.879395,-0.148438,-0.418457
609102935708,0.875977,-0.148926,-0.416504
609102954884,0.869141,-0.148438,-0.425781
609102976264,0.873535,-0.149902,-0.417969
609102990619,0.877441,-0.148926,-0.418945
609103014231,0.876953,-0.145508,-0.423828
609103043684,0.875488,-0.147461,-0.425781
609103053997,0.875488,-0.149414,-0.42041
609103073547,0.87207,-0.147461,-0.422363
609103096179,0.874023,-0.149414,-0.422363
609103111158,0.873047,-0.147461,-0.419434
609103133588,0.875488,-0.148438,-0.421387
609103156201,0.875488,-0.145996,-0.42041
609103171115,0.877441,-0.150879,-0.42334
609103193661,0.874512,-0.149414,-0.424316
609103216108,0.874512,-0.146973,-0.422363
609103231085,0.875488,-0.150879,-0.42334
609103253563,0.872559,-0.147949,-0.417969
609103275923,0.875,-0.150879,-0.416992
609103294038,0.875977,-0.146973,-0.424805
609103313687,0.876465,-0.147949,-0.42334
609103336049,0.878418,-0.149902,-0.419922
609103351148,0.876465,-0.152344,-0.423828
609103373601,0.875,-0.146973,-0.421875
609103396043,0.873047,-0.148926,-0.418945
609103410413,0.87207,-0.149414,-0.41748
609103433567,0.874023,-0.15332,-0.422852
609103456085,0.878418,-0.147461,-0.426758
609103470395,0.875,-0.151367,-0.418457
609103493596,0.875488,-0.150879,-0.42041
609103516074,0.875,-0.147461,-0.419922
609103530452,0.875977,-0.149902,-0.415039
609103553550,0.874023,-0.147461,-0.42041
609103576094,0.870117,-0.149414,-0.419434
609103590396,0.874512,-0.145996,-0.419434
609103613562,0.877441,-0.148926,-0.41748
609103636118,0.870605,-0.141113,-0.413086
609103650414,0.867676,-0.149902,-0.420898
609103673555,0.86084,-0.148926,-0.424316
609103696524,0.870117,-0.157227,-0.416016
609103710492,0.884766,-0.147949,-0.416504
609103733661,0.884277,-0.135254,-0.429199
609103756113,0.879883,-0.151367,-0.422852
609103770503,0.867676,-0.147949,-0.42627
609103793639,0.869141,-0.128906,-0.438965
609103816085,0.87207,-0.145508,-0.434082
609103830521,0.874023,-0.146484,-0.421387
609103853658,0.874512,-0.145508,-0.427246
609103876127,0.880859,-0.137695,-0.431641
609103890426,0.87793,-0.128418,-0.428711
609103913601,0.876465,-0.130371,-0.431152
609103936051,0.874512,-0.134766,-0.428223
609103950390,0.872559,-0.133301,-0.429199
609103973604,0.881836,-0.129395,-0.428711
609103996096,0.883301,-0.141602,-0.421875
609104010424,0.874023,-0.138672,-0.428711
609104032916,0.87207,-0.132324,-0.431152
609104055434,0.871094,-0.125977,-0.431641
609104070419,0.874023,-0.123535,-0.428711
609104092914,0.88623,-0.128418,-0.425293
609104115433,0.881836,-0.129883,-0.420898
609104130457,0.876953,-0.126465,-0.429199
609104152962,0.867676,-0.124512,-0.432129
609104175475,0.865723,-0.126953,-0.432617
609104190395,0.879395,-0.123535,-0.42627
609104212966,0.884766,-0.122559,-0.417969
609104235422,0.89209,-0.121094,-0.419922
609104250439,0.885254,-0.111328,-0.421387
609104272951,0.870605,-0.129883,-0.426758
609104295467,0.875,-0.164062,-0.412598
609104310413,0.893555,-0.164062,-0.408203
609104332935,0.913574,-0.144043,-0.407227
609104355431,0.898926,-0.137207,-0.40918
609104370472,0.885742,-0.109863,-0.42627
609104392948,0.888184,-0.0898438,-0.420898
609104416926,0.87793,-0.101074,-0.424316
609104430442,0.872559,-0.117676,-0.41748
609104452911,0.868652,-0.125,-0.419434
609104475400,0.854492,-0.130371,-0.414062
609104490435,0.841797,-0.134277,-0.412109
609104521113,0.839844,-0.139648,-0.413086
609104535384,0.841797,-0.133301,-0.405273
609104550440,0.86377,-0.12793,-0.405762
609104572923,0.894531,-0.114258,-0.39502
609104595438,0.916016,-0.0883789,-0.390625
609104610453,0.916016,-0.0966797,-0.379883
609104632939,0.894043,-0.109375,-0.383789
609104655385,0.881836,-0.121094,-0.38623
609104671886,0.881348,-0.126953,-0.387695
609104692923,0.88916,-0.128906,-0.382324
609104723607,0.889648,-0.109375,-0.375
609104731887,0.909668,-0.125977,-0.345703
609104752956,0.949707,-0.134766,-0.348633
609104775433,0.979004,-0.131836,-0.351562
609104791902,0.95166,-0.100098,-0.351562
609104812925,0.913574,-0.0839844,-0.331055
609104835457,0.924805,-0.0595703,-0.340332
609104851887,0.910156,-0.114746,-0.304199
609104872932,0.910156,-0.129395,-0.307617
609104895451,0.926758,-0.128418,-0.289551
609104911910,0.915527,-0.116699,-0.283203
609104932935,0.925293,-0.0854492,-0.289062
609104955430,0.944336,-0.114746,-0.273438
609104971924,0.953613,-0.155762,-0.243652
609104992927,0.943359,-0.154785,-0.239258
609105015447,0.935059,-0.136719,-0.231445
609105031899,0.942383,-0.104492,-0.240723
609105052939,0.948242,-0.121582,-0.224609
609105075475,0.946777,-0.133301,-0.209961
609105091891,0.943848,-0.127441,-0.205078
609105112946,0.948242,-0.121094,-0.200195
609105135442,0.921387,-0.112793,-0.188965
609105151893,0.970215,-0.0854492,-0.195801
609105172966,0.956055,-0.109863,-0.196289
609105195473,0.962891,-0.141113,-0.182129
609105211917,0.975586,-0.116699,-0.175293
609105232964,0.998535,-0.113281,-0.146484
609105255443,0.960938,-0.125488,-0.128906
609105271891,0.947266,-0.128906,-0.132812
609105292923,0.957031,-0.129395,-0.13916
609105315487,0.938477,-0.12793,-0.152344
609105339365,0.965332,-0.0854492,-0.144531
609105352952,0.973145,-0.109863,-0.105469
609105375465,0.95752,-0.13916,-0.0898438
609105391946,0.955566,-0.130859,-0.109375
609105412928,0.97998,-0.10498,-0.125488
609105435473,0.962891,-0.115234,-0.136719
609105451920,0.959961,-0.138672,-0.102051
609105472944,0.95752,-0.146484,-0.0878906
609105495454,0.959473,-0.136719,-0.090332
609105511900,0.963867,-0.0922852,-0.108398
609105532944,0.994141,-0.0708008,-0.10791
609105555416,0.96875,-0.0991211,-0.0996094
609105571881,0.955566,-0.114746,-0.0942383
609105594377,0.963379,-0.109375,-0.101562
609105615498,0.967773,-0.12207,-0.104492
609105631888,0.964355,-0.0966797,-0.104004
609105654388,0.978516,-0.0805664,-0.11377
609105675476,0.960938,-0.132812,-0.105957
609105691936,0.955078,-0.12793,-0.105957
609105714413,0.960449,-0.116211,-0.10498
609105735486,0.96875,-0.10498,-0.102539
609105751900,0.967773,-0.0883789,-0.109863
609105781892,0.970703,-0.0732422,-0.11377
609105795461,0.96582,-0.0712891,-0.11084
609105811915,0.968262,-0.0644531,-0.110352
609105834412,0.976074,-0.0668945,-0.111328
609105858334,0.972656,-0.0742188,-0.112305
609105871889,0.970703,-0.0585938,-0.10791
609105894396,0.976562,-0.046875,-0.124512
609105915430,0.970703,-0.0800781,-0.117188
609105931887,0.975098,-0.0654297,-0.106445
609105954398,0.977051,-0.0546875,-0.115723
609105975556,0.964355,-0.0605469,-0.119629
609105991885,0.964355,-0.0537109,-0.114258
609106014363,0.96875,-0.0507812,-0.119141
609106035551,0.96875,-0.065918,-0.112793
609106051948,0.971191,-0.0522461,-0.116211
609106074456,0.968262,-0.0527344,-0.116211
609106095464,0.970215,-0.0478516,-0.109863
609106111932,0.974121,-0.059082,-0.11377
609106134439,0.970215,-0.0571289,-0.114746
609106155480,0.967285,-0.0600586,-0.112305
609106171906,0.96875,-0.0498047,-0.127441
609106194418,0.967773,-0.0581055,-0.114258
609106215461,0.970703,-0.065918,-0.112305
609106231914,0.970215,-0.0649414,-0.109375
609106254413,0.970215,-0.0678711,-0.115234
609106275485,0.969238,-0.0683594,-0.113281
609106291914,0.967285,-0.0527344,-0.113281
609106314391,0.97168,-0.0522461,-0.11377
609106335447,0.96875,-0.0664062,-0.113281
609106351890,0.96875,-0.0634766,-0.11377
609106374389,0.969727,-0.0610352,-0.116211
609106395493,0.96875,-0.0605469,-0.125
609106411142,0.966309,-0.0717773,-0.109863
609106433614,0.96582,-0.0688477,-0.114258
609106456186,0.971191,-0.0527344,-0.112793
609106471111,0.966309,-0.0683594,-0.11084
609106493611,0.973145,-0.0571289,-0.110352
609106516164,0.974609,-0.0527344,-0.11084
609106531085,0.969238,-0.0561523,-0.114258
609106553658,0.970703,-0.0615234,-0.117188
609106576143,0.973145,-0.0595703,-0.113281
609106591178,0.972168,-0.0537109,-0.117188
609106613647,0.971191,-0.0556641,-0.114258
609106636141,0.967773,-0.0605469,-0.118652
609106651328,0.970703,-0.0585938,-0.114746
609106673743,0.96582,-0.0605469,-0.112793
609106696144,0.969238,-0.0595703,-0.114746
609106711245,0.972168,-0.0576172,-0.112305
609106733766,0.964355,-0.0532227,-0.112305
609106756196,0.96875,-0.0556641,-0.11377
609106773090,0.969727,-0.0673828,-0.117676
609106793671,0.966797,-0.0678711,-0.111816
609106816274,0.964355,-0.0595703,-0.111328
609106832657,0.972168,-0.0634766,-0.118164
609106853646,0.96875,-0.0634766,-0.10791
609106876133,0.969727,-0.0625,-0.116211
609106892572,0.96875,-0.0585938,-0.118164
609106913634,0.971191,-0.0546875,-0.111816
609106936180,0.966797,-0.0610352,-0.115723
609106952607,0.966797,-0.0551758,-0.116211
609106973625,0.970703,-0.0585938,-0.116699
609106996137,0.969727,-0.0615234,-0.112793
609107012553,0.969727,-0.0600586,-0.111328
609107033613,0.967285,-0.0610352,-0.112793
609107056115,0.970215,-0.0644531,-0.111328
609107072540,0.972168,-0.0595703,-0.115234
609107093779,0.96875,-0.0634766,-0.117676
609107116166,0.970703,-0.0576172,-0.116699
609107132680,0.972168,-0.0517578,-0.111328
609107153713,0.967285,-0.0712891,-0.117676
609107176178,0.969727,-0.0820312,-0.119141
609107192677,0.966309,-0.0908203,-0.125
609107213723,0.967773,-0.0810547,-0.10791
609107236150,0.969727,-0.0639648,-0.105957
609107252603,0.967285,-0.0595703,-0.0966797
609107273673,0.968262,-0.0449219,-0.111816
609107296124,0.969238,-0.0429688,-0.106445
609107312554,0.969727,-0.0322266,-0.111816
609107333687,0.972168,-0.0356445,-0.114746
609107356160,0.973633,-0.0307617,-0.116211
609107372585,0.97168,-0.0336914,-0.117676
609107393670,0.973633,-0.0424805,-0.119629
609107416177,0.971191,-0.0522461,-0.118164
609107432591,0.970703,-0.0493164,-0.123535
609107453693,0.970703,-0.0664062,-0.112793
609107476175,0.973633,-0.0703125,-0.107422
609107491980,0.966309,-0.0654297,-0.109863
609107513759,0.970215,-0.0600586,-0.113281
609107536220,0.970703,-0.0625,-0.106445
609107552033,0.970215,-0.0551758,-0.116211
609107573735,0.969238,-0.0522461,-0.115723
609107596209,0.973633,-0.0429688,-0.112793
609107612002,0.969727,-0.0449219,-0.109375
609107633770,0.976074,-0.0581055,-0.107422
609107656261,0.967285,-0.0556641,-0.116699
609107671999,0.970215,-0.0527344,-0.117676
609107695109,0.968262,-0.0478516,-0.120605
609107715960,0.974609,-0.0507812,-0.110352
609107731918,0.966309,-0.0556641,-0.108887
609107755160,0.970703,-0.0644531,-0.106445
609107776248,0.969238,-0.0615234,-0.106445
609107791985,0.97168,-0.0678711,-0.104492
609107815111,0.964355,-0.0541992,-0.120605
609107836149,0.974121,-0.0644531,-0.108398
609107851986,0.973633,-0.0766602,-0.102539
609107875186,0.966797,-0.0639648,-0.105957
609107903771,0.966797,-0.0458984,-0.12793
609107912018,0.970703,-0.0483398,-0.125488
609107935148,0.969727,-0.0517578,-0.127441
609107956233,0.974121,-0.0610352,-0.123047
609107971992,0.969727,-0.0527344,-0.131836
609107995137,0.969727,-0.0551758,-0.127441
609108016163,0.970703,-0.0522461,-0.12793
609108031962,0.968262,-0.0449219,-0.131348
609108055112,0.974121,-0.0449219,-0.128418
609108076173,0.970703,-0.0415039,-0.118652
609108091940,0.977539,-0.0249023,-0.116699
609108115089,0.980469,-0.0263672,-0.113281
609108136142,0.970703,-0.0390625,-0.11377
609108151906,0.97168,-0.0224609,-0.120605
609108175167,0.986816,-0.00878906,-0.112793
609108196180,0.98291,-0.0581055,-0.112793
609108211944,0.977051,-0.114746,-0.0976562
609108242676,0.982422,-0.0854492,-0.0883789
609108256227,0.989258,-0.0541992,-0.120117
609108280172,0.984863,-0.0522461,-0.110352
609108294435,1,0,-0.126465
609108316252,0.972656,-0.00292969,-0.142578
609108331990,0.95459,-0.0317383,-0.144531
609108355191,0.958496,-0.0366211,-0.139648
609108376147,0.971191,-0.0205078,-0.11084
609108391910,0.96582,-0.0200195,-0.116699
609108414545,0.974609,-0.0405273,-0.131348
609108436163,0.953125,-0.0834961,-0.0917969
609108451965,0.964355,-0.182129,-0.00292969
609108474458,1.00635,-0.108887,0.0668945
609108496171,0.998047,-0.0512695,0.0610352
609108511962,0.96875,-0.263672,0.0986328
609108534469,0.944336,-0.32666,0.149414
609108556176,0.95166,-0.227051,0.111328
609108571974,0.944824,-0.171387,0.078125
609108594460,0.918457,-0.210938,0.179688
609108617639,0.90918,-0.256836,0.217285
609108632057,0.888672,-0.23877,0.176758
609108654546,0.946777,-0.111328,0.151855
609108677654,1.00049,-0.0898438,0.117188
609108692028,0.932129,-0.135742,0.185547
609108721263,0.890137,-0.155273,0.1875
609108737737,0.915039,-0.174316,0.163574
609108751950,0.986816,-0.174805,0.148438
609108774495,1.0293,-0.301758,0.165527
609108797698,1.0835,-0.486816,0.135254
609108827601,1.18164,-0.5625,0.0332031
609108834439,1.27441,-0.501953,-0.0703125
609108857603,1.06348,-0.780273,-0.145508
609108871930,0.915039,-0.765137,-0.195312
609108894487,0.797363,-0.47168,-0.110352
609108917637,0.584473,-0.799316,-0.213867
609108938793,0.529297,-0.883301,-0.0932617
609108954487,0.741211,-0.560059,-0.0517578
609108977626,0.96875,0.0131836,0.0454102
609108998764,1.07471,0.433105,0.0913086
609109014439,0.95166,0.217285,0.171387
609109037707,0.85498,0.0927734,-0.0668945
609109058713,1.00391,0.185547,0.121094
609109074518,1.12842,0.555664,0.17627
609109097616,1.46338,-0.418457,0.432617
609109118664,1.59668,-0.109375,0.14209
609109134434,1.37549,0.0288086,0.0078125
609109157590,1.0249,-0.267578,0.0371094
609109178683,0.730957,-0.43457,-0.00976562
609109194537,0.592285,-0.435547,-0.0859375
609109217722,0.636719,-0.417969,-0.121094
609109240213,0.867676,-0.422852,-0.0180664
609109254495,1.06934,-0.206543,0.0717773
609109277751,1.16064,-0.0166016,-0.0273438
609109298779,1.00732,-0.175293,0.0273438
609109314506,0.901855,-0.480957,0.131348
609109337736,0.87207,-0.44873,0.0722656
609109358774,0.871094,-0.285156,-0.0830078
609109374474,0.810059,-0.354004,-0.0488281
609109396992,0.784668,-0.435547,0.0229492
609109418667,0.850586,-0.457031,0.0512695
609109434484,0.93457,-0.387207,0.0307617
609109457095,0.899414,-0.352051,0.015625
609109478741,0.847168,-0.369629,0.0175781
609109494537,0.92041,-0.390137,0.12793
609109516986,1.0752,-0.299316,0.131348
609109538833,1.08154,-0.28125,0.104004
609109554599,0.985352,-0.296875,0.0922852
609109577022,0.871094,-0.162598,0.0405273
609109600201,0.807617,-0.190918,0.0537109
609109614523,0.837891,-0.288574,0.0600586
609109636954,0.912598,-0.282227,0.090332
609109659912,0.970215,-0.21875,0.124023
609109674435,1.03955,-0.136719,0.155762
609109697018,1.04883,-0.0766602,0.117188
609109720190,1.03271,-0.17041,0.136719
609109742667,0.979492,-0.205078,0.150879
609109757009,0.954102,-0.131836,0.14209
609109780216,0.955566,-0.120605,0.133301
609109794611,0.932617,-0.115723,0.148926
609109817041,0.960449,-0.207031,0.189941
609109847741,0.973633,-0.311523,0.225586
609109861233,0.988281,-0.178711,0.158203
609109876965,0.98291,-0.137207,0.137695
609109900184,0.949219,-0.081543,0.157227
609109921339,0.935547,-0.0742188,0.138184
609109936991,1.01709,-0.0942383,0.187988
609109960136,0.995605,-0.0981445,0.236328
609109981201,1.01074,-0.123047,0.250977
609109997021,1.04639,-0.111328,0.273926
609110020165,0.950684,0.0585938,0.208008
609110041349,0.791016,0.309082,0.0883789
609110056311,0.584961,0.375488,0.034668
609110070581,0.973145,-0.12207,0.27002
609110093086,1.31934,-0.282227,0.42334
609110116293,1.13965,0.115234,0.29248
609110130697,0.850586,0.0673828,0.202637
609110153076,0.845215,-0.121094,0.190918
609110176257,0.84668,-0.158203,0.190918
609110190628,0.914551,-0.13916,0.142578
609110213106,1.01465,-0.236816,0.175293
609110236297,1.00342,-0.296875,0.17041
609110259500,0.879883,-0.148926,0.0776367
609110273026,0.896484,0.0385742,0.0639648
609110296174,0.964844,0.0512695,0.148438
609110310561,0.972656,-0.0629883,0.15332
609110333692,1.00732,-0.0678711,0.112793
609110356195,1.02832,-0.0649414,0.132812
609110370555,0.914062,-0.138184,0.12207
609110393164,0.862793,-0.149414,0.129395
609110416302,0.992188,-0.132324,0.134277
609110430649,1.04932,-0.167969,0.19873
609110453111,1.00293,-0.14209,0.145996
609110476315,0.913086,-0.174805,0.124023
609110498731,0.932617,-0.186035,0.119141
609110513192,0.959961,-0.210938,0.133301
609110536291,0.940918,-0.188477,0.122559
609110550664,0.969727,-0.134277,0.101074
609110573077,0.911621,-0.318848,0.157227
609110596246,0.97998,-0.268555,0.137207
609110618719,0.973145,-0.221191,0.127441
609110633105,0.949707,-0.268066,0.141113
609110656284,0.93457,-0.195312,0.128418
609110670681,0.945801,-0.174316,0.134277
609110693044,0.952148,-0.191406,0.138672
609110716294,0.950684,-0.175781,0.146973
609110730562,0.983398,-0.180176,0.160645
609110753116,0.989258,-0.081543,0.111816
609110776265,0.961426,-0.211914,0.137695
609110790642,0.928711,-0.220703,0.133789
609110813086,0.951172,-0.230957,0.124023
609110836213,0.92627,-0.251953,0.143066
609110850597,0.924316,-0.273926,0.188965
609110874505,0.964844,-0.174316,0.15918
609110896199,0.976074,-0.171387,0.135254
609110910571,0.934082,-0.243164,0.143066
609110933072,0.913086,-0.232422,0.154297
609110956220,0.928223,-0.206055,0.138184
609110971987,0.938965,-0.192383,0.134766
609110993078,0.958008,-0.163574,0.135742
609111016210,0.966797,-0.189453,0.138184
609111030698,0.951172,-0.190918,0.132324
609111053067,0.936523,-0.248535,0.13916
609111076283,0.919434,-0.239258,0.134277
609111090550,0.931641,-0.214355,0.136719
609111113106,0.959961,-0.185059,0.136719
609111136248,0.950195,-0.215332,0.140137
609111150598,0.950195,-0.189941,0.135742
609111173117,0.944336,-0.180664,0.136719
609111196335,0.954102,-0.201172,0.134277
609111210570,0.944824,-0.193848,0.140625
609111233161,0.949707,-0.194336,0.138672
609111256214,0.947266,-0.197266,0.143555
609111270638,0.960938,-0.166016,0.135742
609111293080,0.95752,-0.201172,0.144531
609111316252,0.946289,-0.199707,0.144531
609111330744,0.94873,-0.170898,0.131836
609111353086,0.963867,-0.162598,0.124023
609111375531,0.956543,-0.166504,0.130371
609111390600,0.948242,-0.156738,0.138672
609111413070,0.95752,-0.170898,0.139648
609111436313,0.952637,-0.185547,0.152344
609111450702,0.96582,-0.172363,0.133301
609111473061,0.960449,-0.211426,0.140137
609111495641,0.95166,-0.197266,0.126953
609111510601,0.952637,-0.193848,0.128906
609111533093,0.989258,-0.169922,0.117188
609111555688,0.956543,-0.209961,0.125
609111571992,0.919922,-0.207031,0.131836
609111593136,0.946289,-0.162109,0.144043
609111615644,0.927734,-0.145508,0.165527
609111630587,0.962402,-0.034668,0.138184
609111653097,1.01465,-0.210449,0.144531
609111675546,0.949707,-0.242676,0.145508
609111690696,0.924316,-0.200195,0.117676
609111713182,0.97998,-0.260254,0.169434
609111735549,0.909668,-0.256348,0.130859
609111750667,0.971191,-0.0717773,0.0932617
609111773151,1.00049,-0.112305,0.119629
609111795647,0.955078,-0.0917969,0.144531
609111810675,0.956055,0.0654297,0.117676
609111833133,0.933105,-0.0478516,0.134766
609111855645,0.988281,-0.166016,0.254883
609111870555,1.01758,-0.078125,0.202637
609111894485,1,0.0253906,0.145508
609111915563,1.0083,-0.0356445,0.180176
609111930580,1.03076,0.0771484,0.179199
609111953082,0.986816,0.0483398,0.149902
609111975647,0.932129,-0.0810547,0.104004
609111990728,0.873047,-0.224121,0.0654297
609112013154,0.837402,-0.262207,0.09375
609112035679,0.888184,-0.199219,0.0825195
609112050692,0.914062,-0.288574,0.135254
609112073169,0.98584,-0.347656,0.151855
609112095717,1.01562,-0.254883,0.148438
609112110676,0.971191,-0.214355,0.137207
609112133084,0.953613,-0.135254,0.0844727
609112155643,0.916992,-0.236816,0.113281
609112170689,0.851074,-0.289551,0.122559
609112193119,0.843262,-0.280273,0.0795898
609112215618,0.94043,-0.289062,0.172363
609112232020,1.11719,-0.230957,0.224609
609112253060,1.04199,-0.17041,0.0786133
609112275593,0.874023,-0.23584,0.0693359
609112292139,0.890137,-0.244141,0.0678711
609112313186,0.941406,-0.260254,0.0893555
609112335646,1.00879,-0.210449,0.0864258
609112352121,0.97998,-0.195801,0.11084
609112373141,0.98877,-0.305664,0.112305
609112395648,0.955566,-0.29541,0.0351562
609112412094,0.961914,-0.284668,0.0170898
609112433156,0.933594,-0.394043,0.0170898
609112455663,0.869629,-0.339844,0.0141602
609112472038,0.963867,-0.0107422,-0.0986328
609112493137,0.918457,-0.131348,-0.0405273
609112515604,0.848145,-0.265137,-0.019043
609112532066,0.85498,-0.205078,-0.0527344
609112553114,0.875,-0.131836,-0.097168
609112575623,0.869629,-0.383789,-0.0654297
609112592022,0.836426,-0.486328,-0.097168
609112613170,0.883301,-0.411621,-0.115234
609112635595,1.12744,-0.192871,0.0375977
609112652013,1.33545,0.0146484,0.109375
609112673147,1.12256,-0.226074,-0.0209961
609112695670,0.871094,-0.494629,-0.11377
609112719634,0.861816,-0.323242,-0.176758
609112733076,0.878906,-0.346191,-0.226074
609112755694,0.742676,-0.285645,-0.187988
609112772131,0.803223,-0.204102,0.0756836
609112793113,0.962402,-0.113281,0.192383
609112815622,1.0874,0.0268555,0.269043
609112832083,1.09668,0.143555,0.0913086
609112853115,0.973633,0.128906,-0.0805664
609112875630,0.88623,0.174805,-0.0830078
609112892016,0.864746,0.172852,-0.143066
609112922711,1.15869,-0.605957,-0.119141
609112935616,1.27393,-0.792969,0.225098
609112952066,0.862305,0.043457,-0.176758
609112973111,0.857422,-0.517578,-0.147949
609112995616,0.914062,-0.494629,-0.0830078
609113019634,0.960449,-0.283203,-0.111816
609113041267,0.932617,-0.257812,-0.0893555
609113055788,0.967285,-0.181641,-0.114258
609113072127,0.944336,-0.269531,-0.104492
609113093180,0.916504,-0.288086,-0.103516
609113115659,0.929688,-0.28418,-0.103027
609113132134,0.944336,-0.27002,-0.0878906
609113153150,0.953613,-0.220215,-0.0981445
609113175731,0.948242,-0.273438,-0.103516
609113192046,0.933105,-0.276367,-0.105469
609113229472,0.921387,-0.281738,-0.102539
609113235714,0.932129,-0.270508,-0.0874023
609113252074,0.950684,-0.257812,-0.117188
609113274679,0.947266,-0.283691,-0.0913086
609113295709,0.930664,-0.305176,-0.0952148
609113312066,0.912598,-0.320312,-0.100586
609113334594,0.927734,-0.270996,-0.10791
609113355661,0.947266,-0.256836,-0.11084
609113373611,0.935059,-0.276855,-0.0947266
609113394562,0.930176,-0.279297,-0.078125
609113415764,0.94873,-0.239258,-0.0893555
609113433569,0.941895,-0.255859,-0.100586
609113454607,0.931641,-0.274902,-0.0878906
609113475603,0.93457,-0.265137,-0.0893555
609113492038,0.947754,-0.22168,-0.102539
609113514564,0.953125,-0.239746,-0.0874023
609113535747,0.933594,-0.281738,-0.0859375
609113552065,0.932617,-0.254883,-0.0947266
609113574633,0.941895,-0.257324,-0.0981445
609113595711,0.947754,-0.262207,-0.101562
609113619678,0.933105,-0.289062,-0.0942383
609113634620,0.930664,-0.27002,-0.0932617
609113655643,0.945312,-0.270996,-0.104004
609113672140,0.934082,-0.286133,-0.10498
609113694656,0.931152,-0.282715,-0.0996094
609113716266,0.93457,-0.275391,-0.0952148
609113731316,0.940918,-0.263672,-0.0917969
609113753850,0.937012,-0.262695,-0.100098
609113776344,0.936523,-0.257324,-0.100586
609113791364,0.937988,-0.268555,-0.0947266
609113813844,0.936035,-0.270996,-0.09375
609113836322,0.939453,-0.273926,-0.0966797
609113866953,0.936523,-0.274902,-0.109375
609113873751,0.931152,-0.274902,-0.108398
609113896397,0.935547,-0.273438,-0.0976562
609113911246,0.931641,-0.281738,-0.09375
609113941417,0.93457,-0.273438,-0.0991211
609113956363,0.941406,-0.265625,-0.105957
609113971359,0.938965,-0.27832,-0.103516
609113993828,0.931152,-0.279297,-0.0996094
609114016314,0.935547,-0.283691,-0.0932617
609114032791,0.936035,-0.281738,-0.0917969
609114053747,0.945801,-0.259766,-0.109863
609114076315,0.934082,-0.277344,-0.102539
609114091318,0.933105,-0.285645,-0.102539
609114113765,0.933105,-0.295898,-0.103516
609114136255,0.935059,-0.277832,-0.108887
609114151289,0.928711,-0.291016,-0.105469
609114173749,0.929688,-0.285645,-0.105469
609114204254,0.930176,-0.286621,-0.0957031
609114214229,0.938965,-0.273926,-0.108398
609114241329,0.932617,-0.28418,-0.104004
609114256292,0.935547,-0.27832,-0.0981445
609114271309,0.934082,-0.279297,-0.100098
609114293807,0.9375,-0.273438,-0.108887
609114317715,0.933594,-0.278809,-0.0986328
609114332738,0.936035,-0.281738,-0.0986328
609114353839,0.929199,-0.287109,-0.09375
609114369571,0.936035,-0.280273,-0.104492
609114392722,0.933594,-0.279297,-0.097168
609114413618,0.935547,-0.276855,-0.101074
609114429633,0.936523,-0.279297,-0.0942383
609114460278,0.931641,-0.285645,-0.101074
609114481302,0.935547,-0.281738,-0.102539
609114489585,0.933105,-0.278809,-0.0991211
609114512734,0.935059,-0.277832,-0.102539
609114534431,0.929199,-0.288086,-0.0981445
609114557737,0.930176,-0.275879,-0.100098
609114572769,0.934082,-0.285156,-0.100098
609114593825,0.937988,-0.283203,-0.100098
609114609607,0.935547,-0.279297,-0.100586
609114632759,0.928711,-0.294922,-0.105469
609114661319,0.927246,-0.288574,-0.0996094
609114669538,0.93457,-0.28125,-0.102539
609114700271,0.937012,-0.272949,-0.110352
609114713825,0.933594,-0.279785,-0.101074
609114729591,0.935059,-0.280273,-0.100586
609114752753,0.936035,-0.27002,-0.100586
609114773803,0.930176,-0.286133,-0.104004
609114797573,0.931152,-0.285156,-0.107422
609114812787,0.933594,-0.289551,-0.105957
609114833834,0.931152,-0.284668,-0.105469
609114849597,0.932129,-0.282227,-0.103516
609114872763,0.936035,-0.276367,-0.104004
609114893808,0.934082,-0.282227,-0.103027
609114909633,0.929688,-0.294434,-0.103516
609114932766,0.927734,-0.292969,-0.104492
609114969297,0.933594,-0.285645,-0.106445
609114977821,0.932129,-0.286621,-0.106445
609114992726,0.929688,-0.291504,-0.0961914
609115013782,0.931641,-0.280273,-0.0996094
609115029635,0.933105,-0.273926,-0.101074
609115052079,0.933105,-0.287598,-0.102051
609115073820,0.935059,-0.287109,-0.107422
609115103761,0.935059,-0.283691,-0.103516
609115112061,0.932129,-0.284668,-0.103516
609115133867,0.931641,-0.287598,-0.102539
609115149645,0.935059,-0.284668,-0.10498
609115172674,0.931641,-0.283203,-0.102539
609115193827,0.935547,-0.277832,-0.104492
609115209704,0.930176,-0.294434,-0.100586
609115232184,0.935547,-0.280273,-0.101562
609115255294,0.929688,-0.285156,-0.108887
609115277806,0.931152,-0.288574,-0.104004
609115292057,0.937988,-0.281738,-0.113281
609115315297,0.935547,-0.282715,-0.103516
609115329611,0.927246,-0.288574,-0.0991211
609115352116,0.927734,-0.289062,-0.108398
609115375235,0.936523,-0.273438,-0.100586
609115389601,0.938965,-0.27832,-0.102051
609115412054,0.930664,-0.288086,-0.104492
609115435217,0.934082,-0.286133,-0.0996094
609115449631,0.934082,-0.285645,-0.105469
609115472177,0.928223,-0.291016,-0.106934
609115495305,0.930664,-0.294434,-0.102051
609115509720,0.930176,-0.29248,-0.0996094
609115532148,0.932617,-0.283203,-0.103516
609115555232,0.933594,-0.292969,-0.103516
609115569708,0.930664,-0.286621,-0.101562
609115592153,0.932617,-0.27832,-0.102539
609115615321,0.932129,-0.280273,-0.104004
609115629595,0.932617,-0.271973,-0.100586
609115652637,0.933105,-0.282715,-0.100586
609115675238,0.933105,-0.283203,-0.108398
609115689561,0.929199,-0.285645,-0.100098
609115712111,0.931152,-0.289551,-0.105957
609115735265,0.933105,-0.288086,-0.10498
609115756316,0.930176,-0.291504,-0.107422
609115772091,0.931641,-0.283203,-0.100586
609115795960,0.932617,-0.282227,-0.101562
609115816279,0.93457,-0.275391,-0.0991211
609115832059,0.93457,-0.282715,-0.107422
609115855365,0.936523,-0.276855,-0.100586
609115876394,0.931152,-0.28125,-0.0981445
609115892173,0.929199,-0.291992,-0.103516
609115915264,0.934082,-0.292969,-0.10498
609115936393,0.931152,-0.294434,-0.101074
609115952183,0.931152,-0.291992,-0.105957
609115975241,0.928711,-0.285156,-0.103027
609115996390,0.935547,-0.280273,-0.100098
609116012207,0.93457,-0.285645,-0.100586
609116034605,0.939941,-0.275879,-0.112305
609116056322,0.931641,-0.305664,-0.110352
609116072108,0.923828,-0.300781,-0.109863
609116102793,0.929688,-0.286133,-0.0991211
609116116285,0.931641,-0.282227,-0.101562
609116132143,0.930664,-0.282227,-0.097168
609116154629,0.933105,-0.279785,-0.0986328
609116176283,0.93457,-0.278809,-0.0957031
609116192141,0.930664,-0.28125,-0.0981445
609116214699,0.93457,-0.291504,-0.0991211
609116245243,0.932129,-0.287598,-0.103516
609116252166,0.936523,-0.287109,-0.104492
609116274650,0.931152,-0.28418,-0.0991211
609116298262,0.931152,-0.288086,-0.103516
609116312179,0.930664,-0.286621,-0.110352
609116334671,0.932617,-0.283691,-0.103516
609116357532,0.9375,-0.290527,-0.0966797
609116372111,0.933105,-0.28418,-0.101074
609116401355,0.927734,-0.293945,-0.0966797
609116417779,0.933594,-0.283203,-0.104004
609116432141,0.93457,-0.280273,-0.102051
609116454670,0.931152,-0.286621,-0.102539
609116485289,0.932129,-0.288574,-0.0976562
609116492157,0.933594,-0.276855,-0.0981445
609116514736,0.935059,-0.28418,-0.104492
609116537847,0.931152,-0.291504,-0.104004
609116552144,0.932129,-0.282227,-0.0996094
609116574677,0.935059,-0.285156,-0.101074
609116605289,0.935059,-0.28418,-0.0961914
609116612099,0.933105,-0.285645,-0.103027
609116634642,0.934082,-0.277344,-0.0996094
609116657789,0.932617,-0.293457,-0.0976562
609116672115,0.929688,-0.285645,-0.104492
609116694683,0.933105,-0.281738,-0.108887
609116717818,0.932129,-0.282227,-0.097168
609116738892,0.939941,-0.285156,-0.100586
609116762846,0.930664,-0.288574,-0.0991211
609116777819,0.932617,-0.280762,-0.101074
609116798835,0.930664,-0.290039,-0.102539
609116814665,0.935547,-0.283691,-0.0961914
609116845316,0.932617,-0.287109,-0.103516
609116858855,0.939941,-0.278809,-0.0986328
609116874639,0.927734,-0.297363,-0.103516
609116898201,0.928711,-0.285156,-0.110352
609116918861,0.933594,-0.28125,-0.0947266
609116935087,0.931152,-0.282715,-0.104492
609116957212,0.933105,-0.28418,-0.0991211
609116978913,0.932617,-0.287598,-0.106934
609116994622,0.928711,-0.286621,-0.102051
609117017117,0.933594,-0.283203,-0.101562
609117038837,0.931641,-0.286621,-0.105469
609117054628,0.93457,-0.282715,-0.0986328
609117077120,0.930664,-0.286621,-0.100586
609117098842,0.933105,-0.287598,-0.0986328
609117115114,0.930176,-0.288086,-0.102051
609117137111,0.933105,-0.280273,-0.104004
609117160319,0.937012,-0.286621,-0.103027
609117174648,0.932617,-0.273438,-0.10498
609117197185,0.933105,-0.288574,-0.097168
609117220297,0.933594,-0.280273,-0.10498
609117234642,0.937012,-0.282227,-0.102539
609117257108,0.931152,-0.288086,-0.097168
609117280267,0.930176,-0.290527,-0.103516
609117294660,0.932617,-0.293457,-0.101074
609117325766,0.930176,-0.28418,-0.103027
609117340269,0.935547,-0.28418,-0.102051
609117353820,0.931152,-0.284668,-0.102539
609117368167,0.933594,-0.275879,-0.104004
609117390698,0.930664,-0.280762,-0.104492
609117422051,0.931152,-0.287109,-0.0981445
609117428198,0.933594,-0.290039,-0.102051
609117459490,0.928711,-0.287598,-0.105957
609117473978,0.934082,-0.287109,-0.0991211
609117488180,0.934082,-0.288086,-0.103027
609117510687,0.931152,-0.286621,-0.102539
609117533833,0.933105,-0.28418,-0.105957
609117548156,0.928711,-0.288574,-0.103516
609117570723,0.936523,-0.285156,-0.100586
609117594252,0.930664,-0.284668,-0.10498
609117608184,0.931152,-0.287598,-0.104492
609117630705,0.932129,-0.285645,-0.100098
609117661998,0.932129,-0.285645,-0.102539
609117668196,0.932617,-0.289062,-0.100098
609117690681,0.932129,-0.285645,-0.0976562
609117713844,0.929199,-0.287109,-0.0966797
609117728199,0.931641,-0.283203,-0.0981445
609117750735,0.930664,-0.287109,-0.102539
609117773933,0.935547,-0.284668,-0.097168
609117788205,0.931152,-0.286621,-0.102051
609117810721,0.936523,-0.282227,-0.101074
609117833920,0.934082,-0.286133,-0.097168
609117848212,0.929688,-0.290527,-0.101074
609117872161,0.934082,-0.285645,-0.105469
609117893920,0.931641,-0.285645,-0.0996094
609117908256,0.930176,-0.28418,-0.100098
609117930665,0.935059,-0.28418,-0.0996094
609117953949,0.93457,-0.282227,-0.100586
609117968238,0.931152,-0.28125,-0.103027
609117990744,0.933105,-0.282715,-0.101562
609118013968,0.931641,-0.290039,-0.104492
609118036386,0.933594,-0.285645,-0.102539
609118050721,0.931641,-0.286133,-0.106934
609118073933,0.932617,-0.284668,-0.106445
609118088205,0.92627,-0.293945,-0.106934
609118110720,0.93457,-0.282715,-0.100586
609118133185,0.932617,-0.290039,-0.103027
609118151080,0.932129,-0.278809,-0.102539
609118170702,0.931641,-0.285156,-0.10498
609118193216,0.933594,-0.285156,-0.103516
609118208206,0.936035,-0.286621,-0.105469
609118230735,0.934082,-0.285645,-0.102539
609118253238,0.937012,-0.283691,-0.100098
609118268191,0.936523,-0.283691,-0.105469
609118290712,0.931152,-0.287109,-0.103027
609118313204,0.935059,-0.285645,-0.0981445
609118328216,0.932617,-0.290039,-0.10498
609118350704,0.936035,-0.28125,-0.100586
609118373260,0.931152,-0.290527,-0.104004
609118388220,0.933105,-0.285156,-0.100586
609118410738,0.930176,-0.284668,-0.105957
609118433222,0.932129,-0.282227,-0.104004
609118448256,0.932129,-0.288086,-0.103516
609118470713,0.930664,-0.287109,-0.104492
609118493223,0.927734,-0.289551,-0.102539
609118508274,0.930176,-0.289062,-0.0981445
609118530697,0.932617,-0.278809,-0.100098
609118554668,0.932129,-0.290039,-0.107422
609118568226,0.929199,-0.283691,-0.102539
609118590697,0.932129,-0.287598,-0.0976562
609118613252,0.926758,-0.289062,-0.0947266
609118628211,0.936523,-0.282715,-0.0966797
609118650701,0.930176,-0.285156,-0.0981445
609118673254,0.932129,-0.286133,-0.102051
609118688218,0.935547,-0.280273,-0.103027
609118710738,0.9375,-0.285156,-0.101074
609118733250,0.928711,-0.294922,-0.104004
609118748234,0.927734,-0.289062,-0.104492
609118772171,0.937988,-0.287109,-0.100586
609118793276,0.929688,-0.288086,-0.105957
609118809708,0.931641,-0.290527,-0.102539
609118830748,0.931152,-0.279785,-0.105469
609118861409,0.931152,-0.28125,-0.107422
609118869650,0.931152,-0.280273,-0.0986328
609118892194,0.931641,-0.286621,-0.106934
609118913284,0.930176,-0.283691,-0.103027
609118929669,0.929688,-0.292969,-0.103027
609118950724,0.927734,-0.290039,-0.104004
609118981367,0.935547,-0.292969,-0.101562
609118989677,0.930176,-0.292969,-0.102051
609119010737,0.929199,-0.285645,-0.101074
609119033265,0.938965,-0.279785,-0.105957
609119049653,0.935059,-0.28125,-0.102051
609119070732,0.931641,-0.287598,-0.103027
609119093272,0.932617,-0.288574,-0.105469
609119109636,0.933594,-0.28418,-0.103027
609119130672,0.937012,-0.282715,-0.102051
609119153221,0.93457,-0.295898,-0.0996094
609119169666,0.927246,-0.290039,-0.102051
609119190713,0.931152,-0.285645,-0.106934
609119213267,0.930664,-0.281738,-0.0986328
609119229665,0.936035,-0.282715,-0.0996094
609119250713,0.937988,-0.282715,-0.10498
609119273270,0.92627,-0.28418,-0.104004
609119289692,0.93457,-0.281738,-0.106934
609119310752,0.932617,-0.290039,-0.101562
609119333297,0.930664,-0.284668,-0.0961914
609119349647,0.9375,-0.292969,-0.10498
609119373603,0.932617,-0.280273,-0.10498
609119401453,0.929199,-0.294922,-0.104492
609119409687,0.927734,-0.28418,-0.105957
609119430751,0.933105,-0.285156,-0.105957
609119453277,0.935059,-0.283203,-0.0996094
609119471183,0.933594,-0.287109,-0.0996094
609119490768,0.932617,-0.281738,-0.104492
609119513363,0.932129,-0.286133,-0.107422
609119529702,0.929199,-0.289551,-0.102539
609119550775,0.933594,-0.288086,-0.100586
609119574710,0.936523,-0.282227,-0.102539
609119589669,0.932129,-0.286621,-0.102051
609119610698,0.928223,-0.287598,-0.0991211
609119633289,0.929688,-0.283691,-0.104004
609119649771,0.93457,-0.283691,-0.102539
609119670778,0.933105,-0.289551,-0.101562
609119693237,0.931641,-0.283203,-0.102539
609119709744,0.929688,-0.283203,-0.10498
609119730755,0.93457,-0.286621,-0.0991211
609119753297,0.932129,-0.288574,-0.101562
609119769734,0.934082,-0.28125,-0.10498
609119792242,0.935547,-0.287109,-0.100098
609119813315,0.930176,-0.290039,-0.103027
609119829653,0.928711,-0.289551,-0.100586
609119852333,0.933105,-0.286133,-0.102051
609119873344,0.929688,-0.291992,-0.102051
609119891288,0.934082,-0.280273,-0.104492
609119912255,0.931641,-0.284668,-0.103516
609119933380,0.932617,-0.28418,-0.10498
609119949691,0.929199,-0.282715,-0.100098
609119972218,0.931641,-0.285156,-0.104492
609119993310,0.930176,-0.286621,-0.100586
609120009750,0.933105,-0.282227,-0.101562
609120032211,0.935059,-0.28418,-0.107422
609120053236,0.930176,-0.286133,-0.0966797
609120069743,0.935059,-0.284668,-0.101074
609120094193,0.930664,-0.285645,-0.102539
609120113333,0.9375,-0.282715,-0.105957
609120129704,0.935547,-0.289062,-0.102051
609120152289,0.933105,-0.284668,-0.108398
609120173333,0.928711,-0.286133,-0.102539
609120189705,0.928711,-0.293457,-0.0981445
609120212169,0.936035,-0.28125,-0.105469
609120233381,0.933105,-0.286621,-0.103027
609120249693,0.930664,-0.286133,-0.107422
609120272322,0.924805,-0.297363,-0.105469
609120293337,0.929688,-0.287598,-0.0996094
609120309707,0.939941,-0.285156,-0.103516
609120332219,0.932617,-0.282715,-0.105469
609120353369,0.936035,-0.28418,-0.105957
609120371223,0.931152,-0.29248,-0.10498
609120393707,0.935059,-0.282715,-0.110352
609120413275,0.931152,-0.293457,-0.105469
609120429686,0.933105,-0.290527,-0.103516
609120452311,0.927246,-0.291504,-0.105957
609120473427,0.929199,-0.284668,-0.10498
609120489714,0.936523,-0.285645,-0.104004
609120512230,0.931641,-0.283691,-0.100098
609120533238,0.930176,-0.286621,-0.104492
609120549714,0.928711,-0.286133,-0.110352
609120573583,0.932617,-0.286621,-0.102051
609120593295,0.937012,-0.285645,-0.0991211
609120609706,0.924805,-0.287598,-0.101562
609120632219,0.939453,-0.282227,-0.103516
609120653284,0.932129,-0.291016,-0.101074
609120669709,0.927246,-0.286133,-0.104004
609120693698,0.928711,-0.290527,-0.105469
609120713318,0.933594,-0.281738,-0.109863
609120729743,0.930664,-0.291016,-0.103027
609120752185,0.928223,-0.287109,-0.105957
609120774736,0.93457,-0.286621,-0.0991211
609120789742,0.935547,-0.28418,-0.105469
609120812192,0.933594,-0.289551,-0.0996094
609120834745,0.931152,-0.285156,-0.100586
609120849686,0.935059,-0.290039,-0.104004
609120872241,0.93457,-0.283203,-0.0996094
609120894788,0.937988,-0.291992,-0.105957
609120911238,0.933105,-0.282227,-0.109375
609120939747,0.932129,-0.289062,-0.0996094
609120954740,0.933105,-0.285156,-0.104004
609120971217,0.932129,-0.291992,-0.103516
609120992201,0.931641,-0.287109,-0.101074
609121013943,0.932617,-0.287598,-0.102051
609121029724,0.932129,-0.288086,-0.105469
609121051458,0.931152,-0.291504,-0.10791
609121073962,0.930664,-0.282715,-0.101562
609121090382,0.933594,-0.286621,-0.104004
609121111455,0.931641,-0.290039,-0.104004
609121134003,0.933105,-0.28418,-0.108887
609121150456,0.931641,-0.289551,-0.0996094
609121171528,0.929688,-0.279297,-0.0976562
609121201521,0.929688,-0.273438,-0.101074
609121210482,0.932617,-0.294434,-0.0917969
609121231543,0.925781,-0.280762,-0.0859375
609121254012,0.928223,-0.279785,-0.100098
609121270459,0.935059,-0.272461,-0.106934
609121291551,0.947266,-0.267578,-0.10498
609121314047,0.935547,-0.277344,-0.110352
609121330400,0.932617,-0.288086,-0.120117
609121351453,0.936523,-0.289062,-0.115234
609121373942,0.914551,-0.24707,-0.132324
609121390365,0.914062,-0.313477,-0.104492
609121411940,0.947266,-0.260254,-0.128418
609121433998,0.940918,-0.292969,-0.118164
609121450453,0.920898,-0.306152,-0.114746
609121471490,0.939941,-0.321777,-0.106445
609121493958,0.9375,-0.313965,-0.109863
609121526117,0.943359,-0.293457,-0.114258
609121531526,0.934082,-0.311035,-0.101074
609121553999,0.927246,-0.302246,-0.100098
609121570517,0.931152,-0.30127,-0.0932617
609121591520,0.935059,-0.285645,-0.0908203
609121621491,0.931641,-0.294434,-0.101562
609121630401,0.928223,-0.291504,-0.0883789
609121651448,0.937012,-0.276367,-0.0771484
609121673918,0.924805,-0.280273,-0.0786133
609121697893,0.941406,-0.250977,-0.0800781
609121711465,0.936035,-0.269043,-0.0766602
609121735365,0.942871,-0.248047,-0.0732422
609121749706,0.946777,-0.26416,-0.0698242
609121771400,0.935547,-0.27832,-0.0727539
609121793962,0.930664,-0.26123,-0.0712891
609121810169,0.942383,-0.256836,-0.0737305
609121835017,0.939453,-0.291016,-0.0664062
609121853950,0.927246,-0.29248,-0.0722656
609121869729,0.933594,-0.275879,-0.0727539
609121892934,0.949219,-0.250488,-0.0561523
609121914025,0.972168,-0.243652,-0.0263672
609121929789,0.993652,-0.269531,-0.00341797
609121952937,0.979492,-0.29541,-0.0727539
609121974090,0.965332,-0.242188,-0.166992
609121989787,0.896973,-0.353027,-0.0952148
609122012921,0.94873,-0.283203,-0.0786133
609122050358,0.959961,-0.285156,-0.0761719
609122052741,0.984375,-0.262207,-0.0683594
609122072890,0.998047,-0.317383,-0.0478516
609122093940,0.982422,-0.323242,-0.0859375
609122109690,0.963379,-0.320312,-0.0883789
609122132927,0.916016,-0.339844,-0.0917969
609122153965,0.920898,-0.307617,-0.0878906
609122169740,0.941406,-0.320312,-0.0703125
609122192889,0.933105,-0.337891,-0.0668945
609122213976,0.887695,-0.411133,-0.0458984
609122229704,0.935547,-0.325684,-0.00195312
609122252936,1.0127,-0.32959,-0.015625
609122274062,0.992676,-0.191406,-0.0966797
609122289749,0.946777,-0.135254,-0.123047
609122312938,0.929688,-0.148926,-0.108887
609122334014,0.909668,-0.208984,-0.108887
609122349771,0.865723,-0.268555,-0.148926
609122372949,0.796875,-0.400879,-0.113281
609122394062,0.831543,-0.385254,-0.112793
609122409742,0.908691,-0.409668,-0.120605
609122440484,0.950684,-0.390625,-0.120605
609122454015,0.969727,-0.322266,-0.124512
609122469793,0.986328,-0.245117,-0.101562
609122492941,1.01562,-0.279297,-0.0957031
609122514127,1.05127,-0.322754,-0.0703125
609122529818,1.10303,-0.350098,-0.0371094
609122552962,1.06592,-0.406738,-0.0151367
609122573970,1.0127,-0.379883,-0.0175781
609122589736,0.90332,-0.306641,-0.0336914
609122612888,0.816895,-0.249023,-0.0810547
609122633943,0.801758,-0.250977,-0.143066
609122649725,0.794922,-0.269043,-0.445312
609122672269,0.742676,-0.480469,-0.84375
609122693992,0.88916,-0.522949,-0.62793
609122709775,0.913086,-0.233887,-0.41748
609122732259,0.958008,-0.261719,-0.398438
609122753969,0.98291,-0.354004,-0.158203
609122769772,1.00098,-0.282227,-0.0244141
609122792292,0.95166,-0.214844,-0.100098
609122814048,0.912109,-0.180176,-0.125
609122829748,0.885254,-0.241699,-0.127441
609122852296,0.833008,-0.285156,-0.145508
609122875505,0.827148,-0.124512,-0.125
609122889737,0.83252,-0.13916,-0.177734
609122912220,0.813965,-0.285156,-0.213379
609122935537,0.824219,-0.353516,-0.201172
609122949775,0.833984,-0.358887,-0.279297
609122972279,0.827148,-0.336426,-0.313965
609122995381,0.805664,-0.344238,-0.348633
609123009750,0.822266,-0.353027,-0.311523
609123032205,0.861328,-0.350586,-0.334961
609123055439,0.873535,-0.370117,-0.375977
609123069768,0.915527,-0.240234,-0.364746
609123092259,0.898926,-0.1875,-0.361816
609123115422,0.917969,-0.225586,-0.363281
609123136472,0.949219,-0.30127,-0.262207
609123152248,0.904785,-0.3125,-0.231934
609123175388,0.990234,-0.147949,-0.306641
609123196527,0.724121,-0.567871,-0.119629
609123212264,0.995605,-0.206055,-0.289551
609123235463,0.967285,-0.393555,-0.252441
609123256553,1.00488,-0.461914,-0.176758
609123272330,1.04785,-0.444336,-0.201172
609123303497,0.974121,-0.425293,-0.253906
609123309826,0.957031,-0.311035,-0.161621
609123332780,0.916016,-0.196777,-0.0913086
609123355516,0.874023,-0.162598,-0.0898438
609123376477,0.893066,-0.263184,-0.0703125
609123392236,0.981445,-0.282227,-0.105469
609123415388,1.00244,-0.25,-0.169922
609123436536,1.0498,-0.195801,-0.166504
609123452258,1.05225,-0.119141,-0.134766
609123475444,1.03467,-0.0854492,-0.135254
609123496456,1.02051,-0.100098,-0.115234
609123512235,1.02637,-0.0810547,-0.164551
609123535390,1.02246,-0.0664062,-0.179688
609123556298,0.921387,0.0161133,-0.310547
609123573768,0.804199,0.0429688,-0.309082
609123594806,0.807129,-0.0371094,-0.126953
609123616587,0.961914,-0.143555,0.0078125
609123632322,1.01904,-0.186035,0.0874023
609123654819,1.09961,-0.190918,-0.153809
609123676506,1.14111,-0.16748,-0.172363
609123692354,1.11719,-0.223145,-0.0693359
609123714819,0.966797,-0.194336,-0.119629
609123736560,0.934082,-0.200684,-0.197754
609123752288,0.910156,-0.176758,-0.210449
609123774827,0.939941,-0.215332,-0.279785
609123797936,0.932129,-0.292969,-0.488281
609123812258,0.883789,-0.475098,-0.642578
609123834759,1.1626,-0.336426,-0.299316
609123857911,1.10254,-0.0664062,-0.236328
609123880437,0.999512,-0.320801,-0.0556641
609123894761,0.939453,-0.189941,-0.046875
609123917946,0.78418,-0.434082,0.00537109
609123932270,0.925781,-0.090332,0.012207
609123954767,0.878418,-0.0268555,-0.120605
609123977965,0.830566,0.0703125,-0.407227
609123992390,0.877441,0.143555,-0.490723
609124014828,0.885254,-0.065918,-0.342285
609124037943,0.896484,-0.0722656,-0.302246
609124059002,0.887207,-0.0444336,-0.257812
609124074801,0.900391,-0.078125,-0.246582
609124097959,0.914062,-0.177734,-0.252441
609124119032,0.952148,-0.189453,-0.161621
609124134787,0.890137,-0.206055,-0.13916
609124157938,0.769531,-0.242676,-0.0732422
609124178980,0.800781,-0.205566,-0.0776367
609124194772,0.773438,-0.269531,-0.119141
609124217914,0.794922,-0.203613,-0.268066
609124238985,0.773926,-0.231934,-0.46582
609124254813,0.75293,-0.229492,-0.743652
609124277954,0.925781,-0.446777,-1.58398
609124299043,1.47559,-1.20459,-2.06982
609124322908,0.916504,0.240723,0.03125
609124338023,0.967285,-0.20752,0.0649414
609124359113,0.613281,-0.444336,-0.324707
609124375366,0.733887,-0.218262,-0.473145
609124397992,0.977051,-0.0976562,-0.286621
609124419076,1.1665,-0.183105,-0.237793
609124434816,1.02783,-0.183105,-0.239258
609124457977,0.873047,-0.204102,-0.243164
609124478788,0.856445,-0.269043,-0.25
609124494768,0.927246,-0.22998,-0.229492
609124518019,0.940918,-0.183105,-0.223145
609124539050,0.931152,-0.165527,-0.249023
609124554832,0.928223,-0.174316,-0.269531
609124577393,0.922852,-0.239746,-0.245605
609124599070,0.924805,-0.223633,-0.25
609124614811,0.915527,-0.205078,-0.261719
609124637306,0.92041,-0.228027,-0.25293
609124658955,0.926758,-0.214844,-0.236816
609124674017,0.927734,-0.228027,-0.234375
609124688301,0.91748,-0.223145,-0.244141
609124710827,0.92627,-0.221191,-0.232422
609124733995,0.930664,-0.21582,-0.234863
609124748357,0.925293,-0.225098,-0.230957
609124770859,0.927734,-0.20752,-0.242188
609124793992,0.917969,-0.225098,-0.249023
609124808398,0.92041,-0.234863,-0.23584
609124830986,0.933105,-0.21582,-0.233398
609124854061,0.919922,-0.217773,-0.248047
609124868360,0.921875,-0.231934,-0.242188
609124899780,0.925293,-0.226562,-0.244629
609124914076,0.92334,-0.223145,-0.236816
609124928340,0.915039,-0.237305,-0.241699
609124951022,0.915039,-0.241211,-0.247559
609124974100,0.925293,-0.234375,-0.242676
609124988392,0.921387,-0.22168,-0.246582
609125010818,0.924316,-0.230469,-0.239258
609125034018,0.935547,-0.229492,-0.225098
609125048412,0.925293,-0.23291,-0.23584
609125070905,0.919434,-0.227051,-0.248535
609125094067,0.918945,-0.236816,-0.244141
609125108476,0.918457,-0.237305,-0.242676
609125130906,0.929199,-0.220703,-0.23877
609125154125,0.924316,-0.225586,-0.245117
609125168362,0.921387,-0.226562,-0.244629
609125190965,0.922363,-0.22998,-0.242188
609125214487,0.918945,-0.225586,-0.235352
609125228362,0.92041,-0.219727,-0.244141
609125250858,0.928223,-0.226562,-0.232422
609125274000,0.92627,-0.224121,-0.242188
609125288338,0.919922,-0.22998,-0.239746
609125310908,0.922363,-0.225586,-0.242676
609125333784,0.933105,-0.222656,-0.237793
609125348393,0.947754,-0.220703,-0.253418
609125370924,0.951172,-0.219238,-0.275879
609125394067,0.960449,-0.177246,-0.3125
609125408487,0.968262,-0.190918,-0.315918
609125430874,0.982422,-0.244629,-0.310547
609125454141,0.972168,-0.168457,-0.521484
609125468436,1.02197,-0.0454102,-0.580078
609125490928,0.975098,-0.0537109,-0.535645
609125514098,0.949219,-0.0673828,-0.48291
609125528431,0.897949,-0.0678711,-0.402344
609125551032,0.861328,-0.0693359,-0.288086
609125574104,0.805664,-0.0771484,-0.219238
609125588421,0.788574,-0.0576172,-0.157715
609125610847,0.776367,-0.104004,-0.0932617
609125634092,0.773438,-0.100098,-0.09375
609125648445,0.772461,-0.108887,-0.115723
609125670946,0.802734,-0.101562,-0.154297
609125693414,0.839844,-0.113281,-0.206055
609125708310,0.854004,-0.110352,-0.224609
609125730928,0.782227,-0.0800781,-0.4375
609125762180,0.99707,-0.255859,-0.44043
609125768404,1.20312,-0.949219,-0.517578
609125790992,1.31543,-0.135254,-0.331543
609125813419,1.07373,0.0664062,-0.223145
609125828883,0.844238,-0.0166016,-0.290527
609125850959,0.729492,-0.0791016,-0.429199
609125873468,0.907715,-0.00732422,-0.470215
609125888376,1.0249,-0.0991211,-0.242676
609125910964,0.977051,-0.101562,-0.283691
609125933398,0.85791,0.0175781,-0.441406
609125948472,0.918945,-0.0117188,-0.411133
609125970990,0.933105,-0.0498047,-0.396484
609125993476,0.916992,0.0297852,-0.437012
609126008378,0.910645,0.0444336,-0.438477
609126030934,0.894531,0.0107422,-0.442383
609126053343,0.907715,0.0517578,-0.456055
609126068367,0.925293,-0.0375977,-0.402832
609126090917,0.945801,-0.0214844,-0.402344
609126113389,0.915527,-0.102051,-0.385254
609126128375,0.915039,-0.0473633,-0.436035
609126150933,0.912598,0.0703125,-0.488281
609126173372,0.879883,-0.0561523,-0.419434
609126188489,0.934082,-0.0419922,-0.411133
609126210950,0.895996,-0.0449219,-0.405762
609126233451,0.930176,-0.059082,-0.378906
609126248477,0.92627,-0.0605469,-0.381348
609126270937,0.914551,-0.0981445,-0.369141
609126293377,0.893066,-0.0756836,-0.357422
609126308373,0.924805,-0.09375,-0.339844
609126331006,0.95459,-0.106445,-0.306641
609126353406,0.919922,-0.144043,-0.304199
609126368505,0.938477,-0.180176,-0.260254
609126391053,0.905762,-0.156738,-0.316406
609126413477,0.921875,-0.0776367,-0.311035
609126429950,0.933105,-0.135254,-0.26123
609126450991,0.897949,-0.151855,-0.263672
609126473411,0.885254,-0.10498,-0.302734
609126489941,0.879395,-0.124512,-0.293945
609126510898,0.937988,-0.188965,-0.263672
609126533409,0.935059,-0.158203,-0.239258
609126549982,0.918945,-0.0742188,-0.253418
609126571003,0.916992,-0.13623,-0.242188
609126593450,0.931152,-0.118652,-0.278809
609126609920,0.959961,-0.109375,-0.258301
609126639121,0.930664,-0.204102,-0.20752
609126653468,0.945801,-0.258789,-0.208496
609126669938,0.924316,-0.186035,-0.241211
609126691005,0.873047,-0.17627,-0.259277
609126713487,0.868164,-0.212402,-0.218262
609126729865,0.918457,-0.114258,-0.299805
609126750980,0.95459,-0.0629883,-0.287109
609126773423,0.979004,-0.156738,-0.289062
609126789981,0.98291,-0.0756836,-0.322266
609126810958,0.948242,-0.164551,-0.34375
609126833345,0.959473,-0.0849609,-0.32959
609126849957,0.968262,-0.132324,-0.271484
609126870975,0.962891,-0.167969,-0.236816
609126893442,0.941406,-0.138672,-0.231934
609126909942,0.935059,-0.186035,-0.186035
609126931018,0.910645,-0.125488,-0.224121
609126953524,0.911133,-0.19873,-0.167969
609126969983,0.932129,-0.143555,-0.171875
609126991001,0.936035,-0.203613,-0.178711
609127013488,0.929199,-0.196289,-0.196777
609127029942,0.929688,-0.208496,-0.158203
609127052348,0.902832,-0.165039,-0.211426
609127073421,0.916992,-0.204102,-0.164551
609127089909,0.983887,-0.175781,-0.134277
609127110912,0.990723,-0.211426,-0.129883
609127133463,0.94873,-0.15332,-0.199707
609127151391,0.944336,-0.190918,-0.186523
609127171035,0.949707,-0.192871,-0.172363
609127193424,0.947266,-0.15918,-0.187012
609127209913,0.951172,-0.168945,-0.189941
609127230977,0.950195,-0.178223,-0.166992
609127253467,0.919922,-0.158203,-0.20166
609127269936,0.944336,-0.180176,-0.138184
609127291046,0.946777,-0.17334,-0.0698242
609127313508,0.976562,-0.242676,-0.118164
609127329981,0.950684,-0.166992,-0.202148
609127350977,0.962402,-0.152344,-0.196777
609127373509,0.961426,-0.159668,-0.181152
609127389978,0.958008,-0.157227,-0.170898
609127412408,0.954102,-0.205078,-0.156738
609127433416,0.945801,-0.187988,-0.201172
609127449888,0.924805,-0.141602,-0.221191
609127472388,0.960449,-0.152344,-0.172852
609127494894,0.959961,-0.182617,-0.137695
609127509948,0.935547,-0.196289,-0.148438
609127532420,0.943359,-0.179199,-0.174316
609127553542,0.949219,-0.170898,-0.16748
609127569972,0.955566,-0.185547,-0.132324
609127592403,0.908691,-0.220215,-0.149902
609127613472,0.961914,-0.129395,-0.179199
609127629934,0.96875,-0.162598,-0.165039
609127652429,0.950195,-0.195801,-0.163086
609127673466,0.946289,-0.18457,-0.162598
609127689943,0.966797,-0.180176,-0.149902
609127712446,0.952148,-0.17334,-0.17041
609127733480,0.946777,-0.15332,-0.172852
609127749937,0.962891,-0.177734,-0.152344
609127772399,0.943848,-0.200684,-0.142578
609127793448,0.941895,-0.185547,-0.158203
609127809940,0.938965,-0.192383,-0.137207
609127832431,0.952148,-0.171875,-0.140625
609127853453,0.950684,-0.183105,-0.139648
609127869980,0.945312,-0.18457,-0.14502
609127892382,0.950195,-0.186523,-0.152344
609127914933,0.962891,-0.166016,-0.139648
609127929969,0.966309,-0.163086,-0.16748
609127952458,0.956055,-0.15332,-0.164062
609127976409,0.949707,-0.172852,-0.141602
609127989891,0.956055,-0.174805,-0.138672
609128012989,0.943848,-0.171875,-0.130371
609128033465,0.972656,-0.155273,-0.0874023
609128049925,0.947266,-0.148926,-0.149902
609128073845,0.979004,-0.129395,-0.150879
609128093434,0.962402,-0.125977,-0.156738
609128109935,0.949219,-0.141602,-0.135254
609128132430,0.933105,-0.171875,-0.144043
609128153408,0.941406,-0.17627,-0.130371
609128177435,0.934082,-0.16748,-0.148926
609128192432,0.935547,-0.146484,-0.144531
609128213472,0.952148,-0.145996,-0.125
609128229902,0.95752,-0.147461,-0.125977
609128252449,0.96875,-0.177734,-0.116699
609128273424,0.955566,-0.162598,-0.144043
609128291406,0.948242,-0.188965,-0.160156
609128312436,0.952148,-0.159668,-0.162598
609128334140,0.922363,-0.170898,-0.148438
609128349168,0.932129,-0.189941,-0.139648
609128371675,0.944824,-0.174316,-0.15918
609128394137,0.954102,-0.147949,-0.185547
609128409032,0.927246,-0.127441,-0.212402
609128431625,0.987305,-0.148438,-0.200195
609128454083,0.965332,-0.116699,-0.205078
609128469083,0.958008,-0.168457,-0.211914
609128491598,0.944336,-0.0771484,-0.253906
609128514093,0.94873,-0.199219,-0.205566
609128530519,0.907227,-0.306152,-0.163574
609128551584,0.932129,-0.280762,-0.152344
609128574091,0.980469,-0.292969,-0.0908203
609128590597,0.984375,-0.29248,-0.143066
609128611704,0.978027,-0.243164,-0.216797
609128634203,0.943359,-0.255859,-0.220703
609128650617,0.925781,-0.28418,-0.193359
609128671636,0.942383,-0.279785,-0.139648
609128694176,0.951172,-0.335938,-0.153809
609128710656,0.94043,-0.246582,-0.231934
609128731699,0.955078,-0.242676,-0.249023
609128754229,0.933594,-0.229004,-0.223633
609128770727,0.944824,-0.176758,-0.270996
609128791664,0.951172,-0.23584,-0.266113
609128814152,0.88623,-0.321289,-0.283203
609128836674,0.864258,-0.257812,-0.349609
609128851716,0.867188,-0.158203,-0.358887
609128874092,0.879395,-0.141113,-0.359863
609128890498,0.890137,-0.140625,-0.338379
609128911623,0.916992,-0.145996,-0.381836
609128934173,0.84668,-0.228027,-0.354492
609128950605,0.842285,-0.384766,-0.340332
609128971695,0.80957,-0.314941,-0.349609
609128995588,0.866211,-0.15625,-0.386719
609129016633,0.986328,-0.0834961,-0.394531
609129031652,1.05029,-0.012207,-0.39209
609129054136,1.01123,-0.0478516,-0.339355
609129070593,1.00537,-0.0766602,-0.34668
609129091596,1.06104,-0.121094,-0.356934
609129114143,1.10059,-0.149414,-0.39502
609129130515,1.08447,-0.124512,-0.370605
609129151613,1.18311,-0.12793,-0.287109
609129174150,1.45703,-0.42041,-0.131348
609129190557,1.31885,-0.0839844,-0.0610352
609129211592,1.32715,-0.074707,-0.0620117
609129234134,1.31348,-0.302734,-0.569824
609129250515,1.35107,-0.630859,-0.638672
609129271586,1.03564,-0.635742,-0.874023
609129294123,1.35791,-0.306152,-0.732422
609129309895,1.15527,-0.148926,-0.495117
609129331674,0.820801,0.179688,-0.809082
609129354134,0.806641,-0.0922852,-0.805176
609129369886,0.676758,-0.114746,-0.504395
609129391655,0.426758,-0.199707,-0.388184
609129414113,0.335938,-0.0625,-0.0742188
609129429886,0.351074,0.10791,0.147949
609129451674,0.320312,0.194336,0
609129474102,0.416992,0.196289,0.0336914
609129489889,0.553223,0.239258,0.162598
609129513494,0.620605,0.225586,0.10791
609129534834,0.666504,0.247559,0.0224609
609129549922,0.740234,0.192871,-0.0131836
609129573072,0.912109,0.13623,-0.0942383
609129594163,1.15381,0.135254,-0.195312
609129609904,1.23535,0.195312,-0.399902
609129633035,1.39844,0.14502,-0.503418
609129654052,1.46143,0.0722656,-0.63623
609129669882,1.50439,0.0805664,-0.691406
609129693066,1.50049,0.0756836,-0.660156
609129714137,1.50488,0.0317383,-0.609375
609129729890,1.48291,-0.0263672,-0.641602
609129753053,1.39111,-0.188965,-0.692871
609129774135,1.36084,-0.11377,-0.786621
609129798064,1.18359,-0.000976562,-0.916016
609129820543,0.834961,-0.0078125,-1.0835
609129834111,0.59375,0.150391,-1.32324
609129849899,0.562012,-0.0820312,-1.29443
609129873010,0.695312,-0.00927734,-1.09961
609129894146,0.875977,0.0151367,-0.183105
609129909917,2.75146,-1.50293,3.67236
609129933107,1.94434,0.17041,-1.24463
609129955515,0.540039,0.803711,0.0151367
609129969912,1.29297,-0.320801,-0.460938
609129993061,0.84375,-0.543457,-0.261719
609130021628,1.11816,0.105957,-0.19043
609130029889,0.945801,-0.0913086,-0.283203
609130053047,1.04443,-0.231934,0.000488281
609130074109,1.1333,-0.259766,0.0458984
609130089887,0.97998,0.000976562,-0.12207
609130120580,0.994629,-0.334473,-0.0893555
609130134143,0.931641,-0.258301,-0.090332
609130149887,0.972656,-0.257812,-0.0644531
609130173040,0.92334,-0.328613,-0.012207
609130194112,0.942871,-0.219727,-0.0180664
609130209905,0.924805,-0.27832,-0.0283203
609130233064,0.877441,-0.298828,-0.0419922
609130254112,0.885742,-0.371094,-0.0234375
609130269907,0.896484,-0.347656,-0.0390625
609130292382,0.938965,-0.225586,-0.0668945
609130314146,1.01758,-0.194336,-0.104004
609130329890,0.977051,-0.163086,-0.125488
609130360632,0.944824,-0.193848,-0.145996
609130374081,0.974121,-0.232422,-0.138672
609130389919,0.952148,-0.239258,-0.156738
609130412423,0.933105,-0.263184,-0.181641
609130435580,0.949219,-0.204102,-0.234375
609130449897,0.945801,-0.165527,-0.25
609130472396,0.915527,-0.158691,-0.234375
609130495567,0.878418,-0.171387,-0.214355
609130509913,0.85791,-0.191406,-0.227051
609130532409,0.914062,-0.236816,-0.280273
609130555559,0.95166,-0.17041,-0.292969
609130569894,0.963379,-0.142578,-0.32666
609130592386,0.964844,-0.119141,-0.306152
609130615542,0.95752,-0.134766,-0.301758
609130636645,1.00342,-0.172363,-0.317871
609130652418,1.02051,-0.123535,-0.327637
609130675569,1.01758,-0.0898438,-0.313965
609130696667,1.16455,-0.0698242,-0.347168
609130712394,1.32471,-0.181641,-0.274414
609130735550,1.25586,-0.000976562,-0.205566
609130756688,1.39404,-0.168457,-0.16748
609130772477,1.35547,-0.265625,-0.198242
609130795587,1.08936,-0.210938,-0.385254
609130816669,0.987305,-0.168945,-0.508789
609130832399,0.844727,-0.106445,-0.724609
609130855570,0.779297,-0.0483398,-0.719238
609130876598,0.706055,-0.0375977,-0.555176
609130892450,0.682129,0.0830078,-0.492188
609130915623,0.612793,-0.156738,-0.140625
609130936692,0.509766,-0.284668,0.027832
609130952423,0.552246,-0.141602,-0.138672
609130975566,0.597168,0.0268555,-0.104492
609130996684,0.595215,0.239258,-0.162109
609131012450,0.64209,0.256836,-0.296875
609131043066,0.730469,0.151855,-0.343262
609131056668,0.731934,0.289551,-0.405273
609131072447,0.78418,0.29248,-0.401855
609131095580,0.859375,0.149414,-0.409668
609131116673,0.935547,0.106445,-0.507812
609131132406,1.02393,0.103516,-0.587891
609131163069,1.06152,0.111328,-0.700195
609131176726,1.1084,0.158691,-0.779297
609131193065,1.14648,0.179199,-0.779297
609131214921,1.11182,0.0981445,-0.733887
609131236703,1.04639,-0.027832,-0.695801
609131252892,1.00342,-0.0449219,-0.64209
609131274880,0.929688,-0.00292969,-0.575195
609131296623,0.841797,0.0146484,-0.630859
609131319141,0.790039,0.0751953,-0.58252
609131334928,0.874023,0.0141602,-0.417969
609131358074,0.835938,0.0170898,-0.418457
609131372489,0.629883,-0.11084,-0.968262
609131394998,1.1001,-0.0336914,-0.257324
609131425587,1.08398,-0.304688,0.116211
609131432464,1.12012,-0.23584,-0.103516
609131454954,1.38232,0.0898438,0.0302734
609131478101,1.06885,0.119141,0.0742188
609131492451,0.982422,0.0849609,-0.0830078
609131514996,0.939941,-0.188477,-0.0253906
609131538140,0.898438,-0.302246,-0.0571289
609131560626,0.921387,-0.287109,-0.0390625
609131575040,0.930176,-0.200684,-0.0742188
609131598150,0.974121,-0.145996,-0.0395508
609131612489,1.02246,-0.0371094,-0.0864258
609131634964,1.03125,-0.0390625,-0.0634766
609131658160,1.00098,-0.0859375,-0.097168
609131672482,0.939941,-0.148926,-0.0957031
609131694991,0.931641,-0.168457,-0.0898438
609131718170,0.943848,-0.187988,-0.0800781
609131732607,0.96875,-0.148438,-0.0834961
609131754995,0.958496,-0.121582,-0.0771484
609131778198,0.970215,-0.128418,-0.0742188
609131792499,0.964355,-0.127441,-0.0786133
609131814924,0.969727,-0.124023,-0.0820312
609131838162,0.995117,-0.195801,-0.0644531
609131852535,0.979492,-0.141113,-0.108398
609131874931,0.973633,-0.11377,-0.105957
609131898158,0.975586,-0.125488,-0.0957031
609131919181,0.95166,-0.0986328,-0.106934
609131934969,0.958008,-0.137695,-0.0869141
609131958135,0.960938,-0.183105,-0.0776367
609131979240,0.961426,-0.165039,-0.0698242
609131994284,0.949219,-0.156738,-0.0761719
609132008518,0.956055,-0.142578,-0.0839844
609132031138,0.967773,-0.148438,-0.081543
609132061460,0.95752,-0.144531,-0.0908203
609132071469,0.964844,-0.152832,-0.0830078
609132091175,0.966309,-0.168457,-0.0805664
609132114233,0.972168,-0.161133,-0.0878906
609132128495,0.965332,-0.123535,-0.0981445
609132151006,0.958984,-0.12207,-0.0942383
609132177100,0.965332,-0.158203,-0.0864258
609132188521,0.962891,-0.152344,-0.0854492
609132211016,0.961426,-0.154297,-0.0986328
609132234164,0.978027,-0.157715,-0.100098
609132248594,0.972656,-0.142578,-0.105469
609132272484,0.94873,-0.116211,-0.10791
609132294294,0.949219,-0.161133,-0.09375
609132308604,0.955566,-0.169922,-0.0844727
609132331103,0.969727,-0.140137,-0.0966797
609132354243,0.973633,-0.150879,-0.102051
609132376664,0.972656,-0.162598,-0.103516
609132391073,0.956055,-0.150879,-0.0908203
609132414027,0.962402,-0.142578,-0.106445
609132431494,0.963867,-0.148926,-0.102539
609132459929,0.962891,-0.131348,-0.102539
609132474762,0.968262,-0.119629,-0.109863
609132488634,0.952637,-0.147461,-0.109375
609132511105,0.958984,-0.162109,-0.107422
609132534193,0.960938,-0.158691,-0.110352
609132548923,0.962891,-0.149414,-0.104004
609132579885,0.962402,-0.138672,-0.097168
609132594264,0.961914,-0.143555,-0.104492
609132608611,0.972656,-0.144531,-0.107422
609132631047,0.973145,-0.142578,-0.111816
609132654261,0.956543,-0.147949,-0.112793
609132668562,0.950684,-0.162109,-0.10791
609132699966,0.95166,-0.145508,-0.103027
609132714187,0.948242,-0.149902,-0.110352
609132728533,0.965332,-0.15625,-0.115723
609132751029,0.963379,-0.141113,-0.124023
609132774200,0.966797,-0.123047,-0.128418
609132788573,0.974609,-0.140625,-0.108398
609132811006,0.972168,-0.13916,-0.116211
609132834131,0.975586,-0.164551,-0.103516
609132848531,0.941406,-0.15625,-0.0991211
609132871049,0.952148,-0.166992,-0.0854492
609132894182,0.951172,-0.168457,-0.0810547
609132908510,0.945801,-0.152832,-0.0722656
609132931058,0.964844,-0.164062,-0.103027
609132954299,0.973145,-0.125488,-0.120117
609132968650,0.958496,-0.140137,-0.14502
609132991095,0.956543,-0.200684,-0.136719
609133014211,0.957031,-0.14502,-0.149902
609133028516,0.968262,-0.123047,-0.152832
609133051084,0.964355,-0.127441,-0.137207
609133074192,0.96875,-0.155762,-0.122559
609133089997,0.958496,-0.156738,-0.129395
609133111189,0.944824,-0.151367,-0.109863
609133134229,0.938965,-0.177246,-0.0849609
609133148649,0.981934,-0.19873,-0.0952148
609133171104,0.996582,-0.138184,-0.139648
609133193499,0.988281,-0.125488,-0.151367
609133208568,0.961914,-0.128906,-0.129883
609133231132,0.952637,-0.12207,-0.123047
609133253569,0.975098,-0.146973,-0.116699
609133268657,0.986816,-0.130859,-0.0947266
609133291078,0.947754,-0.133789,-0.0869141
609133313546,0.945801,-0.190918,-0.0795898
609133328562,0.91748,-0.186523,-0.101074
609133351175,0.932129,-0.180176,-0.0932617
609133373580,0.95752,-0.194824,-0.0351562
609133388645,0.986328,-0.203125,-0.104492
609133411016,0.94043,-0.111328,-0.15625
609133433567,0.904297,-0.136719,-0.145996
609133448609,0.946289,-0.176758,-0.125488
609133471088,0.973145,-0.230469,-0.0673828
609133493547,0.977051,-0.206543,-0.121094
609133508601,0.960449,-0.277344,-0.0888672
609133531107,0.924316,-0.224609,-0.145508
609133562381,0.912109,-0.212891,-0.118164
609133568525,0.981445,-0.148438,-0.119629
609133591135,0.997559,-0.100586,-0.124512
609133613569,0.98584,-0.165039,-0.0893555
609133628599,0.991211,-0.203613,-0.0566406
609133651088,0.980469,-0.22998,-0.0615234
609133673586,0.984375,-0.270996,-0.0258789
609133688547,0.983887,-0.291016,0.0405273
609133711111,0.926758,-0.201172,-0.0419922
609133733591,0.895508,-0.298828,0.0424805
609133748619,0.903809,-0.32666,0.0615234
609133771132,0.898926,-0.263184,0.0498047
609133793611,0.916992,-0.337891,0.101074
609133808643,0.918457,-0.374023,0.127441
609133831068,0.907715,-0.296875,0.0512695
609133855047,0.927246,-0.337891,0.0522461
609133868537,0.927246,-0.323242,0.0585938
609133891044,0.95752,-0.255859,0.0263672
609133913646,0.973633,-0.275879,0.0664062
609133928653,0.953125,-0.23584,0.0532227
609133951081,0.972656,-0.245117,0.0473633
609133973545,0.98877,-0.246582,0.0180664
609133988672,1.00244,-0.187012,-0.0332031
609134011089,0.993652,-0.179199,0.0170898
609134033579,0.955566,-0.28418,0.0839844
609134050012,0.942383,-0.289551,0.0664062
609134071097,0.942871,-0.308105,0.0820312
609134093645,0.930176,-0.341309,0.102539
609134110047,0.92334,-0.228516,0.0317383
609134131191,1.07227,-0.0478516,-0.0268555
609134153566,1.05078,-0.0810547,-0.0561523
609134176812,0.993164,-0.359863,0.0595703
609134191096,0.962891,-0.62793,0.168457
609134223171,1.07617,-0.888672,0.0268555
609134229962,1.02051,-0.699707,-0.09375
609134251144,0.979492,-0.680176,-0.166504
609134273638,1.03369,-0.37207,-0.817871
609134290032,0.883789,-0.482422,-1.32471
609134311070,0.95752,-0.262207,-1.15918
609134333532,1.10498,-0.116699,-0.873047
609134350044,1.15332,-0.146973,-0.625
609134371121,1.18115,-0.14209,-0.427246
609134393550,1.18066,-0.208496,-0.277832
609134409985,1.1709,-0.216797,-0.166992
609134431137,1.10156,-0.291504,-0.0625
609134453658,1.01172,-0.248535,0.0649414
609134470014,0.985352,-0.18457,0.151855
609134491143,0.921875,-0.172363,0.22168
609134530582,0.857422,-0.268066,0.252441
609134533088,0.878418,-0.352539,0.249512
609134551151,0.979492,-0.42041,0.15332
609134573643,0.990234,-0.398438,0.019043
609134590044,0.989258,-0.30957,-0.0244141
609134611116,1.02539,-0.333008,-0.104004
609134633637,1.14355,-0.353027,-0.196777
609134650089,1.25635,-0.366699,-0.327637
609134671119,1.24951,-0.242676,-0.438477
609134693527,1.16895,-0.311035,-0.57666
609134710050,1.20996,-0.401367,-0.544434
609134731118,1.10352,0.208008,-0.727539
609134753681,1.00195,-0.177246,-0.964844
609134770066,0.859863,0.120605,-1.16016
609134791203,0.711426,0.230957,-1.40234
609134813577,0.584473,0.183105,-1.33057
609134830007,0.640625,0.26416,-1.28906
609134851114,0.669922,-0.0166016,-0.817871
609134873592,2.93945,-1.07129,3.30859
609134890043,1.74121,0.308594,-1.37842
609134911106,0.723633,0.949707,-0.399414
609134933669,0.936035,-0.458008,-0.932617
609134950047,0.985352,-0.212891,-0.649414
609134972502,1.27832,0.292969,-0.146973
609134993616,1.18164,-0.166504,-0.315918
609135010116,1.01709,-0.203613,-0.147949
609135032609,1.06055,-0.0722656,-0.275879
609135053603,0.986816,-0.163574,-0.244629
609135070040,0.958496,-0.293457,-0.208008
609135092614,0.919922,-0.459961,-0.118652
609135113712,0.853516,-0.419922,-0.107422
609135136073,0.919922,-0.20752,-0.140137
609135152536,0.916992,-0.171387,-0.131836
609135173666,0.911621,-0.120117,-0.203613
609135190055,0.901855,-0.106445,-0.195801
609135212527,0.835449,-0.191406,-0.146973
609135234234,0.922852,-0.251465,-0.171387
609135250042,0.962891,-0.226562,-0.232422
609135272509,0.964355,-0.0854492,-0.310059
609135293621,1.00977,0.0322266,-0.342285
609135310036,1.00537,-0.0644531,-0.370605
609135332490,0.980957,-0.0825195,-0.413574
609135353566,1.04004,-0.0810547,-0.456055
609135370013,1.04297,-0.0849609,-0.445312
609135392522,1.00342,-0.134766,-0.448242
609135413676,1.02246,-0.10791,-0.40625
609135430027,1.02588,-0.144531,-0.393555
609135452540,1.04639,-0.199707,-0.373535
609135473708,1.19092,-0.165527,-0.317871
609135490059,1.33447,-0.160156,-0.186035
609135512515,1.46143,-0.3125,-0.17627
609135550649,1.70996,-0.76416,-0.549316
609135552978,1.71729,-0.834473,-0.493164
609135572533,1.44775,-0.492676,-0.550293
609135593582,1.20996,-0.115234,-0.614746
609135610089,0.808105,-0.177734,-0.815918
609135632577,0.71582,-0.749023,-0.137207
609135655710,0.5,-0.188477,-0.0541992
609135669288,0.320801,0.173828,0.00878906
609135691710,0.344238,0.247559,0.00390625
609135714304,0.420898,0.430664,-0.0400391
609135729247,0.453613,0.490234,-0.00585938
609135751769,0.487305,0.495117,0.0541992
609135774308,0.608887,0.566406,0.0297852
609135789319,0.70459,0.530762,-0.0361328
609135811798,0.803711,0.647461,-0.150879
609135834324,0.894531,0.733887,-0.396484
609135849286,1.04053,0.526855,-0.464355
609135871779,1.21631,0.40625,-0.572266
609135894350,1.37061,0.425781,-0.662109
609135909290,1.64014,0.332031,-0.581543
609135931759,1.68652,0.368164,-0.778809
609135954356,1.66699,0.611328,-0.820801
609135969352,1.45361,0.0429688,-0.695312
609135991774,0.85791,0.0117188,-0.723145
609136014220,0.812988,0.341797,-0.875488
609136029342,0.849121,0.371582,-0.823242
609136051754,0.749023,0.090332,-0.760254
609136074264,0.775391,-0.282227,-0.0698242
609136090710,1.72314,-2.09473,2.25244
609136111780,1.1626,-0.242676,-0.488281
609136134286,1.22754,1.0918,-0.115723
609136150688,0.941895,-0.158203,0.065918
609136171734,0.827637,-0.710938,0.0297852
609136194249,0.93457,-0.420898,-0.0395508
609136210662,0.937988,-0.0244141,-0.182129
609136231740,1.0835,-0.183105,0.0439453
609136254299,1.01416,-0.27002,0.0483398
609136270687,1.00635,-0.279785,0.00341797
609136291753,0.942871,-0.205078,0.0239258
609136314284,0.920898,-0.452148,0.0839844
609136330669,0.825684,-0.469238,0.0664062
609136351801,0.859375,-0.284668,0.0947266
609136374344,0.94873,-0.227539,0.0961914
609136390714,0.895996,-0.240723,0.0839844
609136411725,0.916992,-0.39502,0.113281
609136434304,0.92627,-0.22998,-0.043457
609136450744,0.963379,-0.227051,0.0668945
609136471821,0.95166,-0.220703,0.0947266
609136494262,0.910645,-0.376465,0.145996
609136510672,0.95752,-0.248047,0.0141602
609136531827,0.940918,-0.217773,0.00537109
609136554283,0.920898,-0.16748,-0.0136719
609136570738,0.979004,-0.127441,0.0371094
609136591760,0.961914,-0.0444336,-0.0854492
609136614297,1.01074,-0.0898438,-0.101562
609136630704,0.937012,-0.097168,-0.0957031
609136651849,0.940918,-0.0625,-0.0703125
609136675710,0.891602,-0.065918,-0.110352
609136690752,0.989258,-0.0214844,-0.134766
609136711767,0.981445,0.00390625,-0.188477
609136734348,1.06445,-0.108887,-0.0996094
609136750764,1.02637,-0.252441,-0.0454102
609136771750,0.952148,-0.156738,-0.240723
609136794276,1.03955,-0.0693359,-0.361816
609136810739,1.05469,-0.249023,-0.338867
609136831791,1.00879,-0.193848,-0.222168
609136854340,1.20361,0.0693359,-0.240234
609136870140,1.15771,0.0776367,-0.195801
609136891732,0.670898,-1.53271,-0.58252
609136914338,0.807617,-0.118164,-0.718262
609136930090,0.941895,-0.285156,-0.370605
609136951814,0.651855,-0.21875,-0.215332
609136974283,0.608887,0.0151367,0.0117188
609136990136,0.621582,0.20459,0.595215
609137011781,0.78125,0.677246,1.14648
609137034336,1.37158,1.55273,0.375
609137050040,2.47168,-0.55127,-0.325195
609137073196,0.775879,-0.65918,0.194824
609137094318,0.362305,0.138672,-0.549805
609137110070,0.911621,-0.0131836,-0.546387
609137140709,1.31836,-0.0771484,-0.128906
609137154350,1.01514,0.0390625,-0.160156
609137176822,0.937012,-0.351562,0.0385742
609137193243,0.964355,0.151855,-0.242676
609137214304,1.00244,0.178711,-0.354492
609137230022,1.01611,0.100586,-0.20166
609137253295,0.921387,-0.214844,-0.150879
609137274378,0.933105,-0.0639648,-0.140137
609137290081,0.951172,-0.0551758,-0.177734
609137313287,0.961914,-0.0732422,-0.171875
609137334277,0.975098,0.0117188,-0.278809
609137350117,0.963379,-0.0527344,-0.163086
609137373196,1.00488,-0.0214844,-0.241211
609137394363,0.975098,0.0932617,-0.388184
609137410069,1.03418,0.121582,-0.345703
609137433225,0.955566,-0.0439453,-0.239746
609137454416,0.959961,0.00830078,-0.233398
609137470091,0.942871,-0.0219727,-0.187988
609137493238,0.966309,-0.105957,-0.196777
609137514336,0.929199,-0.10791,-0.187012
609137530154,0.935059,-0.0458984,-0.148926
609137553264,0.930176,0.0522461,-0.231934
609137574346,0.926758,0.0166016,-0.221191
609137598191,0.936523,-0.0224609,-0.153809
609137613243,0.965332,0.00341797,-0.118164
609137634276,0.958496,0.0136719,-0.120117
609137650091,0.943359,0.0761719,-0.134766
609137673245,0.961914,0.0996094,-0.15625
609137701849,1.01221,-0.00537109,-0.189453
609137710095,1.0918,-0.213867,-0.102051
609137733281,1.12939,-0.350098,-0.0454102
609137754374,1.22803,-0.475586,-0.384766
609137770098,1.15576,-0.231934,-0.447266
609137792668,1.00635,-0.333008,-0.236816
609137814363,0.836426,-0.425781,-0.109375
609137830120,0.879883,-0.611328,0.0522461
609137852555,0.76709,-0.465332,0.0810547
609137874274,0.811035,-0.0473633,-0.0791016
609137890072,0.835449,0.192871,-0.0922852
609137912649,0.859375,0.0507812,-0.135742
609137934278,0.972168,-0.0209961,-0.242188
609137950062,0.983398,0.157715,-0.355957
609137972604,0.88916,0.198242,-0.53125
609137995758,0.931641,0.227051,-0.530273
609138010599,1.33496,0.673828,-0.00195312
609138032586,0.999023,0.174316,-0.0112305
609138055732,1.06494,-0.494629,0.143555
609138070135,1.02051,-0.524902,-0.0239258
609138092644,1.04053,-0.342285,-0.270508
609138115740,0.888184,-0.12793,-0.301758
609138130066,0.803223,-0.059082,-0.136719
609138152673,0.871582,-0.115723,-0.0751953
609138175777,0.904785,-0.253906,-0.0620117
609138190162,0.945801,-0.270508,-0.059082
609138212597,1.02637,-0.15625,-0.0180664
609138235768,1.05273,-0.234863,-0.0239258
609138256786,1.04346,-0.322754,0.0229492
609138272649,0.929688,-0.255859,-0.0483398
609138295819,0.881836,-0.219727,-0.0439453
609138310065,0.916504,-0.198242,-0.0375977
609138332562,1.01123,-0.186035,0.00244141
609138355776,1.00049,-0.250977,-0.00976562
609138376818,0.965332,-0.245605,-0.0551758
609138392653,0.921875,-0.292969,-0.0205078
609138415730,0.904785,-0.305664,-0.0249023
609138436836,0.916016,-0.259766,0.0336914
609138452629,0.974609,-0.284668,0.0419922
609138475760,0.946289,-0.212402,0.0175781
609138496804,0.944824,-0.189453,-0.00439453
609138512621,0.940918,-0.138672,-0.0185547
609138535814,0.958496,-0.0493164,-0.0429688
609138556873,0.981934,-0.0693359,-0.0473633
609138572677,0.990723,-0.168457,-0.0283203
609138595767,0.950195,-0.19873,-0.0732422
609138624430,0.945801,-0.0820312,-0.0966797
609138632633,1.00439,-0.0258789,0.0620117
609138655734,1.01221,-0.161621,0.0395508
609138676900,1.08105,0.0566406,0.0112305
609138692591,1.02686,0.318359,-0.1875
609138723317,1.01123,0.167969,-0.241211
609138736835,0.999512,0.184082,-0.148926
609138752652,0.912109,0.111816,-0.135742
609138775133,0.874512,0.19043,-0.224121
609138796798,0.933594,0.216797,-0.0581055
609138812638,1.03223,0.159668,-0.00878906
609138835137,1.32568,0.0625,-0.0429688
609138856863,1.44678,-0.109375,-0.121094
609138872687,1.37109,-0.375977,-0.211914
609138895182,1.02832,-0.351074,-0.396973
609138916850,0.878418,-0.304688,-0.206055
609138932714,0.769531,-0.0737305,-0.71582
609138955089,0.887695,-0.307617,-0.304688
609138978274,0.924805,-0.266113,-0.0917969
609138992672,0.913086,-0.012207,-0.0966797
609139015108,0.870605,-0.209473,0.0996094
609139038215,0.870117,-0.310547,0.0625
609139052697,0.97998,-0.148438,0.0195312
609139075189,0.915039,0.0493164,-0.112793
609139098302,0.915039,0.276367,-0.102539
609139112648,0.88916,0.334473,-0.194824
609139135169,0.829102,0.153809,-0.211914
609139158320,0.725098,-0.0551758,-0.499512
609139172655,0.959961,0.0180664,-0.204102
609139195233,1.16797,0.461426,-0.574707
609139218395,1.45996,0.147461,-0.686035
609139239342,1.48682,-0.726074,0.525879
609139255135,1.35791,-0.275391,0.318848
609139278312,1.16016,-0.0195312,-0.0449219
609139299279,0.966309,-0.133789,-0.208984
609139314294,0.803711,-0.386719,-0.211914
609139328718,0.657227,-0.546875,-0.09375
609139351172,0.602051,-0.655762,-0.0493164
609139374446,0.791016,-0.604004,-0.0522461
609139388725,0.968262,-0.427734,-0.0957031
609139411298,1.01318,-0.391113,-0.0673828
609139434401,0.98291,-0.416504,-0.0361328
609139448821,0.894531,-0.418945,-0.0366211
609139471232,0.839844,-0.397949,-0.0737305
609139494326,0.806641,-0.495605,-0.0688477
609139508752,0.821777,-0.525391,-0.0771484
609139531141,0.817383,-0.492188,-0.0966797
609139554435,0.812988,-0.483887,-0.0727539
609139568772,0.897461,-0.566895,-0.0161133
609139591298,1.00537,-0.541992,-0.0385742
609139614354,0.943359,-0.421387,-0.0888672
609139628788,0.842285,-0.436523,-0.0976562
609139651869,0.766113,-0.507812,-0.0966797
609139666256,0.749512,-0.546387,-0.100586
609139688796,0.791992,-0.499023,-0.10791
609139711884,0.833984,-0.535645,-0.0878906
609139726171,0.901367,-0.549805,-0.0561523
609139748743,0.912598,-0.507812,-0.0751953
609139771894,0.86377,-0.496094,-0.097168
609139786212,0.802246,-0.493164,-0.097168
609139808713,0.788574,-0.511719,-0.105957
609139831845,0.802734,-0.508301,-0.0966797
609139846220,0.837402,-0.518555,-0.0786133
609139868762,0.885254,-0.513672,-0.0678711
609139891164,0.876953,-0.496094,-0.0522461
609139906185,0.861328,-0.491211,-0.0698242
609139928755,0.833984,-0.50293,-0.0859375
609139951207,0.817383,-0.509277,-0.0800781
609139966220,0.823242,-0.51123,-0.0761719
609139988637,0.832031,-0.506348,-0.0732422
609140011298,0.848633,-0.490234,-0.0800781
609140026241,0.866211,-0.48877,-0.0703125
609140048697,0.874512,-0.507812,-0.0634766
609140071226,0.851562,-0.506836,-0.0791016
609140086173,0.823242,-0.512207,-0.0786133
609140108791,0.822754,-0.505859,-0.0883789
609140131200,0.825684,-0.50293,-0.0825195
609140146188,0.835449,-0.508301,-0.0786133
609140168798,0.853027,-0.501465,-0.0756836
609140191287,0.856934,-0.496582,-0.078125
609140206197,0.858398,-0.500977,-0.0810547
609140228769,0.841309,-0.508301,-0.0703125
609140251266,0.832031,-0.497559,-0.081543
609140266194,0.832031,-0.503418,-0.0776367
609140288700,0.841309,-0.503418,-0.0742188
609140311303,0.843262,-0.507324,-0.0776367
609140326138,0.840332,-0.503906,-0.0791016
609140348732,0.842773,-0.508301,-0.0727539
609140371210,0.843262,-0.497559,-0.0756836
609140387631,0.844238,-0.494141,-0.0834961
609140408758,0.841797,-0.50293,-0.0771484
609140431313,0.833008,-0.503418,-0.0805664
609140446165,0.838379,-0.505859,-0.0786133
609140468738,0.846191,-0.503418,-0.0839844
609140491304,0.849121,-0.496094,-0.0795898
609140507703,0.839355,-0.507812,-0.0786133
609140528777,0.833984,-0.5,-0.0805664
609140551157,0.836426,-0.513184,-0.0766602
609140566130,0.844238,-0.494629,-0.0839844
609140588708,0.837891,-0.500488,-0.078125
609140611272,0.838867,-0.515137,-0.0776367
609140626198,0.839844,-0.503906,-0.0795898
609140648650,0.834961,-0.507812,-0.0805664
609140671261,0.831543,-0.497559,-0.0791016
609140687715,0.837402,-0.50293,-0.0766602
609140708722,0.84082,-0.507324,-0.0820312
609140731146,0.839844,-0.5,-0.0839844
609140747656,0.842285,-0.509277,-0.0771484
609140770140,0.850586,-0.503906,-0.0717773
609140791189,0.851074,-0.509766,-0.0708008
609140807585,0.844727,-0.504395,-0.0791016
609140828643,0.836426,-0.504883,-0.0854492
609140851217,0.833008,-0.512207,-0.0844727
609140867633,0.84082,-0.508789,-0.078125
609140888679,0.843262,-0.505371,-0.0791016
609140911180,0.843262,-0.505859,-0.0800781
609140927667,0.844727,-0.497559,-0.0810547
609140948700,0.838867,-0.507812,-0.0776367
609140971210,0.841309,-0.505371,-0.0810547
609140987579,0.839355,-0.502441,-0.0844727
609141008711,0.841309,-0.504883,-0.0878906
609141031148,0.838379,-0.513672,-0.0795898
609141047643,0.830566,-0.510742,-0.0751953
609141076889,0.837891,-0.500488,-0.0830078
609141091185,0.841309,-0.501953,-0.0810547
609141107592,0.839355,-0.513184,-0.074707
609141128712,0.838867,-0.501465,-0.078125
609141151167,0.845215,-0.502441,-0.0830078
609141167636,0.838867,-0.505859,-0.0761719
609141188676,0.836426,-0.510742,-0.0810547
609141211178,0.840332,-0.503906,-0.0712891
609141227646,0.845703,-0.500977,-0.0825195
609141248703,0.841797,-0.506348,-0.0830078
609141271208,0.839844,-0.507812,-0.0786133
609141287675,0.837402,-0.509766,-0.0766602
609141308719,0.842285,-0.507812,-0.0830078
609141331220,0.839844,-0.507324,-0.0830078
609141347662,0.842285,-0.507812,-0.0756836
609141368715,0.839844,-0.512207,-0.0786133
609141391212,0.84375,-0.504395,-0.0800781
609141407630,0.841309,-0.501465,-0.0776367
609141428715,0.838379,-0.503906,-0.081543
609141451162,0.835449,-0.499512,-0.0756836
609141467632,0.835938,-0.506348,-0.0732422
609141488698,0.838379,-0.50293,-0.0776367
609141511171,0.837891,-0.505371,-0.0820312
609141527671,0.841797,-0.508301,-0.074707
609141548677,0.837402,-0.500977,-0.0795898
609141571223,0.834473,-0.496582,-0.0800781
609141587654,0.840332,-0.51123,-0.0786133
609141610152,0.845215,-0.506348,-0.0766602
609141631201,0.848633,-0.508301,-0.0800781
609141647614,0.836914,-0.510254,-0.078125
609141670186,0.837402,-0.506348,-0.0834961
609141692649,0.839844,-0.501465,-0.0756836
609141707666,0.837891,-0.505859,-0.0756836
609141730147,0.843262,-0.501465,-0.0820312
609141751254,0.84375,-0.503418,-0.0810547
609141767658,0.837402,-0.509766,-0.0839844
609141790162,0.832031,-0.513672,-0.0703125
609141811196,0.833008,-0.507812,-0.0800781
609141827668,0.841309,-0.505859,-0.0786133
609141850135,0.845703,-0.501465,-0.0771484
609141874094,0.839844,-0.509766,-0.0693359
609141887637,0.841309,-0.503906,-0.078125
609141910124,0.841309,-0.508301,-0.074707
609141931159,0.84082,-0.508789,-0.0776367
609141947636,0.836426,-0.509766,-0.0751953
609141970125,0.836914,-0.495117,-0.0878906
609141991250,0.833008,-0.508301,-0.0698242
609142007622,0.837402,-0.506836,-0.0776367
609142030120,0.841797,-0.50293,-0.0776367
609142051259,0.842285,-0.510742,-0.0756836
609142067655,0.836914,-0.506348,-0.0771484
609142090228,0.839355,-0.505371,-0.0786133
609142111203,0.835938,-0.50293,-0.0776367
609142127667,0.840332,-0.503418,-0.0737305
609142150170,0.840332,-0.502441,-0.078125
609142171198,0.84375,-0.508301,-0.078125
609142187667,0.84082,-0.51123,-0.0776367
609142210173,0.834961,-0.503418,-0.0766602
609142231220,0.833496,-0.505859,-0.0742188
609142247660,0.841309,-0.509277,-0.0708008
609142271660,0.843262,-0.506348,-0.074707
609142291208,0.844238,-0.507812,-0.0727539
609142307667,0.842285,-0.508301,-0.0839844
609142330151,0.84082,-0.502441,-0.0800781
609142351200,0.841309,-0.505371,-0.0683594
609142367627,0.833496,-0.509277,-0.0776367
609142390121,0.84082,-0.507812,-0.078125
609142411263,0.843262,-0.507812,-0.0732422
609142427640,0.846191,-0.508789,-0.0717773
609142450165,0.844238,-0.507324,-0.0727539
609142471225,0.845703,-0.502441,-0.0761719
609142487666,0.834961,-0.504395,-0.0844727
609142510171,0.838379,-0.508789,-0.0791016
609142531202,0.837402,-0.508789,-0.074707
609142547680,0.842285,-0.498047,-0.0732422
609142570196,0.847656,-0.507324,-0.0771484
609142592700,0.841309,-0.510742,-0.0751953
609142607664,0.836914,-0.510742,-0.0712891
609142630145,0.837891,-0.505859,-0.0717773
609142652645,0.832031,-0.511719,-0.074707
609142667665,0.839355,-0.505859,-0.0722656
609142690169,0.841309,-0.505371,-0.0737305
609142712692,0.835449,-0.506348,-0.0727539
609142729091,0.834473,-0.503418,-0.0737305
609142750166,0.834473,-0.51123,-0.0751953
609142772670,0.84375,-0.508301,-0.0756836
609142789148,0.842285,-0.504883,-0.0703125
609142817685,0.838379,-0.507812,-0.0717773
609142832668,0.832031,-0.507324,-0.0766602
609142849121,0.83252,-0.51123,-0.0712891
609142870194,0.842773,-0.506348,-0.0761719
609142892697,0.836426,-0.503906,-0.0776367
609142909140,0.841797,-0.503418,-0.074707
609142930185,0.837402,-0.507324,-0.0756836
609142951964,0.845703,-0.509766,-0.0766602
609142975018,0.844238,-0.506836,-0.0761719
609142989391,0.837402,-0.51123,-0.0761719
609143011937,0.836426,-0.507324,-0.0800781
609143034391,0.839355,-0.508301,-0.0810547
609143049438,0.837891,-0.508789,-0.0776367
609143071932,0.838379,-0.508301,-0.0761719
609143094325,0.843262,-0.515137,-0.0786133
609143109397,0.836426,-0.506348,-0.0786133
609143133801,0.833496,-0.507324,-0.0742188
609143154388,0.840332,-0.511719,-0.0786133
609143169419,0.842773,-0.51709,-0.078125
609143191923,0.838867,-0.506348,-0.0766602
609143214373,0.840332,-0.513184,-0.0805664
609143229431,0.834961,-0.512207,-0.0810547
609143251922,0.835449,-0.502441,-0.0825195
609143274377,0.843262,-0.513184,-0.0756836
609143289384,0.843262,-0.509277,-0.081543
609143311960,0.834473,-0.510254,-0.0800781
609143334407,0.837891,-0.513672,-0.078125
609143349402,0.839844,-0.511719,-0.0786133
609143371914,0.838379,-0.507812,-0.0844727
609143394396,0.835938,-0.515137,-0.0776367
609143409437,0.842773,-0.514648,-0.0766602
609143431983,0.840332,-0.508301,-0.078125
609143454496,0.836426,-0.512207,-0.074707
609143469444,0.835449,-0.504395,-0.0805664
609143492004,0.838867,-0.520508,-0.0727539
609143514436,0.843262,-0.516113,-0.0756836
609143529492,0.841309,-0.509766,-0.0820312
609143559419,0.837891,-0.505371,-0.0820312
609143567708,0.846191,-0.503906,-0.0737305
609143589485,0.845215,-0.500488,-0.0766602
609143611941,0.836914,-0.522949,-0.0805664
609143627712,0.825195,-0.513184,-0.0859375
609143649501,0.828613,-0.51416,-0.0776367
609143671995,0.833008,-0.504395,-0.0805664
609143687705,0.833984,-0.51123,-0.0800781
609143710949,0.834961,-0.521973,-0.078125
609143740978,0.829102,-0.506348,-0.078125
609143747712,0.833984,-0.513184,-0.0839844
609143770958,0.839355,-0.51709,-0.074707
609143792001,0.837891,-0.504395,-0.0742188
609143807714,0.844238,-0.507324,-0.0688477
609143830988,0.842773,-0.514648,-0.0756836
609143851997,0.837402,-0.505859,-0.0742188
609143867755,0.833984,-0.509277,-0.0791016
609143890892,0.834961,-0.513184,-0.0844727
609143911942,0.833984,-0.506836,-0.0854492
609143927712,0.831543,-0.506836,-0.0830078
609143950945,0.839355,-0.516602,-0.0766602
609143972009,0.842773,-0.512695,-0.0776367
609143987749,0.841797,-0.508789,-0.0791016
609144010993,0.84082,-0.511719,-0.0722656
609144031921,0.836914,-0.508789,-0.0834961
609144047666,0.834473,-0.51123,-0.081543
609144078466,0.831055,-0.514648,-0.0688477
609144091949,0.836914,-0.511719,-0.0761719
609144107738,0.835449,-0.506836,-0.0791016
609144130892,0.841797,-0.503906,-0.0834961
609144151901,0.84082,-0.501953,-0.078125
609144167771,0.839844,-0.503906,-0.0795898
609144190892,0.845215,-0.513672,-0.0712891
609144211953,0.841797,-0.513672,-0.0742188
609144227713,0.83252,-0.512695,-0.0761719
609144250937,0.828613,-0.51416,-0.074707
609144271940,0.830078,-0.506348,-0.0761719
609144287741,0.835938,-0.510254,-0.0820312
609144310940,0.840332,-0.512695,-0.074707
609144331945,0.837891,-0.508301,-0.0776367
609144347618,0.831055,-0.508789,-0.0800781
609144370885,0.836914,-0.515137,-0.0771484
609144391994,0.837402,-0.508301,-0.0703125
609144407739,0.838867,-0.509766,-0.0737305
609144430283,0.837402,-0.513184,-0.0786133
609144451893,0.82959,-0.514648,-0.0742188
609144467741,0.836426,-0.515137,-0.0742188
609144490188,0.838379,-0.504883,-0.0791016
609144511999,0.833008,-0.512695,-0.0751953
609144527745,0.83252,-0.504395,-0.0839844
609144550160,0.834473,-0.513184,-0.0712891
609144571914,0.836426,-0.51123,-0.0800781
609144587704,0.843262,-0.510742,-0.0791016
609144610216,0.840332,-0.513672,-0.078125
609144633420,0.830566,-0.502441,-0.0732422
609144647722,0.830566,-0.519043,-0.0766602
609144670245,0.833984,-0.51123,-0.0795898
609144693454,0.840332,-0.516602,-0.0766602
609144707752,0.836914,-0.512695,-0.0737305
609144730225,0.838867,-0.509766,-0.078125
609144753410,0.831543,-0.509277,-0.0800781
609144767763,0.833496,-0.514648,-0.078125
609144790278,0.835938,-0.503906,-0.0825195
609144813375,0.84082,-0.514648,-0.0703125
609144827736,0.839355,-0.511719,-0.0712891
609144850196,0.834473,-0.502441,-0.0805664
609144873345,0.832031,-0.512207,-0.0854492
609144887765,0.830566,-0.51709,-0.0742188
609144910246,0.835449,-0.513672,-0.0800781
609144933382,0.835938,-0.510254,-0.0825195
609144947749,0.835938,-0.505371,-0.0844727
609144970258,0.840332,-0.51123,-0.0722656
609144993433,0.841797,-0.503906,-0.0732422
609145007679,0.837402,-0.514648,-0.078125
609145030270,0.83252,-0.516113,-0.0732422
609145053461,0.833984,-0.514648,-0.0800781
609145074447,0.830078,-0.513184,-0.0825195
609145090289,0.831055,-0.507324,-0.0834961
609145113353,0.835449,-0.514648,-0.0791016
609145134516,0.837891,-0.514648,-0.0727539
609145150241,0.843262,-0.506836,-0.0795898
609145180883,0.834961,-0.516602,-0.0830078
609145194563,0.829102,-0.511719,-0.0732422
609145210244,0.828125,-0.506348,-0.0791016
609145233363,0.830566,-0.523926,-0.0791016
609145254469,0.834473,-0.522949,-0.074707
609145270328,0.834961,-0.517578,-0.0786133
609145293390,0.839355,-0.517578,-0.0766602
609145314599,0.843262,-0.510742,-0.0703125
609145330276,0.838379,-0.508789,-0.0839844
609145353499,0.833984,-0.510742,-0.0776367
609145374468,0.827637,-0.51709,-0.0761719
609145390222,0.833984,-0.515137,-0.0786133
609145412752,0.837891,-0.518066,-0.0717773
609145434404,0.833496,-0.507812,-0.081543
609145450260,0.833984,-0.51123,-0.0786133
609145472721,0.842773,-0.506348,-0.0717773
609145494608,0.84668,-0.522949,-0.0761719
609145510288,0.831055,-0.520996,-0.0791016
609145532766,0.828613,-0.530273,-0.0751953
609145554440,0.825195,-0.526367,-0.0795898
609145570222,0.824219,-0.518555,-0.0805664
609145592759,0.825684,-0.523438,-0.074707
609145615964,0.827148,-0.524902,-0.0722656
609145630193,0.831055,-0.522461,-0.0712891
609145652768,0.83252,-0.526367,-0.0805664
609145675987,0.832031,-0.526367,-0.0805664
609145690351,0.827637,-0.524414,-0.0751953
609145712774,0.828613,-0.528809,-0.0673828
609145743445,0.827637,-0.51709,-0.0693359
609145750270,0.828613,-0.520996,-0.0771484
609145772748,0.833984,-0.52002,-0.0727539
609145795938,0.834473,-0.527832,-0.0693359
609145810319,0.830566,-0.528809,-0.0712891
609145832714,0.822266,-0.519531,-0.0766602
609145856392,0.819336,-0.526855,-0.0786133
609145870225,0.82666,-0.524414,-0.0712891
609145892788,0.829102,-0.517578,-0.0722656
609145915938,0.833496,-0.522461,-0.0698242
609145930273,0.835449,-0.525879,-0.0673828
609145952789,0.833984,-0.523438,-0.0732422
609145975947,0.827148,-0.528809,-0.0737305
609145990256,0.830078,-0.519531,-0.0800781
609146012757,0.82666,-0.522949,-0.0766602
609146035907,0.827637,-0.519043,-0.0756836
609146056979,0.834473,-0.524902,-0.0717773
609146072732,0.835449,-0.53125,-0.0712891
609146096432,0.839844,-0.522461,-0.0712891
609146116984,0.831055,-0.519043,-0.0756836
609146132725,0.828125,-0.525879,-0.0727539
609146155900,0.824707,-0.519531,-0.0820312
609146176932,0.824707,-0.524902,-0.0776367
609146192746,0.825195,-0.520996,-0.0722656
609146215926,0.834961,-0.51709,-0.0825195
609146237012,0.834961,-0.517578,-0.0717773
609146252739,0.835449,-0.51416,-0.074707
609146275887,0.830566,-0.525879,-0.0673828
609146296974,0.821777,-0.523926,-0.081543
609146312772,0.828125,-0.521973,-0.0742188
609146335188,0.833984,-0.519043,-0.0722656
609146356923,0.833984,-0.519043,-0.0756836
609146373121,0.831055,-0.51709,-0.0722656
609146395237,0.833496,-0.525391,-0.0761719
609146416966,0.830078,-0.522461,-0.0786133
609146432807,0.831055,-0.520508,-0.0786133
609146455244,0.833008,-0.530762,-0.0727539
609146476994,0.835449,-0.520996,-0.0703125
609146492747,0.824707,-0.519043,-0.074707
609146515248,0.824707,-0.519043,-0.078125
609146538402,0.831543,-0.523438,-0.0742188
609146552781,0.827637,-0.519531,-0.0727539
609146575218,0.831543,-0.524414,-0.0761719
609146598421,0.833496,-0.524902,-0.0751953
609146611998,0.828125,-0.518066,-0.0717773
609146626292,0.833984,-0.52002,-0.0751953
609146648807,0.833008,-0.52002,-0.0708008
609146671922,0.830566,-0.526367,-0.0751953
609146686307,0.827637,-0.523926,-0.0776367
609146708832,0.828613,-0.520996,-0.0756836
609146732048,0.835449,-0.522461,-0.0712891
609146746324,0.834473,-0.521973,-0.0673828
609146768810,0.828613,-0.519531,-0.0737305
609146792051,0.826172,-0.52002,-0.0751953
609146806278,0.825684,-0.521484,-0.0810547
609146828898,0.831055,-0.523438,-0.0776367
609146852048,0.834473,-0.524902,-0.0756836
609146866357,0.835938,-0.523926,-0.0737305
609146890261,0.834473,-0.527344,-0.0756836
609146912049,0.833984,-0.516602,-0.0698242
609146926435,0.831543,-0.515625,-0.0756836
609146948884,0.827637,-0.523438,-0.0771484
609146972079,0.823242,-0.525879,-0.0805664
609146986317,0.824219,-0.527344,-0.0742188
609147008802,0.831543,-0.525391,-0.0722656
609147031982,0.837402,-0.51709,-0.0771484
609147046314,0.839844,-0.519531,-0.0722656
609147068874,0.836426,-0.522949,-0.0708008
609147092134,0.820312,-0.526855,-0.0751953
609147106372,0.81543,-0.519531,-0.0693359
609147128927,0.834961,-0.520508,-0.0776367
609147151968,0.839355,-0.515625,-0.0742188
609147166388,0.83252,-0.525879,-0.0664062
609147188852,0.830566,-0.523438,-0.0742188
609147228321,0.817871,-0.51416,-0.0820312
609147230745,0.826172,-0.526367,-0.0786133
609147248798,0.827637,-0.516602,-0.0795898
609147271953,0.839355,-0.526367,-0.065918
609147286310,0.83252,-0.522949,-0.0732422
609147308854,0.831543,-0.516113,-0.074707
609147331976,0.839844,-0.524414,-0.0698242
609147346328,0.830566,-0.525879,-0.0737305
609147368809,0.83252,-0.515137,-0.065918
609147392005,0.824219,-0.520996,-0.0761719
609147406314,0.828613,-0.522949,-0.0761719
609147428834,0.836914,-0.525391,-0.0693359
609147452043,0.82959,-0.515625,-0.078125
609147466374,0.823242,-0.525391,-0.0756836
609147488798,0.829102,-0.520996,-0.0751953
609147511373,0.830078,-0.519531,-0.0761719
609147526425,0.837402,-0.525391,-0.0825195
609147548943,0.833008,-0.521973,-0.0756836
609147571371,0.828125,-0.522949,-0.0717773
609147586287,0.828613,-0.518066,-0.081543
609147608857,0.827637,-0.518555,-0.0766602
609147631333,0.831543,-0.522461,-0.0703125
609147646369,0.836914,-0.522461,-0.0742188
609147668834,0.828125,-0.520996,-0.0742188
609147691384,0.827637,-0.521484,-0.0742188
609147706441,0.82959,-0.519531,-0.0751953
609147728929,0.837402,-0.516113,-0.0776367
609147751361,0.826172,-0.520996,-0.0751953
609147766268,0.83252,-0.520996,-0.0742188
609147788886,0.83252,-0.520508,-0.0703125
609147811342,0.83252,-0.521484,-0.0751953
609147826416,0.828613,-0.519531,-0.0742188
609147848849,0.83252,-0.523438,-0.0722656
609147871333,0.828613,-0.512207,-0.074707
609147886399,0.826172,-0.521484,-0.0751953
609147908857,0.822266,-0.523926,-0.0751953
609147931399,0.833008,-0.521973,-0.0732422
609147946470,0.836914,-0.519043,-0.0732422
609147968844,0.833496,-0.520996,-0.0732422
609147991365,0.830566,-0.523438,-0.0722656
609148006434,0.828125,-0.52002,-0.0791016
609148028829,0.833008,-0.51709,-0.0742188
609148051387,0.828613,-0.516602,-0.0717773
609148066428,0.83252,-0.526367,-0.0825195
609148088828,0.834961,-0.527344,-0.0771484
609148111307,0.830078,-0.522461,-0.0761719
609148126337,0.827637,-0.517578,-0.0820312
609148148879,0.829102,-0.527832,-0.0771484
609148171396,0.830566,-0.517578,-0.0703125
609148186418,0.838867,-0.51709,-0.0703125
609148208866,0.83252,-0.522949,-0.0664062
609148231319,0.831055,-0.521973,-0.0756836
609148249209,0.833008,-0.518066,-0.0771484
609148268879,0.833984,-0.52002,-0.0717773
609148291349,0.824707,-0.520508,-0.0732422
609148307775,0.82373,-0.521484,-0.0766602
609148328846,0.82959,-0.519531,-0.0717773
609148351436,0.830078,-0.518066,-0.0766602
609148367764,0.831055,-0.524414,-0.074707
609148388926,0.834961,-0.524902,-0.0756836
609148411419,0.834961,-0.524414,-0.0698242
609148427775,0.831543,-0.520508,-0.0810547
609148450358,0.82959,-0.52002,-0.0766602
609148471473,0.834473,-0.528809,-0.0776367
609148487837,0.833984,-0.520508,-0.0805664
609148508985,0.835938,-0.517578,-0.0795898
609148531418,0.828613,-0.516602,-0.0825195
609148547805,0.828125,-0.522949,-0.074707
609148568930,0.829102,-0.523926,-0.0732422
609148591382,0.83252,-0.525879,-0.078125
609148607818,0.833496,-0.516602,-0.0795898
609148628839,0.828613,-0.519531,-0.074707
609148651386,0.828613,-0.52002,-0.078125
609148667825,0.830566,-0.51709,-0.0717773
609148688802,0.833496,-0.522461,-0.0673828
609148711420,0.836914,-0.516602,-0.074707
609148727850,0.833008,-0.524414,-0.0756836
609148748909,0.827637,-0.516602,-0.0727539
609148771422,0.828613,-0.53125,-0.0732422
609148787856,0.831055,-0.519043,-0.074707
609148808878,0.835449,-0.525879,-0.0751953
609148831457,0.832031,-0.519531,-0.0795898
609148847793,0.829102,-0.52002,-0.0771484
609148868954,0.833496,-0.525391,-0.0771484
609148891382,0.830078,-0.519043,-0.0791016
609148907823,0.832031,-0.52002,-0.0761719
609148928895,0.829102,-0.529297,-0.0761719
609148951341,0.834961,-0.521973,-0.0756836
609148967858,0.834473,-0.519043,-0.0766602
609148988919,0.83252,-0.52002,-0.0786133
609149011455,0.831543,-0.516113,-0.0795898
609149027846,0.828125,-0.519531,-0.0717773
609149048917,0.830566,-0.523926,-0.0727539
609149071460,0.836914,-0.523926,-0.0742188
609149087984,0.830566,-0.520508,-0.0771484
609149108920,0.830078,-0.519531,-0.0766602
609149131397,0.832031,-0.522949,-0.0708008
609149147855,0.826172,-0.515137,-0.078125
609149170360,0.83252,-0.518555,-0.0751953
609149191398,0.835938,-0.519531,-0.0727539
609149207766,0.832031,-0.524414,-0.0766602
609149230314,0.828613,-0.522949,-0.0683594
609149251405,0.82959,-0.516113,-0.0766602
609149268515,0.831055,-0.518066,-0.0727539
609149290318,0.833984,-0.522461,-0.0751953
609149311385,0.825684,-0.523926,-0.0703125
609149327832,0.82959,-0.526855,-0.0727539
609149350353,0.833984,-0.524414,-0.0703125
609149374316,0.834473,-0.519043,-0.0830078
609149387948,0.833496,-0.521484,-0.074707
609149410370,0.830078,-0.521973,-0.0776367
609149431421,0.826172,-0.521973,-0.0756836
609149447838,0.831543,-0.520996,-0.0795898
609149470339,0.834473,-0.519043,-0.0722656
609149491384,0.830566,-0.513672,-0.0771484
609149507807,0.833496,-0.523438,-0.0805664
609149530333,0.827148,-0.517578,-0.0737305
609149551431,0.825684,-0.525879,-0.078125
609149567876,0.821777,-0.527344,-0.0761719
609149590388,0.834961,-0.507324,-0.0766602
609149611419,0.842285,-0.517578,-0.0717773
609149627889,0.833496,-0.537598,-0.0683594
609149650389,0.824707,-0.530273,-0.0654297
609149671367,0.815918,-0.524414,-0.081543
609149687772,0.828613,-0.518555,-0.0717773
609149710285,0.841309,-0.519531,-0.0722656
609149731470,0.842285,-0.513184,-0.0776367
609149747791,0.829102,-0.530762,-0.0800781
609149770369,0.817871,-0.524902,-0.078125
609149791379,0.820312,-0.525391,-0.0766602
609149807841,0.830566,-0.522461,-0.0732422
609149830319,0.838379,-0.522461,-0.0756836
609149851507,0.841797,-0.519043,-0.0722656
609149867885,0.834473,-0.511719,-0.0791016
609149890356,0.829102,-0.53418,-0.0664062
609149911487,0.822754,-0.523926,-0.0786133
609149927940,0.826172,-0.514648,-0.0800781
609149950365,0.830566,-0.522949,-0.0771484
609149971445,0.834961,-0.52832,-0.0742188
609149987944,0.831543,-0.516113,-0.0820312
609150010322,0.832031,-0.522461,-0.0722656
609150031461,0.82959,-0.51416,-0.0766602
609150047948,0.831543,-0.522461,-0.074707
609150070300,0.83252,-0.520996,-0.0742188
609150091442,0.828125,-0.519043,-0.0830078
609150107884,0.828125,-0.529297,-0.0717773
609150130288,0.827148,-0.520508,-0.0766602
609150152847,0.833984,-0.522949,-0.0703125
609150167849,0.833008,-0.524414,-0.0712891
609150190347,0.827637,-0.518066,-0.0771484
609150213476,0.830078,-0.523926,-0.0756836
609150227854,0.833008,-0.527832,-0.0761719
609150250417,0.830566,-0.513672,-0.0751953
609150272939,0.832031,-0.523438,-0.0795898
609150296023,0.837891,-0.519531,-0.0737305
609150309663,0.82959,-0.520996,-0.0795898
609150332013,0.824219,-0.519531,-0.0766602
609150348567,0.83252,-0.520508,-0.0737305
609150369522,0.830078,-0.520996,-0.0712891
609150392068,0.82959,-0.519043,-0.0717773
609150408648,0.828613,-0.517578,-0.0795898
609150429596,0.826172,-0.52832,-0.0805664
609150452093,0.830078,-0.519531,-0.0786133
609150468544,0.833008,-0.515137,-0.0703125
609150490236,0.830566,-0.521973,-0.0722656
609150511979,0.835938,-0.523438,-0.0751953
609150528511,0.834473,-0.523438,-0.0825195
609150549636,0.830078,-0.528809,-0.0742188
609150572154,0.829102,-0.516113,-0.0766602
609150588482,0.827148,-0.529297,-0.0727539
609150609614,0.835449,-0.523438,-0.0761719
609150632044,0.832031,-0.521484,-0.0761719
609150654588,0.828125,-0.521973,-0.0717773
609150669641,0.835938,-0.52002,-0.0742188
609150692025,0.826172,-0.525879,-0.078125
609150708494,0.833496,-0.522461,-0.0761719
609150729637,0.82959,-0.513672,-0.0717773
609150753521,0.82959,-0.519043,-0.0830078
609150768313,0.825684,-0.522461,-0.0712891
609150789610,0.827637,-0.529297,-0.0732422
609150812079,0.836914,-0.520996,-0.0756836
609150828587,0.837891,-0.518555,-0.0756836
609150849609,0.82959,-0.521973,-0.0708008
609150872060,0.830078,-0.519531,-0.0708008
609150888490,0.820312,-0.521484,-0.0791016
609150909583,0.833984,-0.521973,-0.0776367
609150932023,0.829102,-0.522461,-0.0727539
609150948515,0.833008,-0.523926,-0.0771484
609150969716,0.830566,-0.520508,-0.0761719
609150992170,0.832031,-0.514648,-0.0737305
609151008553,0.830078,-0.520996,-0.074707
609151029681,0.825684,-0.520996,-0.074707
609151052087,0.833496,-0.513672,-0.0727539
609151067851,0.833008,-0.518555,-0.0688477
609151089642,0.833984,-0.52002,-0.0766602
609151111989,0.829102,-0.526855,-0.0795898
609151127784,0.833496,-0.522461,-0.074707
609151149623,0.833008,-0.521484,-0.0751953
609151172067,0.828125,-0.521484,-0.0795898
609151187869,0.82959,-0.519043,-0.074707
609151209627,0.82959,-0.523438,-0.0703125
609151232044,0.830078,-0.522461,-0.0742188
609151247897,0.833496,-0.526367,-0.0756836
609151271043,0.833984,-0.518555,-0.078125
609151292016,0.833496,-0.515625,-0.0688477
609151307939,0.827637,-0.522461,-0.0737305
609151331022,0.828613,-0.522949,-0.0786133
609151352169,0.832031,-0.520996,-0.0810547
609151367940,0.83252,-0.519531,-0.0766602
609151391018,0.835449,-0.525391,-0.0727539
609151412084,0.836914,-0.523926,-0.0708008
609151427995,0.82959,-0.522949,-0.0737305
609151451021,0.825195,-0.519043,-0.0751953
609151472091,0.831055,-0.526855,-0.0800781
609151487846,0.831055,-0.521973,-0.0756836
609151511019,0.830078,-0.516602,-0.0742188
609151532101,0.83252,-0.526367,-0.0751953
609151547981,0.827148,-0.522461,-0.0766602
609151571081,0.827637,-0.522949,-0.0761719
609151592113,0.835449,-0.518066,-0.0751953
609151607798,0.830078,-0.519531,-0.0727539
609151631017,0.83252,-0.515137,-0.0708008
609151652107,0.833496,-0.52002,-0.078125
609151667913,0.830566,-0.523438,-0.0786133
609151691007,0.833984,-0.526855,-0.0693359
609151712064,0.832031,-0.528809,-0.0756836
609151728342,0.837402,-0.52002,-0.0742188
609151751060,0.831543,-0.528809,-0.0761719
609151772058,0.821777,-0.518066,-0.0756836
609151787935,0.830566,-0.524902,-0.0751953
609151811029,0.83252,-0.51709,-0.0727539
609151833569,0.83252,-0.518066,-0.0761719
609151847938,0.828613,-0.525879,-0.0756836
609151871074,0.828613,-0.522949,-0.0761719
609151892169,0.831543,-0.523926,-0.0805664
609151907993,0.828125,-0.521973,-0.0742188
609151930386,0.831055,-0.520508,-0.0761719
609151952021,0.83252,-0.523438,-0.0751953
609151967993,0.833984,-0.515137,-0.0771484
609151991085,0.833496,-0.52002,-0.0776367
609152012224,0.830078,-0.524414,-0.0727539
609152027943,0.825684,-0.518555,-0.0756836
609152050368,0.82959,-0.52832,-0.0751953
609152072112,0.831055,-0.520508,-0.0776367
609152087943,0.831055,-0.518066,-0.081543
609152110387,0.834961,-0.525879,-0.0742188
609152132069,0.831055,-0.522461,-0.078125
609152147949,0.828125,-0.51709,-0.0756836
609152170392,0.833984,-0.527832,-0.0737305
609152192138,0.832031,-0.511719,-0.0712891
609152207983,0.836914,-0.518555,-0.0786133
609152230457,0.828613,-0.531738,-0.0717773
609152253520,0.82666,-0.527832,-0.0771484
609152267921,0.828613,-0.519531,-0.0756836
609152290457,0.831543,-0.515625,-0.074707
609152313555,0.834961,-0.517578,-0.0732422
609152327964,0.83252,-0.520996,-0.0751953
609152350395,0.828613,-0.527832,-0.0742188
609152373579,0.824707,-0.523438,-0.0820312
609152387886,0.831055,-0.51709,-0.0766602
609152410369,0.833984,-0.518555,-0.0698242
609152433514,0.831543,-0.51709,-0.0732422
609152447898,0.830078,-0.525391,-0.074707
609152470386,0.83252,-0.517578,-0.0717773
609152493559,0.833008,-0.519531,-0.0742188
609152507937,0.822266,-0.515625,-0.0703125
609152530442,0.838379,-0.525391,-0.0717773
609152553648,0.83252,-0.530273,-0.078125
609152567963,0.833984,-0.534668,-0.0629883
609152590449,0.841309,-0.530273,-0.0546875
609152613511,0.831543,-0.512695,-0.0727539
609152627933,0.839355,-0.556641,-0.0385742
609152650490,0.827148,-0.540527,-0.0766602
609152673609,0.82666,-0.523926,-0.0820312
609152687880,0.867188,-0.511719,-0.0698242
609152710416,0.881348,-0.515625,-0.0644531
609152733564,0.875488,-0.519531,-0.0786133
609152754588,0.850586,-0.51123,-0.0878906
609152770439,0.821777,-0.5,-0.0961914
609152793578,0.834961,-0.499512,-0.0776367
609152814699,0.84668,-0.531738,-0.0668945
609152830366,0.833984,-0.51123,-0.0810547
609152854265,0.827148,-0.518066,-0.0771484
609152874608,0.825684,-0.516113,-0.081543
609152898573,0.830566,-0.527344,-0.0800781
609152913647,0.813477,-0.515137,-0.09375
609152934633,0.802734,-0.484863,-0.0976562
609152950435,0.815918,-0.495117,-0.0800781
609152972901,0.804688,-0.461426,-0.0805664
609152994632,0.827148,-0.459961,-0.0751953
609153010338,0.82959,-0.487305,-0.0708008
609153032896,0.847656,-0.502441,-0.0366211
609153055319,0.845703,-0.493652,-0.0439453
609153070368,0.82959,-0.498535,-0.0395508
609153092901,0.8125,-0.490723,-0.050293
609153114604,0.815918,-0.486816,-0.0400391
609153130426,0.838867,-0.492676,-0.0209961
609153152882,0.889648,-0.497559,-0.00390625
609153176067,0.911133,-0.51123,-0.012207
609153190362,0.895996,-0.530762,-0.0146484
609153212893,0.853027,-0.507812,-0.0224609
609153236017,0.822266,-0.507812,-0.0478516
609153250375,0.785645,-0.530762,-0.059082
609153272888,0.78125,-0.513184,-0.0708008
609153296089,0.781738,-0.505371,-0.0751953
609153310396,0.770508,-0.534668,-0.0673828
609153332898,0.780762,-0.54834,-0.0766602
609153356019,0.793945,-0.543945,-0.0473633
609153370340,0.806641,-0.554688,-0.0395508
609153392901,0.818848,-0.569336,-0.0371094
609153416045,0.835938,-0.567871,-0.0454102
609153437091,0.849121,-0.57373,-0.043457
609153452891,0.841309,-0.564941,-0.0512695
609153476020,0.830566,-0.549316,-0.0615234
609153497069,0.820801,-0.55957,-0.0688477
609153513323,0.820312,-0.567871,-0.065918
609153536068,0.807129,-0.571289,-0.0673828
609153550384,0.815918,-0.560547,-0.0688477
609153572892,0.807129,-0.571289,-0.0585938
609153596041,0.814453,-0.574707,-0.0644531
609153610412,0.8125,-0.553223,-0.0727539
609153633315,0.819336,-0.560547,-0.0522461
609153656051,0.826172,-0.565918,-0.065918
609153678553,0.836914,-0.550293,-0.0537109
609153692903,0.819336,-0.566406,-0.0522461
609153716015,0.811523,-0.567383,-0.0600586
609153737149,0.801758,-0.567871,-0.0581055
609153752908,0.790527,-0.584961,-0.0517578
609153776039,0.785156,-0.59082,-0.0498047
609153797101,0.776367,-0.578613,-0.0722656
609153812888,0.783203,-0.565918,-0.0893555
609153836022,0.790039,-0.561035,-0.0664062
609153857126,0.801758,-0.56543,-0.0610352
609153872887,0.814453,-0.568848,-0.0507812
609153896087,0.821777,-0.57373,-0.0668945
609153917089,0.80957,-0.559082,-0.0795898
609153932895,0.802246,-0.562012,-0.0830078
609153946451,0.791504,-0.579102,-0.0737305
609153968991,0.788574,-0.582031,-0.0693359
609153992140,0.799316,-0.585938,-0.0605469
609154006505,0.800781,-0.581055,-0.0585938
609154028979,0.799316,-0.574707,-0.0698242
609154052154,0.791504,-0.569824,-0.0727539
609154066458,0.790039,-0.579102,-0.0708008
609154088997,0.797363,-0.583984,-0.0673828
609154112109,0.796387,-0.575684,-0.0673828
609154126505,0.796875,-0.575684,-0.0703125
609154148941,0.790039,-0.57959,-0.0722656
609154172123,0.791016,-0.57666,-0.0688477
609154186451,0.797363,-0.585938,-0.0678711
609154208973,0.802246,-0.574219,-0.0771484
609154232108,0.800293,-0.575195,-0.0766602
609154246443,0.793457,-0.57959,-0.0673828
609154268976,0.791016,-0.582031,-0.0639648
609154292094,0.788086,-0.574219,-0.0649414
609154306466,0.791992,-0.568359,-0.0683594
609154328960,0.80127,-0.577637,-0.0732422
609154352155,0.803223,-0.570801,-0.0629883
609154366455,0.798828,-0.578613,-0.059082
609154390394,0.796387,-0.575684,-0.065918
609154412095,0.79248,-0.577637,-0.0668945
609154426435,0.790039,-0.577637,-0.0678711
609154448958,0.793457,-0.574707,-0.0703125
609154472146,0.791016,-0.569336,-0.0644531
609154486461,0.794922,-0.572266,-0.0625
609154508963,0.806152,-0.570312,-0.0654297
609154532117,0.806152,-0.574219,-0.0693359
609154546522,0.799805,-0.57373,-0.0693359
609154568938,0.794922,-0.574219,-0.0610352
609154592134,0.793945,-0.57959,-0.0688477
609154606429,0.803223,-0.570312,-0.0698242
609154628978,0.799316,-0.575195,-0.0625
609154652127,0.802734,-0.579102,-0.0683594
609154666440,0.795898,-0.57959,-0.0600586
609154697760,0.793457,-0.573242,-0.0722656
609154712101,0.791016,-0.57373,-0.0795898
609154726469,0.784668,-0.577148,-0.0712891
609154748940,0.790039,-0.578613,-0.0649414
609154772193,0.792969,-0.578613,-0.0717773
609154786423,0.795898,-0.577637,-0.0625
609154808941,0.80127,-0.570312,-0.0673828
609154832088,0.798828,-0.570312,-0.0678711
609154846486,0.796387,-0.572754,-0.0766602
609154868997,0.797363,-0.575195,-0.0678711
609154891926,0.80127,-0.572754,-0.0649414
609154909384,0.802734,-0.573242,-0.0610352
609154928983,0.808105,-0.573242,-0.0673828
609154952182,0.807129,-0.572266,-0.0610352
609154966447,0.796875,-0.576172,-0.0581055
609154988934,0.794922,-0.577637,-0.0688477
609155011469,0.783691,-0.578125,-0.0678711
609155026466,0.782227,-0.570801,-0.0673828
609155049110,0.787598,-0.57373,-0.0688477
609155071423,0.798828,-0.57666,-0.0678711
609155086459,0.807617,-0.580566,-0.0620117
609155108972,0.802734,-0.577148,-0.0620117
609155131502,0.801758,-0.569824,-0.0703125
609155146496,0.791504,-0.572754,-0.0732422
609155169026,0.788574,-0.574707,-0.0673828
609155192924,0.792969,-0.572754,-0.0703125
609155214711,0.79248,-0.579102,-0.0664062
609155229011,0.796875,-0.577637,-0.0620117
