myot,myox,myoy,myoz
1455557676,myox,myoy,myoz
610585112284,0.452637,-0.0541992,0.885742
610585133605,0.45166,-0.046875,0.892578
610585148646,0.458984,-0.0419922,0.885742
610585173542,0.463379,-0.0288086,0.887207
610585193576,0.478516,-0.0175781,0.883789
610585208650,0.478027,-0.0175781,0.88916
610585247910,0.470703,-0.0146484,0.883301
610585250008,0.47168,-0.0214844,0.888184
610585270115,0.466797,-0.0219727,0.879883
610585291517,0.464844,-0.0283203,0.883301
610585309971,0.465332,-0.0444336,0.881836
610585330099,0.459473,-0.0556641,0.888672
610585365958,0.460449,-0.0576172,0.895996
610585376074,0.469727,-0.0605469,0.876465
610585389958,0.472656,-0.0625,0.883789
610585411014,0.47168,-0.0537109,0.89209
610585427383,0.459473,-0.0375977,0.896484
610585450002,0.454102,-0.0214844,0.881348
610585470988,0.466309,-0.0322266,0.872559
610585487426,0.46875,-0.0488281,0.89209
610585509900,0.461914,-0.0454102,0.90625
610585530926,0.461914,-0.0488281,0.884766
610585554051,0.463867,-0.0576172,0.881348
610585569904,0.459473,-0.0517578,0.882812
610585591551,0.458008,-0.0429688,0.896973
610585606550,0.458496,-0.0410156,0.887207
610585629053,0.463867,-0.0400391,0.887695
610585651555,0.470703,-0.0517578,0.880371
610585666569,0.467285,-0.0458984,0.878906
610585689103,0.459473,-0.0195312,0.882812
610585711617,0.466797,-0.0258789,0.883301
610585726580,0.466797,-0.0400391,0.88916
610585749153,0.468262,-0.0458984,0.88916
610585771661,0.461426,-0.0410156,0.895508
610585786596,0.457031,-0.0415039,0.883789
610585809087,0.468262,-0.0493164,0.878906
610585831627,0.476562,-0.0620117,0.885254
610585846661,0.472168,-0.0551758,0.891602
610585869200,0.469727,-0.0439453,0.88623
610585891633,0.461914,-0.0444336,0.87793
610585906608,0.472656,-0.043457,0.87207
610585929055,0.476074,-0.0541992,0.874023
610585951609,0.469238,-0.0629883,0.893066
610585966568,0.46582,-0.0546875,0.886719
610585989069,0.463379,-0.0649414,0.878418
610586011567,0.474609,-0.0615234,0.882324
610586026570,0.491211,-0.0654297,0.87207
610586049081,0.491211,-0.0708008,0.874512
610586071571,0.478516,-0.0795898,0.878906
610586086591,0.444336,-0.0473633,0.912598
610586109050,0.444824,-0.034668,0.884277
610586131551,0.459473,-0.0483398,0.884766
610586146552,0.483887,-0.0649414,0.885742
610586169049,0.489746,-0.0644531,0.879395
610586191694,0.490723,-0.0649414,0.871582
610586206662,0.483887,-0.0766602,0.874023
610586229098,0.479492,-0.0727539,0.880371
610586251674,0.477051,-0.0751953,0.880859
610586266734,0.463379,-0.0576172,0.875488
610586289124,0.459473,-0.0585938,0.874023
610586311746,0.464844,-0.0737305,0.875488
610586326589,0.472656,-0.0634766,0.89209
610586349186,0.472168,-0.0532227,0.887695
610586371576,0.472168,-0.0571289,0.884277
610586388018,0.466309,-0.0625,0.89209
610586409096,0.458496,-0.0625,0.883789
610586431548,0.45752,-0.0625,0.883789
610586448003,0.459961,-0.0610352,0.883789
610586469104,0.465332,-0.0620117,0.885742
610586491610,0.467285,-0.0722656,0.881348
610586508011,0.47168,-0.081543,0.883789
610586529057,0.474121,-0.0854492,0.878906
610586551566,0.475098,-0.0771484,0.88916
610586568026,0.472656,-0.0678711,0.888184
610586589062,0.466309,-0.0678711,0.885742
610586604894,0.458984,-0.0644531,0.887207
610586628152,0.456055,-0.0532227,0.890137
610586649080,0.450684,-0.0292969,0.881348
610586671655,0.458008,-0.0327148,0.889648
610586688115,0.463867,-0.043457,0.88916
610586709154,0.466797,-0.0483398,0.880859
610586731674,0.46875,-0.0717773,0.89209
610586748094,0.475586,-0.0742188,0.867188
610586769224,0.484375,-0.0864258,0.875977
610586784996,0.476562,-0.0791016,0.878906
610586808033,0.477539,-0.0698242,0.87793
610586829089,0.473633,-0.0664062,0.88623
610586844898,0.473633,-0.0595703,0.883789
610586868042,0.471191,-0.0585938,0.875977
610586889101,0.473145,-0.0605469,0.881836
610586904915,0.471191,-0.059082,0.882812
610586927373,0.480469,-0.059082,0.883789
610586950538,0.474121,-0.059082,0.88623
610586964892,0.466797,-0.050293,0.878906
610586987345,0.459961,-0.0449219,0.880859
610587009101,0.462891,-0.046875,0.879395
610587031569,0.467285,-0.0595703,0.880371
610587047423,0.470215,-0.0654297,0.884766
610587069061,0.47168,-0.0620117,0.883789
610587091710,0.468262,-0.0507812,0.888672
610587107407,0.470703,-0.0371094,0.884766
610587130547,0.466309,-0.0263672,0.881836
610587144921,0.466797,-0.0390625,0.874023
610587167405,0.471191,-0.0585938,0.886719
610587190532,0.477539,-0.0678711,0.88623
610587204897,0.475098,-0.0698242,0.889648
610587227414,0.466797,-0.0585938,0.882812
610587250559,0.468262,-0.0478516,0.880371
610587264909,0.470215,-0.0463867,0.885254
610587287373,0.466309,-0.0532227,0.876465
610587310517,0.467285,-0.0581055,0.885742
610587324895,0.478516,-0.0620117,0.884766
610587347343,0.474121,-0.0629883,0.881348
610587370550,0.479004,-0.0639648,0.880371
610587384895,0.47168,-0.0605469,0.875
610587407371,0.46582,-0.0551758,0.88623
610587430554,0.466797,-0.0605469,0.890137
610587451602,0.466309,-0.046875,0.884766
610587467343,0.475586,-0.0522461,0.880859
610587490579,0.474609,-0.0639648,0.880859
610587513061,0.471191,-0.0644531,0.881348
610587527391,0.463867,-0.0664062,0.884277
610587550555,0.466309,-0.0585938,0.87793
610587571624,0.463379,-0.0507812,0.886719
610587587443,0.465332,-0.0390625,0.885742
610587610582,0.471191,-0.0415039,0.882812
610587631646,0.474609,-0.0527344,0.87793
610587647385,0.470703,-0.059082,0.879883
610587670523,0.46875,-0.0605469,0.879883
610587691572,0.464844,-0.0546875,0.878418
610587707392,0.466797,-0.0639648,0.881836
610587730582,0.470215,-0.0649414,0.883301
610587751607,0.475098,-0.0712891,0.88623
610587767389,0.474609,-0.065918,0.879395
610587790549,0.464844,-0.0615234,0.884277
610587811576,0.462891,-0.0561523,0.888672
610587827361,0.466797,-0.0566406,0.884277
610587850583,0.470703,-0.0541992,0.889648
610587871653,0.481934,-0.0527344,0.879395
610587887457,0.481934,-0.0537109,0.876953
610587909901,0.473145,-0.0639648,0.882324
610587931592,0.480957,-0.0874023,0.873535
610587947394,0.485352,-0.0913086,0.883789
610587969901,0.480469,-0.0893555,0.886719
610587991596,0.464844,-0.059082,0.885254
610588007392,0.45752,-0.0322266,0.880371
610588029896,0.468262,-0.0258789,0.881836
610588053022,0.476074,-0.0297852,0.877441
610588067426,0.477051,-0.0439453,0.891602
610588089900,0.469727,-0.0507812,0.878906
610588113078,0.462891,-0.0546875,0.869629
610588127424,0.470215,-0.0488281,0.871094
610588149897,0.473633,-0.0463867,0.88916
610588173022,0.473633,-0.0473633,0.886719
610588187450,0.476074,-0.0395508,0.890137
610588209919,0.476074,-0.0395508,0.881836
610588233072,0.47168,-0.0375977,0.878418
610588247401,0.472168,-0.0424805,0.876953
610588269894,0.476562,-0.0478516,0.881348
610588293048,0.469238,-0.0541992,0.885742
610588307391,0.472168,-0.0571289,0.885742
610588330321,0.470215,-0.0522461,0.873047
610588353072,0.466797,-0.0444336,0.881836
610588367398,0.463379,-0.0429688,0.881348
610588389901,0.469238,-0.0473633,0.886719
610588420575,0.467285,-0.0449219,0.890137
610588427374,0.471191,-0.0454102,0.879883
610588449913,0.470703,-0.0483398,0.878906
610588473066,0.478516,-0.0458984,0.885742
610588487420,0.471191,-0.0498047,0.88623
610588509919,0.473145,-0.0527344,0.882812
610588533066,0.468262,-0.0488281,0.885254
610588554123,0.472656,-0.0405273,0.888672
610588569892,0.476562,-0.0395508,0.881836
610588593069,0.477051,-0.0400391,0.880859
610588614139,0.475586,-0.0395508,0.879395
610588629911,0.469727,-0.0415039,0.883301
610588653068,0.46582,-0.0390625,0.881836
610588674134,0.475098,-0.0410156,0.878418
610588689938,0.475098,-0.043457,0.880859
610588713051,0.469238,-0.0458984,0.885742
610588734154,0.471191,-0.0473633,0.884766
610588749933,0.470215,-0.0400391,0.87793
610588773120,0.469238,-0.0371094,0.886719
610588794155,0.468262,-0.0375977,0.882324
610588809902,0.472168,-0.0400391,0.876953
610588832402,0.471191,-0.0488281,0.875488
610588854128,0.475098,-0.0439453,0.884277
610588869900,0.472168,-0.0400391,0.880371
610588892458,0.472168,-0.0400391,0.884766
610588914107,0.47168,-0.043457,0.882812
610588929945,0.473633,-0.0444336,0.882324
610588952417,0.469727,-0.0439453,0.882812
610588974150,0.470215,-0.043457,0.884766
610588989938,0.474121,-0.0454102,0.888672
610589012437,0.476074,-0.0449219,0.883301
610589035588,0.47998,-0.0463867,0.873535
610589049895,0.466309,-0.0454102,0.878906
610589072403,0.469238,-0.0498047,0.881836
610589095549,0.467773,-0.0483398,0.884766
610589109984,0.470215,-0.0424805,0.889648
610589132418,0.474121,-0.0390625,0.883301
610589155345,0.476562,-0.0375977,0.878906
610589169968,0.476562,-0.0419922,0.876953
610589192475,0.477051,-0.0473633,0.877441
610589215622,0.469727,-0.0507812,0.882812
610589230012,0.468262,-0.0488281,0.883789
610589252393,0.466797,-0.0444336,0.881836
610589275545,0.476074,-0.0449219,0.879883
610589289947,0.472168,-0.0429688,0.882324
610589312461,0.473145,-0.0498047,0.885742
610589326009,0.474121,-0.046875,0.881836
610589357298,0.472656,-0.0483398,0.881836
610589363449,0.47168,-0.0449219,0.878418
610589386009,0.469238,-0.0385742,0.883789
610589409222,0.47168,-0.0478516,0.883301
610589423515,0.472168,-0.0449219,0.885742
610589445999,0.470703,-0.0463867,0.884277
610589469129,0.473633,-0.0449219,0.883301
610589483571,0.470703,-0.0395508,0.884766
610589505933,0.470703,-0.0405273,0.884277
610589529170,0.469727,-0.0498047,0.87793
610589543557,0.469727,-0.0454102,0.884277
610589566018,0.473145,-0.0478516,0.882324
610589589130,0.472656,-0.0507812,0.880859
610589603474,0.47168,-0.0478516,0.884766
610589626136,0.468262,-0.0454102,0.884766
610589649264,0.469238,-0.0356445,0.885742
610589663605,0.473633,-0.0385742,0.878906
610589686115,0.473633,-0.0400391,0.878418
610589709289,0.469727,-0.0449219,0.881836
610589723621,0.470703,-0.0541992,0.879395
610589746020,0.470215,-0.0507812,0.881836
610589769230,0.466309,-0.0473633,0.886719
610589783465,0.470215,-0.0419922,0.881348
610589806040,0.473145,-0.0410156,0.876953
610589829174,0.472656,-0.0478516,0.88623
610589843505,0.47168,-0.0419922,0.885254
610589865965,0.472168,-0.0454102,0.888672
610589889150,0.476074,-0.0522461,0.887207
610589903546,0.474609,-0.0473633,0.879395
610589925997,0.474121,-0.0419922,0.875
610589948590,0.471191,-0.0419922,0.882324
610589963513,0.467285,-0.0415039,0.883301
610589986095,0.467285,-0.0395508,0.88623
610590008554,0.464844,-0.0400391,0.888184
610590023574,0.467285,-0.0449219,0.887207
610590046093,0.471191,-0.0454102,0.877441
610590068535,0.477539,-0.0488281,0.87793
610590083533,0.479492,-0.0463867,0.883301
610590105988,0.476074,-0.0439453,0.884277
610590128521,0.475586,-0.0410156,0.883301
610590143519,0.470215,-0.043457,0.878418
610590166093,0.46875,-0.0454102,0.882812
610590188542,0.470215,-0.0522461,0.885254
610590203556,0.46875,-0.0556641,0.882812
610590225978,0.467285,-0.0551758,0.883789
610590248590,0.475098,-0.0449219,0.881836
610590263665,0.471191,-0.0444336,0.878906
610590286094,0.473145,-0.0405273,0.883789
610590308526,0.473145,-0.0478516,0.879883
610590323518,0.470215,-0.0488281,0.884766
610590345992,0.468262,-0.0517578,0.879395
610590368572,0.470215,-0.046875,0.88623
610590383594,0.472168,-0.0478516,0.883789
610590405951,0.474121,-0.0419922,0.884766
610590428495,0.473145,-0.043457,0.887695
610590443527,0.468262,-0.0415039,0.890625
610590466035,0.467285,-0.0483398,0.880371
610590488515,0.470703,-0.050293,0.888672
610590503482,0.470703,-0.0473633,0.881348
610590526017,0.473633,-0.0498047,0.884277
610590549965,0.472656,-0.0488281,0.877441
610590563616,0.473633,-0.043457,0.886719
610590586100,0.477539,-0.050293,0.883789
610590608487,0.47168,-0.0375977,0.884766
610590623579,0.46582,-0.043457,0.882324
610590646076,0.46875,-0.0483398,0.881836
610590668595,0.473633,-0.0478516,0.88916
610590683506,0.473633,-0.0483398,0.881836
610590705977,0.467285,-0.0488281,0.875488
610590728540,0.475586,-0.0449219,0.882812
610590744953,0.470703,-0.0429688,0.878906
610590766011,0.467773,-0.0410156,0.880859
610590788507,0.472168,-0.0415039,0.877441
610590804926,0.470215,-0.0512695,0.880371
610590826044,0.47168,-0.0512695,0.880371
610590848569,0.472168,-0.0507812,0.883789
610590864998,0.476074,-0.0473633,0.886719
610590886094,0.475586,-0.0458984,0.882812
610590908588,0.475098,-0.0473633,0.883789
610590924950,0.469238,-0.050293,0.87793
610590946045,0.470703,-0.0493164,0.884277
610590968507,0.47168,-0.0444336,0.885254
610590984938,0.472168,-0.0444336,0.882812
610591006017,0.473145,-0.0400391,0.876465
610591028509,0.469727,-0.043457,0.881348
610591044973,0.473145,-0.0493164,0.884277
610591066006,0.46875,-0.0478516,0.886719
610591088541,0.47168,-0.0488281,0.882812
610591106422,0.471191,-0.0458984,0.881348
610591126008,0.474609,-0.046875,0.886719
610591148479,0.470215,-0.043457,0.885742
610591164972,0.471191,-0.0424805,0.876953
610591185968,0.473145,-0.0429688,0.881836
610591208649,0.474121,-0.0429688,0.883789
610591225000,0.46875,-0.0400391,0.880371
610591246056,0.46875,-0.0458984,0.883301
610591268638,0.470215,-0.046875,0.887207
610591285055,0.475098,-0.0410156,0.883301
610591306176,0.472168,-0.0449219,0.883301
610591328605,0.472656,-0.0444336,0.88623
610591344945,0.475098,-0.0424805,0.881348
610591366122,0.474121,-0.0366211,0.884766
610591388539,0.473145,-0.0419922,0.886719
610591404946,0.466797,-0.0454102,0.878906
610591425975,0.46582,-0.046875,0.880371
610591448518,0.470215,-0.0473633,0.887207
610591464970,0.46875,-0.0439453,0.878906
610591486066,0.471191,-0.0444336,0.880371
610591508640,0.475098,-0.0405273,0.883301
610591524992,0.474121,-0.0371094,0.884766
610591546129,0.47168,-0.0336914,0.882324
610591568626,0.469238,-0.0371094,0.884766
610591585040,0.470215,-0.0385742,0.884277
610591606065,0.470215,-0.043457,0.883301
610591628579,0.473145,-0.0415039,0.887207
610591645002,0.469727,-0.043457,0.880371
610591667454,0.470703,-0.0400391,0.884277
610591688509,0.467773,-0.0395508,0.882812
610591704983,0.466797,-0.0380859,0.883301
610591727502,0.471191,-0.0380859,0.884766
610591748621,0.467773,-0.0473633,0.882812
610591765091,0.476562,-0.0454102,0.882812
610591787527,0.473633,-0.0410156,0.884766
610591808597,0.473145,-0.0380859,0.884277
610591825050,0.472168,-0.0336914,0.887207
610591853592,0.469727,-0.0351562,0.882812
610591868551,0.467285,-0.0395508,0.87793
610591884967,0.472656,-0.046875,0.88916
610591907496,0.47168,-0.0449219,0.883301
610591928544,0.470215,-0.043457,0.891602
610591944996,0.470215,-0.0361328,0.884766
610591967507,0.470215,-0.0400391,0.881836
610591988525,0.472168,-0.0415039,0.882324
610592005006,0.474121,-0.043457,0.88916
610592027577,0.472168,-0.0439453,0.883301
610592048578,0.469238,-0.0424805,0.880859
610592065103,0.469727,-0.0419922,0.878418
610592087513,0.472168,-0.0400391,0.888672
610592108595,0.469727,-0.0400391,0.882812
610592124969,0.469238,-0.0429688,0.879883
610592147525,0.472656,-0.0493164,0.885742
610592168625,0.472656,-0.0488281,0.881348
610592185061,0.47168,-0.0429688,0.885254
610592213580,0.469727,-0.0439453,0.88623
610592228537,0.473633,-0.0415039,0.887695
610592245007,0.471191,-0.0419922,0.887207
610592267591,0.473145,-0.0429688,0.876953
610592288501,0.471191,-0.0463867,0.884766
610592305001,0.471191,-0.0473633,0.881836
610592327484,0.47168,-0.046875,0.879395
610592348617,0.471191,-0.043457,0.882812
610592365066,0.472656,-0.0419922,0.884277
610592387569,0.477539,-0.0419922,0.882812
610592408603,0.471191,-0.0449219,0.882812
610592425068,0.466797,-0.0419922,0.881836
610592447554,0.473633,-0.0419922,0.884277
610592468682,0.466309,-0.0405273,0.875488
610592492591,0.474609,-0.0488281,0.884766
610592507505,0.472656,-0.0493164,0.886719
610592528536,0.470703,-0.0454102,0.879883
610592544946,0.471191,-0.0493164,0.881348
610592567554,0.464844,-0.0507812,0.888184
610592588554,0.464844,-0.0395508,0.88623
610592605020,0.472656,-0.0415039,0.87793
610592627522,0.473633,-0.0463867,0.883301
610592649995,0.471191,-0.0512695,0.888672
610592665021,0.473633,-0.0473633,0.887207
610592687493,0.472168,-0.0410156,0.880859
610592710095,0.472168,-0.0351562,0.880371
610592725098,0.472168,-0.0410156,0.883301
610592747552,0.473145,-0.0473633,0.884277
610592769997,0.466797,-0.0458984,0.884277
610592786477,0.468262,-0.0385742,0.880371
610592807498,0.469727,-0.0385742,0.884277
610592830084,0.467773,-0.0375977,0.883789
610592851187,0.468262,-0.0424805,0.888672
610592867531,0.468262,-0.0444336,0.882812
610592890071,0.470703,-0.0498047,0.879395
610592906485,0.473145,-0.046875,0.880371
610592927494,0.471191,-0.0419922,0.879395
610592949989,0.47168,-0.0400391,0.879395
610592966478,0.47168,-0.0395508,0.878906
610592987506,0.470215,-0.0424805,0.887695
610593010043,0.46875,-0.0507812,0.879883
610593026569,0.472168,-0.0498047,0.88623
610593048996,0.470703,-0.0537109,0.888184
610593070069,0.471191,-0.0478516,0.884277
610593091823,0.470703,-0.0429688,0.885254
610593106769,0.473633,-0.0400391,0.888672
610593129269,0.473145,-0.0419922,0.879395
610593151727,0.470215,-0.0400391,0.883789
610593166685,0.466797,-0.043457,0.881348
610593189212,0.470215,-0.0424805,0.880371
610593211765,0.470703,-0.0410156,0.882324
610593226805,0.467773,-0.0385742,0.876953
610593249293,0.474121,-0.0463867,0.88623
610593271722,0.473633,-0.0439453,0.887695
610593286821,0.46875,-0.0444336,0.88916
610593309252,0.466309,-0.0429688,0.885742
610593331748,0.469238,-0.0375977,0.877441
610593346838,0.466797,-0.0400391,0.88623
610593369247,0.467773,-0.0458984,0.88623
610593391803,0.472656,-0.050293,0.882812
610593406803,0.472168,-0.0507812,0.881836
610593429212,0.470215,-0.0483398,0.882324
610593451702,0.473145,-0.0400391,0.88916
610593466826,0.46875,-0.0385742,0.884277
610593489240,0.468262,-0.0390625,0.883789
610593511808,0.470703,-0.0454102,0.882324
610593526772,0.472656,-0.0498047,0.881348
610593549303,0.472168,-0.0483398,0.879883
610593571854,0.470215,-0.0415039,0.876465
610593586817,0.470215,-0.0395508,0.886719
610593609240,0.46875,-0.0395508,0.88623
610593631750,0.466309,-0.0380859,0.883789
610593646793,0.471191,-0.0429688,0.885254
610593669315,0.474609,-0.046875,0.883301
610593685119,0.471191,-0.0415039,0.880859
610593706827,0.473145,-0.0449219,0.887695
610593729324,0.46582,-0.0424805,0.886719
610593745077,0.469727,-0.0444336,0.881348
610593768271,0.470215,-0.0415039,0.879883
610593789291,0.470703,-0.0424805,0.882324
610593805100,0.469727,-0.043457,0.889648
610593828216,0.470215,-0.0454102,0.885254
610593849323,0.470215,-0.0463867,0.885742
610593865065,0.471191,-0.0415039,0.880859
610593888223,0.469727,-0.043457,0.890137
610593909394,0.472656,-0.0419922,0.883789
610593925089,0.470703,-0.0454102,0.888672
610593948242,0.474121,-0.0458984,0.885254
610593969280,0.470215,-0.0415039,0.886719
610593985114,0.473145,-0.0454102,0.888184
610594008223,0.470703,-0.0478516,0.884766
610594029214,0.469238,-0.043457,0.887207
610594045038,0.467285,-0.0419922,0.885254
610594068231,0.470703,-0.0405273,0.88623
610594089258,0.469727,-0.0366211,0.881348
610594105105,0.469238,-0.0400391,0.881836
610594128268,0.46875,-0.043457,0.887207
610594149334,0.466797,-0.0410156,0.882812
610594165096,0.469727,-0.0444336,0.880371
610594188270,0.47168,-0.0483398,0.875
610594209357,0.47168,-0.0429688,0.881836
610594225014,0.473633,-0.043457,0.882812
610594248282,0.469238,-0.0410156,0.888184
610594269329,0.465332,-0.0341797,0.880859
610594285097,0.470215,-0.0415039,0.881836
610594308254,0.466797,-0.0410156,0.886719
610594329270,0.472656,-0.0458984,0.882812
610594345041,0.47168,-0.050293,0.880371
610594368278,0.471191,-0.0517578,0.888672
610594389369,0.469727,-0.043457,0.879883
610594405014,0.466797,-0.0419922,0.885742
610594428259,0.469238,-0.0356445,0.887695
610594449330,0.466797,-0.0429688,0.882812
610594465041,0.47168,-0.0512695,0.884766
610594488238,0.476562,-0.0517578,0.883301
610594509394,0.474121,-0.046875,0.885742
610594525109,0.469727,-0.0366211,0.887207
610594547570,0.46875,-0.0405273,0.885254
610594569324,0.469727,-0.0429688,0.883301
610594585137,0.469238,-0.0478516,0.879883
610594607608,0.475098,-0.0458984,0.881836
610594629326,0.475586,-0.0478516,0.882812
610594645082,0.470703,-0.0415039,0.885254
610594667618,0.470215,-0.0444336,0.881348
610594690783,0.466309,-0.0405273,0.88623
610594711789,0.469238,-0.0415039,0.883789
610594727655,0.467773,-0.0439453,0.883789
610594750790,0.469727,-0.0478516,0.887207
610594765110,0.469727,-0.0439453,0.885742
610594787616,0.46875,-0.0375977,0.883789
610594810702,0.468262,-0.0415039,0.877441
610594825117,0.475098,-0.0419922,0.885254
610594847546,0.468262,-0.0458984,0.883301
610594870788,0.46875,-0.0444336,0.884277
610594885095,0.47168,-0.0444336,0.889648
610594907601,0.46875,-0.0390625,0.884766
610594930764,0.471191,-0.0390625,0.884766
610594945076,0.468262,-0.0458984,0.881348
610594967612,0.470703,-0.0454102,0.884766
610594990829,0.47168,-0.0483398,0.882812
610595005155,0.472168,-0.0483398,0.884766
610595027660,0.47168,-0.0375977,0.883789
610595050789,0.466309,-0.0380859,0.87793
610595065123,0.464355,-0.0449219,0.884766
610595087613,0.469727,-0.0439453,0.890625
610595110723,0.469727,-0.0424805,0.882812
610595125169,0.470703,-0.043457,0.883789
610595147594,0.47168,-0.0527344,0.883301
610595170786,0.472168,-0.0483398,0.888672
610595191861,0.469238,-0.0429688,0.88623
610595207617,0.469727,-0.0390625,0.883301
610595230676,0.469727,-0.0454102,0.884277
610595251846,0.470703,-0.0473633,0.878418
610595267631,0.468262,-0.0498047,0.888672
610595290792,0.472168,-0.0478516,0.890137
610595311827,0.472168,-0.0424805,0.886719
610595327598,0.469238,-0.0463867,0.885254
610595350768,0.464355,-0.0449219,0.884766
610595371842,0.464355,-0.0429688,0.884766
610595387662,0.468262,-0.0385742,0.882324
610595410774,0.470703,-0.0419922,0.885742
610595431843,0.470215,-0.0488281,0.882812
610595447639,0.47168,-0.0454102,0.885742
610595470142,0.473145,-0.0400391,0.892578
610595491824,0.470215,-0.0424805,0.887207
610595507598,0.46875,-0.0405273,0.878418
610595530072,0.467773,-0.0483398,0.884277
610595551821,0.469727,-0.0517578,0.882324
610595567556,0.470215,-0.046875,0.885254
610595590117,0.47168,-0.043457,0.879883
610595611773,0.467285,-0.0429688,0.887207
610595627572,0.467773,-0.0405273,0.880859
610595650057,0.470215,-0.0415039,0.883789
610595673287,0.466797,-0.0444336,0.881836
610595687673,0.475098,-0.0458984,0.884277
610595710100,0.470703,-0.0458984,0.879883
610595733251,0.467773,-0.0454102,0.885742
610595747635,0.471191,-0.0512695,0.879883
610595770079,0.469238,-0.0478516,0.882812
610595793294,0.468262,-0.0458984,0.883301
610595807696,0.467285,-0.043457,0.881348
610595830163,0.466797,-0.0424805,0.885254
610595853272,0.472168,-0.0415039,0.885254
610595867593,0.470703,-0.0444336,0.883301
610595890185,0.471191,-0.0463867,0.884277
610595913236,0.474121,-0.0454102,0.888184
610595927628,0.466797,-0.0473633,0.878906
610595950122,0.467285,-0.0429688,0.885742
610595973276,0.470215,-0.0458984,0.884766
610595987648,0.469727,-0.0400391,0.881348
610596010133,0.469727,-0.0429688,0.881348
610596033292,0.467773,-0.0493164,0.884766
610596047700,0.472168,-0.0483398,0.88916
610596070129,0.473145,-0.0444336,0.878906
610596093277,0.466797,-0.0473633,0.878906
610596115746,0.472168,-0.0415039,0.886719
610596130076,0.470215,-0.0424805,0.88623
610596153249,0.467285,-0.0424805,0.885254
610596174305,0.465332,-0.0410156,0.885742
610596190168,0.467773,-0.0458984,0.888672
610596213270,0.466309,-0.0419922,0.87793
610596234335,0.463867,-0.0483398,0.879883
610596250080,0.458496,-0.0537109,0.876953
610596273253,0.464355,-0.0419922,0.888672
610596294423,0.473633,-0.0395508,0.923828
610596310112,0.480469,-0.0219727,0.913574
610596333319,0.470215,-0.0385742,0.893066
610596354443,0.481934,-0.0400391,0.852051
610596370145,0.477051,-0.0488281,0.869141
610596392618,0.478516,-0.0668945,0.888184
610596414314,0.474609,-0.0698242,0.88916
610596430147,0.47998,-0.0493164,0.880371
610596452643,0.486816,-0.019043,0.86377
610596474322,0.478516,0.00878906,0.86377
610596490141,0.509766,-0.00537109,0.868164
610596512653,0.514648,-0.0195312,0.873047
610596534311,0.529785,0,0.864746
610596550198,0.55127,0.0327148,0.875488
610596572574,0.494141,0.074707,0.867676
610596595817,0.44873,-0.0126953,0.947754
610596610136,0.454102,-0.0102539,0.905762
610596632587,0.450684,0.0644531,0.77002
610596655758,0.476074,-0.000488281,0.718262
610596670144,0.497559,0.00537109,0.866211
610596692651,0.541992,-0.00244141,0.931152
610596715744,0.477051,0.0371094,0.888672
610596730162,0.484863,-0.00634766,0.879883
610596752615,0.470703,-0.0537109,0.895508
610596775775,0.496582,-0.0385742,0.912598
610596790142,0.483887,-0.0698242,0.874512
610596812711,0.420898,-0.0708008,0.887695
610596826132,0.47998,-0.0878906,0.862305
610596849398,0.430176,-0.0688477,0.879883
610596871847,0.416016,-0.078125,0.904297
610596886245,0.463867,-0.0546875,0.925781
610596909424,0.433594,-0.0517578,0.953125
610596931917,0.431641,-0.0712891,0.915527
610596946269,0.428223,-0.114258,0.858887
610596969472,0.409668,-0.165039,0.911133
610596991898,0.364746,-0.0805664,0.867676
610597006231,0.429199,-0.15332,0.924316
610597029381,0.424805,-0.190918,0.911133
610597051851,0.40625,-0.161133,0.916992
610597066220,0.414062,-0.189453,0.878906
610597097464,0.424805,-0.153809,0.908691
610597111827,0.451172,-0.238281,0.875
610597126183,0.397461,-0.17627,0.894531
610597149406,0.409668,-0.17334,0.914551
610597171810,0.428711,-0.256348,0.944336
610597186224,0.412598,-0.236816,0.899414
610597209205,0.408203,-0.208008,0.871582
610597231841,0.385254,-0.213867,0.895996
610597246152,0.400391,-0.251465,0.880371
610597268740,0.397949,-0.285645,0.893066
610597291842,0.381348,-0.289062,0.929688
610597306180,0.372559,-0.327637,0.90918
610597328655,0.382812,-0.299805,0.905273
610597351801,0.439453,-0.338379,0.848633
610597366269,0.412598,-0.306641,0.812012
610597388683,0.38623,-0.305664,0.818359
610597411816,0.374512,-0.366211,0.88916
610597426221,0.384766,-0.494629,0.839844
610597448802,0.32373,-0.517578,0.811035
610597471938,0.336426,-0.484375,0.88916
610597486231,0.3125,-0.429688,0.818359
610597508702,0.320312,-0.450195,0.808105
610597531782,0.304688,-0.398926,0.765625
610597547593,0.314941,-0.379883,0.78125
610597568669,0.354004,-0.338379,0.812988
610597591843,0.428711,-0.32666,0.831543
610597606114,0.460938,-0.387207,0.854492
610597628705,0.464355,-0.372559,0.864746
610597651851,0.418457,-0.379883,0.876953
610597666220,0.404297,-0.313965,0.86084
610597688706,0.375,-0.350586,0.850586
610597711868,0.357422,-0.351562,0.87207
610597726200,0.393555,-0.324219,0.84082
610597748741,0.375,-0.328613,0.833008
610597771822,0.373535,-0.373047,0.865234
610597786185,0.353027,-0.374512,0.904785
610597808694,0.359863,-0.37207,0.884766
610597831803,0.369141,-0.325684,0.887695
610597854343,0.410156,-0.256836,0.852051
610597868672,0.400391,-0.200684,0.885742
610597891984,0.392578,-0.19873,0.90918
610597906220,0.371094,-0.223145,0.909668
610597928678,0.365234,-0.264648,0.916992
610597951833,0.376953,-0.267578,0.902344
610597966258,0.390625,-0.279297,0.878906
610597988743,0.386719,-0.305664,0.873535
610598003739,0.387207,-0.313477,0.890625
610598026205,0.397461,-0.268555,0.884277
610598048733,0.410645,-0.218262,0.875488
610598071809,0.427246,-0.171387,0.866211
610598086184,0.449219,-0.15918,0.89502
610598108640,0.458984,-0.177246,0.899902
610598131801,0.449219,-0.180176,0.883301
610598146144,0.445312,-0.184082,0.864258
610598168681,0.443848,-0.193359,0.870605
610598183697,0.447266,-0.194824,0.898926
610598206126,0.456055,-0.207031,0.89502
610598228676,0.417969,-0.210449,0.900879
610598243617,0.394043,-0.231445,0.904785
610598267648,0.368164,-0.231934,0.940918
610598288727,0.387695,-0.191895,0.931152
610598311860,0.368164,-0.166016,0.9375
610598326163,0.35791,-0.144043,0.969238
610598348746,0.358398,-0.108887,0.95752
610598371876,0.344238,-0.0942383,0.940918
610598386187,0.351074,-0.108398,0.902344
610598408746,0.370605,-0.165039,0.888184
610598431925,0.369141,-0.200684,0.901855
610598446226,0.359375,-0.166016,0.913086
610598468661,0.349121,-0.110352,0.933105
610598491127,0.35791,-0.0415039,0.935547
610598506190,0.429688,-0.027832,0.906738
610598528668,0.450195,-0.0742188,0.878906
610598551173,0.484375,-0.0976562,0.834961
610598566150,0.522949,-0.14209,0.801758
610598588622,0.540527,-0.196289,0.790039
610598611143,0.580078,-0.26123,0.815918
610598626294,0.67627,-0.414551,0.806152
610598648785,0.573242,-0.420898,0.842285
610598671276,0.521973,-0.362305,0.844238
610598686181,0.425293,-0.38916,0.814941
610598708722,0.433105,-0.326172,0.775879
610598731294,0.384766,-0.296387,0.838867
610598746188,0.378418,-0.291504,0.92334
610598776905,0.374512,-0.107422,0.951172
610598791297,0.404297,-0.0292969,0.894043
610598806269,0.454102,-0.103516,0.968262
610598828726,0.499512,-0.230957,0.886719
610598851150,0.48584,-0.359375,0.803711
610598866150,0.413574,-0.436035,0.763672
610598888702,0.430664,-0.353027,0.822266
610598911184,0.470703,-0.383789,0.750488
610598926269,0.398926,-0.474121,0.723145
610598948760,0.355469,-0.445801,0.726562
610598971312,0.362305,-0.391602,0.743164
610598986204,0.378906,-0.386719,0.799316
610599008699,0.43457,-0.338379,0.816406
610599031246,0.521484,-0.330566,0.853516
610599046247,0.574707,-0.365234,0.911621
610599068676,0.593262,-0.445312,0.940918
610599091182,0.566895,-0.495117,0.921875
610599106175,0.516113,-0.461914,0.88916
610599128678,0.475098,-0.373535,0.858887
610599151179,0.47998,-0.316406,0.793945
610599166220,0.481934,-0.277344,0.755859
610599188733,0.447266,-0.315918,0.804688
610599211151,0.616211,-0.391602,0.874512
610599226189,0.421875,-0.435547,0.868652
610599248708,0.399902,-0.43457,0.748535
610599271237,0.274414,-0.417969,0.703125
610599287662,0.282227,-0.424316,0.718262
610599308724,0.199707,-0.445312,0.690918
610599331207,0.189941,-0.334473,0.709961
610599347619,0.23584,-0.275391,0.760742
610599368674,0.286621,-0.330566,0.817383
610599391194,0.348145,-0.328613,0.813477
610599407644,0.361816,-0.313965,0.761719
610599428745,0.415527,-0.286133,0.723633
610599451254,0.506348,-0.278809,0.725098
610599467637,0.581543,-0.291504,0.751465
610599488730,0.664551,-0.32959,0.795898
610599511221,0.830078,-0.357422,0.836914
610599527665,0.984375,-0.379395,0.841797
610599548695,0.983887,-0.342285,0.838867
610599571252,0.910645,-0.370605,0.777344
610599587630,0.776367,-0.395508,0.76123
610599608668,0.631836,-0.265137,0.753418
610599631188,0.475586,-0.188965,0.751465
610599647621,0.355469,-0.1875,0.807617
610599668731,0.473633,-0.180664,0.824707
610599691228,0.718262,-0.171387,0.769531
610599707660,0.817871,-0.192871,0.705566
610599728735,0.660156,-0.181152,0.695801
610599751279,0.591309,-0.109375,0.719727
610599768006,0.587402,-0.0849609,0.720703
610599788725,0.61084,-0.124512,0.724121
610599811256,0.706543,-0.168457,0.733887
610599827626,0.740723,-0.156738,0.706543
610599848749,0.686523,-0.132812,0.650391
610599871205,0.719727,0.000488281,0.672852
610599887627,0.841797,0.0869141,0.736816
610599908710,0.835449,-0.0463867,0.717773
610599931240,0.765137,-0.131348,0.647949
610599947657,0.821289,-0.0473633,0.606934
610599968694,0.862793,0.0419922,0.627441
610599991220,0.912109,0.0361328,0.665039
610600007661,0.95166,0.0390625,0.644531
610600028744,0.923828,0,0.625488
610600051270,0.881348,-0.00927734,0.602539
610600067652,0.852051,-0.0117188,0.590332
610600088696,0.890625,-0.0297852,0.609863
610600111178,0.947266,-0.0322266,0.616211
610600127647,0.979492,-0.0610352,0.572266
610600148711,1.04053,-0.0795898,0.525391
610600171238,0.967285,-0.0668945,0.476562
610600187636,0.95166,0.000976562,0.425293
610600210169,0.983887,0.0410156,0.382324
610600231237,1.0459,0.0166016,0.352051
610600247684,1.07324,-0.0219727,0.316895
610600270170,1.07178,-0.0439453,0.329102
610600291252,1.04688,-0.0571289,0.314453
610600307657,1.05273,-0.0678711,0.292969
610600330204,1.0498,-0.0683594,0.280762
610600351200,1.01611,-0.0703125,0.222656
610600367652,0.964844,-0.0571289,0.188965
610600390134,0.916504,-0.0424805,0.169434
610600411274,0.921387,-0.0273438,0.183105
610600427619,0.943359,-0.0141602,0.182129
610600450165,0.893555,-0.0551758,0.172363
610600471284,0.859863,-0.0864258,0.191895
610600487626,0.864746,-0.0839844,0.209473
610600510174,0.883301,-0.0649414,0.216797
610600539407,0.884766,-0.0595703,0.221191
610600547678,0.896973,-0.0117188,0.22168
610600570144,0.891113,0.0151367,0.202637
610600591883,0.833496,0.0175781,0.188477
610600606927,0.750977,-0.00244141,0.192383
610600629379,0.675293,-0.0117188,0.195312
610600651844,0.64209,-0.00878906,0.217773
610600666870,0.631836,0.0078125,0.245605
610600689355,0.634766,0.0395508,0.288086
610600711861,0.678223,0.0546875,0.333984
610600726894,0.71875,0.0327148,0.364746
610600749393,0.778809,0.0180664,0.398926
610600771950,0.839355,0.00292969,0.40625
610600786889,0.90918,-0.0102539,0.387207
610600809442,0.913086,-0.034668,0.348145
610600831961,0.897949,-0.059082,0.3125
610600846947,0.879395,-0.0791016,0.297852
610600869425,0.879883,-0.074707,0.298828
610600891979,0.884766,-0.0551758,0.326172
610600906957,0.897461,-0.0410156,0.341309
610600929431,0.911133,-0.0366211,0.362305
610600951926,0.918945,-0.0449219,0.376953
610600966955,0.916016,-0.0532227,0.375
610600989407,0.918945,-0.0517578,0.378418
610601011959,0.916504,-0.0473633,0.373047
610601026940,0.913086,-0.0395508,0.359863
610601049410,0.91748,-0.0356445,0.348145
610601071961,0.937988,-0.0356445,0.329102
610601086957,0.947754,-0.0415039,0.310059
610601109400,0.946289,-0.0507812,0.306152
610601131847,0.923828,-0.0488281,0.294922
610601146959,0.910645,-0.0390625,0.300781
610601176935,0.903809,0.000976562,0.300293
610601191851,0.902344,0.0283203,0.305176
610601206957,0.945312,0.0556641,0.304199
610601229363,0.977539,0.0571289,0.313965
610601245287,0.998047,0.0356445,0.33252
610601266965,1.00098,0.0102539,0.32666
610601289482,0.993652,0.0151367,0.309082
610601305245,0.976562,0.0146484,0.29834
610601326982,0.951172,0.0249023,0.269043
610601349495,0.929199,0.03125,0.257812
610601365249,0.90625,0.0195312,0.255859
610601388314,0.880859,0.00634766,0.236816
610601409356,0.87207,0.0112305,0.229004
610601431919,0.885254,0.03125,0.237793
610601448289,0.908203,0.0512695,0.263672
610601469528,0.913086,0.0556641,0.287109
610601491942,0.912109,0.0566406,0.309082
610601508441,0.90918,0.0507812,0.30957
610601529463,0.895996,0.0551758,0.295898
610601551963,0.893066,0.0649414,0.290039
610601568420,0.894531,0.0507812,0.270996
610601589495,0.910156,0.0375977,0.287598
610601611948,0.984863,0.0556641,0.313965
610601628457,0.998047,0.046875,0.337402
610601649521,0.957031,0.00488281,0.34668
610601671952,0.931152,0.00585938,0.359375
610601688360,0.888184,0.050293,0.338867
610601709485,0.868652,0.0913086,0.303223
610601731955,0.89209,0.119141,0.320801
610601748407,0.924805,0.138672,0.34668
610601769470,0.949219,0.120117,0.361328
610601792004,0.977539,0.0981445,0.393066
610601808370,0.965332,0.0629883,0.402832
610601829510,0.96582,0.0478516,0.412109
610601851929,0.962891,0.0400391,0.422363
610601868386,0.961426,0.034668,0.428711
610601889400,0.980469,0.0649414,0.436035
610601911933,0.990234,0.090332,0.428223
610601928425,0.991699,0.0585938,0.416992
610601949455,0.989746,0.0131836,0.414062
610601971909,0.98584,0.00830078,0.416504
610601988422,0.98877,0.0366211,0.430176
610602009423,0.983887,0.0229492,0.437988
610602031940,0.981934,0.0307617,0.458008
610602048447,0.958496,0.0273438,0.448242
610602069500,0.943848,-0.00244141,0.424805
610602091914,0.944336,0.0170898,0.416016
610602107662,0.915527,0.0307617,0.431641
610602129390,0.886719,0.0268555,0.473145
610602151922,0.858887,0.00976562,0.424805
610602167723,0.873047,-0.00683594,0.501953
610602189513,0.846191,-0.0571289,0.461426
610602211921,0.861816,-0.0400391,0.447754
610602227746,0.874023,-0.00146484,0.458984
610602249498,0.861816,-0.0151367,0.463867
610602271992,0.847656,-0.0791016,0.453125
610602287792,0.79248,-0.139648,0.452637
610602310924,0.764648,-0.0981445,0.476562
610602331915,0.967773,0.0439453,0.547852
610602347764,1.21484,0.124023,0.47998
610602370901,1.3042,0.00439453,0.352539
610602391928,1.22168,-0.0429688,0.209961
610602407703,1.07666,-0.0180664,0.110352
610602430947,1.04688,-0.0268555,0.0708008
610602452051,1.05713,-0.0356445,0.111816
610602475991,0.990723,-0.120605,0.155273
610602490902,0.901855,-0.170898,0.147949
610602511900,0.814941,-0.0249023,0.10498
610602527762,0.767578,0.0717773,0.0581055
610602550999,0.763672,0.146484,0.0512695
610602571996,0.791504,0.131348,0.0595703
610602587718,0.868652,0.015625,0.0712891
610602610987,0.962891,-0.0859375,0.115723
610602632041,1.02002,-0.128906,0.155273
610602647781,1.03271,-0.1875,0.187012
610602670997,1.021,-0.218262,0.203613
610602691996,0.96582,-0.179688,0.195801
610602707733,0.869141,-0.134766,0.197754
610602730995,0.779297,-0.0917969,0.232422
610602751942,0.706543,-0.0649414,0.278809
610602767757,0.663574,-0.0488281,0.328613
610602790975,0.666504,-0.0556641,0.375488
610602811709,0.654297,-0.0991211,0.397949
610602827795,0.63916,-0.125977,0.408203
610602850941,0.641602,-0.129395,0.416992
610602873419,0.687012,-0.119141,0.433594
610602887783,0.765137,-0.103516,0.454102
610602910950,0.862793,-0.105957,0.470215
610602932004,0.9375,-0.14209,0.460449
610602947795,0.966797,-0.176758,0.429688
610602970985,1.00781,-0.147461,0.380371
610602992122,1.06641,-0.100098,0.346191
610603007772,1.29883,-0.115723,0.409668
610603038343,1.62695,0.0244141,0.446289
610603052021,1.74463,0.0405273,0.283203
610603067787,1.44141,-0.137207,0.161621
610603098441,0.99707,-0.235352,0.0800781
610603111912,0.94873,-0.0498047,0.0341797
610603127801,0.969238,0.145996,0.0615234
610603150317,1.06885,0.0991211,0.142578
610603179496,1.13867,0.0258789,0.160156
610603187813,1.08252,0.0126953,0.225098
610603210321,1.08789,-0.0869141,0.193848
610603233383,0.862305,-0.0571289,0.217773
610603247705,0.814453,-0.090332,0.187988
610603270217,0.883301,-0.00585938,0.17334
610603293348,0.914551,0.0292969,0.243652
610603307817,0.955078,0.0517578,0.239258
610603330307,0.932617,0.0356445,0.257324
610603353462,0.907715,-0.0439453,0.273438
610603374415,0.856445,-0.0908203,0.260742
610603390201,0.84082,-0.0454102,0.213379
610603413386,0.834961,-0.0722656,0.201172
610603427746,0.832031,-0.0629883,0.20166
610603451650,0.835938,-0.0424805,0.248535
610603473392,0.804688,-0.065918,0.283691
610603494428,0.774414,-0.0917969,0.33252
610603510216,0.77002,-0.0458984,0.401367
610603533368,0.769531,0.0136719,0.440918
610603554494,0.758789,0.0268555,0.455566
610603570357,0.748047,-0.0478516,0.460938
610603593489,0.797852,-0.0771484,0.467773
610603614523,0.859863,-0.0629883,0.393066
610603630218,0.855469,-0.0927734,0.33252
610603653425,0.822266,-0.151367,0.293945
610603674438,0.914062,-0.220703,0.34082
610603690296,1.27197,-0.164551,0.466309
610603713536,1.4292,-0.131348,0.494141
610603734438,1.39209,-0.255859,0.469727
610603750239,1.19727,-0.384766,0.366211
610603773404,0.975098,-0.34668,0.231445
610603795915,0.888672,-0.197754,0.171387
610603810280,0.911621,-0.0756836,0.0947266
610603833390,0.974609,-0.144531,0.105469
610603854482,1.0332,-0.130859,0.205566
610603870305,1.00732,-0.112793,0.23584
610603900915,0.978027,-0.0688477,0.248047
610603922021,0.90918,-0.0371094,0.188477
610603930343,0.842285,-0.0537109,0.154785
610603953497,0.80127,-0.0966797,0.156738
610603974566,0.775391,-0.114746,0.191406
610603997015,0.813965,-0.0917969,0.239746
610604012750,0.881348,-0.112793,0.260742
610604034427,0.864258,-0.159668,0.280273
610604050195,0.831543,-0.187012,0.288086
610604074161,0.824707,-0.210449,0.277344
610604094412,0.841309,-0.233398,0.262207
610604110208,0.844727,-0.245605,0.260742
610604132773,0.842773,-0.277832,0.253418
610604163366,0.862305,-0.292969,0.275879
610604170219,0.850586,-0.265137,0.279297
610604192715,0.855469,-0.233398,0.277344
610604215924,0.898926,-0.19873,0.280762
610604230218,0.88916,-0.160645,0.259277
610604252861,0.885742,-0.1875,0.249512
610604275998,0.891113,-0.208008,0.242676
610604290337,0.89502,-0.20459,0.228516
610604312763,0.910156,-0.183105,0.219238
610604342664,1.00439,-0.124512,0.256348
610604349561,1.23535,-0.0239258,0.326172
610604372056,1.47217,0.0786133,0.358398
610604386301,1.35449,0.00683594,0.240723
610604409930,1.03223,-0.187988,0.159668
610604431973,0.791992,-0.254395,0.120605
610604446318,0.694336,-0.116699,0.0878906
610604469479,0.693848,0.0644531,0.0913086
610604492064,0.727051,0.109863,0.143555
610604506417,0.80957,0.090332,0.231934
610604529520,0.958496,0.0952148,0.302246
610604552075,1.07275,0.116699,0.347168
610604566394,1.05713,0.0864258,0.319824
610604589572,1.02979,0.0195312,0.283691
610604612033,0.995117,-0.0219727,0.230957
610604626296,0.975098,-0.00537109,0.17627
610604648870,0.956543,0.0161133,0.169922
610604672002,0.972656,0.0185547,0.163574
610604686346,0.987305,0.0146484,0.179199
610604725178,0.985352,-0.0151367,0.242676
610604731956,0.982422,-0.00341797,0.256348
610604746369,0.983398,-0.0185547,0.283203
610604769541,0.980469,-0.0249023,0.27002
610604792058,0.963867,-0.0415039,0.236816
610604806438,0.956543,-0.0341797,0.231445
610604837398,0.942383,-0.0341797,0.218262
610604852000,0.956055,-0.0375977,0.21875
610604866397,0.967773,-0.0415039,0.229004
610604890245,0.965332,-0.0507812,0.234375
610604928351,0.969238,-0.0395508,0.245605
610604930780,0.964355,-0.0253906,0.234375
610604949987,0.974609,0.000488281,0.216797
610604963866,0.976562,-0.0131836,0.20459
610604986298,0.985352,-0.0244141,0.199707
610605009524,0.995605,-0.0332031,0.185059
610605023820,1.0127,-0.0356445,0.180176
610605046269,0.986328,-0.0385742,0.171875
610605069467,0.956543,-0.0449219,0.181152
610605083810,0.929199,-0.0317383,0.202148
610605106287,0.916016,-0.0244141,0.204102
610605137417,0.883301,-0.0385742,0.199219
610605151995,0.864746,-0.0429688,0.203613
610605166348,0.878418,-0.0390625,0.1875
610605188907,0.913574,-0.0361328,0.17334
610605203805,0.95166,-0.046875,0.14502
610605227893,0.957031,-0.0625,0.112305
610605248890,0.949219,-0.0610352,0.0957031
610605263870,0.946289,-0.0527344,0.0883789
610605286332,0.959473,-0.0395508,0.0952148
610605308910,0.979004,-0.0444336,0.108887
610605323895,0.966797,-0.0366211,0.114258
610605346307,0.955078,-0.0341797,0.142578
610605368880,0.949219,-0.0078125,0.149902
610605392039,0.925293,0,0.155273
610605406284,0.928711,-0.00488281,0.144043
610605428869,0.939453,-0.0112305,0.143555
610605452067,0.961914,-0.00976562,0.123535
610605466314,0.967285,-0.00341797,0.078125
610605488797,0.974609,0.015625,0.0336914
610605512010,0.978516,0.0205078,0.00146484
610605526314,0.995605,0.027832,0
610605548873,1.00732,0.03125,0
610605572046,1.0332,0.0327148,0.00146484
610605586400,1.01709,0.0219727,-0.0170898
610605608836,0.997559,-0.00195312,-0.0351562
610605632025,1.00391,0.00732422,-0.0351562
610605654533,1.04688,0.0458984,-0.0317383
610605668914,1.05957,0.0444336,-0.0498047
610605692130,1.05078,0.0141602,-0.059082
610605706424,0.987305,-0.0258789,-0.0708008
610605728872,0.965332,-0.0136719,-0.0595703
610605752018,0.967285,0.0292969,-0.0405273
610605766422,0.989258,0.0615234,-0.0415039
610605788942,0.982422,0.0537109,-0.0488281
610605812048,0.977539,0.0488281,-0.0419922
610605827808,0.975098,0.0717773,-0.0371094
610605848982,0.975098,0.0981445,-0.0498047
610605872043,0.990234,0.111328,-0.0571289
610605886375,0.997559,0.0966797,-0.0805664
610605908919,0.995605,0.0839844,-0.115234
610605940193,0.984863,0.0673828,-0.118652
610605946288,0.989258,0.0991211,-0.113281
610605968806,0.991211,0.115234,-0.11377
610605991966,0.972656,0.103027,-0.108398
610606006348,0.956055,0.0756836,-0.109375
610606028870,0.941895,0.0512695,-0.108398
610606051381,0.944336,0.0385742,-0.0908203
610606066371,0.953613,0.0400391,-0.078125
610606088882,0.969727,0.0610352,-0.078125
610606105316,0.978516,0.0776367,-0.081543
610606126348,0.977051,0.0825195,-0.0864258
610606150294,0.984863,0.074707,-0.0932617
610606165362,0.989258,0.0673828,-0.0957031
610606189324,0.997559,0.0639648,-0.0844727
610606208887,0.979004,0.0634766,-0.0751953
610606225241,0.979492,0.074707,-0.065918
610606246384,0.975586,0.0830078,-0.0708008
610606268874,0.976074,0.0810547,-0.065918
610606285362,0.976562,0.081543,-0.0488281
610606306346,0.994629,0.103027,-0.0600586
610606328907,0.977539,0.0888672,-0.0791016
610606351390,0.960449,0.0703125,-0.081543
610606366371,0.945801,0.0595703,-0.081543
610606388862,0.942383,0.0532227,-0.0732422
610606412822,0.952637,0.0776367,-0.081543
610606426486,0.956055,0.0898438,-0.0795898
610606465933,0.971191,0.0898438,-0.0859375
610606468304,0.978516,0.0732422,-0.0893555
610606486304,0.983887,0.059082,-0.0800781
610606508853,0.985352,0.0537109,-0.0908203
610606525266,0.984863,0.0615234,-0.0976562
610606546401,0.983887,0.0678711,-0.113281
610606568823,0.982422,0.0673828,-0.118164
610606585266,0.975586,0.0654297,-0.117676
610606606325,0.976562,0.0620117,-0.121582
610606628811,0.978027,0.0537109,-0.115723
610606645303,0.965332,0.0517578,-0.11084
610606666340,0.971191,0.0649414,-0.09375
610606688970,0.964355,0.0629883,-0.101562
610606705394,0.966309,0.0551758,-0.103027
610606726431,0.961914,0.059082,-0.108887
610606748957,0.963379,0.0620117,-0.111328
610606765338,0.976562,0.0639648,-0.111328
610606786434,0.983398,0.059082,-0.105469
610606808907,0.977539,0.0649414,-0.100586
610606825319,0.963867,0.0678711,-0.107422
610606847799,0.959473,0.0678711,-0.116211
610606870340,0.960938,0.0600586,-0.112305
610606885344,0.958008,0.0600586,-0.119629
610606907885,0.966797,0.0493164,-0.116699
610606929022,0.96875,0.0551758,-0.114258
610606945343,0.968262,0.0615234,-0.118164
610606974549,0.966797,0.0605469,-0.126465
610606988935,0.96582,0.0678711,-0.124023
610607005366,0.970703,0.0634766,-0.120117
610607027829,0.969727,0.0522461,-0.115723
610607048921,0.974609,0.0517578,-0.115723
610607065365,0.960938,0.0473633,-0.117188
610607087791,0.97168,0.0625,-0.125488
610607108996,0.973633,0.0703125,-0.121094
610607132846,0.980469,0.0629883,-0.108887
610607147865,0.980957,0.0507812,-0.103516
610607177124,0.967773,0.0458984,-0.117676
610607192861,0.963379,0.0512695,-0.121094
610607207827,0.966309,0.0683594,-0.109863
610607228888,0.977051,0.0683594,-0.124023
610607245390,0.968262,0.0644531,-0.118652
610607267817,0.95752,0.0644531,-0.125977
610607288892,0.967773,0.0620117,-0.117676
610607305387,0.963379,0.0639648,-0.116699
610607335390,0.963379,0.0566406,-0.124023
610607349056,0.962402,0.0634766,-0.133789
610607365335,0.967773,0.0703125,-0.125977
610607387765,0.964355,0.0722656,-0.124512
610607410322,0.969238,0.0708008,-0.125
610607425282,0.968262,0.0625,-0.12793
610607447814,0.967285,0.0556641,-0.121582
610607468912,0.960449,0.0664062,-0.123047
610607499575,0.966309,0.0664062,-0.118652
610607507913,0.959473,0.065918,-0.118652
610607528952,0.969727,0.065918,-0.120117
610607545439,0.971191,0.0664062,-0.120605
610607567920,0.974609,0.0620117,-0.114746
610607588923,0.972656,0.0576172,-0.125
610607605421,0.971191,0.0629883,-0.128418
610607627837,0.973633,0.0712891,-0.125
610607648942,0.970703,0.0644531,-0.126465
610607665386,0.96582,0.0561523,-0.125977
610607687894,0.958008,0.0556641,-0.125977
610607708972,0.957031,0.0693359,-0.122559
610607725394,0.967773,0.0708008,-0.126953
610607747894,0.974609,0.0605469,-0.12793
610607770317,0.971191,0.0556641,-0.133789
610607785360,0.961914,0.0600586,-0.135254
610607809765,0.965332,0.0722656,-0.126465
610607830383,0.964844,0.0649414,-0.125
610607845379,0.964355,0.0639648,-0.123047
610607867920,0.965332,0.0649414,-0.129395
610607890390,0.964844,0.0654297,-0.125488
610607905385,0.96875,0.0698242,-0.119629
610607927929,0.968262,0.0620117,-0.121582
610607950396,0.972168,0.0678711,-0.127441
610607966813,0.975586,0.0693359,-0.128906
610607987848,0.975098,0.0629883,-0.126465
610608010363,0.967773,0.0620117,-0.125977
610608034287,0.964844,0.0634766,-0.125977
610608049365,0.962402,0.0664062,-0.126465
610608070402,0.960449,0.0698242,-0.129883
610608093549,0.960938,0.0654297,-0.125
610608108575,0.961426,0.0576172,-0.124023
610608129598,0.961914,0.0615234,-0.132812
610608145341,0.971191,0.0698242,-0.133789
610608167124,0.973145,0.0703125,-0.132812
610608189633,0.969727,0.0605469,-0.132324
610608205384,0.964355,0.0576172,-0.130859
610608227098,0.964844,0.0649414,-0.129883
610608249630,0.961914,0.0678711,-0.128906
610608265389,0.963379,0.0629883,-0.131836
610608287114,0.96582,0.0654297,-0.129883
610608311087,0.972656,0.0639648,-0.119141
610608325852,0.989746,0.0644531,-0.121094
610608347121,0.991699,0.0595703,-0.138672
610608369664,0.978516,0.0454102,-0.144043
610608385372,0.95752,0.0532227,-0.132324
610608414527,0.952637,0.0668945,-0.125977
610608429552,0.952637,0.0639648,-0.120605
610608452026,0.963867,0.0683594,-0.114258
610608467070,0.972656,0.0673828,-0.131836
610608489502,0.962402,0.0595703,-0.132324
610608505295,0.961426,0.059082,-0.117188
610608527095,0.970215,0.0727539,-0.125977
610608550184,0.967285,0.0717773,-0.125488
610608565352,0.976562,0.0683594,-0.120605
610608587074,0.981934,0.0678711,-0.127441
610608609624,0.973145,0.065918,-0.126953
610608625411,0.955566,0.0610352,-0.125488
610608647150,0.955566,0.0722656,-0.120117
610608669613,0.958008,0.0732422,-0.118164
610608685416,0.961914,0.0732422,-0.126465
610608707171,0.964355,0.0673828,-0.127441
610608729566,0.973145,0.0683594,-0.129883
610608752012,0.970703,0.0673828,-0.129395
610608768523,0.967285,0.0683594,-0.125488
610608797121,0.970703,0.0625,-0.126953
610608813560,0.965332,0.0644531,-0.130371
610608826858,0.964844,0.0664062,-0.132324
610608849647,0.963379,0.0654297,-0.134766
610608865433,0.962891,0.0615234,-0.135742
610608887071,0.969727,0.0688477,-0.127441
610608909650,0.966797,0.0649414,-0.130859
610608925410,0.961914,0.0629883,-0.132812
610608948541,0.965332,0.0649414,-0.136719
610608969593,0.959961,0.0664062,-0.130371
610608985429,0.96582,0.0678711,-0.128418
610609008560,0.969238,0.0708008,-0.131836
610609029676,0.971191,0.0649414,-0.128418
610609045355,0.973633,0.0644531,-0.137207
610609075967,0.976562,0.0639648,-0.135742
610609089699,0.966797,0.0629883,-0.134766
610609105425,0.964355,0.0585938,-0.131348
610609128531,0.970215,0.0644531,-0.134277
610609149643,0.974121,0.0673828,-0.146973
610609172099,0.964355,0.0673828,-0.138184
610609188490,0.958008,0.0600586,-0.131348
610609209654,0.958984,0.065918,-0.126953
610609225375,0.953125,0.065918,-0.121094
610609248572,0.953125,0.0620117,-0.126953
610609269597,0.963867,0.0703125,-0.140625
610609285475,0.967285,0.0756836,-0.141113
610609308615,0.970215,0.0751953,-0.136719
610609329615,0.972168,0.0708008,-0.129395
610609353564,0.977051,0.0810547,-0.130859
610609368578,0.968262,0.0737305,-0.133789
610609389638,0.963379,0.0605469,-0.134766
610609405399,0.961914,0.0688477,-0.136719
610609436064,0.965332,0.078125,-0.130859
610609449665,0.970703,0.0732422,-0.134766
610609465381,0.966309,0.0732422,-0.133789
610609488606,0.964355,0.059082,-0.129395
610609509579,0.967285,0.0639648,-0.129883
610609533535,0.966797,0.0668945,-0.126953
610609548485,0.960449,0.0639648,-0.123535
610609569689,0.955078,0.0634766,-0.130859
610609585395,0.958496,0.0605469,-0.133789
610609608549,0.962402,0.0766602,-0.128418
610609631027,0.970703,0.0756836,-0.131348
610609645463,0.969238,0.0620117,-0.134766
610609667995,0.97168,0.0620117,-0.129883
610609689399,0.968262,0.0703125,-0.136719
610609705413,0.965332,0.0737305,-0.137695
610609744250,0.960938,0.0615234,-0.137695
610609749610,0.958008,0.0615234,-0.130859
610609765370,0.957031,0.065918,-0.139648
610609787852,0.962891,0.0698242,-0.13916
610609809628,0.965332,0.0678711,-0.145996
610609825412,0.961914,0.0717773,-0.134766
610609847906,0.970703,0.0693359,-0.134766
610609871023,0.973633,0.0664062,-0.130371
610609892054,0.976562,0.0668945,-0.134277
610609907895,0.969238,0.0693359,-0.135254
610609938524,0.971191,0.0703125,-0.13623
610609945315,0.968262,0.0722656,-0.130371
610609967889,0.967773,0.0717773,-0.126465
610609991018,0.959473,0.0664062,-0.12793
610610005477,0.957031,0.0693359,-0.129395
610610027944,0.963867,0.074707,-0.133789
610610051018,0.961914,0.0727539,-0.134277
610610065385,0.961426,0.0639648,-0.12793
610610087932,0.966797,0.0761719,-0.127441
610610111067,0.97168,0.0766602,-0.123047
610610125419,0.97998,0.0737305,-0.135254
610610148415,0.981445,0.0673828,-0.140625
610610171053,0.972168,0.0673828,-0.142578
610610185406,0.965332,0.0708008,-0.140625
610610207897,0.964844,0.078125,-0.137695
610610231011,0.962891,0.0737305,-0.134766
610610245444,0.966309,0.0668945,-0.144531
610610267992,0.964844,0.0673828,-0.141602
610610291065,0.964355,0.0698242,-0.144043
610610305435,0.958008,0.0688477,-0.143066
610610327950,0.954102,0.0712891,-0.140625
610610351017,0.963867,0.0727539,-0.14209
610610379561,0.964355,0.074707,-0.13916
610610387995,0.970215,0.0717773,-0.137207
610610411084,0.960449,0.0673828,-0.132812
610610432067,0.956543,0.0737305,-0.134277
610610447966,0.959473,0.0830078,-0.135742
610610471074,0.97168,0.0800781,-0.133301
610610492110,0.969238,0.0634766,-0.135742
610610507961,0.966309,0.0576172,-0.144043
610610531139,0.958984,0.0756836,-0.138672
610610552137,0.96582,0.0864258,-0.140137
610610567963,0.966797,0.081543,-0.143066
610610591053,0.960449,0.0615234,-0.149414
610610612046,0.963379,0.0644531,-0.140137
610610627994,0.95752,0.0732422,-0.139648
610610665311,0.959473,0.0820312,-0.140625
610610672149,0.973145,0.0761719,-0.141113
610610694650,0.976562,0.0688477,-0.144043
610610710436,0.972168,0.0639648,-0.142578
610610732143,0.972656,0.0727539,-0.147949
610610747990,0.961914,0.0776367,-0.145508
610610784721,0.962402,0.0708008,-0.141113
610610793515,0.955078,0.0693359,-0.135742
610610807956,0.960938,0.0688477,-0.140137
610610830418,0.965332,0.0712891,-0.13916
610610853640,0.967285,0.0712891,-0.132324
610610867999,0.97168,0.0727539,-0.134766
610610890355,0.979004,0.0722656,-0.141113
610610913526,0.967285,0.0629883,-0.140625
610610936079,0.96582,0.0678711,-0.135742
610610950471,0.964355,0.0766602,-0.128418
610610973567,0.964355,0.0776367,-0.126953
610610987945,0.968262,0.0673828,-0.133789
610611018554,0.961426,0.0668945,-0.135742
610611033520,0.961426,0.0688477,-0.133789
610611047940,0.958008,0.0708008,-0.130859
610611084608,0.953613,0.0708008,-0.137695
610611093593,0.958496,0.0786133,-0.138184
610611107890,0.970703,0.0786133,-0.140625
610611130384,0.971191,0.0722656,-0.137695
610611153530,0.969727,0.0649414,-0.133301
610611167897,0.966797,0.0717773,-0.143555
610611198556,0.963867,0.0844727,-0.144531
610611213560,0.958008,0.0771484,-0.142578
610611227932,0.96582,0.0644531,-0.145996
610611250399,0.967285,0.0629883,-0.143066
610611273327,0.969238,0.0698242,-0.145996
610611294615,0.96582,0.0708008,-0.150391
610611310372,0.954102,0.0654297,-0.149414
610611333507,0.956055,0.0683594,-0.136719
610611354641,0.961426,0.0688477,-0.133301
610611370395,0.966797,0.0698242,-0.13623
610611393580,0.96875,0.0761719,-0.140625
610611414613,0.969727,0.0756836,-0.13916
610611430412,0.969727,0.065918,-0.136719
610611453567,0.972656,0.0649414,-0.130859
610611474658,0.966309,0.0712891,-0.137695
610611490800,0.958496,0.0742188,-0.135254
610611513545,0.95752,0.065918,-0.134277
610611534635,0.960449,0.0717773,-0.131836
610611558532,0.964355,0.0776367,-0.130371
610611572896,0.969238,0.0693359,-0.132324
610611594664,0.967773,0.0629883,-0.135742
610611610400,0.969238,0.0668945,-0.13916
610611632893,0.967773,0.0727539,-0.132324
610611654694,0.967285,0.0727539,-0.131348
610611670401,0.96875,0.0644531,-0.146484
610611692926,0.96582,0.065918,-0.145508
610611714660,0.96582,0.0649414,-0.131348
610611730427,0.964355,0.0693359,-0.130371
610611752899,0.958984,0.0727539,-0.128906
610611783581,0.961426,0.0698242,-0.133789
610611790397,0.967773,0.0727539,-0.131348
610611812898,0.975586,0.0737305,-0.137695
610611836072,0.973633,0.0712891,-0.143555
610611849655,0.96875,0.0698242,-0.135254
610611864000,0.958984,0.0737305,-0.134277
610611886426,0.959473,0.0795898,-0.129395
610611909628,0.962402,0.0751953,-0.125977
610611932147,0.967773,0.0664062,-0.133789
610611946505,0.963867,0.0688477,-0.128418
610611969630,0.964844,0.0776367,-0.129883
610611983982,0.963379,0.0791016,-0.129395
610612006472,0.96875,0.0668945,-0.126465
610612029628,0.964844,0.0625,-0.130859
610612043958,0.96875,0.0742188,-0.129395
610612066475,0.964355,0.0766602,-0.131836
610612089642,0.95752,0.0708008,-0.132812
610612103946,0.963379,0.0722656,-0.125488
610612127912,0.967773,0.0703125,-0.133789
610612149601,0.96875,0.0654297,-0.129395
610612163941,0.973633,0.0634766,-0.145508
610612186477,0.969238,0.0727539,-0.13916
610612209641,0.966797,0.0756836,-0.131836
610612223988,0.96582,0.0791016,-0.125488
610612246486,0.961426,0.0668945,-0.129883
610612269654,0.975586,0.0703125,-0.137695
610612292137,0.971191,0.0712891,-0.132324
610612306786,0.967773,0.0668945,-0.136719
610612329694,0.958984,0.0717773,-0.123047
610612344014,0.970215,0.0820312,-0.130371
610612366504,0.96875,0.0766602,-0.134766
610612406029,0.962891,0.0620117,-0.137207
610612408392,0.960449,0.0722656,-0.129883
610612426472,0.968262,0.0834961,-0.125488
610612449621,0.962402,0.0708008,-0.12207
610612463976,0.959961,0.0644531,-0.128418
610612486467,0.973145,0.0727539,-0.126953
610612509619,0.973633,0.0766602,-0.125977
610612524003,0.967773,0.0712891,-0.124512
610612546513,0.959473,0.0727539,-0.128418
610612569651,0.96875,0.0751953,-0.125977
610612583992,0.968262,0.0756836,-0.133789
610612606486,0.975098,0.0708008,-0.134277
610612637823,0.965332,0.0605469,-0.138184
610612643954,0.964355,0.0673828,-0.130371
610612666475,0.96582,0.0776367,-0.129883
610612688989,0.94873,0.0717773,-0.124512
610612703966,0.961914,0.0683594,-0.120605
610612726441,0.970215,0.0693359,-0.122559
610612748998,0.977051,0.0688477,-0.132324
610612766925,0.977539,0.0693359,-0.137207
610612786502,0.967773,0.0722656,-0.133301
610612810431,0.966797,0.0737305,-0.125977
610612823996,0.958984,0.0732422,-0.125488
610612846523,0.96582,0.0742188,-0.121094
610612869030,0.962402,0.0717773,-0.120117
610612883981,0.966797,0.0678711,-0.120117
610612906506,0.966797,0.0737305,-0.119629
610612928974,0.970215,0.074707,-0.126953
610612943953,0.971191,0.0727539,-0.131348
610612966467,0.966309,0.0629883,-0.133301
610612988987,0.965332,0.0732422,-0.133301
610613003995,0.957031,0.0751953,-0.134766
610613027925,0.96582,0.0800781,-0.126465
610613049004,0.966797,0.0703125,-0.129395
610613072164,0.967773,0.0664062,-0.128906
610613086505,0.963867,0.0727539,-0.133301
610613108971,0.96582,0.0795898,-0.132812
610613132130,0.969727,0.0761719,-0.136719
610613146530,0.96582,0.0683594,-0.135742
610613169045,0.964355,0.074707,-0.135254
610613184018,0.962402,0.081543,-0.134277
610613206433,0.961426,0.0727539,-0.134277
610613229020,0.972168,0.0830078,-0.130371
610613244096,0.971191,0.0761719,-0.134766
610613275108,0.970215,0.0693359,-0.129395
610613289040,0.969727,0.0776367,-0.128906
610613304071,0.966797,0.0737305,-0.13623
610613326536,0.958984,0.0727539,-0.128906
610613349027,0.95752,0.0761719,-0.124512
610613364063,0.966797,0.0771484,-0.128906
610613386493,0.970215,0.0693359,-0.129883
610613409093,0.967285,0.0703125,-0.140625
610613440389,0.968262,0.0698242,-0.136719
610613446554,0.969727,0.0776367,-0.139648
610613469085,0.970215,0.0756836,-0.131836
610613485507,0.964844,0.074707,-0.135742
610613506578,0.962891,0.0751953,-0.143066
610613529137,0.956055,0.0717773,-0.143066
610613545427,0.966309,0.0751953,-0.135254
610613566522,0.971191,0.0825195,-0.134277
610613589032,0.962891,0.0673828,-0.13916
610613605497,0.964844,0.0688477,-0.144043
610613626607,0.960449,0.078125,-0.141113
610613648989,0.958496,0.0776367,-0.140625
610613665502,0.964355,0.0766602,-0.13916
610613686549,0.961426,0.0751953,-0.138672
610613710494,0.959961,0.0722656,-0.143555
610613725533,0.969238,0.0795898,-0.138672
610613754695,0.969727,0.0776367,-0.137207
610613769067,0.973145,0.0786133,-0.143066
610613792926,0.970215,0.0742188,-0.13916
610613806519,0.960938,0.0742188,-0.145508
610613829001,0.960938,0.0771484,-0.13916
610613845552,0.962402,0.0791016,-0.13916
610613866646,0.970703,0.0732422,-0.142578
610613889056,0.966797,0.0722656,-0.144531
610613905472,0.959473,0.0678711,-0.146484
610613926508,0.956055,0.0693359,-0.147461
610613948968,0.961914,0.0756836,-0.138184
610613965461,0.967285,0.0766602,-0.145508
610613994749,0.96582,0.0722656,-0.142578
610614017278,0.95459,0.0683594,-0.147461
610614025569,0.962402,0.074707,-0.135742
610614049492,0.958008,0.0820312,-0.13623
610614069029,0.96582,0.0786133,-0.135254
610614085567,0.971191,0.0742188,-0.142578
610614106523,0.961914,0.0766602,-0.141602
610614130474,0.969727,0.0727539,-0.138184
610614145588,0.967773,0.0795898,-0.130371
610614166499,0.972656,0.0756836,-0.12793
610614189022,0.968262,0.0791016,-0.139648
610614205548,0.960449,0.0698242,-0.138184
610614226619,0.958008,0.0732422,-0.131836
610614249106,0.95459,0.0766602,-0.130371
610614266947,0.955566,0.0708008,-0.135742
610614286552,0.962402,0.0664062,-0.13623
610614309035,0.973633,0.0742188,-0.143555
610614331558,0.975098,0.0717773,-0.137695
610614355350,0.96582,0.065918,-0.141602
610614369013,0.958496,0.0673828,-0.136719
610614385419,0.961914,0.0761719,-0.12793
610614407971,0.968262,0.0727539,-0.135742
610614428979,0.967285,0.0693359,-0.141113
610614446887,0.964355,0.0717773,-0.133789
610614474660,0.967285,0.0791016,-0.133301
610614497228,0.964844,0.0761719,-0.137695
610614505476,0.964355,0.0678711,-0.135742
610614528077,0.968262,0.0732422,-0.14209
610614549044,0.969238,0.0766602,-0.138184
610614565455,0.966797,0.0776367,-0.140137
610614588041,0.958496,0.0698242,-0.14209
610614609084,0.961914,0.0751953,-0.141113
610614625438,0.958984,0.0727539,-0.13916
610614648041,0.963379,0.074707,-0.144043
610614668953,0.964844,0.0717773,-0.14502
610614685491,0.959961,0.0717773,-0.13623
610614708033,0.964355,0.078125,-0.139648
610614729044,0.964844,0.0727539,-0.137207
610614753025,0.963867,0.0732422,-0.138184
610614767929,0.969238,0.0771484,-0.137695
610614789146,0.967285,0.0830078,-0.146973
610614805531,0.966309,0.0742188,-0.142578
610614828025,0.958008,0.0654297,-0.146484
610614849411,0.960449,0.0742188,-0.142578
610614865518,0.959473,0.078125,-0.150879
610614888098,0.962402,0.074707,-0.140625
610614909098,0.971191,0.0693359,-0.146484
610614925544,0.972656,0.0703125,-0.142578
610614956909,0.968262,0.0722656,-0.138672
610614969079,0.962402,0.0732422,-0.132324
610614985499,0.960449,0.0688477,-0.141602
610615008041,0.958984,0.0673828,-0.135742
610615029016,0.958984,0.0708008,-0.134277
610615045539,0.966797,0.0791016,-0.140137
610615068004,0.961426,0.0717773,-0.129395
610615097261,0.964844,0.0727539,-0.134277
610615105561,0.96582,0.0776367,-0.135742
610615127998,0.974609,0.0795898,-0.133301
610615149074,0.966797,0.0698242,-0.141113
610615165512,0.959961,0.0610352,-0.139648
610615187988,0.95459,0.0654297,-0.141602
610615209015,0.959473,0.078125,-0.141602
610615225603,0.965332,0.0805664,-0.143555
610615249398,0.959961,0.0693359,-0.145996
610615269095,0.965332,0.0654297,-0.143555
610615285514,0.966797,0.0722656,-0.13916
610615308023,0.974121,0.0795898,-0.131348
610615329086,0.973633,0.0810547,-0.148438
610615345550,0.97168,0.0673828,-0.145508
610615375560,0.96582,0.059082,-0.13916
610615390474,0.967285,0.0683594,-0.128418
610615405522,0.964844,0.078125,-0.125488
610615428004,0.960938,0.0717773,-0.133789
610615467534,0.96875,0.0668945,-0.140137
610615471560,0.968262,0.0664062,-0.128906
610615488034,0.963379,0.0698242,-0.12793
610615510537,0.96875,0.0722656,-0.130859
610615526964,0.964355,0.0737305,-0.125488
610615548088,0.975098,0.0722656,-0.128906
610615571975,0.980469,0.0668945,-0.138672
610615586113,0.975586,0.059082,-0.135254
610615607274,0.961914,0.0625,-0.134277
610615629769,0.956543,0.0698242,-0.121582
610615660424,0.971191,0.0751953,-0.124023
610615667318,0.969238,0.0610352,-0.133789
610615689743,0.958008,0.0405273,-0.129883
610615706219,0.953125,0.0581055,-0.126953
610615734825,0.963379,0.0712891,-0.129395
610615749818,0.975098,0.0664062,-0.123535
610615766250,0.972656,0.0576172,-0.128418
610615787272,0.966309,0.0493164,-0.131348
610615809762,0.965332,0.0532227,-0.124023
610615826220,0.969727,0.0722656,-0.126953
610615847249,0.96875,0.0678711,-0.129883
610615869756,0.966797,0.0576172,-0.137695
610615886199,0.960449,0.0498047,-0.128418
610615907218,0.96582,0.0668945,-0.129395
610615929770,0.967285,0.0712891,-0.140625
610615946159,0.959473,0.0629883,-0.133301
610615967199,0.961914,0.0678711,-0.132812
610615989794,0.972168,0.0644531,-0.134277
610616013683,0.969238,0.0615234,-0.136719
610616027246,0.976562,0.0654297,-0.141602
610616049829,0.964844,0.0673828,-0.14209
610616066168,0.95752,0.0644531,-0.134766
610616103006,0.969238,0.0654297,-0.121094
610616109761,0.969238,0.0610352,-0.130859
610616126190,0.961914,0.0620117,-0.13623
610616147290,0.963867,0.065918,-0.13916
610616169743,0.972168,0.0703125,-0.132324
610616186189,0.967773,0.0610352,-0.128418
610616207246,0.964355,0.065918,-0.132812
610616229763,0.965332,0.0649414,-0.133301
610616246204,0.970703,0.0712891,-0.126953
610616267268,0.969238,0.0664062,-0.122559
610616291580,0.966309,0.0600586,-0.125977
610616305551,0.97168,0.065918,-0.128418
610616327200,0.969238,0.0649414,-0.135254
610616357303,0.970703,0.0620117,-0.130859
610616372248,0.963867,0.0576172,-0.134277
610616387158,0.962891,0.0615234,-0.124512
610616418711,0.950684,0.0571289,-0.130371
610616425594,0.963379,0.0629883,-0.127441
610616448693,0.969238,0.0620117,-0.124023
610616469749,0.974121,0.0581055,-0.126953
610616485524,0.986816,0.0581055,-0.127441
610616508727,0.978516,0.0585938,-0.128906
610616529799,0.96582,0.0581055,-0.13916
610616545559,0.964844,0.0537109,-0.124023
610616568641,0.969238,0.0644531,-0.12207
610616589782,0.964844,0.0615234,-0.122559
610616605522,0.960938,0.0512695,-0.126465
610616628674,0.967285,0.0566406,-0.124512
610616649833,0.972168,0.0629883,-0.126953
610616665579,0.966797,0.0561523,-0.126953
610616696180,0.965332,0.0517578,-0.12207
610616711202,0.963867,0.050293,-0.12207
610616725511,0.96875,0.0605469,-0.132324
610616748728,0.970215,0.065918,-0.132812
610616769734,0.963379,0.0585938,-0.137207
610616785538,0.956543,0.0595703,-0.125488
610616808741,0.955566,0.0620117,-0.123535
610616829732,0.962891,0.0620117,-0.120117
610616845577,0.967285,0.0561523,-0.133789
610616868718,0.972656,0.065918,-0.130859
610616889859,0.974121,0.0668945,-0.132324
610616905581,0.970215,0.059082,-0.132324
610616928739,0.970215,0.0668945,-0.128906
610616949807,0.978027,0.0708008,-0.125977
610616965581,0.971191,0.0654297,-0.125977
610616988729,0.975098,0.0546875,-0.130859
610617009798,0.964844,0.0458984,-0.124023
610617025505,0.975586,0.0444336,-0.12207
610617048679,0.976074,0.059082,-0.135254
610617069716,0.96582,0.0517578,-0.120605
610617085511,0.956055,0.0292969,-0.113281
610617108731,0.949219,0.0307617,-0.111816
610617129796,0.954102,0.0361328,-0.112793
610617145591,0.960938,0.0444336,-0.117676
610617168697,0.964355,0.0517578,-0.114746
610617191271,0.969727,0.0498047,-0.111816
610617205613,0.976074,0.0424805,-0.106445
610617228766,0.974609,0.0400391,-0.109375
610617249817,0.971191,0.0507812,-0.123535
610617265566,0.967773,0.0493164,-0.124512
610617288063,0.972168,0.0483398,-0.10791
610617309811,0.97168,0.0537109,-0.11084
610617325565,0.968262,0.0458984,-0.111328
610617348076,0.964355,0.0415039,-0.119141
610617369770,0.951172,0.0517578,-0.114258
610617385576,0.939453,0.0546875,-0.0976562
610617416198,0.927246,0.0512695,-0.0839844
610617438678,0.955078,0.0517578,-0.0678711
610617445543,0.978516,0.0571289,-0.0649414
610617468115,0.972168,0.0400391,-0.0449219
610617491194,0.95752,0.0405273,-0.0307617
610617505530,0.969727,0.0419922,-0.0102539
610617528094,1.01709,0.0649414,-0.0102539
610617551244,1.04492,0.0712891,-0.0195312
610617565599,1.0542,0.0600586,-0.0332031
610617588023,1.02441,0.0395508,-0.0444336
610617611294,0.983398,0.027832,-0.0273438
610617625556,0.95752,0.0581055,-0.0141602
610617648110,0.954102,0.0859375,-0.0209961
610617678747,0.947266,0.0800781,-0.0229492
610617692272,0.947754,0.0795898,-0.0273438
610617707994,0.956055,0.0888672,-0.0356445
610617731296,0.971191,0.101074,-0.0332031
610617752270,0.980957,0.122559,-0.03125
610617768149,0.985352,0.136719,-0.0258789
610617791267,1.00537,0.14502,-0.0307617
610617812242,1.01416,0.144043,-0.03125
610617828021,1.00293,0.132324,-0.0327148
610617851143,0.97998,0.121094,-0.0371094
610617872248,0.971191,0.12793,-0.0380859
610617888052,0.964355,0.120117,-0.03125
610617911166,0.955566,0.121582,-0.0268555
610617932215,0.95166,0.128418,-0.034668
610617948026,0.949707,0.122559,-0.0224609
610617971142,0.964355,0.118652,-0.0302734
610617992037,0.964844,0.123047,-0.0297852
610618008048,0.984375,0.125488,-0.0317383
610618031155,1.00342,0.114746,-0.0415039
610618052369,1.01221,0.106445,-0.0405273
610618068119,1.01465,0.10791,-0.0483398
610618091266,1.00635,0.110352,-0.0488281
610618112260,0.985352,0.100098,-0.050293
610618128093,0.984375,0.101562,-0.0473633
610618151234,0.986816,0.11084,-0.0493164
610618172082,1,0.111328,-0.0537109
610618188051,1.0127,0.100098,-0.0527344
610618217329,1.0127,0.0888672,-0.0532227
610618233795,1.0166,0.108398,-0.0551758
610618248082,1.0166,0.120605,-0.0424805
610618270616,0.995117,0.109863,-0.0405273
610618292316,0.984863,0.0898438,-0.0273438
610618308119,0.995605,0.100098,-0.00146484
610618330568,1.00342,0.100586,0.0078125
610618352347,1.01416,0.0761719,0.0219727
610618368073,1.01172,0.0512695,0.0371094
610618390560,1.02295,0.0307617,0.0571289
610618413706,1.00195,-0.00683594,0.0786133
610618443682,0.988281,-0.0512695,0.104004
610618450624,0.997559,-0.0708008,0.130371
610618473713,1.01123,-0.0673828,0.150879
610618488095,0.993164,-0.0888672,0.155762
610618510553,0.946289,-0.104004,0.160645
610618541217,0.895996,-0.123535,0.172363
610618548141,0.86084,-0.140137,0.204102
610618578742,0.817871,-0.13916,0.233887
610618593671,0.774902,-0.141113,0.257812
610618608101,0.746094,-0.141602,0.276367
610618630616,0.778809,-0.103516,0.298828
610618653754,0.872559,-0.0703125,0.324219
610618674878,1.01709,-0.0952148,0.35791
610618690578,1.08496,-0.172363,0.361816
610618715211,1.15283,-0.178711,0.297852
610618734756,1.17725,-0.168457,0.235352
610618750526,1.15918,-0.125488,0.176758
610618773704,1.12354,-0.0644531,0.102539
610618794797,1.0791,-0.00927734,0.102051
610618810597,1.03223,0.0375977,0.100586
610618833775,0.978027,0.0737305,0.0839844
610618854770,0.968262,0.105957,0.104004
610618870619,0.821289,0.0942383,0.104492
610618893767,0.799805,0.0258789,0.103516
610618914852,0.818848,0.034668,0.137695
610618930568,0.811035,0.0639648,0.163086
610618959807,0.837402,0.0888672,0.16748
610618974789,0.893555,0.105957,0.152344
610618990628,0.927734,0.110352,0.12793
610619013792,0.967773,0.140625,0.122559
610619034861,1.02441,0.128906,0.120117
610619050639,1.05566,0.0771484,0.119629
610619073755,1.01953,0.0288086,0.103027
610619096324,0.934082,-0.0078125,0.0922852
610619110568,0.83252,-0.0322266,0.09375
610619133141,0.765625,-0.0136719,0.141113
610619154863,0.723633,0.0107422,0.186523
610619170645,0.730957,0.0332031,0.244629
610619193097,0.800293,0.0478516,0.278809
610619214769,0.808105,0.00927734,0.283691
610619230615,0.817871,-0.0322266,0.296875
610619253051,0.858398,-0.0307617,0.314453
610619274825,1.05859,0.0498047,0.35498
610619290675,1.62402,0.187988,0.436523
610619313028,1.75439,0.290039,0.313477
610619336172,1.34424,0.114258,0.0576172
610619349886,1.0752,-0.00976562,-0.0336914
610619372329,1.0835,0.0917969,-0.078125
610619386729,1.0874,0.185547,-0.0664062
610619410333,1.09668,0.121582,0.0566406
610619424130,1.13965,0.0717773,0.134766
610619446582,1.03418,0.0385742,0.150879
610619469882,0.884766,-0.0180664,0.158691
610619484170,0.765625,-0.0400391,0.167969
610619506586,0.717773,-0.00146484,0.187988
610619529851,0.712891,0.0698242,0.234863
610619553765,0.723633,0.121582,0.277344
610619575478,0.764648,0.124512,0.281738
610619589896,0.817383,0.0761719,0.286621
610619605672,0.887207,0.0727539,0.29248
610619626650,0.939453,0.0302734,0.29248
610619649789,1.021,0.0366211,0.297852
610619664182,1.06396,0.0454102,0.263672
610619686619,1.09375,0.0302734,0.223633
610619709794,1.09033,-0.0390625,0.200195
610619724170,1.11572,-0.0805664,0.237305
610619746703,1.30322,-0.0517578,0.333984
610619769875,1.32959,-0.0356445,0.343262
610619784205,1.13721,-0.11084,0.291992
610619806638,0.958984,-0.178223,0.284668
610619829823,0.873047,-0.152832,0.26416
610619844199,0.893555,-0.124023,0.230469
610619866629,1.01953,-0.190918,0.20752
610619889881,1.07812,-0.23584,0.192383
610619904170,1.02002,-0.200684,0.183594
610619926668,0.92041,-0.178711,0.175293
610619949822,0.821289,-0.209473,0.194824
610619964172,0.755371,-0.248047,0.240234
610619986637,0.698242,-0.268555,0.302246
610620009809,0.635254,-0.304199,0.327148
610620024251,0.585938,-0.306152,0.337402
610620046732,0.54834,-0.262695,0.342773
610620069593,0.527832,-0.213867,0.335938
610620084190,0.536133,-0.216309,0.352539
610620106749,0.553711,-0.238281,0.407715
610620129831,0.590332,-0.254395,0.431641
610620144174,0.623047,-0.266602,0.474121
610620166673,0.668457,-0.282227,0.478027
610620189854,0.709961,-0.291504,0.464355
610620204193,0.726074,-0.282227,0.433594
610620226704,0.777832,-0.22998,0.390625
610620249759,0.849121,-0.225586,0.361328
610620264249,0.958496,-0.239258,0.400879
610620286700,1.20166,-0.193848,0.425781
610620309211,1.3999,-0.171387,0.383789
610620324178,1.6333,-0.12793,0.408203
610620346626,1.7168,-0.090332,0.318848
610620369167,1.36621,-0.147949,0.106934
610620387059,1.02832,-0.189453,-0.000976562
610620406747,0.940918,-0.101562,0.0112305
610620438016,0.979492,0.0263672,0.0541992
610620444202,1.04541,0.0908203,0.15625
610620466704,1.07666,0.0786133,0.259277
610620489203,1.03662,0.0195312,0.306152
610620504259,0.946777,-0.0371094,0.341797
610620526623,0.834961,-0.0263672,0.359375
610620549173,0.734863,0.0410156,0.348145
610620572302,0.710449,0.106445,0.333984
610620586669,0.759277,0.111816,0.331055
610620609129,0.817871,0.0742188,0.314941
610620624192,0.860352,0.0541992,0.270508
610620646697,0.892578,0.0405273,0.21875
610620669139,0.925293,0.0219727,0.172363
610620684087,0.945801,-0.0107422,0.151855
610620706791,0.90918,-0.0742188,0.150391
610620729246,0.883301,-0.0908203,0.198242
610620744227,0.870605,-0.065918,0.254395
610620766678,0.86084,-0.0341797,0.305664
610620789189,0.850586,-0.0141602,0.343262
610620804197,0.873047,0,0.359863
610620826734,0.92627,-0.00634766,0.35498
610620849212,1.00635,-0.0234375,0.344238
610620864168,1.05957,-0.0400391,0.32666
610620894840,1.12305,-0.0654297,0.314453
610620909294,1.2207,-0.0791016,0.294922
610620924248,1.2583,-0.0996094,0.249023
610620946725,1.18018,-0.13916,0.185547
610620969193,1.04102,-0.179199,0.147949
610620984234,0.892578,-0.215332,0.143555
610621006728,0.772949,-0.20752,0.160156
610621029154,0.712891,-0.139648,0.17334
610621045610,0.694824,-0.0864258,0.191895
610621066617,0.767578,-0.0537109,0.237305
610621089137,0.875977,-0.0874023,0.278809
610621105692,0.971191,-0.153809,0.317383
610621128167,1.02832,-0.193359,0.326172
610621149221,1.0415,-0.179199,0.315918
610621165697,0.98877,-0.166016,0.273438
610621186744,0.930664,-0.182617,0.226074
610621209277,0.897949,-0.171875,0.226074
610621225732,0.885742,-0.147461,0.228027
610621246667,0.876465,-0.141602,0.222656
610621269249,0.893555,-0.135254,0.23584
610621285629,0.90625,-0.140137,0.226074
610621306747,0.929688,-0.147949,0.211914
610621329209,0.928223,-0.140625,0.218262
610621353099,0.936035,-0.133789,0.21875
610621366739,0.924805,-0.131836,0.208496
610621389150,0.90625,-0.119141,0.212891
610621405600,0.887695,-0.0942383,0.210449
610621426766,0.888184,-0.0883789,0.223633
610621449230,0.922852,-0.0678711,0.233398
610621465647,0.970703,-0.0424805,0.227539
610621486759,1.00098,-0.0415039,0.206543
610621509222,0.973145,-0.0512695,0.20752
610621525711,0.944824,-0.0585938,0.205566
610621549607,0.961426,-0.0498047,0.225586
610621569220,1.00488,-0.0292969,0.237793
610621585676,1.07129,-0.0253906,0.254395
610621608140,1.13916,-0.0405273,0.23877
610621630655,1.12744,-0.081543,0.198242
610621645650,1.05859,-0.120605,0.171875
610621666718,0.971191,-0.123047,0.169434
610621689220,0.909668,-0.102539,0.187988
610621705632,0.894043,-0.0703125,0.211914
610621726805,0.875977,-0.0449219,0.249512
610621749268,0.85791,-0.0302734,0.276855
610621765672,0.876465,-0.0170898,0.282715
610621786785,0.892578,-0.0141602,0.263672
610621809166,0.900391,-0.0195312,0.256348
610621825688,0.918945,-0.0283203,0.250488
610621846685,0.941895,-0.0307617,0.248535
610621869179,0.956543,-0.0375977,0.248535
610621885701,0.980469,-0.0395508,0.245117
610621906747,0.984863,-0.0341797,0.23584
610621929179,0.98291,-0.0439453,0.227539
610621945713,0.967773,-0.0546875,0.223145
610621966706,0.964844,-0.0522461,0.231934
610621989250,0.961914,-0.0415039,0.234375
610622005624,0.952148,-0.0366211,0.248535
610622028124,0.951172,-0.0380859,0.254395
610622049222,0.939941,-0.0517578,0.260742
610622065565,0.934082,-0.0498047,0.26709
610622088145,0.93457,-0.0488281,0.254395
610622109255,0.943359,-0.0449219,0.260742
610622125708,0.950195,-0.043457,0.264648
610622148071,0.941895,-0.0478516,0.27002
610622169156,0.936035,-0.046875,0.276367
610622185651,0.943359,-0.0405273,0.279785
610622208145,0.944824,-0.0439453,0.272461
610622229217,0.95459,-0.0527344,0.269531
610622245710,0.952637,-0.0517578,0.266602
610622268099,0.955078,-0.050293,0.268555
610622289227,0.963379,-0.0458984,0.261719
610622305720,0.964355,-0.0581055,0.259277
610622328113,0.955078,-0.0654297,0.247559
610622349227,0.946777,-0.0571289,0.255859
610622365699,0.950195,-0.0439453,0.252441
610622388124,0.943848,-0.0483398,0.260742
610622409248,0.938477,-0.0561523,0.260254
610622425627,0.941895,-0.0576172,0.250977
610622448220,0.934082,-0.0532227,0.261719
610622469244,0.937988,-0.0556641,0.264648
610622485650,0.9375,-0.0585938,0.268555
610622508152,0.932617,-0.0664062,0.265625
610622529183,0.937012,-0.065918,0.265625
610622545628,0.941895,-0.0644531,0.259766
610622568126,0.946289,-0.0634766,0.268555
610622589216,0.946289,-0.0693359,0.257324
610622605617,0.952148,-0.0708008,0.256348
610622634220,0.95752,-0.0737305,0.256836
610622658791,0.958496,-0.0751953,0.262207
610622665641,0.942383,-0.0727539,0.266602
610622688156,0.938477,-0.0649414,0.258789
610622709186,0.943848,-0.0585938,0.258789
610622725620,0.943848,-0.0654297,0.259277
610622748258,0.951172,-0.0668945,0.262695
610622769230,0.948242,-0.0664062,0.256348
610622785679,0.945801,-0.0600586,0.258789
610622808200,0.949707,-0.0444336,0.246094
610622829261,0.949219,-0.0131836,0.27002
610622847102,0.940918,-0.0366211,0.262207
610622868132,0.928711,-0.0727539,0.256836
610622889257,0.933105,-0.0742188,0.253906
610622905705,0.936523,-0.0717773,0.24707
610622928225,0.939453,-0.0576172,0.243652
610622957509,0.944336,-0.043457,0.24707
610622965630,0.940918,-0.0424805,0.248535
610622988120,0.944824,-0.0454102,0.255859
610623018781,0.949219,-0.0581055,0.25293
610623025597,0.954102,-0.059082,0.251953
610623049629,0.958496,-0.0561523,0.248047
610623070636,0.958984,-0.0546875,0.25
610623084886,0.949219,-0.0541992,0.25
610623107395,0.942871,-0.059082,0.255371
610623129858,0.943359,-0.0634766,0.259766
610623146279,0.939941,-0.0600586,0.249023
610623167326,0.937012,-0.0595703,0.248047
610623189963,0.947754,-0.0571289,0.256348
610623206303,0.945312,-0.059082,0.254395
610623227396,0.941895,-0.0556641,0.254883
610623251282,0.947266,-0.0595703,0.255859
