timestamp,x,y,z
11699306816,-0.382324,0.223145,0.918945
11699329437,-0.398926,0.191406,0.914062
11699353096,-0.387695,0.201172,0.912598
11699368276,-0.390625,0.233398,0.916992
11699389643,-0.371582,0.233398,0.902344
11699413161,-0.359863,0.219238,0.908691
11699467312,-0.351562,0.21875,0.923828
11699467949,-0.338379,0.212402,0.924805
11699468834,-0.33252,0.231934,0.922852
11699489120,-0.354492,0.24707,0.918457
11699503452,-0.356934,0.251953,0.925293
11699518622,-0.364746,0.239746,0.904785
11699544932,-0.356934,0.23877,0.90918
11699594687,-0.358398,0.234863,0.918945
11699595278,-0.354004,0.256836,0.905762
11699602295,-0.356934,0.253906,0.906738
11699621786,-0.358887,0.25,0.911621
11699645084,-0.361816,0.249512,0.916016
11699668888,-0.367188,0.25,0.906738
11699689936,-0.361328,0.249512,0.914062
11699706373,-0.352539,0.25,0.914551
11699728906,-0.342773,0.253906,0.905273
11699749961,-0.362793,0.26123,0.921875
11699766383,-0.357422,0.259766,0.90625
11699788909,-0.332031,0.236816,0.897461
11699809968,-0.365723,0.233398,0.926758
11699826373,-0.376953,0.238281,0.911621
11699848868,-0.359375,0.241211,0.900391
11699869749,-0.365723,0.241211,0.898926
11699886428,-0.385254,0.261719,0.907715
11699908943,-0.368652,0.255371,0.896484
11699930008,-0.339844,0.241211,0.909668
11699946424,-0.361328,0.252441,0.918945
11699968948,-0.364258,0.258789,0.908691
11699990166,-0.348145,0.255371,0.912109
11700006442,-0.36084,0.250977,0.911621
11700028903,-0.355957,0.249512,0.917969
11700050153,-0.350586,0.251953,0.901855
11700066490,-0.365234,0.254395,0.90625
11700089014,-0.376953,0.244629,0.91748
11700111489,-0.374512,0.234375,0.914062
11700126517,-0.361328,0.245117,0.901855
11700148926,-0.356934,0.256348,0.905273
11700171501,-0.36084,0.249512,0.911621
11700186498,-0.370605,0.246094,0.905762
11700208973,-0.375488,0.255859,0.900879
11700231381,-0.371582,0.250488,0.905762
11700245743,-0.374023,0.256836,0.899902
11700268977,-0.375488,0.261719,0.895996
11700291536,-0.378418,0.260742,0.901855
11700305775,-0.374023,0.25,0.905762
11700328887,-0.372559,0.25293,0.905273
11700351416,-0.357422,0.262695,0.906738
11700365746,-0.351562,0.267578,0.897461
11700388906,-0.361328,0.258789,0.898926
11700411374,-0.374512,0.260254,0.897461
11700425701,-0.378418,0.254883,0.904785
11700448849,-0.367676,0.23584,0.915039
11700471423,-0.356934,0.236328,0.919434
11700485853,-0.352539,0.249512,0.919434
11700508976,-0.353027,0.25,0.920898
11700531470,-0.364258,0.233398,0.921875
11700545804,-0.374512,0.209473,0.9375
11700576422,-0.377441,0.19873,0.925781
11700591478,-0.365234,0.265137,0.888672
11700614009,-0.364258,0.340332,0.860352
11700636500,-0.359863,0.354004,0.879883
11700651499,-0.38916,0.308594,0.910156
11700674000,-0.404297,0.24707,0.912598
11700696488,-0.352051,0.195312,0.888184
11700701818,-0.356934,0.200195,0.869141
11700724396,-0.349121,0.331543,0.858887
11700739483,-0.357422,0.361816,0.883789
11700762023,-0.367676,0.354492,0.85498
11700784418,-0.339355,0.292969,0.884766
11700799412,-0.361816,0.185547,0.891602
11700822017,-0.367676,0.18457,0.918945
11700844509,-0.378418,0.252441,0.928711
11700859374,-0.286133,0.305176,0.940918
11700882017,-0.294922,0.124512,0.9375
11700904499,-0.339844,0.104492,0.949707
11700919450,-0.198242,-0.0673828,1.09131
11700941926,-0.32666,0.0263672,0.958984
11700964325,-0.334961,0.13623,0.865234
11700979482,-0.280273,0.286621,0.949707
11701002011,-0.309082,0.274902,0.860352
11701024494,-0.302734,0.276855,0.952148
11701039377,-0.307129,0.168945,0.912109
11701061882,-0.322754,0.169922,0.943359
11701084385,-0.293457,0.128418,0.952148
11701099530,-0.259277,0.102051,0.970703
11701129941,-0.241211,0.0600586,1.01709
11701144324,-0.235352,0.0600586,0.998047
11701159291,-0.239746,0.0625,0.991699
11701181830,-0.217773,0.0288086,1.0127
11701205763,-0.190918,0.0126953,1.02246
11701226787,-0.195312,0.074707,1.00879
11701241808,-0.148926,0.125977,1
11701264511,-0.157715,0.128906,1.00977
11701282252,-0.179688,0.148926,1.00293
11701301863,-0.204102,0.119629,0.97168
11701318263,-0.221191,0.131348,0.974121
11701339455,-0.202637,0.159668,0.972168
11701362020,-0.216797,0.162109,0.963379
11701378364,-0.211426,0.168457,0.974121
11701399493,-0.202148,0.0952148,1.00635
11701422106,-0.179199,0.0849609,0.993652
11701438267,-0.141113,0.126465,1.00244
11701459386,-0.153809,0.183594,1.02832
11701482037,-0.181641,0.197754,1.02441
11701504620,-0.131348,0.196777,1.03418
11701519442,-0.0893555,0.0966797,1.04346
11701542048,-0.115723,0.0976562,1.0918
11701564403,-0.13916,0.243652,0.955566
11701579313,-0.181641,-0.0219727,0.995117
11701601808,-0.224609,-0.0551758,1.03857
11701624321,-0.27002,-0.0205078,1.0415
11701639295,-0.30127,0.174805,0.993652
11701661831,-0.276855,0.211914,0.995605
11701684459,-0.216309,0.159668,0.978516
11701699392,-0.251953,0.162109,1.00244
11701721894,-0.256348,0.236816,0.987793
11701744335,-0.285645,0.238281,0.929688
11701759538,-0.318359,0.189941,0.90625
11701781956,-0.286133,0.238281,0.894531
11701804536,-0.286133,0.270996,0.900879
11701819515,-0.272949,0.262695,0.897949
11701841906,-0.247559,0.292969,0.88623
11701864376,-0.288574,0.335449,0.869629
11701879321,-0.304199,0.321289,0.865234
11701901897,-0.295898,0.289062,0.880371
11701924528,-0.291504,0.305176,0.857422
11701939533,-0.352539,0.391602,0.804199
11701963422,-0.407227,0.426758,0.830566
11701984543,-0.350098,0.433594,0.832031
11701999564,-0.251465,0.428711,0.861816
11702022030,-0.221191,0.474121,0.835938
11702044388,-0.23584,0.507812,0.800293
11702060917,-0.237793,0.562988,0.777344
11702082046,-0.222656,0.548828,0.785645
11702104368,-0.223633,0.508789,0.824707
11702120907,-0.262695,0.467773,0.844238
11702141899,-0.313965,0.462891,0.841797
11702159735,-0.333008,0.442871,0.847168
11702180752,-0.324707,0.442871,0.861816
11702201772,-0.321289,0.437012,0.879395
11702219750,-0.317383,0.421387,0.887207
11702242220,-0.294922,0.404297,0.874512
11702261853,-0.288086,0.419434,0.875977
11702279733,-0.300293,0.436523,0.862305
11702306850,-0.292969,0.429199,0.855469
11702321789,-0.27832,0.411621,0.866699
11702339756,-0.257324,0.409668,0.874023
11702360906,-0.264648,0.416504,0.855469
11702382025,-0.274414,0.402344,0.856445
11702404412,-0.269043,0.410645,0.872559
11702420913,-0.253418,0.416016,0.868164
11702443379,-0.244141,0.393066,0.880371
11702464472,-0.241699,0.373535,0.878418
11702482282,-0.253906,0.409668,0.852051
11702501828,-0.293945,0.429688,0.835938
11702524609,-0.271973,0.396484,0.882812
11702542318,-0.220703,0.290039,0.927246
11702561986,-0.257324,0.225586,0.961426
11702584532,-0.370605,0.216309,1.03125
11702602340,-0.457031,0.322754,0.947266
11702621939,-0.45752,0.33252,0.904785
11702644596,-0.353027,0.272461,0.946777
11702662304,-0.319824,0.263184,1.01025
11702681931,-0.39502,0.222168,0.993652
11702704376,-0.413086,0.257324,0.960938
11702722231,-0.34668,0.269531,0.903809
11702741842,-0.299316,0.235352,0.874512
11702767258,-0.287109,0.182129,0.908691
11702782250,-0.316895,0.235352,0.883301
11702809471,-0.279785,0.340332,0.85791
11702824539,-0.216309,0.32373,0.896484
11702842286,-0.22998,0.17041,0.938965
11702862098,-0.256348,0.0615234,0.875
11702884545,-0.232422,0.0732422,0.946777
11702902266,-0.265625,0.0595703,0.954102
11702924812,-0.291504,0.0625,0.952148
11702944499,-0.272461,0.0844727,0.960449
11702968499,-0.239258,0.0883789,0.971191
11702983352,-0.224609,0.0932617,0.966797
11703004609,-0.20459,0.124512,0.960938
11703022331,-0.224121,0.100586,0.993652
11703043412,-0.208008,0.0917969,0.986328
11703064637,-0.177734,0.128906,0.994629
11703082356,-0.194824,0.119141,0.995117
11703103347,-0.211426,0.111816,0.989258
11703124547,-0.212402,0.104492,0.975586
11703142357,-0.230957,0.0800781,0.974609
11703163361,-0.211426,0.0952148,0.975586
11703179846,-0.207031,0.12793,0.990234
11703202271,-0.213379,0.0996094,0.98584
11703223292,-0.223145,0.115723,0.983398
11703239762,-0.23584,0.113281,0.973145
11703262274,-0.241211,0.10791,0.978027
11703283413,-0.214844,0.111816,0.975098
11703299802,-0.200195,0.122559,0.983398
11703322926,-0.191895,0.131348,0.984375
11703344829,-0.190918,0.148438,0.994629
11703359824,-0.194824,0.144531,0.992188
11703382399,-0.21582,0.13623,0.970215
11703404841,-0.219727,0.114746,0.986816
11703419809,-0.229492,0.128906,0.962891
11703441567,-0.224609,0.106445,0.996094
11703463966,-0.183105,0.125977,0.985352
11703485225,-0.172852,0.135742,0.992188
11703501499,-0.189941,0.11377,0.997559
11703524097,-0.208008,0.101562,0.989258
11703545069,-0.215332,0.129883,0.984863
11703561462,-0.213867,0.142578,0.985352
11703584087,-0.191406,0.125488,0.983398
11703598417,-0.169434,0.119629,0.977051
11703629180,-0.178223,0.15332,0.975586
11703644158,-0.188965,0.146484,0.975586
11703658414,-0.219238,0.145508,0.967285
11703681494,-0.219727,0.117188,0.966797
11703704053,-0.215332,0.121582,0.960938
11703718414,-0.198242,0.123047,0.961426
11703741582,-0.194824,0.111328,0.97998
11703764132,-0.208496,0.133301,0.981934
11703778519,-0.190918,0.171875,0.996582
11703801451,-0.206543,0.158203,0.998535
11703823939,-0.202637,0.112793,1.03955
11703845026,-0.155273,0.175781,1.08057
11703861473,-0.0698242,0.290039,1.02344
11703883951,-0.0751953,0.318359,1.05518
11703904976,-0.195801,0.29834,1.05615
11703921493,-0.293457,0.17334,0.968262
11703943948,-0.355469,0.09375,0.947754
11703965222,-0.449707,-0.00390625,0.875
11703981459,-0.387695,0.00439453,0.904297
11704004082,-0.30957,-0.0268555,0.880859
11704025212,-0.354492,-0.0375977,0.918457
11704041547,-0.327148,-0.015625,0.912109
11704064134,-0.250977,0.0424805,0.931152
11704085126,-0.274414,0.065918,0.918945
11704101513,-0.318359,0.0224609,0.910156
11704124084,-0.330566,-0.00585938,0.934082
11704145295,-0.29541,0,0.951172
11704161573,-0.255371,0.0493164,0.961914
11704184080,-0.251953,0.0493164,0.977051
11704205200,-0.25293,0.0444336,0.978516
11704220859,-0.258301,0.0493164,0.994629
11704244015,-0.278809,0.0336914,0.956543
11704265156,-0.260742,0.043457,0.958496
11704280950,-0.23291,0.0644531,0.969238
11704304087,-0.220703,0.0878906,0.986328
11704326530,-0.227539,0.103027,0.982422
11704342307,-0.262207,0.0908203,0.972656
11704364050,-0.295898,0.0683594,0.957031
11704386508,-0.277344,0.0664062,0.959473
11704409012,-0.224609,0.121582,0.987793
11704423978,-0.215332,0.166016,0.992188
11704446462,-0.23584,0.135254,0.967773
11704460823,-0.305664,0.0805664,0.956543
11704484126,-0.337891,0.0537109,0.958984
11704506507,-0.308594,0.0649414,0.953613
11704520883,-0.255371,0.196777,0.959473
11704544032,-0.239258,0.228516,0.956543
11704566609,-0.237793,0.194336,0.980957
11704580895,-0.239746,0.0947266,1.02002
11704611523,-0.290527,0.0893555,1.00488
11704626619,-0.309082,0.106934,0.985352
11704640865,-0.305176,0.20459,0.958984
11704664064,-0.335449,0.211426,0.912598
11704686620,-0.285156,0.0791016,0.929199
11704707683,-0.286621,-0.0649414,0.962891
11704724119,-0.269531,-0.0424805,0.991211
11704746584,-0.213379,0.216797,0.961426
11704767781,-0.173828,0.227539,0.975586
11704784142,-0.228516,0.106934,0.952148
11704814140,-0.302246,0.0102539,0.963867
11704829062,-0.242188,-0.09375,0.91748
11704844156,-0.0854492,0.0268555,1.01416
11704866624,-0.171875,0.143066,1.01953
11704887793,-0.226562,0.120605,1.02002
11704904053,-0.289062,0.133789,0.965332
11704926593,-0.273926,0.164062,0.938477
11704947731,-0.262207,0.15918,0.965332
11704964087,-0.277344,0.0859375,0.936523
11704986502,-0.164062,-0.129395,1.0957
11705007312,-0.137207,-0.118164,1.06787
11705025456,-0.237793,-0.0400391,0.981934
11705046529,-0.230469,0.191406,0.944824
11705067555,-0.193359,0.15918,0.962402
11705083977,-0.165039,-0.0214844,1.02881
11705114110,-0.166504,-0.027832,1.0166
11705127641,-0.178711,0.0483398,0.997559
11705144056,-0.21875,0.116211,0.970215
11705166612,-0.168945,0.0756836,0.994629
11705187607,-0.137695,0.00488281,1.0166
11705204143,-0.134277,-0.00195312,1.01221
11705226499,-0.155762,0.0864258,0.985352
11705249115,-0.152832,0.107422,1.00049
11705264063,-0.153809,0.0268555,0.995605
11705286618,-0.153809,0.00732422,1.00488
11705309087,-0.15332,0.0263672,1
11705324117,-0.160645,0.0864258,0.994629
11705346611,-0.157227,0.0844727,0.999512
11705369156,-0.172852,0.0234375,0.999512
11705384138,-0.180664,0.0185547,1.00098
11705406498,-0.17041,0.0488281,0.989746
11705429083,-0.162109,0.0693359,0.982422
11705443938,-0.175781,0.0517578,0.984375
11705469535,-0.177246,0.0327148,0.989746
11705483479,-0.17334,0.0512695,0.980469
11705502592,-0.164062,0.0541992,0.995117
11705518427,-0.0727539,0.065918,0.992676
11705541598,-0.47168,-0.150391,1.10254
11705562543,-0.466797,-0.203125,1.25146
11705578408,-0.895508,-0.173828,0.858398
11705601489,-0.503418,0.151855,0.627441
11705622778,0.614258,0.207031,1.29443
11705638444,-0.551758,-0.19043,1.06543
11705661577,-0.524902,0.160645,0.625488
11705682768,0.586914,0.135742,1.35498
11705698466,-0.661621,-0.220215,1.00928
11705722074,-0.488281,0.155762,0.635742
11705742776,0.590332,0.217773,1.25195
11705758606,-0.104004,-0.146484,1.29492
11705781577,-0.904785,-0.158203,0.811523
11705802739,-0.555664,0.123535,0.626465
11705818442,-0.109863,-0.0244141,1.10303
11705841587,-0.147949,0.0390625,1.01172
11705864139,-0.155762,0.0463867,1.00244
11705878509,-0.151855,0.0566406,0.992188
11705901552,-0.161133,0.0385742,1.00488
11705922824,-0.162109,0.034668,0.992676
11705938496,-0.181641,0.0576172,0.980469
11705960981,-0.185547,0.0883789,0.97998
11705982615,-0.185547,0.0517578,0.956543
11705998383,-0.167969,0.0561523,0.981934
11706020946,-0.152832,0.0166016,0.980957
11706043987,-0.134277,0.0605469,1.00488
11706065095,-0.0761719,0.0380859,1.10352
11706080852,-0.0732422,0.199219,1.10889
11706104024,-0.118164,0.214844,1.02295
11706125314,-0.168457,-0.194336,0.942871
11706147762,-0.20459,-0.146973,1.11426
11706164069,-0.184082,-0.230957,1.05566
11706185243,-0.298828,0.0288086,1.0459
11706200931,-0.453125,0.0869141,0.89209
11706224084,-0.29834,0.36377,0.871094
11706246508,-0.116699,0.219238,0.964355
11706260953,-0.237793,-0.00732422,0.896973
11706284106,-0.250977,-0.0390625,0.918945
11706305288,-0.263184,0.182129,0.902344
11706320941,-0.270996,0.354004,0.981445
11706344084,-0.295898,0.209473,1.01123
11706365953,-0.171875,-0.293945,0.90332
11706389157,-0.0571289,0.0390625,1.24805
11706411679,-0.256836,0.0874023,0.728516
11706425885,-0.274414,0.230957,1.0708
11706449030,-0.384277,0.246582,1.14453
11706471605,-0.538086,0.0209961,0.986328
11706492696,-0.547363,-0.0317383,0.992676
11706509043,-0.218262,-0.417969,1.03271
11706531619,0.00488281,0.555176,0.898438
11706554131,-0.187012,0.190918,0.960449
11706569023,-0.154785,0.0317383,0.887207
11706591589,-0.149414,-0.0756836,0.968262
11706612795,-0.11377,-0.127441,0.873047
11706629134,-0.13916,-0.0185547,0.865723
11706651609,-0.208008,0.12207,0.871094
11706672576,-0.230469,0.133301,0.92041
11706689039,-0.250977,0.0585938,0.970215
11706711515,-0.239258,-0.00439453,0.996094
11706732829,-0.207031,0.00292969,1.00244
11706749152,-0.199707,0.0253906,1.0249
11706771603,-0.222656,0.0688477,1.01025
11706792765,-0.246582,0.12793,1.00439
11706809130,-0.25293,0.108398,0.998047
11706831660,-0.247559,0.0678711,1.00781
11706852706,-0.242188,0.0390625,1.02197
11706869155,-0.240234,0.0698242,1.01709
11706891625,-0.230957,0.0996094,0.992188
11706912779,-0.228516,0.104004,0.981934
11706929140,-0.244629,0.09375,0.999023
11706951592,-0.245117,0.0986328,0.999023
11706972829,-0.22998,0.100098,1.00391
11706989124,-0.218262,0.0966797,0.998535
11707011507,-0.20752,0.103027,0.982422
11707032765,-0.207031,0.0961914,0.966309
11707049175,-0.192871,0.0791016,0.973145
11707071631,-0.180664,0.0761719,0.969238
11707092772,-0.15625,0.0654297,0.959473
11707109520,-0.175781,0.0698242,0.966797
11707131653,-0.191895,0.0688477,0.95166
11707154058,-0.181152,0.0766602,0.968262
11707169070,-0.180176,0.119629,0.961426
11707191610,-0.173828,0.11377,0.974121
11707214117,-0.196777,0.0756836,0.97168
11707229151,-0.196289,0.0688477,0.984375
11707251572,-0.186523,0.109863,0.984863
11707274067,-0.178711,0.129395,0.996094
11707289056,-0.188477,0.0947266,1.00342
11707311527,-0.200195,0.0869141,0.996094
11707334587,-0.199219,0.0864258,1.00342
11707355336,-0.191406,0.102051,1
11707371663,-0.193359,0.0908203,1.00488
11707394107,-0.186523,0.0786133,1.00195
11707408508,-0.179688,0.108887,1.00732
11707431619,-0.17334,0.102051,0.990234
11707454146,-0.191895,0.078125,0.996582
11707468466,-0.19043,0.0605469,0.978516
11707491628,-0.165527,0.0717773,0.979492
11707514107,-0.146484,0.090332,0.988281
11707528450,-0.141602,0.0839844,0.995605
11707551619,-0.146484,0.0654297,0.995117
11707574099,-0.145508,0.0981445,1.00098
11707588525,-0.117676,0.170898,0.964844
11707611598,-0.105957,0.168945,0.972656
11707634115,-0.13623,0.10498,0.983398
11707655132,-0.148926,0.0947266,0.999512
11707671658,-0.146973,0.12207,0.981445
11707694086,-0.146973,0.0976562,0.98877
11707715293,-0.17041,0.0283203,1.03809
11707731658,-0.195801,0.0966797,0.981445
11707754123,-0.164551,0.149414,0.97998
11707775329,-0.161133,0.148926,0.997559
11707791654,-0.178223,0.112305,0.994141
11707814189,-0.16748,0.110352,0.982422
11707835297,-0.148926,0.0898438,0.992676
11707851594,-0.137695,0.0976562,0.984863
11707874152,-0.13623,0.03125,0.980469
11707895148,-0.147461,0.120117,1.00781
11707911569,-0.185059,0.312012,1.05566
11707934079,-0.184082,0.25,0.841797
11707955056,-0.0576172,0.149414,1.15723
11707971503,-0.240723,-0.000976562,1.06494
11707994053,-0.15332,-0.132324,1.05322
11708015535,-0.111816,0.239258,0.861328
11708030903,-0.12207,0.0654297,1.00098
11708054142,-0.153809,-0.0175781,1.06055
11708091543,-0.277344,0.0107422,1.01074
11708093956,-0.400879,-0.118164,0.959473
11708114108,-0.238281,-0.0864258,0.817871
11708136561,-0.13916,0.346191,1.10449
11708150991,-0.258301,0.301758,0.915039
11708174185,-0.236816,-0.0629883,0.928711
11708179599,-0.265137,0.0493164,0.974121
11708202041,-0.186523,0.00292969,0.95459
11708224672,-0.131836,-0.00976562,0.952637
11708239696,-0.150879,0.0292969,0.978027
11708263453,-0.15332,0.0537109,0.986816
11708277147,-0.163086,0.027832,0.994141
11708299554,-0.186035,0.0361328,0.989746
11708322055,-0.203613,0.0332031,0.97998
11708344668,-0.208008,0.0463867,0.983887
11708359703,-0.207031,0.0722656,0.983887
11708382019,-0.198242,0.0668945,0.98877
11708397035,-0.19873,0.0610352,0.996094
11708419588,-0.207031,0.0766602,0.992676
11708442206,-0.20459,0.059082,0.993164
11708458529,-0.205566,0.0415039,1.00098
11708479526,-0.213379,0.0415039,0.999512
11708501958,-0.211914,0.0424805,0.995117
11708516950,-0.206543,0.0507812,0.999512
11708540163,-0.186523,0.0654297,0.994141
11708563941,-0.166992,0.0649414,1.01953
11708576941,-0.719238,-0.121582,0.898438
11708599514,-0.0458984,-0.0556641,1.20215
11708622683,-0.43457,0.0654297,0.669922
11708637024,-0.408691,-0.140625,0.722168
11708659672,0.429688,0.314453,1.74561
11708682698,-0.8125,-0.119629,0.185059
11708697045,0.262695,0.133789,1.56543
11708719520,-0.525879,-0.13623,0.90332
11708742824,-0.266113,0.0698242,0.961426
11708757212,-0.188477,0.0668945,0.977051
11708779576,-0.191895,0.129883,0.987305
11708802715,-0.154785,0.0883789,0.949219
11708817152,-0.158203,-0.0566406,1.01221
11708839596,-0.147461,-0.0234375,1.06055
11708862735,-0.677246,0.116699,0.475586
11708885191,-0.819824,0.00537109,0.370117
11708899625,-0.185059,-0.0336914,1.20898
11708922064,-0.101562,-0.0239258,0.98877
11708947217,-0.200684,-0.0532227,0.986816
11708947983,-0.200684,-0.0532227,0.986816
11708949705,-0.188477,0.0668945,0.977051
11708956176,-0.191895,0.129883,0.987305
11708961080,-0.214844,0.0439453,0.977051
11708982032,-0.171875,0.0444336,0.977539
11708997017,-0.157715,0.0786133,1.00684
11709019687,-0.132812,0.119629,1.01074
11709042107,-0.15332,0.160156,0.991211
11709057209,-0.188965,0.0429688,0.99707
11709079691,-0.26709,-0.0541992,1.04346
11709101941,-0.229492,-0.0698242,0.913574
11709125169,-0.0341797,-0.184082,1.06348
11709139443,-0.0913086,0.0332031,1.00342
11709161955,-0.198242,0.152344,0.950195
11709185115,-0.167969,0.228516,0.974609
11709199533,-0.165039,0.164551,0.977051
11709221969,-0.144531,0.0224609,1.01221
11709245355,-0.177734,-0.0263672,1.02979
11709259500,-0.199219,0.0336914,0.970215
11709282190,-0.187988,0.107422,0.989258
11709305376,-0.177246,0.0874023,0.999512
11709319518,-0.189941,0.027832,1.0083
11709342185,-0.174805,0.0458984,0.978516
11709357193,-0.177246,0.0673828,0.979492
11709379695,-0.195801,0.0820312,0.996094
11709402191,-0.176758,0.0639648,0.984375
11709417082,-0.146484,0.0693359,1.00049
11709439686,-0.142578,0.0742188,0.978516
11709462152,-0.172852,-0.00146484,1.01416
11709479931,-0.15332,0.0405273,0.983887
11709499741,-0.13916,0.0932617,0.996582
11709522283,-0.138184,0.0961914,0.992676
11709539969,-0.134766,0.0512695,1.01025
11709559610,-0.14502,0.0512695,0.998535
11709582140,-0.143555,0.081543,1.00049
11709600482,-0.135254,0.0732422,0.991699
11709619483,-0.141113,0.0678711,0.994629
11709641989,-0.139648,0.0541992,1
11709659896,-0.158203,0.0537109,1.00244
11709680928,-0.143555,0.0776367,1.00195
11709701964,-0.145996,0.0712891,1.00488
11709719877,-0.148438,0.0703125,1.00732
11709740912,-0.153809,0.0629883,0.998535
11709762074,-0.158203,0.0683594,0.995605
11709779973,-0.157227,0.0844727,1.00732
11709800967,-0.150391,0.081543,0.98291
11709829696,-0.163086,0.0839844,0.990723
11709839967,-0.163574,0.0727539,0.98877
11709861062,-0.168945,0.0585938,0.98584
11709882202,-0.157227,0.0805664,0.999512
11709899901,-0.138184,0.0810547,0.992676
11709922459,-0.145996,0.0883789,0.990234
11709942153,-0.160645,0.0800781,0.993652
11709959958,-0.165039,0.0507812,1.01221
11709981010,-0.155273,0.0444336,1.00342
11710002212,-0.132324,0.0737305,0.993652
11710019916,-0.119629,0.0952148,1.00049
11710042494,-0.132812,0.0883789,0.999023
11710062212,-0.144531,0.100586,0.998047
11710084762,-0.128418,0.210449,1.01709
11710102482,-0.124023,0.104492,0.931641
11710122028,-0.180664,-0.0805664,0.993164
11710144669,-0.191895,-0.138672,1.02197
11710162455,-0.147949,-0.114258,1.01025
11710182152,-0.125977,0.00732422,1.02539
11710204664,-0.154785,0.120605,1.00342
11710222487,-0.188965,0.133789,0.994629
11710249671,-0.215332,0.097168,0.995605
11710264563,-0.23291,0.109375,0.984375
11710290008,-0.241699,0.102539,0.976074
11710302213,-0.278809,0.03125,1.01025
11710324617,-0.268066,0.0200195,0.992188
11710342443,-0.253418,0.0898438,0.983887
11710362220,-0.255859,0.106934,0.975098
11710384726,-0.321777,0.046875,0.938477
11710402447,-0.29834,0.15625,0.916992
11710422171,-0.324219,0.123535,0.952148
11710444711,-0.310059,0.134766,0.933594
11710462415,-0.288574,0.134766,0.92334
11710482046,-0.223145,0.186523,0.937988
11710504699,-0.21875,0.174805,0.942383
11710522447,-0.275391,0.100586,0.930176
11710542188,-0.290039,0.170898,0.937988
11710564711,-0.294434,0.225586,0.928711
11710582403,-0.288574,0.214355,0.927246
11710602241,-0.308105,0.25,0.921387
11710624724,-0.33252,0.239746,0.919434
11710642488,-0.317383,0.213379,0.930176
11710663525,-0.306152,0.270996,0.932129
11710684709,-0.323242,0.295898,0.908691
11710702395,-0.296875,0.285645,0.917969
11710723554,-0.29248,0.299316,0.921387
11710752237,-0.29248,0.280762,0.937988
11710762452,-0.305664,0.283691,0.935547
11710783545,-0.323242,0.299316,0.931152
11710799987,-0.319824,0.290527,0.929199
11710822532,-0.299316,0.266113,0.930664
11710843550,-0.304688,0.27002,0.944336
11710859974,-0.311523,0.262207,0.939941
11710882424,-0.300781,0.250977,0.942383
11710905618,-0.289062,0.257812,0.936035
11710925055,-0.28125,0.251465,0.935547
11710941683,-0.285645,0.261719,0.931641
11710964118,-0.27832,0.253418,0.938477
11710978560,-0.269043,0.243164,0.947754
11711001670,-0.269043,0.239258,0.941895
11711024105,-0.273926,0.254395,0.931641
11711038491,-0.262207,0.251465,0.930176
11711061630,-0.258301,0.249512,0.933594
11711084242,-0.266113,0.234375,0.945312
11711098560,-0.26709,0.21875,0.959473
11711121715,-0.271484,0.236328,0.936523
11711144288,-0.311523,0.285156,0.910156
11711165456,-0.27832,0.253906,0.90332
11711181654,-0.227051,0.226074,0.935547
11711204217,-0.26416,0.221191,0.981445
11711225273,-0.274414,0.282715,0.988281
11711241717,-0.287598,0.304199,0.919922
11711271604,-0.362793,0.25293,0.92334
11711285380,-0.310547,0.187988,0.95459
11711301704,-0.226074,0.183594,0.988281
11711324132,-0.225098,0.227539,0.969238
11711345320,-0.284668,0.227051,0.990723
11711361739,-0.32666,0.210938,0.956543
11711384277,-0.327148,0.224121,0.953613
11711405361,-0.318359,0.235352,0.962402
11711421633,-0.282715,0.195312,1.00195
11711444117,-0.283203,0.190918,0.965332
11711472724,-0.288574,0.232422,0.932617
11711489097,-0.259277,0.217773,0.954102
11711504136,-0.276855,0.137207,0.95752
11711525176,-0.266602,0.131348,0.94873
11711541675,-0.24707,0.177246,0.956543
11711571631,-0.227539,0.182129,0.959473
11711585168,-0.199219,0.147461,0.928711
11711601612,-0.219727,0.120117,0.956055
11711624174,-0.231934,0.0932617,0.949219
11711646613,-0.212402,0.0722656,0.958496
11711661605,-0.171875,0.0913086,0.958008
11711684141,-0.16748,0.100098,0.991211
11711705211,-0.172363,0.0869141,0.98877
11711721623,-0.197754,0.0883789,1.00146
11711744528,-0.204102,0.0654297,0.97998
11711765243,-0.187012,0.0493164,0.985352
11711781686,-0.164062,0.0537109,0.981934
11711804154,-0.179199,0.0546875,0.98584
11711825191,-0.187988,0.0253906,0.975098
11711840958,-0.178711,0.0322266,0.980957
11711864181,-0.169922,0.050293,0.982422
11711886633,-0.165527,0.0449219,0.998047
11711901612,-0.172363,0.0234375,1.00098
11711924165,-0.179199,0.0356445,0.996094
11711946610,-0.176758,0.0541992,0.997559
11711960947,-0.181641,0.0556641,0.996582
11711984168,-0.196289,0.0551758,0.995117
11712006632,-0.195801,0.0371094,0.993652
11712020977,-0.214355,0.0361328,0.992676
11712044105,-0.212402,0.0449219,0.98584
11712066660,-0.201172,0.0498047,0.967773
11712080982,-0.204102,0.0341797,0.98291
11712104150,-0.20459,0.0244141,0.978027
11712126693,-0.19043,0.0327148,0.991211
11712141017,-0.193359,0.0219727,0.994629
11712164166,-0.191895,0.0249023,0.998047
11712186598,-0.18457,0.0102539,0.985352
11712207736,-0.201172,0.0175781,1.00391
11712223904,-0.194824,0.0375977,1.00293
11712246655,-0.158691,0.078125,0.986328
11712267685,-0.17334,0.0678711,0.996094
11712284133,-0.200195,0.0854492,0.97998
11712306651,-0.214355,0.125488,0.973145
11712327704,-0.220703,0.153809,0.980957
11712344131,-0.217773,0.15625,0.973633
11712366615,-0.198242,0.187988,0.964355
11712388002,-0.255371,0.160156,0.984863
11712404123,-0.328613,0.120605,0.978516
11712426657,-0.331055,0.0888672,0.949219
11712447756,-0.305176,0.0986328,0.95752
11712464136,-0.288574,0.0878906,0.950195
11712486663,-0.294922,0.0610352,0.957031
11712507744,-0.278809,-0.00488281,0.993652
11712524173,-0.220703,0.208008,0.941895
11712546652,-0.212402,0.234375,0.941895
11712567767,-0.272461,0.150879,0.945801
11712584158,-0.295898,0.0898438,0.95752
11712606640,-0.269531,0.133789,0.925781
11712627736,-0.287109,0.258301,0.937012
11712644133,-0.306641,0.162109,0.951172
11712666669,-0.333496,0.0478516,0.968262
11712687704,-0.329102,0.0820312,0.928711
11712704123,-0.303711,0.128906,0.958984
11712726678,-0.326172,0.0292969,0.940918
11712749156,-0.275879,-0.0273438,0.959961
11712764134,-0.225098,0.0551758,0.946777
11712786656,-0.254883,0.164551,0.98291
11712807723,-0.32959,0.122559,0.98291
11712823479,-0.336914,0.107422,0.977539
11712846657,-0.303711,0.15332,0.946777
11712869171,-0.306641,0.185059,0.962891
11712883548,-0.339844,0.225098,0.960938
11712906660,-0.350098,0.216797,0.942383
11712929182,-0.315918,0.158203,0.937988
11712944167,-0.29248,0.134766,0.936035
11712966654,-0.312988,0.177734,0.941895
11712989202,-0.322266,0.235352,0.95752
11713003567,-0.317871,0.227539,0.925781
11713026697,-0.320801,0.18457,0.924805
11713049247,-0.28125,0.11377,0.940918
11713063570,-0.244629,0.0800781,0.979004
11713086812,-0.259766,0.050293,1.00391
11713109234,-0.315918,0.127441,0.974121
11713131739,-0.333984,0.220703,0.962402
11713146723,-0.318848,0.238281,0.961914
11713169192,-0.273926,0.243652,0.960449
11713190374,-0.271484,0.243164,0.958496
11713206689,-0.279785,0.228027,0.950195
11713229133,-0.280762,0.205566,0.94873
11713250208,-0.280273,0.177246,0.949707
11713266654,-0.287598,0.123535,0.968262
11713289162,-0.298828,0.0932617,0.970215
11713311623,-0.317383,0.12793,0.958496
11713326630,-0.306152,0.162598,0.932617
11713349153,-0.301758,0.130859,0.973633
11713370215,-0.345703,0.0483398,0.946289
11713386659,-0.259766,0.17334,0.890137
11713409233,-0.167969,0.22998,0.895996
11713430222,-0.171387,0.216309,0.943848
11713446654,-0.292969,-0.00439453,1.01123
11713469126,-0.354492,-0.144043,1.01807
11713490245,-0.27832,-0.00439453,0.962402
11713506670,-0.169922,0.0859375,0.958008
11713529315,-0.265137,0.0112305,0.987305
11713550239,-0.343262,-0.0483398,0.987305
11713566714,-0.294434,-0.0351562,0.956543
11713589178,-0.241211,-0.0146484,0.970215
11713610355,-0.233887,-0.00878906,0.97168
11713626812,-0.23877,0.00537109,0.963379
11713649340,-0.28418,0.00195312,0.957031
11713670349,-0.309082,-0.0639648,0.981934
11713686736,-0.242188,-0.0712891,0.986328
11713709273,-0.169434,0.0263672,0.989258
11713730337,-0.126465,0.0771484,0.972656
11713746123,-0.205566,0.00439453,0.975098
11713769200,-0.29834,-0.0629883,0.984375
11713790402,-0.256348,-0.0874023,1.00195
11713806164,-0.214355,-0.00488281,0.984863
11713829296,-0.207031,0.0546875,0.97168
11713851810,-0.256348,-0.0131836,0.983398
11713866072,-0.263672,-0.0844727,0.991699
11713889080,-0.260254,-0.0585938,1.00049
11713911765,-0.238281,-0.0327148,0.999512
11713926103,-0.19873,-0.00878906,1.01221
11713949251,-0.183105,-0.0170898,0.995117
11713971717,-0.211914,0.0078125,0.983887
11713986029,-0.194824,0.0200195,0.98291
11714009325,-0.171875,-0.00488281,1.02051
11714031708,-0.240234,-0.0180664,0.999023
11714046017,-0.235352,0.0146484,1.00342
11714069175,-0.146973,0.107422,0.97168
11714091673,-0.0810547,0.102539,0.981934
11714112743,-0.151367,-0.0209961,0.97998
11714129216,-0.286133,-0.0537109,0.964844
11714151701,-0.286133,0,0.96875
11714172753,-0.214844,0.0302734,0.957031
11714189179,-0.215332,0.0166016,0.967285
11714211680,-0.252441,-0.00976562,0.952637
11714232771,-0.259277,-0.0449219,0.951172
11714250593,-0.231934,-0.0283203,0.970703
11714271806,-0.248535,-0.0366211,0.964355
11714286096,-0.255371,-0.0273438,0.980957
11714309223,-0.241699,-0.0200195,0.983398
11714331732,-0.21875,-0.0229492,0.991699
11714352940,-0.225586,-0.0234375,0.996094
11714369287,-0.22998,-0.019043,0.998535
11714391772,-0.215332,-0.00927734,1.01074
11714412928,-0.231934,-0.0205078,1.00049
11714429280,-0.229492,-0.000488281,1.00195
11714451681,-0.21582,0.015625,0.999512
11714472860,-0.193848,0.0180664,0.993652
11714489335,-0.209473,-0.0209961,1.00586
11714511734,-0.20752,-0.00195312,0.998047
11714532825,-0.224121,0.0385742,0.992188
11714549388,-0.215332,0.0249023,0.97998
11714571784,-0.208008,0.00976562,0.990234
11714600494,-0.201172,-0.00830078,0.980469
11714609268,-0.213867,-0.0273438,0.97168
11714631769,-0.198242,-0.0288086,0.970703
11714652929,-0.157227,0.0151367,0.97998
11714670713,-0.165527,0.0224609,0.979004
11714691790,-0.220215,-0.00683594,0.973145
11714712952,-0.227051,-0.0366211,0.96875
11714729113,-0.169922,-0.0419922,0.992188
11714751799,-0.120117,0.0620117,0.993652
11714774307,-0.147461,0.134766,0.981934
11714788611,-0.269043,0.0888672,0.977051
11714811777,-0.346191,0.0185547,0.977051
11714834245,-0.318359,-0.0424805,0.96875
11714848595,-0.223145,0.0317383,0.98877
11714871701,-0.203125,0.0498047,0.98877
11714894195,-0.226562,0.0498047,0.994629
11714908512,-0.271484,0.0151367,1.00098
11714931668,-0.28418,-0.0439453,1.00244
11714954186,-0.259766,0.0385742,0.972656
11714968530,-0.277832,0.0458984,0.936523
11714991673,-0.29248,0.0219727,0.95752
11715014227,-0.27832,0.0297852,0.960449
11715035300,-0.273926,0.043457,0.989746
11715051719,-0.286621,0.0444336,0.98584
11715074282,-0.331055,0.0146484,0.930664
11715095457,-0.359863,-0.0117188,0.950684
11715111776,-0.32666,0.0366211,0.936523
11715134310,-0.292969,0.104004,0.94873
11715156817,-0.292969,0.0952148,0.960938
11715171764,-0.325195,0.0576172,0.941895
11715194337,-0.34375,0.0351562,0.945801
11715215414,-0.306152,0.090332,0.928223
11715231822,-0.288574,0.168945,0.92627
11715254330,-0.307617,0.181641,0.933594
11715275333,-0.344727,0.135254,0.939941
11715291866,-0.339355,0.0712891,0.942383
11715314319,-0.328613,0.135254,0.955566
11715335518,-0.312988,0.193359,0.927734
11715351622,-0.334473,0.195801,0.942871
11715374238,-0.350586,0.152832,0.960938
11715395447,-0.319824,0.129395,0.925293
11715411881,-0.297852,0.110352,0.946289
11715434253,-0.305176,0.128906,0.944336
11715455460,-0.321289,0.181152,0.982422
11715471788,-0.316406,0.164551,0.931152
11715494263,-0.312012,0.160156,0.950195
11715515379,-0.306152,0.097168,0.984375
11715531734,-0.324707,0.111328,0.973145
11715561785,-0.33252,0.168457,0.990234
11715575469,-0.344727,0.192871,0.993652
11715591779,-0.355469,0.175781,0.972656
11715614281,-0.342285,0.140137,0.942871
11715635499,-0.311523,0.165039,0.939941
11715642188,-0.288574,0.192871,0.947754
11715658620,-0.31543,0.297363,0.941406
11715679696,-0.318848,0.29541,0.928223
11715710478,-0.317383,0.247559,0.955078
11715718610,-0.30957,0.180176,0.951172
11715739856,-0.299805,0.158691,0.933105
11715762289,-0.278809,0.195801,0.939453
11715777186,-0.282715,0.238281,0.921875
11715799805,-0.282715,0.23584,0.924805
11715822294,-0.291016,0.197266,0.94873
11715837204,-0.304688,0.178711,0.922363
11715859624,-0.303223,0.192383,0.936523
11715882346,-0.294922,0.225586,0.960449
11715897272,-0.286621,0.223145,0.972168
11715919672,-0.296875,0.154785,1.01562
11715942342,-0.363281,0.173828,0.969238
11715957274,-0.365234,0.258789,0.946777
11715979832,-0.337402,0.292969,0.95459
11716002198,-0.296875,0.237793,0.969238
11716018696,-0.264648,0.17041,0.997559
11716039920,-0.260742,0.134766,1.00244
11716062358,-0.257812,0.141113,1.01074
11716078584,-0.240234,0.162109,1.00293
11716099649,-0.239746,0.181152,0.966309
11716122093,-0.234375,0.154297,0.956543
11716138578,-0.203613,0.13916,0.944824
11716159594,-0.156738,0.0947266,0.941895
11716182095,-0.164551,0.0717773,0.95166
11716198557,-0.158203,0.027832,0.962402
11716219578,-0.187988,-0.0380859,0.949219
11716242109,-0.20752,-0.115234,0.947266
11716266166,-0.213379,-0.170898,0.935059
11716279798,-0.21582,-0.16748,0.930176
11716302335,-0.230469,-0.178223,0.919922
11716318694,-0.260742,-0.223145,0.921387
11716339822,-0.258301,-0.256348,0.931641
11716362356,-0.223633,-0.258789,0.904297
11716378575,-0.203125,-0.217773,0.921875
11716399670,-0.20166,-0.200195,0.944824
11716422222,-0.198242,-0.189453,0.942871
11716438647,-0.181152,-0.224609,0.960938
11716459718,-0.193359,-0.26416,0.958984
11716482195,-0.19873,-0.248047,0.958496
11716498660,-0.214355,-0.233887,0.955566
11716519837,-0.227051,-0.251465,0.956543
11716542237,-0.222656,-0.260254,0.968262
11716558705,-0.220703,-0.245605,0.976562
11716579705,-0.205078,-0.23584,0.976562
11716602155,-0.196289,-0.240234,0.984863
11716620103,-0.198242,-0.263672,0.990723
11716639852,-0.205566,-0.260742,1.00439
11716662315,-0.214844,-0.254883,1.00098
11716680112,-0.189941,-0.265137,1.00146
11716699854,-0.166016,-0.267578,0.987793
11716722232,-0.181152,-0.203125,0.983398
11716740091,-0.162109,-0.166992,0.977051
11716759900,-0.117676,-0.180176,0.977051
11716782148,-0.0761719,-0.1875,0.976074
11716800055,-0.0869141,-0.179688,0.983398
11716819861,-0.127441,-0.179199,0.983398
11716842197,-0.141602,-0.177246,0.982422
11716860121,-0.133301,-0.163086,0.964355
11716879783,-0.123535,-0.168945,0.958984
11716902221,-0.123535,-0.198242,0.97998
11716920127,-0.144531,-0.182129,1.00049
11716939870,-0.144043,-0.166992,0.984863
11716962250,-0.135742,-0.17041,0.982422
11716980092,-0.131348,-0.186523,0.987793
11716999758,-0.130859,-0.160156,0.987305
11717022323,-0.135742,-0.151855,0.988281
11717040144,-0.138672,-0.158691,0.976074
11717059672,-0.145508,-0.155273,0.977539
11717082205,-0.154785,-0.149414,0.976562
11717100091,-0.135254,-0.146484,0.980957
11717119825,-0.123535,-0.15332,0.987305
11717142231,-0.144043,-0.14502,0.991699
11717160104,-0.167969,-0.147461,1.01221
11717179888,-0.165039,-0.129883,1.00732
11717202218,-0.122559,-0.143555,0.996094
11717220123,-0.132324,-0.186035,1.02002
11717241215,-0.175781,-0.163574,1.03613
11717262348,-0.210449,-0.127441,1.03467
11717280111,-0.23877,-0.0415039,1.00098
11717301107,-0.208008,0.0493164,0.984863
11717322207,-0.227539,0.123535,0.952637
11717340130,-0.275391,0.135742,0.958008
11717361149,-0.284668,0.138672,0.970215
11717382365,-0.234863,0.175781,0.974121
11717400127,-0.200195,0.246582,0.960938
11717421162,-0.265137,0.264648,0.943359
11717442331,-0.331055,0.187012,0.937988
11717460055,-0.346191,0.116211,0.938965
11717481147,-0.330078,0.116699,0.946289
11717502219,-0.272949,0.156738,0.939941
11717520071,-0.227539,0.17627,0.992188
11717541077,-0.238281,0.186035,0.943359
11717562111,-0.307617,0.241211,0.880859
11717580043,-0.333984,0.305176,0.871094
11717602586,-0.351074,0.27002,0.863281
11717622121,-0.355957,0.20752,0.870117
11717640062,-0.356934,0.177734,0.887695
11717662664,-0.378418,0.1875,0.88916
11717682308,-0.415039,0.217773,0.900391
11717700045,-0.457031,0.208496,0.918945
11717722645,-0.475586,0.219727,0.916016
11717742300,-0.416504,0.23291,0.912598
11717760149,-0.351562,0.251953,0.903809
11717782610,-0.33252,0.243652,0.914062
11717802196,-0.34668,0.209961,0.926758
11717820032,-0.339355,0.18457,0.926758
11717842634,-0.339844,0.171387,0.935059
11717862243,-0.341797,0.174316,0.938477
11717880111,-0.344727,0.189453,0.938477
11717902625,-0.341309,0.200195,0.938965
11717922339,-0.332031,0.205566,0.939453
11717940090,-0.339844,0.205078,0.95459
11717962617,-0.359863,0.210938,0.958496
11717982350,-0.361816,0.212402,0.953125
11718000138,-0.353027,0.20459,0.951172
11718022635,-0.343262,0.196289,0.956543
11718042330,-0.367188,0.197266,0.961426
11718060139,-0.382812,0.203125,0.952637
11718082652,-0.357422,0.214844,0.943848
11718102359,-0.332031,0.21875,0.939453
11718120103,-0.338867,0.219727,0.943848
11718142650,-0.352539,0.208496,0.947266
11718162360,-0.331055,0.185059,0.956543
11718180119,-0.325195,0.150391,0.944824
11718202616,-0.322754,0.154297,0.941406
11718225124,-0.324707,0.163574,0.939453
11718240064,-0.32373,0.150391,0.927734
11718262677,-0.317871,0.154785,0.925781
11718283752,-0.291992,0.147949,0.925293
11718300180,-0.292969,0.142578,0.930664
11718322609,-0.292969,0.125,0.933105
11718343653,-0.277344,0.116699,0.942383
11718360087,-0.265137,0.107422,0.952148
11718382654,-0.261719,0.106445,0.945312
11718402936,-0.277344,0.110352,0.951172
11718432893,-0.27832,0.102539,0.95752
11718441890,-0.26123,0.0751953,0.960938
11718462904,-0.257812,0.0585938,0.964844
11718485536,-0.259766,0.0576172,0.967285
11718501817,-0.261719,0.0336914,0.97168
11718524290,-0.269531,0.019043,0.976074
11718545531,-0.257324,0,0.979492
11718561921,-0.24707,-0.00585938,0.980469
11718584329,-0.250488,-0.0268555,0.987793
11718598763,-0.250488,-0.0415039,0.983398
11718621891,-0.235352,-0.0322266,0.959473
11718644315,-0.19873,-0.0375977,0.959473
11718658643,-0.200684,-0.0634766,0.977051
11718681822,-0.22168,-0.115723,0.980957
11718704335,-0.214355,-0.147949,0.998047
11718718725,-0.20166,-0.118652,0.979492
11718741797,-0.199707,-0.101074,0.980469
11718764364,-0.205566,-0.114258,0.990234
11718778653,-0.197266,-0.12207,0.98877
11718801866,-0.19043,-0.132812,0.998047
11718824386,-0.178223,-0.135742,0.98877
11718845639,-0.175293,-0.137695,0.981445
11718861911,-0.168457,-0.135254,0.970215
11718884389,-0.162598,-0.153809,0.971191
11718905652,-0.17334,-0.153809,0.991699
11718921909,-0.181641,-0.149414,0.995117
11718944301,-0.166016,-0.155762,1.00146
11718965416,-0.170898,-0.158203,0.997559
11718981810,-0.183105,-0.144531,1.00098
11719004302,-0.189453,-0.132324,1.00586
11719025784,-0.196777,-0.125,1.00684
11719041782,-0.193848,-0.139648,0.993164
11719064257,-0.162109,-0.100098,0.984863
11719085416,-0.145996,-0.0859375,0.973145
11719101798,-0.189453,-0.0766602,0.970215
11719124336,-0.202148,-0.0537109,0.98584
11719145357,-0.1875,-0.0766602,0.993652
11719169279,-0.194824,-0.0722656,0.994629
11719184347,-0.208984,-0.0444336,0.999023
11719205372,-0.204102,-0.034668,0.997559
11719221761,-0.205566,-0.0561523,0.994629
11719244599,-0.221191,-0.0332031,0.974121
11719265503,-0.202148,0.0102539,0.946289
11719281920,-0.203613,-0.0219727,0.967285
11719304488,-0.225586,-0.0390625,0.976562
11719325623,-0.22168,-0.0649414,1.0166
11719341849,-0.221191,-0.0947266,0.986816
11719364343,-0.192871,-0.0600586,0.978027
11719385518,-0.183105,-0.0288086,0.98291
11719401932,-0.211426,-0.00732422,0.988281
11719424385,-0.214844,-0.0297852,1.00879
11719445537,-0.213379,-0.0571289,1.00879
11719461845,-0.209961,-0.0493164,1.00146
11719484435,-0.198242,-0.0175781,0.985352
11719506890,-0.209473,-0.00390625,0.993652
11719521870,-0.229492,0.00146484,0.999023
11719544396,-0.221191,-0.0151367,0.987305
11719566878,-0.217773,-0.0625,0.983398
11719581928,-0.212891,-0.0166016,0.983398
11719604365,-0.183594,0.00634766,0.977051
11719626955,-0.205078,-0.00292969,0.975586
11719641147,-0.220215,0.0161133,0.992676
11719664425,-0.209473,0.00878906,0.964355
11719686834,-0.214844,-0.00195312,0.979004
11719701197,-0.217285,-0.0244141,0.997559
11719724888,-0.205078,-0.012207,0.975586
11719746902,-0.209473,-0.00927734,0.985352
11719761335,-0.226562,-0.000976562,0.991211
11719784343,-0.228027,0.00634766,0.990723
11719806936,-0.210938,-0.00195312,0.981445
11719821201,-0.206055,-0.0302734,0.986816
11719844383,-0.210449,-0.0263672,1.00098
11719866881,-0.211914,-0.0161133,0.984863
11719881218,-0.213867,0.00488281,0.997559
11719904364,-0.223145,-0.000488281,0.998047
11719926923,-0.22168,-0.0131836,0.993164
11719941221,-0.209473,-0.0234375,0.995605
11719964507,-0.210938,-0.012207,0.984375
11719986812,-0.212402,-0.00390625,0.978027
11720007904,-0.209961,0.00341797,0.975586
11720024512,-0.21875,0.00244141,0.983398
11720046881,-0.219238,-0.0244141,0.970703
11720067978,-0.208008,-0.00537109,0.980469
11720084337,-0.192871,0.015625,0.966309
11720106829,-0.203125,-0.00537109,0.978027
11720127918,-0.214844,-0.0283203,0.991211
11720151866,-0.196289,-0.0136719,0.979004
