myot,myox,myoy,myoz
11778572741,0.836914,-0.237793,-0.291016
11778604073,0.811523,-0.205566,-0.335938
11778604819,0.801758,-0.239746,-0.412598
11778618287,0.820312,-0.209961,-0.524902
11778640744,0.870605,-0.175781,-0.461914
11778663177,1.9834,0.0654297,2.87939
11778678441,1.01172,0.29248,-0.601074
11778702309,1.28125,-0.61377,-0.333008
11778724685,1.45166,-0.391602,0.194336
11778738420,0.645508,-0.26416,-0.0405273
11778760827,1.0127,-0.244629,-0.00830078
11778783494,1.00049,0.0322266,0.0888672
11778798229,1.01611,-0.123535,0.0708008
11778820973,0.989258,-0.384277,0.160156
11778843402,1.00537,-0.250488,0.164551
11778865934,0.973145,-0.216309,0.156738
11778881045,0.924805,-0.308105,0.16748
11778903297,0.925781,-0.325684,0.171875
11778917832,0.902832,-0.320312,0.13916
11778940949,0.90918,-0.306641,0.16748
11778963303,0.924316,-0.285156,0.135742
11778977656,0.920898,-0.321289,0.14209
11779000969,0.889648,-0.331055,0.100098
11779023516,0.894531,-0.328613,0.0742188
11779037738,0.883301,-0.352539,0.0961914
11779060954,0.930664,-0.372559,0.09375
11779083316,0.958984,-0.29541,0.0317383
11779097682,0.94873,-0.274414,0.0102539
11779120939,0.951172,-0.290527,-0.0141602
11779143434,0.924316,-0.316895,-0.0112305
11779157738,0.908691,-0.348145,0.0234375
11779182262,0.91748,-0.328613,-0.0415039
11779203285,0.931152,-0.316406,-0.0483398
11779217612,0.924805,-0.319336,-0.0693359
11779240758,0.925781,-0.298828,-0.129395
11779263222,0.942383,-0.29541,-0.110352
11779294129,0.950684,-0.281738,-0.157227
11779300796,0.970215,-0.268066,-0.166504
11779323469,0.99707,-0.34668,-0.210938
11779337738,0.988281,-0.252441,-0.272949
11779360977,0.999023,-0.304199,-0.251953
11779383307,1.04443,-0.244141,-0.256348
11779397652,1.10352,-0.230469,-0.245117
11779420944,1.26221,-0.169434,-0.223145
11779443410,1.4624,-0.304688,-0.111328
11779457606,1.52686,-0.113281,0.00439453
11779488471,1.71289,-0.187988,0.116211
11779503360,1.59717,-0.250977,0.320801
11779517735,1.34375,-0.365723,0.09375
11779540947,1.11426,-0.492676,-0.509766
11779563272,1.04443,-0.186523,-0.526855
11779579017,0.876953,-0.348145,-0.273926
11779602235,0.581055,-0.320312,-0.322266
11779623487,0.625488,-0.0141602,-0.425293
11779639128,0.61377,0.167969,0.181152
11779662253,0.307617,-0.135254,0.33252
11779684506,0.305176,-0.236328,0.000488281
11779699037,0.471191,-0.208008,-0.169922
11779722211,0.508301,-0.217285,-0.112305
11779743429,0.618652,-0.193848,-0.19873
11779767366,0.785645,-0.164551,-0.244629
11779782301,0.952148,-0.204102,-0.278809
11779803264,1.04541,-0.279297,-0.411133
11779819133,1.1748,-0.313965,-0.425781
11779842254,1.15723,-0.34375,-0.461914
11779863342,1.14111,-0.306152,-0.35498
11779879118,1.17725,-0.180664,-0.301758
11779901684,1.21094,-0.161621,-0.255859
11779923446,1.2251,-0.133789,-0.182129
11779945968,1.229,-0.0957031,-0.153809
11779961610,1.25439,-0.104492,-0.166504
11779990957,1.25732,-0.0986328,-0.137695
11780014747,1.18457,-0.138184,-0.216309
11780029840,1.09326,-0.182617,-0.308105
11780044867,1.02539,-0.158691,-0.260742
11780059603,0.996094,-0.116211,-0.268555
11780081635,0.871582,-0.065918,-0.414062
11780104760,0.793945,-0.144531,-0.36084
11780119190,0.733887,-0.12207,-0.425781
11780148348,0.719727,-0.166504,-0.422852
11780164860,0.774902,-0.205566,-0.324707
11780179061,0.772461,-0.218262,-0.435547
11780201587,0.935059,-0.126953,-0.043457
11780224845,1.22217,0.0551758,1.92041
11780245971,1.83496,0.0234375,1.17822
11780261669,1.20801,-0.150879,-1.13379
11780292237,1.5376,-0.811523,0.166016
11780305813,0.960449,-0.208008,0.00195312
11780321676,0.758789,-0.283691,-0.112793
11780344781,1.06348,-0.16748,0.0859375
11780365969,1.02832,0.0380859,0.129883
11780381635,0.898438,-0.276855,0.102051
11780404838,0.941406,-0.429688,0.205078
11780425984,0.971191,-0.259277,0.181641
11780441625,0.979492,-0.188965,0.17627
11780464793,0.901855,-0.304199,0.20752
11780486067,0.868652,-0.39502,0.199219
11780501651,0.875488,-0.364258,0.15625
11780524818,0.936523,-0.313477,0.138672
11780545941,0.958984,-0.186523,0.0507812
11780561569,0.940918,-0.233398,0.107422
11780584831,0.924805,-0.300293,0.0581055
11780605977,0.899414,-0.299805,0.0952148
11780621619,0.964355,-0.329102,0.117676
11780644854,0.958008,-0.257324,0.00292969
11780665965,0.961914,-0.27002,-0.0283203
11780681684,0.95752,-0.262207,-0.0786133
11780704864,0.946289,-0.249023,-0.0664062
11780725947,0.969238,-0.268555,-0.0585938
11780741607,0.949219,-0.24707,-0.0683594
11780764765,0.939453,-0.296387,-0.0488281
11780785992,0.932129,-0.268066,-0.0898438
11780801572,0.923828,-0.291504,-0.050293
11780824131,0.935059,-0.276367,-0.0615234
11780845868,0.933105,-0.28125,-0.0688477
11780861630,0.951172,-0.256836,-0.147461
11780884133,0.949219,-0.224121,-0.171387
11780907246,0.92334,-0.320312,-0.114258
11780921702,0.923828,-0.311523,-0.199707
11780944109,0.963867,-0.300781,-0.206055
11780967316,1.01953,-0.344238,-0.216309
11780981684,1.13086,-0.25293,-0.24707
11781004087,1.30176,-0.312988,-0.228027
11781027193,1.36523,-0.120117,-0.179199
11781041655,1.58545,-0.00390625,-0.140137
11781072279,1.7251,0.0644531,-0.0322266
11781087327,1.71582,-0.136719,0.909668
11781101546,0.96875,0.121094,-0.431152
11781124183,1.07373,-0.485352,-0.202637
11781147304,0.865234,-0.58252,-0.706055
11781168530,1.05859,-0.271484,-0.518066
11781184109,0.844727,-0.103027,-0.51123
11781207279,0.663574,0.10498,-0.074707
11781228428,0.564941,0.00976562,0.19043
11781282946,0.418945,-0.150391,0.22998
11781285161,0.295898,-0.242676,-0.0512695
11781291309,0.484375,-0.28125,-0.134277
11781304069,0.455566,-0.277832,-0.0756836
11781334753,0.523438,-0.203613,-0.229492
11781348302,0.73877,-0.147949,-0.348633
11781364219,0.828125,-0.143555,-0.391602
11781387352,0.955566,-0.13916,-0.46875
11781400154,1.02051,-0.205566,-0.520996
11781423471,1.05566,-0.27832,-0.449707
11781446469,1.11328,-0.217773,-0.39209
11781460317,1.12842,-0.177734,-0.337891
11781483504,1.13525,-0.185059,-0.280762
11781497794,1.16309,-0.152832,-0.254883
11781520335,1.17041,-0.163086,-0.188477
11781543495,1.19678,-0.119629,-0.143066
11781559252,1.18945,-0.0883789,-0.104004
11781580196,1.18945,-0.124023,-0.152832
11781603454,1.15576,-0.0976562,-0.14209
11781617829,1.14062,-0.106934,-0.0839844
11781640209,1.10498,-0.0712891,-0.112793
11781663483,1.01465,-0.0654297,-0.0996094
11781677606,0.987793,-0.0986328,-0.109863
11781700299,0.947754,-0.0742188,-0.10791
11781723466,0.834473,-0.146973,-0.182617
11781737873,0.869629,-0.128906,-0.106445
11781760317,0.863281,-0.0825195,-0.0625
11781783905,0.819824,-0.10791,-0.0849609
11781797824,0.778809,-0.151367,-0.132324
11781820209,0.811523,-0.230469,-0.0263672
11781852935,0.823242,-0.231934,-0.103516
11781857823,0.786621,-0.288086,-0.216797
11781880330,0.927246,-0.248535,0.208984
11781903949,1.29639,-0.0708008,2.11377
11781917843,1.30029,0.0551758,0.157715
11781940219,1.22168,-0.382324,-0.253906
11781963513,1.11768,-0.649414,0.189941
11781977830,1.01953,-0.142578,-0.000488281
11782000359,0.997559,-0.174316,0.0273438
11782023368,0.961914,0.0107422,0.150879
11782037874,0.862793,-0.130371,0.219238
11782060163,0.872559,-0.514648,0.200195
11782083504,0.924805,-0.340332,0.132324
11782097742,1.02881,-0.200195,0.105957
11782120278,1.02002,-0.22998,0.145508
11782151528,0.978027,-0.229492,0.0913086
11782157798,0.945312,-0.345215,0.135254
11782180345,0.92627,-0.380371,0.135254
11782203406,0.9375,-0.338867,0.135254
11782217903,0.933105,-0.271484,0.106445
11782240313,0.890137,-0.320312,0.128418
11782263533,0.868652,-0.410156,0.19043
11782277840,0.875488,-0.364746,0.15332
11782300304,0.898926,-0.340332,0.0834961
11782323337,0.959473,-0.334473,0.115723
11782337853,0.960449,-0.261719,-0.0141602
11782360352,0.952637,-0.268066,0.0151367
11782383481,0.955566,-0.313477,-0.00488281
11782397668,0.961914,-0.28125,-0.0292969
11782420259,0.932617,-0.303223,0.0102539
11782443512,0.945801,-0.310547,-0.000488281
11782459094,0.954102,-0.284668,-0.0698242
11782480362,0.929688,-0.315918,-0.050293
11782503532,0.924805,-0.263184,-0.0810547
11782517911,0.912109,-0.306152,-0.0532227
11782540378,0.938477,-0.344238,-0.0473633
11782563535,0.928711,-0.245117,-0.113281
11782577773,0.902832,-0.256836,-0.125488
11782600336,0.938477,-0.217285,-0.138672
11782623384,0.93457,-0.288574,-0.0708008
11782637825,0.927734,-0.291504,-0.148438
11782660366,0.925293,-0.20459,-0.176758
11782683413,0.924316,-0.304688,-0.136719
11782697815,0.974121,-0.273438,-0.171875
11782720182,1.17822,-0.426758,-0.12207
11782743492,1.32666,-0.466797,-0.118652
11782765847,1.28467,-0.155273,-0.143066
11782780329,1.2417,-0.0253906,-0.148438
11782802656,1.22412,0.0742188,-0.15625
11782817877,1.25342,-0.103027,-0.0708008
11782840330,1.24219,-0.291504,0.193359
11782862805,0.96875,-0.37207,-0.0512695
11782877919,0.898438,-0.271973,-0.413574
11782900331,0.947754,-0.317383,-0.623047
11782922863,0.903809,-0.288574,-0.658203
11782937685,0.845215,-0.46875,-0.535156
11782960270,0.697266,-0.350586,-0.371094
11782982855,0.78418,0.0117188,0.21582
11782997903,0.509766,0.0078125,0.279297
11783020389,0.453125,-0.132812,0.148438
11783042881,0.541504,-0.246582,0.0166016
11783057707,0.629395,-0.177246,0.107422
11783080306,0.608887,-0.249023,0.00537109
11783102886,0.807129,-0.187988,-0.149414
11783117844,0.917969,-0.0756836,-0.135742
11783140319,1.07275,-0.0185547,-0.189453
11783162861,1.1665,-0.0512695,-0.242188
11783177819,1.22314,-0.146484,-0.204102
11783200239,1.23291,-0.258301,-0.177246
11783222915,1.25439,-0.211426,-0.186035
11783237863,1.24365,-0.183105,-0.158691
11783260302,1.22168,-0.179199,-0.177246
11783282681,1.18457,-0.166992,-0.171387
11783297807,1.21436,-0.160156,-0.0664062
11783320337,1.17627,-0.178223,-0.0654297
11783342700,1.12354,-0.112793,-0.148438
11783357875,1.0542,-0.209473,0.00830078
11783380387,1.02148,-0.149902,-0.0581055
11783402732,1.00732,-0.0131836,-0.27832
11783417880,0.940918,-0.097168,-0.0664062
11783440360,0.877441,-0.11084,0.0263672
11783462944,0.912109,0.00732422,0.00244141
11783477865,0.882812,0.00195312,0.0214844
11783500299,0.843262,-0.0507812,0.0532227
11783522855,0.847656,-0.0800781,0.0957031
11783537747,0.82373,-0.0800781,0.000976562
11783560438,0.885254,-0.0341797,0.131348
11783582865,0.835938,-0.141113,0.228027
11783597998,0.835938,-0.165527,0.149902
11783620287,0.876465,-0.138184,0.0126953
11783642729,0.854492,-0.170898,-0.0556641
11783659237,0.851562,-0.334473,-0.097168
11783680353,0.956543,-0.474121,0.25293
11783702745,1.41357,-0.0332031,0.85791
11783719134,1.2251,-0.228516,-0.175293
11783740319,1.25928,-0.297852,-0.104004
11783762776,1.12646,-0.0913086,0.180176
11783779235,0.790039,-0.217285,0.0732422
11783800280,1.02686,-0.124512,-0.0249023
11783822779,1.03418,-0.0600586,0.111328
11783839235,1.01807,-0.116699,0.109375
11783860355,0.956055,-0.102539,0.050293
11783882727,1.01562,-0.123535,0.126953
11783899210,0.955078,-0.197266,0.160156
11783920352,0.940918,-0.269531,0.205566
11783942850,0.930176,-0.298828,0.0620117
11783959259,0.959473,-0.263184,0.0839844
11783980384,0.964844,-0.192871,0.119141
11784003004,0.929688,-0.276855,0.220703
11784025256,0.9375,-0.290527,0.134766
11784040320,0.969727,-0.03125,0.110352
11784062883,1.02393,-0.182129,0.12207
11784079244,0.896973,-0.379395,0.129883
11784100218,0.905762,-0.345703,0.116211
11784124215,0.921387,-0.241211,0.0810547
11784139216,0.946777,-0.251465,0.0996094
11784160373,0.956055,-0.239258,0.0947266
11784182869,0.907715,-0.317871,0.0854492
11784199228,0.937988,-0.346191,0.0722656
11784223077,0.935059,-0.25293,0.074707
11784242898,0.953613,-0.263672,0.0976562
11784259257,0.977539,-0.236816,0.03125
11784280199,0.963379,-0.26709,0.0405273
11784296681,0.945801,-0.297852,0.0766602
11784319249,0.943359,-0.276855,0.0576172
11784340416,0.921875,-0.298828,0.0756836
11784362874,0.945312,-0.333984,0.0883789
11784379258,0.913086,-0.287598,0.0825195
11784403089,0.919922,-0.296875,0.0708008
11784422700,0.916504,-0.316406,0.0917969
11784439135,0.924805,-0.339844,0.0737305
11784461634,0.920898,-0.317871,0.0546875
11784476629,0.94043,-0.271484,0.0410156
11784500616,0.935059,-0.29248,0.0581055
11784520220,0.924805,-0.333984,0.0908203
11784536598,0.941895,-0.359863,0.0839844
11784559142,0.927734,-0.280762,0.00537109
11784580220,0.96875,-0.289062,0.0288086
11784596754,0.942871,-0.351562,0.0483398
11784619200,0.938965,-0.321289,0.0336914
11784641649,0.943359,-0.318848,0.0561523
11784656725,0.919434,-0.332031,0.0932617
11784679141,0.905762,-0.30127,0.09375
11784701659,0.91748,-0.376465,0.168457
11784722702,0.904297,-0.340332,0.116211
11784739164,0.900879,-0.227539,0.0688477
11784761650,0.916504,-0.330566,0.074707
11784782695,0.950684,-0.369629,0.108398
11784799116,0.936035,-0.293945,0.00878906
11784821624,0.932617,-0.226074,0.0102539
11784842757,0.955078,-0.303223,0.0400391
11784859116,0.940918,-0.29541,0.00292969
11784881600,0.944336,-0.253906,-0.00830078
11784898148,0.94873,-0.282227,0.0112305
11784920642,0.93457,-0.301758,0.0288086
11784941626,0.916992,-0.300293,0.0366211
11784958137,0.924805,-0.290527,0.0639648
11784979145,0.92334,-0.273438,0.0537109
11785001715,0.913086,-0.29834,0.0898438
11785022776,0.912109,-0.297852,0.0859375
11785038403,0.937012,-0.302734,0.046875
11785060893,0.94043,-0.234375,0.0209961
11785083394,0.976562,-0.209473,0.00390625
11785098398,0.963379,-0.289062,0.0463867
11785122294,0.938477,-0.298828,0.050293
11785143340,0.921387,-0.269043,0.0512695
11785158374,0.937012,-0.287109,0.074707
11785188400,0.928223,-0.285156,0.0644531
11785203390,0.93457,-0.275391,0.0473633
11785218387,0.943359,-0.278809,0.0751953
11785240862,0.937012,-0.254883,0.0390625
11785263404,0.914062,-0.269531,0.0522461
11785278353,0.959961,-0.263672,0.050293
11785300892,0.920898,-0.25293,0.0219727
11785323402,0.920898,-0.286621,0.0576172
11785338400,1.00049,-0.276367,0.0761719
11785360905,0.980469,-0.209473,-0.0224609
11785383406,0.962402,-0.243652,0.0253906
11785398392,0.944336,-0.258301,0.0253906
11785428403,0.932129,-0.278809,0.0366211
11785443370,0.93457,-0.266113,0.0395508
11785458396,0.942383,-0.253906,0.0395508
11785480897,0.928711,-0.258301,0.0507812
11785503369,0.930664,-0.269043,0.0625
11785518395,0.920898,-0.251953,0.0595703
11785540879,0.94873,-0.261719,0.0727539
11785563381,0.94873,-0.258789,0.0512695
11785578382,0.939941,-0.26123,0.0415039
11785600871,0.942871,-0.256836,0.0507812
11785623385,0.95166,-0.256836,0.0493164
11785638360,0.952148,-0.251953,0.0327148
11785660895,0.941895,-0.260254,0.0375977
11785676724,0.950684,-0.251953,0.0678711
11785699876,0.961426,-0.239746,0.0195312
11785721110,0.955078,-0.236816,0.00244141
11785736725,0.956543,-0.249512,0.034668
11785759913,0.945312,-0.255859,0.0498047
11785782417,0.939941,-0.244141,0.0234375
11785796803,0.948242,-0.26416,0.0405273
11785819947,0.945312,-0.254395,0.03125
11785841073,0.938477,-0.268555,0.0366211
11785856801,0.941406,-0.249023,0.0375977
11785879879,0.943848,-0.261719,0.0512695
11785901105,0.950684,-0.253906,0.0361328
11785923564,0.94043,-0.252441,0.0341797
11785939854,0.944336,-0.264648,0.0297852
11785960979,0.94043,-0.256836,0.0351562
11785976798,0.944824,-0.235352,0.03125
11786000355,0.960938,-0.255371,0.0429688
11786021098,0.958496,-0.257324,0.0185547
11786037189,0.946777,-0.23584,0.00195312
11786059948,0.954102,-0.256836,0.0166016
11786081101,0.950684,-0.245117,0.0146484
11786096839,0.941895,-0.244141,0.00976562
11786119902,0.943359,-0.255859,0.0209961
11786141104,0.947754,-0.257812,0.0253906
11786156752,0.95459,-0.250488,0.0244141
11786179898,0.937012,-0.261719,0.00683594
11786201000,0.945312,-0.252441,0.0224609
11786216769,0.946289,-0.246094,0.00830078
11786239879,0.950195,-0.25293,0.00976562
11786261098,0.947266,-0.248535,0.0180664
11786276805,0.942871,-0.237793,0.015625
11786299929,0.943848,-0.253906,0.0166016
11786321134,0.946289,-0.252441,0.0107422
11786336880,0.945312,-0.250488,0.0205078
11786359971,0.955566,-0.248047,-0.00146484
11786381092,0.95459,-0.254883,0.00195312
11786396849,0.947754,-0.250488,0.000488281
11786419890,0.942871,-0.248535,0.0112305
11786441012,0.941895,-0.251465,0.0151367
11786456817,0.942871,-0.25,0.00195312
11786479287,0.949707,-0.246094,0.0112305
11786501168,0.944336,-0.258301,0.0136719
11786516811,0.942383,-0.252441,-0.00146484
11786539245,0.948242,-0.25293,0.00830078
11786561142,0.954102,-0.255859,0.019043
11786576827,0.955078,-0.254883,-0.00439453
11786599285,0.947266,-0.244141,-0.00439453
11786621128,0.949707,-0.255859,0.0180664
11786636856,0.945312,-0.253906,-0.00341797
11786659219,0.941895,-0.249512,-0.000976562
11786682460,0.950195,-0.233398,-0.00488281
11786696779,0.960449,-0.260254,0.0141602
11786719260,0.940918,-0.25293,-0.0078125
11786742357,0.942871,-0.256348,-0.000488281
11786756737,0.94043,-0.245605,0.00830078
11786779253,0.955566,-0.254883,0.00341797
11786802426,0.944336,-0.258301,0.00146484
11786816843,0.946777,-0.244629,0.00292969
11786839301,0.946289,-0.250488,0.00488281
11786862415,0.946289,-0.245605,-0.00488281
11786884942,0.950684,-0.25,-0.00439453
11786899159,0.949219,-0.250488,0.00537109
11786922396,0.952637,-0.251953,-0.00634766
11786936836,0.949707,-0.234863,-0.00341797
11786959292,0.946777,-0.245605,-0.00195312
11786982475,0.94043,-0.252441,0.00537109
11786996833,0.955566,-0.248535,0.00585938
11787019314,0.95166,-0.24707,0.0112305
11787042419,0.952637,-0.247559,0.0170898
11787056784,0.937988,-0.259766,0.00976562
11787079245,0.929688,-0.248535,0.0180664
11787102377,0.963867,-0.216309,0.00927734
11787123644,0.958984,-0.241211,0.00830078
11787139283,0.947754,-0.24707,0.00830078
11787162437,0.940918,-0.249512,0.0126953
11787176838,0.944336,-0.257324,0.0219727
11787199298,0.943359,-0.251465,0.0229492
11787222444,0.947266,-0.241211,0.0146484
11787243681,0.946289,-0.243164,0.0307617
11787259301,0.949219,-0.249023,0.0253906
11787282430,0.941895,-0.248047,0.0170898
11787303424,0.944336,-0.251465,0.0219727
11787319794,0.946777,-0.262207,0.0332031
11787342423,0.95166,-0.249023,0.0112305
11787363548,0.946777,-0.237305,0.00439453
11787379316,0.94873,-0.241699,0.0131836
11787402388,0.955566,-0.233887,0.0151367
11787423613,0.958496,-0.208984,0.00341797
11787439296,0.964844,-0.215332,0.00341797
11787469970,0.949219,-0.240234,0.00830078
11787483630,0.945801,-0.247559,0.0117188
11787499296,0.955566,-0.246582,0.019043
11787521822,0.947266,-0.244141,0.00878906
11787543607,0.945312,-0.244141,0.0175781
11787559295,0.947266,-0.245117,0.015625
11787581763,0.94873,-0.241211,0.0224609
11787603555,0.950195,-0.241699,0.0239258
11787619284,0.942871,-0.246094,0.0131836
11787641850,0.941406,-0.245605,0.0112305
11787664913,0.949707,-0.240723,0.0180664
11787679302,0.952148,-0.23291,0.00488281
11787701786,0.946289,-0.239258,0.0209961
11787724885,0.951172,-0.244141,0.0136719
11787747385,0.950684,-0.229004,0.00488281
11787761866,0.961426,-0.223145,0.00732422
11787784967,0.947754,-0.238281,0.0117188
11787799214,0.948242,-0.250488,0.0102539
11787821798,0.947266,-0.240234,0.0141602
11787844963,0.952637,-0.234375,0.00537109
11787859295,0.958984,-0.231445,0.00292969
11787881775,0.955566,-0.237793,0.0078125
11787904920,0.944824,-0.23877,0.0107422
11787919290,0.950684,-0.231934,0.0151367
11787941845,0.956055,-0.233887,0.00634766
11787965004,0.945801,-0.256348,0.0141602
11787979256,0.944336,-0.257324,0.0185547
11788001817,0.952148,-0.240234,0.0078125
11788024951,0.948242,-0.23877,0.0107422
11788039296,0.94873,-0.242676,0.0175781
11788061817,0.950195,-0.244141,0.0161133
11788092488,0.950684,-0.246094,0.0126953
11788099307,0.953125,-0.248535,0.015625
11788121771,0.948242,-0.244629,0.0117188
11788144960,0.948242,-0.24707,0.0136719
11788166150,0.944824,-0.253418,0.0175781
11788181847,0.943848,-0.243164,0.0146484
11788204889,0.946289,-0.243164,0.0170898
11788226191,0.948242,-0.245117,0.0141602
11788241849,0.947266,-0.246094,0.0146484
11788264953,0.94873,-0.240234,0.0112305
11788285963,0.943848,-0.242188,0.0151367
11788301778,0.958008,-0.239258,0.0185547
11788324966,0.949707,-0.234375,0.00439453
11788346079,0.95166,-0.244141,0.00878906
11788361828,0.949219,-0.250488,0.00976562
11788384349,0.948242,-0.244629,0.00439453
11788406205,0.951172,-0.242188,0.0078125
11788421778,0.952148,-0.23584,0.00439453
11788444285,0.951172,-0.244629,0.00195312
11788466136,0.946777,-0.24707,0.00390625
11788481756,0.95752,-0.243164,0.0161133
11788504325,0.950195,-0.236816,0.00341797
11788526148,0.952148,-0.249023,0.00732422
11788541828,0.942383,-0.246094,0.012207
11788564254,0.941895,-0.246094,0.00537109
11788587506,0.949219,-0.251953,0.015625
11788601822,0.949219,-0.24707,0.00878906
11788624342,0.953613,-0.236328,0.012207
11788647427,0.946289,-0.250488,0.00927734
11788661814,0.946777,-0.242676,0.0166016
11788684309,0.947266,-0.248535,0.0200195
11788698014,0.950195,-0.243652,0.00585938
11788721150,0.953125,-0.246582,0.0107422
11788735530,0.946777,-0.245117,0.0141602
11788758086,0.952637,-0.23877,0.0141602
11788781194,0.939453,-0.245605,0.00195312
11788795494,0.955566,-0.245117,0.00830078
11788817935,0.953125,-0.233887,-0.000488281
11788841154,0.948242,-0.246582,0.00244141
11788855499,0.950195,-0.243652,0.00683594
11788877973,0.953613,-0.248047,0.0185547
11788901123,0.951172,-0.241699,0.00341797
11788915463,0.952637,-0.239258,0.0102539
11788937998,0.947266,-0.245117,0.0117188
11788961209,0.944824,-0.241699,0.0131836
11788975328,0.958984,-0.232422,0.00439453
11788997949,0.952637,-0.240723,0.00830078
11789021180,0.948242,-0.245605,0.012207
11789035505,0.94873,-0.232422,0.019043
11789057868,0.954102,-0.227539,0.015625
11789081048,0.946289,-0.238281,0.0131836
11789095378,0.946777,-0.23877,0.015625
11789117990,0.95166,-0.238281,0.0234375
11789141201,0.950684,-0.229492,0.0102539
11789155476,0.946289,-0.227539,0.0078125
11789177995,0.951172,-0.223633,0.0126953
11789201594,0.941895,-0.212402,0.00341797
11789215494,0.948242,-0.216797,-0.00537109
11789237966,0.939453,-0.214355,-0.00146484
11789261140,0.948242,-0.229492,0.046875
11789275494,0.956543,-0.283203,0.0454102
11789297888,0.933594,-0.239258,-0.00146484
11789321183,0.935547,-0.20459,-0.00244141
11789343511,0.943848,-0.232422,0.0112305
11789357998,0.963379,-0.296875,0.0986328
11789381248,0.9375,-0.294922,0.00146484
11789395361,0.938477,-0.214355,-0.0224609
11789417971,0.958008,-0.200684,-0.0512695
11789441091,0.958496,-0.200684,-0.0371094
11789455575,0.986328,-0.217285,0.00244141
11789478001,0.980469,-0.270508,-0.0209961
11789501019,1.00293,-0.221191,-0.0791016
11789515477,1.02441,-0.170898,-0.103027
11789537832,1.08838,-0.226562,-0.0878906
11789560547,1.09668,-0.281738,-0.0385742
11789575513,1.0874,-0.255371,-0.0458984
11789597972,1.21777,-0.165527,-0.0961914
11789620477,1.33691,-0.178223,0.274414
11789635488,0.946289,0.0966797,-0.367676
11789658001,1.05273,-0.0556641,-0.337402
11789680541,0.90332,-0.0717773,-0.233398
11789695423,0.770508,-0.0209961,-0.394043
11789718061,0.79834,0.0244141,-0.577637
11789740523,0.842773,0.23291,-0.500977
11789763495,0.79541,0.226562,-0.321289
11789777974,0.754883,0.00732422,-0.268066
11789800421,0.723633,-0.0795898,-0.260742
11789815518,0.706543,0.00830078,-0.347656
11789837920,0.768066,0.00878906,-0.379395
11789860508,0.784668,-0.0219727,-0.37207
11789883558,0.77002,-0.0356445,-0.355957
11789897955,0.741211,-0.141113,-0.333496
11789920433,0.746582,-0.174805,-0.343262
11789935533,0.737793,-0.12793,-0.310547
11789957921,0.758789,-0.155273,-0.241211
11789980421,0.700684,-0.195801,-0.51416
11789995462,0.64502,-1.17822,-0.595215
11790017864,0.647949,-0.924805,-0.537598
11790040518,0.923828,-0.506348,-0.145508
11790055666,1.01562,-0.11084,-0.313965
11790077962,1.26025,-0.154297,-0.140137
11790100384,1.13965,-0.116699,-0.0703125
11790115473,1.12061,-0.143066,-0.136719
11790138015,1.05225,-0.117188,-0.25
11790161858,1.08887,-0.0117188,-0.281738
11790175526,1.00635,-0.252441,-0.230469
11790198021,1.03027,-0.243652,-0.237793
11790220609,0.986328,-0.30127,-0.16748
11790235491,0.94873,-0.345215,-0.189941
11790257996,0.95752,-0.30127,-0.171875
11790280330,0.911621,-0.327148,-0.194824
11790296829,0.929688,-0.338379,-0.115234
11790318023,0.899414,-0.352051,-0.140625
11790340383,0.899902,-0.282227,-0.143066
11790356877,0.945801,-0.136719,-0.208984
11790377997,0.953125,-0.274902,-0.115234
11790400522,0.907227,-0.282227,-0.125977
11790416861,0.913086,-0.282227,-0.0722656
11790439374,0.904785,-0.32666,-0.0986328
11790460514,0.945312,-0.241699,-0.0981445
11790476829,0.95752,-0.26416,-0.0805664
11790498038,0.950195,-0.241211,-0.074707
11790520422,0.953125,-0.257324,-0.0678711
11790536773,0.926758,-0.276855,-0.0947266
11790557896,0.95459,-0.27832,-0.0454102
11790580476,0.945312,-0.289062,-0.0800781
11790596873,0.942383,-0.239258,-0.0957031
11790618040,0.955566,-0.233398,-0.0620117
11790640452,0.960449,-0.248047,-0.0605469
11790656858,0.964355,-0.218262,-0.0742188
11790677821,0.945312,-0.277832,-0.0244141
11790700350,0.941406,-0.260742,-0.0493164
11790716775,0.958496,-0.202637,-0.0585938
11790737874,0.946777,-0.259766,-0.015625
11790760536,0.941406,-0.244141,-0.0493164
11790776872,0.950195,-0.218262,-0.0292969
11790800772,0.950684,-0.223145,-0.00341797
11790820486,0.945312,-0.249512,-0.00732422
11790836881,0.931152,-0.245605,0.000488281
11790859397,0.969238,-0.214355,0.0175781
11790881826,0.965332,-0.189453,-0.00488281
11790896873,0.95459,-0.232422,0.019043
11790918078,0.96582,-0.205566,-0.0141602
11790940558,0.967285,-0.17334,-0.00634766
11790956794,0.944824,-0.175293,0.0151367
11790978017,0.95752,-0.181641,0.0751953
11791000511,0.970215,-0.169434,0.0415039
11791016922,0.965332,-0.189453,0.0942383
11791038097,0.967773,-0.212402,0.11377
11791060421,1.0293,-0.105469,0.103027
11791078315,1.04346,-0.140137,0.137695
11791097902,1.05664,-0.191895,0.244141
11791120471,1.17822,-0.121582,0.151367
11791136815,1.35596,-0.0239258,0.175293
11791168968,1.36621,-0.0214844,0.156738
11791188570,1.0459,-0.13623,-0.214844
11791196842,0.947754,-0.15918,-0.338867
11791220749,0.961914,-0.297363,-0.305176
11791249987,0.890137,-0.261719,-0.288086
11791256890,0.890625,-0.164551,-0.25293
11791279356,0.818359,-0.470215,-0.0273438
11791300358,0.796387,-0.512695,0.0488281
11791324398,0.69873,-0.347656,-0.128906
11791339306,0.851562,-0.331055,-0.0634766
11791360605,0.864258,-0.243164,-0.0107422
11791376890,0.904785,-0.187012,-0.0385742
11791399476,0.957031,-0.348145,-0.0131836
11791420526,0.943359,-0.434082,0.0332031
11791436918,0.953125,-0.376953,-0.0166016
11791459413,1.00195,-0.328125,-0.00878906
11791480526,0.994141,-0.31543,-0.00390625
11791496885,1.0249,-0.300293,-0.03125
11791519347,1.04346,-0.286133,-0.0209961
11791540522,1.05957,-0.259277,-0.019043
11791556863,1.0874,-0.264648,-0.00439453
11791579374,1.11377,-0.259277,-0.059082
11791600606,1.12842,-0.262207,-0.0537109
11791616840,1.15625,-0.28125,-0.0551758
11791639364,1.15967,-0.290527,-0.0717773
11791660528,1.11816,-0.348633,-0.249023
11791676862,1.10449,-0.39502,-0.410645
11791699359,1.02979,-0.224609,-0.416992
11791720589,1.0127,-0.00390625,-0.345215
11791736907,1.00928,0.109863,-0.518066
11791759362,0.718262,-0.0742188,-0.970703
11791780454,0.865723,0.0253906,-0.749512
11791796920,0.933594,0.283203,-1.17822
11791819345,1.49512,1.36328,0.777344
11791840493,1.43799,-0.375488,0.811523
11791856919,1.47559,-0.15332,-0.0986328
11791879525,0.746094,-0.789062,-0.0517578
11791900615,0.898438,-0.0654297,-0.0708008
11791916856,1.31396,-0.13623,0.135742
11791939386,1.03516,-0.0356445,-0.0942383
11791960522,1.03857,-0.124512,0.0307617
11791976865,1.05615,-0.118652,-0.00976562
11791999405,0.970215,-0.256836,0.0585938
11792020549,0.984375,-0.333008,0.0849609
11792036961,0.991699,-0.262207,0.0952148
11792059341,0.965332,-0.166504,-0.0112305
11792080615,0.971191,-0.17627,0.0151367
11792096841,0.914551,-0.262695,0.0620117
11792119361,0.950684,-0.252441,0.111328
11792140516,0.966309,-0.219238,0.0693359
11792156902,0.941895,-0.223633,0.0874023
11792179401,0.930664,-0.241211,0.0717773
11792201879,0.93457,-0.248535,0.110352
11792216857,0.94043,-0.209473,0.0717773
11792239355,0.954102,-0.195312,0.14209
11792261910,0.947266,-0.237793,0.0522461
11792276888,0.883789,-0.199219,0.000976562
11792299392,0.993652,-0.228027,0.228027
11792321920,1.04785,-0.229004,0.123047
11792336846,0.970703,-0.234863,0.0874023
11792358597,0.932617,-0.125488,0.10498
11792381203,0.941406,-0.148438,0.120117
11792403623,0.95752,-0.274414,0.193359
11792418724,0.995605,-0.288574,0.17334
11792441072,0.93457,-0.137207,0.0317383
11792463702,0.961426,-0.0561523,0.0532227
11792478726,0.952148,-0.0849609,0.0766602
11792501230,0.966797,-0.164062,0.11377
11792523726,0.932129,-0.164062,0.12207
11792538765,0.949707,-0.149902,0.15625
11792561182,0.94043,-0.109863,0.130371
11792583737,0.972656,-0.168945,0.188477
11792598751,0.960449,-0.206543,0.100098
11792621230,0.932617,-0.19043,0.100586
11792643665,0.9375,-0.126465,0.0839844
11792658631,0.972168,-0.103516,0.114258
11792681167,0.975098,-0.20752,0.166504
11792697508,0.93457,-0.161133,0.0957031
11792718748,0.944336,-0.116699,0.115723
11792741174,0.98584,-0.130371,0.119141
11792757544,0.978027,-0.121094,0.0976562
11792778602,0.960449,-0.0708008,0.0844727
11792801153,0.973145,-0.135254,0.14502
11792825026,0.956055,-0.250488,0.15332
11792838745,0.947266,-0.179199,0.135254
11792861228,0.972168,-0.118652,0.12207
11792877593,0.981445,-0.109863,0.110352
11792898805,0.962402,-0.129395,0.10498
11792921190,0.958984,-0.123047,0.102051
11792937538,0.972656,-0.128418,0.145996
11792958595,0.960938,-0.180176,0.159668
11792981286,0.952148,-0.172363,0.121094
11793003607,0.946777,-0.156738,0.133301
11793018750,0.95166,-0.128418,0.15625
11793041280,0.970215,-0.129883,0.150879
11793057578,0.958008,-0.133301,0.163086
11793078755,0.945312,-0.10791,0.124512
11793101262,0.987793,-0.090332,0.197754
11793116924,0.95459,-0.106934,0.140625
11793138724,0.95752,-0.148926,0.127441
11793161198,0.968262,-0.0688477,0.134277
11793176984,0.991699,-0.0678711,0.125488
11793198642,0.942383,-0.135742,0.142578
11793221242,0.947754,-0.190918,0.154297
11793236887,0.944824,-0.173828,0.149414
11793258690,0.947754,-0.160645,0.155273
11793281323,0.949219,-0.151855,0.17041
11793296911,0.953125,-0.142578,0.145996
11793319998,0.960938,-0.15625,0.169922
11793341213,0.952637,-0.12207,0.168457
11793356853,0.951172,-0.10498,0.147461
11793380076,0.964355,-0.101074,0.144043
11793401249,0.96875,-0.114746,0.147461
11793416962,0.95166,-0.0991211,0.150879
11793440047,0.956543,-0.0869141,0.141113
11793461215,0.97168,-0.0961914,0.144043
11793476884,0.961914,-0.102539,0.143555
11793500061,0.959473,-0.103516,0.152344
11793521241,0.958984,-0.107422,0.159668
11793536880,0.969238,-0.101074,0.156738
11793560051,0.957031,-0.0986328,0.151367
11793581244,0.963867,-0.0898438,0.155762
11793596906,0.956055,-0.0976562,0.150879
11793620056,0.956055,-0.122559,0.15625
11793641228,0.955566,-0.107422,0.157715
11793656864,0.962891,-0.0883789,0.150879
11793680112,0.959473,-0.097168,0.155762
11793701146,0.961914,-0.116211,0.165527
11793716920,0.961426,-0.10791,0.161133
11793740040,0.960938,-0.105469,0.157715
11793761277,0.958496,-0.105469,0.157715
11793776877,0.960938,-0.103027,0.163086
11793800109,0.95752,-0.0986328,0.163086
11793821181,0.969238,-0.103516,0.163086
11793836881,0.957031,-0.097168,0.163086
11793860107,0.955078,-0.0981445,0.170898
11793881205,0.962402,-0.115234,0.181152
11793896951,0.962402,-0.118652,0.178223
11793920055,0.947266,-0.110352,0.162598
11793941154,0.962402,-0.105957,0.129395
11793956966,0.959473,-0.0859375,0.139648
11793980126,0.962402,-0.0981445,0.15332
11794001212,0.964844,-0.105469,0.160156
11794016958,0.962891,-0.104492,0.167969
11794040026,0.952148,-0.10498,0.152344
11794061291,0.964355,-0.108887,0.141602
11794076967,0.966309,-0.105469,0.138672
11794099435,0.959961,-0.103516,0.144043
11794122575,0.961426,-0.110352,0.162598
11794136930,0.956543,-0.118652,0.150879
11794159369,0.967773,-0.100586,0.135742
11794181235,0.958496,-0.10791,0.148926
11794197342,0.961426,-0.121582,0.149414
11794219465,0.962402,-0.117676,0.155762
11794241279,0.959473,-0.122559,0.141602
11794256871,0.966309,-0.109375,0.138672
11794279423,0.958984,-0.105469,0.13916
11794302704,0.963867,-0.103027,0.144043
11794316897,0.96582,-0.117676,0.147461
11794339421,0.964844,-0.124023,0.145508
11794362524,0.962402,-0.111816,0.133789
11794376906,0.959961,-0.11377,0.133301
11794399389,0.963379,-0.113281,0.135254
11794422579,0.958984,-0.111816,0.133301
11794436961,0.97168,-0.110352,0.145508
11794459513,0.959473,-0.114258,0.127441
11794482546,0.966797,-0.117188,0.129395
11794497547,0.957031,-0.126465,0.135742
11794519399,0.960938,-0.124512,0.133789
11794542582,0.963379,-0.112793,0.131348
11794556950,0.959473,-0.119629,0.151855
11794579434,0.966797,-0.119141,0.143555
11794602645,0.961426,-0.118652,0.135254
11794616905,0.960938,-0.114258,0.125977
11794639493,0.960449,-0.123047,0.137207
11794662510,0.959473,-0.121094,0.142578
11794676968,0.963867,-0.121094,0.139648
11794699423,0.960449,-0.120117,0.13623
11794722545,0.969238,-0.119141,0.127441
11794736889,0.969238,-0.126953,0.147949
11794766325,0.961914,-0.125977,0.133789
11794782632,0.966797,-0.124512,0.125
11794803717,0.966797,-0.119629,0.121094
11794819503,0.960449,-0.124023,0.130859
11794842557,0.95752,-0.132812,0.129395
11794863755,0.966797,-0.128906,0.124023
11794879475,0.963379,-0.12207,0.132812
11794902551,0.965332,-0.117188,0.119629
11794923769,0.964844,-0.120117,0.130859
11794939442,0.964844,-0.12793,0.126465
11794962627,0.95752,-0.116699,0.119141
11794983755,0.964844,-0.130859,0.126953
11794999403,0.95752,-0.125,0.12207
11795021941,0.970215,-0.10791,0.112793
11795043751,0.964844,-0.123047,0.126465
11795059417,0.967773,-0.125488,0.123535
11795081928,0.96582,-0.119629,0.124023
11795103768,0.958496,-0.124023,0.120605
11795119423,0.959961,-0.129883,0.121582
11795141939,0.960938,-0.12207,0.128418
11795163751,0.967285,-0.119141,0.128418
11795179421,0.961914,-0.123535,0.131348
11795201954,0.964844,-0.124023,0.118164
11795225143,0.960449,-0.126953,0.124512
11795239474,0.961914,-0.121094,0.132324
11795261915,0.966309,-0.128906,0.123535
11795285116,0.963379,-0.119141,0.122559
11795299396,0.961426,-0.121094,0.12793
11795321877,0.965332,-0.121094,0.132812
11795345099,0.959961,-0.132324,0.128418
11795359446,0.961426,-0.122559,0.123535
11795382041,0.96875,-0.120117,0.119141
11795405131,0.967285,-0.122559,0.133301
11795419428,0.967285,-0.117188,0.116699
11795441908,0.958008,-0.12207,0.126953
11795465084,0.963379,-0.132812,0.137695
11795487599,0.972168,-0.119141,0.128418
11795501899,0.962891,-0.118652,0.125488
11795525081,0.958984,-0.118652,0.119141
11795539459,0.960938,-0.129883,0.128418
11795562011,0.960938,-0.112305,0.128418
11795585202,0.965332,-0.121582,0.128418
11795599427,0.965332,-0.125977,0.120605
11795622032,0.961426,-0.126465,0.125488
11795645180,0.961426,-0.12207,0.125
11795666301,0.966309,-0.118652,0.128418
11795682005,0.960938,-0.128906,0.124023
11795705088,0.964355,-0.124512,0.127441
11795726256,0.96582,-0.118652,0.119629
11795741981,0.961426,-0.129395,0.133301
11795765095,0.960938,-0.123047,0.125488
11795793803,0.962891,-0.124023,0.119629
11795801946,0.961914,-0.113281,0.131348
11795825093,0.960938,-0.119629,0.133301
11795846224,0.964355,-0.126953,0.126465
11795862002,0.958496,-0.128906,0.131348
11795885114,0.962891,-0.118164,0.126953
11795906304,0.966309,-0.121094,0.123535
11795921953,0.967285,-0.126953,0.135254
11795945117,0.963867,-0.120117,0.124023
11795966705,0.965332,-0.121094,0.129395
11795981940,0.966309,-0.118652,0.139648
11796004405,0.964355,-0.123047,0.135742
11796026070,0.960449,-0.123535,0.114258
11796041336,0.970703,-0.119629,0.130371
11796055528,0.960938,-0.12793,0.120605
11796078094,0.958984,-0.131348,0.123047
11796101271,0.95752,-0.123535,0.130859
11796115446,0.964355,-0.117188,0.137207
11796138158,0.967285,-0.127441,0.119629
11796161193,0.959473,-0.121582,0.118164
11796175644,0.958008,-0.121094,0.115723
11796198132,0.973633,-0.122559,0.128906
11796221108,0.961914,-0.12207,0.132324
11796243789,0.95752,-0.123047,0.125488
11796268298,0.972656,-0.129883,0.123535
11796281282,0.969727,-0.116699,0.135254
11796295661,0.955566,-0.119629,0.119141
11796317966,0.959473,-0.125,0.129883
11796349380,0.955078,-0.128906,0.138184
11796355662,0.95752,-0.134766,0.136719
11796378155,0.961914,-0.129395,0.133789
11796401195,0.960449,-0.133789,0.132324
11796415651,0.954102,-0.13623,0.145996
11796446813,0.959473,-0.133301,0.144043
11796461301,0.964844,-0.114746,0.125488
11796475523,0.958008,-0.126465,0.135254
11796498018,0.958984,-0.126465,0.134277
11796521330,0.959473,-0.11377,0.128906
11796535607,0.968262,-0.118652,0.120605
11796558073,0.957031,-0.124512,0.12793
11796581157,0.958984,-0.130859,0.132812
11796595482,0.961426,-0.132812,0.12793
11796618128,0.970703,-0.123047,0.114746
11796641304,0.968262,-0.123047,0.112793
11796655644,0.968262,-0.12207,0.109375
11796677979,0.961426,-0.120605,0.112793
11796701378,0.967285,-0.116699,0.107422
11796716924,0.965332,-0.114258,0.0952148
11796738082,0.966309,-0.114746,0.108398
11796761175,0.964355,-0.10791,0.104004
11796775683,0.975098,-0.123535,0.112793
11796798080,0.964844,-0.137695,0.120605
11796821218,0.961426,-0.116699,0.111816
11796835671,0.96875,-0.118652,0.107422
11796858126,0.964355,-0.125,0.106445
11796881245,0.967773,-0.12207,0.110352
11796895622,0.990723,-0.139648,0.200684
11796918155,0.95459,-0.114746,0.100098
11796941231,0.962891,-0.0932617,0.0927734
11796955652,0.975586,-0.135254,0.245605
11796978192,0.937012,-0.103027,0.0786133
11797001225,0.979004,-0.151367,0.154297
11797015621,0.933594,-0.134277,0.113281
11797038160,0.96875,-0.0683594,0.0952148
11797061273,0.969238,-0.112793,0.141113
11797075595,0.939453,-0.14502,0.150391
11797098045,0.961426,-0.146973,0.161621
11797120640,0.943848,-0.148926,0.141602
11797135643,0.953613,-0.133301,0.144531
11797158191,0.95459,-0.115234,0.124023
11797180658,0.975098,-0.108887,0.132324
11797195704,0.955078,-0.128906,0.147949
11797218074,0.953613,-0.155762,0.162598
11797240714,0.947266,-0.149414,0.140625
11797255702,0.964844,-0.130859,0.113281
11797278129,0.967285,-0.129883,0.128906
11797300588,0.956055,-0.125488,0.113281
11797315653,0.970215,-0.117676,0.128906
11797337990,0.963867,-0.103516,0.100098
11797360538,0.97998,-0.117188,0.113281
11797375638,0.959961,-0.101074,0.0727539
11797398130,0.979004,-0.065918,0.0610352
11797420686,0.98584,-0.0825195,0.10791
11797435683,0.963379,-0.114258,0.108398
11797458120,0.963867,-0.127441,0.115234
11797480666,0.960449,-0.140137,0.112305
11797495669,0.966309,-0.0991211,0.090332
11797518157,0.972656,-0.11377,0.0917969
11797540581,0.970703,-0.12793,0.104004
11797555623,0.973145,-0.117676,0.0854492
11797578042,0.969238,-0.112793,0.100586
11797600616,0.965332,-0.117188,0.109863
11797615651,0.960938,-0.126953,0.109863
11797638189,0.95752,-0.120117,0.0927734
11797660663,0.96875,-0.114258,0.0922852
11797675643,0.966797,-0.120605,0.0976562
11797698032,0.965332,-0.144043,0.111328
11797720526,0.959961,-0.137207,0.110352
11797735571,0.960938,-0.132324,0.112305
11797758222,0.96582,-0.129883,0.121582
11797780711,0.961426,-0.144043,0.136719
11797795681,0.953613,-0.136719,0.09375
11797818251,0.974121,-0.116211,0.0800781
11797840546,0.971191,-0.106934,0.097168
11797856956,0.961426,-0.118652,0.114258
11797878088,0.962891,-0.114258,0.0986328
11797900646,0.972168,-0.121582,0.0961914
11797916971,0.963379,-0.122559,0.0898438
11797938063,0.964355,-0.120605,0.0864258
11797960681,0.978027,-0.10791,0.0869141
11797977043,0.966797,-0.111816,0.102539
11797998190,0.965332,-0.115723,0.0859375
11798020710,0.973633,-0.11084,0.0786133
11798036966,0.972168,-0.10791,0.0849609
11798058025,0.968262,-0.119629,0.102051
11798080663,0.958496,-0.142578,0.0795898
11798098404,0.979004,-0.110352,0.0585938
11798118146,0.97168,-0.0908203,0.0834961
11798140585,0.962891,-0.103516,0.0834961
11798157036,0.982422,-0.108887,0.0625
11798178198,0.975586,-0.0961914,0.0737305
11798200701,0.965332,-0.106445,0.0883789
11798217064,0.972656,-0.11377,0.0756836
11798238153,0.97168,-0.103516,0.0839844
11798268471,0.969727,-0.11084,0.0795898
11798278459,0.973633,-0.102051,0.0737305
11798298042,0.970703,-0.109863,0.0952148
11798320535,0.963867,-0.112793,0.101562
11798337034,0.967285,-0.154297,0.103027
11798359514,0.964355,-0.119629,0.0585938
11798380580,0.979492,-0.104492,0.090332
11798396971,0.960938,-0.118164,0.0722656
11798418194,0.976074,-0.0849609,0.0776367
11798440667,0.970215,-0.0766602,0.0507812
11798458467,0.976074,-0.0625,0.0654297
11798478160,0.983887,-0.10498,0.0961914
11798500690,0.980469,-0.123535,0.0756836
11798517098,0.937988,-0.0976562,0.0791016
11798538249,0.999512,-0.103027,0.0883789
11798560536,0.96875,-0.130859,0.108887
11798577034,0.968262,-0.12207,0.0810547
11798598230,0.980469,-0.137207,0.090332
11798620744,0.961914,-0.0957031,0.0893555
11798636967,0.960449,-0.09375,0.0922852
11798658091,0.962891,-0.118652,0.0986328
11798680562,0.975098,-0.103027,0.114258
11798697038,0.953125,-0.10791,0.115234
11798718160,0.966309,-0.097168,0.114746
11798740581,0.969238,-0.132812,0.167969
11798757105,0.941895,-0.101562,0.112305
11798778222,0.96875,-0.0727539,0.0766602
11798800670,0.983887,-0.0742188,0.112793
11798817046,0.953613,-0.0942383,0.114746
11798839510,0.972168,-0.123047,0.148926
11798860689,0.95166,-0.121094,0.0874023
11798876976,0.984863,-0.0703125,0.0991211
11798899535,0.964844,-0.106934,0.150391
11798920658,0.950195,-0.131836,0.137695
11798943152,0.975098,-0.131836,0.148438
11798959552,0.953125,-0.13916,0.145996
11798980754,0.947266,-0.155762,0.149902
11798997063,0.952637,-0.144531,0.164062
11799019579,0.952148,-0.142578,0.154785
11799040630,0.951172,-0.133301,0.111328
11799057058,0.971191,-0.102051,0.131348
11799079501,0.952637,-0.116699,0.129883
11799100674,0.967773,-0.118164,0.126953
11799117019,0.958984,-0.105957,0.117676
11799139534,0.969238,-0.0878906,0.107422
11799160692,0.973633,-0.0932617,0.112305
11799177015,0.960938,-0.111816,0.103516
11799199446,0.972168,-0.10791,0.117188
11799220670,0.962891,-0.100586,0.115723
11799237027,0.967285,-0.102051,0.118652
11799259518,0.964355,-0.119629,0.118164
11799280669,0.973633,-0.116211,0.112305
11799296990,0.955566,-0.111328,0.11377
11799319498,0.969727,-0.101562,0.116211
11799340715,0.970703,-0.103027,0.111816
11799356979,0.969727,-0.10498,0.118652
11799385549,0.963379,-0.108887,0.119141
11799400514,0.957031,-0.111816,0.118164
11799416955,0.96875,-0.103516,0.102539
11799439442,0.962891,-0.125488,0.110352
11799460544,0.958008,-0.125,0.108887
11799476953,0.961426,-0.124023,0.126465
11799499418,0.955566,-0.157715,0.130371
11799520557,0.957031,-0.150879,0.106445
11799536937,0.960449,-0.116211,0.0634766
11799559509,0.978027,-0.0810547,0.0595703
11799580566,0.983398,-0.0668945,0.0683594
11799596975,0.976562,-0.0673828,0.0620117
11799619488,0.973145,-0.0742188,0.065918
11799640529,0.976562,-0.0634766,0.0712891
11799663064,0.973633,-0.0546875,0.0581055
11799679457,0.980957,-0.0581055,0.0478516
11799701206,0.980469,-0.0668945,0.0527344
11799716139,0.976562,-0.0732422,0.0449219
11799738775,0.987305,-0.0844727,0.0449219
11799761198,0.97998,-0.0825195,0.0400391
11799776230,0.979492,-0.0727539,0.046875
11799798699,0.974609,-0.0800781,0.0541992
11799821197,0.972656,-0.0805664,0.0449219
11799836211,0.966309,-0.0893555,0.0576172
11799858703,0.973633,-0.0922852,0.0634766
11799881202,0.970215,-0.0961914,0.0629883
11799896184,0.971191,-0.0957031,0.0576172
11799918708,0.966797,-0.0932617,0.0527344
11799941164,0.975098,-0.097168,0.0546875
11799957629,0.975098,-0.0922852,0.0551758
11799978658,0.978516,-0.0839844,0.0317383
11800001184,0.977539,-0.0800781,0.0463867
11800017654,0.979492,-0.0732422,0.0371094
11800038702,0.976562,-0.0756836,0.0415039
11800061185,0.975586,-0.0854492,0.0512695
11800077697,0.970215,-0.090332,0.0551758
11800098695,0.973633,-0.0966797,0.0517578
11800121188,0.970215,-0.102051,0.0556641
11800137735,0.969238,-0.100098,0.0546875
11800158774,0.971191,-0.101562,0.0610352
11800181231,0.973145,-0.100586,0.0585938
11800197622,0.966797,-0.102051,0.0551758
11800218706,0.967285,-0.0952148,0.0541992
11800241172,0.978516,-0.0893555,0.0483398
11800257599,0.976562,-0.0922852,0.0517578
11800278746,0.976562,-0.0947266,0.0483398
11800301203,0.983398,-0.078125,0.0336914
11800317645,0.970215,-0.0893555,0.0336914
11800338698,0.971191,-0.0830078,0.0541992
11800361172,0.967773,-0.0942383,0.0419922
11800377616,0.974121,-0.0844727,0.0400391
11800398810,0.974609,-0.0708008,0.0336914
11800421242,0.975098,-0.0678711,0.0380859
11800437634,0.972168,-0.0776367,0.0380859
11800458707,0.975098,-0.0766602,0.0439453
11800481189,0.973145,-0.0771484,0.0405273
11800497599,0.970215,-0.0820312,0.0385742
11800518665,0.972168,-0.0839844,0.0400391
11800541225,0.971191,-0.0820312,0.0410156
11800557724,0.976074,-0.0849609,0.043457
11800578755,0.973145,-0.0913086,0.0410156
11800601162,0.976562,-0.0874023,0.0390625
11800617671,0.97168,-0.0761719,0.0327148
11800638653,0.971191,-0.0791016,0.0336914
11800661237,0.977539,-0.0761719,0.0395508
11800677797,0.973145,-0.0849609,0.0361328
11800698943,0.979004,-0.0805664,0.034668
11800728913,0.975586,-0.0825195,0.0375977
11800737080,0.976562,-0.0795898,0.03125
11800758947,0.974609,-0.0742188,0.0244141
11800781434,0.972656,-0.0732422,0.0307617
11800797069,0.973145,-0.0805664,0.0395508
11800818743,0.975586,-0.0839844,0.0424805
11800841397,0.966309,-0.0869141,0.0410156
11800857027,0.975098,-0.0800781,0.0444336
11800878914,0.97998,-0.0864258,0.0390625
11800901366,0.972168,-0.0893555,0.0385742
11800917061,0.97168,-0.0830078,0.0351562
11800940227,0.968262,-0.0830078,0.0380859
11800961389,0.973633,-0.0849609,0.0458984
11800977098,0.975098,-0.0830078,0.0385742
11801000190,0.96875,-0.0869141,0.0517578
11801021394,0.977051,-0.0839844,0.0429688
11801037061,0.974609,-0.0869141,0.0375977
11801060317,0.978027,-0.0883789,0.0375977
11801081394,0.975098,-0.0825195,0.0454102
11801097103,0.976074,-0.0913086,0.0366211
11801120231,0.976074,-0.0776367,0.0351562
11801141444,0.972656,-0.078125,0.034668
11801157098,0.973145,-0.078125,0.0385742
11801180225,0.974609,-0.0864258,0.0385742
11801201424,0.975586,-0.0805664,0.0380859
11801217116,0.976074,-0.0820312,0.0385742
11801240233,0.976562,-0.0878906,0.0380859
11801261266,0.972656,-0.0864258,0.034668
11801277036,0.976074,-0.0776367,0.034668
11801300214,0.976074,-0.0766602,0.0366211
11801321390,0.974121,-0.078125,0.0317383
11801337078,0.97168,-0.0786133,0.0375977
11801360177,0.973145,-0.0786133,0.0336914
11801381434,0.973145,-0.0800781,0.0361328
11801397062,0.975586,-0.081543,0.0351562
11801427804,0.978516,-0.0791016,0.0380859
11801441413,0.973633,-0.078125,0.0375977
11801457058,0.974609,-0.0771484,0.0351562
11801480249,0.977539,-0.0795898,0.0375977
11801501106,0.974121,-0.0742188,0.0380859
11801517073,0.973633,-0.0810547,0.0336914
11801540239,0.974609,-0.0795898,0.0375977
11801561307,0.972168,-0.0776367,0.0380859
11801577034,0.97168,-0.0800781,0.0400391
11801607869,0.975586,-0.074707,0.0341797
11801621410,0.977539,-0.0805664,0.0366211
11801637143,0.978516,-0.0888672,0.0375977
11801659552,0.977539,-0.0830078,0.0405273
11801681401,0.980469,-0.0771484,0.0366211
11801697080,0.975098,-0.0800781,0.0332031
11801719626,0.974121,-0.0874023,0.0361328
11801741343,0.976562,-0.0834961,0.0371094
11801757034,0.974609,-0.0844727,0.0405273
11801779577,0.970703,-0.0800781,0.0361328
11801801497,0.974609,-0.0771484,0.0366211
11801817108,0.978516,-0.0834961,0.0356445
11801846407,0.975586,-0.0869141,0.0449219
11801862736,0.975098,-0.0883789,0.0400391
11801876989,0.975098,-0.0825195,0.0424805
11801899646,0.974609,-0.0756836,0.0351562
11801922798,0.976562,-0.0810547,0.0356445
11801937050,0.975098,-0.0830078,0.0419922
11801959619,0.974609,-0.0732422,0.0390625
11801982785,0.973145,-0.0820312,0.0439453
11801997052,0.972168,-0.081543,0.046875
11802019635,0.972168,-0.0761719,0.0375977
11802042815,0.972168,-0.081543,0.0356445
11802057119,0.976074,-0.0820312,0.0356445
11802079631,0.973633,-0.0878906,0.0375977
11802102809,0.972168,-0.0761719,0.0410156
11802117013,0.973633,-0.074707,0.0429688
11802139582,0.96875,-0.0800781,0.0351562
11802162832,0.975586,-0.0756836,0.0341797
11802177114,0.97168,-0.0761719,0.0429688
11802199533,0.972656,-0.0795898,0.0424805
11802222883,0.972656,-0.078125,0.0415039
11802237051,0.977051,-0.078125,0.043457
11802259559,0.973633,-0.081543,0.043457
11802282700,0.977539,-0.0834961,0.0498047
11802297031,0.972168,-0.0742188,0.0385742
11802319615,0.978027,-0.0771484,0.0429688
11802342856,0.973145,-0.0771484,0.0390625
11802363866,0.974609,-0.0800781,0.0415039
11802379500,0.976074,-0.0854492,0.0366211
11802402847,0.975586,-0.0825195,0.0463867
11802423824,0.975586,-0.0805664,0.034668
11802439563,0.973145,-0.078125,0.0380859
11802462800,0.977051,-0.0810547,0.0390625
11802483942,0.973633,-0.0820312,0.0390625
11802499647,0.974609,-0.0795898,0.034668
11802522798,0.972656,-0.0810547,0.0483398
11802543834,0.974609,-0.0834961,0.0439453
11802559584,0.972168,-0.0883789,0.0488281
11802582101,0.97168,-0.0917969,0.0405273
11802603944,0.97168,-0.0830078,0.0400391
11802619600,0.973145,-0.0825195,0.0405273
11802642111,0.974609,-0.0795898,0.0390625
11802663950,0.973145,-0.0834961,0.0366211
11802679555,0.978516,-0.0761719,0.0371094
11802702143,0.975098,-0.0820312,0.0302734
11802723940,0.975586,-0.0786133,0.0332031
11802739570,0.970703,-0.0786133,0.0356445
11802762064,0.976562,-0.0800781,0.0390625
11802785260,0.973633,-0.0761719,0.0307617
11802799547,0.974609,-0.0825195,0.0375977
11802822174,0.978516,-0.0859375,0.0385742
11802845313,0.974121,-0.090332,0.034668
11802859587,0.974121,-0.0820312,0.03125
11802882097,0.977539,-0.0830078,0.043457
11802905292,0.973145,-0.0795898,0.0317383
11802919600,0.976074,-0.0859375,0.0395508
11802942064,0.975098,-0.0810547,0.0380859
11802965323,0.977051,-0.0800781,0.0327148
11802979611,0.975098,-0.0751953,0.0341797
11803002120,0.972168,-0.081543,0.0322266
11803025255,0.972168,-0.0751953,0.0375977
11803039602,0.972656,-0.0756836,0.0336914
11803062041,0.974609,-0.0830078,0.0390625
11803085238,0.970703,-0.0820312,0.043457
11803099583,0.974609,-0.0810547,0.0341797
11803122058,0.977051,-0.0810547,0.03125
11803145273,0.977539,-0.0820312,0.0424805
11803159610,0.976562,-0.0771484,0.034668
11803190236,0.973145,-0.0717773,0.0219727
11803205298,0.979004,-0.074707,0.03125
11803219616,0.979004,-0.0820312,0.0317383
11803242078,0.973145,-0.0727539,0.0302734
11803265294,0.974609,-0.074707,0.0288086
11803286404,0.973633,-0.0771484,0.0317383
11803302164,0.97168,-0.0800781,0.0297852
11803325222,0.973145,-0.0732422,0.0332031
11803346508,0.974609,-0.078125,0.027832
11803362118,0.978027,-0.0751953,0.0258789
11803385218,0.978027,-0.0786133,0.0288086
11803398247,0.972656,-0.0776367,0.0268555
11803421496,0.978027,-0.0756836,0.0239258
11803435757,0.972168,-0.0737305,0.0268555
11803458225,0.974609,-0.0771484,0.0322266
11803481405,0.973145,-0.0693359,0.0258789
11803495641,0.976074,-0.0698242,0.0253906
11803518195,0.975098,-0.0698242,0.0239258
11803541313,0.972168,-0.078125,0.0283203
11803555765,0.974609,-0.0717773,0.0219727
11803578153,0.975586,-0.0722656,0.0258789
11803601539,0.974121,-0.0805664,0.0239258
11803615778,0.976074,-0.0751953,0.0297852
11803638318,0.977539,-0.0737305,0.0258789
11803661435,0.973633,-0.0761719,0.0268555
11803675790,0.973145,-0.0712891,0.0219727
11803698390,0.973145,-0.0737305,0.0205078
11803721316,0.973145,-0.0732422,0.0224609
11803735797,0.97168,-0.0737305,0.0253906
11803758272,0.975098,-0.0732422,0.0317383
11803781423,0.975098,-0.0683594,0.0244141
11803795671,0.973633,-0.0737305,0.0239258
11803818157,0.976562,-0.0737305,0.0273438
11803841466,0.980469,-0.0703125,0.0302734
11803855622,0.976562,-0.0678711,0.0263672
11803878264,0.975098,-0.0717773,0.0229492
11803901496,0.977539,-0.0761719,0.0234375
11803915738,0.978027,-0.078125,0.0283203
11803938265,0.972656,-0.0717773,0.0239258
11803961430,0.97168,-0.0761719,0.0273438
11803975787,0.976562,-0.0761719,0.0209961
11803998156,0.978516,-0.074707,0.0219727
11804021490,0.976562,-0.0732422,0.0224609
11804035820,0.967285,-0.0737305,0.0195312
11804058380,0.973633,-0.074707,0.027832
11804081471,0.976074,-0.0722656,0.0288086
11804095817,0.979492,-0.0717773,0.0283203
11804118363,0.978027,-0.0766602,0.0283203
11804141479,0.975098,-0.0732422,0.0209961
11804155871,0.975586,-0.0703125,0.0234375
11804178311,0.974609,-0.0693359,0.0229492
11804201274,0.976562,-0.0756836,0.0263672
11804215775,0.976074,-0.0722656,0.0244141
11804238319,0.975098,-0.0678711,0.0253906
11804261450,0.974609,-0.0732422,0.0224609
11804275785,0.976074,-0.0727539,0.0224609
11804298311,0.978516,-0.0737305,0.0273438
11804321441,0.975586,-0.0688477,0.0253906
11804335687,0.97998,-0.0722656,0.0205078
11804358351,0.976562,-0.0742188,0.0258789
11804381473,0.980469,-0.0698242,0.0185547
11804397140,0.973633,-0.0693359,0.0205078
11804418311,0.977051,-0.0712891,0.0180664
11804441475,0.972656,-0.0727539,0.0200195
11804455687,0.973633,-0.0717773,0.0249023
11804478283,0.976562,-0.0698242,0.0214844
11804501502,0.973633,-0.0693359,0.015625
11804515672,0.976074,-0.0673828,0.0219727
11804538379,0.977051,-0.0732422,0.0195312
11804561535,0.975098,-0.0664062,0.0268555
11804577127,0.978027,-0.0703125,0.0205078
11804598295,0.975586,-0.0693359,0.0229492
11804621502,0.973633,-0.0673828,0.0229492
11804635833,0.976562,-0.0727539,0.0209961
11804659628,0.978027,-0.0712891,0.0195312
11804680685,0.977051,-0.0708008,0.0322266
11804695853,0.970703,-0.0649414,0.0205078
11804718296,0.984863,-0.0756836,0.0224609
11804740792,0.976074,-0.0712891,0.019043
11804755818,0.972168,-0.0737305,0.0200195
11804778348,0.975098,-0.0688477,0.0224609
11804800758,0.972656,-0.0649414,0.0219727
11804815731,0.972168,-0.0717773,0.0273438
11804838277,0.979492,-0.0766602,0.0292969
11804860644,0.979492,-0.0732422,0.0263672
11804875850,0.976074,-0.0732422,0.0170898
11804898223,0.974121,-0.0766602,0.0229492
11804920790,0.973633,-0.0722656,0.0249023
11804935791,0.97168,-0.0649414,0.0209961
11804958269,0.972656,-0.0688477,0.0244141
11804980812,0.975098,-0.0717773,0.0263672
11804995866,0.979004,-0.0751953,0.0249023
11805018351,0.973145,-0.0703125,0.0117188
11805040690,0.977051,-0.0722656,0.0219727
11805055785,0.973145,-0.0678711,0.0200195
11805078381,0.978516,-0.0703125,0.0268555
11805100840,0.976074,-0.0737305,0.0249023
11805115842,0.978027,-0.0693359,0.0253906
11805138312,0.977539,-0.0712891,0.019043
11805160791,0.974121,-0.0673828,0.0214844
11805175818,0.966797,-0.0708008,0.0224609
11805198243,0.970703,-0.0742188,0.0322266
11805220827,0.977539,-0.0717773,0.0405273
11805235861,0.972168,-0.0732422,0.0253906
11805258224,0.974121,-0.0688477,0.0253906
11805280661,0.973145,-0.0722656,0.0253906
11805295653,0.977051,-0.0717773,0.019043
11805318314,0.979004,-0.0683594,0.0219727
11805340786,0.977539,-0.0644531,0.0200195
11805355633,0.971191,-0.0708008,0.0170898
11805378228,0.98877,-0.0673828,0.0449219
11805400855,0.982422,-0.0834961,0.0361328
11805415851,0.987793,-0.0864258,0.0449219
11805438355,0.987305,-0.0620117,0.019043
11805460756,0.986816,-0.0800781,0.0283203
11805477098,0.985352,-0.0986328,0.0375977
11805498327,1.02344,-0.102539,0.0703125
11805520840,1.00195,-0.100586,0.0605469
11805537160,0.987305,-0.121582,0.0810547
11805558296,0.993164,-0.0844727,0.0898438
11805580803,0.998047,-0.116699,0.0869141
11805597169,0.989258,-0.148438,0.0825195
11805618321,1.01465,-0.111328,0.126953
11805640869,0.995117,-0.162598,0.107422
11805657220,0.914062,-0.200195,-0.0898438
11805678314,0.941406,-0.184082,-0.0834961
11805700890,1.00879,-0.105469,-0.00927734
11805717085,1.01416,-0.14209,0.171387
11805738395,0.927246,-0.131836,0.188965
11805760873,0.965332,-0.0805664,0.227539
11805777123,0.972656,-0.0297852,0.275391
11805798279,0.962891,0.00390625,0.306152
11805820715,0.953125,0.0161133,0.321777
11805837134,0.966309,-0.0117188,0.333008
11805858351,0.966797,-0.0146484,0.331055
11805880817,0.978516,-0.027832,0.321289
11805897180,0.988281,-0.0302734,0.310547
11805918269,0.982422,-0.0493164,0.304199
11805940819,0.994629,-0.03125,0.294922
11805957176,0.99707,-0.0166016,0.27002
11805978264,0.974609,-0.0532227,0.271484
11806000865,1.00537,-0.0712891,0.239746
11806017135,0.956055,-0.0917969,0.102051
11806038234,1.0166,-0.155762,0.172852
11806060772,0.954102,-0.166504,0.125488
11806077147,0.943848,-0.242188,0.188965
11806098393,0.927734,-0.290039,0.0356445
11806120816,0.852051,-0.352051,-0.0600586
11806137164,0.84668,-0.219238,-0.0302734
11806158395,0.833496,-0.196289,-0.133301
11806180852,0.76709,-0.241211,-0.193848
11806197226,0.728027,-0.248047,-0.289551
11806218334,0.731934,-0.260254,-0.388184
11806240766,0.941406,0.123047,0.458984
11806257197,1.43994,0.256348,1.29688
11806279676,1.10498,-0.00927734,0.175293
11806300885,1.10303,-0.444824,-0.118652
11806317201,1.17969,-0.530762,0.03125
11806339653,0.935059,-0.243164,-0.0375977
11806360770,0.97998,-0.160645,0.112793
11806377161,0.986816,-0.065918,0.100586
11806399637,0.905273,-0.212402,0.130371
11806420891,0.916016,-0.431641,0.26416
11806437172,0.887695,-0.334961,0.192871
11806459701,1.00146,-0.097168,0.11377
11806480821,0.998047,-0.0957031,0.120605
11806497209,0.898926,-0.266113,0.16748
11806519696,0.906738,-0.325195,0.190918
11806540888,0.909668,-0.367188,0.19873
11806557210,0.950195,-0.246582,0.0791016
11806579698,0.966309,-0.255859,0.0771484
11806600722,0.956055,-0.268066,0.0922852
11806617219,0.953125,-0.28125,0.117676
11806639687,0.9375,-0.30957,0.129883
11806660867,0.928223,-0.313965,0.0498047
11806677139,0.947266,-0.279297,0.0356445
11806699647,0.937012,-0.245117,-0.0175781
11806720834,0.946777,-0.23291,-0.0351562
11806737178,0.92627,-0.229492,-0.0126953
11806759727,0.954102,-0.256348,0.0693359
11806780818,0.935059,-0.263184,-0.0195312
11806797186,0.956543,-0.246094,-0.0698242
11806819608,0.944336,-0.277344,-0.0585938
11806840830,0.967773,-0.26416,-0.0546875
11806857190,0.974609,-0.255371,-0.0981445
11806879666,0.964844,-0.234375,-0.147461
11806900662,0.967773,-0.205566,-0.162109
11806917184,0.944824,-0.250977,-0.136719
11806939629,0.945801,-0.244141,-0.164062
11806960869,0.955078,-0.22168,-0.165527
11806977160,0.935059,-0.24707,-0.13916
11806999684,0.941895,-0.246094,-0.190918
11807020796,0.955078,-0.194336,-0.208496
11807037134,0.944336,-0.270996,-0.169922
11807059731,0.94873,-0.22168,-0.22168
11807081293,0.965332,-0.235352,-0.189941
11807096495,0.989746,-0.245605,-0.22168
11807118922,1.00537,-0.167969,-0.267578
11807141404,1.02734,-0.215332,-0.222656
11807156501,1.03662,-0.166504,-0.25293
11807178993,1.0542,-0.175781,-0.249512
11807201579,1.1377,-0.233887,-0.180176
11807216479,1.38574,-0.251953,-0.138672
11807240338,1.44727,-0.194824,0.0136719
11807261441,1.54053,-0.0229492,0.123047
11807276585,1.5625,-0.124023,0.232422
11807299095,1.24658,-0.67334,0.337402
11807321528,1.21387,-0.889648,-0.065918
11807336517,1.05566,-0.615234,-0.614746
11807359027,1.10352,0.0625,-0.646484
11807381529,1.10107,-0.234375,-0.442383
11807396517,0.79248,-0.143555,-0.23877
11807418951,0.789551,0.109375,-0.186035
11807441494,0.498047,0.216309,0.242676
11807456402,0.375488,-0.200684,0.298828
11807478978,0.249023,-0.194824,0.13623
11807501440,0.560547,-0.166504,0.00634766
11807517865,0.608398,-0.0551758,-0.0180664
11807539398,0.824707,-0.034668,0.0976562
11807561555,0.935059,0.0375977,-0.17627
11807577890,1.09961,-0.0356445,-0.254395
11807599036,1.24072,-0.0107422,-0.312012
11807621524,1.27441,-0.123535,-0.36084
11807637860,1.25488,-0.201172,-0.235352
11807658998,1.31641,-0.143066,-0.244141
11807681547,1.354,-0.187012,-0.241211
11807697895,1.37402,-0.19873,-0.222656
11807719034,1.29297,-0.213867,-0.286133
11807741528,1.28564,-0.246094,-0.325684
11807757894,1.28564,-0.198242,-0.302246
11807779034,1.25098,-0.161621,-0.256348
11807801590,1.16016,-0.248047,-0.362305
11807817849,1.01123,-0.282227,-0.507324
11807839058,0.836426,-0.220215,-0.581543
11807861601,0.708496,-0.269043,-0.693848
11807877778,0.631836,-0.279785,-0.724609
11807899000,0.656738,-0.23291,-0.74707
11807921596,0.785156,-0.282227,-0.615234
11807937759,1.00098,-0.142578,0.463379
11807959091,2.27344,0.994629,1.90479
11807981519,0.967285,0.365234,-0.964844
11807997844,1.44775,-0.671387,0.0175781
11808018998,0.986328,-0.87793,-0.162109
11808041412,1.01123,-0.243652,-0.424316
11808057957,0.999023,-0.238281,-0.152344
11808086563,1.16162,0.226074,-0.0488281
11808101445,1.12012,0.12207,0.120605
11808117928,0.956055,-0.252441,0.104004
11808138832,0.986816,-0.364746,0.165039
11808161567,0.881836,-0.343262,0.160156
11808177856,0.962402,-0.249023,0.101074
11808199128,0.961914,-0.0449219,0.0556641
11808221514,0.963867,-0.0395508,0.0532227
11808237895,0.970215,-0.0498047,0.074707
11808259037,0.964844,-0.247559,0.113281
11808281526,0.964844,-0.285645,0.0869141
11808297199,0.986328,-0.134766,0.0795898
11808318862,1.00439,-0.0913086,0.081543
11808349127,0.962891,-0.192383,0.0898438
11808357190,0.951172,-0.302734,0.105957
11808378937,0.937012,-0.265137,0.0961914
11808401383,0.929688,-0.276367,0.0947266
11808417198,0.958008,-0.222168,0.0307617
11808439054,0.969238,-0.200195,0.0249023
11808461577,0.962891,-0.241211,0.0292969
11808477243,0.978027,-0.22998,0.0180664
11808500405,0.938477,-0.22998,0.0273438
11808521367,0.929199,-0.244629,0.0522461
11808545365,0.925293,-0.246094,0.0639648
11808560426,0.929688,-0.260254,0.0361328
11808581424,0.921387,-0.253418,0.0170898
11808597185,0.933105,-0.260742,0.0224609
11808620397,0.950684,-0.245605,-0.0195312
11808641446,0.953125,-0.273926,-0.0117188
11808657673,0.939941,-0.269043,-0.0712891
11808680449,0.959473,-0.276855,-0.0449219
11808701468,0.962891,-0.266113,-0.117676
11808717175,0.95752,-0.211426,-0.150879
11808740401,0.987305,-0.253418,-0.138672
11808761536,0.984375,-0.228027,-0.174805
11808777114,0.964355,-0.241211,-0.149414
11808800446,0.96582,-0.305664,-0.13623
11808821421,0.966309,-0.218262,-0.177734
11808837216,0.999023,-0.209473,-0.161133
11808860361,1.03662,-0.20459,-0.166016
11808881534,1.10449,-0.171387,-0.142578
11808897150,1.35547,-0.303711,-0.0957031
11808920341,1.36084,-0.192383,-0.0195312
11808941553,1.54932,0.0200195,0.0141602
11808957180,1.65723,-0.03125,0.329102
11808980333,1.19336,-0.445312,0.223633
11809001420,1.10156,-0.735352,0.20459
11809017149,0.916992,-0.439453,-0.825684
11809040377,1.13818,0.03125,-0.609375
11809061642,1.021,-0.0200195,-0.321777
11809077282,0.748047,-0.12793,-0.459473
11809100350,0.703613,0.015625,-0.209961
11809121572,0.632812,-0.195312,0.188477
11809137268,0.479492,0.116699,0.479004
11809184282,0.332031,-0.0366211,0.15625
11809189023,0.55127,-0.297363,0.0307617
11809197193,0.605957,-0.115234,0.0766602
11809219818,0.767578,-0.143555,-0.00683594
11809241520,0.897949,-0.25,-0.249512
11809257220,1.09229,-0.167969,-0.311035
11809279753,1.18848,-0.116211,-0.431152
11809301315,1.18506,-0.252441,-0.430664
11809317257,1.15918,-0.291016,-0.340332
11809339772,1.19922,-0.227539,-0.262207
11809361406,1.21777,-0.249512,-0.217773
11809377146,1.24707,-0.289062,-0.183105
11809399770,1.29395,-0.306152,-0.176758
11809422921,1.31641,-0.334473,-0.21582
11809437203,1.28174,-0.345703,-0.200195
11809459839,1.18652,-0.409668,-0.277344
11809482823,1.08789,-0.333496,-0.34082
11809497265,1.02344,-0.226562,-0.270508
11809519790,0.92627,-0.0683594,-0.305176
11809542830,0.882812,-0.219238,-0.321289
11809557256,0.819336,-0.245605,-0.35791
11809579744,0.798828,-0.171387,-0.331543
11809610379,0.84668,-0.229004,-0.257812
11809617220,0.842773,-0.242188,-0.217773
11809639850,0.827148,-0.264648,-0.236328
11809662865,0.820312,-0.252441,-0.21875
11809683873,0.818848,-0.203125,-0.223633
11809700189,1.07227,0.531738,0.709961
11809722998,1.3418,0.375977,-0.114258
11809744097,1.75049,-0.0292969,-0.426758
11809759757,1.35303,0.0942383,0.312988
11809782862,0.661133,-0.363281,0.179688
11809803964,0.899902,-0.0795898,-0.137207
11809819777,1.15674,0.00585938,-0.26416
11809842878,0.989746,-0.0439453,-0.123535
11809864094,0.943848,-0.0283203,0.00830078
11809879728,1.06641,-0.0693359,0.0722656
11809903385,1.03613,-0.157715,0.130371
11809925355,0.956055,-0.074707,-0.000976562
11809947908,0.943359,-0.105957,-0.019043
11809962855,0.947754,-0.245605,0.0288086
11809984075,0.969727,-0.234863,0.0170898
11809999872,0.994629,-0.183594,0.0195312
11810022852,0.955078,-0.292969,0.0195312
11810044096,0.958008,-0.279297,0.00244141
11810059723,0.967773,-0.175293,-0.0625
11810082817,0.959473,-0.182129,-0.0664062
