timestamp,x,y,z
1448349665,x,y,z
65245229799,0.107422,0.294922,0.964355
65245260621,0.0751953,0.304199,0.945801
65245261329,0.0493164,0.308594,0.950684
65245291110,0.0327148,0.29834,0.96875
65245297957,0.0102539,0.262695,0.989258
65245320475,-0.0239258,0.223633,0.999023
65245334956,-0.0688477,0.217285,1.01562
65245358132,-0.106445,0.218262,1.02344
65245388783,-0.107422,0.20459,1.04541
65245394878,-0.0839844,0.194336,1.05518
65245418186,-0.078125,0.18457,1.05225
65245440680,-0.0810547,0.180176,1.0708
65245454951,-0.0625,0.162598,1.05762
65245477988,-0.0756836,0.175293,1.05225
65245500632,-0.106445,0.192383,1.04932
65245515007,-0.126953,0.186035,1.04932
65245538183,-0.136719,0.178711,1.03662
65245560731,-0.144531,0.188477,1.02637
65245575019,-0.155273,0.209473,1.02051
65245597994,-0.1875,0.214355,1.00732
65245620534,-0.211426,0.206055,0.999023
65245634843,-0.194824,0.201172,0.999512
65245665560,-0.180664,0.188965,1.00098
65245680598,-0.186523,0.185547,0.991211
65245694871,-0.20166,0.20459,0.992188
65245717959,-0.198242,0.205566,1.00293
65245740685,-0.185059,0.187012,1
65245756344,-0.186035,0.181641,1.00586
65245779449,-0.188965,0.18457,1.0166
65245800607,-0.196289,0.181641,1.0127
65245815029,-0.204102,0.194824,1.00537
65245838088,-0.202148,0.199707,1.00439
65245860592,-0.202637,0.1875,1.00879
65245875113,-0.196777,0.192383,1.00732
65245898135,-0.193359,0.210449,1.00488
65245920673,-0.177734,0.228516,1.00244
65245936337,-0.174316,0.23291,0.996094
65245958002,-0.168945,0.225586,0.994141
65245980590,-0.154297,0.231934,0.992188
65245996284,-0.146973,0.248535,0.981934
65246017981,-0.155273,0.260254,0.981445
65246040552,-0.157715,0.254883,0.98877
65246056266,-0.148926,0.248047,0.993164
65246078104,-0.140625,0.256348,0.98291
65246100554,-0.143555,0.264648,0.976562
65246118350,-0.143555,0.290527,0.972168
65246138167,-0.138672,0.288086,0.98291
65246160617,-0.134277,0.293945,0.984375
65246176334,-0.127441,0.306641,0.97998
65246198228,-0.125977,0.311523,0.978516
65246220687,-0.115234,0.312988,0.976562
65246236290,-0.10791,0.310547,0.977051
65246258832,-0.108398,0.305664,0.991211
65246280529,-0.0927734,0.320312,0.990234
65246296259,-0.0722656,0.330078,0.984863
65246318761,-0.0585938,0.348145,0.974609
65246340329,-0.050293,0.355469,0.96582
65246356261,-0.0415039,0.354492,0.96875
65246378772,-0.0195312,0.359863,0.97998
65246401954,-0.000976562,0.359375,0.978027
65246416372,0.00439453,0.371094,0.960449
65246438804,-0.000976562,0.378418,0.950684
65246461972,0.00634766,0.391602,0.935059
65246476341,0.0195312,0.396973,0.946777
65246498851,0.0297852,0.395996,0.936035
65246521959,0.0268555,0.414062,0.919434
65246536207,0.0200195,0.424805,0.904785
65246558762,0.0327148,0.434082,0.902344
65246581904,0.0512695,0.439941,0.89502
65246596312,0.0703125,0.44873,0.893066
65246618782,0.0795898,0.452148,0.88623
65246641963,0.0776367,0.464355,0.876465
65246663008,0.0825195,0.463379,0.865234
65246678775,0.0986328,0.477051,0.849609
65246701981,0.128906,0.491699,0.845215
65246723240,0.144043,0.504883,0.839844
65246738859,0.131348,0.498047,0.832031
65246761966,0.121094,0.486328,0.820312
65246783210,0.128418,0.494629,0.806641
65246798837,0.144043,0.509766,0.791504
65246821975,0.162109,0.522949,0.798828
65246842996,0.181152,0.515625,0.791992
65246858821,0.178223,0.512207,0.786133
65246881941,0.179688,0.509766,0.780762
65246903001,0.188965,0.504395,0.785645
65246918839,0.198242,0.501953,0.785156
65246942013,0.196289,0.504883,0.786621
65246963092,0.183594,0.520996,0.783691
65246978868,0.174805,0.526367,0.782715
65247001980,0.177246,0.515625,0.798828
65247023053,0.17627,0.506348,0.795898
65247038861,0.173828,0.511719,0.802734
65247062844,0.172852,0.516113,0.790039
65247083669,0.173828,0.51416,0.787109
65247098803,0.191895,0.505371,0.779785
65247121929,0.204102,0.507324,0.793457
65247143235,0.220703,0.497559,0.805176
65247158862,0.227051,0.496094,0.795898
65247181961,0.233398,0.501465,0.799316
65247203057,0.245605,0.501465,0.811523
65247218863,0.23584,0.483398,0.83252
65247241340,0.222168,0.480957,0.84375
65247263046,0.215332,0.492188,0.848145
65247278812,0.212891,0.513184,0.848633
65247301305,0.217285,0.53418,0.855957
65247323038,0.232422,0.53418,0.856445
65247338814,0.236816,0.522949,0.862305
65247361299,0.234375,0.510742,0.847656
65247384491,0.225098,0.515625,0.836914
65247398749,0.233398,0.536621,0.822754
65247421373,0.238281,0.538086,0.818848
65247444636,0.228516,0.538086,0.806152
65247458853,0.213379,0.53125,0.804688
65247481379,0.225098,0.52832,0.793945
65247504587,0.225586,0.516113,0.798828
65247518841,0.213379,0.515137,0.796875
65247541349,0.199219,0.518066,0.791992
65247572417,0.209473,0.524414,0.794434
65247578788,0.212891,0.519043,0.793457
65247601324,0.213867,0.519043,0.795898
65247624520,0.228027,0.533203,0.79834
65247638897,0.250488,0.535645,0.804688
65247661409,0.247559,0.522949,0.800781
65247684576,0.227539,0.520508,0.806152
65247698893,0.234375,0.53125,0.800293
65247721338,0.235352,0.532715,0.805664
65247744537,0.22998,0.53125,0.818359
65247758825,0.227051,0.527344,0.816895
65247781357,0.233398,0.524414,0.816406
65247804531,0.227539,0.527832,0.823242
65247818811,0.221191,0.52832,0.814941
65247841351,0.225098,0.543457,0.810059
65247864498,0.245605,0.548828,0.803223
65247885744,0.253418,0.541992,0.800781
65247901759,0.252441,0.553223,0.794922
65247924620,0.26416,0.552734,0.792969
65247945604,0.257812,0.557617,0.791016
65247969537,0.239746,0.549316,0.798828
65247984525,0.228516,0.560547,0.782715
65248005332,0.224609,0.582031,0.768066
65248022778,0.233887,0.586914,0.773926
65248044484,0.24707,0.568359,0.776367
65248065548,0.267578,0.561523,0.794922
65248081284,0.249512,0.559082,0.795898
65248104511,0.240723,0.570801,0.796387
65248125815,0.25,0.574707,0.783691
65248140761,0.243164,0.566895,0.759277
65248155031,0.240723,0.558594,0.746094
65248177561,0.221191,0.543945,0.725586
65248200777,0.186523,0.535156,0.711426
65248215027,0.146973,0.548828,0.705566
65248237580,0.115234,0.558105,0.713867
65248260755,0.126953,0.554199,0.716309
65248275189,0.151367,0.573242,0.705078
65248297527,0.158691,0.593262,0.694824
65248320757,0.173828,0.552734,0.703125
65248335057,0.179199,0.505859,0.70459
65248357388,0.155273,0.47168,0.680664
65248380655,0.131348,0.472656,0.649902
65248394967,0.119629,0.46582,0.637207
65248417476,0.116211,0.417969,0.665527
65248440705,0.138184,0.368652,0.682617
65248455035,0.151367,0.362305,0.699219
65248477612,0.144043,0.374512,0.717285
65248500741,0.10791,0.373047,0.741699
65248515115,0.0556641,0.362793,0.775391
65248537539,0.043457,0.365723,0.79834
65248560792,0.0498047,0.397461,0.816895
65248575109,0.0405273,0.410645,0.831543
65248597405,0.0141602,0.42334,0.827148
65248620721,-0.0380859,0.427734,0.832031
65248635091,-0.106445,0.407227,0.873047
65248657487,-0.13916,0.371582,0.980957
65248680633,-0.135742,0.353027,1.13086
65248695010,-0.207031,0.345703,1.20264
65248717577,-0.376953,0.376465,1.28418
65248740764,-0.509277,0.360352,1.33496
65248754979,-0.441895,0.32373,1.39014
65248777607,-0.405762,0.334473,1.4458
65248800699,-0.48584,0.330566,1.44922
65248814956,-0.527832,0.309082,1.41064
65248837383,-0.462891,0.255859,1.36719
65248860597,-0.431641,0.230469,1.2876
65248874940,-0.418457,0.241211,1.21582
65248897366,-0.394043,0.252441,1.16455
65248920568,-0.375,0.223145,1.12402
65248934972,-0.366699,0.18457,1.07471
65248957383,-0.369141,0.122559,1.01074
65248980618,-0.396484,0.0957031,0.949707
65248996375,-0.419434,0.0810547,0.941895
65249017409,-0.432129,0.0395508,0.958496
65249040828,-0.45752,0.0517578,0.930176
65249055139,-0.502441,0.119629,0.879395
65249077596,-0.498535,0.166992,0.824707
65249100589,-0.481445,0.176758,0.787598
65249114892,-0.43457,0.15918,0.888672
65249137582,-0.447754,0.115234,0.952637
65249160823,-0.538086,0.170898,0.936035
65249175106,-0.58252,0.289062,0.881836
65249197496,-0.538574,0.260254,0.82666
65249220582,-0.522461,0.20752,0.839844
65249235014,-0.470703,0.137695,0.88623
65249257608,-0.518066,0.111816,0.898438
65249280000,-0.583984,0.160156,0.834473
65249295044,-0.584473,0.193359,0.783203
65249317491,-0.501465,0.178223,0.746094
65249339949,-0.492188,0.151855,0.714355
65249356021,-0.611328,0.149414,0.751465
65249377418,-0.749023,0.153809,0.716309
65249399900,-0.754395,0.208008,0.69043
65249415053,-0.687988,0.254883,0.661621
65249437637,-0.64502,0.267578,0.668457
65249460111,-0.612305,0.230469,0.651855
65249475025,-0.579102,0.203613,0.63916
65249497503,-0.532227,0.205566,0.623535
65249520128,-0.505859,0.217285,0.623047
65249535091,-0.538574,0.211426,0.616211
65249573876,-0.624023,0.209473,0.604492
65249579910,-0.686523,0.23584,0.598633
65249595014,-0.676758,0.222168,0.59082
65249618844,-0.661621,0.200684,0.606934
65249639875,-0.66748,0.163574,0.595215
65249654886,-0.674805,0.121094,0.606445
65249677490,-0.731934,0.108887,0.636719
65249699926,-0.834961,0.116211,0.645508
65249717829,-0.94043,0.124023,0.584961
65249737447,-0.941406,0.118164,0.518555
65249768958,-0.873047,0.111816,0.436523
65249775062,-0.810547,0.0854492,0.397949
65249797500,-0.799805,0.0644531,0.425293
65249820115,-0.865234,0.0537109,0.477051
65249835116,-0.917969,0.0258789,0.493652
65249857557,-0.891602,0.0678711,0.47168
65249879944,-0.854004,0.126465,0.45166
65249894993,-0.841797,0.124512,0.466309
65249917587,-0.868652,0.0708008,0.481445
65249939902,-0.894043,0.0332031,0.470703
65249956357,-0.885254,0.0444336,0.446777
65249977451,-0.875,0.0585938,0.429199
65249999938,-0.881836,0.0683594,0.402344
65250014934,-0.89502,0.0932617,0.399902
65250037423,-0.922363,0.103516,0.39209
65250059911,-0.936035,0.0839844,0.404785
65250076342,-0.929199,0.0654297,0.400879
65250097397,-0.921875,0.0634766,0.414062
65250121491,-0.920898,0.0727539,0.42041
65250136340,-0.915527,0.0917969,0.431152
65250157570,-0.916504,0.0976562,0.444824
65250179997,-0.9375,0.0776367,0.460938
65250196341,-0.935059,0.0844727,0.446289
65250217609,-0.92627,0.123535,0.446777
65250240169,-0.946777,0.118164,0.451172
65250256404,-0.986328,0.0878906,0.436523
65250277523,-1.00342,0.0849609,0.404785
65250300054,-0.975586,0.117188,0.385742
65250316472,-0.938965,0.14502,0.363281
65250337528,-0.904297,0.156738,0.376465
65250360114,-0.90625,0.155762,0.388184
65250376478,-0.922363,0.111328,0.431641
65250397581,-0.956055,0.0825195,0.468262
65250420110,-1.01807,0.0913086,0.539062
65250436353,-1.07617,0.133301,0.546387
65250457576,-1.06689,0.168457,0.566406
65250479957,-1.04346,0.187012,0.583984
65250496405,-0.995605,0.165527,0.611816
65250517619,-0.96582,0.121094,0.65332
65250539913,-0.930664,0.0947266,0.724609
65250556362,-0.891113,0.0844727,0.736816
65250577372,-0.881348,0.112793,0.737793
65250599928,-0.881836,0.171875,0.733398
65250616361,-0.869141,0.219238,0.739258
65250637439,-0.84082,0.204102,0.791992
65250660111,-0.799805,0.167969,0.820801
65250676451,-0.79541,0.17334,0.820801
65250697464,-0.781738,0.194336,0.818848
65250720078,-0.734375,0.157715,0.848633
65250736443,-0.677246,0.126465,0.893555
65250757675,-0.644043,0.149414,0.907227
65250788284,-0.605469,0.210938,0.889648
65250796354,-0.523926,0.226074,0.884766
65250817617,-0.44873,0.197754,0.897461
65250841398,-0.40332,0.143555,0.921875
65250856427,-0.39209,0.153809,0.90625
65250877455,-0.330566,0.212891,0.884277
65250899947,-0.242188,0.253418,0.854004
65250916398,-0.152344,0.259766,0.858398
65250937447,-0.0844727,0.240234,0.873535
65250960093,-0.034668,0.232422,0.866699
65250976472,0.0273438,0.247559,0.834961
65250998958,0.0883789,0.254395,0.810059
65251020671,0.101562,0.229492,0.813477
65251036403,0.0942383,0.21582,0.807617
65251060393,0.120117,0.23877,0.823242
65251079986,0.161133,0.269531,0.810059
65251096417,0.192383,0.279297,0.788086
65251118977,0.203613,0.274414,0.783203
65251139965,0.230957,0.248535,0.78418
65251156484,0.305176,0.239746,0.791992
65251180326,0.349121,0.282715,0.80957
65251199971,0.354004,0.316406,0.802734
65251216382,0.341797,0.317383,0.795898
65251238825,0.350586,0.292969,0.783691
65251262837,0.381836,0.279785,0.781738
65251277860,0.411133,0.277832,0.785645
65251298963,0.424316,0.291992,0.785645
65251320161,0.449707,0.310059,0.776367
65251350793,0.444824,0.32373,0.760742
65251366462,0.422363,0.320312,0.746094
65251388284,0.406738,0.291504,0.766113
65251396389,0.401367,0.26416,0.803223
65251419009,0.371094,0.262695,0.821289
65251440016,0.348145,0.29541,0.815918
65251456403,0.348633,0.347168,0.812012
65251478902,0.379395,0.376953,0.818848
65251499948,0.408203,0.38623,0.84082
65251516463,0.394043,0.383301,0.864258
65251538947,0.382812,0.379395,0.870117
65251560081,0.389648,0.393066,0.869141
65251576409,0.390137,0.419434,0.868164
65251598860,0.39209,0.427246,0.854004
65251621551,0.40332,0.428223,0.849121
65251643978,0.400879,0.42041,0.848145
65251658854,0.385254,0.413574,0.838867
65251680015,0.387695,0.40625,0.834473
65251696370,0.388184,0.396484,0.834961
65251718958,0.393066,0.384277,0.827148
65251739960,0.381836,0.385742,0.817871
65251756427,0.384277,0.388184,0.811523
65251778911,0.39209,0.398926,0.807617
65251800709,0.38916,0.395508,0.806641
65251817204,0.373047,0.383789,0.808105
65251838269,0.372559,0.370605,0.806641
65251860827,0.377441,0.379883,0.8125
65251877096,0.387207,0.384766,0.81543
65251898156,0.385742,0.384277,0.819824
65251920818,0.379395,0.382324,0.804199
65251937041,0.366211,0.387207,0.803223
65251958120,0.362793,0.386719,0.803223
65251988789,0.364746,0.386719,0.810059
65251995560,0.361816,0.387695,0.805664
65252018168,0.351562,0.381348,0.793945
65252042036,0.327148,0.383789,0.784668
65252055635,0.321289,0.370605,0.779297
65252078072,0.315918,0.361816,0.777832
65252100629,0.321777,0.358887,0.781738
65252117185,0.30127,0.349121,0.776367
65252138188,0.262207,0.347168,0.758301
65252160860,0.240723,0.336426,0.761719
65252177157,0.253418,0.308594,0.785645
65252198264,0.279297,0.314941,0.797363
65252220834,0.260742,0.338379,0.788574
65252237180,0.204102,0.342285,0.777832
65252258336,0.154785,0.324219,0.765137
65252280640,0.120117,0.307129,0.801758
65252297074,0.0869141,0.291504,0.808105
65252319600,0.0444336,0.289551,0.810059
65252340608,-0.00244141,0.298828,0.796875
65252357096,-0.0537109,0.299316,0.791992
65252378112,-0.119629,0.27832,0.824707
65252400710,-0.177246,0.273926,0.84375
65252417144,-0.216797,0.297852,0.847168
65252453858,-0.257324,0.368164,0.834473
65252460828,-0.402344,0.381836,0.829102
65252477123,-0.592285,0.339844,0.843262
65252498304,-0.705078,0.299316,0.855957
65252520858,-0.701172,0.324707,0.862305
65252537177,-0.708984,0.357422,0.847168
65252558138,-0.720215,0.355469,0.797852
65252580703,-0.719238,0.30957,0.785156
65252597081,-0.719238,0.257812,0.763184
65252619564,-0.742188,0.205078,0.727051
65252640780,-0.771973,0.202637,0.668457
65252657194,-0.787109,0.233887,0.613281
65252678106,-0.83252,0.259766,0.583008
65252700645,-0.935059,0.279785,0.547852
65252717071,-1.0083,0.291504,0.560547
65252738100,-0.996094,0.317871,0.597168
65252760803,-0.993652,0.30127,0.608398
65252777143,-0.98584,0.270508,0.613281
65252798373,-0.958496,0.225098,0.620605
65252820791,-0.940918,0.179199,0.608887
65252843329,-0.950684,0.14502,0.569824
65252858324,-0.96875,0.151367,0.516602
65252880641,-0.970703,0.202637,0.488281
65252896419,-0.938477,0.224121,0.477051
65252919574,-0.92334,0.216797,0.478027
65252940635,-0.949219,0.213867,0.47168
65252956503,-0.963379,0.241699,0.445312
65252978135,-0.972168,0.247559,0.406738
65253008188,-0.979492,0.225098,0.375977
65253018201,-0.985352,0.219727,0.356445
65253038135,-0.998535,0.226562,0.343262
65253060818,-1.00098,0.231934,0.340332
65253076451,-0.998047,0.228027,0.32959
65253099695,-0.987793,0.217285,0.325684
65253120732,-0.988281,0.201172,0.310059
65253136578,-0.991211,0.199219,0.304688
65253160082,-0.972168,0.222168,0.294922
65253188327,-0.947266,0.220215,0.289551
65253196419,-0.939941,0.205566,0.301758
65253219684,-0.94043,0.197266,0.3125
65253242121,-0.955566,0.211914,0.330566
65253256488,-0.963379,0.23584,0.317383
65253293831,-0.976074,0.245605,0.354004
65253300637,-0.995605,0.23584,0.393066
65253316487,-0.996582,0.243164,0.409668
65253339627,-1.0083,0.249023,0.400391
65253360644,-1.02881,0.194824,0.434082
65253376424,-1.02344,0.160156,0.48584
65253399691,-1.01074,0.203613,0.504883
65253420632,-1.00879,0.245117,0.538086
65253443320,-1.00146,0.272949,0.580566
65253459674,-0.974121,0.241699,0.620117
65253480686,-0.962891,0.19043,0.654297
65253496456,-0.943359,0.177246,0.696777
65253519603,-0.913086,0.182129,0.740234
65253540834,-0.873047,0.202637,0.768555
65253556486,-0.830566,0.221191,0.786133
65253579566,-0.794434,0.220215,0.790039
65253600741,-0.761719,0.220215,0.813477
65253616620,-0.712891,0.205566,0.871582
65253639642,-0.697754,0.199707,0.874023
65253660694,-0.675781,0.243164,0.86084
65253676506,-0.611328,0.28125,0.845215
65253699627,-0.540527,0.260742,0.867188
65253720694,-0.512207,0.208984,0.888672
65253736523,-0.505859,0.197754,0.884766
65253759595,-0.437012,0.251465,0.855469
65253780659,-0.38623,0.30127,0.842285
65253796419,-0.341797,0.279297,0.827637
65253819656,-0.302246,0.208008,0.851562
65253840820,-0.255371,0.185547,0.853516
65253856583,-0.208984,0.206543,0.831055
65253878967,-0.168945,0.243652,0.818848
65253908678,-0.146484,0.266602,0.824219
65253916526,-0.104004,0.244141,0.838379
65253938976,-0.0517578,0.260254,0.815918
65253960778,0.00683594,0.291016,0.814453
65253976575,0.0668945,0.287598,0.831055
65254005706,0.081543,0.247559,0.825684
65254022100,0.0874023,0.254395,0.827148
65254036519,0.13623,0.305664,0.817871
65254059001,0.187012,0.311035,0.825195
65254083570,0.217773,0.292969,0.830566
65254096415,0.236816,0.286621,0.824707
65254118954,0.247559,0.292969,0.818848
65254142163,0.257812,0.29541,0.832031
65254156495,0.272949,0.302246,0.849121
65254179049,0.283691,0.312012,0.851562
65254202149,0.300781,0.320312,0.831055
65254216571,0.31543,0.322266,0.839355
65254247136,0.331543,0.310547,0.844727
65254262206,0.32959,0.305176,0.849121
65254283208,0.334473,0.314941,0.839355
65254298991,0.341309,0.343262,0.841309
65254322113,0.333496,0.344238,0.85498
65254336533,0.327148,0.331543,0.874023
65254359056,0.339844,0.333984,0.876953
65254382196,0.338379,0.358887,0.873535
65254396509,0.33252,0.356934,0.874023
65254419564,0.328613,0.34668,0.879883
65254442109,0.338379,0.32959,0.895508
65254456429,0.345703,0.339355,0.88916
65254479017,0.34668,0.334961,0.879883
65254509608,0.330566,0.326172,0.868164
65254522963,0.331055,0.320801,0.859375
65254538979,0.347656,0.316895,0.864258
65254562138,0.35791,0.332031,0.865234
65254583176,0.364258,0.32666,0.864258
65254598999,0.352051,0.336426,0.853027
65254622122,0.339355,0.318848,0.855469
65254643232,0.337402,0.317383,0.856445
65254658972,0.344727,0.326172,0.867676
65254682811,0.356934,0.326172,0.866211
65254703180,0.349609,0.338379,0.862305
65254718967,0.336914,0.331543,0.86084
65254742104,0.331543,0.322754,0.873535
65254763181,0.337402,0.32959,0.888184
65254778967,0.338379,0.339355,0.882324
65254801497,0.334961,0.334961,0.87793
65254823256,0.340332,0.338379,0.875
65254839000,0.347656,0.33252,0.876953
65254861486,0.353027,0.333496,0.875
65254883180,0.34375,0.33252,0.873047
65254898965,0.320801,0.341797,0.855469
65254921506,0.319336,0.347656,0.863281
65254943190,0.329102,0.341309,0.867188
65254958973,0.32666,0.333008,0.867188
65254981520,0.310059,0.34082,0.869141
65255004592,0.294434,0.34375,0.868164
65255018977,0.291992,0.338379,0.882324
65255041495,0.29541,0.33252,0.883789
65255064691,0.286133,0.341797,0.880371
65255078998,0.284668,0.351074,0.885742
65255101491,0.297363,0.345215,0.907227
65255124617,0.311035,0.354004,0.916016
65255138999,0.309082,0.36084,0.91748
65255161485,0.302734,0.362793,0.915527
65255184692,0.294434,0.356934,0.911621
65255198966,0.292969,0.353027,0.907227
65255221520,0.309082,0.350098,0.90918
65255245020,0.316895,0.345215,0.900391
65255258997,0.307129,0.350586,0.897461
65255281531,0.296387,0.343262,0.87793
65255304658,0.299805,0.342285,0.894531
65255318973,0.30127,0.336914,0.896973
65255341498,0.30127,0.341797,0.891113
65255364644,0.299316,0.344238,0.880371
65255378964,0.29834,0.345703,0.878418
65255401502,0.296387,0.348633,0.876953
65255425167,0.312988,0.339355,0.890137
65255445781,0.319824,0.35498,0.890137
65255461488,0.307129,0.366211,0.876465
65255484647,0.300293,0.370117,0.878418
65255497546,0.302246,0.364746,0.877441
65255522128,0.304199,0.371582,0.887207
65255535057,0.303711,0.376953,0.887207
65255557571,0.297363,0.381836,0.88623
65255580680,0.295898,0.377441,0.887207
65255595060,0.288086,0.387207,0.885254
65255617546,0.282715,0.396973,0.876465
65255640668,0.297363,0.396484,0.879883
65255655030,0.297852,0.388672,0.886719
65255677530,0.292969,0.382324,0.890137
65255700905,0.290039,0.376465,0.87793
65255714998,0.300293,0.370117,0.890625
65255737532,0.307617,0.359375,0.884766
65255760720,0.311523,0.35498,0.876465
65255775055,0.307129,0.352539,0.881836
65255797545,0.319824,0.341797,0.893066
65255820752,0.328125,0.32959,0.888672
65255835058,0.326172,0.31543,0.888672
65255857570,0.33252,0.306152,0.884766
65255880712,0.337891,0.302246,0.875977
65255895099,0.349609,0.288086,0.882812
65255917553,0.355469,0.273438,0.893555
65255940490,0.363281,0.260742,0.88916
65255955058,0.368164,0.255371,0.883301
65255977520,0.348145,0.248047,0.875977
65256000743,0.349121,0.229004,0.871582
65256015042,0.344238,0.226562,0.875
65256037556,0.338867,0.232422,0.861816
65256060692,0.343262,0.233398,0.859375
65256075110,0.330078,0.236328,0.848145
65256097597,0.325195,0.223633,0.855957
65256120727,0.327148,0.20752,0.855957
65256135084,0.32666,0.194824,0.865234
65256157585,0.333496,0.178223,0.873535
65256180833,0.318359,0.169434,0.870117
65256195156,0.303223,0.162109,0.890137
65256217602,0.287598,0.160156,0.894043
65256240714,0.285156,0.169434,0.898438
65256255095,0.291992,0.166016,0.905273
65256277558,0.293457,0.154297,0.90332
65256300743,0.283691,0.149414,0.912598
65256315083,0.263184,0.144043,0.916504
65256339061,0.294434,0.123047,0.921387
65256360751,0.320801,0.101562,0.953125
65256375080,0.28418,0.105957,0.960449
65256397537,0.253418,0.114258,0.957031
65256420938,0.241211,0.105957,0.96875
65256435101,0.285156,0.0932617,0.977051
65256457583,0.313477,0.0722656,0.98877
65256480553,0.278809,0.0771484,0.983398
65256495301,0.228027,0.0952148,0.977051
65256517758,0.214355,0.0786133,0.995117
65256540905,0.208496,0.078125,0.994141
65256555197,0.186523,0.0888672,1
65256577819,0.152832,0.0874023,0.994141
65256600919,0.139648,0.0727539,0.998535
65256615162,0.137207,0.065918,1.00684
65256637777,0.138672,0.0507812,1.00488
65256660991,0.131836,0.0449219,1.01514
65256675125,0.109863,0.043457,1.02246
65256697541,0.100586,0.0283203,1.02002
65256720719,0.11084,0.0126953,1.02441
65256735038,0.116699,-0.00195312,1.03125
65256757565,0.105469,0.000488281,1.02979
65256780771,0.106445,0.00292969,1.03564
65256795236,0.118652,-0.00195312,1.04053
65256817769,0.117188,-0.00488281,1.03271
65256840209,0.114258,-0.00146484,1.0293
65256855161,0.118164,0.0107422,1.0293
65256877779,0.125,0.027832,1.02441
65256900272,0.111816,0.0483398,1.01904
65256915091,0.104004,0.0737305,1.01465
65256937587,0.097168,0.0878906,1.01367
65256960067,0.0966797,0.0800781,1.00439
65256975072,0.0893555,0.074707,1.00049
65256997649,0.0839844,0.0917969,0.996094
65257020201,0.0869141,0.109863,0.996582
65257035297,0.0942383,0.114746,1.00342
65257057756,0.0756836,0.119141,1.00293
65257080128,0.0644531,0.118652,1.00635
65257095254,0.0737305,0.116699,1.02051
65257117754,0.065918,0.116699,1.02344
65257140268,0.0600586,0.116699,1.02148
65257155217,0.0756836,0.0942383,1.0249
65257177721,0.0932617,0.0620117,1.03369
65257200657,0.0883789,0.0566406,1.03223
65257218011,0.078125,0.0732422,1.02881
65257237801,0.0688477,0.0649414,1.02441
65257260175,0.0756836,0.0395508,1.03174
65257275283,0.0703125,0.0283203,1.03223
65257297633,0.0566406,0.03125,1.021
65257320249,0.0605469,0.0292969,1.01953
65257335343,0.0727539,0.0214844,1.01807
65257357766,0.0761719,0.0239258,1.01709
65257380146,0.0673828,0.0366211,1.0127
65257395068,0.0708008,0.043457,1.01953
65257417580,0.0751953,0.0419922,1.02197
65257440068,0.0771484,0.0390625,1.01123
65257455238,0.0722656,0.0351562,1.0083
65257477607,0.0698242,0.0419922,1.01465
65257500080,0.0698242,0.0483398,1.0166
65257515137,0.0639648,0.0541992,1.00928
65257537781,0.0639648,0.0527344,1.00977
65257560277,0.0771484,0.0400391,1.00342
65257575293,0.0717773,0.0219727,1.00439
65257597619,0.0600586,0.0214844,1
65257620241,0.0288086,0.03125,0.991211
65257637478,-0.00634766,0.0727539,0.993652
65257657634,0.0180664,0.0795898,1.00928
65257680122,0.0615234,0.0532227,1.01367
65257696488,0.0473633,0.0610352,1.00098
65257717785,0.00439453,0.121582,0.986328
65257740265,0.00830078,0.164062,0.988281
65257756608,0.0439453,0.156738,0.989258
65257777772,0.034668,0.146973,0.990234
65257800312,0.0078125,0.159668,0.98877
65257816548,0.00830078,0.186035,0.98877
65257837784,0.034668,0.202637,0.97998
65257860241,0.0400391,0.200684,0.98291
65257876521,0.0273438,0.226074,0.988281
65257897539,0.0253906,0.245117,0.992188
65257920117,0.0356445,0.252441,0.994141
65257936523,0.0429688,0.266602,0.990234
65257957610,0.0322266,0.29541,0.982422
65257980101,0.0224609,0.319824,0.984375
65257996576,0.0253906,0.318359,0.982422
65258017580,0.0224609,0.310547,0.987305
65258040377,0.0214844,0.324707,0.972656
65258056612,0.0249023,0.327148,0.961914
65258077797,0.0253906,0.328125,0.961914
65258100323,0.0366211,0.318359,0.957031
65258116575,0.0341797,0.317871,0.95166
65258137681,0.0234375,0.317383,0.94873
65258168299,0.0297852,0.310547,0.9375
65258176490,0.043457,0.304199,0.927246
65258197611,0.0517578,0.308594,0.915527
65258220138,0.0551758,0.322754,0.901855
65258236511,0.0537109,0.324707,0.891113
65258257521,0.0581055,0.315918,0.880371
65258280159,0.0507812,0.279297,0.878906
65258296576,0.0522461,0.257812,0.866211
65258317695,0.0493164,0.268555,0.858887
65258340251,0.0415039,0.29541,0.855469
65258356655,0.0541992,0.309082,0.858887
65258377791,0.0444336,0.302246,0.874023
65258400220,0.0268555,0.281738,0.880859
65258416675,0.0117188,0.271484,0.88623
65258437613,0.0146484,0.283203,0.881836
65258461012,0.0131836,0.312988,0.862793
65258476578,-0.0175781,0.345703,0.868652
65258497606,-0.090332,0.343262,0.868164
65258520170,-0.150391,0.302734,0.874512
65258536538,-0.165039,0.269043,0.874512
65258557649,-0.194336,0.27832,0.879883
65258581568,-0.23584,0.278809,0.891602
65258596622,-0.258301,0.270996,0.900879
65258619108,-0.275391,0.277832,0.888184
65258640198,-0.289551,0.272949,0.869629
65258656579,-0.336914,0.268555,0.856445
65258679154,-0.408691,0.287598,0.847168
65258700330,-0.475098,0.361328,0.845215
65258716539,-0.488281,0.413574,0.842773
65258739011,-0.463379,0.405273,0.837402
65258760042,-0.493164,0.35791,0.86084
65258776541,-0.550781,0.298828,0.84668
65258799010,-0.583008,0.250977,0.84375
65258820282,-0.588379,0.280273,0.827637
65258836635,-0.59375,0.326172,0.798828
65258859107,-0.612305,0.32666,0.777832
65258880216,-0.67334,0.310059,0.77002
65258896611,-0.709961,0.259766,0.769531
65258919072,-0.716309,0.233398,0.762207
65258940271,-0.71875,0.254883,0.73877
65258956553,-0.724121,0.272461,0.692871
65258979079,-0.753906,0.283691,0.64209
65259003019,-0.835938,0.271484,0.595215
65259016559,-0.857422,0.239746,0.57959
65259039051,-0.824219,0.214844,0.566895
65259060309,-0.865234,0.264648,0.55127
65259076653,-0.898438,0.298828,0.564941
65259099108,-0.899414,0.322754,0.588867
65259120171,-0.896973,0.306152,0.598145
65259136616,-0.910156,0.285156,0.577637
65259160618,-0.93457,0.266602,0.555664
65259180213,-0.980957,0.227051,0.529785
65259196617,-0.983887,0.190918,0.503906
65259218334,-0.94873,0.187988,0.492676
65259241003,-0.913574,0.193848,0.51123
65259255925,-0.882324,0.171875,0.531738
65259278499,-0.862793,0.131348,0.528809
65259300956,-0.835449,0.115723,0.53125
65259315858,-0.838379,0.11377,0.522949
65259338502,-0.848633,0.114746,0.509766
65259361005,-0.853516,0.124023,0.501465
65259375948,-0.854492,0.135254,0.492188
65259405983,-0.862305,0.132324,0.500488
65259421001,-0.873535,0.121094,0.50293
65259435808,-0.890625,0.12793,0.513184
65259458388,-0.902832,0.144531,0.508301
65259480801,-0.916504,0.155273,0.499512
65259495971,-0.923828,0.159668,0.47998
65259518530,-0.931641,0.155273,0.477051
65259541011,-0.935059,0.143555,0.467773
65259555913,-0.937012,0.138672,0.46875
65259578507,-0.924805,0.15625,0.464844
65259600995,-0.921387,0.166992,0.477051
65259615905,-0.907715,0.164551,0.473145
65259638506,-0.907715,0.167969,0.489258
65259661021,-0.904297,0.161621,0.520508
65259675954,-0.89502,0.13916,0.547363
65259698380,-0.902832,0.15625,0.563477
65259720839,-0.900391,0.19043,0.572754
65259737217,-0.897949,0.200195,0.602051
65259758492,-0.905273,0.188965,0.646973
65259780882,-0.930664,0.20166,0.660156
65259797305,-0.931152,0.239746,0.679199
65259818498,-0.913574,0.245605,0.693359
65259840982,-0.915527,0.240723,0.72168
65259864756,-0.907715,0.242676,0.731934
65259878348,-0.897949,0.260254,0.76123
65259900876,-0.868652,0.253418,0.788574
65259917283,-0.849609,0.245117,0.802246
65259938447,-0.830566,0.242188,0.813477
65259960999,-0.791016,0.250488,0.833008
65259977294,-0.757324,0.253906,0.845215
65259998288,-0.723633,0.279785,0.848145
65260021021,-0.688477,0.297363,0.873535
65260037260,-0.649414,0.268555,0.933105
65260058287,-0.609375,0.210449,0.962891
65260080820,-0.577148,0.237793,0.939941
65260097235,-0.513184,0.333496,0.913574
65260118283,-0.430664,0.388672,0.917969
65260142249,-0.344727,0.35791,0.953125
65260157279,-0.289062,0.289551,0.96875
65260178366,-0.27002,0.272949,0.947754
65260200955,-0.217773,0.29248,0.930176
65260224791,-0.152832,0.307617,0.918945
65260238307,-0.0664062,0.30957,0.902832
65260260956,0.0136719,0.337402,0.892578
65260277333,0.0673828,0.389648,0.878906
65260298304,0.103027,0.37793,0.865234
65260320914,0.117188,0.323242,0.846191
65260337242,0.143555,0.310547,0.815918
65260358233,0.245605,0.337891,0.805176
65260380771,0.352051,0.359375,0.836914
65260397274,0.364258,0.331543,0.826172
65260418369,0.327637,0.284668,0.812012
65260440779,0.338867,0.301758,0.782715
65260457248,0.427734,0.326172,0.751953
65260478346,0.481445,0.328125,0.712402
65260500824,0.473633,0.316406,0.685547
65260516548,0.475098,0.29541,0.676758
65260538336,0.504883,0.260742,0.643066
65260560875,0.547363,0.246582,0.60791
65260576624,0.566895,0.262207,0.595703
65260598284,0.604004,0.26123,0.572754
65260620859,0.657227,0.253418,0.569336
65260636648,0.638672,0.244141,0.539062
65260667258,0.601074,0.229004,0.507324
65260680912,0.666504,0.223145,0.512207
65260696635,0.76709,0.229004,0.498047
65260719757,0.783691,0.257812,0.475586
65260740890,0.713867,0.283203,0.464355
65260756671,0.69873,0.254883,0.467773
65260779860,0.743164,0.229004,0.481445
65260800994,0.767578,0.219727,0.473145
65260816629,0.760742,0.209961,0.467773
65260840245,0.733398,0.220703,0.456055
65260861030,0.757812,0.226562,0.470215
65260876897,0.820801,0.226562,0.475586
65260901296,0.845703,0.226562,0.461426
65260920812,0.818848,0.233887,0.452148
65260943335,0.793457,0.226562,0.444336
65260959763,0.811523,0.210449,0.45459
65260980873,0.857422,0.202148,0.453125
65260996638,0.844727,0.211426,0.439941
65261019773,0.790527,0.220703,0.428711
65261040951,0.767578,0.21582,0.433105
65261056674,0.79541,0.210449,0.426758
65261079816,0.818848,0.206055,0.428223
65261101021,0.822266,0.212402,0.416016
65261116703,0.825195,0.218262,0.416992
65261139856,0.834473,0.225098,0.425293
65261161091,0.852539,0.241699,0.426758
65261176658,0.84668,0.240723,0.437012
65261199820,0.818359,0.249023,0.445312
65261220998,0.796875,0.250977,0.446289
65261236604,0.790527,0.23584,0.45752
65261259802,0.781738,0.227539,0.452148
65261288522,0.762695,0.218262,0.458984
65261296644,0.753906,0.224609,0.463867
65261327237,0.757324,0.233398,0.449707
65261340523,0.76709,0.226562,0.462402
65261356596,0.758301,0.228027,0.472168
65261379107,0.752441,0.228027,0.477539
65261400838,0.755371,0.23291,0.48877
65261416597,0.770508,0.237793,0.507812
65261439584,0.77002,0.23877,0.522949
65261461021,0.741699,0.246582,0.521484
65261476762,0.716309,0.252441,0.538086
65261499086,0.729004,0.243652,0.558594
65261520950,0.73584,0.241699,0.574707
65261536644,0.73291,0.246094,0.584961
65261559154,0.688477,0.26709,0.581543
65261580932,0.623535,0.287109,0.577148
65261596639,0.606934,0.297852,0.595703
65261619238,0.631836,0.295898,0.607422
65261642441,0.608398,0.284668,0.623047
65261656724,0.541504,0.284668,0.634277
65261679204,0.537598,0.299316,0.674805
65261702266,0.577637,0.309082,0.688965
65261716636,0.546387,0.317871,0.686035
65261739225,0.4375,0.363281,0.680664
65261762336,0.350098,0.378906,0.705078
65261776692,0.35791,0.348633,0.759277
65261799111,0.376953,0.356445,0.763184
65261822314,0.332031,0.392578,0.759766
65261836666,0.255859,0.437988,0.752441
65261859154,0.198242,0.452148,0.788086
65261889870,0.177734,0.413574,0.820801
65261903452,0.197754,0.385742,0.84375
65261919268,0.15918,0.41748,0.821777
65261942327,0.0722656,0.452148,0.797363
65261963448,-0.0185547,0.484375,0.850098
65261979210,-0.0292969,0.451172,0.90332
65262002252,-0.0273438,0.435547,0.909668
65262023459,-0.103516,0.477539,0.884766
65262039266,-0.18457,0.502441,0.856445
65262062304,-0.246582,0.483887,0.86377
65262083401,-0.261719,0.459473,0.881836
65262099190,-0.278809,0.458984,0.872559
65262122312,-0.32373,0.441406,0.851562
65262143613,-0.41748,0.411133,0.817383
65262159223,-0.512207,0.393555,0.802246
65262182314,-0.5625,0.4375,0.789551
65262203558,-0.552246,0.47168,0.795898
65262219206,-0.571777,0.475098,0.783691
65262242267,-0.649902,0.402832,0.756836
65262263432,-0.730957,0.351074,0.714844
65262279191,-0.774414,0.382324,0.713867
65262302299,-0.785156,0.464844,0.711426
65262323277,-0.816406,0.502441,0.67627
65262339164,-0.868652,0.436523,0.648926
65262361676,-0.887695,0.371582,0.638672
65262383391,-0.899414,0.336914,0.630371
65262399190,-0.926758,0.317383,0.599121
65262421679,-0.96582,0.293457,0.555664
65262443566,-0.96582,0.288086,0.55127
65262459219,-0.93457,0.285156,0.544922
65262481647,-0.929199,0.26709,0.526855
65262503404,-0.943359,0.23584,0.511719
65262527233,-0.949219,0.21582,0.493164
65262541644,-0.942871,0.227051,0.482422
65262564809,-0.929688,0.22998,0.475098
65262579147,-0.934082,0.213379,0.465332
65262601627,-0.937988,0.207031,0.457031
65262624767,-0.940918,0.20166,0.453613
65262639134,-0.955078,0.210938,0.4375
65262661690,-0.954102,0.222168,0.441406
65262684887,-0.944824,0.225586,0.450684
65262699153,-0.935059,0.21875,0.462891
65262721739,-0.95166,0.212891,0.468262
65262744804,-0.955566,0.212402,0.453125
65262759242,-0.966309,0.223145,0.437988
65262781605,-0.973145,0.225586,0.426758
65262804889,-0.96582,0.216797,0.421875
65262826120,-0.955566,0.213379,0.421875
65262841763,-0.941895,0.224121,0.425293
65262864816,-0.928223,0.231445,0.438477
65262886047,-0.929688,0.227051,0.441406
65262901595,-0.941895,0.231445,0.449707
65262915200,-0.94873,0.233398,0.479492
65262937823,-0.937012,0.240723,0.498535
65262960860,-0.935547,0.26709,0.510742
65262975215,-0.940918,0.287109,0.514648
65262997667,-0.941895,0.309082,0.543457
65263020920,-0.922363,0.304199,0.599609
65263035229,-0.895996,0.274414,0.645508
65263057928,-0.876953,0.263672,0.648926
65263080907,-0.862305,0.292969,0.647461
65263095429,-0.847168,0.303223,0.677246
65263117898,-0.842285,0.300781,0.724121
65263141509,-0.834961,0.292969,0.736328
65263156462,-0.802734,0.329102,0.728027
65263177932,-0.77832,0.361328,0.75
65263201079,-0.761719,0.329102,0.79248
65263215220,-0.746582,0.282227,0.827148
65263237684,-0.741211,0.291016,0.829102
65263260907,-0.713867,0.299805,0.832031
65263275218,-0.677734,0.298828,0.847656
65263297720,-0.634766,0.265625,0.888672
65263320907,-0.593262,0.231445,0.92627
65263335183,-0.541992,0.217285,0.933105
65263357694,-0.473633,0.233887,0.924316
65263380909,-0.420898,0.27832,0.905273
65263395216,-0.360352,0.306641,0.910645
65263419125,-0.271484,0.319336,0.939453
65263448182,-0.180176,0.284668,0.942871
65263458220,-0.145508,0.29248,0.910645
65263477883,-0.123535,0.330078,0.893066
65263500946,-0.0698242,0.34375,0.899414
65263515266,0.0273438,0.317871,0.913574
65263537904,0.0878906,0.293945,0.909668
65263561085,0.0898438,0.321777,0.880371
65263575404,0.0668945,0.345703,0.84375
65263597737,0.0966797,0.340332,0.833008
65263621018,0.152832,0.331055,0.813965
65263635390,0.189453,0.318848,0.811035
65263657887,0.191406,0.291992,0.775391
65263680916,0.226562,0.238281,0.740234
65263695414,0.280273,0.228516,0.695801
65263717902,0.358887,0.239746,0.676758
65263741087,0.431152,0.303223,0.66748
65263755225,0.48877,0.321289,0.660645
65263777809,0.522949,0.291504,0.649414
65263801094,0.529785,0.246094,0.646484
65263815342,0.549316,0.224609,0.664551
65263837890,0.59668,0.26123,0.663086
65263861081,0.617676,0.287109,0.641602
65263875444,0.621582,0.300781,0.637207
65263897825,0.627441,0.277832,0.652832
65263921021,0.635254,0.228516,0.664062
65263935251,0.672852,0.204102,0.662109
65263957756,0.712891,0.222656,0.643066
65263980942,0.704102,0.26416,0.619141
65263995315,0.652832,0.288574,0.59082
65264017893,0.654785,0.27832,0.602051
65264041003,0.674316,0.259766,0.61377
65264055254,0.671875,0.25293,0.615234
65264077946,0.673828,0.241211,0.61084
65264092980,0.664062,0.236816,0.610352
65264115302,0.652344,0.238281,0.611328
65264137752,0.685547,0.262695,0.624512
65264152923,0.717773,0.281738,0.628418
65264175422,0.71582,0.283691,0.631836
65264197836,0.714355,0.276855,0.634277
65264212791,0.720215,0.270508,0.639648
65264236526,0.73584,0.275391,0.638184
65264265924,0.727539,0.282227,0.638672
65264274202,0.711914,0.278809,0.635254
65264295213,0.699219,0.275879,0.620605
65264317757,0.694824,0.279297,0.624023
65264334138,0.70752,0.266113,0.628906
65264355260,0.706543,0.255371,0.625
65264377727,0.69043,0.262207,0.621094
65264394169,0.687988,0.26123,0.623047
65264415289,0.705078,0.254395,0.632324
65264437723,0.710938,0.253906,0.62793
65264454195,0.708008,0.263672,0.628418
65264475394,0.692871,0.270508,0.619141
65264499258,0.688965,0.270508,0.622559
65264514147,0.72168,0.264648,0.63623
65264535358,0.741699,0.260254,0.641602
65264557936,0.714355,0.264648,0.625488
65264574288,0.685059,0.276855,0.615723
65264595409,0.686035,0.275391,0.619629
65264617954,0.683105,0.274902,0.62793
65264634238,0.684082,0.273926,0.621582
65264655322,0.666504,0.270996,0.618164
65264677733,0.644531,0.26709,0.611816
65264694176,0.63623,0.260254,0.61084
65264715253,0.637207,0.265137,0.610352
65264737919,0.632324,0.269531,0.605957
65264760252,0.599121,0.274414,0.595215
65264775248,0.55957,0.282715,0.580078
65264797845,0.508789,0.299805,0.580078
65264820366,0.492188,0.308105,0.584961
65264835301,0.524414,0.30127,0.628906
65264857828,0.563477,0.285156,0.647461
65264880509,0.554199,0.275879,0.655762
65264895381,0.48877,0.284668,0.65332
65264917964,0.438477,0.280762,0.676758
65264940414,0.458008,0.280273,0.73877
65264955401,0.490723,0.286621,0.783691
65264977933,0.484375,0.304199,0.779297
65265000366,0.424316,0.336426,0.781738
65265015311,0.341309,0.333008,0.76709
65265037765,0.295898,0.303711,0.796875
65265060407,0.290039,0.281738,0.84082
65265075433,0.293457,0.294434,0.870605
65265099208,0.260254,0.335938,0.85498
65265120463,0.186523,0.359863,0.838867
65265138168,0.0922852,0.339355,0.834473
65265157859,-0.00634766,0.325684,0.82959
65265180254,-0.00976562,0.319824,0.907227
65265195212,0.0444336,0.324219,0.915527
65265217826,0.0126953,0.402344,0.886719
65265248468,-0.114258,0.466309,0.869141
65265256769,-0.212891,0.412109,0.867676
65265277792,-0.237305,0.335938,0.886719
65265300277,-0.281738,0.339844,0.869629
65265316794,-0.337402,0.410156,0.834961
65265337958,-0.409668,0.473633,0.856445
65265360289,-0.494141,0.449219,0.880371
65265384877,-0.566895,0.38623,0.871582
65265397898,-0.669434,0.331543,0.82959
65265420398,-0.758789,0.333008,0.796387
65265436775,-0.737305,0.415039,0.787109
65265457953,-0.678223,0.439941,0.817383
65265480432,-0.706055,0.385742,0.805176
65265496737,-0.783203,0.304688,0.77832
65265517880,-0.792969,0.293945,0.745117
65265540303,-0.779785,0.289551,0.692871
65265556684,-0.817871,0.275879,0.648438
65265577700,-0.875488,0.273926,0.61377
65265600262,-0.895508,0.285156,0.614258
65265616691,-0.90918,0.290527,0.592285
65265637752,-0.92334,0.279785,0.570312
65265660245,-0.936035,0.258301,0.545898
65265676666,-0.966797,0.22998,0.512695
65265697778,-0.990723,0.197266,0.499023
65265720422,-1,0.186523,0.495117
65265736667,-0.999512,0.202148,0.489746
65265757950,-0.978516,0.220215,0.479492
65265780408,-0.951172,0.220215,0.479492
65265796681,-0.930664,0.19873,0.474609
65265817822,-0.918945,0.163574,0.468262
65265840304,-0.927246,0.165039,0.458008
65265856801,-0.918945,0.177246,0.447754
65265877962,-0.907227,0.195312,0.4375
65265900336,-0.924316,0.206055,0.425781
65265916748,-0.947754,0.193359,0.422363
65265939274,-0.955078,0.185059,0.422852
65265954318,-0.960449,0.20166,0.428711
65265976767,-0.977051,0.211426,0.428711
65265997848,-0.980469,0.211914,0.4375
65266020301,-0.98584,0.201172,0.45752
65266036766,-0.967773,0.199707,0.468262
65266057932,-0.947754,0.208008,0.495605
65266089894,-0.932129,0.212402,0.524902
65266102887,-0.922363,0.205566,0.538574
65266117813,-0.921387,0.208008,0.543945
65266140458,-0.90918,0.208984,0.555664
65266156759,-0.896484,0.221191,0.563965
65266180684,-0.890625,0.219238,0.591797
65266200358,-0.881348,0.203125,0.615723
65266216704,-0.868652,0.193359,0.626953
65266239281,-0.854004,0.218262,0.629395
65266260306,-0.833496,0.251465,0.636719
65266276775,-0.82373,0.258789,0.691406
65266307422,-0.803223,0.262695,0.713379
65266320279,-0.794922,0.273926,0.72168
65266336721,-0.796387,0.271484,0.744141
65266360710,-0.790039,0.255371,0.770508
65266383225,-0.754395,0.24707,0.803223
65266396724,-0.730469,0.253906,0.81543
65266419282,-0.724609,0.271973,0.819336
65266443268,-0.709473,0.286621,0.842773
65266456687,-0.647461,0.273438,0.872559
65266479329,-0.585449,0.260254,0.886719
65266500336,-0.545898,0.258789,0.875488
65266516780,-0.508789,0.268555,0.885254
65266539239,-0.475098,0.260254,0.90332
65266560370,-0.429199,0.239258,0.904297
65266576914,-0.376953,0.262695,0.885254
65266606704,-0.330566,0.308105,0.865723
65266620474,-0.290039,0.310059,0.874512
65266635947,-0.239258,0.289551,0.899902
65266658277,-0.165039,0.279785,0.91748
65266680997,-0.0976562,0.299805,0.890625
65266696115,-0.0830078,0.33252,0.859863
65266718509,-0.0708008,0.351074,0.858887
65266741189,-0.03125,0.342773,0.87207
65266756007,0.019043,0.341309,0.853027
65266778643,0.0424805,0.353027,0.84375
65266800937,0.0522461,0.359375,0.82959
65266815947,0.0839844,0.331543,0.849609
65266838635,0.132812,0.314453,0.84668
65266861161,0.161621,0.341797,0.82959
65266876115,0.175293,0.383789,0.827637
65266898520,0.18457,0.395508,0.814941
65266921123,0.213379,0.374512,0.82959
65266936206,0.255859,0.349609,0.826172
65266958567,0.260254,0.340332,0.824219
65266981075,0.249512,0.366699,0.814941
65266996137,0.274902,0.366699,0.824707
65267018452,0.306152,0.352539,0.82373
65267040984,0.330078,0.361816,0.822266
65267055903,0.323242,0.378906,0.817383
65267078730,0.308594,0.389648,0.805664
65267101031,0.336426,0.354004,0.810059
65267117458,0.389648,0.329102,0.806641
65267138628,0.418457,0.334473,0.786133
65267161095,0.418457,0.355469,0.769043
65267175997,0.421875,0.355469,0.749023
65267198526,0.434082,0.351562,0.742188
65267221143,0.44873,0.35791,0.744141
65267236140,0.457031,0.376465,0.744629
65267258571,0.462402,0.390137,0.737305
65267281074,0.463379,0.383301,0.747559
65267297412,0.471191,0.367188,0.751465
65267318447,0.48291,0.365723,0.76123
65267334303,0.470215,0.377441,0.771484
65267357476,0.445312,0.386719,0.765625
65267378658,0.444824,0.384277,0.777344
65267394337,0.461426,0.396484,0.788086
65267417412,0.474609,0.392578,0.786621
65267438626,0.477051,0.376953,0.780762
65267454284,0.462402,0.378906,0.773926
65267477506,0.454102,0.376953,0.777832
65267498474,0.444336,0.367676,0.776367
65267514320,0.43457,0.356445,0.768555
65267537483,0.421875,0.363281,0.757812
65267558445,0.421387,0.361328,0.75
65267574255,0.39502,0.351074,0.750977
65267597247,0.37207,0.345703,0.748535
65267618941,0.36084,0.351562,0.756836
65267641144,0.369141,0.36377,0.76709
65267657494,0.362305,0.37207,0.76709
65267678627,0.338867,0.372559,0.767578
65267701135,0.312012,0.381836,0.764648
65267717434,0.289062,0.394043,0.769043
65267738547,0.293945,0.392578,0.787598
65267762808,0.305664,0.399902,0.803711
65267777473,0.310547,0.385254,0.821289
65267799318,0.275879,0.383789,0.824219
65267821007,0.244141,0.384277,0.825195
65267837411,0.200195,0.376953,0.816406
65267858464,0.164551,0.380371,0.824219
65267882430,0.165527,0.368652,0.875488
65267897414,0.178711,0.347656,0.89209
65267918459,0.146973,0.360352,0.883301
65267940930,0.0800781,0.375,0.86377
65267973051,0.0366211,0.365723,0.85498
65267978639,-0.0195312,0.36084,0.880859
65268000963,-0.0400391,0.371094,0.907715
65268017429,-0.0722656,0.403809,0.908691
65268038541,-0.105469,0.417969,0.915527
65268061052,-0.13916,0.378906,0.918945
65268076873,-0.179688,0.352539,0.93457
65268100023,-0.197266,0.355469,0.983398
65268121080,-0.203125,0.378418,0.983398
65268136737,-0.232422,0.37793,0.981445
65268158727,-0.278809,0.373047,0.947754
65268181115,-0.306152,0.353516,0.914551
65268196793,-0.306641,0.333008,0.932617
65268219931,-0.317871,0.279297,0.942383
65268241166,-0.35498,0.274414,0.966309
65268256775,-0.391602,0.308105,0.934082
65268279997,-0.410645,0.362793,0.898438
65268302416,-0.405273,0.366211,0.868164
65268316972,-0.410645,0.311523,0.891113
65268340035,-0.45166,0.247559,0.88916
65268361090,-0.492188,0.225098,0.894043
65268376759,-0.516113,0.264648,0.874023
65268399896,-0.52002,0.302246,0.851562
65268421164,-0.530273,0.29834,0.819824
65268436851,-0.567383,0.26416,0.805664
65268459776,-0.575684,0.240234,0.796875
65268488708,-0.561035,0.230469,0.812012
65268496853,-0.554199,0.21875,0.800293
65268519991,-0.590332,0.231445,0.781738
65268548522,-0.669922,0.228027,0.750977
65268556805,-0.76416,0.225586,0.72168
65268586139,-0.835449,0.233398,0.685547
65268601039,-0.868164,0.246582,0.664062
65268616851,-0.914062,0.253418,0.62207
65268640008,-0.936035,0.234375,0.601562
65268661212,-0.937988,0.208008,0.588379
65268676881,-0.939941,0.18457,0.561523
65268699934,-0.937012,0.165527,0.547852
65268721202,-0.909668,0.161133,0.55127
65268736841,-0.895508,0.166992,0.555664
65268759958,-0.873535,0.166504,0.552246
65268781450,-0.864746,0.162598,0.540039
65268796851,-0.864258,0.148438,0.526855
65268826263,-0.845215,0.157715,0.527344
65268841085,-0.836426,0.15625,0.528809
65268856803,-0.847168,0.160645,0.533691
65268880077,-0.867188,0.177734,0.546387
65268901079,-0.875,0.182617,0.541504
65268916843,-0.891113,0.168945,0.535645
65268940041,-0.89209,0.155273,0.542969
65268961052,-0.88916,0.151855,0.537109
65268976840,-0.887695,0.15625,0.535645
65268999292,-0.894043,0.153809,0.526367
65269021053,-0.896484,0.143066,0.513672
65269036788,-0.892578,0.142578,0.507812
65269059346,-0.895508,0.14209,0.498047
65269080973,-0.890625,0.14502,0.49707
65269096840,-0.890137,0.14502,0.498535
65269119390,-0.88916,0.132812,0.498535
65269141221,-0.881348,0.131348,0.494141
65269156903,-0.878906,0.120605,0.496582
65269179340,-0.869629,0.130859,0.494141
65269202467,-0.864258,0.131836,0.491211
65269216849,-0.874023,0.125488,0.495605
65269239375,-0.88623,0.122559,0.490723
65269262459,-0.894043,0.127441,0.486328
65269276858,-0.891113,0.140137,0.48584
65269299295,-0.888672,0.135254,0.484863
65269322864,-0.888184,0.130859,0.485352
65269336829,-0.888184,0.129395,0.487793
65269359332,-0.885742,0.131348,0.490723
65269382426,-0.878906,0.139648,0.493164
65269396800,-0.874512,0.14209,0.495117
65269419298,-0.87793,0.136719,0.498047
65269442494,-0.876953,0.130859,0.5
65269456789,-0.879883,0.132812,0.498047
65269479290,-0.875977,0.140625,0.495117
65269502416,-0.876953,0.140625,0.511719
65269516786,-0.875,0.135742,0.504883
65269539282,-0.876465,0.137207,0.507324
65269562515,-0.875488,0.134277,0.504883
65269576843,-0.875,0.135742,0.505371
65269599265,-0.873047,0.140137,0.516113
65269622467,-0.875977,0.136719,0.513184
65269636793,-0.875977,0.125,0.51123
65269659306,-0.875977,0.119629,0.519043
65269682533,-0.875977,0.121094,0.517578
65269703561,-0.868164,0.131348,0.529785
65269719255,-0.864746,0.133301,0.539551
65269742418,-0.856445,0.138184,0.54834
65269763572,-0.852539,0.134277,0.562012
65269779272,-0.854492,0.150879,0.597656
65269802495,-0.848633,0.165039,0.612793
65269823570,-0.844238,0.17334,0.636719
65269839302,-0.838867,0.160645,0.652832
65269862527,-0.833984,0.141602,0.67334
65269883536,-0.817383,0.135254,0.69873
65269899276,-0.807129,0.139648,0.722168
65269922543,-0.801758,0.176758,0.73877
65269943548,-0.794922,0.207031,0.755859
65269959326,-0.78418,0.20166,0.769043
65269981819,-0.778809,0.170898,0.79541
65270003573,-0.768555,0.157227,0.805664
65270019288,-0.74707,0.177246,0.81543
65270041771,-0.722168,0.203613,0.812012
65270063584,-0.70166,0.216309,0.808105
65270079293,-0.698242,0.236816,0.80127
65270101783,-0.688965,0.240234,0.836914
65270123564,-0.643555,0.219238,0.875488
65270139270,-0.607422,0.218262,0.874512
65270161795,-0.598145,0.244141,0.871582
65270184995,-0.594727,0.248047,0.865234
65270201488,-0.576172,0.208496,0.884766
65270221797,-0.521484,0.189453,0.928223
65270245394,-0.440918,0.205566,0.932617
65270259253,-0.402832,0.234375,0.921387
65270281834,-0.395996,0.246582,0.910645
65270305005,-0.375488,0.197266,0.906738
65270319290,-0.330566,0.154297,0.908203
65270341040,-0.279785,0.161133,0.910156
65270355342,-0.247559,0.193359,0.88916
65270378521,-0.237305,0.218262,0.869141
65270401023,-0.200684,0.223145,0.874023
65270415364,-0.140625,0.208008,0.888184
65270438550,-0.0961914,0.225098,0.882324
65270461091,-0.0830078,0.255859,0.867188
65270475383,-0.0712891,0.270996,0.852539
65270498541,-0.0385742,0.253418,0.859375
65270521028,0.00390625,0.241699,0.875488
65270535370,0.0380859,0.254883,0.867188
65270558546,0.0581055,0.261719,0.855957
65270581097,0.0683594,0.27832,0.845215
65270595368,0.0869141,0.277832,0.854004
65270618586,0.10498,0.274414,0.857422
65270641057,0.131348,0.261719,0.87207
65270655436,0.144043,0.28125,0.87793
65270678566,0.155273,0.308594,0.864746
65270701063,0.170898,0.307129,0.883789
65270715364,0.181641,0.286621,0.88623
65270746694,0.174805,0.283691,0.901855
65270761044,0.158691,0.316895,0.900879
65270784245,0.160156,0.338379,0.907227
65270798560,0.158203,0.338379,0.923828
65270812914,0.150879,0.321289,0.93457
65270835375,0.152344,0.333984,0.937012
65270858556,0.136719,0.350586,0.947754
65270881055,0.150391,0.345215,0.948242
65270895407,0.164551,0.333008,0.942871
65270918560,0.168457,0.320312,0.953613
65270932836,0.169434,0.319336,0.936523
65270955399,0.172363,0.317871,0.938477
65270978563,0.168457,0.311523,0.942871
65270992917,0.161133,0.309082,0.94043
65271015371,0.152832,0.306152,0.939941
65271038558,0.152832,0.303711,0.929199
65271052886,0.15625,0.300781,0.937012
65271075416,0.152344,0.294434,0.942871
65271097894,0.146484,0.29541,0.943848
65271112932,0.143066,0.284668,0.958008
65271135374,0.145508,0.284668,0.958008
65271157890,0.154785,0.289062,0.95459
65271172868,0.166504,0.307129,0.953125
65271195385,0.171875,0.296387,0.949707
65271217936,0.162598,0.291016,0.944824
65271232836,0.158691,0.288574,0.958008
65271255371,0.159668,0.29834,0.957031
65271277897,0.179199,0.296875,0.960449
65271292889,0.182617,0.291016,0.952148
65271315392,0.171387,0.279785,0.944336
65271338086,0.164551,0.283203,0.930176
65271353043,0.155273,0.286133,0.933594
65271375565,0.165527,0.287109,0.932129
65271398068,0.161621,0.287109,0.9375
65271413072,0.155762,0.280762,0.932617
65271436881,0.154785,0.27832,0.935059
65271458110,0.160156,0.280273,0.938477
65271472959,0.174316,0.276855,0.955566
65271495635,0.167969,0.272949,0.956543
65271518063,0.15625,0.276367,0.949707
65271532955,0.148926,0.274414,0.956543
65271555572,0.148926,0.274414,0.95166
65271578030,0.157715,0.27832,0.970703
65271593159,0.163086,0.289551,0.970215
65271615461,0.158691,0.28418,0.958984
65271638113,0.14502,0.283203,0.953613
65271654448,0.145508,0.276855,0.954102
65271675504,0.141113,0.286621,0.950195
65271698103,0.13916,0.293457,0.951172
65271713043,0.144043,0.302246,0.949219
65271735549,0.138184,0.302246,0.938965
65271758011,0.132812,0.310059,0.935059
65271772995,0.114258,0.319824,0.93457
65271795640,0.102539,0.32959,0.940918
65271818102,0.0883789,0.341309,0.937988
65271832884,0.090332,0.358887,0.939941
65271855487,0.09375,0.359863,0.935059
65271878092,0.0830078,0.366211,0.936035
65271901088,0.0834961,0.378418,0.939941
65271915517,0.0727539,0.388184,0.94873
65271938073,0.0649414,0.364746,0.956543
65271961234,0.050293,0.325195,0.960449
65271975439,0.0449219,0.294922,0.962402
65271997977,0.0786133,0.271973,0.971191
65272020465,0.109375,0.257812,0.976074
65272035576,0.108398,0.25,0.97168
65272058121,0.108398,0.24707,0.975098
65272080589,0.121094,0.224121,0.983887
65272095580,0.131836,0.189941,0.986816
65272117998,0.130371,0.167969,0.983887
65272141928,0.134277,0.188965,0.976074
65272156912,0.144043,0.190918,0.961426
65272178148,0.136719,0.175293,0.967285
65272200444,0.147461,0.168457,0.967773
65272215451,0.154785,0.164551,0.960449
65272238066,0.150879,0.177734,0.960449
65272260613,0.147461,0.197266,0.954102
65272275615,0.143555,0.208008,0.968262
65272297980,0.160156,0.192871,0.977051
65272321902,0.160156,0.193848,0.97998
65272335477,0.143066,0.214355,0.969727
65272358043,0.138184,0.203613,0.983887
65272380516,0.149902,0.173828,0.991211
65272395643,0.140625,0.175293,0.987793
65272417901,0.131348,0.183105,0.989258
65272441848,0.117676,0.182617,0.986816
65272455591,0.121582,0.165039,0.986328
65272478057,0.134277,0.163086,0.987305
65272500484,0.143066,0.171387,0.980957
65272515458,0.129395,0.181152,0.96875
65272538073,0.115723,0.182617,0.97168
65272560614,0.121582,0.164062,0.978516
65272575629,0.135742,0.150391,0.977539
65272599369,0.14209,0.156738,0.969727
65272620575,0.147461,0.172363,0.962891
65272643741,0.15332,0.179199,0.958984
65272658102,0.161621,0.179199,0.962402
65272680576,0.169922,0.163574,0.967773
65272695450,0.172363,0.154297,0.967285
65272717965,0.171387,0.152832,0.967285
65272740614,0.168945,0.151367,0.960938
65272755572,0.163574,0.152832,0.961426
65272778146,0.17334,0.146973,0.967773
65272800475,0.181152,0.130859,0.978027
65272816884,0.178223,0.11084,0.977051
65272838161,0.177734,0.102051,0.973633
65272860553,0.175781,0.0927734,0.984863
65272876871,0.177734,0.0927734,0.98584
65272898120,0.174316,0.0820312,0.979492
65272920614,0.164062,0.0795898,0.975586
65272936902,0.174316,0.078125,0.978027
65272957946,0.182617,0.0693359,0.976562
65272980364,0.189453,0.065918,0.978516
65272996844,0.207031,0.0483398,0.981934
65273017917,0.216309,0.0361328,0.980469
65273040529,0.199219,0.0410156,0.972656
65273058339,0.182617,0.0400391,0.974609
65273077932,0.194824,0.00634766,0.992188
65273100407,0.210449,-0.0136719,1.00098
65273116860,0.197266,-0.00732422,0.996094
65273139068,0.178223,-0.00195312,0.995605
65273160562,0.180176,-0.0385742,1.00098
65273176919,0.177734,-0.0732422,1.00928
65273198082,0.171875,-0.0629883,1.00146
65273220599,0.182129,-0.0380859,1.00195
65273236918,0.185059,-0.0390625,1.01025
65273257925,0.183105,-0.0229492,1.00635
65273280625,0.179688,0.015625,1.00439
65273296860,0.187988,0.0288086,1.01416
65273318094,0.195801,0.0078125,1.02881
65273340558,0.188477,-0.0146484,1.03662
65273356894,0.169922,-0.00341797,1.02734
65273380892,0.163086,0.0234375,1.01855
65273400448,0.163086,0.0268555,1.01416
65273416861,0.167969,0.0244141,1.01855
65273437933,0.160645,0.0288086,1.021
65273460521,0.161133,0.0458984,1.01465
65273476961,0.160156,0.0449219,1.0083
65273498078,0.151855,0.0380859,1.01074
65273520610,0.150879,0.0463867,1.01123
65273544465,0.143555,0.0615234,1.00586
65273558141,0.141602,0.0605469,1.00537
65273580536,0.138184,0.0493164,1.00879
65273596885,0.136719,0.0532227,1.01123
65273617918,0.133301,0.0649414,0.995117
65273640499,0.13916,0.059082,1.00342
65273656832,0.129395,0.0600586,1.00049
65273677929,0.118164,0.0874023,0.991699
65273700393,0.114746,0.109375,0.990234
65273716847,0.117676,0.110352,0.996094
65273739333,0.114746,0.100586,1.00146
65273760379,0.100098,0.126953,0.99707
65273776860,0.0942383,0.14209,0.981934
65273799379,0.0820312,0.158203,0.978027
65273820463,0.0668945,0.158691,0.981445
65273836888,0.0766602,0.151367,0.985352
65273859442,0.0859375,0.140137,0.987793
65273880619,0.0727539,0.164062,0.973633
65273896977,0.0620117,0.197754,0.966797
65273919394,0.0722656,0.218262,0.974609
65273936322,0.0932617,0.212402,0.978516
65273958377,0.0981445,0.200684,0.980957
65273979475,0.0864258,0.208984,0.976562
65274000495,0.0742188,0.233887,0.980469
65274016869,0.0751953,0.229004,0.982422
65274039417,0.0766602,0.205078,0.981934
65274061324,0.0639648,0.206543,0.973633
65274076156,0.0581055,0.224609,0.968262
65274098743,0.0561523,0.22998,0.958984
65274121293,0.0458984,0.222656,0.968262
65274136241,0.0219727,0.20166,0.982422
65274158735,0.00488281,0.1875,0.980957
65274181230,0.00927734,0.198242,0.96582
65274196319,0.0136719,0.250488,0.945312
65274219309,0.0224609,0.290039,0.958008
65274242591,0.0200195,0.288574,0.972168
65274256286,-0.000488281,0.28418,0.964844
65274278825,-0.0175781,0.3125,0.957031
65274301145,-0.0141602,0.331055,0.963379
65274316195,-0.00683594,0.330566,0.956055
65274338719,0.000976562,0.33252,0.953613
65274361217,0.000976562,0.358398,0.952148
65274376351,-0.00195312,0.375488,0.960449
65274398790,-0.0151367,0.366699,0.967285
65274421173,-0.0146484,0.354492,0.96582
65274436251,-0.0161133,0.35498,0.960938
65274460133,-0.0205078,0.371094,0.949219
65274481172,-0.00830078,0.374023,0.945801
65274496256,0.00732422,0.356445,0.937988
65274518774,0.0141602,0.344727,0.936035
65274541284,0.0078125,0.335938,0.930664
65274556114,0.00488281,0.321777,0.930176
65274578778,0.0180664,0.3125,0.945312
65274594460,0.0341797,0.30957,0.945312
65274616150,0.0209961,0.318848,0.942383
65274638780,0.0175781,0.301758,0.942383
65274654506,0.0102539,0.280762,0.941895
65274676238,0.00830078,0.274414,0.949707
65274698728,0.00976562,0.283203,0.94873
65274714472,0.0185547,0.300293,0.946289
65274737652,0.0214844,0.30957,0.935059
65274758816,0.00683594,0.30957,0.928223
65274774453,-0.00341797,0.308594,0.924805
65274796307,0.00634766,0.302246,0.958496
65274818769,0.0263672,0.279297,0.96582
65274834435,0.0253906,0.30127,0.96582
65274857671,0.0112305,0.326172,0.959961
65274878827,-0.00439453,0.308105,0.960449
65274894518,-0.0273438,0.29248,0.977051
65274917600,-0.0258789,0.304688,0.980469
65274938813,-0.00292969,0.306152,0.98584
65274962691,-0.0195312,0.291504,0.979492
65274977977,-0.0366211,0.287598,0.983887
65274998832,0,0.277832,0.997559
65275014428,-0.00390625,0.297363,0.991211
65275061465,-0.0209961,0.315918,0.983887
65275066127,-0.0209961,0.309082,0.984863
65275074437,-0.0322266,0.319336,0.970703
65275105024,-0.0405273,0.30957,0.972168
65275119048,-0.00488281,0.325684,0.963867
65275144733,0.0322266,0.266113,0.949219
65275165480,-0.0249023,0.299316,0.945801
65275187606,-0.170898,0.358887,0.945801
65275208606,-0.0649414,0.299316,0.962402
65275217569,0.03125,0.381348,0.939941
65275247549,0.00927734,0.313477,0.9375
65275254402,-0.0625,0.192871,0.96582
65275285035,-0.0400391,0.202637,0.979004
65275300036,-0.00976562,0.28125,0.96875
65275329423,-0.0112305,0.296875,0.962891
65275360156,-0.0136719,0.288086,0.955078
65275390759,-0.0371094,0.24707,0.963867
65275391597,-0.0390625,0.220215,0.967773
65275405550,-0.00976562,0.231934,0.977051
65275433651,-0.0170898,0.23584,0.966309
65275464729,-0.0195312,0.249023,0.963867
65275470901,-0.0131836,0.256348,0.96582
65275481515,-0.0283203,0.249512,0.980469
65275502553,-0.0273438,0.225586,0.998047
65275541399,-0.00732422,0.243652,1.00781
65275547238,0.000976562,0.288574,1.01904
65275584323,0.00439453,0.289551,1.04639
65275585075,-0.000488281,0.297363,1.05469
65275607555,0.0258789,0.301758,1.06982
65275630118,0.0585938,0.32373,1.08105
65275652540,0.0825195,0.338379,1.0791
65275674451,0.050293,0.336426,1.08984
65275720745,0.0488281,0.341309,1.09131
65275721565,0.0883789,0.354004,1.09912
65275735032,0.138672,0.379395,1.10938
65275757638,0.137207,0.393555,1.08447
65275758512,0.105957,0.399902,1.06738
65275786190,0.115723,0.394043,1.07471
65275802565,0.161621,0.408691,1.06885
65275816925,0.17041,0.432617,1.0376
65275840788,0.149902,0.419434,1.00293
65275854402,0.150879,0.392578,0.986328
65275876989,0.193359,0.404297,0.969727
65275900150,0.223145,0.417969,0.955078
65275945856,0.216309,0.419434,0.923828
65275946675,0.206543,0.422852,0.896484
65275961157,0.223145,0.430176,0.893555
65275998950,0.254883,0.431152,0.879883
65276005064,0.402344,0.457031,0.936523
65276035137,0.431641,0.47998,0.91748
65276050040,0.212891,0.425781,0.853027
65276103179,0.375977,0.473145,0.930176
65276105517,0.50293,0.46875,0.878906
65276110875,0.55957,0.466797,0.882812
65276116931,0.476562,0.464844,0.880859
65276147710,0.203125,0.438965,0.825684
65276161194,0.305664,0.41748,0.762207
65276176990,0.374023,0.42041,0.763184
65276215578,0.412109,0.427246,0.760254
65276222641,0.437012,0.42627,0.722656
65276236946,0.379883,0.414062,0.685059
65276259906,0.356934,0.415527,0.67041
65276282562,0.436035,0.41748,0.687012
65276303695,0.510742,0.402344,0.660156
65276326039,0.474121,0.408691,0.625488
65276341185,0.416992,0.448242,0.613281
65276372539,0.483398,0.464355,0.627441
65276380118,0.590332,0.465332,0.628418
65276401115,0.629395,0.476074,0.60791
65276416973,0.541992,0.477539,0.569336
65276440672,0.458496,0.473145,0.544434
65276461162,0.491699,0.467285,0.541504
65276483634,0.562988,0.453613,0.550293
65276507590,0.557129,0.455078,0.520996
65276528865,0.495605,0.452148,0.491211
65276536948,0.505371,0.449219,0.490723
65276560102,0.597168,0.459473,0.507812
65276598930,0.649902,0.437012,0.510254
65276603693,0.622559,0.419922,0.493652
65276619572,0.549316,0.404785,0.46875
65276650096,0.541992,0.415527,0.460449
65276665108,0.624512,0.443848,0.453125
65276680014,0.655273,0.430176,0.461426
65276708589,0.62793,0.412598,0.478027
65276719079,0.619141,0.411621,0.48291
65276739560,0.661133,0.427246,0.480957
65276761405,0.691895,0.433594,0.492188
65276777718,0.666992,0.431641,0.500977
65276799519,0.65332,0.449707,0.521484
65276830804,0.68457,0.458984,0.52832
65276836979,0.700684,0.455566,0.541504
65276890676,0.682617,0.464355,0.546387
65276897540,0.642578,0.467285,0.54834
65276899963,0.615234,0.457031,0.549805
65276926141,0.618652,0.446777,0.547852
65276943044,0.621582,0.44043,0.555176
65276956925,0.612305,0.432129,0.560547
65276979942,0.598633,0.433105,0.5625
65277002591,0.592773,0.429688,0.565918
65277016979,0.59668,0.429688,0.571777
65277049025,0.605957,0.43457,0.570312
65277062610,0.634277,0.441406,0.581543
65277077473,0.640625,0.442383,0.586426
65277099518,0.62207,0.436523,0.583008
65277123077,0.594727,0.433105,0.580078
65277143702,0.598145,0.419434,0.58252
65277173784,0.587891,0.408203,0.578125
65277182559,0.562988,0.398926,0.587402
65277204465,0.541992,0.404297,0.589355
65277227651,0.546875,0.424316,0.587891
65277250140,0.600098,0.433594,0.616211
65277263651,0.614746,0.409668,0.641602
65277279506,0.527832,0.399414,0.625977
65277318923,0.450195,0.411133,0.615723
65277323679,0.477539,0.418457,0.646973
65277339514,0.542969,0.418945,0.67041
65277362687,0.497559,0.40625,0.6875
65277383695,0.403809,0.415527,0.678223
65277407648,0.37207,0.431152,0.676758
65277436822,0.422852,0.413574,0.733398
65277451143,0.438477,0.378418,0.77832
65277459494,0.36377,0.380371,0.76416
65277483094,0.247559,0.400391,0.741699
65277505882,0.218262,0.417969,0.757324
65277543993,0.302734,0.424316,0.82373
65277548788,0.35791,0.388184,0.847656
65277564118,0.271484,0.371582,0.853027
65277593825,0.194824,0.372559,0.835449
65277601965,0.197266,0.382324,0.864746
65277631224,0.252441,0.382812,0.929199
65277646616,0.27002,0.351074,0.94873
65277670129,0.182617,0.361816,0.90332
65277684093,0.11377,0.40332,0.91748
65277721654,0.13623,0.340332,0.985352
65277744329,0.159668,0.211426,1.05957
65277762237,0.0996094,0.266113,1.03174
65277783188,0.0419922,0.409668,0.988281
65277784827,0.0336914,0.450684,0.970215
65277828087,0.0112305,0.339355,1.05762
65277836287,0.000976562,0.23584,1.10645
65277841176,-0.0297852,0.259766,1.08643
65277864865,-0.0556641,0.35498,1.05469
65277902522,-0.0703125,0.378418,1.06104
65277910805,-0.0878906,0.333984,1.09521
65277915568,-0.105957,0.299805,1.10693
65277946876,-0.150879,0.284668,1.07178
65277953239,-0.203125,0.276367,1.05273
65277975562,-0.206543,0.24707,1.06006
65277998831,-0.186523,0.241211,1.05469
65278020929,-0.179199,0.205078,1.06006
65278038420,-0.204102,0.166992,1.04883
65278058762,-0.243164,0.135742,1.04004
65278081420,-0.246582,0.151367,1.03467
65278135818,-0.187012,0.163086,1.08203
65278138175,-0.16748,0.177246,1.07715
65278173966,-0.20166,0.178223,1.07764
65278180706,-0.237305,0.175781,1.07129
65278183074,-0.249512,0.157227,1.04932
65278201233,-0.234375,0.147461,1.05615
65278225023,-0.205078,0.154785,1.05273
65278238702,-0.208496,0.137695,1.05225
65278253030,-0.244141,0.123047,1.03271
65278276950,-0.256348,0.119141,1.03906
65278298701,-0.250977,0.0878906,1.03418
65278314506,-0.255371,0.0795898,1.01367
65278336968,-0.242676,0.112793,0.995605
65278359854,-0.217285,0.12793,0.98584
65278381233,-0.211914,0.113281,1.00439
65278395522,-0.223145,0.0786133,1.01172
65278428292,-0.248535,0.0932617,1.00146
65278441865,-0.256836,0.135742,0.981445
65278466211,-0.255859,0.138672,0.973145
65278504001,-0.259277,0.143066,0.953613
65278548220,-0.241211,0.162598,0.950195
65278550611,-0.234375,0.181152,0.945801
65278563393,-0.212402,0.166504,0.95166
65278564223,-0.186523,0.173828,0.951172
65278575587,-0.174316,0.188965,0.934082
65278615621,-0.160645,0.188477,0.942871
65278637559,-0.163574,0.158691,0.960449
65278639970,-0.179688,0.138672,0.972168
65278658051,-0.183105,0.143066,0.96582
65278681781,-0.167969,0.141602,0.970703
65278697073,-0.165527,0.141602,0.987793
65278735614,-0.158203,0.146973,0.984375
65278757548,-0.154785,0.126953,0.995605
65278760003,-0.123047,0.125977,0.981934
65278778260,-0.0830078,0.13916,0.977539
65278793019,-0.0546875,0.133789,0.976074
65278839137,-0.043457,0.108887,0.989258
65278862228,-0.0473633,0.0996094,1.00928
65278870791,-0.0463867,0.103027,1.0249
65278883656,-0.0566406,0.10791,1.03027
65278898057,-0.0791016,0.11377,1.02246
65278922646,-0.106934,0.123535,1.00977
65278952893,-0.0932617,0.123535,1.01611
65278976551,-0.0512695,0.137207,1.0127
65278996867,-0.0449219,0.151367,1.00928
65279006645,-0.0522461,0.146484,0.995605
65279026896,-0.0717773,0.129395,0.998047
65279033055,-0.0893555,0.141113,0.990723
65279058527,-0.074707,0.167969,0.994141
65279081634,-0.0708008,0.178223,0.98877
65279110757,-0.0917969,0.169434,0.971191
65279118503,-0.097168,0.156738,0.972656
65279138114,-0.0864258,0.148438,0.974609
65279171409,-0.0732422,0.166016,0.958008
65279175604,-0.0532227,0.195801,0.9375
65279216531,-0.0488281,0.189453,0.931152
65279221413,-0.0737305,0.15625,0.937012
65279253865,-0.0888672,0.155273,0.937988
65279276484,-0.0800781,0.175293,0.944336
65279289192,-0.0957031,0.186523,0.930664
65279297036,-0.105957,0.189453,0.913086
65279327633,-0.0981445,0.190918,0.891113
65279332999,-0.0712891,0.19043,0.871094
65279364235,-0.0361328,0.196777,0.876953
65279389804,-0.0532227,0.173828,0.885742
65279395152,-0.12793,0.157715,0.887695
65279415596,-0.190918,0.179199,0.871094
65279462406,-0.226074,0.200195,0.875488
65279493414,-0.248047,0.19873,0.868164
65279495733,-0.255371,0.171875,0.876465
65279501630,-0.26123,0.132324,0.914062
65279522761,-0.284668,0.10791,0.984863
65279535564,-0.301758,0.152832,0.966309
65279558225,-0.314941,0.247559,0.921387
65279575287,-0.298828,0.229492,0.918457
65279595539,-0.285156,0.141113,0.969727
65279618133,-0.268555,0.15918,0.963379
65279634500,-0.262207,0.241211,0.908691
65279655751,-0.262207,0.257812,0.896973
65279678105,-0.26416,0.212402,0.932617
65279694604,-0.23291,0.223145,0.935547
65279715753,-0.165527,0.272949,0.994141
65279738297,-0.169922,0.232422,0.986328
65279754576,-0.246582,0.25293,1.00293
65279775787,-0.22168,0.241699,1.01465
65279798282,-0.163574,0.260254,1.02148
65279814591,-0.118164,0.295898,1.01709
65279835640,-0.0991211,0.288086,1.02637
65279858223,-0.0703125,0.230469,1.07031
65279874565,-0.0239258,0.212402,1.08105
65279895661,-0.0180664,0.262207,1.06787
65279918100,-0.00683594,0.283203,1.04639
65279934551,0.0361328,0.292969,1.01855
65279955654,0.0874023,0.30127,1.02539
65279978193,0.132812,0.283691,1.04492
65279994604,0.155762,0.249512,1.09424
65280015660,0.174805,0.201172,1.14355
65280039507,0.235352,0.164551,1.16602
65280054536,0.202148,0.180664,1.10352
65280075762,0.0263672,0.215332,1.00098
65280098256,-0.0419922,0.229492,0.958008
65280114616,0.0742188,0.209473,1.00244
65280135593,0.25,0.18457,1.01562
65280158199,0.29834,0.190918,0.980469
65280174567,0.193848,0.200195,0.902344
65280195701,0.0976562,0.210938,0.867676
65280218125,0.135742,0.215332,0.915527
65280234494,0.321289,0.20166,0.972656
65280255665,0.382812,0.223633,0.968262
65280278272,0.249512,0.262207,0.908691
65280294588,0.156738,0.288574,0.894043
65280318554,0.226074,0.277344,0.941406
65280338244,0.285645,0.291992,0.970215
65280354607,0.266113,0.352051,0.951172
65280376988,0.217285,0.369629,0.933594
65280398133,0.199219,0.352051,0.952148
65280414563,0.236328,0.328613,0.968262
65280437110,0.227051,0.325684,0.977539
65280458264,0.175781,0.335938,0.996094
65280474582,0.108398,0.360352,0.98584
65280497124,0.0546875,0.446289,0.958008
65280518121,0.0527344,0.523438,0.901855
65280534516,0.108887,0.558594,0.877441
65280557118,0.176758,0.557129,0.878906
65280578247,0.210938,0.536133,0.891602
65280594638,0.164062,0.544922,0.875488
65280617015,0.114746,0.584473,0.854004
65280638064,0.0917969,0.593262,0.832031
65280656323,0.0649414,0.594238,0.799805
65280677126,0.0200195,0.583984,0.766602
65280698348,-0.00537109,0.582031,0.739746
65280714502,0.00683594,0.599121,0.72998
65280737030,0.059082,0.594727,0.751953
65280758316,0.0893555,0.571289,0.768555
65280774586,0.0532227,0.562012,0.770996
65280796999,0.0273438,0.546875,0.759277
65280818120,0.015625,0.55127,0.785156
65280834524,0.00341797,0.557129,0.797852
65280857050,-0.0136719,0.555664,0.802246
65280878132,-0.0141602,0.574219,0.817383
65280894587,0.00439453,0.588867,0.843262
65280924565,0.019043,0.586914,0.839844
65280938285,-0.00341797,0.583496,0.855469
65280954616,-0.00439453,0.555664,0.877441
65280977083,0.0454102,0.507324,0.896973
65280998133,0.0527344,0.48584,0.905273
65281014557,0.0341797,0.467285,0.916016
65281037021,0.0361328,0.449219,0.92627
65281058244,0.0449219,0.444336,0.924805
65281074526,0.0419922,0.438965,0.911133
65281103093,0.0112305,0.42627,0.895508
65281118106,0.00146484,0.431152,0.905762
65281134548,0.0385742,0.422852,0.90332
65281163219,0.0356445,0.455078,0.88916
65281178156,0.0107422,0.469238,0.867188
65281194652,0.0078125,0.441406,0.869629
65281217043,0.0371094,0.413574,0.86377
65281238058,0.0561523,0.404785,0.884766
65281262044,0.0668945,0.399902,0.886719
65281278521,0.0463867,0.404297,0.889648
65281298149,0.0117188,0.40332,0.889648
65281314533,0.0146484,0.38623,0.901367
65281337065,0.0234375,0.368164,0.919922
65281361054,0.0209961,0.380859,0.933105
65281374616,-0.00146484,0.405273,0.927734
65281397793,-0.0195312,0.404297,0.933105
65281427670,-0.00976562,0.389648,0.928223
65281434521,-0.00439453,0.385742,0.925293
65281457091,-0.0258789,0.405762,0.908691
65281479573,-0.0395508,0.400879,0.922363
65281496069,-0.0214844,0.394043,0.919922
65281517046,-0.0136719,0.386719,0.921875
65281538961,-0.0224609,0.395996,0.921387
65281555262,-0.0439453,0.385742,0.931641
65281576425,-0.0458984,0.392578,0.9375
65281598818,-0.0283203,0.404785,0.939941
65281615298,-0.0195312,0.408203,0.945801
65281637732,-0.0439453,0.393555,0.954102
65281660283,-0.0727539,0.381348,0.958496
65281675334,-0.0898438,0.388184,0.94043
65281696457,-0.0932617,0.413086,0.921875
65281718777,-0.0805664,0.421875,0.914062
65281735227,-0.0683594,0.425293,0.912598
65281756435,-0.0600586,0.422852,0.912109
65281778896,-0.0532227,0.419922,0.914062
65281795237,-0.0483398,0.413086,0.927734
65281816471,-0.0473633,0.413574,0.92627
65281838960,-0.0561523,0.424805,0.915039
65281855242,-0.0708008,0.424805,0.921387
65281876449,-0.0708008,0.407227,0.924805
65281898979,-0.0512695,0.390137,0.927734
65281921479,-0.0410156,0.39209,0.937988
65281936234,-0.0493164,0.394531,0.935059
65281960257,-0.0698242,0.400879,0.940918
65281975669,-0.0649414,0.383789,0.949219
65281996405,-0.0400391,0.366211,0.948242
65282020220,-0.0444336,0.374512,0.945801
65282035260,-0.0566406,0.393066,0.928223
65282071992,-0.0478516,0.39209,0.937012
65282078747,-0.0512695,0.375488,0.938477
65282095186,-0.050293,0.385254,0.945312
65282131935,-0.0454102,0.381836,0.935059
65282138752,-0.0429688,0.365723,0.941895
65282162764,-0.0522461,0.360352,0.951172
65282177859,-0.0429688,0.367188,0.947266
65282198951,-0.0551758,0.368652,0.941406
65282215265,-0.0634766,0.363281,0.937012
65282237781,-0.0454102,0.358398,0.935059
65282258989,-0.0493164,0.368652,0.937012
65282274660,-0.050293,0.369141,0.925293
65282303985,-0.0512695,0.364746,0.924316
65282318848,-0.0429688,0.358887,0.93457
65282334523,-0.0292969,0.365723,0.933594
65282356351,-0.0336914,0.380859,0.93457
65282378955,-0.0454102,0.372559,0.927734
65282394615,-0.0449219,0.364746,0.934082
65282416376,-0.0327148,0.362305,0.937988
65282438922,-0.0361328,0.37207,0.931152
65282454656,-0.0351562,0.368164,0.936523
65282478271,-0.0258789,0.361816,0.941406
65282499742,-0.0327148,0.364258,0.932129
65282514624,-0.0395508,0.367188,0.933105
65282537752,-0.0415039,0.364746,0.934082
65282559022,-0.0317383,0.366211,0.940918
65282574660,-0.0283203,0.368652,0.942871
65282597852,-0.0307617,0.366211,0.941406
65282618798,-0.0507812,0.365234,0.939941
65282634599,-0.0498047,0.365234,0.940918
65282657771,-0.0371094,0.364258,0.937988
65282678809,-0.0405273,0.376465,0.935059
65282694581,-0.0390625,0.374023,0.932129
65282717778,-0.0317383,0.362793,0.928711
65282738974,-0.0410156,0.365723,0.930664
65282754623,-0.0522461,0.375977,0.930664
65282777757,-0.0424805,0.370117,0.93457
65282798934,-0.0366211,0.369141,0.937012
65282814597,-0.0322266,0.368652,0.93457
65282837749,-0.0253906,0.34668,0.949707
65282859005,-0.0180664,0.380371,0.920898
65282874662,-0.0537109,0.418457,0.936523
65282897753,-0.0405273,0.399902,0.914551
65282918837,-0.0405273,0.341309,0.952637
65282938815,-0.0615234,0.319336,0.946777
65282957820,-0.0600586,0.355469,0.948242
65282980287,-0.0405273,0.400879,0.94043
65282994581,-0.0405273,0.411133,0.935059
65283017788,-0.0390625,0.380859,0.941406
65283038998,-0.0356445,0.353516,0.931152
65283062704,-0.0351562,0.358887,0.928223
65283077841,-0.0336914,0.368164,0.937012
65283099016,-0.0229492,0.382812,0.930176
65283114649,-0.0292969,0.367676,0.931641
65283145197,-0.046875,0.345703,0.936523
65283158821,-0.0512695,0.342285,0.936035
65283174560,-0.0361328,0.350586,0.945801
65283197024,-0.0253906,0.36084,0.94043
65283218844,-0.0366211,0.365234,0.94043
65283234564,-0.0375977,0.368652,0.938477
65283257139,-0.0249023,0.355957,0.94043
65283278892,-0.012207,0.350098,0.949219
65283294693,-0.0214844,0.362793,0.95166
65283325241,-0.0405273,0.371094,0.938965
65283338836,-0.0512695,0.364258,0.932129
65283354674,-0.0385742,0.361328,0.947754
65283377072,-0.0117188,0.354492,0.944824
65283400247,-0.00488281,0.363281,0.943359
65283414694,-0.0400391,0.361816,0.935547
65283437134,-0.0517578,0.354492,0.936523
65283460256,-0.0546875,0.356445,0.930176
65283474664,-0.0449219,0.365723,0.938965
65283497105,-0.0336914,0.363281,0.936523
65283520227,-0.043457,0.370117,0.927246
65283534547,-0.0561523,0.37793,0.911621
65283557181,-0.0517578,0.369629,0.913574
65283580348,-0.0351562,0.368652,0.936523
65283594631,-0.00390625,0.371582,0.938965
65283617105,-0.0151367,0.375,0.93457
65283646312,-0.0463867,0.377441,0.925781
65283654641,-0.0527344,0.364258,0.917969
65283677052,-0.0361328,0.367188,0.937012
65283700224,-0.012207,0.37793,0.943359
65283721533,-0.00195312,0.371094,0.958984
65283737157,-0.0209961,0.364746,0.952637
65283760255,-0.0268555,0.355957,0.945312
65283774623,-0.0332031,0.355957,0.931641
65283797126,-0.0493164,0.350098,0.935059
65283820254,-0.0249023,0.331543,0.939941
65283834557,-0.00732422,0.313477,0.948242
65283857206,-0.0380859,0.330078,0.949219
65283880384,-0.0556641,0.353516,0.943359
65283901294,-0.059082,0.364746,0.941895
65283917081,-0.0463867,0.366699,0.944336
65283940327,-0.0332031,0.357422,0.941895
65283961311,-0.0444336,0.350098,0.939453
65283983848,-0.059082,0.369141,0.938477
65284000313,-0.0327148,0.371582,0.950195
65284021363,-0.0263672,0.373535,0.945312
65284037123,-0.0512695,0.376953,0.9375
65284060303,-0.0537109,0.373535,0.933105
65284088875,-0.0463867,0.368164,0.932129
65284097069,-0.0336914,0.374512,0.927246
65284120319,-0.027832,0.380371,0.918457
65284141434,-0.0322266,0.373047,0.92041
65284157172,-0.0297852,0.365723,0.924316
65284179648,-0.0200195,0.358398,0.927734
65284201394,-0.0136719,0.351562,0.943359
65284217161,-0.0253906,0.353516,0.954102
65284239677,-0.0419922,0.356445,0.939453
65284261488,-0.0415039,0.337402,0.935059
65284277134,-0.0463867,0.348145,0.942383
65284299683,-0.0458984,0.338867,0.943848
65284322874,-0.0385742,0.358398,0.945312
65284337134,-0.0424805,0.365234,0.939453
65284359646,-0.0400391,0.364258,0.93457
65284382820,-0.0375977,0.362793,0.938965
65284397133,-0.0366211,0.365234,0.930664
65284419705,-0.0371094,0.370605,0.925781
65284442835,-0.0322266,0.36377,0.924805
65284457124,-0.0219727,0.352051,0.942383
65284479600,-0.0224609,0.366211,0.933594
65284502725,-0.0395508,0.375977,0.941406
65284517088,-0.0600586,0.36377,0.929199
65284539591,-0.0571289,0.35498,0.939941
65284562770,-0.0390625,0.366699,0.937988
65284577129,-0.03125,0.379883,0.929688
65284599589,-0.0332031,0.371094,0.929199
65284628802,-0.0351562,0.352051,0.939941
65284637096,-0.0336914,0.352539,0.943848
65284659604,-0.0415039,0.362305,0.941895
65284682768,-0.0527344,0.369629,0.939941
65284697076,-0.0493164,0.367188,0.940918
65284726356,-0.0444336,0.36377,0.939941
65284742812,-0.0454102,0.367676,0.937012
65284757104,-0.0473633,0.37207,0.936523
65284779595,-0.0449219,0.373535,0.934082
65284802510,-0.0444336,0.364746,0.929688
65284817095,-0.0419922,0.361328,0.93457
65284839594,-0.0444336,0.366211,0.935547
65284862767,-0.0463867,0.361328,0.941406
65284883826,-0.050293,0.356934,0.936523
65284899589,-0.0478516,0.363281,0.940918
65284923249,-0.0454102,0.359863,0.939941
65284943841,-0.0463867,0.36377,0.936523
65284959597,-0.0458984,0.362305,0.935547
65284982757,-0.0410156,0.359863,0.938477
65285003820,-0.0380859,0.366699,0.935547
65285019591,-0.0419922,0.364258,0.939453
65285042794,-0.0483398,0.361816,0.933105
65285063862,-0.0473633,0.361816,0.942871
65285079597,-0.0390625,0.358887,0.945312
65285108821,-0.0375977,0.361816,0.946777
65285123866,-0.0449219,0.364258,0.946289
65285139607,-0.0429688,0.365234,0.939941
65285162095,-0.0449219,0.367188,0.946289
65285183843,-0.0400391,0.364746,0.937012
65285199604,-0.0405273,0.363281,0.93457
65285222074,-0.043457,0.362305,0.935547
65285243822,-0.0478516,0.353516,0.939453
65285259623,-0.0454102,0.357422,0.941406
65285273196,-0.0463867,0.357422,0.938477
65285295695,-0.0571289,0.361328,0.93457
65285318826,-0.0527344,0.365723,0.926758
65285342813,-0.0268555,0.366211,0.93457
65285355756,-0.0209961,0.350586,0.94043
65285378893,-0.0371094,0.352051,0.94043
65285393148,-0.0458984,0.365234,0.936523
65285415758,-0.050293,0.358887,0.93457
65285438857,-0.0551758,0.356445,0.939941
65285453209,-0.0551758,0.362305,0.94043
