timestamp,emg1,emg2,emg3,emg4,emg5,emg6,emg7,emg8
73346227412,-19,-14,-35,-22,1,0,1,-12
73346227412,-13,-11,-8,-7,-4,5,-1,-15
73346228217,-10,5,-11,-4,-13,0,-5,-7
73346228217,3,-9,6,5,1,-2,1,3
73346231647,13,17,-18,-37,-51,-12,-18,11
73346231647,-2,17,-2,-1,1,-24,0,-3
73346232415,-69,14,4,-1,8,-105,0,-55
73346232415,68,2,13,-7,-8,-125,14,66
73346238834,-115,43,-105,-108,-111,-117,-88,-40
73346238834,-95,-58,-28,-124,-25,59,-36,-96
73346246766,90,-78,-126,-24,-56,-93,-64,50
73346246766,32,-45,-61,77,8,68,-24,53
73346253096,-70,-99,4,116,79,81,-8,-29
73346253096,120,8,39,112,34,112,82,127
73346268186,76,-97,67,47,69,127,25,76
73346268186,-86,53,13,-80,-8,14,84,78
73346276826,-68,101,-6,-54,35,8,22,127
73346276826,-7,-22,92,65,51,-4,34,-49
73346291770,78,-31,61,58,85,35,49,-52
73346291770,98,-33,-113,-37,-44,16,-16,1
73346299236,90,-38,91,93,108,67,64,-104
73346299236,-33,51,-42,-29,-26,-28,3,-100
73346346466,30,-32,84,97,99,-2,8,51
73346346466,-24,-88,0,8,7,-44,24,63
73346347289,11,-32,4,5,7,-54,-1,57
73346347289,-18,-43,4,9,7,-53,-31,4
73346348075,-59,-26,-53,-49,-55,-59,33,-40
73346348075,-23,-7,-13,-13,-13,-53,19,-26
73346350534,-33,-7,-50,-40,-58,-44,-35,14
73346350534,-50,5,-48,-42,-54,16,48,-34
73346358625,-35,14,-28,-28,-34,-6,2,13
73346358625,-5,8,0,-2,-1,-36,-48,-20
73346365483,-79,6,-17,-15,-14,-26,-3,-39
73346365483,-29,14,-49,-44,-48,-39,22,-17
73346372956,-59,23,-7,-66,-17,-23,-12,-50
73346372956,9,3,-17,-16,-18,-14,36,-2
73346388015,-40,42,-55,-50,-57,-25,7,-72
73346388015,-60,21,-47,-35,-55,18,54,-49
73346395539,-89,-33,-11,-39,-27,30,57,-4
73346395539,9,47,18,10,20,57,15,7
73346410496,45,-48,-32,43,-9,59,-50,60
73346410496,7,-91,-7,9,-3,54,-66,79
73346418741,75,-16,-43,-21,-38,1,-30,54
73346418741,-29,30,-56,-46,-59,13,-57,26
73346425406,123,14,49,39,47,13,-4,62
73346425406,83,-15,-51,-53,-22,-13,-32,64
73346449350,69,44,-4,6,-7,29,-28,24
73346449350,-52,3,-15,-16,-14,27,28,-28
73346450962,-35,27,8,-4,1,-25,35,-29
73346450962,26,6,11,11,7,-41,-54,4
73346455560,14,0,11,-18,-23,-18,-3,12
73346455560,8,-43,-44,-19,-28,-6,-14,3
73346471999,-55,74,-70,-85,-102,3,-50,23
73346471999,-20,24,18,14,14,10,-8,-13
73346478664,-2,11,-67,-50,-58,9,1,9
73346478664,50,-2,-11,-8,10,3,-4,13
73346485535,-26,-45,-99,-68,-71,-13,1,14
73346485535,-9,-23,-12,-15,-9,-10,23,-25
73346501152,-12,-15,8,27,14,-1,20,-25
73346501152,-16,-47,33,52,-33,-12,-14,-12
73346508042,-15,-53,33,27,34,-11,11,-32
73346508042,-48,68,-5,-7,-8,-13,19,-25
73346515533,-63,-6,-5,12,10,4,5,-41
73346515533,-12,15,13,7,13,-7,17,-14
73346524475,-9,0,-25,-34,-22,-10,-8,-7
73346524475,-22,-7,12,14,2,1,-1,-28
73346538664,-10,-7,-6,0,-2,-3,-5,5
73346538664,-2,-15,-19,-26,-7,-13,-19,11
73346545513,19,-28,-49,-61,-28,-1,-6,20
73346545513,-6,-1,-15,-18,-13,0,5,-7
73346553010,15,12,-2,6,5,3,6,-3
73346553010,-23,34,8,8,10,2,2,-7
73346576571,41,4,17,25,18,10,4,-27
73346576571,57,-28,-2,-5,-5,10,-3,-3
73346584367,25,-14,6,12,10,3,11,-11
73346584367,20,-2,5,6,2,3,8,-7
73346585929,-28,0,14,29,7,0,13,-19
73346585929,-38,13,-50,-52,-32,-6,-16,16
73346598747,53,22,6,10,9,-2,-15,7
73346598747,16,-7,-16,-18,-7,-8,7,2
73346605517,36,74,20,11,21,2,-13,14
73346605517,30,30,11,12,7,-3,7,-4
73346612980,-43,-10,-15,-9,-7,4,16,-4
73346612980,-25,15,-8,-14,-2,0,8,-2
73346628009,-4,-22,27,22,15,-4,39,-39
73346628009,23,2,9,16,11,-2,14,-4
73346635516,-39,14,-31,-12,2,9,15,-7
73346635516,13,13,4,9,12,3,-7,1
73346644396,-26,-16,2,3,7,7,-9,-7
73346644396,-8,18,-8,-1,1,12,3,-10
73346658638,11,-15,-15,-18,-12,-5,-1,-8
73346658638,-12,-10,-3,0,-6,7,18,-10
73346665486,-40,-5,1,0,4,7,3,-7
73346665486,0,-5,0,0,3,-9,11,17
73346672951,-7,-30,-55,-22,-17,-6,-6,18
73346672951,46,-19,0,-7,-3,7,-2,1
73346687974,45,31,0,-4,3,-1,6,-15
73346687974,-49,-25,-32,-53,-77,-28,-25,15
73346695428,-76,-23,34,41,6,7,-8,-18
73346695428,-73,26,-18,-12,-13,5,44,-32
73346711932,-14,-27,-68,-76,-105,-18,-12,23
73346711932,51,1,56,54,48,-3,16,25
73346725846,76,42,12,5,2,11,4,2
73346725846,25,57,-4,0,-3,-17,6,1
73346741780,-31,-28,-32,-35,-34,-1,-23,-11
73346741780,-40,-17,-8,5,8,19,8,-21
73346742547,-46,-14,9,1,3,2,5,-6
73346742547,-4,10,-1,-2,1,39,-10,-25
73346747974,-42,5,20,16,37,8,15,-6
73346747974,-30,2,28,19,14,4,-28,-23
73346755447,-50,-6,8,-4,0,1,16,-74
73346755447,28,-40,51,62,57,12,-30,-120
73346770430,7,2,67,69,68,18,-46,-128
73346770430,18,54,-6,-4,4,26,19,-47
73346778681,0,-23,7,3,4,10,0,-33
73346778681,8,-29,9,-15,-14,0,58,66
73346785429,-17,-6,-6,-2,1,-4,14,14
73346785429,0,-40,13,1,3,3,3,5
73346792932,24,82,3,6,4,-9,16,12
73346792932,-7,-23,-34,-26,-27,-28,-18,8
73346807978,-3,-47,15,16,17,-2,-3,27
73346807978,-9,37,0,13,13,24,10,37
73346815504,10,-12,-3,-7,-4,1,2,14
73346815504,-4,14,11,-1,4,1,-16,10
73346830483,13,20,-8,5,-1,-23,2,6
73346830483,5,-1,-22,11,13,-28,-18,2
73346838371,27,-18,20,23,57,4,23,48
73346838371,57,17,7,9,-9,-4,-18,19
73346853715,36,1,8,7,6,15,7,14
73346853715,16,-21,-5,-8,-5,-2,2,6
73346854397,47,-7,10,2,2,13,-8,3
73346854397,11,-4,-6,1,6,16,2,-9
73346867963,18,0,5,1,6,19,16,7
73346867963,-38,-29,4,0,5,11,5,-16
73346875511,-20,-5,-1,2,-7,15,-10,1
73346875511,-17,-18,-5,-4,1,14,-3,16
73346890455,5,-64,2,0,0,20,-1,-4
73346890455,-62,35,0,-4,-3,5,-1,-39
73346898695,-21,13,0,1,-5,-3,-9,-49
73346898695,-75,7,-7,-6,-4,4,-6,-21
73346913679,-17,16,8,3,7,12,7,-4
73346913679,-20,-4,1,2,4,24,7,-8
73346914435,-5,-13,-1,-1,-3,4,-2,5
73346914435,11,1,-2,-1,1,-1,-3,-5
73346927953,-23,11,2,2,1,7,3,-2
73346927953,15,27,1,-1,1,-1,3,3
73346935430,-19,39,-19,-47,-50,-12,-5,6
73346935430,-46,-5,-4,-4,-3,-4,-2,-16
73346959362,-25,13,0,-2,-2,13,2,-9
73346959362,58,-37,-2,-7,-6,9,-4,16
73346960075,-24,-30,5,7,7,0,-2,8
73346960075,-24,-21,-4,-39,-40,-11,-1,10
73346965470,-25,-9,1,-3,-1,-10,4,-11
73346965470,3,-52,-8,10,-7,-9,-26,56
73346981184,-24,-21,9,4,0,34,23,11
73346981184,-24,48,7,2,3,23,33,-31
73346987944,25,72,8,3,0,8,20,-71
73346987944,13,83,-4,-9,-10,24,9,-25
73346995502,36,1,-40,-45,-43,-8,-32,36
73346995502,-17,-38,-11,-5,-9,7,-14,-3
73347010461,-3,-3,-6,-2,-6,5,-1,-17
73347010461,7,-28,5,-27,9,16,28,-58
73347018706,-35,-19,0,-12,0,-6,-11,-55
73347018706,-31,84,-31,-41,-37,-19,-21,35
73347025465,49,104,-49,-3,-28,-47,-23,-66
73347025465,30,-100,-9,1,-11,-1,-5,36
73347041178,39,-58,0,14,9,-9,-2,-5
73347041178,33,40,-2,6,6,6,-5,-25
73347047958,47,-128,26,67,75,10,10,-32
73347047958,-32,-2,-13,-22,-30,11,-3,-3
73347055453,3,11,2,19,12,14,-5,-44
73347055453,12,-13,-8,16,17,5,-21,33
73347070453,-40,-43,-39,-86,-81,0,-39,71
73347070453,-57,2,6,-5,4,11,17,-23
73347078692,-2,-19,23,24,26,-4,6,50
73347078692,-12,-30,-8,-22,-27,-6,-6,3
73347085491,-22,31,-7,-27,-33,9,-3,57
73347085491,-13,10,-13,-3,-5,-7,-8,-1
73347109316,-45,9,-5,-14,-16,-8,2,-2
73347109316,23,-27,-5,3,1,-9,-8,-7
73347110906,9,8,12,12,11,-4,11,-6
73347110906,-5,14,-4,-2,6,-14,-12,-14
73347123727,3,-4,-13,-4,-17,-16,-15,-2
73347123727,16,-10,15,9,9,2,15,1
73347139769,106,-22,61,106,114,34,56,47
73347139769,-74,9,-57,-71,-79,-32,-36,-28
73347140527,-45,5,1,7,7,18,0,0
73347140527,-27,-21,4,3,8,6,7,-6
73347146972,-66,-4,-11,-30,-30,-22,-12,-17
73347146972,16,7,-14,-18,-20,-2,-16,7
73347161179,41,19,-11,-8,-8,-2,5,23
73347161179,21,-32,-7,-3,-11,-3,-4,21
73347176106,1,1,-13,-10,-9,5,-8,16
73347176106,17,37,15,29,26,2,13,-6
73347176876,10,23,5,-4,-1,9,15,2
73347176876,-17,-8,3,15,15,3,1,-19
73347190464,-19,-22,-22,-30,-18,1,-18,6
73347190464,2,15,3,-3,-5,-3,1,-5
73347198656,-20,-45,0,-1,1,9,2,-21
73347198656,-15,38,-26,-26,-37,-20,-22,31
73347205426,-32,40,-31,-46,-40,-7,-23,40
73347205426,4,-34,0,0,2,0,-2,16
73347229293,13,-17,1,-6,-9,-8,-10,-38
73347229293,-2,-12,14,38,38,4,12,-42
73347230876,-46,-75,2,-5,-7,-4,-3,-36
73347230876,-9,-30,7,17,16,-1,3,-22
73347235391,-3,15,13,4,9,18,7,-52
73347235391,5,-1,-25,-45,-29,1,-9,36
73347250424,17,40,2,0,-1,1,1,16
73347250424,24,-20,3,5,9,1,11,25
73347258690,62,-33,6,13,1,-8,2,39
73347258690,50,81,6,8,9,10,3,2
73347265481,20,-17,6,3,-3,-3,-1,-9
73347265481,-1,-34,-2,-1,-2,-2,0,0
73347289315,20,52,-2,1,2,8,-1,28
73347289315,-4,-61,9,14,15,11,15,-10
73347290903,-75,5,13,28,41,18,60,-21
73347290903,-28,37,7,12,9,17,5,4
73347295460,1,-14,-6,0,4,-1,-1,32
73347295460,-27,5,9,6,-6,-2,-23,-26
73347310450,-10,23,-5,-8,-15,5,-14,-2
73347310450,-10,-12,9,3,1,-2,9,-16
73347318715,-29,13,-2,5,12,2,1,-4
73347318715,21,-9,2,5,2,12,16,14
73347332993,4,-21,1,-10,-17,-14,-15,-4
73347332993,3,-2,4,5,7,3,2,0
73347341542,-2,12,-8,-15,-20,-3,-9,2
73347341542,-10,-29,2,4,4,-5,12,-7
73347356110,-13,11,-2,-2,1,2,-4,-5
73347356110,2,27,-3,-5,-2,11,-12,2
73347356866,-15,-12,-4,-7,-8,-5,-2,-12
73347356866,16,-21,-4,-9,-2,0,-3,12
73347370446,1,-4,-12,-5,0,1,-11,-3
73347370446,19,7,-4,-2,-3,-3,0,8
73347378418,-52,-22,-4,-5,-2,0,3,-36
73347378418,45,31,5,-27,-42,-25,-18,72
73347392961,17,-3,-4,-8,-12,4,-8,11
73347392961,-26,-1,-7,-8,-12,-12,-12,-38
73347401188,-16,22,-13,-18,-39,-16,-21,-13
73347401188,-53,-16,-7,3,6,5,-5,-55
73347416133,-30,6,-16,-6,-12,-12,-3,-22
73347416133,-5,1,-1,6,1,2,5,-24
73347416918,32,-2,2,8,11,16,4,57
73347416918,48,-6,-30,-74,-83,-26,91,70
73347454393,16,-11,-1,-11,-10,2,7,-7
73347454393,-22,-16,3,-1,9,-2,-12,-41
73347455979,-13,13,-53,-23,-45,-46,-66,-42
73347455979,-17,29,6,30,27,8,-11,-48
73347461814,63,6,2,5,0,-1,3,83
73347461814,16,2,-53,-27,-13,2,11,19
73347463428,-17,10,-16,10,-1,9,9,-55
73347463428,25,-10,-1,19,20,-3,-14,74
73347476566,47,-17,8,9,2,6,11,67
73347476566,-19,17,-11,-18,-52,-23,-20,-42
73347483375,23,-9,25,2,10,-3,19,16
73347483375,-50,-30,-4,6,8,10,-13,-90
73347492022,-12,35,29,-12,-9,-8,-13,-19
73347492022,37,-24,19,7,4,-9,10,63
73347498716,48,2,-8,-26,-18,0,-13,28
73347498716,-34,-13,28,23,26,19,3,-40
73347512945,1,-15,-16,-16,-13,-6,-11,-6
73347512945,-41,75,5,9,7,-14,8,-50
73347521196,-16,-17,2,-2,0,21,9,26
73347521196,24,-50,4,14,15,-5,-9,37
73347536084,-89,4,3,10,12,-2,-11,-22
73347536084,-7,12,-2,-5,-3,3,-7,-28
73347536917,27,32,13,15,16,-2,5,17
73347536917,74,-1,6,12,14,-4,5,46
73347559337,-30,13,-23,-10,-2,0,-5,-51
73347559337,8,-1,10,-4,2,-3,-6,28
73347560144,-33,-82,11,-9,9,4,6,-68
73347560144,-5,3,-4,-14,-23,-9,-1,-26
73347572922,24,-12,-15,-42,-38,-34,-52,12
73347572922,26,7,-4,-57,-59,-34,-28,1
73347581141,10,-4,5,9,12,39,12,26
73347581141,-78,104,-31,-51,-27,4,-54,-61
73347596134,-117,-121,24,51,18,47,53,6
73347596134,67,-46,8,43,35,43,28,34
73347596972,40,-8,-30,-17,-40,-34,3,80
73347596972,25,-44,-1,3,5,9,-3,93
73347610417,1,53,-40,-13,-11,-6,-12,39
73347610417,-58,-26,-6,-37,-43,-15,-25,127
73347619498,-56,4,35,21,6,-4,35,-126
73347619498,4,1,18,8,-23,1,-4,-58
73347633059,35,2,42,3,5,-3,22,-52
73347633059,-19,-39,32,55,50,34,50,-100
73347642042,-7,12,-28,-52,-50,-38,-55,-69
73347642042,-41,7,-30,-54,-41,-30,-38,63
73347655471,60,18,-2,-60,-59,-14,-40,100
73347655471,27,2,11,-13,-21,-3,-19,92
73347664455,7,20,-16,-55,-44,16,-24,46
73347664455,-23,-13,-30,-35,-37,-26,-27,-70
73347670476,-8,-10,-12,-17,-18,-8,-18,-66
73347670476,0,-29,1,-28,-37,-14,-34,-45
73347679487,-8,35,26,10,13,1,8,23
73347679487,-50,-12,11,6,0,15,4,40
73347693017,-12,8,-8,10,-51,-12,-24,29
73347693017,-13,-36,2,4,8,-2,23,-29
73347701958,2,-27,10,3,6,-11,0,6
73347701958,-12,24,-3,-3,-5,-8,-3,-104
73347738766,28,11,0,-20,-7,4,-11,-75
73347738766,29,17,-22,-11,-18,3,-7,-67
73347746953,19,-27,-4,6,-3,9,-3,-22
73347746953,3,-21,2,21,-7,4,4,-8
73347761869,-12,64,-8,3,13,11,8,-91
73347761869,2,-44,-10,-9,-10,3,-10,-49
73347763497,9,3,19,8,9,13,17,27
73347763497,4,24,10,3,-3,1,2,29
73347784867,-36,-27,11,-28,6,8,6,15
73347784867,-17,14,21,-9,76,48,43,49
73347785734,-38,-19,17,-5,3,32,-1,29
73347785734,6,-13,12,0,22,36,10,34
73347806693,11,-23,25,-2,-2,13,-3,60
73347806693,0,28,12,1,-10,-3,-10,39
73347807413,-20,3,11,4,18,6,9,24
73347807413,46,-11,12,-7,1,1,-2,45
73347814401,37,-19,-21,6,-2,3,3,17
73347814401,-8,2,-7,-3,89,16,30,7
73347815994,-4,4,-2,10,85,23,34,-14
73347815994,-29,-20,-13,5,20,8,9,-41
73347836876,50,-1,7,20,45,12,13,12
73347836876,-8,-15,-10,3,-18,-5,-9,-24
73347838467,16,-4,-10,-7,12,4,18,24
73347838467,-1,0,-4,9,38,11,18,-2
73347843007,-20,-33,-5,-15,9,4,11,-8
73347843007,13,7,-12,20,19,-6,5,41
73347858086,34,6,-10,6,60,9,17,52
73347858086,2,-23,-4,2,16,6,8,33
73347866962,18,-23,1,39,24,1,8,54
73347866962,8,15,-5,-7,2,3,0,34
73347868453,-63,1,-23,-37,-7,-8,-6,-50
73347868453,59,-24,-6,13,9,4,4,-64
73347880550,38,16,19,24,10,0,1,-48
73347880550,3,2,1,-13,1,3,1,-51
73347889563,12,0,1,-8,-12,-1,-1,-30
73347889563,29,17,-9,26,4,0,-1,-8
73347904327,11,-19,-15,3,13,4,8,18
73347904327,12,11,19,3,-1,1,-1,37
73347905958,26,53,28,21,-13,-5,-6,24
73347905958,38,-70,13,15,10,4,4,21
73347980725,12,-29,-16,-10,9,1,4,-33
73347980725,-21,21,13,-2,-4,0,-1,-29
73347982300,31,-50,-4,22,-5,-4,-6,11
73347982300,15,18,1,17,7,3,3,11
73347983080,-46,10,-2,-11,10,3,5,-11
73347983080,-12,-17,-36,-11,-5,-1,-3,-13
73347988396,33,47,-40,25,-1,-1,-1,22
73347988396,6,-3,4,21,5,1,2,5
73347989128,-22,-36,4,-4,0,0,1,-9
73347989128,-14,15,9,-28,0,1,0,-5
73347993013,24,15,-6,17,3,0,2,11
73347993013,55,-5,-9,61,0,-3,0,24
73348009527,-4,-12,12,26,-3,11,-1,5
73348009527,-94,2,2,-57,2,20,9,-7
73348015489,28,-11,-14,-6,-6,-12,-8,-21
73348015489,25,-1,-18,26,73,28,20,-18
73348024545,32,-7,7,28,-21,-24,-14,-6
73348024545,21,25,-7,3,1,-1,-2,11
73348039785,-61,-5,16,-42,2,0,-1,-4
73348039785,-5,-10,9,-4,-9,1,-3,19
73348045510,18,-17,-4,-1,6,7,3,-11
73348045510,-15,3,15,2,22,1,0,-15
73348052970,-37,4,5,-23,-2,0,0,-7
73348052970,-8,3,-6,-13,-19,-5,-14,-1
73348062056,-7,-5,-6,6,4,-3,-4,5
73348062056,11,-2,-7,10,-36,-26,-24,3
73348075596,5,5,0,1,4,-1,-2,1
73348075596,-21,-6,79,1,-13,-5,-5,-3
73348084540,-1,4,-9,6,2,2,4,-2
73348084540,-33,-2,-7,10,20,0,6,-34
73348099333,41,12,-1,21,-2,17,-3,62
73348099333,12,-14,22,-9,-13,16,15,12
73348101000,-13,6,5,7,2,6,0,-7
73348101000,9,-1,0,-6,-12,-13,-9,-15
73348113510,-10,1,-13,10,-1,-4,-2,-20
73348113510,2,-2,-25,10,-10,3,-9,0
73348121973,22,0,-9,3,-4,2,0,15
73348121973,-17,0,7,-40,1,6,1,3
73348144858,-19,0,-14,-8,0,8,-1,-13
73348144858,17,-10,-10,4,-4,0,-10,4
73348146434,-6,-5,-19,8,-22,-12,-21,6
73348146434,28,-16,0,4,-5,9,-5,-3
73348159432,4,11,-14,-6,1,-5,-4,-29
73348159432,-1,1,-29,-8,-3,12,0,-5
73348160906,-8,-15,53,-15,-7,-5,-2,-42
73348160906,-26,17,-20,-17,-1,2,1,23
73348173047,-43,8,-8,-6,-6,9,4,-6
73348173047,-83,8,-30,-20,-17,-15,-14,-61
73348181985,-44,10,-4,0,-16,-4,-2,-98
73348181985,-22,-9,-5,1,-6,8,-1,-52
73348195533,-20,2,-13,-15,-10,-4,-11,42
73348195533,-35,-1,-15,-6,0,4,1,121
73348204519,3,-22,-10,-12,1,7,7,33
73348204519,-2,-10,21,8,-13,8,4,21
73348219415,55,-13,9,8,1,0,3,60
73348219415,48,-15,10,1,-4,-2,-1,81
73348220976,46,-1,3,-5,-1,5,-1,117
73348220976,1,6,8,4,-1,-2,-2,71
73348232991,10,-5,14,-6,-1,-1,3,52
73348232991,22,-4,5,-4,-20,-10,-4,24
73348242055,53,9,9,17,22,9,6,40
73348242055,6,6,-11,-12,4,0,2,-52
73348255483,-23,-38,6,-7,6,3,5,-96
73348255483,-72,-13,-17,-66,-68,-29,-60,-128
73348264601,-3,9,-7,3,4,4,8,-58
73348264601,-11,-3,-8,4,-24,-6,-11,-13
73348279386,-25,5,-8,-16,-7,-8,-5,-40
73348279386,11,6,2,19,17,12,15,-38
73348281028,-14,-8,-4,-6,-12,-4,-2,1
73348281028,-16,-6,3,-18,-26,-18,-24,-2
73348293115,-5,13,12,0,-13,-2,-7,-6
73348293115,21,20,2,10,8,8,4,-1
73348309562,-6,7,25,-18,1,3,0,14
73348309562,16,-1,-8,9,3,3,5,1
73348324368,2,8,26,7,-2,7,14,-12
73348324368,0,10,-20,-41,-36,-27,-14,10
73348325939,-5,-2,8,4,-8,-9,-1,5
73348325939,-6,28,-25,12,-7,-16,-1,-1
73348339417,-19,-7,-2,-21,-25,-12,-29,-8
73348339417,19,0,20,19,19,0,15,8
73348340999,-25,-20,-31,-20,-10,-9,3,-16
73348340999,-7,-21,-15,-41,-65,-22,-35,4
73348353093,-11,-1,-2,0,5,1,3,0
73348353093,6,-12,6,4,0,3,2,4
73348362055,-13,-20,-15,3,-1,-1,-14,-2
73348362055,-2,0,0,30,22,2,12,4
73348375558,13,-1,12,-4,-18,-11,-8,9
73348375558,-2,18,-33,5,-15,-19,-11,-1
73348384552,10,-4,5,7,-14,-12,-2,5
73348384552,-1,13,3,3,17,15,10,5
73348399386,-26,16,2,7,-5,-5,-1,-16
73348399386,-17,-10,21,3,18,16,17,-10
73348400928,40,18,2,-8,-4,9,-6,32
73348400928,-8,8,1,-7,0,14,4,-14
73348413053,-21,-12,-28,4,6,15,9,-10
73348413053,-13,8,-23,6,0,-7,3,-9
73348422020,-18,-5,-20,-6,0,2,-1,-8
73348422020,12,-8,2,-3,6,0,9,8
73348435544,0,-5,-1,-15,-8,5,-4,0
73348435544,23,-6,9,26,9,2,9,8
73348444540,-18,-1,1,-5,-5,6,-4,-12
73348444540,9,-3,4,-6,-4,-1,-3,7
73348459471,10,13,4,10,9,16,6,2
73348459471,2,-16,-1,-13,-11,-10,-5,-1
73348460982,-12,9,1,-14,-10,-8,-7,-6
73348460982,7,-8,10,-4,5,-2,0,6
73348497571,16,-10,-1,-9,-3,3,-3,12
73348497571,-4,12,11,-4,7,21,4,-5
73348499119,-31,-1,4,8,1,8,6,-8
73348499119,38,18,5,2,2,4,2,-4
73348499924,40,6,1,1,-1,6,2,-2
73348499924,87,-7,-3,-28,-2,-8,-15,-16
73348504504,-74,-2,7,5,-5,-3,-6,-4
73348504504,-74,-13,-2,16,-1,-2,-1,11
73348519347,-82,-13,4,-12,-2,-10,-1,-7
73348519347,-77,12,10,16,7,7,6,-17
73348520968,-8,-3,-1,-5,1,-2,-3,-13
73348520968,11,6,7,2,2,-5,12,-7
73348533052,26,-60,-21,-14,-8,-5,-7,-80
73348533052,22,-45,-9,-15,1,-6,8,-119
73348542069,-22,-20,-15,-35,-31,-16,-18,-128
73348542069,22,-55,-13,-16,-5,-8,-8,65
73348555539,2,30,-35,-22,-60,-34,-36,18
73348555539,-46,24,29,-14,-5,38,4,-52
73348564510,-23,5,-19,-44,-9,-3,-9,110
73348564510,-102,-5,29,-66,-20,24,6,-75
73348579360,17,29,-7,8,22,-6,-10,-23
73348579360,56,9,21,36,-1,-8,-4,82
73348580960,84,23,24,50,31,4,25,66
73348580960,38,16,-18,19,12,-5,-11,80
73348593063,-52,-13,5,0,7,-1,4,114
73348593063,-10,-14,-12,14,9,-1,15,-46
73348602096,5,-65,69,19,-14,-9,-3,-11
73348602096,36,-96,16,6,-2,3,0,-22
73348615536,20,-57,9,1,3,-5,9,-55
73348615536,7,-13,-9,13,16,-5,4,93
73348624505,31,3,-9,-2,0,3,0,27
73348624505,49,32,9,11,4,15,-1,49
73348639399,12,3,11,10,10,2,5,14
73348639399,-17,28,37,-19,-19,-7,-12,27
73348641037,0,16,4,1,10,11,4,-42
73348641037,8,17,26,11,-1,7,-5,-80
73348653077,-4,43,-3,4,0,9,12,-76
73348653077,2,9,-5,-5,1,7,2,7
73348662054,-10,21,9,1,6,19,1,-32
73348662054,-5,15,7,13,10,6,5,-102
73348675613,-27,-15,29,-5,-6,30,-1,-33
73348675613,16,10,-8,3,2,4,-1,-27
73348684517,2,18,13,7,10,22,2,-3
73348684517,-19,-18,13,-7,-9,9,-6,5
73348699854,-4,33,33,-2,0,26,2,-14
73348699854,-22,-3,9,0,-1,4,-3,38
73348705607,-22,-4,7,-13,4,18,0,19
73348705607,7,26,-68,-3,1,-6,2,41
73348713091,5,-12,24,-1,-1,17,0,60
73348713091,-1,-12,27,1,4,27,1,48
73348721991,3,7,13,-2,0,7,0,72
73348721991,-13,9,21,-6,0,7,0,28
73348744434,8,1,-35,2,2,-4,1,79
73348744434,-3,-9,-4,8,-3,7,-3,-8
73348746019,6,-23,-13,5,2,4,2,-24
73348746019,-12,7,17,4,-1,2,-1,-58
73348775048,6,70,7,10,0,-2,0,3
73348775048,-10,-38,10,-6,0,11,0,8
73348776682,-14,0,-12,-14,1,1,0,-26
73348776682,18,-22,28,1,7,5,1,58
73348777305,14,-5,7,0,-1,-1,-1,44
73348777305,-15,-25,-41,2,-15,-14,-6,-19
73348782005,-12,21,-5,-23,-1,-1,-1,-60
73348782005,-45,-27,-12,-14,-6,2,-3,-56
73348795544,-48,-22,-4,-21,3,3,2,-55
73348795544,-2,16,3,-7,1,12,-1,-31
73348804536,-24,21,-8,-8,-1,3,-1,-21
73348804536,3,42,-34,14,1,1,1,42
73348819421,1,-44,8,-3,-3,8,-2,12
73348819421,-16,3,17,-8,1,20,0,-28
73348821062,-3,-56,-2,-1,-1,4,-1,-10
73348821062,-27,-18,-3,-12,-1,12,-1,-99
73348833069,-6,-9,-3,0,-1,1,-1,-85
73348833069,-16,36,-4,-8,0,7,0,-62
73348842126,8,93,8,9,2,28,2,-101
73348842126,10,-50,21,4,-2,20,-1,40
73348856256,-4,-39,-8,-3,-2,7,-1,46
73348856256,-12,-30,31,-10,2,6,1,56
73348863078,4,1,-27,5,0,0,-1,48
73348863078,-5,91,14,-1,-2,2,0,69
73348878735,-7,-45,-2,-5,-2,12,-1,9
73348878735,5,-15,11,0,3,12,0,71
73348885536,-31,-65,-6,-15,-4,-10,3,28
73348885536,3,20,14,8,32,14,19,-22
73348901905,-4,-52,-5,-3,1,4,2,-16
73348901905,-3,-1,9,-3,1,-9,1,35
73348903489,10,4,45,11,2,4,-1,13
73348903489,-1,-76,-1,-6,-7,-1,-3,-13
73348915561,-26,51,1,-20,0,-3,0,-74
73348915561,-70,-39,-23,-29,-41,-20,-4,-85
73348924506,-8,-39,5,-7,-4,18,-1,-59
73348924506,1,34,2,1,-8,4,-3,-5
73348938761,11,103,-4,9,2,11,3,39
73348938761,-2,-69,-21,-15,1,-3,-1,-46
73348945524,11,1,-9,-3,29,6,20,58
73348945524,-9,-44,4,-8,-6,-2,-2,-17
73348976874,-13,-60,6,-9,-1,2,-2,-9
73348976874,3,26,-1,1,10,6,2,7
73348978468,-12,-7,3,-1,-5,1,-4,-14
73348978468,-8,-1,-21,-17,-34,-23,-26,3
73349000097,-8,30,-4,-9,-4,-23,-15,18
73349000097,7,32,-42,-4,-33,-29,-30,18
73349002444,16,24,21,28,12,8,23,-14
73349002444,-20,29,-6,-10,-13,-6,-1,25
73349006192,-10,9,-13,-22,-28,-10,-12,-19
73349006192,13,13,-3,-2,4,-4,-3,20
73349006965,-20,-1,-25,-21,-22,-10,-26,88
73349006965,1,6,-2,5,3,-6,2,16
73349021926,17,-6,19,21,19,11,18,-24
73349021926,5,17,18,4,15,15,12,-32
73349023541,-27,0,-21,-28,-9,-17,-4,-44
73349023541,-5,-8,7,-2,1,-2,4,-59
73349036262,1,10,6,0,-5,4,-9,15
73349036262,-6,1,0,11,-3,2,1,-34
73349043106,0,-2,-11,-1,-24,-12,-15,-29
73349043106,1,-2,4,-2,5,4,8,-10
73349058781,-13,-8,0,-6,-8,-1,-1,2
73349058781,-11,7,2,-13,12,10,9,30
73349065570,8,-8,4,12,-10,0,0,23
73349065570,-2,-2,4,-5,-1,-1,-1,5
73349081918,9,5,8,8,2,7,5,-41
73349081918,-5,3,24,-13,0,18,-1,-53
73349083486,15,-3,-9,-26,-18,2,-8,-20
73349083486,-8,6,-1,4,-9,-4,2,1
73349096218,-4,1,10,-1,-3,7,1,24
73349096218,-4,-2,-6,-6,-1,-5,-4,14
73349103105,-21,-13,-17,-10,-21,-5,-13,3
73349103105,-79,-1,2,-71,-65,7,-37,-33
73349118809,2,-4,-2,11,-3,-3,0,18
73349118809,-1,-2,7,10,-2,5,4,9
73349125526,15,0,4,15,3,-4,-1,22
73349125526,6,2,0,12,4,-4,5,13
73349149382,-4,5,1,-3,-1,-2,-2,-3
73349149382,-15,-8,-7,-14,-7,3,-3,-7
73349150982,-16,9,-1,-7,-17,-4,-14,-4
73349150982,16,-1,6,20,15,4,4,6
73349156660,-23,-7,-13,-20,-3,-9,1,-2
73349156660,16,7,-12,15,9,-10,6,18
73349164531,3,-27,9,9,9,9,13,3
73349164531,-11,8,-6,4,8,-2,5,-1
73349178786,-10,-2,-9,2,-16,-15,-11,4
73349178786,-14,0,5,-2,-13,-1,-11,-7
73349185549,2,-4,1,-5,4,2,2,-8
73349185549,23,4,-4,7,6,0,1,0
73349201861,-18,-13,-4,-1,-2,-7,0,-2
73349201861,4,3,2,0,-5,-3,6,1
73349203486,-3,-13,4,0,0,2,3,0
73349203486,32,11,15,-3,18,16,11,17
73349216777,11,-3,3,-2,0,-1,0,3
73349216777,0,-17,7,-2,-4,-5,-2,-1
73349224558,-8,7,-6,-3,-8,-10,-4,-6
73349224558,-1,-6,-5,0,-7,1,-5,-8
73349238759,3,0,-3,-3,-6,1,-3,6
73349238759,-7,-5,-10,-1,-5,2,-2,0
73349245599,-4,4,-3,2,-14,-4,-7,0
73349245599,-5,-11,2,-3,-6,1,-3,-1
73349261945,-5,4,9,-6,-5,12,-1,-9
73349261945,7,3,-1,-2,16,-2,13,8
73349263566,0,15,4,8,1,8,3,-4
73349263566,-20,16,-15,-15,-4,-2,-2,-4
73349275610,17,4,7,19,3,5,2,2
73349275610,-5,6,-13,-4,-12,1,-10,-6
73349284532,-2,13,10,-4,1,8,1,-4
73349284532,7,-4,3,-1,0,0,2,14
73349298775,-14,2,-2,-11,-4,-5,-11,-5
73349298775,-3,-15,-4,2,-6,-22,-9,-59
73349305552,0,-5,5,-3,2,2,1,-103
73349305552,6,-2,-19,9,5,-4,1,-90
73349320981,-2,0,6,-7,-3,10,-3,-91
73349320981,11,-3,8,11,-6,5,-3,-16
73349329563,-3,-9,-5,3,4,2,-1,106
73349329563,-13,-16,-10,-9,-20,-15,-19,100
73349335486,18,3,3,18,-5,-7,0,64
73349335486,21,2,2,8,8,1,2,110
73349344576,7,-16,12,25,8,2,4,83
73349344576,6,9,11,10,0,0,1,35
73349358741,-11,1,-22,-16,-19,-18,-14,-81
73349358741,-5,6,8,-6,0,6,4,-104
73349365504,15,13,-22,-13,-6,-5,-4,-102
73349365504,4,-9,5,23,10,0,21,-31
73349381898,3,2,0,6,7,9,16,-20
73349381898,-5,-3,-2,-22,-11,9,-5,-25
73349383469,-6,-7,-25,-14,-27,-20,-17,4
73349383469,4,-2,5,-4,3,3,4,-22
73349395586,-14,-2,-6,-12,0,1,-1,14
73349395586,-3,5,-6,-12,-15,-7,1,29
73349404557,5,-6,12,0,0,9,3,-8
73349404557,-1,-3,-7,6,-9,-12,-17,-11
73349418865,2,-1,3,2,-1,4,0,24
73349418865,-32,1,-19,6,-23,-11,-24,8
73349433065,-3,2,11,17,2,1,1,-11
73349433065,-12,-6,-21,-1,-32,-13,-23,-13
73349441962,-2,-6,1,12,0,-4,-5,21
73349441962,0,1,16,-6,1,12,1,3
73349443561,1,5,-15,-14,-22,-12,-14,-4
73349443561,0,4,14,-11,0,7,-2,-3
73349455507,-8,3,-14,-9,-22,-8,-14,-4
73349455507,-5,1,-2,1,-2,1,0,-1
73349472021,-12,-1,-13,-19,-22,-6,-18,-4
73349472021,1,12,5,-3,-2,4,3,-8
73349487586,-2,-12,-10,-15,-6,-5,-6,9
73349487586,-1,5,2,9,-4,-4,-4,0
73349489183,-21,-11,-5,-11,3,-2,1,-8
73349489183,-1,-5,1,-7,2,3,0,0
73349502387,-10,-8,9,-7,0,10,3,-5
73349502387,-6,-2,-9,-1,2,-10,6,0
73349503889,-3,0,6,-8,5,9,2,-1
73349503889,-12,-1,-9,-7,-8,-6,-5,-13
73349515541,1,11,19,16,4,7,5,16
73349515541,-15,-6,-17,-9,-28,-13,-22,3
73349525239,-1,-12,8,4,-1,-1,-3,-6
73349525239,0,-15,11,3,-1,6,1,-1
73349538762,-5,-11,7,3,-9,-11,-5,-1
73349538762,0,15,7,9,1,6,0,-5
73349545563,-5,0,-4,-12,-3,-1,2,-5
73349545563,11,4,-10,0,3,-5,3,14
73349569482,1,-1,11,8,4,7,2,-3
73349569482,-12,7,-11,-5,-17,-10,-11,-7
73349570968,-5,-6,-1,15,-1,-1,-2,-1
73349570968,-14,2,-14,-5,-15,-6,-15,-4
73349575624,5,5,-7,-3,-7,-7,10,-1
73349575624,3,-18,15,-1,6,15,6,-4
73349584521,10,7,-5,-4,-19,-8,-3,12
73349584521,-4,-4,13,3,-5,10,-3,0
73349598732,12,-7,-24,-22,-35,-13,-17,9
73349598732,2,-3,6,6,0,7,9,-5
73349605621,-8,6,-9,-10,-2,7,-1,-8
73349605621,0,-2,1,1,-1,2,3,-3
73349621942,-3,-1,9,-1,4,18,2,-6
73349621942,9,-2,-3,-4,-3,-5,-6,3
73349623539,0,-6,18,9,-1,10,0,-3
73349623539,-7,4,-11,-3,-11,-10,-5,-1
73349635542,-3,11,12,6,5,11,2,0
73349635542,-2,6,-8,-5,-5,1,-2,6
73349645345,-4,3,7,7,1,-3,-3,-3
73349645345,-1,8,12,2,-5,6,-3,-6
73349658795,2,-4,-3,-3,8,-10,5,2
73349658795,-1,2,14,0,-3,11,0,1
73349665483,-10,23,-15,-2,-27,-8,-15,1
73349665483,-3,-4,-4,-8,-3,-6,8,2
73349681852,10,-13,-6,-5,-10,-1,-7,-4
73349681852,0,-6,2,4,4,-3,3,-1
73349683449,-3,-6,4,-4,1,4,0,-6
73349683449,3,5,-9,2,-1,-3,-2,-3
73349695616,-4,-2,10,3,3,7,1,1
73349695616,2,-4,-16,-3,-10,-8,-5,-1
73349704534,-1,-1,-8,-3,2,-1,2,5
73349704534,-20,-8,-18,-8,-19,-10,-15,-9
73349718806,-5,-1,-9,-2,4,-6,4,-2
73349718806,7,-3,3,-1,-1,10,0,1
73349725587,-4,-7,-9,9,7,-6,5,-2
73349725587,-9,-3,-9,0,1,4,1,2
73349741976,-11,-3,-13,1,-13,-11,-5,-4
73349741976,-7,2,13,1,-1,1,0,-3
73349743534,6,0,-13,-6,-2,-11,-1,-3
73349743534,-6,-2,7,-1,-1,4,-1,-4
73349755572,2,-3,-12,-4,2,-8,1,1
73349755572,-5,-3,5,0,0,0,2,-1
73349764508,4,2,-9,-11,-4,-6,3,0
73349764508,0,7,9,-12,-2,5,-2,0
73349810103,-21,3,-19,-1,-30,-14,-37,-4
73349810103,-2,2,1,-5,1,-2,-1,-2
73349811656,-5,-2,-7,-3,-24,-7,-20,0
73349811656,-2,-50,-3,-2,-3,-4,-5,-5
73349824348,-27,20,-10,-9,2,0,2,-4
73349824348,-7,6,-7,-4,-6,0,-7,2
73349825982,-26,1,9,-19,3,0,0,-9
73349825982,2,9,-8,8,-8,-10,-2,10
73349846867,1,-10,11,6,3,7,6,3
73349846867,1,-7,-13,3,7,-11,4,-3
73349848477,-5,2,10,-4,4,12,2,-6
73349848477,-8,6,-7,-6,-21,-5,-3,-1
73349868740,3,1,7,3,6,3,7,-1
73349868740,3,-1,-7,3,2,-5,2,0
73349875479,0,-7,4,3,2,10,1,-2
73349875479,-5,5,-15,4,-3,-4,-7,1
73349900040,0,0,15,-1,-1,9,1,3
73349900040,6,8,-3,3,4,-6,3,-3
73349902480,-6,-6,-2,-2,-2,3,-2,-3
73349902480,-12,2,-7,3,-9,-4,-5,-6
73349921885,2,-5,9,-11,2,-1,4,3
73349921885,-8,-7,-2,-1,-5,3,6,-1
73349923477,-13,5,3,-2,1,-4,2,-1
73349923477,-2,5,-2,4,-9,-4,-1,-2
73349951873,7,-5,10,-1,2,11,1,-2
73349951873,-5,1,-5,4,3,0,3,-1
73349953475,-3,3,-4,-4,-4,4,-3,0
73349953475,-7,-5,-10,-9,-18,-5,-9,-4
73349974842,1,3,4,10,-3,1,-1,0
73349974842,2,-3,-3,-3,10,-3,4,1
73349976444,-4,-6,5,-1,-1,6,-1,-4
73349976444,1,1,-1,-7,0,-4,-1,-3
73349997606,3,3,13,4,1,4,3,0
73349997606,-4,7,2,4,-2,-2,-5,-3
73349999141,-4,-3,7,-6,-2,2,-2,0
73349999141,-9,0,4,6,-3,-4,1,4
73350018073,-5,1,3,-6,0,1,3,-5
73350018073,0,-2,7,10,-4,-4,9,-1
73350027087,-16,2,-11,-5,-21,-11,-18,-3
73350027087,-6,5,10,0,0,3,2,3
73350049415,-15,7,-9,-3,9,-3,4,-3
73350049415,0,-6,5,-17,2,4,6,6
73350051040,-12,6,-21,-2,-23,-8,-11,-1
73350051040,-2,7,16,-2,2,7,1,3
73350071984,-12,-3,-5,3,-5,-9,-6,-7
73350071984,-1,-5,19,-1,-3,12,3,-3
73350073570,-3,-1,2,2,8,-3,2,1
73350073570,-5,-1,11,-5,4,7,6,0
73350093776,-17,4,-16,-6,-2,-5,-4,0
73350093776,-3,-9,4,3,-3,-1,-5,1
73350100589,-6,-10,3,6,-3,-6,-3,0
73350100589,-1,5,0,-10,11,4,5,-6
73350115533,10,-7,19,14,3,8,6,3
73350115533,7,17,-6,4,5,-1,7,0
73350126106,2,-16,13,8,3,-3,7,6
73350126106,-20,11,-7,-8,-6,-3,-14,-7
73350161892,7,-8,5,4,-2,4,1,3
73350161892,-11,-1,-24,-12,-26,-12,-22,-5
73350163469,5,11,8,2,1,11,2,2
73350163469,2,-7,-5,-1,-14,-11,-4,2
73350170016,2,6,13,4,0,5,4,-3
73350170016,-5,3,-4,2,5,0,8,-6
73350171676,-14,1,-5,-2,0,-4,2,2
73350171676,-4,-2,-2,5,-3,-4,5,0
73350190573,-7,-3,-11,-15,2,1,7,-6
73350190573,1,3,2,-12,4,-1,9,2
73350199620,-13,0,-17,6,-26,-14,-20,-1
73350199620,0,0,15,10,-1,7,0,-3
73350222744,-1,-2,-9,-1,-10,-13,-7,-4
73350222744,-4,0,8,-5,-1,0,4,-4
73350225058,8,9,-14,-12,1,-13,2,-3
73350225058,-4,0,6,-2,3,6,1,5
73350244444,-3,-3,-16,-3,-25,-4,-13,-1
73350244444,-2,2,7,5,-1,8,-2,-8
73350245986,12,-6,2,8,11,2,5,5
73350245986,-10,-12,-14,2,-4,-5,-7,3
73350265598,3,4,1,-11,5,-1,14,2
73350265598,-6,0,3,-7,5,8,7,1
73350274549,1,-4,6,-5,-1,1,11,-13
73350274549,-1,4,-9,-12,-3,-7,-2,-12
73350296882,4,1,13,12,1,6,1,3
73350296882,-7,-12,-13,6,-10,-10,-9,0
73350298486,0,-11,11,3,-1,6,1,-2
73350298486,2,-4,-9,-3,-8,-7,-6,0
73350320054,4,-15,9,8,7,8,5,0
73350320054,-13,7,-12,-4,-9,-14,-10,-3
73350322492,-5,-10,-6,3,0,-5,0,7
73350322492,-13,10,-19,-5,-14,-4,-11,-7
73350340557,-2,-25,3,0,4,-2,-2,3
73350340557,-16,8,-2,-5,6,4,2,-2
73350349540,2,-7,4,7,-5,-3,5,4
73350349540,-1,0,-10,-6,-15,-9,-11,-4
73350371939,-4,4,1,-1,-3,5,-1,-7
73350371939,-9,-8,1,-9,11,-4,5,-1
73350373578,0,15,3,3,-1,5,0,2
73350373578,4,-9,-9,-3,-2,-6,2,-4
73350394482,-4,10,15,1,6,8,4,0
73350394482,-7,-9,-4,-2,1,-5,-3,-2
73350396084,-2,-1,-2,0,0,5,2,4
73350396084,5,-6,12,7,9,1,2,5
73350416326,1,6,4,-6,1,-1,-2,-7
73350416326,-2,4,5,0,-5,7,8,3
73350423029,-3,13,1,-11,-4,3,-2,-8
73350423029,2,1,3,7,8,4,1,8
73350447633,-7,-3,-12,1,-17,-10,-18,2
73350447633,4,-1,6,-1,2,3,0,0
73350450094,-17,-5,2,-13,12,-8,2,-7
73350450094,1,1,5,8,3,1,6,-8
73350469376,3,2,-14,-14,3,-3,2,-6
73350469376,3,1,11,5,-3,12,-1,10
73350471033,4,6,-14,-8,-12,-7,3,1
73350471033,3,-1,18,-5,1,15,1,-7
73350499350,-6,4,-16,6,9,-4,6,7
73350499350,-1,-9,-1,-1,-11,-5,-13,-12
73350500959,-1,4,10,1,3,4,-2,-7
73350500959,-9,-5,-10,-2,0,-3,-7,8
73350513059,0,2,3,4,1,-2,-1,25
73350513059,-3,-1,-9,-5,-9,-3,-1,-5
73350538537,-3,-1,9,1,1,10,0,-25
73350538537,6,-5,3,-3,-15,-8,-3,23
73350544783,4,3,13,1,4,10,4,7
73350544783,6,-7,3,6,3,4,9,-8
73350551857,-21,-2,-7,0,-14,-4,-12,-28
73350551857,-4,-3,11,5,3,4,6,4
73350552672,4,-1,-16,-24,-37,-12,-11,15
73350552672,0,17,19,0,0,6,-1,4
73350553467,-2,10,13,-5,-7,-10,-5,-9
73350553467,-1,8,2,5,4,10,2,-15
73350559418,-12,5,-7,15,5,-4,4,-6
73350559418,5,-10,10,6,1,3,4,-4
73350560985,15,-14,-3,21,-1,-4,6,14
73350560985,-12,-12,-3,20,1,-9,-3,1
73350565946,-17,-5,-6,-1,-12,-7,-4,-11
73350565946,-1,-7,2,6,-1,0,-3,0
73350574374,4,-3,4,23,19,1,12,16
73350574374,-18,-3,-1,-31,-7,-12,-5,-4
73350575165,2,-4,0,2,9,-1,4,-13
73350575165,-12,-1,0,-19,17,-6,1,-1
73350575948,-3,13,-4,-8,-1,-9,4,20
73350575948,-1,-4,-10,-10,-22,5,-3,-5
73350581915,1,21,13,-16,6,-1,4,-10
73350581915,-17,1,-3,-14,2,-6,-4,0
73350583482,0,0,2,-7,-3,0,-3,5
73350583482,-3,6,-6,-9,-9,-4,1,-1
73350613203,-5,-11,12,4,5,13,1,-2
73350613203,6,-2,-14,-3,-8,-3,4,5
73350613946,-1,-7,1,-7,-4,4,-2,-4
73350613946,3,7,1,6,12,6,7,-1
73350614747,-2,0,3,0,5,8,2,-3
73350614747,5,-3,-4,14,-5,-4,4,1
73350615571,-1,10,8,-8,0,20,0,4
73350615571,4,7,5,-3,11,5,11,-6
73350620682,-8,-7,-19,-16,-37,-17,-27,-1
73350620682,-2,13,8,-5,-7,7,-4,-5
73350622285,-10,4,-15,-5,-6,-12,-1,1
73350622285,-25,-12,10,-12,0,10,-1,-12
73350623077,-20,9,-10,0,-9,-7,-10,-7
73350623077,-9,-15,3,-6,-8,1,-8,0
73350627518,23,-14,6,0,20,2,13,2
73350627518,-32,16,-16,-12,-26,-15,-24,-2
73350629134,-1,-8,19,-3,12,15,9,-6
73350629134,-6,-6,-9,-2,-9,-7,-5,2
73350629945,-9,-11,1,-3,-6,2,-3,-1
73350629945,13,-1,-4,0,14,-4,1,-3
73350641598,-4,-6,-10,-3,-9,-11,-9,1
73350641598,7,3,4,-1,1,2,-3,-2
73350650074,-18,-12,-12,-6,6,0,3,-2
73350650074,-1,-6,12,3,-2,2,-1,-1
73350650825,13,-9,-2,5,17,-2,9,-1
73350650825,-27,9,-10,-10,-5,-2,-4,-5
73350652483,3,-11,3,9,-3,-2,-10,-2
73350652483,14,-2,4,6,7,11,13,6
73350664400,-6,5,-3,-1,3,2,3,-1
73350664400,-15,3,-14,-1,-23,-5,-21,-6
73350665994,2,-8,3,-7,-8,1,-2,-2
73350665994,1,6,-9,-2,-7,-5,-2,1
73350678037,-11,-4,3,9,16,3,10,-1
73350678037,2,1,1,-1,-4,-1,-3,4
73350687068,4,-7,-6,4,-7,-4,-1,1
73350687068,-7,13,2,-3,-4,4,-2,-7
73350701664,-12,-2,-3,0,-14,-3,-1,0
73350701664,-2,1,2,8,4,3,7,10
73350708033,-6,2,-8,0,-8,-3,2,-7
73350708033,11,-4,0,0,3,-8,4,1
73350724381,-19,-2,-8,-10,-4,-8,-7,-7
73350724381,1,-6,5,-1,0,4,-7,-5
73350725973,-5,1,-16,-4,-27,-10,-13,-2
73350725973,-10,5,-1,-9,-6,7,-8,0
73350738098,4,5,11,12,2,7,13,13
73350738098,-8,-2,-19,-3,-14,-14,-1,-1
73350754550,-12,-5,3,-13,1,3,-4,-5
73350754550,0,-5,16,9,6,9,-2,-4
73350769405,-50,-24,-11,-14,-7,-6,-11,-8
73350769405,1,-5,25,-10,-2,13,-1,-16
73350771042,14,-2,0,15,10,-7,4,4
73350771042,5,11,-9,-1,0,-8,-3,29
73350791886,17,3,12,-3,5,10,3,0
73350791886,-13,8,-17,-10,-7,-10,-4,-16
73350793447,13,-7,2,-15,2,10,-1,-18
73350793447,2,3,-5,2,8,-4,4,19
73350807321,-8,9,-12,-3,-26,-9,-13,-18
73350807321,6,-5,11,-1,3,8,3,0
73350808907,1,3,0,3,-11,-6,2,33
73350808907,-5,-2,7,-11,-6,4,-4,-19
73350821712,12,-5,-4,-5,8,-6,2,4
73350821712,-1,-7,-10,13,13,-3,2,16
73350828059,-12,10,5,-19,1,5,-6,-13
73350828059,-2,6,0,-3,0,0,-5,-9
73350859920,5,9,8,19,19,7,18,-9
73350859920,-2,-17,14,23,-3,0,-9,13
73350861463,-8,-13,4,16,-18,-8,3,13
73350861463,-9,-18,-6,7,-5,1,-2,-2
73350889448,-1,-8,1,-21,-9,-5,1,-19
73350889448,6,-7,17,12,1,1,4,-45
73350899024,23,1,15,30,33,7,3,48
73350899024,-8,9,8,-24,-5,9,1,19
73350899837,-26,28,-15,-70,-32,-27,-37,6
73350899837,-12,2,-2,-15,-9,0,-7,12
73350911639,-1,-25,-14,-42,-12,-12,-11,-34
73350911639,2,-1,-6,6,3,4,0,-30
73350912366,13,-14,7,35,17,14,12,11
73350912366,9,1,-39,30,-4,-6,-4,-6
73350929077,-11,-1,19,-13,-4,2,-7,-28
73350929077,-35,-15,-11,-11,-1,-14,-15,14
73350929883,10,1,10,-16,37,12,12,13
73350929883,-9,6,-1,-14,-3,6,-3,-4
73350957587,-6,-3,5,7,3,9,-1,-9
73350957587,-4,-2,-4,-6,-5,2,-4,9
73350958375,-28,-9,3,-9,-7,-5,-18,-3
73350958375,-1,8,1,-21,-8,-5,-2,-16
73350959960,-4,-2,-6,21,-1,-3,-3,37
73350959960,2,3,8,3,-7,-1,1,-17
73350963774,10,-3,19,33,4,12,4,-6
73350963774,3,0,12,-2,3,16,1,9
73350970573,-44,3,-15,-29,-30,-13,-29,-33
73350970573,0,-2,0,-3,1,1,2,-18
73350987388,6,-12,5,12,-2,9,4,19
73350987388,-9,-5,3,-6,-4,14,-5,0
73350988966,-17,12,-4,-16,2,1,-8,9
73350988966,0,4,-12,0,-18,-12,-11,-4
73351001250,5,-10,0,10,-5,1,1,-14
73351001250,-5,15,21,-6,-5,-6,-2,-4
73351008051,5,-5,1,5,8,13,4,-3
73351008051,5,-1,-10,-12,-19,-17,-1,5
73351023737,2,5,-4,-3,-11,-2,-2,-8
73351023737,-4,0,3,1,2,-1,2,14
73351030510,-3,2,-12,-4,-25,-16,-16,-4
73351030510,-6,-1,-1,2,-5,-7,0,-6
73351047611,2,-4,11,3,-8,-1,-1,-1
73351047611,-9,-6,-4,-1,1,1,-1,2
73351049182,0,-16,-4,2,-3,-4,9,-3
73351049182,-5,-27,10,0,-2,13,-4,-7
73351069426,-28,11,-21,-3,-2,-18,-14,0
73351069426,-5,-2,-6,1,0,-9,-3,7
73351071006,-4,8,5,2,-4,3,-2,-4
73351071006,8,-50,10,16,7,18,11,-2
73351092375,7,23,5,7,4,6,7,4
73351092375,-26,7,-5,-12,-8,-5,-9,-4
73351094018,-13,3,-6,-5,-43,-17,-19,-5
73351094018,-2,18,11,5,1,-4,-2,2
73351107344,-14,-11,3,-6,-5,-2,-2,-4
73351107344,3,-6,-4,8,-15,-10,-2,0
73351137553,5,14,11,2,12,10,5,-1
73351137553,-8,-7,2,6,2,-9,-5,2
73351138288,4,-21,15,4,-9,7,-1,-2
73351138288,-17,9,-8,-3,13,-8,-6,-4
73351139935,3,-11,19,6,12,8,7,3
73351139935,-6,34,-15,-12,-23,-10,-19,-2
73351144159,3,6,-3,-8,-7,-2,3,-2
73351144159,-20,97,24,-28,-4,19,-1,-17
73351169007,5,-96,0,2,23,1,9,1
73351169007,-14,-82,4,-10,7,5,0,3
73351170635,6,-64,-4,1,2,-3,3,5
73351170635,-3,-28,-7,-13,-4,5,9,2
73351173062,-1,53,2,12,-2,10,7,-3
73351173062,1,29,-14,-20,-16,-10,-18,-7
73351190216,5,26,-4,5,-4,-3,-7,2
73351190216,16,-10,7,-1,4,4,6,1
73351190987,-6,67,10,1,0,9,-7,-3
73351190987,7,-6,11,0,7,21,4,-4
73351204520,0,38,8,-2,1,9,1,0
73351204520,-5,-3,-13,-6,-48,-20,-21,-1
73351234995,6,-34,2,6,1,1,2,2
73351234995,4,46,-15,-2,-3,-10,-3,-1
73351244018,-9,14,8,-16,-8,7,-6,-7
73351244018,8,-24,-10,3,-9,-6,-7,5
73351244782,1,-29,-10,-8,0,-7,5,4
73351244782,11,2,10,9,14,-1,19,1
73351248711,2,-17,7,3,1,4,0,0
73351248711,-10,-21,-6,-1,-14,-8,-13,1
73351249494,-1,-11,-5,0,-8,-5,-7,-6
73351249494,11,21,-7,4,-5,-7,-4,3
73351263072,-10,-1,-11,1,4,3,-2,1
73351263072,8,-2,9,6,9,5,8,2
73351270540,0,4,-7,-8,11,5,18,-4
73351270540,-7,8,3,6,-4,2,-2,-7
73351286244,14,-5,1,-8,3,2,12,1
73351286244,-17,-19,-9,-11,5,-2,-8,1
73351286987,-1,5,5,-6,-4,1,-4,5
73351286987,-4,-13,-1,-6,-5,-3,-1,-1
73351310238,-2,0,-6,-10,-6,0,0,-1
73351310238,3,-14,11,-3,11,6,4,-4
73351310992,5,-1,-1,-9,-1,-5,-4,-3
73351310992,-30,5,-17,-20,-8,-2,-15,-2
73351324543,-8,10,-1,5,-9,3,-6,-5
73351324543,-2,16,-11,0,-23,-7,-8,1
73351330550,8,-3,11,-1,-8,9,-4,-3
73351330550,3,-13,16,7,-1,4,0,0
73351346196,9,-11,2,-2,11,-6,-5,1
73351346196,-18,-1,-2,-6,-19,1,-24,-1
73351346966,-4,14,5,4,-6,6,-7,0
73351346966,-7,2,4,-2,-7,-4,-3,-5
73351362045,14,-6,12,8,-5,6,-3,6
73351362045,10,2,16,9,11,2,10,-4
73351368029,-8,3,-16,-1,-10,-6,-1,0
73351368029,1,-3,-1,0,0,11,1,5
73351383055,-19,3,-27,-8,-20,-9,-8,-5
73351383055,3,-10,-3,-6,24,9,15,0
73351405984,-8,0,-6,2,0,-4,-6,-4
73351405984,7,4,3,7,6,-3,2,-2
73351415263,-29,-2,-12,-12,-12,-5,-16,-2
73351415263,1,5,18,7,5,7,1,3
73351416025,1,6,-1,1,-10,-12,-1,-3
73351416025,-20,-4,-6,-14,4,1,-4,-3
73351422010,-2,0,10,-2,-3,-4,-4,-5
73351422010,8,-6,-1,5,11,-1,2,-1
73351444449,-27,4,-11,-14,-22,-3,-26,-4
73351444449,3,2,6,4,-7,-1,-4,3
73351446029,1,17,-3,1,-5,0,2,0
73351446029,-1,-1,2,-3,8,10,14,2
73351450544,1,-2,10,6,4,5,-2,-3
73351450544,6,3,-9,-3,-1,-7,-4,-2
73351466191,-26,2,-6,-7,-8,3,-13,-5
73351466191,1,-4,2,0,-3,2,-1,5
73351466987,-9,1,3,-2,-1,1,5,-5
73351466987,-15,-13,-7,-7,15,3,7,0
73351482034,12,-13,16,8,7,8,3,-2
73351482034,-2,-10,7,4,-6,-1,-6,-1
73351488004,-3,2,0,-3,9,-2,-2,-5
73351488004,-14,10,-3,1,-8,0,-12,3
73351503044,2,10,9,-5,3,6,4,3
73351503044,-16,-1,-11,-3,-18,-7,-10,-6
73351510544,-20,-3,-6,-4,1,-1,-8,0
73351510544,9,2,12,-2,-3,12,2,-5
73351526213,-3,-3,-1,6,-4,6,-3,2
73351526213,3,-11,7,1,16,6,11,-1
73351526991,-9,-8,0,-12,-14,-4,-16,1
73351526991,-1,3,9,2,-7,8,0,1
73351542045,-7,10,8,2,-9,-7,-2,-8
73351542045,-10,-1,-6,1,15,-2,-2,3
73351548044,8,21,10,1,4,2,3,2
73351548044,1,9,6,1,-6,0,3,3
73351563091,7,-13,-7,3,22,-7,5,8
73351563091,-3,0,-11,-9,-30,-4,-25,-7
73351570556,0,-1,-3,-3,-2,0,1,-8
73351570556,9,-7,-6,11,-16,-14,1,3
73351586193,-31,-27,-5,-14,11,-4,-5,-47
73351586193,10,1,12,6,-2,-3,1,34
73351586946,5,-18,-10,10,11,-8,17,39
73351586946,-2,-11,-10,-8,-7,-8,-1,-14
73351602017,3,-9,6,-3,-2,7,3,-7
73351602017,-5,-3,2,-4,-6,-4,-3,-28
73351608058,-5,2,-16,1,-16,-13,-20,-11
73351608058,-3,8,12,2,2,4,-4,7
73351623039,5,-1,1,0,-2,-1,5,0
73351623039,-3,6,-9,-1,-11,-8,-12,-1
73351630552,5,7,2,-4,3,10,5,4
73351630552,-10,8,1,-2,-14,-4,-9,-11
73351646864,-11,17,-16,-1,-9,-9,-20,5
73351646864,4,-12,-8,4,2,3,0,5
73351647704,13,2,-2,-2,-1,-5,4,2
73351647704,-1,-7,-11,0,-21,-4,-14,-11
73351662050,7,1,5,-2,-4,-1,2,5
73351662050,8,-6,-13,13,-9,-9,-9,6
73351692600,-8,38,-1,-3,7,1,7,-21
73351692600,12,31,22,-15,11,18,10,3
73351694192,6,-1,19,5,-5,4,2,2
73351694192,-3,14,-5,-5,-5,-2,0,-1
73351694992,-7,-8,5,-7,-5,4,-5,-9
73351694992,-8,-90,-11,7,-6,-6,-7,0
73351707063,-5,-75,-6,6,8,1,2,13
73351707063,-6,-8,8,-11,5,7,4,-9
73351713050,-2,-20,-4,7,2,-2,-1,0
73351713050,-4,-3,5,0,6,6,1,7
73351728717,-8,8,-11,-6,-20,-4,-4,2
73351728717,-11,0,-3,-3,12,-5,3,-3
73351729467,-3,8,11,-6,-7,2,-6,-9
73351729467,1,16,-8,0,2,-9,-6,-6
73351760950,-11,21,-15,-5,-17,-9,-22,0
73351760950,-3,5,12,-2,-3,14,-2,8
73351761717,-11,11,-8,-9,-27,-7,-2,-11
73351761717,-19,9,5,-3,2,5,1,-6
73351782333,3,-9,48,0,5,12,4,1
73351782333,7,-1,-9,6,-18,-6,-11,30
73351783105,-17,-7,-12,-12,-2,0,-7,-1
73351783105,1,17,4,11,-11,-2,-10,-1
73351790163,-15,14,-25,-12,-29,-16,-18,-20
73351790163,-3,2,16,-5,-2,8,1,-22
73351790991,6,-9,10,5,2,6,9,8
73351790991,-11,-18,-20,-8,-19,-13,-11,-1
73351819149,2,9,7,-4,5,14,4,1
73351819149,-12,-9,-9,-6,-15,-11,-13,-2
73351826938,5,-25,1,-4,-1,6,-7,1
73351826938,-3,-10,3,-3,2,-1,6,0
73351828514,2,2,-13,4,-18,-7,-5,3
73351828514,-5,-8,6,-5,-2,5,6,-6
73351833071,-9,-7,-6,6,-22,-7,-7,-3
73351833071,4,-3,7,-1,-2,10,-3,-2
73351865208,0,-2,4,7,0,6,11,7
73351865208,-11,10,-13,-4,-15,-7,-11,-8
73351865881,-1,13,7,3,3,11,-4,-2
73351865881,-6,-6,0,-1,-6,1,0,-1
73351867532,-17,3,-15,-10,-5,-5,-10,-1
73351867532,-5,4,13,-1,3,8,0,-9
73351870602,10,-5,5,5,12,3,5,3
73351870602,-9,5,-13,-11,-10,-8,-14,0
73351895225,4,12,14,1,7,12,3,3
73351895225,-13,-4,-1,-1,-2,1,6,-6
73351896136,-13,-13,-11,-11,17,-5,0,-2
73351896136,1,18,20,6,8,12,2,1
73351916993,12,10,-2,2,7,-6,5,-2
73351916993,-15,-8,-6,-11,-11,4,-15,-5
73351917733,3,8,17,4,-3,5,0,-4
73351917733,-5,10,-6,-4,-3,-6,0,1
73351923156,-9,2,2,-6,6,9,11,0
73351923156,1,-3,12,5,5,5,9,-3
73351930656,5,-5,-3,4,0,-5,2,2
73351930656,-16,-5,-6,-5,1,-2,-3,-5
73351945687,2,-2,4,2,-4,-1,-1,0
73351945687,0,-2,1,-1,12,-1,0,-1
73351953111,0,1,3,2,-7,5,-7,0
73351953111,0,-1,5,0,0,-3,9,3
73351969148,2,-12,-5,1,2,-8,-2,-2
73351969148,-10,-8,-1,-6,-3,-1,-8,-5
73351976308,-2,1,6,2,2,4,-3,0
73351976308,-7,-1,-13,-1,-11,-11,-4,-1
73351983148,-14,-1,-10,-5,6,-3,-4,-2
73351983148,4,5,9,6,1,1,3,-4
73351990585,5,-4,-9,5,-11,-7,-4,4
73351990585,-9,-13,-4,-6,-5,-1,-11,-1
73352005657,0,4,5,-2,-6,5,-1,-6
73352005657,7,-3,-10,3,0,-9,15,2
73352013152,-9,-8,-16,-8,-3,-8,-13,1
73352013152,6,15,13,-1,4,9,-1,-6
73352036972,0,12,3,4,-11,-3,1,2
73352036972,7,5,-8,11,1,-7,7,-1
73352037821,-17,8,-11,-11,0,0,1,-7
73352037821,5,2,-3,3,-3,-4,3,7
73352043130,-10,-24,-13,-4,-15,-14,-17,-3
73352043130,7,12,5,-4,-1,5,1,-3
73352066985,-2,6,7,4,-4,-3,7,-1
73352066985,9,-3,-3,3,15,-1,8,-2
73352068575,-10,-3,-16,-5,-15,-8,-17,0
73352068575,0,6,4,-8,3,14,-1,-2
73352073172,-3,-9,-4,1,-14,-7,-7,-4
73352073172,-14,-4,-16,-9,-18,-10,-17,-3
73352106573,11,6,17,-2,3,13,5,2
73352106573,-3,-12,3,0,-7,-3,-7,0
73352107396,5,-10,-1,1,-5,-1,1,-1
73352107396,-18,2,-10,-8,-13,-5,-13,-6
73352111259,-1,-6,12,-2,-1,8,4,-1
73352111259,-6,-2,-4,-3,-8,-1,-3,-4
73352112059,-12,2,-16,-7,-15,-11,-15,-1
73352112059,-3,-11,8,-4,2,5,4,-6
73352125688,-1,-10,-2,-1,-5,0,1,0
73352125688,-1,-4,-13,0,-5,-9,-1,-1
73352133111,-21,5,-10,-9,-10,-6,-14,-2
73352133111,3,-3,7,3,-1,6,2,2
73352171980,-9,7,-10,-3,-14,-8,-3,-2
73352171980,-24,-5,-15,-10,-12,-9,-11,-4
73352173525,2,0,8,-2,9,11,13,-1
73352173525,-4,10,2,6,-4,1,-4,-2
73352193607,3,2,-2,2,8,-3,7,1
73352193607,7,-3,3,2,9,0,3,-2
73352210315,-17,-2,-7,1,-5,-8,-11,-1
73352210315,-2,-8,-2,-10,1,3,-5,5
73352211088,-14,-1,-7,5,-9,-4,-4,-3
73352211088,-11,-1,-1,-6,11,5,4,0
73352248277,1,2,13,1,4,17,2,-3
73352248277,-1,7,5,5,-6,-2,4,-2
73352249076,1,-3,-1,-3,9,3,9,-2
73352249076,5,-4,-3,3,-3,-3,0,3
73352250698,-10,-7,-11,-8,-15,-4,-13,-1
73352250698,-1,5,1,-5,4,11,2,-6
73352263492,-2,2,3,-2,-16,-1,-7,-2
73352263492,-8,-12,-5,-5,-21,-9,-12,-6
73352265098,10,-7,6,0,17,11,16,2
73352265098,-2,-18,3,1,-2,2,0,-1
73352283821,-4,-5,8,3,12,7,9,-7
73352283821,15,4,0,1,-9,-4,-4,4
73352298147,-16,6,4,2,-10,4,-14,4
73352298147,-2,6,2,1,-3,7,-2,2
73352314453,-11,5,-1,-6,-27,-10,-8,-4
73352314453,-5,-19,-3,-9,14,3,3,0
73352316028,11,-3,13,-1,-2,9,3,-12
73352316028,0,12,1,1,0,-3,1,-6
73352321981,9,-22,0,4,12,4,2,24
73352321981,2,-17,2,-1,-6,-9,3,0
73352323538,-8,1,-6,-8,-25,-11,-12,-8
73352323538,-28,0,-9,-8,-3,-9,-7,-9
73352328752,-3,6,2,4,3,2,-2,-11
73352328752,0,21,1,0,-8,1,0,6
73352329541,-10,-17,-7,4,0,-12,-3,3
73352329541,-15,6,-11,-3,10,-1,-2,-11
73352336991,-1,2,0,-10,8,6,3,-3
73352336991,1,1,8,8,3,7,2,4
73352337738,5,7,8,4,4,1,14,4
73352337738,13,-22,0,11,7,0,12,8
73352343062,5,-24,-1,6,22,0,4,5
73352343062,-12,-48,-14,-4,-15,-4,-18,-8
73352350597,-24,39,-9,-5,-1,-3,-9,-7
73352350597,-16,31,-5,-5,-30,-11,-10,2
73352365646,-4,39,-11,-6,-25,-12,-16,-1
73352365646,-15,37,4,-5,20,4,6,-11
73352373178,19,-14,9,2,7,7,6,4
73352373178,2,-18,-3,0,-1,-2,-1,7
73352388775,-9,12,-9,1,1,1,6,-2
73352388775,13,5,3,6,4,-3,8,0
73352389527,-11,-12,-22,-5,-22,-14,-20,-2
73352389527,-5,-7,3,-3,3,10,3,-2
73352403041,-6,-3,1,-6,-7,-2,-7,-8
73352403041,-3,-7,-4,2,-11,-5,-1,6
73352410595,-7,-6,-1,3,9,-8,2,-1
73352410595,5,2,3,-3,-6,-1,-6,-3
73352425651,-9,-12,-4,2,-8,1,-7,2
73352425651,2,-2,5,-1,12,6,5,-4
73352433114,-4,-3,-11,0,-18,-8,-2,-2
73352433114,-17,-12,-7,-6,-14,-4,-16,5
73352448778,-2,-7,9,-8,0,7,1,-7
73352448778,-4,15,5,-1,-5,3,-5,2
73352449587,-4,-5,1,2,4,7,1,-3
73352449587,14,-8,5,-2,4,8,9,0
73352463139,-1,1,8,9,-6,3,-5,7
73352463139,-5,-15,1,8,-4,7,6,1
73352470624,16,0,3,2,15,0,6,2
73352470624,3,1,-5,0,-6,-8,0,-7
73352485545,-16,5,-2,-3,3,2,-10,-1
73352485545,-3,3,4,-5,1,7,1,0
73352493146,-4,-7,3,-2,-4,-7,-1,-5
73352493146,-16,-12,-15,-7,2,-8,-13,-3
73352508822,-1,-5,4,-9,3,11,6,-7
73352508822,-8,-2,2,-1,-5,1,-3,-2
73352509647,18,-10,2,3,16,2,15,5
73352509647,6,-7,-4,-2,-2,-6,-6,1
73352523154,-28,-12,-15,-6,-17,-11,-21,-3
73352523154,-17,19,-2,-9,-3,6,-6,-4
73352555159,4,9,5,2,0,8,-5,4
73352555159,-9,4,-4,-3,-11,-6,0,-2
73352556717,5,-19,-1,-2,6,2,7,-2
73352556717,-2,-6,3,-5,-5,-1,-6,-4
73352557534,-5,2,-1,-6,4,2,7,1
73352557534,8,8,-2,7,7,-2,-1,0
73352568792,-5,0,-13,-12,-27,-16,-20,-5
73352568792,-14,-5,-4,-4,-5,-1,-7,-4
73352569592,1,-2,10,-3,-1,6,-5,-2
73352569592,-11,-6,-3,0,-11,-3,-6,-4
73352583141,13,2,7,0,6,11,14,0
73352583141,0,3,7,0,-2,4,-5,-5
73352590636,1,-5,-7,-2,2,-4,-2,-5
73352590636,-4,0,0,3,-21,-2,-3,0
73352605662,-4,0,9,-1,1,9,-3,3
73352605662,0,2,-2,2,-8,0,-12,3
73352613101,-14,-18,-6,-1,-27,-5,-9,-8
73352613101,5,-2,17,-4,20,17,17,-4
73352628801,3,-3,11,9,-1,5,0,-4
73352628801,5,4,0,8,2,4,9,6
73352629559,-4,4,0,3,6,-3,4,0
73352629559,-11,-3,-6,4,-7,0,-12,1
73352643071,-2,3,12,2,3,5,0,-2
73352643071,-6,0,-8,0,-10,-6,3,4
73352650642,-16,-1,-12,-6,-15,-7,-12,1
73352650642,-7,8,1,-21,10,10,1,-9
73352665595,10,4,4,0,2,2,1,-1
73352665595,-1,0,3,-4,0,-1,-8,4
73352673136,15,4,0,-5,15,6,8,1
73352673136,-3,-11,-9,5,-5,-19,-4,0
73352688136,2,-10,-15,0,-26,-9,-18,-12
73352688136,-8,-1,-3,-3,4,-4,3,1
73352696327,4,2,7,7,0,9,-4,-2
73352696327,-7,7,-3,-2,-16,-3,-3,0
73352711396,-12,4,-10,9,5,-10,-6,1
73352711396,5,3,-2,9,-3,3,-1,-11
73352712141,-4,7,7,9,-4,-2,-2,-1
73352712141,2,-6,1,-2,5,5,11,2
73352725676,7,0,-1,-14,16,-8,9,2
73352725676,-5,-13,-12,-17,-26,-7,-16,-6
73352733107,-17,-9,-9,-16,-3,1,-1,5
73352733107,3,-1,11,6,11,2,0,-3
73352764515,10,13,0,-7,-34,-2,-15,7
73352764515,-26,12,-9,-6,-4,-6,-2,-10
73352766138,3,13,3,5,-5,1,-3,-3
73352766138,-4,12,-1,0,-5,-3,0,-17
73352786328,-2,-8,-3,5,13,-9,13,20
73352786328,3,0,0,-8,9,-2,11,2
73352794463,-20,-5,-6,-1,-22,-7,-19,4
73352794463,-5,-7,2,0,1,9,0,10
73352795242,-3,-4,-4,13,-10,-1,-11,-22
73352795242,-7,-28,-8,18,-7,-8,-5,-15
73352796054,-12,-6,0,0,25,7,10,5
73352796054,4,54,-8,-10,-3,6,-1,12
73352808154,-15,-8,6,-11,6,11,4,2
73352808154,-4,34,5,-3,6,-1,8,7
73352816359,-28,24,-14,-23,-29,-8,-5,-16
73352816359,-25,-12,-4,2,-9,-11,-15,3
73352831295,-5,17,4,-1,6,8,9,-5
73352831295,4,-8,1,-12,-9,-5,-5,-1
73352832054,-7,-4,29,-7,-36,-6,-19,-6
73352832054,3,-16,-4,-10,5,6,5,-7
73352845609,2,-23,-1,-6,-5,0,-3,3
73352845609,-3,-13,-7,4,-6,2,2,-6
73352853066,22,-8,-7,-5,1,-1,5,15
73352853066,-24,-18,-4,-10,-18,-6,-14,-1
73352868151,-4,-4,14,-7,4,-3,2,-8
73352868151,-2,-1,7,-2,-8,-1,-18,1
73352875677,-6,-5,-8,10,-16,4,-15,2
73352875677,-5,0,3,-4,12,1,8,-11
73352891301,-7,-3,-3,8,-5,-2,-4,8
73352891301,-8,-2,9,5,-2,2,4,7
73352892046,11,-10,0,8,14,-3,7,-7
73352892046,5,-22,-6,6,-29,-1,-19,1
73352905667,-23,-6,-12,-6,-9,-10,-9,2
73352905667,2,-3,4,-4,5,3,3,3
73352913191,-1,-8,3,2,7,8,-6,-4
73352913191,-3,50,-5,2,-23,-4,-7,4
73352928198,-8,-43,-11,-7,-14,-6,-10,-11
73352928198,-16,-25,-5,-4,-4,-2,-12,-1
73352936388,-11,-17,-2,5,16,5,13,-7
73352936388,16,-5,15,-6,13,8,11,-2
73352951346,1,23,6,0,2,5,1,9
73352951346,11,16,-3,10,10,-7,5,0
73352952060,0,10,-13,-6,-9,-1,-6,-9
73352952060,-26,-8,-9,-7,-8,0,-7,-7
73352965694,-4,10,0,-1,3,4,1,-5
73352965694,-5,-8,0,-10,-18,-3,-12,-4
73352973163,-13,5,-11,-6,-23,-4,-5,0
73352973163,-4,-19,-1,-1,0,0,-3,0
73352988111,3,0,6,-3,-9,3,-4,1
73352988111,-11,9,2,-2,-1,4,4,-1
73352996336,8,0,9,1,18,3,16,2
73352996336,7,-15,-5,6,6,-6,4,-1
73353011264,-14,0,-10,-7,-14,-5,-14,-6
73353011264,-6,0,9,0,-6,8,-3,-4
73353012057,-1,-9,11,0,4,1,-10,-3
73353012057,4,-10,-3,-8,-11,-3,0,2
73353040728,-15,0,-5,-3,21,4,9,-9
73353040728,0,2,16,4,7,6,7,8
73353049745,0,3,10,3,-1,3,0,-3
73353049745,-3,-8,4,17,0,4,5,-1
73353072430,12,10,6,13,17,0,11,8
73353072430,10,3,-9,-1,11,-3,4,-21
73353078134,-4,-7,3,6,-4,-1,-4,27
73353078134,-1,-3,10,9,6,2,4,10
73353094525,-2,10,1,-1,-19,-3,2,-10
73353094525,-23,-19,-4,-20,11,7,5,-12
73353096065,-1,4,6,-35,1,9,2,-32
73353096065,10,-7,17,-38,-3,0,-4,46
73353102024,-4,-4,-9,6,-8,4,12,-9
73353102024,1,0,-16,18,19,-8,-2,-32
73353103540,12,-23,-3,18,-4,-5,1,65
73353103540,1,-30,-8,24,-7,-14,14,1
73353108114,-14,36,-17,4,3,-1,6,-23
73353108114,1,5,1,-8,-10,-4,-1,-2
73353116387,-12,38,2,3,-16,-3,-14,-11
73353116387,-3,9,-18,0,-28,-3,3,-27
73353131320,4,-16,-2,2,-6,-1,-1,22
73353131320,0,2,-9,12,-30,-3,-15,3
73353132042,-56,0,-22,-15,-32,-11,-15,-77
73353132042,29,-43,11,-3,-2,-1,-8,43
73353145609,-12,-1,7,20,-7,4,-4,63
73353145609,-9,9,-13,-33,-25,-7,-29,-39
73353153111,19,-20,5,-10,6,14,5,9
73353153111,-23,8,-19,-18,-20,-7,-23,-48
73353168137,10,-30,19,-11,0,4,-11,-10
73353168137,14,-9,12,24,32,4,11,47
73353176334,-12,44,-9,-5,4,3,8,3
73353176334,-66,121,-32,-63,-62,-20,-53,-65
73353191278,77,-97,-2,9,55,-7,24,3
73353191278,4,-71,-13,-8,-10,-6,0,42
73353192044,-2,-87,-33,19,-21,-15,-11,12
73353192044,6,-21,10,12,10,16,-3,3
73353205645,-30,22,1,7,-1,-1,-5,-33
73353205645,-9,11,-7,-4,-1,6,9,-4
73353213154,14,-11,-24,-27,-34,-23,-19,41
73353213154,19,-15,18,17,17,8,13,9
73353228144,-24,0,-30,-27,-41,-16,-27,-12
73353228144,1,-8,16,4,0,8,3,-82
73353236312,3,16,10,12,5,6,5,-12
73353236312,1,-3,1,21,14,2,7,51
73353251294,-15,1,-8,-26,-35,-14,-29,-41
73353251294,-3,27,-2,-4,-14,2,-13,34
73353252070,-15,10,2,-4,2,-2,10,-38
73353252070,2,-63,4,23,7,-9,-1,8
73353265635,-3,61,23,7,9,23,3,-3
73353265635,5,-1,-16,-10,-4,-1,14,36
73353281365,-9,0,27,1,9,20,6,3
73353281365,-1,7,2,-3,18,4,13,-41
73353288195,-9,-7,-2,-7,-17,-6,-13,30
73353288195,-32,5,2,14,2,1,-5,1
73353296359,8,4,2,21,17,10,12,29
73353296359,1,-16,0,3,2,14,-3,-21
73353311334,2,13,-4,9,10,-5,-4,-16
73353311334,5,-19,14,-3,-4,3,1,-24
73353312082,-5,-27,-20,-20,-14,-17,-29,-6
73353312082,-4,-41,4,2,-4,0,-1,15
73353325672,-1,7,1,-5,-1,10,2,-6
73353325672,-1,3,-4,6,-4,-8,0,17
73353333141,-6,18,-10,1,-1,11,-4,0
73353333141,-9,13,-5,-18,2,-5,-5,-6
73353348154,2,-4,29,4,4,10,5,-9
73353348154,-9,10,-14,-23,-33,-7,-16,3
73353356344,-2,-4,16,2,5,11,6,-15
73353356344,-8,14,-2,-16,-10,-2,-13,3
73353371315,1,-15,0,-4,-2,-2,10,23
73353371315,-21,4,-2,-14,-8,-4,-20,6
73353372105,-9,-9,8,-1,5,-4,1,-22
73353372105,-18,0,2,16,8,7,10,-6
73353385595,-7,-4,5,-5,-7,-5,-5,8
73353385595,-1,-5,-11,-25,-29,-1,-21,-7
73353393154,1,1,15,4,7,8,5,-8
73353393154,13,4,0,13,6,9,16,14
73353408126,-5,-3,-4,-6,-10,-1,-3,3
73353408126,15,-3,7,15,9,1,6,15
73353416805,1,-13,-1,-1,4,-2,0,-13
73353416805,8,2,-9,-26,-18,-10,-12,-1
73353456577,-4,-6,4,-3,-6,-2,-1,-19
73353456577,7,1,1,10,8,0,-4,-24
73353457407,-5,6,-12,0,3,4,-4,1
73353457407,-5,-1,-6,-4,-18,-9,-1,90
73353461994,4,0,7,6,5,7,5,-41
73353461994,7,4,4,11,8,2,13,-6
73353462754,-24,-3,3,-9,-9,-7,-2,-18
73353462754,-3,-1,6,-1,7,2,-5,-31
73353476956,9,-8,-8,10,0,5,11,31
73353476956,-6,-2,10,1,1,3,1,1
73353477778,18,-1,-13,2,-34,-5,-5,5
73353477778,6,6,11,7,0,8,0,-18
73353491787,-4,-5,-24,-10,-39,-17,-24,10
73353491787,5,1,15,3,3,12,1,-6
73353492517,-1,4,-13,-3,5,-1,6,12
73353492517,-17,-2,8,6,7,9,0,-5
73353507074,-8,-3,-10,11,-7,-4,-11,1
73353507074,2,-2,-2,-2,-3,12,0,-1
73353521310,2,-1,1,7,0,-3,4,11
73353521310,-15,1,-14,-18,-19,-11,-24,-23
73353528159,1,1,14,-4,2,9,0,-3
73353528159,-15,-2,-15,-19,-25,-19,-24,12
73353536710,-7,0,14,-2,6,2,-6,2
73353536710,3,-1,3,14,22,-3,3,-10
73353551295,-7,-5,-2,1,5,9,3,4
73353551295,6,2,-7,-1,-4,-2,4,6
73353552075,10,2,2,-4,0,5,-1,-4
73353552075,1,0,-4,3,-7,-2,-1,-3
73353565681,-22,5,-20,-38,-36,-22,-37,0
73353565681,-2,-1,8,4,3,7,2,-4
73353573143,-5,-8,-14,-9,-23,-7,-15,-7
73353573143,4,-1,-1,14,-4,6,10,3
73353588075,-4,7,0,4,6,-3,-1,4
73353588075,-23,13,4,-6,-2,6,-6,-1
73353596357,-2,2,3,3,3,-2,0,-11
73353596357,-15,40,-6,-31,-15,-5,-21,-16
73353610640,-3,-10,12,0,4,9,4,5
73353610640,-2,6,-3,5,-2,-4,2,21
73353618819,-15,-9,10,-19,2,6,-5,19
73353618819,-7,-11,5,2,3,-2,-3,-47
73353633821,-2,4,0,-18,9,-1,-7,15
73353633821,2,-10,8,-7,-2,-2,-4,-17
73353634592,-10,-3,-7,-2,1,-6,-2,-7
73353634592,-11,-19,0,0,-6,-1,4,18
73353648121,-3,-9,-8,0,-1,-6,0,-22
73353648121,-12,0,3,-5,15,2,-2,0
73353663841,7,3,1,-2,-5,2,-3,8
73353663841,-3,29,2,-3,2,3,-4,0
73353670569,4,-14,-7,12,-9,-2,-1,9
73353670569,-19,-8,-5,-10,-11,6,-3,-7
73353678872,-6,-4,13,4,3,9,2,-8
73353678872,-27,-4,-18,-20,-18,-17,-18,-31
73353693852,2,7,9,-8,-6,16,-1,-7
73353693852,10,3,-3,12,-2,2,10,14
73353694587,38,5,-5,3,-16,-7,-24,56
73353694587,12,-5,12,8,3,22,6,7
73353708172,-18,6,2,-4,-5,-5,-10,-42
73353708172,4,0,6,2,-1,6,-6,-28
73353716358,-6,2,-1,2,0,0,5,-24
73353716358,7,-12,-18,-11,-38,-11,-17,20
73353730607,0,3,13,2,-2,17,0,4
73353730607,8,6,-1,-2,-18,-5,-2,-4
73353738844,-22,-5,6,5,18,6,8,1
73353738844,5,-4,25,6,4,11,3,-2
73353770214,-4,0,8,11,20,8,22,-26
73353770214,33,-1,1,-8,2,4,-4,9
73353770984,-3,0,5,2,-3,4,-8,88
73353770984,-37,-7,9,11,29,9,22,-56
73353772570,4,8,10,-5,-2,2,-4,-30
73353772570,-12,-7,12,7,26,3,1,3
73353776763,-7,2,-11,-4,-5,5,-4,-10
73353776763,14,-5,6,-9,-14,4,-4,2
73353790735,-6,-1,-6,15,1,-5,10,33
73353790735,2,-1,19,2,-6,7,-2,-33
73353798585,-7,4,-1,8,13,6,13,-18
73353798585,-6,-7,-8,5,0,5,-2,54
73353813762,-4,0,-13,-4,-8,-7,-3,-37
73353813762,4,-5,-1,17,-3,9,9,42
73353814591,-6,-6,2,-6,-7,-2,-3,-61
73353814591,9,-3,7,8,24,-1,-1,1
73353828216,3,-6,-3,-6,-7,2,-10,87
73353828216,-13,-7,-11,-20,-19,-6,-3,-9
73353836328,-20,2,6,2,16,3,11,-35
73353836328,0,3,-1,-3,-8,-3,-3,-32
73353850689,5,2,-6,0,-17,-9,-9,-3
73353850689,-5,0,1,1,-2,-1,-3,9
73353858814,-2,-2,-14,-13,-44,-14,-16,-13
73353858814,16,-4,-1,1,-5,8,0,9
73353873809,-9,3,-13,2,5,-7,4,12
73353873809,-22,-3,2,-5,-6,-2,-4,-16
73353874609,2,4,-14,-8,-20,-17,-13,11
73353874609,3,5,8,2,1,9,-2,13
73353888179,-1,0,-11,6,-9,0,8,-1
73353888179,-4,-5,-19,-14,-18,-12,-21,-11
73353896364,3,0,6,1,4,6,-2,-1
73353896364,-9,-8,-9,-1,-7,0,1,0
73353919558,-8,1,15,-6,4,0,-6,-20
73353919558,-5,1,-13,-14,-28,-16,-11,-6
73353920345,-2,-6,3,-6,-10,7,-5,12
73353920345,-27,0,-8,-15,-18,-19,-17,-13
73353933788,-1,3,12,-5,1,1,-6,9
73353933788,4,1,-7,4,0,-6,4,10
73353934588,-2,-1,6,2,4,10,2,-4
73353934588,-23,-4,-23,-10,-25,-19,-21,-10
73353948175,0,-3,7,0,-3,15,-1,2
73353948175,-2,-2,3,18,8,-3,-11,-2
73353956410,-8,-4,-8,-4,1,6,-6,-11
73353956410,0,-2,-17,-4,-26,-12,-8,8
73353970676,6,-6,-7,-2,-2,7,-1,-8
73353970676,2,6,4,3,-4,5,6,4
73353978839,-26,-3,3,-10,-7,-16,-14,-12
73353978839,2,0,19,2,10,10,5,-2
73353993784,-22,3,-7,-11,5,-8,-11,6
73353993784,-3,1,20,-1,3,9,2,6
73353994553,0,4,5,7,-3,0,6,-28
73353994553,33,-2,3,1,1,5,-1,43
73354008144,-1,0,1,2,-11,-8,-12,5
73354008144,2,1,3,8,14,17,6,-17
73354016415,1,6,-4,-1,-3,0,-2,-6
73354016415,-4,-9,8,10,26,8,10,-19
73354030654,-7,7,-11,-5,-11,5,-7,6
73354030654,2,-4,-9,-9,-15,-8,-12,13
73354038866,-24,1,9,8,15,6,12,-12
73354038866,-6,-6,-2,-3,-6,-5,-3,6
73354053894,6,-4,1,3,2,-4,1,7
73354053894,-24,-3,-4,-1,-3,2,0,-20
73354054598,5,-2,-10,-6,-9,1,-13,25
73354054598,-24,3,12,5,25,6,6,-19
73354068072,-5,-2,26,-3,-3,9,-2,-15
73354068072,10,-1,5,7,19,0,6,40
73354076772,-20,0,3,-17,-10,-7,-19,-12
73354076772,0,5,-6,-8,-12,2,-6,-7
73354090667,-15,-2,-3,-13,4,3,-8,-18
73354090667,-1,3,0,-6,-5,2,-5,4
73354098858,10,-2,9,0,2,9,-2,4
73354098858,2,5,-2,-15,2,-7,7,6
73354113769,-7,-4,-2,-6,-6,11,-4,-15
73354113769,7,-6,7,7,0,8,-6,-5
73354114603,-1,-1,-3,15,2,-1,16,8
73354114603,-5,-3,5,-3,-14,10,-7,-9
73354128130,17,-3,12,17,20,2,18,5
73354128130,-22,-2,-7,-8,-8,0,-4,-3
73354136307,6,-1,8,-4,-1,6,-4,-2
73354136307,-13,-3,7,23,17,13,14,6
73354150696,-3,-2,10,-1,-3,0,-3,3
73354150696,1,1,4,2,12,3,1,-12
73354158848,-18,-3,2,-8,-10,-4,-7,4
73354158848,7,1,9,-11,-10,-1,-8,13
73354173785,-22,3,-5,14,1,4,12,-14
73354173785,-6,0,18,-6,-9,4,-1,3
73354174715,3,-6,-6,7,-10,1,5,18
73354174715,4,0,-22,-2,-32,-9,-3,-6
73354188169,0,-1,1,-2,-12,3,-4,-2
73354188169,-5,2,-11,-6,-10,-11,-5,-40
73354196364,8,0,-4,-5,-3,1,-4,22
73354196364,-3,3,15,1,-3,8,-4,1
73354225594,20,0,-3,-8,3,-19,-5,3
73354225594,-24,-8,-2,-6,-6,-5,-6,-6
73354234759,3,-2,8,-1,1,7,-1,-12
73354234759,-12,-1,-18,-12,-19,-16,-17,-5
73354256999,-2,-5,10,-1,-4,0,-3,8
73354256999,6,2,-4,6,0,-4,9,3
73354258551,-5,-5,-16,-25,-33,-15,-30,-8
73354258551,-3,-1,17,3,6,12,1,-1
73354280185,-8,4,-22,-5,-25,-11,-9,22
73354280185,-3,-3,-4,6,-5,5,7,-6
73354282642,0,-4,2,-5,-6,-2,0,-10
73354282642,-13,-1,-18,-6,-38,-15,-16,-17
73354300704,-1,-10,-14,-2,-7,-5,-3,0
73354300704,4,2,-1,2,-7,2,-7,14
73354309729,1,3,-1,4,0,4,1,-11
73354309729,5,2,3,-1,3,-2,-2,1
73354339514,1,-2,1,6,9,6,8,-3
73354339514,-18,-5,-1,-7,1,1,-3,8
73354341100,3,-3,16,5,10,7,5,-2
73354341100,-12,-2,-9,-19,-15,-12,-11,7
73354354471,-1,3,3,-9,-11,6,-6,-15
73354354471,10,-1,-1,2,-1,1,2,1
73354356108,-1,-3,-16,-5,-32,-17,-10,5
73354356108,1,-3,-1,6,7,8,6,-5
73354375660,-3,0,-1,-5,-22,-8,-8,-12
73354375660,-3,-8,-5,3,-8,3,2,8
73354386203,-6,4,4,8,3,11,2,15
73354386203,13,-4,3,11,22,2,12,-2
73354406961,-21,-2,-9,-27,-19,-14,-27,-3
73354406961,0,4,13,-4,-1,5,-1,-15
73354408680,-9,-6,-10,-1,-2,-4,-4,-14
73354408680,2,1,12,1,3,4,-1,37
73354429468,-5,3,3,7,8,3,10,-10
73354429468,11,-1,-9,-1,-5,-1,4,1
73354431091,-14,-2,-2,-5,6,5,1,-13
73354431091,1,-2,7,-1,4,2,-2,-5
73354450677,-17,-3,0,-9,12,-1,-7,3
73354450677,1,5,2,-6,-7,-1,-7,1
73354460356,7,-3,11,11,-1,7,8,3
73354460356,7,1,0,14,15,2,12,-5
73354481998,-4,-2,2,6,1,4,4,-5
73354481998,-4,5,10,3,13,1,-4,8
73354483655,-19,0,11,-14,24,-1,0,3
73354483655,-9,4,16,-5,-7,-1,-6,-2
73354503879,11,6,6,3,9,7,8,1
73354503879,-30,-9,-3,-18,-6,-16,-15,-6
73354510767,1,-2,7,-2,-6,-1,-2,0
73354510767,-9,0,5,-1,12,5,4,-5
73354534511,0,-4,-1,2,2,4,1,0
73354534511,3,-3,-1,2,7,-3,2,2
73354536109,-15,3,1,-12,-4,-7,-10,4
73354536109,-4,3,11,-3,-6,10,-2,-25
73354557780,-9,2,-7,-5,-24,-18,-21,8
73354557780,2,0,4,-4,-9,7,-4,11
73354559360,2,-3,6,7,0,3,6,-4
73354559360,-11,-4,-16,-21,-30,-12,-26,-12
73354578964,-2,-1,7,-3,0,9,2,18
73354578964,-21,-2,-12,-8,-21,-7,-2,-2
73354585767,12,4,7,-4,-7,8,-3,-7
73354585767,-6,-3,-4,5,-8,1,7,-3
73354609560,8,4,-12,5,-17,-5,4,-15
73354609560,-1,2,9,-5,-2,5,-2,9
73354611118,-7,-1,-3,-6,-12,-1,1,-2
73354611118,12,-3,-7,2,-3,2,-1,1
73354632022,-5,-6,6,2,3,11,6,-4
73354632022,-1,-1,-14,8,-16,0,1,-16
73354633569,-9,-6,-9,-3,-1,4,-1,37
73354633569,-5,1,17,4,5,6,-4,8
73354654509,-19,-7,-10,-10,-3,-19,-18,-11
73354654509,1,0,10,-6,2,8,-4,-11
73354656104,2,-1,4,14,4,2,4,-12
73354656104,9,1,-19,-7,-12,-1,15,11
73354684610,-24,-2,7,-16,2,-6,-8,3
73354684610,-2,4,18,-3,8,10,4,-11
73354686115,-12,-1,-21,-10,-25,-20,-15,-4
73354686115,1,-3,-3,6,0,3,1,0
73354707818,4,2,1,10,-2,6,8,-5
73354707818,12,2,-1,4,18,-7,0,26
73354709236,-5,3,-4,-24,-9,-14,-16,15
73354709236,-7,-2,5,-2,-2,13,-3,-16
73354728852,8,2,9,4,1,4,10,-10
73354728852,-19,1,-4,-9,14,-8,0,-11
73354735656,8,2,21,3,6,9,4,-4
73354735656,-9,1,1,9,-2,-11,5,8
73354760185,-1,-4,-14,-5,-26,-10,-7,1
73354760185,-5,-8,-7,-1,-7,2,-1,-1
73354761782,1,5,9,5,4,6,1,-10
73354761782,-16,-3,0,-5,9,0,2,-2
73354781976,5,4,15,4,11,12,5,3
73354781976,-3,2,-2,5,4,0,8,0
73354783671,-6,0,-11,-15,-14,-10,-16,-1
73354783671,-2,-1,-6,1,-1,1,-3,-1
73354803793,0,-2,-2,5,1,-3,2,3
73354803793,-8,-2,-2,2,4,8,13,-8
73354810680,2,-3,11,3,10,7,6,-9
73354810680,4,6,5,0,8,-9,5,9
73354834450,-1,-1,-11,-6,-21,-11,-11,0
73354834450,3,1,8,1,-11,8,-6,-10
73354836062,0,-3,0,15,-1,2,-1,8
73354836062,-10,-2,-2,-24,-2,-5,-11,2
73354857686,1,-6,17,0,9,9,4,2
73354857686,7,-4,-7,-1,0,-10,2,3
73354859268,-13,-5,-19,-14,-26,-9,-21,-16
73354859268,-13,-5,-12,1,-4,-1,-3,-4
73354878080,3,4,12,6,15,5,5,1
73354878080,-18,-4,-1,-16,1,-7,-11,2
73354887112,-1,3,14,-1,4,7,5,-4
73354887112,6,-1,-1,5,2,3,-1,-2
73354909452,-19,-2,-2,-16,0,3,-8,1
73354909452,1,-1,6,0,-10,4,-3,-1
73354911059,-2,-7,-6,0,-5,-3,4,-1
73354911059,3,-6,5,-2,-5,1,-4,3
73354916218,-1,-20,9,5,-2,3,8,-9
73354916218,11,74,-15,2,-29,-8,-12,7
73354917014,-24,53,2,-15,4,-2,-2,-4
73354917014,-1,19,7,5,-1,4,0,-2
73354924408,-11,-13,-4,-12,5,-8,-7,-5
73354924408,-6,-22,-2,-6,-4,1,-5,-16
73354926067,8,-23,-3,15,21,3,13,13
73354926067,-15,-9,-13,-22,-28,-20,-24,16
73354931225,2,8,11,2,6,15,4,-8
73354931225,2,-32,2,-3,1,-7,6,5
73354932031,-20,12,-13,-18,-18,-22,-19,-23
73354932031,13,-37,15,5,11,25,17,-3
73354948396,2,19,0,5,-8,-6,-3,6
73354948396,2,-21,-4,0,8,2,2,1
73354949091,3,-6,-8,-8,-22,-2,-18,-2
73354949091,-2,9,0,3,-6,4,-1,-1
73354950682,-2,11,-11,-1,-13,-4,5,-3
73354950682,-14,2,2,-2,8,12,11,-5
73354954485,0,-3,23,-1,11,11,8,9
73354954485,-7,-3,-3,-7,1,-7,4,-8
73354955215,1,0,-13,-9,-17,-7,-19,11
73354955215,-5,-4,1,-4,-6,7,-9,-3
73354956047,1,-6,-11,6,-5,-5,2,4
73354956047,-21,4,1,-22,16,-10,-2,-15
73354962016,10,-9,17,9,7,11,4,0
73354962016,2,3,3,-1,-13,-2,-5,3
73354963641,13,-5,7,15,18,6,7,4
73354963641,-16,3,-10,-10,-17,-9,-24,-7
73354968851,-6,3,5,-6,5,10,4,2
73354968851,-5,0,2,2,-12,-11,-10,4
73354969512,-11,-7,6,-7,16,17,15,-9
73354969512,5,-4,14,12,1,1,2,7
73354976356,-5,7,-3,10,9,6,12,1
73354976356,1,0,-15,-3,-23,-13,-5,-1
73354977129,-11,-5,-8,-2,-6,1,3,0
73354977129,6,0,10,7,3,6,5,2
73354984556,-11,-4,-12,0,-17,-12,-6,-8
73354984556,-7,-1,3,-8,12,13,14,2
73354986125,1,18,17,1,-1,11,0,-10
73354986125,-1,4,2,6,8,3,8,2
73354991383,8,6,-18,-2,-28,-19,-21,10
73354991383,-10,0,7,-10,1,8,-6,-7
73354992110,8,6,4,-1,-2,-1,0,7
73354992110,-14,3,-8,-9,-8,-17,-16,-10
73354999542,12,2,8,3,5,11,6,-5
73354999542,1,5,12,13,1,-3,-4,0
73355001151,1,-6,-7,2,-3,-9,6,-18
73355001151,29,7,-7,1,-10,5,10,20
73355013196,-8,-12,3,-2,7,8,4,26
73355013196,6,2,8,-3,-4,-4,-6,-13
73355022194,-6,-10,-5,-6,-3,-12,-9,-2
73355022194,3,-2,11,1,-4,8,0,-29
73355038120,-1,1,-1,10,3,2,-3,20
73355038120,6,0,-16,-4,-5,-8,-1,2
73355043185,-15,4,-5,-12,-13,-7,-15,-9
73355043185,-2,-3,8,5,-1,2,3,11
73355050776,-15,-2,-13,-12,-13,-11,4,-24
73355050776,-26,1,-5,-9,14,-7,-12,-8
73355059733,7,-1,3,12,-4,6,0,35
73355059733,-3,0,18,-4,-4,10,-6,-30
73355073186,-4,0,6,3,5,0,1,15
73355073186,18,0,-7,2,-2,0,4,7
73355082120,-18,-1,-3,-10,-12,-7,-16,-7
73355082120,-7,8,0,-2,-7,1,-2,2
73355097001,-20,0,-11,-13,-13,-6,-1,-24
73355097001,-24,6,9,-2,21,6,3,-6
73355098583,12,-7,11,-6,5,11,5,3
73355098583,-7,4,-4,4,-9,-3,-7,12
73355110693,5,-6,3,0,9,-1,-6,-13
73355110693,-6,-3,-2,-7,-25,-12,-23,1
73355119654,0,-10,-14,-2,-5,6,4,-1
73355119654,-13,-5,-4,-4,-3,-5,0,-3
73355133120,-8,0,12,-10,26,5,0,5
73355133120,11,-3,16,0,-6,10,0,5
73355142105,1,5,5,6,-2,-4,2,-8
73355142105,2,-5,-13,2,11,-11,6,3
73355156967,0,-6,-7,2,-15,1,-6,0
73355156967,-21,-6,0,-5,-8,0,0,-5
73355158641,0,1,5,-7,8,5,4,-5
73355158641,-13,0,-9,2,-19,-11,-10,2
73355170599,-21,3,2,-9,13,9,6,-5
73355170599,3,1,21,8,0,14,2,4
73355179633,-3,-9,-7,8,-2,-4,5,-3
73355179633,7,1,-3,6,15,-2,11,4
73355193144,-11,-1,-1,-10,-23,-11,-24,-4
73355193144,-1,-3,2,-1,-3,5,5,1
73355202091,2,1,0,7,-11,-5,-10,0
73355202091,-10,-3,-14,-13,-5,-10,-17,2
73355217671,14,3,18,2,3,17,2,-4
73355217671,1,-2,4,5,-2,-1,-3,-3
73355219274,3,-3,-7,3,-2,-11,-2,3
73355219274,-2,-1,-8,-8,-22,-8,-23,-7
73355230644,-4,2,-5,-2,-2,4,2,-5
73355230644,3,-4,0,0,-1,1,-8,-4
73355245704,-8,-1,-18,-8,-23,-5,-7,-5
73355245704,7,-6,2,12,4,21,17,19
73355262135,5,0,25,-2,0,8,1,-2
73355262135,-4,0,-6,-2,-2,-4,8,-3
73355263679,10,-5,-11,0,-20,0,1,5
73355263679,-24,-8,-5,-15,2,7,-4,-31
73355277075,2,2,12,6,-1,8,4,7
73355277075,-4,-19,-22,-4,-30,-13,-2,36
73355278687,-21,1,6,-26,1,-3,-1,-13
73355278687,6,2,14,6,-5,14,3,-2
73355290685,-3,-2,4,1,1,-1,0,-17
73355290685,-6,6,-1,4,9,4,11,-18
73355299704,14,-2,-7,10,-1,-3,0,19
73355299704,-14,0,-4,-9,-5,-2,0,6
73355313219,2,-2,7,-3,4,3,-2,-6
73355313219,-8,1,-9,2,-9,-12,-13,-5
73355322158,-5,2,5,-9,8,7,8,2
73355322158,2,8,19,7,1,8,-1,-9
73355337021,3,-3,-17,5,6,-7,11,18
73355337021,11,7,5,-2,11,3,12,-3
73355338752,-23,1,11,-2,0,-3,-15,-12
73355338752,2,-1,11,4,2,-2,3,-7
73355350775,-8,-1,-9,0,-15,-7,-7,10
73355350775,-7,-4,1,-16,12,-1,-3,4
73355359740,0,3,21,3,3,7,-1,-16
73355359740,1,4,-5,-1,-9,-8,-4,11
73355373189,8,-5,-10,1,7,-11,4,4
73355373189,6,3,-3,1,-8,-4,1,-9
73355382238,-16,-6,-8,-4,2,0,0,-1
73355382238,-4,-3,3,-7,1,-4,-4,-11
73355397103,-10,-5,-15,-2,-12,-10,-7,-13
73355397103,13,3,3,9,7,16,12,24
73355398706,1,2,13,-2,1,16,2,-10
73355398706,-1,-2,-10,4,-7,-8,1,4
73355410601,10,-5,0,2,7,-2,3,14
73355410601,-20,2,-8,-9,-14,-4,-6,-53
73355419656,0,-2,-18,11,-2,-6,0,40
73355419656,-3,2,1,-7,5,8,2,15
73355433135,-12,0,-5,-6,-19,-9,-5,-18
73355433135,-18,0,7,-9,18,2,0,-13
73355442148,9,1,14,7,6,7,1,-14
73355442148,-1,-3,15,8,-6,-4,-6,2
73355456970,2,5,-1,-1,6,3,7,2
73355456970,6,-3,8,-1,8,1,3,2
73355458637,-24,1,-6,-6,-11,-21,-13,-3
73355458637,-2,-5,12,-3,3,17,0,2
73355470658,-6,6,-2,-2,-19,-2,-7,-24
73355470658,3,-3,-9,-2,-22,-16,-21,27
73355479747,-3,1,6,-6,18,6,8,24
73355479747,-1,-1,6,-2,-12,8,-4,-13
73355493251,-13,1,8,1,14,6,10,-13
73355493251,5,-2,-4,5,5,-3,-3,-1
73355502187,-28,-8,-7,-16,-14,-7,-14,-20
73355502187,-14,-5,-5,0,-2,-1,-4,27
73355516424,1,-4,6,-4,-11,3,-9,-11
73355516424,-17,-1,-7,0,-20,-7,-15,-3
73355523231,-11,-3,-3,-2,-3,-5,-6,-10
73355523231,-1,2,4,-3,0,0,0,-12
73355539594,-6,1,5,5,-3,-2,-1,7
73355539594,7,-8,-6,5,-1,-5,7,9
73355541157,-13,-4,-2,-12,-8,-5,-11,-8
73355541157,-10,-6,-14,-8,-5,-9,-2,-17
73355568232,0,-1,1,5,-14,-4,-6,16
73355568232,-7,4,12,-6,6,-1,-10,22
73355577238,0,-3,-1,2,0,13,17,-9
73355577238,-2,3,0,-3,-3,-8,-4,-3
73355600310,-4,-5,2,-5,10,9,10,-5
73355600310,-1,2,1,8,-1,4,11,-13
73355602693,1,-6,7,0,0,-12,-6,7
73355602693,-3,-2,4,-2,-2,3,0,1
73355621401,-2,-10,2,1,-7,-1,-4,-2
73355621401,-23,1,-2,-15,-9,-3,-14,-4
73355628258,13,0,1,3,1,16,12,1
73355628258,-5,-2,-12,6,-9,-3,-5,-2
73355652030,1,1,-8,-4,6,-11,-1,3
73355652030,10,-6,3,12,-1,7,6,3
73355653672,-11,3,-3,-9,-8,-6,-9,-2
73355653672,-1,5,5,-7,4,4,2,-7
73355674471,-6,0,3,-2,-13,-3,-6,-2
73355674471,-13,-1,9,-8,9,-2,-1,-5
73355676069,16,3,18,12,0,18,-1,1
73355676069,0,-2,-8,6,-5,-4,-3,10
73355681963,7,-1,8,4,25,7,8,-8
73355681963,1,3,2,-11,-10,6,-1,-12
73355683629,1,0,11,11,0,13,6,26
73355683629,0,-6,6,-3,-12,-6,-9,-8
73355688739,-8,0,-2,-4,-9,-2,-11,1
73355688739,4,0,15,-5,10,21,16,-13
73355689551,19,3,14,11,-2,8,2,-15
73355689551,-4,1,3,-3,-3,3,-3,3
73355696684,2,0,0,-1,15,3,7,-3
73355696684,10,-8,-14,10,-32,-10,-10,31
73355704638,-19,-6,-10,-19,-6,-4,-4,-19
73355704638,-4,9,7,-8,-2,2,2,-2
73355719475,-11,-3,-8,-6,-21,-6,-13,-6
73355719475,-17,2,9,-1,24,18,16,-6
73355721101,7,-2,7,1,-2,-3,-2,4
73355721101,-2,-6,-8,3,-5,-5,4,-5
73355733148,2,0,5,2,14,0,2,-2
73355733148,-5,-2,-1,-5,-10,-12,-21,1
73355749642,-4,0,-4,0,-5,2,0,7
73355749642,-5,-2,-14,0,1,-4,1,0
73355756264,-14,-1,-7,-8,-8,-8,-16,3
73355756264,9,1,5,6,-3,14,8,-11
73355763195,-3,5,3,7,-5,-5,-4,-9
73355763195,2,-4,-9,1,7,-8,2,6
73355779443,11,1,-10,2,-24,0,0,5
73355779443,-5,2,4,-2,-2,5,-3,-7
73355781064,0,0,-3,6,-6,-10,-10,0
73355781064,-8,1,-9,0,-16,-10,-8,4
73355793109,-27,-3,-5,-15,4,2,-2,-5
73355793109,1,0,19,-4,-1,9,0,-14
73355808137,-4,-8,-10,5,-5,-6,-5,24
73355808137,6,4,2,-5,8,1,6,-4
73355832487,-22,-11,4,-4,-1,0,-4,-15
73355832487,-4,-22,2,-1,0,-7,0,6
73355838171,-8,-3,-13,0,-3,-5,4,-5
73355838171,-11,-1,4,-15,13,7,1,1
73355862064,7,3,16,12,6,21,7,15
73355862064,-5,3,-4,3,-1,-8,8,-10
73355863688,-5,-5,-8,-11,-8,-6,-6,-10
73355863688,-20,-5,-4,-6,-7,-8,-16,-26
73355885662,3,6,12,-3,4,9,4,21
73355885662,-5,2,-6,2,-23,-6,0,19
73355888085,-25,3,-15,-21,-2,-8,-12,-22
73355888085,-27,-3,7,7,12,13,10,-6
73355906360,14,-3,5,11,-7,-5,-2,35
73355906360,2,5,-2,1,6,2,7,-2
73355913262,4,11,-1,-2,7,1,9,-4
73355913262,0,0,-14,-4,-22,-15,-22,-19
73355937031,-6,-2,0,1,7,4,3,-18
73355937031,2,-6,-5,8,1,-4,-12,2
73355938681,-2,-6,5,-7,-15,-3,-3,3
73355938681,-6,-5,-3,-4,15,-1,3,8
73355960277,5,-3,4,-3,-6,2,6,-3
73355960277,-3,5,0,1,1,-3,-9,-2
73355962680,-2,-3,2,6,6,5,11,-12
73355962680,21,-5,-1,9,15,0,13,16
73355989573,-1,-7,-12,-6,-23,-7,-7,-4
73355989573,-25,-6,-20,-13,-1,-8,-8,-1
73355991133,-4,-3,14,-5,8,15,3,0
73355991133,5,2,15,5,-3,10,-1,15
73356012246,-10,2,-8,-6,-17,-9,-8,-12
73356012246,-9,4,-3,-11,6,-7,-2,-13
73356018253,11,3,13,5,-1,5,2,4
73356018253,1,-2,2,4,-16,11,-9,-4
73356034592,-1,-1,4,8,14,0,12,-10
73356034592,20,1,-1,3,5,-1,8,6
73356036130,-5,-6,-13,-6,-24,-13,-22,2
73356036130,-15,-2,-7,-15,-11,0,-2,-5
73356056413,-2,0,4,-7,6,8,0,-8
73356056413,-7,1,3,6,-14,3,1,-13
73356064687,10,-3,0,8,4,-3,-14,40
73356064687,-4,-1,5,-11,4,13,14,-3
73356087048,7,-6,13,0,2,8,-4,-6
73356087048,-5,-1,6,1,-4,7,7,-5
73356088733,10,4,1,4,16,-6,11,-15
73356088733,7,-1,-7,2,-31,-15,-12,10
73356109591,-18,1,-8,-10,0,-2,-3,-1
73356109591,0,-1,10,-1,0,1,1,-2
73356111225,-5,-4,4,3,-10,3,-11,0
73356111225,-7,0,-10,-3,-13,-8,-5,-4
73356147716,-11,5,-15,-9,-5,-13,-12,-4
73356147716,10,-2,9,3,-2,8,-7,1
73356149277,-3,-2,4,2,-2,10,7,-1
73356149277,10,0,2,2,29,-4,9,-4
73356162004,12,3,-2,1,15,-1,8,-4
73356162004,-5,-8,-5,12,6,-3,3,-7
73356163644,-12,-7,-8,-8,-3,-10,-11,32
73356163644,-6,-2,9,-10,1,10,4,-17
73356183816,-4,7,0,8,-12,-4,-4,-2
73356183816,0,1,-8,6,-12,-17,-5,20
73356192017,-12,-2,-15,-14,0,-7,-2,-31
73356192017,-1,3,4,1,-6,6,0,3
73356192767,-1,-9,4,-1,-3,-5,-4,-2
73356192767,-10,-35,2,-17,-5,0,-4,-9
73356193680,-1,71,8,-2,3,10,9,-1
73356193680,-8,94,-16,-1,-23,-21,-18,6
73356198792,-2,70,-19,-6,-32,-20,-30,-3
73356198792,-14,36,-24,-8,-18,-20,-22,-2
73356206943,-7,0,-3,4,-2,1,2,-8
73356206943,-1,-11,-1,4,-14,-7,-9,-3
73356207727,-6,3,-4,-1,-6,-1,0,11
73356207727,-7,17,-5,-7,18,-2,5,1
73356208545,12,-10,8,2,-1,6,9,-10
73356208545,0,-7,5,12,4,2,0,3
73356213820,16,-32,-8,9,7,-7,16,7
73356213820,15,-8,6,6,3,3,2,3
73356214669,-6,-48,-13,-4,-23,-15,-18,-11
73356214669,-23,-35,-11,-16,6,0,-5,-3
73356221960,2,-15,13,5,7,12,4,6
73356221960,2,-2,7,1,-4,7,-8,-6
73356223655,-9,5,-10,-6,-13,-8,-1,-4
73356223655,-2,3,-2,2,15,4,3,2
73356228768,3,-5,1,1,4,9,8,-3
73356228768,0,4,7,3,-2,7,0,-1
73356229571,1,-9,3,14,6,5,11,3
73356229571,13,-19,2,7,7,-3,7,3
73356236307,5,-20,-3,-4,14,-4,4,-6
73356236307,5,-17,-8,0,4,1,9,2
73356243101,-6,-4,-9,-4,-8,-9,-19,-2
73356243101,-9,-5,5,-7,-1,9,2,0
73356259515,-4,10,9,-10,-5,5,-5,-4
73356259515,-8,9,-1,-5,-15,-7,-7,0
73356261080,-1,2,-6,-7,-8,-3,-1,0
73356261080,-1,-5,-4,-5,11,1,6,0
73356273140,3,-6,10,-1,-4,14,2,-3
73356273140,-1,-14,6,4,3,16,0,1
73356289642,6,-6,2,11,14,-2,10,-1
73356289642,8,-14,-5,-4,7,-4,4,-5
73356296265,-1,-12,-7,-5,-27,-13,-10,11
73356296265,-17,2,-13,-15,-6,-5,-12,-6
73356303124,-6,-1,10,1,2,9,5,-2
73356303124,-1,-6,0,1,-21,-6,-11,-3
73356319490,-19,-3,-11,-6,-10,-15,-13,-17
73356319490,1,3,-1,-5,18,4,2,16
73356321108,3,-3,1,1,1,6,2,2
73356321108,3,2,5,8,-8,-1,0,0
73356333095,-3,-16,-1,11,4,2,8,-1
73356333095,6,5,1,2,6,-6,7,-14
73356342141,-1,-9,-6,-22,10,-4,6,-11
73356342141,18,-2,1,-13,-19,-8,-7,23
73356356435,-11,-2,-9,-24,-7,-2,-16,-2
73356356435,-12,-1,-5,-12,-7,0,-7,10
73356363147,-7,-1,-5,-2,-3,1,-2,-12
73356363147,-14,2,0,-5,-2,2,-1,-7
73356379535,-10,1,3,-2,7,5,-1,-23
73356379535,3,-9,5,15,2,6,-7,20
73356381091,11,-5,-1,-2,-31,-9,-9,15
73356381091,-14,-9,-8,-1,-11,-4,-3,-13
73356393256,-18,1,-8,-3,2,-5,-8,-5
73356393256,-6,2,4,4,13,5,16,-19
73356408185,-5,1,7,-5,16,9,6,8
73356408185,3,14,-1,5,1,2,6,10
73356416486,4,4,-1,-1,-5,2,5,-20
73356416486,3,-27,-4,6,-2,-6,1,22
73356423164,-3,2,-8,-1,-4,-11,4,-5
73356423164,-5,-17,-1,4,21,-1,-4,-8
73356438913,4,13,20,6,-6,1,6,8
73356438913,-11,25,21,-6,-37,-7,-10,-25
73356445699,11,4,-4,6,-6,-8,-6,19
73356445699,-22,-1,-29,-16,-35,-18,-31,5
73356462041,-19,-2,-29,-13,5,-3,-5,-15
73356462041,-4,6,-13,1,7,-1,5,27
73356463730,-10,-7,-5,-4,0,2,-6,-19
73356463730,-5,-11,-7,-1,0,0,-4,-12
73356476365,-7,-15,-1,47,-7,-4,-5,-2
73356476365,-16,2,-3,20,5,-2,-3,-21
73356483184,-18,-1,0,-40,9,15,9,-17
73356483184,16,-6,14,-18,3,-6,0,72
73356498971,18,1,7,-46,-4,5,20,1
73356498971,-2,-8,-2,-15,1,-10,1,-25
73356505740,-13,-16,-17,-11,-33,-19,-15,-17
73356505740,3,80,3,15,-23,-6,-3,-20
73356529480,-3,10,-4,0,-6,-10,-15,9
73356529480,3,-2,-9,9,-8,5,0,7
73356531090,-4,15,3,22,2,1,-10,2
73356531090,1,-15,0,10,-2,4,3,-24
73356544454,-2,-13,-2,8,-13,-2,-11,20
73356544454,-8,10,-8,-13,-16,-2,-7,-7
73356546083,1,-17,1,3,12,-2,-5,10
73356546083,11,-16,19,4,0,7,14,1
73356558786,1,-4,-1,-4,11,9,4,3
73356558786,-4,-10,1,-4,12,2,11,-8
73356565666,8,8,-3,9,5,1,5,-15
73356565666,13,-3,-4,13,20,-7,-9,15
73356582029,7,-3,-10,-7,-14,-8,5,0
73356582029,-29,-9,-12,-23,-20,-18,-25,-5
73356583631,-16,-5,-2,-11,-1,3,0,1
73356583631,-17,-7,-3,-10,-6,5,0,-10
73356596325,2,-8,9,-1,10,6,0,12
73356596325,5,5,-1,-4,-11,-1,3,-7
73356603123,-15,3,-10,-9,-25,-12,-6,-8
73356603123,-24,-11,-11,-10,-3,-9,-17,-15
73356618839,-5,5,0,8,23,6,12,5
73356618839,-4,0,7,1,-4,11,3,-6
73356625648,10,4,9,9,2,10,-5,18
73356625648,0,-9,1,6,-5,5,11,2
73356642002,5,6,-1,0,9,-3,0,-6
73356642002,6,0,-2,-2,-5,-9,-6,-1
73356643637,-9,-1,-9,-7,-29,-17,-18,2
73356643637,-21,-5,-16,-10,-17,-10,-19,-3
73356656312,-17,3,-8,-13,0,2,-4,-9
73356656312,-2,-8,-2,-12,6,11,5,1
73356663114,2,4,2,-4,-2,3,-5,7
73356663114,-8,-5,-5,-3,-12,-4,-4,-11
73356678814,-4,4,-3,0,-24,-10,-15,1
73356678814,-7,3,-6,-3,-29,-8,-10,-1
73356685649,-10,-8,-2,2,-21,-9,-7,2
73356685649,-14,0,1,-11,-1,4,4,-20
73356701975,11,-5,8,11,3,10,9,11
73356701975,6,2,11,7,10,14,12,20
73356703661,0,1,5,-6,6,7,3,-6
73356703661,3,-6,1,-7,-7,-5,4,-5
73356716383,-3,-1,-3,-7,-13,-13,-1,-2
73356716383,4,1,-7,-8,7,-8,-3,-1
73356723266,-5,-5,-7,5,-1,-10,-1,-2
73356723266,5,1,-5,-4,-13,-5,3,-7
73356738932,-10,-5,-3,2,0,-3,-11,1
73356738932,-5,-1,-2,-1,-9,6,-5,0
73356745758,-10,1,2,-1,2,2,3,-6
73356745758,-5,0,-2,-1,8,3,5,1
73356769552,-1,3,7,5,5,4,3,5
73356769552,-4,-4,3,-2,-11,-5,-7,-8
73356771103,-10,-7,-3,-3,-24,2,-5,-14
73356771103,18,1,0,1,-6,-1,-10,36
73356775691,-13,3,-7,-11,-32,-11,-15,-2
73356775691,-18,-3,-2,-7,-2,-3,-5,-16
73356785350,-15,0,-3,0,11,5,-7,-8
73356785350,-5,-5,8,7,7,9,12,-17
73356798933,12,-5,7,11,0,12,4,8
73356798933,10,-4,3,28,-1,5,-2,2
73356805742,-1,-3,-1,25,-7,-7,1,-11
73356805742,0,-4,0,-24,-5,-8,1,3
73356822096,1,0,-3,-26,4,-4,4,7
73356822096,-8,-1,-6,-30,8,0,4,-19
73356823689,15,0,-2,15,-5,-3,0,30
73356823689,-6,2,-6,0,-19,-11,-13,-11
73356836343,-11,-2,0,-22,-1,0,-4,-2
73356836343,-4,-4,-3,-16,-5,3,-1,1
73356843277,-7,-6,-4,-14,3,0,-2,-14
73356843277,-3,-17,-2,8,8,2,1,2
73356858917,2,-2,1,10,-4,-2,-8,-9
73356858917,-6,3,-5,9,-21,-13,-12,3
73356865735,-4,3,-2,-8,-19,-9,-13,6
73356865735,-6,2,1,1,4,9,2,-5
73356882117,0,1,5,10,14,16,14,-9
73356882117,5,7,9,11,14,8,9,9
73356883711,13,2,5,3,1,3,5,10
73356883711,6,5,-10,-3,-13,-11,-3,-4
73356920248,-3,-4,-6,13,-6,-8,3,-2
73356920248,5,-3,0,30,3,-9,2,2
73356921787,-1,0,-1,3,12,-3,7,-6
73356921787,-1,-2,2,16,11,-3,1,-4
73356949574,4,1,-3,-4,-18,-6,1,-3
73356949574,2,-7,-13,-24,-34,-11,-14,2
73356951102,-15,-4,-7,-18,-4,-2,-9,3
73356951102,-12,1,-4,-11,2,8,1,-1
73356963977,-8,1,-2,-11,4,-1,5,-1
73356963977,3,2,3,-17,-4,-2,4,0
73356970741,-10,1,-5,-11,-16,-5,-7,-1
73356970741,0,-5,-3,-7,-10,-9,-6,-1
73356995087,-20,-4,-6,-13,4,5,-5,-6
73356995087,-14,-2,-3,-5,17,5,2,-1
73356996661,-8,0,-1,0,28,11,4,-1
73356996661,0,-2,10,2,14,12,17,-1
73357017851,13,0,1,8,-1,-5,-2,-2
73357017851,10,1,4,6,0,7,-2,-5
73357019331,1,-2,2,7,-13,-1,5,3
73357019331,-2,8,-6,6,-6,-5,-3,5
73357023883,2,-2,0,6,9,1,5,-4
73357023883,-4,-4,-2,-4,6,0,0,-2
73357024733,2,1,-2,1,5,-7,4,-3
73357024733,6,1,-4,-5,-28,-10,-13,-2
73357031451,1,2,-3,3,-23,-15,-8,2
73357031451,-6,-10,-9,-3,-24,-16,-16,1
73357032151,-1,4,0,-5,-6,1,-3,-5
73357032151,-4,-6,-2,27,3,3,-9,-3
73357038917,-2,-6,1,-11,2,-5,-7,5
73357038917,-6,9,-2,-12,-11,-2,-10,-7
73357045734,-10,5,-6,-9,-30,-8,-9,1
73357045734,-19,6,-12,-19,-14,-9,-16,-2
73357062062,-12,-3,-2,-1,8,3,-5,-9
73357062062,-3,-2,8,9,18,10,11,7
73357063674,-3,0,5,-4,16,1,12,-1
73357063674,11,3,6,10,1,12,10,4
73357075747,7,2,4,13,-7,1,-3,-5
73357075747,-2,-4,-5,1,-8,-1,-5,-1
73357084722,-2,4,-5,-1,-7,2,-10,-6
73357084722,-7,-5,-1,1,5,-6,-2,-3
73357098869,-8,-3,-2,5,-4,-4,4,0
73357098869,-2,7,2,0,-5,-3,5,-2
73357105666,-2,-1,1,2,-7,-2,2,-9
73357105666,5,0,-1,1,13,-5,5,9
73357122048,7,0,-1,-2,13,5,17,-4
73357122048,6,-1,-3,5,17,5,18,3
73357123647,11,0,-1,3,18,1,11,0
73357123647,5,1,1,-1,18,-2,6,-5
73357135664,1,-2,-3,0,15,5,8,-1
73357135664,5,0,-4,1,23,4,4,1
73357144643,8,-7,-2,3,22,5,10,3
73357144643,5,-1,2,-2,15,5,2,-3
73357173930,9,-2,5,8,24,6,11,1
73357173930,13,-3,1,5,20,5,10,-7
73357182269,19,0,4,10,20,-3,8,19
73357182269,-15,-1,-2,-4,8,-2,9,-25
73357205177,22,4,4,-1,2,-7,-3,11
73357205177,-7,-2,-4,2,2,-8,8,3
73357206782,-8,-3,-6,-15,-23,-6,-5,-13
73357206782,26,-4,5,52,1,-6,4,23
73357227157,2,3,0,-8,7,-3,11,-17
73357227157,4,-1,5,-10,14,-4,4,-3
73357228725,17,3,5,2,20,1,12,9
73357228725,6,0,3,22,20,0,7,-13
73357233904,4,-5,2,-8,11,11,9,6
73357233904,9,-1,3,-9,17,8,7,-6
73357234730,-4,1,-4,-11,11,5,8,-7
73357234730,-3,-1,-2,-13,6,-2,5,-19
73357241992,1,-5,-4,14,6,4,11,-1
73357241992,17,-6,3,16,3,-1,12,61
73357243685,9,-2,10,17,-2,-1,6,15
73357243685,5,-2,0,-4,-8,-5,13,-16
73357255693,-8,4,-5,15,4,-3,8,-21
73357255693,8,5,0,25,4,-7,7,-25
73357264689,9,-2,4,9,13,-3,2,2
73357264689,8,7,-1,7,7,0,2,11
73357278918,2,-2,2,14,6,-8,-1,1
73357278918,8,-10,-5,1,5,-1,4,-5
73357285735,7,9,2,-7,-4,-5,1,-3
73357285735,0,-3,-4,-24,16,-4,6,-9
73357302032,32,6,3,2,-2,-11,-10,39
73357302032,0,1,-6,-12,-21,-6,4,2
73357303719,-8,1,-3,-10,4,-4,2,-16
73357303719,-7,0,-9,-19,-23,-7,-4,-11
73357315692,-3,5,-1,-3,0,-4,-2,-12
73357315692,6,-1,0,0,-10,-11,-10,10
73357324739,-4,-9,4,8,-38,-11,-10,-6
73357324739,-4,-2,26,5,-12,-5,-1,7
73357338858,12,4,-17,22,-21,-9,-11,8
73357338858,-10,2,-20,2,-17,-3,-11,-18
73357345705,-13,-4,-34,-18,-26,-17,-21,-1
73357345705,3,-7,-18,-19,-31,-10,-16,10
73357361988,-16,-4,-1,-24,-27,-11,-18,-10
73357361988,-34,-4,-6,-5,-16,-4,-21,-18
73357363635,9,3,-5,20,-6,-12,-15,28
73357363635,-16,-5,-8,-3,-10,-5,-15,14
73357375652,-9,-3,-4,-14,-3,-5,-6,-2
73357375652,-11,4,-4,-11,-1,0,-4,-11
73357384680,-14,-3,2,-9,6,11,1,-19
73357384680,-5,-9,-3,-18,1,4,-1,3
73357398870,-10,-8,2,-5,7,8,4,-4
73357398870,3,3,5,-1,-9,4,-11,-2
73357405637,-1,-1,1,1,-17,-5,-10,-7
73357405637,-7,3,-8,2,-20,-8,-8,-1
73357421330,-7,-2,-9,-8,-32,-3,-8,-1
73357421330,1,-5,4,3,-21,-7,-8,22
73357428129,-27,2,-10,-7,-26,-3,-6,-20
73357428129,10,5,-3,6,-20,-8,-16,13
73357444545,-10,5,-3,13,1,-4,-2,4
73357444545,-18,1,-5,-10,3,-4,-6,-11
73357446112,-11,-1,-6,-7,14,4,-4,-4
73357446112,-6,1,0,-4,4,10,9,-17
73357473146,7,-5,6,0,-2,2,-3,4
73357473146,-1,0,-3,8,-5,3,6,6
73357482143,-5,2,1,-7,6,3,6,-13
73357482143,9,0,1,-7,8,-8,1,11
73357505245,4,-5,-6,-11,16,5,9,-9
73357505245,-7,0,1,5,3,1,0,-6
73357507637,13,1,-4,-4,-12,-9,-21,11
73357507637,-20,-1,-5,-8,-5,3,-9,7
73357527159,-19,-4,0,-4,-9,-6,-10,-4
73357527159,-10,0,-7,-14,-2,2,-3,-13
73357533280,-8,-5,-3,-12,5,7,6,-2
73357533280,-1,1,6,7,13,3,2,2
73357557123,-2,1,3,2,-3,-1,-7,-3
73357557123,-3,-6,0,0,-14,2,-3,-8
73357558703,-7,-4,0,7,-12,1,-3,6
73357558703,-8,-1,-10,-4,-22,-1,-6,-4
73357580304,1,0,3,-6,11,7,8,-5
73357580304,-6,3,6,-5,15,2,8,1
73357582685,5,0,7,2,11,8,8,4
73357582685,0,-6,1,3,3,3,6,-13
73357601387,8,8,10,9,-3,1,4,1
73357601387,9,3,1,-1,-4,-4,0,8
73357609570,0,-2,5,5,3,3,7,-10
73357609570,7,1,4,10,14,2,6,25
73357610332,-10,-9,-4,-7,7,-2,11,-7
73357610332,10,-2,4,5,13,0,9,-3
73357611123,7,0,-1,-1,-22,-5,-3,-7
73357611123,0,-3,-3,-1,-26,-2,-7,-15
73357616471,4,-4,-4,3,-25,-13,-17,8
73357616471,-10,-4,-10,-9,-16,-13,-18,0
73357623231,-16,-8,-6,-4,1,-10,-10,-3
73357623231,-4,0,-5,-8,6,0,-4,-4
73357647061,-5,-7,1,-3,6,4,-3,1
73357647061,-1,-3,6,-3,-6,6,-9,2
73357648679,3,-2,0,-4,3,5,0,8
73357648679,-4,-2,-1,-4,-7,-1,-1,-4
73357669609,-11,2,-1,0,-14,-5,-7,-4
73357669609,2,2,-8,7,-7,-5,3,3
73357671181,0,1,-3,-5,-14,-6,-11,-3
73357671181,-6,2,0,4,10,-13,-2,-4
73357677101,-4,-2,3,5,19,3,9,-10
73357677101,4,-4,2,9,5,4,8,3
73357677866,9,2,3,14,1,8,-1,13
73357677866,9,-4,-5,-9,-5,3,-3,-5
73357683957,-3,7,-2,-2,-5,-1,0,-6
73357683957,4,-3,-2,-4,6,-4,3,-4
73357684748,-4,0,-8,-4,5,-9,8,-8
73357684748,-4,-4,1,0,-6,3,-2,-4
73357698865,10,-5,-1,-2,-4,-2,-8,25
73357698865,-19,3,-4,-10,-9,-3,-6,-4
73357705665,-8,-7,-5,-5,-1,-2,-1,-11
73357705665,-13,-2,-8,-8,2,-7,-6,-3
73357736340,-15,-5,-6,-8,3,6,1,-32
73357736340,5,-1,2,-5,1,-3,-12,6
73357744633,-3,1,-2,4,-10,-2,-6,35
73357744633,-8,-4,-1,-9,-19,-1,-9,-15
73357767067,-8,-2,-4,0,-21,-5,-10,1
73357767067,-11,-4,-2,-9,-13,-6,-5,-20
73357768706,-3,0,0,-7,-6,1,-1,-3
73357768706,0,2,-3,1,-3,-4,-5,10
73357789578,-13,3,-10,-15,-2,-10,-9,-3
73357789578,-14,1,-4,-1,16,2,-2,1
73357791209,-7,0,-3,-18,11,4,0,-4
73357791209,8,-1,3,-9,5,2,-1,0
73357811492,5,1,5,-6,-4,-5,2,-2
73357811492,-1,1,0,3,-3,-4,8,4
73357818354,4,-3,1,6,9,-2,2,1
73357818354,0,4,-3,8,18,1,10,-6
73357842788,18,0,0,16,19,3,10,6
73357842788,5,-2,-2,7,4,-2,2,2
73357845255,-3,-2,1,4,-27,-10,-12,-3
73357845255,-10,-2,-5,-2,-21,-9,-17,-2
73357864596,-7,0,-6,-1,-9,-11,-10,8
73357864596,-14,-3,-14,-10,-7,-10,-12,-4
73357866203,-18,0,-7,-13,3,4,-3,-11
73357866203,-3,-2,-5,-2,8,-1,-1,2
73357871467,-5,2,0,-4,-1,4,-7,1
73357871467,0,-1,-1,-1,-23,-2,-12,-2
73357872205,-5,-1,1,1,-10,-7,-4,-1
73357872205,-7,-5,-1,-4,-11,6,1,-6
73357879573,-9,-3,-3,1,-3,3,-6,2
73357879573,1,4,3,0,6,-3,-10,10
73357881158,-7,1,2,4,26,9,13,0
73357881158,0,3,7,1,15,9,14,-11
73357893877,3,-5,0,-3,16,10,21,-6
73357893877,4,5,3,6,18,8,8,10
73357894760,3,-8,0,-6,7,6,5,-7
73357894760,-9,2,9,3,9,18,9,0
73357901477,-4,-4,3,-1,-3,13,5,-6
73357901477,11,0,7,8,-3,8,4,-4
73357908234,4,1,1,5,-8,9,-5,-6
73357908234,-6,-4,0,3,3,-6,8,-4
73357924591,6,-3,3,6,0,-6,3,26
73357924591,-3,-1,-1,-5,-3,-2,10,-19
73357926154,3,-4,-1,2,16,-6,2,2
73357926154,9,3,-6,0,10,-3,5,5
73357938144,8,1,-3,6,5,-8,-1,7
73357938144,1,-7,-1,-10,-5,-4,-2,-8
73357947168,-5,-1,-2,3,-17,-9,-1,-13
73357947168,19,1,1,10,4,-9,-3,25
73357961367,-3,1,-6,-5,-19,-4,3,-14
73357961367,-1,-3,-3,-5,-27,-5,-7,2
73357968130,-19,-6,-8,-6,-21,-18,-20,-10
73357968130,-1,-1,-3,-4,-25,-16,-21,-1
73357984522,-8,0,-1,-4,-11,-10,-19,0
73357984522,-18,-3,-3,-5,2,3,-7,-6
73357986120,-13,0,-5,-4,3,6,2,-3
73357986120,-25,2,-4,-6,-3,0,-11,-10
73357998251,0,0,-3,-1,9,2,6,9
73357998251,-9,-2,-1,-12,2,7,-1,-8
73358013278,1,-1,0,1,4,3,-2,10
73358013278,-1,-4,-4,-5,-2,2,-4,0
73358021424,-12,2,-2,-6,-13,-2,-2,-19
73358021424,-5,-4,-4,-1,-18,-8,-10,5
73358028237,-5,0,-5,0,-27,-11,-9,-7
73358028237,-16,4,-11,-11,-12,-3,-5,-16
73358044586,-1,-2,-3,-5,-1,-8,-11,19
73358044586,-8,0,-2,0,20,3,4,4
73358046155,-7,1,-6,-11,2,-5,-9,2
73358046155,2,-4,3,2,-7,3,5,-7
73358058246,-3,1,5,2,-2,6,3,-19
73358058246,9,7,1,6,-8,2,-3,5
73358067236,6,5,0,-3,-7,-2,-6,-2
73358067236,3,-3,5,3,7,2,8,7
73358081412,-3,3,1,2,-2,-1,5,0
73358081412,3,-3,-1,2,-7,1,3,-4
73358088257,-3,-2,0,5,-6,-6,0,-2
73358088257,10,-3,0,3,8,-3,4,6
73358120328,4,-1,1,5,12,3,10,-1
73358120328,6,-5,-2,3,17,-1,13,-2
73358122730,1,9,-4,4,12,0,5,-1
73358122730,18,2,-1,-1,2,-11,-3,3
73358140688,4,-1,-5,2,16,2,4,-8
73358140688,2,-1,0,4,19,1,6,8
73358149780,16,-4,4,0,3,-2,1,9
73358149780,-5,-2,-3,3,6,-3,1,-5
73358172087,6,4,-2,1,4,1,4,-5
73358172087,0,2,-5,-1,-1,-5,1,-5
73358173719,5,3,0,-1,-3,-3,5,8
73358173719,11,0,1,-2,12,-1,2,-5
73358194556,11,-4,2,2,8,-11,2,0
73358194556,-4,-4,-1,5,1,-4,2,3
73358196185,4,-7,-1,-2,6,-4,2,-6
73358196185,3,2,0,2,-4,-8,-2,2
73358224558,1,0,-2,-2,-2,-2,1,2
73358224558,4,0,2,5,12,4,3,-2
73358226146,5,-3,0,1,10,-2,8,1
73358226146,3,-9,-3,2,-1,-3,1,-1
73358247105,7,1,-1,3,12,-2,5,0
73358247105,16,-2,3,8,26,-1,12,1
73358248705,2,1,4,1,19,10,8,-8
73358248705,4,1,-2,5,13,-2,9,8
73358269662,5,-5,-3,3,3,-5,1,5
73358269662,7,1,-1,-1,11,-4,6,-1
73358271186,2,-1,0,3,16,6,5,0
73358271186,5,-1,-3,4,4,-4,2,-5
73358300230,6,-2,5,7,16,4,8,-1
73358300230,1,2,-5,4,-11,-6,-7,8
73358301825,6,-6,-2,29,-5,-5,2,7
73358301825,-3,-5,-4,-25,-12,-3,0,-1
73358322116,-7,1,-1,-12,-8,1,1,0
73358322116,16,2,-1,-11,-23,-10,-4,11
73358323694,5,0,-4,-3,-9,-4,3,-7
73358323694,-3,1,-3,6,-8,0,0,-8
73358343924,1,-1,-10,-4,-22,-4,-7,-3
73358343924,1,2,-3,-3,-20,-10,-6,4
73358350734,-5,-3,-3,0,-28,-13,-7,-7
73358350734,3,1,-1,0,-25,-11,-24,19
73358383420,-27,-12,-10,-10,-9,-10,-14,-38
73358383420,-14,-12,-10,-15,-4,-6,-11,-14
73358385029,-6,-6,-12,-14,-6,-8,-14,46
73358385029,-22,0,-3,-40,6,4,-3,-28
73358385833,-8,-1,-9,-33,4,-1,-1,7
73358385833,-3,0,0,-27,6,7,1,7
73358391084,-2,0,4,-28,15,11,0,-37
73358391084,20,-5,9,-13,5,6,1,26
73358391884,-1,-13,3,20,-12,4,-2,-11
73358391884,-13,0,-2,32,-7,-3,-3,-14
73358392733,0,1,0,24,-30,-10,-9,23
73358392733,-16,-5,-6,21,-13,-2,3,-17
73358397733,4,13,0,5,1,3,-4,5
73358397733,-12,-9,0,4,7,-6,3,-4
73358398524,-18,5,1,-1,23,11,10,-23
73358398524,37,1,7,31,4,-1,6,69
73358403816,10,-6,0,-7,3,5,8,-6
73358403816,6,-5,1,-3,-6,1,3,-13
73358404651,-5,-11,0,4,-12,-2,-4,-2
73358404651,-17,10,8,1,6,5,10,-38
73358411786,0,-1,20,8,5,-2,2,22
73358411786,16,10,-11,-2,-2,-2,0,7
73358418974,10,-12,-18,-13,21,5,12,-17
73358418974,-4,-4,-24,-1,3,-1,1,1
73358426987,-1,-2,-9,1,-25,-7,-3,7
73358426987,-12,4,-2,-6,-31,-14,-23,-11
73358427796,0,10,-2,-3,-26,-12,-12,13
73358427796,1,2,-9,-12,-21,-13,-25,-2
73358442646,-12,8,-5,-7,-5,-13,-14,-11
73358442646,-25,-7,-4,-4,-2,-6,-11,11
73358448144,1,-6,2,-14,-6,-3,-15,-2
73358448144,-26,0,-3,-13,1,-1,-6,-13
73358463138,-21,-11,-4,-6,6,1,-9,5
73358463138,-13,-7,-7,-9,5,7,-5,-10
73358470698,-17,-15,2,-5,10,0,-2,1
73358470698,-13,1,2,-4,7,5,4,-13
73358486355,0,2,-1,0,7,6,-1,0
73358486355,1,3,6,-6,8,10,2,-1
73358487136,-4,-5,0,-7,5,2,-2,-8
73358487136,2,-11,5,8,6,4,-5,17
73358502203,0,3,-2,0,-7,6,-9,2
73358502203,1,2,0,2,-21,0,-3,5
73358508160,-9,8,-3,-3,-17,-6,-8,-17
73358508160,-6,-10,-3,0,-24,-3,-11,8
73358523193,-3,2,-2,0,-20,-5,-4,-1
73358523193,-22,-1,-3,-12,-17,-2,-7,-20
73358530802,14,3,-4,8,-25,-10,-10,36
73358530802,-15,6,-7,-10,-22,-7,-2,-27
73358546445,-11,-5,2,0,-10,-7,-5,3
73358546445,-16,-9,-6,-12,-21,-6,-17,-13
73358547268,-13,10,-6,-3,-13,2,-7,3
73358547268,-9,-3,-2,-4,-8,-2,-9,6
73358562232,-3,0,-1,-5,-7,-5,-10,-5
73358562232,-5,3,1,0,16,13,1,-3
73358568277,-10,1,1,0,18,7,-9,13
73358568277,-7,0,-7,1,16,7,-3,-9
73358583360,5,-3,-6,-7,9,-4,-12,9
73358583360,-7,0,-2,-3,3,-2,-4,9
73358590794,-19,-2,2,-17,2,1,-12,-15
73358590794,-17,1,-2,0,5,-3,-9,-6
73358606412,-17,-3,-9,-4,4,3,-9,-14
73358606412,-10,-1,0,14,28,14,8,1
73358607199,8,4,0,50,20,12,5,6
73358607199,-1,-2,6,-12,6,8,-8,-11
73358622229,1,-6,3,-1,23,9,11,5
73358622229,12,-1,4,-39,17,6,-3,1
73358628275,-18,0,-2,-39,11,11,7,-1
73358628275,-8,-2,-2,15,18,11,4,-2
73358643277,-12,-3,-3,8,7,10,2,-10
73358643277,-1,1,2,-16,14,13,7,8
73358650768,-14,1,1,-9,8,3,2,-19
73358650768,5,-8,3,-26,8,6,-5,5
73358666390,-10,-3,-1,5,14,11,5,-7
73358666390,-2,13,4,38,15,1,2,-2
73358667237,-3,4,2,-21,9,5,-1,-3
73358667237,-2,-1,7,1,3,3,-1,4
73358682268,-14,0,4,-4,8,6,-3,-12
73358682268,3,-3,3,0,9,7,-6,9
73358688182,-9,-5,-4,-6,-20,-12,-5,-10
73358688182,6,9,-2,-11,-21,-8,-11,15
73358703211,-11,1,-6,18,-15,0,1,4
73358703211,3,-3,-4,28,-21,-5,-7,-7
73358710725,-9,5,-2,-8,-20,-12,-12,19
73358710725,-6,-3,-7,48,-13,-4,-6,-23
73358726388,-8,-1,-3,-20,-16,-7,-10,1
73358726388,-15,-3,4,-33,-7,-3,-4,-6
73358727185,3,-2,1,-13,-3,-3,-4,-12
73358727185,-7,-5,1,8,6,1,-7,2
73358742202,1,1,4,-13,6,1,-7,9
73358742202,-13,-5,0,6,1,-2,-3,-10
73358748171,7,-7,0,9,17,6,-1,-1
73358748171,5,-2,-2,1,1,-4,0,21
73358763174,-12,-3,-5,-20,3,-1,-4,-13
73358763174,0,-7,-5,6,7,-1,-2,-1
73358770699,-3,-4,1,2,12,12,11,-9
73358770699,-4,-1,0,-18,14,15,10,-9
73358786337,1,-4,10,3,7,16,8,2
73358786337,11,1,4,-11,-1,6,11,1
73358787150,3,-3,1,10,-1,4,7,-2
73358787150,-1,0,5,29,6,16,12,-2
73358808990,-4,0,4,-16,6,6,0,-5
73358808990,-5,-2,3,-1,6,13,5,-12
73358809652,10,0,3,27,8,3,2,32
73358809652,-14,-1,-1,-55,-5,2,1,1
73358823267,2,2,5,3,20,19,18,-3
73358823267,-8,-4,-5,16,-20,-7,-12,1
73358830773,-9,8,-4,14,11,7,5,-16
73358830773,1,-3,4,-31,15,9,10,-4
73358846465,-5,5,5,0,2,8,3,3
73358846465,-6,1,-2,-24,3,9,6,0
73358847257,-6,-1,2,2,-1,9,3,-6
73358847257,-4,3,1,44,-1,8,7,-9
73358862317,-6,-3,1,-15,2,8,1,0
73358862317,3,-3,2,50,7,7,2,24
73358868317,-15,-2,-5,0,-5,1,-3,-13
73358868317,-7,3,-2,-27,14,12,8,1
73358883213,2,5,-3,-21,2,1,-3,-15
73358883213,-6,5,3,5,5,1,2,1
73358890756,-2,-4,-1,-16,7,4,5,-12
73358890756,-7,2,3,-20,11,2,4,-11
73358922137,13,-1,6,59,-4,5,5,39
73358922137,-5,1,-1,-19,-7,8,6,-8
73358923698,0,3,5,-8,-4,10,6,-6
73358923698,-3,-1,3,-27,-15,5,4,-15
73358952126,4,3,3,-1,-18,2,-5,-8
73358952126,9,0,7,4,-13,4,4,6
73358953658,3,-1,2,-2,-15,6,4,-1
73358953658,1,-2,0,5,-15,-6,-3,3
73358965701,-1,-4,3,-13,-8,-1,-4,-3
73358965701,10,0,6,8,-7,6,7,-8
73358974705,2,-1,4,1,-8,-5,0,6
73358974705,11,-2,4,-2,-6,1,0,5
73358998138,12,-2,1,24,-6,2,3,3
73358998138,4,-3,6,-26,-6,4,0,-8
73358999759,4,-7,1,-5,-5,3,0,-2
73358999759,4,1,3,16,-3,-6,0,1
73359019538,-4,-3,0,3,2,3,7,-8
73359019538,3,4,-5,6,10,2,13,3
73359021141,5,-3,7,8,7,4,8,5
73359021141,-4,-3,0,18,5,1,7,-2
73359040693,2,-3,-4,1,16,7,14,4
73359040693,5,-2,3,10,3,2,7,-3
73359049651,3,-1,1,11,3,9,5,-1
73359049651,3,0,0,10,0,3,6,10
73359072186,2,1,3,-7,5,-1,10,-22
73359072186,9,-1,7,24,18,7,7,22
73359073690,0,-1,-1,28,10,5,10,20
73359073690,7,-3,10,19,5,17,3,-16
73359094649,3,2,-4,-6,5,-2,7,1
73359094649,-4,-2,8,-11,-1,7,4,-12
73359096170,7,-5,2,-16,12,2,8,-8
73359096170,-3,-3,3,-27,18,5,11,8
73359116472,5,0,4,17,22,4,12,-1
73359116472,4,-3,1,9,13,3,13,-2
73359124779,1,2,6,10,16,5,13,3
73359124779,5,-4,2,-5,12,3,11,5
73359147094,6,-11,2,-17,5,7,8,-2
73359147094,-1,-5,-3,-15,3,1,6,0
73359148674,8,-1,3,53,20,14,14,0
73359148674,3,0,-3,16,17,-7,13,-5
73359169629,6,-4,-1,9,21,1,11,9
73359169629,16,-5,-3,-17,32,10,14,3
73359171205,5,0,1,-45,21,1,4,-6
73359171205,15,-2,3,25,25,1,10,0
73359190813,12,2,3,9,25,1,11,3
73359190813,8,1,0,-2,16,1,10,1
73359200458,16,-4,3,-12,19,0,11,-9
73359200458,14,-6,1,34,28,5,16,2
73359229545,7,3,-1,68,17,-7,5,6
73359229545,14,1,-2,7,21,-5,11,4
73359231184,7,-4,1,-6,14,1,2,-2
73359231184,4,-3,0,-13,-5,-7,1,2
73359244543,10,0,2,-17,14,10,8,1
73359244543,0,-5,-1,-2,-1,-5,6,0
73359246170,8,7,0,-19,7,-1,11,1
73359246170,7,-1,-2,-17,10,0,9,-3
73359265695,4,7,-1,-26,-8,-5,5,-1
73359265695,3,14,-3,36,-10,0,3,2
73359274725,4,7,2,2,-1,-3,9,-1
73359274725,1,-2,4,25,-1,12,7,-6
73359297794,9,-3,1,19,6,0,12,1
73359297794,10,-7,2,17,25,7,10,7
73359299367,16,3,-4,16,-1,-7,1,9
73359299367,18,1,1,10,15,-1,5,-11
73359319586,7,-2,1,6,7,-2,7,3
73359319586,7,5,1,-11,7,-5,6,-12
73359321163,-1,-10,-7,-7,-16,-6,-2,2
73359321163,0,3,-4,0,-29,-9,-7,4
73359340763,0,-3,-6,-5,-38,-10,-16,-3
73359340763,-5,-5,-5,4,-27,-19,-20,-1
73359349768,-13,-4,-7,-8,-13,-8,-18,-2
73359349768,-12,-3,-13,-17,-15,-21,-21,0
73359372145,-19,10,-12,-6,-14,-10,-20,-6
73359372145,-13,6,-10,-4,-10,14,-14,3
73359373682,-13,0,-11,9,-11,-1,-15,-10
73359373682,-13,5,-5,0,-15,-5,-21,-2
73359394634,-13,-3,-8,-3,-18,-13,-22,1
73359394634,-4,-6,-5,-17,-32,-19,-8,-4
73359396249,12,2,-1,-1,-3,-6,1,-3
73359396249,10,-5,2,-3,-1,-3,9,23
73359416476,9,-5,2,-22,-9,-15,3,-1
73359416476,1,1,-8,-12,-12,-16,0,-9
73359424743,0,-11,-3,3,1,-9,4,-15
73359424743,5,-1,-1,2,2,-10,3,-2
73359447120,9,-2,1,4,13,3,10,3
73359447120,8,-5,-4,-5,5,-2,3,-1
73359448694,-2,-3,4,1,19,4,13,-7
73359448694,23,-3,-4,-2,23,2,6,18
73359476440,0,-3,-2,0,14,1,4,-7
73359476440,14,-2,3,-5,13,-1,4,1
73359484785,7,-6,3,2,8,1,-2,11
73359484785,0,12,-2,-7,3,-6,2,-11
73359499648,-3,0,-2,-6,-1,-1,-1,-3
73359499648,-3,-5,-2,-10,19,-1,7,-3
73359501258,8,12,1,0,1,-3,3,0
73359501258,-10,-5,-3,18,-6,0,-3,-8
73359513935,6,0,-3,39,-12,4,7,10
73359513935,8,-3,-4,1,-12,-6,-6,-11
73359514757,-2,-3,-5,-19,-8,-4,-1,6
73359514757,-3,-3,0,-17,7,7,7,11
73359528957,-1,-2,-3,-35,-15,-2,-3,-9
73359528957,0,-4,-1,-31,-14,4,0,2
73359535760,-3,0,-4,7,-23,-4,-7,-1
73359535760,-4,2,-1,-16,-29,-7,-3,-13
73359552174,-7,-3,-2,3,-21,-5,-13,4
73359552174,-5,-3,-4,11,-17,-12,-10,4
73359553724,-8,-3,-5,-7,-12,-8,-17,-5
73359553724,-18,-6,-9,3,-2,-2,-13,-1
73359567166,2,-6,-4,9,-4,-8,-13,3
73359567166,-19,-4,0,-6,8,2,-7,2
73359568718,-15,-2,-4,6,11,4,2,-6
73359568718,-9,-3,-6,3,6,-1,-6,3
73359582142,-11,-1,0,-6,13,6,-3,-4
73359582142,-6,1,-1,4,11,7,4,-5
73359583694,-3,-3,-4,0,7,1,-1,6
73359583694,-4,3,0,2,5,9,5,-1
73359595820,0,2,1,-9,11,8,3,1
73359595820,-2,2,1,9,6,4,0,-6
73359604753,13,-1,17,10,-3,13,15,0
73359604753,9,-3,17,5,-7,15,2,-6
73359619614,0,-1,13,4,-1,10,1,-2
73359619614,17,-7,15,24,0,17,6,35
73359620386,5,1,15,-5,1,14,1,-18
73359620386,5,-9,12,11,2,11,1,-11
73359633968,5,-7,12,9,-3,8,3,16
73359633968,-2,6,10,2,-2,-3,-1,12
73359634748,5,-4,11,11,-2,8,3,-4
73359634748,4,0,6,0,-5,1,2,-6
73359649682,-3,5,4,9,-3,7,1,-13
73359649682,2,5,6,-9,-2,3,8,-1
73359651234,7,-17,4,22,0,-3,10,14
73359651234,5,1,10,-4,-1,-1,7,-2
73359663960,5,7,5,8,0,3,10,1
73359663960,10,-10,12,20,9,4,13,-3
73359670789,1,3,6,-22,-1,13,8,-1
73359670789,10,11,0,19,0,-5,11,17
73359687111,14,-36,12,17,6,2,24,1
73359687111,1,6,7,-24,-2,5,3,-8
73359688691,9,15,-5,10,11,-5,17,-3
73359688691,20,-23,15,44,23,2,27,9
73359693888,10,-24,11,-28,18,11,21,7
73359693888,-2,57,-11,-15,-1,-4,9,-17
73359694729,7,-2,9,41,27,-6,21,-5
73359694729,26,-14,17,15,12,4,19,26
73359702074,11,34,-6,-23,3,-7,13,4
73359702074,6,3,-3,7,14,2,15,4
73359703750,21,-34,12,31,36,3,19,8
73359703750,5,-45,9,0,21,5,23,-9
73359717803,-5,54,-7,-24,-2,-13,0,-3
73359717803,13,16,1,15,6,-19,3,2
73359718557,25,-34,12,28,10,-34,11,8
73359718557,10,-17,8,6,11,-30,4,-6
73359719339,2,26,-14,-13,-44,-51,-9,-2
73359719339,12,16,-10,-1,-32,-41,-5,1
73359720130,23,0,-7,14,-43,-48,-9,5
73359720130,13,-6,-4,12,-36,-50,-5,-7
73359724580,7,3,-6,0,-44,-37,-16,-6
73359724580,-18,34,-24,-18,-75,-43,-19,4
73359726175,-7,15,-28,-16,-71,-34,-32,12
73359726175,12,-3,-18,10,-60,-37,-17,-14
73359731413,-4,-7,-9,25,-37,-31,-6,-2
73359731413,-12,15,-13,-4,-70,-40,-31,21
73359732212,-36,38,-39,-55,-78,-37,-38,-10
73359732212,-27,-2,-35,-13,-79,-42,-40,-4
73359747672,3,-31,-6,46,-35,-30,-16,-11
73359747672,-4,-28,-3,28,-22,-20,-9,-17
73359749330,-39,20,-24,-36,-65,-30,-40,0
73359749330,-53,39,-45,-55,-80,-39,-61,-1
73359750182,-31,-3,-35,-20,-52,-34,-52,-13
73359750182,-22,-32,-14,33,-18,-18,-26,2
73359753316,8,2,1,27,-20,-9,-20,9
73359753316,-18,26,0,-8,-13,4,-8,-32
73359768963,-21,13,-9,-33,-13,7,-14,3
73359768963,8,-18,-5,-2,-20,-6,-18,39
73359769728,-2,-13,0,1,-17,-2,3,-2
73359769728,-8,16,1,-8,-5,-3,-8,-10
73359783205,-23,3,-6,-1,-15,-7,-6,-37
73359783205,29,-23,9,10,21,8,10,4
73359790754,-2,12,-11,-22,-39,-11,-16,16
73359790754,-22,11,-5,-7,-6,-1,-8,7
73359805804,-10,-16,1,6,8,3,-3,-6
73359805804,-31,-20,-7,-14,22,5,-2,-23
73359813310,-1,10,0,3,26,6,0,5
73359813310,-2,19,-3,-17,13,2,-10,-9
73359828991,1,-7,-3,2,11,17,9,1
73359828991,16,-5,9,21,-4,16,8,41
73359829756,-8,-14,-1,-6,7,0,8,-23
73359829756,2,3,-6,-1,-6,14,12,-9
73359843335,10,-3,9,22,4,17,11,1
73359843335,7,5,1,-12,-4,1,-2,-14
73359850837,3,21,-1,-2,-5,1,3,9
73359850837,1,1,19,-9,-8,1,-6,6
73359865737,-7,-4,-3,3,-4,-7,3,-24
73359865737,-2,2,-10,0,0,-3,-1,-26
73359873346,22,-2,0,11,-3,-5,-7,76
73359873346,-1,5,-12,-5,9,1,3,-16
73359888927,10,10,7,5,-3,6,2,0
73359888927,-23,5,4,-7,-12,3,0,-41
73359889739,-11,2,0,-2,4,-5,4,-23
73359889739,21,4,-2,10,-1,0,7,34
73359903263,3,-7,5,-1,-6,-2,-1,9
73359903263,-2,-1,-2,-2,-5,-7,0,-22
73359910763,-12,0,0,0,13,8,4,-25
73359910763,10,-2,-1,12,5,-4,1,28
73359925805,14,4,-2,6,17,-7,5,29
73359925805,9,-6,5,6,17,6,13,3
73359933251,4,-3,2,-4,13,-1,10,-13
73359933251,-3,-1,-5,3,14,-3,8,-18
73359948915,6,5,-2,-3,21,3,1,1
73359948915,24,-2,6,10,16,-2,3,26
73359949732,-8,0,-4,-4,1,-10,-6,-32
73359949732,1,5,7,8,8,-3,-1,2
73359963294,13,-3,-6,3,-3,-6,1,23
73359963294,-7,-10,-5,-5,4,-8,-2,-5
73359970775,1,-4,-3,-4,-3,-8,2,-13
73359970775,0,-4,-3,4,14,-1,4,-5
73359985793,12,-5,1,2,-8,-7,-2,16
73359985793,-18,0,3,2,10,2,2,-8
73359993327,20,-3,-8,-6,-34,-18,-15,12
73359993327,-8,-10,-7,-1,-27,-11,-5,-15
73360008918,-11,-11,-2,-7,-21,-6,-10,3
73360008918,2,-1,-4,6,-28,-12,-7,7
73360009694,-36,4,-11,-15,-14,-10,-18,-2
73360009694,2,5,-9,-13,-13,-9,-13,-1
73360023257,-23,-2,-7,-7,-11,-11,-18,-14
73360023257,-5,-8,-6,-9,-25,-8,-18,-2
73360030794,-8,-1,4,-1,-7,-2,-16,4
73360030794,-11,-6,-8,-5,-19,-11,-9,-8
73360045820,-9,-2,-2,0,-12,-6,-16,7
73360045820,-4,2,-7,-1,-23,-15,-9,18
73360053278,9,0,-5,-3,-16,-6,3,-10
73360053278,-20,3,-5,-3,-23,-10,-13,-8
73360068893,9,0,-2,2,-16,-12,-10,6
73360068893,-7,1,-2,-5,-22,-12,-10,-20
73360069701,-11,-1,-4,-4,-16,-4,-6,-7
73360069701,-20,2,-7,-6,-8,-10,-14,4
73360083327,-9,5,-6,0,-15,-9,-12,6
73360083327,13,2,-3,0,-18,-9,-6,20
73360090798,-24,-2,-7,-8,5,-2,-7,-17
73360090798,-10,-8,-6,-5,-1,-4,-15,4
73360105835,-25,0,-2,-8,2,-4,-9,-17
73360105835,-28,-5,-6,-13,1,-6,-18,-27
73360113307,3,3,-4,8,-1,0,-2,2
73360113307,15,2,-2,-3,-12,-4,-7,26
73360128911,-1,0,-3,-9,2,1,-10,-4
73360128911,-13,-1,-1,-10,-3,-5,-13,-7
73360129693,-23,-4,-2,-6,1,3,-10,-10
73360129693,-26,-2,-4,-2,5,-2,-7,-13
73360143222,24,-4,3,4,0,4,7,13
73360143222,-10,-2,-6,-11,7,11,-6,15
73360150777,-16,0,-1,-4,10,5,-3,-4
73360150777,-8,6,0,-3,-2,4,-5,-5
73360173892,-21,-3,-1,-7,5,2,-10,-15
73360173892,-8,-4,-4,-3,7,5,-2,-6
73360174654,-3,72,-1,-2,1,2,-3,17
73360174654,1,30,1,-7,0,9,-4,-1
73360188922,-11,15,-4,-3,-15,-5,-3,-8
73360188922,-11,3,-2,-6,3,1,-6,-7
73360189663,-3,-21,4,-1,1,1,-4,-7
73360189663,1,-11,2,5,0,0,-1,19
73360203242,-1,10,-2,-5,-15,3,-10,7
73360203242,-2,0,-5,-4,-5,-2,-6,-7
73360210711,-8,-22,-3,-6,-2,-1,-4,0
73360210711,-10,-6,-4,-5,-1,1,-6,-7
73360225753,-26,-21,-2,-7,2,-2,-6,-15
73360225753,-9,-4,3,-1,-3,-1,-3,-12
73360233207,22,-8,0,-4,1,1,-7,19
73360233207,1,-1,-3,1,-3,0,-7,24
73360248241,-13,0,-2,-7,-3,0,-6,-15
73360248241,-9,0,1,-9,-6,-2,-3,-19
73360263942,-11,-1,-1,1,-2,-6,-5,-8
73360263942,6,-12,-2,-2,-7,-6,-8,-1
73360271467,-5,-9,-8,-8,-9,-2,-10,12
73360271467,-18,-6,-4,-5,-6,-6,-8,-18
73360272253,-11,-15,-7,1,-4,-2,-5,2
73360272253,-5,3,-10,-5,-4,-6,-6,2
73360285777,-5,1,-3,-6,-1,-6,-9,4
73360285777,-22,2,-11,-5,-6,-3,-3,-12
73360293333,29,-11,-3,-9,-12,-6,-10,17
73360293333,-7,-6,-7,-1,-10,-4,2,14
73360308287,-13,2,-4,-10,-8,0,-9,-23
73360308287,-7,0,-6,-3,-7,-5,-14,-13
73360316239,-14,2,-5,-9,-8,1,-2,-20
73360316239,-12,-4,-3,0,-12,-6,-13,29
73360331440,3,-4,-4,-13,-22,-7,-15,-8
73360331440,-11,3,-1,-9,-9,-3,-9,0
73360332235,-13,-6,-8,-4,-12,-10,-13,-25
73360332235,-14,-5,-2,-5,-3,-3,-11,-9
73360345775,-18,3,-5,-4,-10,-6,-12,25
73360345775,-8,-11,-5,-9,-16,-14,-14,2
73360353294,-34,-2,-7,-5,-18,-16,-15,-14
73360353294,-8,-2,-7,-12,-19,-15,-21,-19
73360368335,2,2,-6,5,-12,-19,-9,14
73360368335,-6,0,7,-3,-23,-13,-14,19
73360376436,-12,15,-9,-4,-27,-29,-21,8
73360376436,-31,1,-10,-17,-22,-12,-13,-30
73360391431,8,-2,-11,4,-17,-12,3,-14
73360391431,-6,15,-8,-14,-14,-10,-24,2
73360392232,-26,-13,-2,-5,-6,-2,-7,1
73360392232,11,2,4,-6,-25,-12,-14,21
73360405784,-14,-3,-1,-4,-9,-5,-9,-3
73360405784,-21,-1,-6,-1,-11,-6,-12,-2
73360413246,-11,-1,-1,-14,-18,-8,-16,-30
73360413246,-22,4,0,-2,1,8,0,-12
73360428262,-16,-10,1,-6,-4,-1,-17,19
73360428262,-5,-3,-4,-8,-10,0,-5,-10
73360436392,-29,-1,-5,-5,0,7,-5,-41
73360436392,28,3,5,0,-3,-4,-6,7
73360451384,14,-90,3,17,-5,-6,0,77
73360451384,-13,-32,-17,-23,-30,-9,-9,-24
73360452167,-5,15,-1,5,-20,-20,-5,20
73360452167,-27,31,-11,-12,-29,-11,-13,-45
73360465727,5,4,-8,-1,18,11,11,-16
73360465727,27,6,3,8,-12,-20,3,30
73360473260,1,-22,7,-1,-21,-11,-1,-12
73360473260,-6,-3,-1,-2,-7,-5,4,6
73360488215,-44,11,-3,-13,-33,-16,-19,-35
73360488215,-5,5,-9,-4,-12,-12,-15,-6
73360497171,5,2,-5,-8,-1,3,-8,37
73360497171,13,-12,-4,-19,-13,-1,-7,7
73360511470,-13,17,-3,-11,-11,8,-11,-41
73360511470,10,37,2,15,5,3,-2,32
73360512215,-11,60,-2,-2,-6,11,6,-12
73360512215,-14,42,-1,5,-15,-7,-13,-11
73360525765,-2,54,-4,-11,-16,-17,-10,43
73360525765,-26,24,-2,-15,-45,-7,-7,-15
73360533303,16,-14,-3,-8,-22,-8,-12,-3
73360533303,-26,-14,-6,-1,-16,4,-4,-2
73360549707,-10,-24,2,-11,-31,-8,-8,-50
73360549707,-12,-26,-5,8,-6,1,8,22
73360556501,9,-24,-4,0,-16,-3,-1,5
73360556501,-18,-39,-2,-9,-3,-3,2,-34
73360571471,-6,22,-1,26,-13,-8,2,25
73360571471,-16,10,-10,-28,-35,-8,-11,-12
73360572283,2,-10,-5,56,-2,0,-4,28
73360572283,-5,-6,-6,-13,-8,-4,-4,-13
73360585743,-26,30,-14,-23,-19,-8,-11,-8
73360585743,-12,3,-5,-5,-12,-8,-10,-5
73360593303,-10,-8,0,-39,-2,2,-3,-9
73360593303,2,-12,-2,-6,6,-7,-3,15
73360608312,-36,-4,-17,-31,-10,-1,-16,-21
73360608312,0,-11,2,7,5,-2,-16,5
73360616492,-8,-1,-16,-9,-7,-2,-11,8
73360616492,-6,-5,6,6,19,13,5,1
73360631446,19,9,6,5,2,11,10,-9
73360631446,0,-27,6,17,12,10,-1,-2
73360632234,5,6,8,-1,3,1,9,-2
73360632234,-20,3,-8,9,6,1,1,-29
73360645824,38,-9,4,17,-17,-7,-7,48
73360645824,6,1,-6,-11,-15,-11,-1,10
73360653300,-25,-10,-12,-20,-11,-12,-20,19
73360653300,-6,3,3,-9,-1,2,-8,-26
73360668211,-2,-3,8,-9,11,12,-1,-24
73360668211,4,-29,3,18,1,1,10,20
73360683960,1,8,-12,-12,-18,-11,-7,-5
73360683960,0,1,-10,2,-14,-12,-4,9
73360699606,-19,3,-12,-11,-9,-10,-12,-13
73360699606,-16,20,-3,-13,14,9,-6,3
73360700371,-13,-9,-5,0,16,4,-10,-11
73360700371,0,-15,8,3,9,9,-3,10
73360705694,-2,-6,10,6,10,20,17,-1
73360705694,8,3,10,-10,3,11,-3,-11
73360713221,7,-8,9,12,-3,3,1,1
73360713221,11,0,3,2,-13,1,-9,12
73360728257,-4,-8,3,3,-1,-4,-6,12
73360728257,-10,-2,-11,-6,4,9,8,-31
73360736448,6,20,7,7,9,3,2,4
73360736448,12,1,9,13,4,-4,1,19
73360759645,1,-1,-4,-6,1,-8,-2,-22
73360759645,15,2,1,14,9,2,9,25
73360760430,-6,2,-9,-10,-15,-4,-1,-20
73360760430,-4,-4,-9,-3,-24,-7,-13,2
73360765778,-23,-7,-11,-5,-5,-9,-11,-17
73360765778,-18,-1,-6,-14,-4,-8,-13,-8
73360773316,-13,2,6,-1,8,3,0,-13
73360773316,-7,-2,-16,0,-1,1,11,26
73360788236,17,0,-7,-15,-30,-7,-23,10
73360788236,-22,3,-6,-9,-22,-6,-17,-25
73360796520,-3,-6,-4,-1,-26,-4,-15,20
73360796520,-13,2,-1,-8,-8,-6,-1,-13
73360811453,-33,-6,-2,-14,17,11,-3,-20
73360811453,9,1,8,2,22,26,20,2
73360812194,14,-3,-2,-2,-1,3,-7,25
73360812194,4,-2,6,1,-2,11,7,-10
73360825767,9,-5,11,1,-6,17,7,-2
73360825767,-14,-1,4,0,-11,-3,-12,-21
73360833266,-2,-1,10,10,7,6,14,5
73360833266,9,0,-2,3,2,4,1,-8
73360848371,5,0,11,12,19,13,18,13
73360848371,-3,-2,1,2,19,2,4,-1
73360856525,6,-6,-5,5,20,4,16,-2
73360856525,8,-4,-1,0,0,-10,-1,3
73360871267,8,1,3,6,13,6,13,-11
73360871267,8,-6,5,14,-13,-9,-1,12
73360879006,-9,-13,-14,-8,-24,-16,-21,9
73360879006,-16,-3,-17,-10,-7,-4,-16,-3
73360885811,-18,-2,-2,-1,-2,-6,-10,-12
73360885811,-1,-1,-6,-7,3,2,-3,9
73360893300,2,-10,10,-6,3,10,-7,-27
73360893300,-9,-3,8,1,-2,7,-4,-6
73360908318,17,0,-3,8,-4,-3,0,32
73360908318,2,1,-1,-5,-18,-2,-3,-5
73360916532,-17,2,-2,-7,-10,4,-4,-10
73360916532,-9,-1,-7,-10,-17,-8,-10,-13
73360931386,-18,-3,-1,8,17,-2,-6,3
73360931386,-3,2,-1,-8,15,6,-7,-1
73360932194,-1,7,2,-6,15,11,10,-8
73360932194,2,2,12,7,4,12,7,9
73360947222,11,-2,3,-1,-7,4,4,-4
73360947222,-1,-1,2,0,-7,2,-1,4
73360953192,-3,3,4,1,-6,4,2,-6
73360953192,-5,1,4,3,-2,2,3,-19
73360968235,-9,-4,5,13,-3,-1,3,-3
73360968235,19,1,9,19,20,0,6,63
73360976446,23,4,-5,-7,-3,-6,7,-7
73360976446,-4,3,-1,3,17,-1,3,-9
73361007124,-5,-1,-8,-5,1,-12,-4,-28
73361007124,-20,-3,-3,-7,-8,-9,-1,-33
73361008715,-2,-2,-6,9,-13,-7,-7,22
73361008715,5,2,-13,-18,-12,-15,-16,21
73361052148,-13,-2,-12,-11,-10,-13,-14,-12
73361052148,-19,-6,-14,-8,-1,-4,-12,-7
73361053728,-17,-7,-13,-21,1,-17,-16,-8
73361053728,-13,-3,-1,1,7,7,-4,-3
73361059652,4,0,4,7,6,-3,4,39
73361059652,-12,3,-6,-17,-1,3,-11,-29
73361061250,-4,-2,3,5,9,4,1,5
73361061250,-9,-9,-8,-17,4,-3,-7,-7
73361082189,-1,6,-9,-1,-4,-1,-1,10
73361082189,0,3,-6,-3,-6,2,3,-14
73361088283,-10,3,7,-2,5,9,-2,-11
73361088283,-1,3,0,-1,0,0,-5,4
73361112186,-18,-4,10,-5,3,24,-3,-50
73361112186,5,-5,4,3,4,1,-4,28
73361113774,26,-2,-2,3,-31,-11,-4,79
73361113774,-5,-2,-3,-8,-35,-13,4,-22
73361119577,-9,-1,-6,-11,-19,-10,-8,-11
73361119577,-33,0,-4,-10,-8,0,-8,-43
73361121186,-4,-4,4,9,13,10,9,-4
73361121186,5,-1,-9,-4,2,-1,-10,5
73361126556,-8,-3,-1,-5,16,6,-2,-1
73361126556,9,-4,-5,-7,-8,-5,-5,15
73361127279,-1,2,7,9,6,10,12,-8
73361127279,7,0,12,16,-1,11,7,6
73361134014,3,-2,1,-4,-15,0,-2,-11
73361134014,4,-1,8,5,-4,5,7,-2
73361134779,-6,-2,-6,-6,16,5,6,-4
73361134779,13,1,1,15,16,0,7,31
73361148276,23,3,-8,0,0,0,9,3
73361148276,30,-1,-1,-4,-10,-12,-3,10
73361156416,-13,-3,-9,-14,-25,-13,-7,-28
73361156416,-11,-3,0,-6,-13,-12,-16,-2
73361170855,-23,7,-16,-5,-9,-2,-11,12
73361170855,-25,0,-13,-5,-3,-1,-7,-14
73361178971,-14,0,-9,-8,6,-3,-5,-21
73361178971,-5,-1,1,-3,6,4,-4,6
73361193957,-4,-8,3,-4,-19,-2,-5,8
73361193957,-8,0,-5,-8,-22,-2,-3,-18
73361194739,-14,0,-2,-1,-26,0,-11,2
73361194739,-9,-2,-12,-8,-36,-11,2,-1
73361208294,-15,-1,-4,-9,-10,-4,-12,-19
73361208294,16,-3,10,19,-2,-3,-1,60
73361216476,-10,-4,-12,-6,-31,-12,-5,-20
73361216476,-12,0,-10,-6,-15,-9,-6,-15
73361230807,-16,-3,-5,-11,-19,-7,-8,-9
73361230807,-13,-1,-9,-5,-12,-5,-2,-15
73361238908,-14,-2,-7,-6,-23,-7,-15,3
73361238908,-2,3,-3,-3,-16,0,-11,7
73361269601,-3,1,-1,-11,-10,-8,-6,-2
73361269601,-28,1,-4,-4,-2,-2,-12,-3
73361271187,2,1,-3,-13,12,4,-4,-3
73361271187,-15,0,-1,-2,12,11,-7,-14
73361292082,-4,-1,2,2,19,1,-1,14
73361292082,6,-3,7,-4,13,15,10,-2
73361293751,5,-3,11,7,9,16,6,-6
73361293751,1,0,6,3,6,2,11,4
73361313246,5,-2,5,3,0,10,6,1
73361313246,-1,0,3,-3,5,3,7,-4
73361323779,9,-1,4,2,26,10,0,5
73361323779,5,0,5,-1,7,-1,9,0
73361328950,10,-4,-2,2,7,-8,5,-9
73361328950,7,-2,1,7,7,6,6,5
73361329678,12,-8,-4,-1,-20,-6,2,20
73361329678,11,-3,-7,-1,-20,-15,-7,-1
73361336816,-9,-3,-15,-5,-6,-11,-9,1
73361336816,-6,-2,-3,-5,-1,0,-4,-16
73361337742,-16,0,-5,-1,15,0,-6,-9
73361337742,-7,-5,-6,-4,13,3,-3,4
73361350804,3,3,7,-5,-8,5,-6,-5
73361350804,-9,-9,4,6,-19,0,-9,-1
73361358994,-7,4,8,-5,-7,3,-7,1
73361358994,-7,0,3,-3,-14,3,-3,-5
73361373975,2,-5,-3,-5,-11,-1,4,6
73361373975,-10,1,-5,-7,-19,-5,-7,-7
73361374732,-8,1,-5,-3,-13,-7,-10,-13
73361374732,-2,-4,1,0,9,-4,-6,10
73361388299,-7,1,-3,-15,16,2,-3,3
73361388299,-8,3,-3,-13,12,4,1,-4
73361396464,-9,-2,-2,-6,10,0,-5,-10
73361396464,-5,-1,12,6,14,16,4,-3
73361410742,-8,-2,9,13,2,15,3,1
73361410742,-5,2,6,-8,-3,13,7,-9
73361419036,16,-6,8,11,3,2,2,15
73361419036,10,0,2,1,-6,10,1,-6
73361434401,-2,3,10,6,-7,3,2,-2
73361434401,0,1,3,0,-9,2,-5,-4
73361435147,0,2,0,3,4,-9,0,-1
73361435147,5,-1,-5,4,13,-1,7,7
73361448237,12,1,-9,-2,-21,-22,-10,8
73361448237,4,7,-5,4,-7,-10,-1,0
73361456507,-19,-3,-12,-6,-11,-19,-12,-10
73361456507,-11,3,-6,-12,-5,2,-4,-5
73361487108,-8,1,-6,-7,-3,0,-4,-1
73361487108,-6,-2,-5,-7,2,-2,-10,6
73361488667,-3,0,-1,-4,8,13,1,-22
73361488667,-1,9,-3,-8,-16,0,-9,3
73361508245,-3,-2,-4,0,-23,-8,-5,28
73361508245,-7,7,-8,-5,-21,-15,-7,-15
73361517281,-23,47,-13,-2,-11,-6,3,-15
73361517281,27,-24,13,15,31,9,3,5
73361524611,-2,10,-2,-4,4,1,6,29
73361524611,-13,-1,-4,-19,7,-7,-13,2
73361526236,-11,-7,3,-3,6,12,4,-16
73361526236,-21,-2,-2,-12,1,4,1,-23
73361530762,11,2,10,1,-1,4,4,-9
73361530762,3,-4,6,13,14,22,6,9
73361538960,0,2,5,-5,-6,10,8,1
73361538960,4,5,3,-1,-12,5,-4,3
73361553930,3,-15,2,15,5,13,-3,-14
73361553930,3,-1,3,13,-7,-2,6,0
73361554679,6,-7,-9,9,10,1,9,13
73361554679,-3,-9,-5,4,6,-12,6,2
73361568275,3,3,-7,-7,-5,-7,-3,-3
73361568275,-9,-5,-10,-6,-7,-4,-18,-7
73361576464,-8,-11,2,-3,5,1,-8,5
73361576464,-2,4,-2,2,-5,1,-2,1
73361590827,-9,3,-4,-20,-12,-1,3,-8
73361590827,-5,-5,-3,-7,-10,-13,-4,2
73361599024,-6,-13,-2,-9,-9,-7,-10,4
73361599024,-14,2,1,-5,7,4,1,-3
73361613964,-1,-6,10,8,6,10,4,-13
73361613964,4,0,5,11,6,11,3,-1
73361614764,1,0,11,6,-3,-1,3,5
73361614764,-2,4,-4,-3,-4,-8,5,-9
73361652116,-2,-1,0,2,10,-3,9,2
73361652116,3,-6,-1,-5,6,-1,10,-4
73361653762,-6,0,-6,-3,-9,-1,-2,-2
73361653762,2,-6,-6,-3,-8,0,-3,7
73361674613,-7,-3,5,-11,10,16,2,-3
73361674613,2,-1,1,-2,-2,16,1,1
73361676200,4,-6,2,-9,2,4,-8,-4
73361676200,-3,-6,0,-7,-2,10,-8,-14
73361696476,-2,-2,-3,3,-3,1,-3,-2
73361696476,10,-2,6,-2,-12,-1,-6,28
73361704794,-14,-2,-4,-7,-4,-1,-8,-8
73361704794,-28,-1,-11,-12,-21,0,-15,-2
73361727117,-16,-1,0,0,31,8,4,-18
73361727117,-5,-1,5,-1,33,13,14,-6
73361728750,20,-3,12,3,8,16,12,4
73361728750,12,0,6,15,-7,-2,3,7
73361749585,6,-3,6,-1,-13,0,-12,-1
73361749585,-5,2,-5,5,-7,-8,0,-1
73361751190,1,-3,4,3,-1,1,5,3
73361751190,4,3,4,0,20,-2,9,3
73361771438,7,1,3,6,11,1,6,-2
73361771438,17,4,7,6,23,2,10,-4
73361778212,13,-3,10,7,26,7,9,-2
73361778212,7,-4,2,3,4,-6,9,0
73361802823,8,-8,-6,4,-18,-10,0,3
73361802823,-5,5,-10,-3,-28,-22,-11,-10
73361805299,8,2,-13,-2,-34,-18,-14,4
73361805299,-13,0,-13,-4,-16,-26,-18,1
73361824724,-20,5,-15,-10,-6,-16,-16,1
73361824724,-23,-6,-10,-6,-3,-1,-11,-3
73361826245,-16,-5,-12,-11,4,0,-4,-6
73361826245,-8,5,-4,-7,5,-3,1,-15
73361845789,-4,-1,6,5,5,7,-5,13
73361845789,18,-1,3,-1,-11,-3,-4,12
73361854829,6,1,3,-2,-10,1,-1,-4
73361854829,-5,-1,-3,-2,-15,-5,-4,4
73361877874,-11,3,-6,-4,-9,-6,-2,-20
73361877874,-4,-4,-7,-1,-7,-4,-4,-4
73361879514,-11,-1,-1,-6,1,-8,-7,5
73361879514,-5,-2,0,-4,9,4,-3,-12
73361883960,-9,-1,-2,0,16,0,-6,9
73361883960,9,0,5,-4,6,14,9,-4
73361884774,13,-2,5,10,1,-5,3,4
73361884774,3,-1,-1,0,-2,5,7,-3
73361891453,1,3,1,3,0,1,7,-2
73361891453,-8,-2,6,-1,-3,0,0,-15
73361892323,-5,2,-3,10,22,6,11,-9
73361892323,42,1,8,1,18,3,1,35
73361899696,24,-7,5,7,17,-1,10,15
73361899696,-7,5,-9,-5,6,-2,7,-8
73361901287,-5,-7,-1,3,0,0,0,-14
73361901287,7,-1,-1,15,-11,-7,-3,11
73361922190,8,-3,-4,-10,-11,-2,4,-2
73361922190,1,-4,-4,4,6,-8,1,1
73361923761,0,-1,-9,-6,-7,-9,-1,-2
73361923761,-15,-4,-9,4,-31,-17,-12,-9
73361943371,8,4,1,4,-6,-3,-1,-2
73361943371,-4,-2,-6,-2,-17,-5,-4,3
73361952306,-8,2,-3,-10,-24,-11,-8,1
73361952306,-8,-6,-6,-9,-20,-9,-6,-4
73361974697,-16,-6,-14,-5,-29,-22,-18,-7
73361974697,-1,2,0,2,-11,-6,-3,4
73361976237,4,-3,-10,-11,-16,-13,-21,0
73361976237,-25,2,-12,-15,-2,-7,-10,-11
73361997187,-6,3,-13,1,-5,-5,-12,7
73361997187,-13,0,-8,-13,8,-3,-9,-6
73362003261,-18,-4,-4,-3,5,0,-2,6
73362003261,-2,2,5,-4,9,7,1,-4
73362027111,-5,0,0,-7,4,6,-4,-10
73362027111,4,-5,1,0,3,6,-10,5
73362028716,2,0,7,-1,-10,1,0,2
73362028716,-1,1,-2,-1,-12,3,-2,-3
73362049624,-11,-4,5,-6,-7,6,-4,-3
73362049624,-6,1,-3,-1,-8,-9,-9,-1
73362051186,-11,3,-8,-3,5,1,-7,-2
73362051186,0,-2,-2,1,11,3,1,4
73362072097,-8,-5,-3,-3,16,-3,-3,-3
73362072097,-4,-5,9,4,12,10,15,3
73362073703,0,-2,9,9,10,15,14,-5
73362073703,5,-4,7,1,1,10,4,-6
73362093309,11,0,7,2,-5,12,9,8
73362093309,5,-2,3,2,-3,8,1,-8
73362103774,3,-1,10,5,-8,2,-4,10
73362103774,7,-2,9,11,2,16,5,7
73362124811,6,-1,7,-1,-2,14,6,-11
73362124811,-3,2,7,5,1,3,2,-8
73362126295,18,1,8,10,8,6,9,16
73362126295,3,-1,8,2,11,0,14,-3
73362147088,12,-2,7,5,21,0,16,-1
73362147088,-9,-1,1,8,26,3,12,-26
73362148804,33,1,9,10,27,-4,-8,28
73362148804,13,2,0,4,13,3,20,21
73362168317,-1,3,-2,0,-5,-11,-4,-26
73362168317,10,-1,6,1,22,-3,5,-18
73362201742,16,0,3,9,-6,-12,0,34
73362201742,2,-3,-10,-9,-18,-16,-4,-1
73362202648,-52,-6,-10,0,-14,-11,-16,-75
73362202648,80,-3,2,5,6,-9,5,64
73362208243,-1,4,-19,-3,-34,-19,7,35
73362208243,-23,1,-12,-18,-21,-15,-4,-25
73362208991,-6,4,-13,-5,-19,-15,-9,1
73362208991,-20,-3,-13,-6,-32,-11,-11,-35
73362209793,11,-2,0,8,-3,-7,-5,-9
73362209793,9,3,-6,2,-20,-20,-9,5
73362210642,35,-13,-3,-6,-8,-5,4,25
73362210642,-21,-5,-9,-6,-5,-12,-16,11
73362213749,-21,0,-10,-10,1,-2,-6,-31
73362213749,-6,-3,-6,-3,0,-14,-19,-15
73362221869,-11,2,-1,7,9,-1,1,28
73362221869,2,-3,-15,-17,-7,-2,-8,15
73362222675,-19,-18,0,-14,14,10,1,-37
73362222675,-6,-6,-1,-9,23,7,-5,4
73362229705,0,-4,2,-4,6,1,-6,19
73362229705,-18,-2,-5,0,5,17,9,-21
73362231233,-3,2,0,-10,0,2,-9,-26
73362231233,12,2,18,6,-3,-3,-5,37
73362237168,-7,-3,3,5,-20,2,0,-1
73362237168,-20,-24,-10,-12,-51,-17,-16,-30
73362238768,4,6,-14,-1,-6,0,2,28
73362238768,-3,-2,-9,-5,-27,-6,-14,-2
73362250782,-12,9,-8,-8,-22,-9,-10,-10
73362250782,-7,-2,0,4,5,-3,2,-5
73362265789,-19,-6,-16,-17,-10,-1,-14,-26
73362265789,-12,-4,2,4,20,8,-1,9
73362273353,-28,-3,-3,-9,8,1,-8,0
73362273353,30,12,10,0,25,7,-2,12
73362282283,-12,3,-3,-1,-5,-5,-11,11
73362282283,-7,-4,0,-5,30,17,14,-19
73362297097,-4,1,2,1,8,5,-6,-9
73362297097,-20,-2,2,-2,2,14,5,-17
73362298750,-2,-3,-5,5,4,8,9,-9
73362298750,25,-9,8,2,-12,-4,-11,49
73362310765,6,-3,3,-8,1,14,10,-10
73362310765,-4,4,2,-2,-4,-3,1,-3
73362319783,-2,1,-5,0,8,-3,9,-21
73362319783,-19,-4,-5,0,7,-6,-3,-34
73362333318,31,-6,0,16,25,-3,10,44
73362333318,1,-2,-2,2,14,-2,10,5
73362342357,1,0,7,2,0,0,-1,11
73362342357,4,0,-12,-8,-6,-9,4,-21
73362357233,9,0,3,-2,-17,-14,-12,6
73362357233,-15,-3,-7,-5,-7,-6,-12,0
73362358775,-16,-2,-4,-3,4,-3,-3,-9
73362358775,-1,-2,-3,0,5,8,1,1
73362394645,-5,1,-3,-7,-9,0,-4,-7
73362394645,-12,0,-1,0,-14,2,-9,8
73362396265,-12,-3,0,-5,-22,-8,-5,-8
73362396265,-3,-3,-1,-2,-21,-3,-3,5
73362425350,-8,2,-4,-6,-14,-9,-12,-3
73362425350,1,2,0,-4,-5,-1,-1,6
73362427740,-10,-4,2,-5,-1,-2,-8,-4
73362427740,-29,12,-11,-4,0,0,-11,-30
73362454630,3,3,2,8,22,8,-3,24
73362454630,14,1,4,-3,9,5,0,18
73362456225,-18,-3,-7,-19,26,12,2,-33
73362456225,-13,2,-2,-1,20,10,2,-25
73362469735,24,1,17,15,17,17,3,57
73362469735,-11,5,2,-16,8,12,4,-22
73362471333,-6,1,9,6,-3,11,7,-39
73362471333,58,1,5,25,4,8,15,64
73362492130,28,5,7,-9,-2,9,4,0
73362492130,-1,3,1,-5,1,12,15,6
73362493747,-9,3,8,-4,-9,12,4,-24
73362493747,-12,-4,6,-3,-2,9,2,-44
73362513377,10,-17,5,14,-3,3,4,22
73362513377,9,1,-1,13,-8,-4,6,15
73362523787,5,7,16,8,2,11,5,0
73362523787,1,-23,12,8,-1,5,9,-19
73362544828,7,-2,12,3,7,10,10,-40
73362544828,17,-5,13,14,-3,-2,0,56
73362546336,13,-1,1,1,0,1,6,21
73362546336,4,8,3,3,-6,8,3,-1
73362566465,-13,-3,-8,5,-10,-5,3,-22
73362566465,-5,1,0,11,3,-9,3,-52
73362573376,22,-33,4,6,8,-5,3,32
73362573376,0,-6,2,-5,9,-7,5,16
73362597862,-19,13,-1,-2,7,0,14,-23
73362597862,13,-34,5,8,25,9,10,1
73362599379,13,51,-4,5,23,-5,7,17
73362599379,4,33,0,-2,13,-2,5,-13
73362612741,11,8,-11,3,-16,-8,6,17
73362612741,-17,16,-7,-1,-5,-9,-2,-27
73362613531,38,-44,-4,12,-21,-7,-7,38
73362613531,-31,0,-15,-18,-8,-3,-21,1
73362614363,0,24,-23,-12,6,-2,-1,-12
73362614363,-5,-5,-7,4,-6,-4,-11,-18
73362615237,3,-3,-5,10,24,9,-8,31
73362615237,15,-2,-1,-10,18,10,18,10
73362619737,-2,-20,8,-1,-1,13,-1,-7
73362619737,2,-50,15,-5,3,22,19,-24
73362621317,-1,10,6,-3,7,2,12,-38
73362621317,11,-25,0,22,-2,-3,5,15
73362626487,-3,26,1,10,5,-6,7,34
73362626487,3,-2,-10,-3,-16,-14,-5,-11
73362627279,11,11,-12,-1,30,17,18,-15
73362627279,11,-5,5,8,-2,-18,-5,66
73362642144,-26,-19,-14,-36,-18,-6,-8,-76
73362642144,8,17,4,13,0,-11,-15,57
73362643755,-23,-4,-9,-11,-21,-4,-7,-6
73362643755,-20,7,12,-8,-3,12,-2,-60
73362657222,3,-11,-3,-6,14,10,2,22
73362657222,-2,19,-15,7,-18,-8,-6,47
73362658762,-7,2,-16,-15,-51,-22,-11,-20
73362658762,-16,5,8,-13,4,12,-7,-18
73362670857,-9,4,12,11,11,8,3,-14
73362670857,-16,-7,-3,-1,17,16,9,-50
73362679795,4,-12,10,15,12,12,12,18
73362679795,6,-5,-2,4,-9,-2,4,34
73362693284,11,-9,17,1,-10,3,-6,-24
73362693284,6,25,-4,-1,-4,-5,-4,96
73362702252,-8,-4,-22,-16,-18,-15,7,-19
73362702252,-41,12,-14,-4,-10,-8,-21,-55
73362717120,-6,17,-2,-13,-9,-12,-13,2
73362717120,-1,6,4,4,5,14,5,-31
73362718706,6,11,15,13,2,4,-7,16
73362718706,1,-10,-15,-9,-13,-8,8,13
73362730776,1,3,0,26,17,-7,12,-3
73362730776,3,-47,-5,-4,-2,7,1,-14
73362739782,-4,2,5,3,-7,1,-3,14
73362739782,3,-16,-5,12,-11,-3,6,-7
73362753369,2,5,-9,6,3,-6,-6,8
73362753369,-8,24,-11,-23,-23,-5,-15,-5
73362762370,-27,1,6,-9,8,-8,-10,-5
73362762370,9,8,7,9,12,15,6,-12
73362784749,-7,-5,1,-9,-17,5,-6,-6
73362784749,25,16,14,-10,-6,-4,-12,39
73362786201,-19,6,5,3,7,2,2,-10
73362786201,8,8,3,0,-6,15,-1,1
73362790887,-7,-33,3,2,-3,7,2,-5
73362790887,-1,4,7,10,28,8,10,-27
73362822861,6,-3,-13,-6,-29,-7,-6,13
73362822861,-1,-11,-5,-22,-21,-4,-22,3
73362823644,-17,-11,1,0,1,3,1,-1
73362823644,-5,0,4,4,7,14,4,-4
73362825217,6,2,2,0,-10,-3,-2,3
73362825217,-20,-5,-21,-11,-26,-18,-9,-29
73362837767,13,-36,10,-1,22,8,10,0
73362837767,-1,-11,4,0,-10,6,-1,48
73362839390,2,6,13,-5,4,14,4,-18
73362839390,12,10,5,6,18,-1,13,2
73362850921,5,18,-4,-1,8,-5,6,-10
73362850921,-11,-1,-9,-20,-22,-10,-21,-19
73362859836,-11,-4,2,0,9,10,1,0
73362859836,4,-3,14,-7,7,13,-1,8
73362873327,-4,-1,-4,-1,-24,-6,-13,15
73362873327,-15,-1,6,-6,15,-3,-2,-16
73362882374,-13,7,4,-12,12,-1,-10,-4
73362882374,5,-5,-1,5,-2,9,1,1
73362897188,-4,0,15,0,-5,5,-4,12
73362897188,-2,6,1,3,-5,-3,9,-22
73362898753,-10,9,-19,-9,-20,-16,-15,-23
73362898753,10,-77,6,19,2,-13,-12,52
73362910860,-24,73,-17,-27,-5,7,-12,-1
73362910860,-7,44,-8,-4,5,4,4,-16
73362919884,9,-45,2,3,6,5,0,-5
73362919884,-17,-31,-5,-8,-17,-2,-5,-10
73362933372,-10,44,-18,-10,-50,-19,-21,2
73362933372,-3,14,-10,-8,-35,-14,-18,-6
73362942319,-9,-21,-1,-8,-8,-1,-8,-4
73362942319,-11,11,6,-4,25,3,-3,-11
73362957235,-7,-41,8,8,30,12,6,19
73362957235,-14,3,3,-1,5,9,5,-29
73362958792,8,1,1,1,-2,0,1,26
73362958792,7,10,-11,-8,-10,-10,-3,23
73362970837,-1,-22,-5,-1,5,0,-2,-13
73362970837,8,-13,-1,-11,-2,-5,3,-12
73363004307,-19,9,0,-13,-1,-5,-15,-13
73363004307,-14,18,6,-4,3,13,1,-8
73363005123,-5,-14,-4,-17,-7,10,-2,-4
73363005123,-13,-22,-8,-4,-2,6,-8,-33
73363008327,13,-4,6,13,8,-3,-6,58
73363008327,12,17,-3,-12,-23,-1,-7,22
73363017241,-6,-13,-9,-5,-21,-10,-2,-27
73363017241,-19,-9,-12,-7,-13,-5,-7,-11
73363018780,-33,10,-15,-3,-16,-5,-24,-51
73363018780,21,15,9,4,16,5,0,48
73363030810,-31,-8,-20,-9,-16,-7,-8,-8
73363030810,-8,-2,12,2,34,3,-8,-9
73363039857,25,7,-3,1,2,3,2,60
73363039857,-28,6,-14,-30,-14,-9,-6,-33
73363053361,-14,-10,6,0,5,4,-6,-22
73363053361,12,4,7,-1,-6,1,-6,14
73363062343,-13,-2,4,-6,-5,3,6,-37
73363062343,-4,1,-2,12,1,-1,3,-10
73363076470,15,-3,9,7,10,-2,15,12
73363076470,-3,-6,1,8,5,-5,-3,0
73363083280,-1,3,1,7,13,-1,2,3
73363083280,3,1,-20,-1,-28,-16,-15,-3
73363100144,1,-23,-5,-1,-9,-9,-20,6
73363100144,-10,-2,-2,-7,-8,-6,-3,18
73363101707,-9,-6,-6,-7,-5,0,-1,-4
73363101707,-16,4,0,-3,2,1,4,-19
73363113398,1,-5,-1,4,-8,-6,-4,4
73363113398,-5,-52,-4,-4,-17,-7,-5,12
73363122347,-14,2,-12,-13,-24,-9,-11,-8
73363122347,-26,13,-7,-12,-16,-9,-16,-19
73363136538,6,15,6,-13,5,1,-10,13
73363136538,-11,6,9,1,17,18,9,1
73363175959,-5,4,-2,-2,5,10,6,-13
73363175959,10,-12,8,14,4,18,8,-6
73363176748,-9,-1,-9,4,-8,6,0,0
73363176748,11,4,-17,19,-6,-14,-7,10
73363178410,22,-11,0,3,11,0,-5,23
73363178410,-20,7,-9,-11,-17,-4,-4,1
73363182217,1,-6,-5,-26,-4,-3,1,-9
73363182217,-14,-2,9,-3,0,16,5,-12
73363183779,9,9,12,3,5,13,5,-8
73363183779,-14,9,-2,9,-2,-9,-5,-24
73363196536,22,-7,3,9,-3,-4,-9,30
73363196536,-4,0,-14,-9,-9,-5,-5,4
73363203336,-29,-5,-5,7,-7,4,-3,-44
73363203336,29,-3,21,26,1,-4,-5,90
73363219735,-11,4,1,-9,-4,7,8,-34
73363219735,-18,7,6,-4,11,6,-3,-55
73363221290,38,-11,12,9,16,1,-1,46
73363221290,-21,-7,-16,-26,-4,-1,-15,-16
73363233339,0,2,-1,-3,13,13,-4,11
73363233339,1,2,10,-23,-12,-1,-8,-17
73363242322,-5,8,-6,-12,-30,-7,0,17
73363242322,-11,-8,-16,0,-19,0,5,-14
73363256528,9,5,-10,-4,-2,-3,-7,16
73363256528,-30,0,-15,-11,3,-1,-9,-34
73363263387,-27,0,6,1,11,2,-8,-23
73363263387,16,-2,7,13,14,9,7,14
73363279677,-10,-6,-1,14,-11,-2,0,17
73363279677,-1,2,-3,1,5,0,5,-32
73363281289,-3,-5,5,14,11,-16,-13,-21
73363281289,49,-5,8,-17,0,-2,-4,63
73363293298,-30,3,-26,-26,-2,7,-11,35
73363293298,12,6,6,-10,0,9,-6,3
73363348545,-9,-8,-3,-11,-9,8,-7,-18
73363348545,-49,-3,-3,-21,-12,-2,-10,-95
73363349333,1,2,1,19,4,-5,1,10
73363349333,5,-11,-6,-13,-13,-9,-16,32
73363356310,-27,-5,-8,-13,3,-1,1,-13
73363356310,-4,-6,1,1,19,6,3,-9
73363362193,-2,-18,15,9,-4,5,1,-37
73363362193,25,11,0,-1,-4,13,14,-1
73363363796,36,-1,2,14,6,-4,-1,82
73363363796,-42,-5,-12,-11,-15,-17,-21,-77
73363369015,58,-1,4,4,-7,-23,-7,10
73363369015,-19,6,-25,-4,-45,-49,14,15
73363369765,19,-11,-22,7,-20,-38,9,-40
73363369765,34,21,-44,19,-43,-41,0,75
73363376559,-29,6,-50,-15,-54,-50,0,-76
73363376559,18,5,-28,23,-25,-44,-5,13
73363383361,13,25,-68,-3,-95,-48,-5,2
73363383361,-28,0,-39,7,-31,-31,-4,-62
73363399773,27,12,-37,11,-75,-38,-37,78
73363399773,-9,-4,-5,-13,-11,9,-12,19
73363401344,-5,7,0,-27,-1,6,2,-5
73363401344,-20,11,6,-9,0,-5,-3,-48
73363413310,-7,-1,23,23,44,11,17,-12
73363413310,13,-6,3,-1,-3,11,5,6
73363422356,-33,53,10,0,-9,-1,-6,-61
73363422356,47,-33,20,19,5,0,2,89
73363436540,11,-24,13,11,3,7,8,55
73363436540,-4,-10,-20,-4,-1,-9,10,-11
73363443338,-20,6,-12,-12,-6,-9,-4,-46
73363443338,-26,12,0,-23,-4,-8,-12,-18
73363459768,-11,21,0,-2,3,7,3,-24
73363459768,10,6,16,14,7,7,-3,5
73363461362,-1,-11,-14,-17,-36,-8,-11,5
73363461362,4,6,-6,1,-13,-2,-1,11
73363473334,-26,-18,-9,-23,-13,-5,-6,-5
73363473334,-21,7,15,28,18,11,-1,-41
73363482325,39,-15,6,13,18,15,12,106
73363482325,1,-6,13,2,6,15,5,22
73363496962,1,12,-3,7,7,0,9,-56
73363496962,11,-1,-32,-12,-62,-30,-16,-2
73363503390,-15,-1,7,0,0,1,-5,-42
73363503390,11,-5,2,4,-10,4,-3,8
73363520150,9,12,5,8,8,3,-5,-8
73363520150,-4,7,12,3,5,14,-1,13
73363533963,17,-18,4,27,38,1,6,3
73363533963,-14,-3,-15,-26,-23,-9,-14,-25
