timestamp,emg1,emg2,emg3,emg4,emg5,emg6,emg7,emg8
487654605345,0,-1,-5,-5,-1,2,-2,-2
487654605345,-1,1,4,5,0,-5,-3,0
487654606141,-1,0,3,-2,0,-1,-1,-2
487654606141,-4,-4,-6,-2,-2,-1,-1,-4
487654610269,-1,1,3,-2,0,-1,0,1
487654610269,-2,-3,0,4,0,0,0,-1
487654613997,-2,-3,-5,-2,-4,0,-1,-1
487654613997,-1,-1,1,-1,-1,-1,-1,-1
487654616024,-2,-3,-5,-9,-1,-1,-1,-1
487654616024,-1,0,-7,-3,-1,0,-3,-2
487654635012,0,1,7,4,-2,-1,0,0
487654635012,3,2,6,4,1,1,2,0
487654638553,-1,-2,-3,-2,-1,-3,-2,-2
487654638553,0,-1,2,2,-1,-1,-1,-1
487654654211,-1,-3,-9,-7,-3,0,0,-1
487654654211,-1,1,-1,3,-1,-4,-4,-2
487654654923,-3,-4,-7,-8,-3,-3,-2,-2
487654654923,-1,-2,-1,-5,0,1,1,-1
487654677872,0,-2,-2,4,-1,-1,-2,-1
487654677872,-1,-1,0,-2,-1,0,2,0
487654680018,0,-2,1,5,0,0,0,-1
487654680018,0,-2,-6,-7,-2,-6,-1,-1
487654698361,-2,-2,-3,-8,-2,-2,-1,0
487654698361,-1,1,-7,1,-2,1,0,0
487654731395,-2,0,-3,-1,0,1,0,0
487654731395,-1,-3,-7,-5,-2,-2,-4,-2
487654737182,0,1,3,-5,-3,-4,-2,0
487654737182,-1,0,4,2,-3,-1,0,-2
487654737924,-2,-1,2,0,-1,-1,-1,-2
487654737924,-2,-1,-4,0,1,0,2,-1
487654738742,-1,0,-1,4,2,2,0,0
487654738742,1,-1,-1,-2,-2,-6,-5,-1
487654744888,1,-2,-2,-7,0,-2,-1,0
487654744888,-1,-2,-4,-2,-3,-2,-2,-2
487654758347,-2,-2,-2,3,-1,0,-1,-2
487654758347,-2,-2,-2,-1,-2,0,2,-1
487654767350,-2,-1,-1,-3,-2,-1,-2,-1
487654767350,-1,-4,-2,-4,-1,0,-1,-1
487654773334,1,-2,-4,-3,-1,-2,0,-1
487654773334,0,-2,-4,-9,-1,-4,-2,-2
487654789888,-1,1,-3,7,-2,-3,-1,-1
487654789888,-3,2,1,1,-1,-1,0,1
487654804714,-3,-1,-1,1,-2,2,-1,-1
487654804714,-1,-2,0,-2,-1,0,0,0
487654806334,-1,-6,-11,-12,-2,-2,-1,1
487654806334,3,3,14,12,0,0,-2,0
487654827259,0,1,-1,-1,-1,-4,0,1
487654827259,-2,2,5,5,0,0,0,-1
487654828906,-2,0,0,-1,-2,-2,-2,-2
487654828906,-2,-1,-7,-6,-3,-1,0,-3
487654849691,-2,0,7,6,-1,-1,-2,0
487654849691,-1,-2,-3,-2,-2,0,-2,-3
487654851312,0,1,2,5,0,1,2,-3
487654851312,-3,-4,-7,-17,-3,-1,-2,-1
487654864714,2,3,13,18,1,0,0,-1
487654864714,0,-1,-3,-2,-2,0,0,-2
487654866270,0,-1,1,3,-1,0,0,-2
487654866270,-2,-2,-3,-6,-2,1,0,-3
487654887246,-2,-3,-9,-10,-4,-1,-2,-1
487654887246,-2,-1,-2,-5,-2,-4,-3,-1
487654888903,-1,-1,-1,0,-2,3,2,-1
487654888903,2,2,2,5,0,-4,0,-1
487654909728,-2,0,1,-4,-1,-2,-1,-2
487654909728,0,0,3,10,-1,0,0,1
487654911273,-2,-4,-8,-10,-1,-2,-1,-1
487654911273,-1,-3,2,5,-1,0,0,-2
487654924766,-2,-3,-5,-7,-1,-1,-2,-2
487654924766,-3,-2,-7,-9,-2,-2,-2,-1
487654926268,2,0,4,2,-2,-3,-2,0
487654926268,0,-3,-5,-1,-1,-1,0,2
487654947245,1,1,15,12,2,1,2,0
487654947245,-1,-2,-5,-3,0,0,-3,-2
487654948833,-1,0,-1,-1,-3,-4,-2,-1
487654948833,-2,-1,-5,-6,-4,-2,-1,1
487654969728,0,-5,-13,-11,-3,-2,-3,-2
487654969728,1,2,0,3,0,1,-1,0
487654971268,-2,-2,1,-3,-1,-2,-1,-3
487654971268,0,2,1,-8,-1,-1,-1,0
487654984775,-3,-1,2,5,-1,0,-2,-1
487654984775,0,-2,1,-3,-2,-4,1,1
487654986311,-1,0,-2,3,-2,-2,-1,-1
487654986311,0,1,-1,2,0,0,-1,-1
487655014783,-1,-2,-9,-8,-4,-1,-1,-1
487655014783,-2,-4,-3,-4,0,0,-2,-2
487655016321,-1,-5,-11,-17,-3,0,-1,0
487655016321,3,5,22,28,3,0,1,0
487655029715,-1,-3,-7,-5,-2,-3,-4,-1
487655029715,-1,-1,-5,0,-2,-3,-1,-3
487655031330,0,-2,-3,-5,-1,-1,-1,-1
487655031330,-3,-3,-7,-6,-2,0,-1,-2
487655044084,-3,-3,-8,-5,-1,2,0,-2
487655044084,0,1,7,-2,-2,-3,-2,-1
487655050927,-1,2,0,2,-2,0,0,0
487655050927,1,-3,1,5,0,-3,-2,-1
487655067256,1,0,-2,-4,0,-1,2,-1
487655067256,-3,-3,-8,-6,0,2,0,-1
487655068870,-3,-3,6,7,2,2,-1,-1
487655068870,-1,-1,-4,-4,-4,-1,-1,0
487655089724,-1,-4,-1,-2,0,-3,-2,-1
487655089724,-1,1,-1,0,0,0,-1,0
487655091264,0,2,2,1,-2,-1,-2,0
487655091264,-1,-2,-2,-4,-1,1,0,0
487655104089,-3,-1,-5,-12,-1,0,1,-1
487655104089,-1,-3,0,5,-2,2,-1,-1
487655110914,-1,-3,1,3,0,0,-1,-1
487655110914,0,-1,3,3,0,-3,-3,0
487655127228,-4,-1,-3,-4,-1,0,-3,-3
487655127228,0,1,-1,-9,0,-1,0,-1
487655128869,-2,-2,0,8,0,-1,-1,-1
487655128869,-2,-3,-5,-5,-1,0,-2,-1
487655149706,-2,-1,-2,-5,-2,-4,-2,-1
487655149706,0,-1,2,6,-2,0,0,-1
487655151299,-1,1,-3,-4,-3,-1,-1,-2
487655151299,-3,-2,-4,-4,-2,0,0,-1
487655164061,-1,-1,2,4,-2,0,0,-1
487655164061,-2,-4,-6,-5,-2,-4,-2,0
487655170934,0,0,1,-1,-1,2,-1,1
487655170934,-3,-2,-3,-1,-1,-3,-1,0
487655187195,1,-3,1,-1,-2,2,0,1
487655187195,-1,-1,-1,2,-1,1,2,0
487655188761,0,0,-1,-1,-1,-3,-1,1
487655188761,0,2,7,-2,-1,-2,-1,-3
487655209469,-1,-2,-8,-5,1,-1,-1,0
487655209469,2,1,10,15,1,5,0,0
487655217347,-1,2,-2,-2,0,-3,-4,1
487655217347,0,-5,-12,-12,-3,-5,-1,0
487655224068,1,2,4,-2,-2,-1,1,0
487655224068,-3,-5,-2,7,0,-3,-1,-1
487655230919,0,1,5,-4,-1,5,0,-2
487655230919,0,-4,-1,0,0,2,-2,-1
487655254713,1,2,4,6,-2,-6,-2,-1
487655254713,-3,-3,-11,-10,-1,-1,-3,-1
487655256292,-1,2,7,0,0,-3,1,-1
487655256292,-2,0,-1,2,-2,1,1,0
487655269750,-1,-2,-4,-5,-1,0,-1,-1
487655269750,-1,1,0,2,-2,-1,-3,-3
487655271360,-1,-1,0,2,-1,-3,-1,0
487655271360,-3,-2,-2,-3,-2,0,-1,-3
487655284103,-1,-2,-2,0,2,0,-2,0
487655284103,1,2,1,-4,-3,-1,0,0
487655290912,-1,-3,-2,0,1,3,1,-2
487655290912,-1,0,-3,-1,-2,-5,-3,1
487655307762,-3,-1,5,6,-2,-6,-1,-1
487655307762,-3,-3,-4,-8,-1,-2,-1,-1
487655308759,-1,-3,-3,-1,-2,-1,0,-1
487655308759,-2,0,1,-3,-1,2,-1,-2
487655330197,-1,0,2,1,-2,0,1,-1
487655330197,1,0,-2,-4,-1,-2,1,-1
487655331600,1,-2,0,7,-1,0,-2,0
487655331600,-1,-2,1,4,0,0,-1,-1
487655344050,-1,1,-2,-4,-2,0,0,-2
487655344050,-3,-1,1,0,-1,0,-1,0
487655350933,-2,-1,-8,-7,-5,-5,0,-3
487655350933,0,2,4,-6,-3,-2,0,1
487655367211,0,-2,1,5,-1,0,-2,-2
487655367211,-1,0,2,11,0,1,-2,-2
487655368867,-1,-1,-5,-2,-1,0,-2,-2
487655368867,-4,-4,-4,-2,-2,-1,-1,-1
487655389738,-1,0,-2,-6,-2,1,0,-1
487655389738,1,-2,-4,-6,-2,-1,-3,0
487655391296,-1,-2,-6,-10,-2,0,0,0
487655391296,-1,-3,1,9,1,-5,-2,-2
487655403363,1,5,16,15,0,-1,-2,0
487655403363,-2,-2,-5,-2,-1,-2,-1,-1
487655412349,-2,-2,-2,-1,-1,-3,-1,0
487655412349,-1,-1,-2,-4,-1,6,-1,0
487655427229,-1,-3,-9,-6,-1,-5,-1,0
487655427229,-1,-1,2,-1,-1,-2,-2,-3
487655428803,0,0,4,1,0,-1,-3,-2
487655428803,-1,-2,-6,-4,-1,1,1,-2
487655449702,-2,-3,-4,-3,-2,-1,-2,-2
487655449702,-3,-3,-4,-3,0,-2,1,-2
487655451356,-1,0,0,-13,-3,-3,-1,-1
487655451356,-1,-1,1,16,-1,-2,-2,0
487655463369,0,-1,2,7,1,2,-2,0
487655463369,-1,-2,0,-3,-3,0,0,1
487655472373,-3,-2,-3,1,0,-1,1,0
487655472373,1,-3,-7,-16,-2,-2,0,-1
487655487675,-2,-3,-5,-8,1,1,-1,-1
487655487675,0,-1,2,9,-2,-2,-2,-1
487655489318,1,2,2,2,0,-4,-1,1
487655489318,-3,-3,-6,-12,-3,-4,-2,-2
487655509729,-1,-4,-6,3,-1,-1,0,-3
487655509729,2,5,1,-2,-1,-2,-1,0
487655511345,-1,-4,-2,3,1,2,-1,-1
487655511345,0,0,3,1,-2,-1,1,-1
487655523357,-1,-3,-5,-7,-1,2,0,-1
487655523357,-2,-3,-5,-13,-3,1,0,-1
487655532363,-1,0,6,12,0,-6,-2,-2
487655532363,-1,2,1,2,-2,-2,-3,-1
487655547218,-1,-3,-3,-6,-2,0,0,-1
487655547218,-1,-2,1,1,0,2,1,-2
487655548883,-2,-3,-3,-4,-3,0,0,-1
487655548883,-1,0,1,2,1,-1,1,0
487655570134,-1,-1,-2,-1,-3,1,-2,0
487655570134,1,-1,-1,-2,-2,-7,-4,0
487655571901,-1,-2,-3,-9,-3,0,0,0
487655571901,-1,0,4,5,-2,-1,-2,-2
487655583396,-1,-1,-3,0,-1,1,0,0
487655583396,0,-1,2,3,-1,1,1,-2
487655592384,-1,0,-2,1,0,1,-1,2
487655592384,-1,-1,-3,-7,-3,-2,-1,-2
487655607238,-1,0,-1,-1,-1,-2,0,-1
487655607238,-2,-5,-9,-3,-2,-1,0,-2
487655608877,2,2,5,4,0,-1,-1,-1
487655608877,-1,0,-3,-1,1,1,0,1
487655629705,-2,-1,0,-1,-2,-3,0,0
487655629705,-2,-1,0,-5,-1,0,-1,-1
487655631295,-1,-2,-2,-1,-1,-3,-1,0
487655631295,-2,-4,-2,0,-1,-1,-2,-1
487655643362,-1,3,3,0,0,1,-2,-2
487655643362,1,0,-1,1,-3,-3,0,1
487655652313,-2,-2,-3,-3,-1,0,-2,-3
487655652313,-1,-1,-1,0,0,0,1,-1
487655667238,-1,-1,-2,-1,-2,-2,0,0
487655667238,-2,0,4,3,0,1,-2,0
487655668877,0,-2,2,2,0,0,-1,-2
487655668877,-1,2,0,-1,-3,-3,-1,-1
487655689715,1,-2,-5,-3,0,1,-1,-1
487655689715,-1,-1,-6,-11,0,0,0,-1
487655691316,-1,-2,-4,-11,-3,-4,-1,-2
487655691316,0,5,6,16,2,1,-1,1
487655719715,0,-2,3,11,-2,-2,-2,-1
487655719715,-2,-1,-1,-2,-2,0,-2,-2
487655721309,-2,-2,-4,-4,-2,-1,-1,0
487655721309,-2,-4,-9,-14,-2,-2,-1,-4
487655734696,-3,-3,-3,-5,0,-4,-1,-1
487655734696,-1,-1,-3,3,-1,-2,-2,-1
487655736325,0,-1,0,-3,-1,0,0,-3
487655736325,-2,-2,-3,-1,-1,-1,0,-1
487655749034,-1,-2,-3,-2,-2,-1,-3,0
487655749034,1,2,3,1,0,-1,1,0
487655755815,-2,-3,-2,-4,-3,-9,-2,0
487655755815,0,-3,-1,0,-3,-2,-3,-4
487655772199,-1,0,1,5,3,0,-1,-3
487655772199,0,0,3,0,1,2,-1,0
487655773878,0,-2,-2,3,-3,2,-2,1
487655773878,0,0,2,-2,0,1,-1,0
487655794727,0,-4,-9,-19,-2,0,1,0
487655794727,0,5,7,9,3,-2,0,0
487655796309,0,0,0,8,1,-1,0,-1
487655796309,-1,-2,-4,-4,-1,-4,-1,0
487655809034,1,3,8,3,-3,-1,-1,-1
487655809034,-1,-5,-5,-6,-1,-1,-2,0
487655815873,-2,-3,-7,-3,-3,0,0,-3
487655815873,0,0,5,1,2,0,-2,-1
487655832186,-3,0,-2,-5,-2,-1,2,0
487655832186,0,-3,-2,3,-1,-1,0,0
487655833920,-1,1,2,1,-5,-4,-3,-1
487655833920,0,-2,-3,-6,-1,0,-2,0
487655855334,-2,0,-3,0,-2,-4,-2,0
487655855334,0,1,4,4,0,3,2,-2
487655856730,1,2,3,2,3,1,2,0
487655856730,-2,-3,0,0,-2,-6,-4,-1
487655868423,-2,-2,-1,-7,-1,-2,-3,-2
487655868423,-2,-3,-11,-7,-3,-3,-3,-1
487655877769,0,1,10,16,-1,2,-1,-2
487655877769,-1,-2,-4,-12,-2,-1,0,-2
487655892303,-2,-1,0,7,1,1,-1,-2
487655892303,-2,-2,-2,-6,-2,-4,-3,-2
487655894290,0,-3,-4,-6,-2,-4,-1,-1
487655894290,2,3,8,7,2,1,2,0
487655915075,-1,-2,-4,-6,-1,-1,0,-1
487655915075,-2,1,0,-3,-2,0,0,-1
487655916469,-3,-5,-8,-8,-1,1,0,0
487655916469,-2,-3,-4,-4,-3,-1,-2,-1
487655928577,0,0,3,6,0,1,0,-1
487655928577,1,-2,2,-1,-1,-3,-4,-1
487655937406,0,2,1,-1,-2,-3,-3,0
487655937406,-3,-2,-1,-3,0,2,0,1
487655952252,0,-2,0,-3,-2,-1,-2,0
487655952252,-2,-1,-1,1,-1,-1,-1,-1
487655953910,-1,-1,2,-6,0,1,1,0
487655953910,-1,-1,-4,-2,-1,2,-2,-4
487655974918,1,1,4,9,-2,-5,-2,0
487655974918,-2,-2,-4,1,-1,-2,1,-1
487655976250,-2,0,-4,-3,0,1,0,-1
487655976250,-4,-4,-5,-3,-4,-3,-1,-2
487655988393,1,1,5,3,2,0,-2,0
487655988393,1,2,8,6,1,2,0,2
487655997351,0,-2,-3,-1,1,2,0,-2
487655997351,-1,1,-3,-2,-2,-1,0,1
487656012999,-4,-4,-7,-10,-1,-2,-1,-1
487656012999,1,-2,-4,-2,-2,-4,-1,-2
487656013869,-2,-3,-1,-3,-2,1,0,0
487656013869,0,0,-2,-4,-2,2,1,-1
487656034734,-1,-3,-1,4,-2,1,-1,-1
487656034734,-1,-1,-2,-2,-3,-6,-2,0
487656036344,1,-1,-3,-5,-2,0,-2,-2
487656036344,0,0,-1,6,0,1,-3,0
487656048385,-2,-1,-4,-5,-3,1,-1,-1
487656048385,-2,-2,-5,-6,-3,1,2,-1
487656065299,-1,-1,-2,3,-2,-1,-1,-2
487656065299,-1,-4,-1,-9,-1,-2,-1,0
487656072387,0,0,-6,2,-1,0,-4,-2
487656072387,-2,-1,1,2,-3,-7,-6,-1
487656073858,0,0,-3,-4,-2,0,-2,-1
487656073858,0,-3,-6,-3,-1,-2,0,1
487656094778,-1,1,3,4,1,1,0,0
487656094778,0,0,1,0,0,1,0,-1
487656096292,-1,0,1,5,0,-1,0,-2
487656096292,-2,-3,-4,-7,0,1,0,-2
487656108409,-2,-1,-1,-4,-3,-5,-1,-4
487656108409,-2,-2,-9,-4,-1,0,-2,-1
487656117378,-1,0,2,8,0,-2,-3,-2
487656117378,1,2,6,4,-1,-1,0,1
487656132222,-1,-3,-4,-8,-2,-1,0,-1
487656132222,-3,-2,-4,-3,-3,0,0,-1
487656133867,-1,0,-1,3,-1,0,-1,0
487656133867,-2,-2,-4,-2,-1,-1,-5,-1
487656154715,0,1,0,1,0,-3,-2,0
487656154715,-1,-5,-4,-8,-1,1,3,0
487656156319,0,-1,2,2,-1,-1,-1,-1
487656156319,1,-1,4,6,-2,-2,-1,-3
487656168365,-2,0,-1,-6,-5,0,-2,-1
487656168365,-1,0,2,1,-1,-2,-4,-3
487656177353,1,-2,-2,-4,-1,0,2,0
487656177353,-1,0,1,7,2,2,0,0
487656192242,-1,-1,1,0,-1,-3,-1,0
487656192242,0,0,0,-1,-2,-2,-1,-1
487656193880,-2,-2,-2,-2,-1,-2,-1,-1
487656193880,-1,-1,-2,-3,-2,-3,0,-1
487656214726,-1,-3,-4,-7,-1,1,0,-1
487656214726,0,0,8,15,-1,-2,-1,0
487656216317,-2,-2,-2,-3,-2,-2,-1,0
487656216317,0,0,1,-1,-3,0,1,-1
487656237215,-1,-3,-6,-13,1,1,0,-1
487656237215,0,1,3,11,-1,0,-1,-1
487656238835,-2,-2,-4,-3,0,0,-1,-1
487656238835,-2,-1,2,-1,0,-1,-2,-1
487656252273,0,-1,-1,-1,-11,-4,-1,-2
487656252273,-1,0,-7,-8,9,7,2,0
487656253865,-2,-3,-2,-3,-3,-4,-4,0
487656253865,0,2,-2,2,17,3,-1,-2
487656274719,-1,-1,-2,0,-11,-1,0,0
487656274719,0,-1,-1,-8,-1,-3,-1,-1
487656276827,-1,3,4,5,3,5,1,-1
487656276827,-1,-3,0,3,-10,-6,-3,-3
487656288520,-2,-2,-3,-3,1,-5,0,-2
487656288520,0,0,3,-1,-4,2,-1,1
487656297448,1,0,-5,-3,-1,-1,-2,1
487656297448,-2,1,6,2,1,0,-1,0
487656312411,-1,1,3,11,11,5,-1,1
487656312411,-3,-3,-5,-8,-14,-3,-1,-1
487656313862,-1,-1,-1,-9,-4,-3,-2,-1
487656313862,1,-3,-11,-5,0,-4,-1,2
487656334852,1,3,17,20,2,-1,1,0
487656334852,-1,-2,-2,-4,1,0,1,0
487656336898,-2,-2,-4,-2,-1,-2,0,-2
487656336898,-3,0,-8,-12,-5,2,3,-1
487656357225,-1,0,2,5,2,4,1,-1
487656357225,-1,-1,0,5,1,-5,-4,-3
487656359474,0,-1,-1,1,-5,-6,-5,-2
487656359474,-3,-5,-2,-2,-3,-1,-1,-1
487656379817,-3,-1,-9,-10,0,-4,-2,-1
487656379817,-1,0,-2,-7,-2,0,-2,-1
487656382043,-2,-3,0,1,-1,2,1,-1
487656382043,2,0,5,0,0,-1,0,0
487656395288,-1,-2,-2,0,-3,-2,0,-1
487656395288,-1,-3,-5,-2,1,-1,-2,-1
487656396425,0,-2,-7,-9,0,-3,-1,-1
487656396425,0,0,5,6,-2,-1,1,1
487656417254,0,-5,-5,-8,-3,-2,-1,-1
487656417254,-1,-3,0,-4,-1,2,0,-2
487656418966,0,-1,-2,-7,1,-1,-1,-1
487656418966,-3,0,-2,4,-2,-2,-2,-2
487656431645,1,-3,-3,-9,-4,-3,-4,-2
487656431645,-3,-2,-1,6,-2,1,2,-1
487656445985,-1,0,-1,0,-1,-1,-2,0
487656445985,0,2,2,1,-2,-6,-3,-1
487656454790,-1,-3,-4,-6,0,-2,-1,-1
487656454790,0,-1,-5,-4,-1,-2,0,1
487656456445,-1,-1,4,1,1,0,0,-1
487656456445,-3,-2,-5,-7,0,2,0,-2
487656477326,-1,-2,-4,-2,-2,-2,-3,-1
487656477326,-3,1,8,11,0,-1,0,-1
487656479043,-1,-1,-4,5,-4,3,0,0
487656479043,2,-2,-1,0,-3,-3,-3,0
487656491728,-1,2,0,-6,-1,-4,-3,-2
487656491728,-2,-4,-7,-7,-2,-2,0,-1
487656499064,0,-3,2,0,1,-1,-2,-2
487656499064,-2,-3,-5,-9,0,1,1,0
487656515452,-2,0,-5,5,-3,-3,-2,-1
487656515452,1,4,12,10,-1,-3,-2,-1
487656516518,-2,-1,0,0,-2,-3,0,-2
487656516518,0,-2,-4,-2,-1,-2,-2,-1
487656537396,-1,-3,-7,-6,-2,2,2,-2
487656537396,0,0,0,-8,0,-1,-5,-2
487656539513,1,7,19,22,2,0,1,1
487656539513,0,-1,-1,0,-2,-1,0,-2
487656551694,-1,1,-3,-2,0,-1,0,0
487656551694,-2,0,-7,-7,-1,2,-1,-1
487656558765,-2,-1,-7,-10,-3,-4,-2,-1
487656558765,0,0,-2,-1,-3,-1,1,-1
487656575309,0,1,7,7,0,-1,-2,0
487656575309,0,-2,-5,-5,3,1,-1,0
487656576736,-4,-6,-8,-11,-2,-1,-2,-2
487656576736,1,3,0,2,-1,-3,-2,0
487656597302,-2,3,11,16,2,0,-1,-1
487656597302,-2,-4,-6,0,-2,-2,1,-3
487656598979,-2,0,0,-3,-1,-1,-1,-1
487656598979,0,-5,-7,-11,-2,1,-3,0
487656611669,0,-2,0,3,-1,0,-2,-1
487656611669,-2,-1,1,-3,-3,-2,-2,1
487656618558,-1,-3,-7,-1,-1,0,-1,-1
487656618558,-3,0,0,-8,-3,-1,-2,-1
487656634320,0,-1,7,8,1,1,1,-1
487656634320,-1,-1,-3,-1,0,-1,0,-2
487656643322,-1,-3,-4,-3,0,0,-1,0
487656643322,0,0,-1,-1,-1,-2,-1,-2
487656657242,-2,-5,-6,-10,-4,-2,-1,-2
487656657242,0,-1,1,4,-3,-2,-1,-1
487656659366,-1,-2,0,-6,-4,1,-1,-1
487656659366,-2,-3,-1,4,2,0,1,-2
487656671600,-1,1,2,-1,2,1,0,0
487656671600,0,2,3,9,-2,-3,-1,-2
487656678801,0,-2,-6,-4,-2,-2,-1,-2
487656678801,0,-1,-2,0,-3,2,0,-2
487656694720,-3,-4,-12,-12,-2,-8,-3,0
487656694720,-3,-2,2,1,0,-2,0,1
487656696351,0,0,3,3,-2,-1,0,-2
487656696351,-3,-3,-2,-4,0,0,-2,-1
487656725176,-1,-1,0,6,-2,1,0,0
487656725176,1,1,-4,-9,-1,-1,-2,-2
487656726681,-3,-2,-1,5,1,-2,0,-1
487656726681,-1,2,5,2,-4,0,-1,0
487656732123,-1,0,-2,-3,-1,-4,-3,-1
487656732123,-2,-3,-6,-3,-1,-4,0,1
487656738755,-2,2,4,-4,-1,1,2,-2
487656738755,-1,-3,-4,-7,0,-2,-2,-1
487656754873,-1,0,0,1,-1,0,-2,0
487656754873,-1,-1,-3,-2,-3,-3,-3,0
487656756352,-1,-1,-2,2,0,0,-1,-1
487656756352,0,-1,2,-2,-1,0,0,0
487656777193,-2,-2,-7,1,-1,0,2,-1
487656777193,0,1,1,-4,1,1,-1,-1
487656778864,2,0,-3,-8,1,1,-2,-2
487656778864,-2,-1,4,8,-1,-1,-3,-2
487656792192,-2,-1,0,-5,-4,0,1,0
487656792192,0,-1,-1,-1,-2,-2,1,-1
487656798766,-3,-2,-2,0,1,-1,-1,0
487656798766,1,4,0,-2,-1,-1,-1,1
487656815334,1,-5,-9,-6,0,2,-1,-2
487656815334,0,1,6,5,-8,-5,-3,0
487656816741,-1,-4,-8,-7,0,-3,-3,0
487656816741,-2,0,0,0,1,-1,-1,-1
487656837255,0,1,2,4,-1,-2,0,0
487656837255,-1,-2,-6,-6,-3,1,0,-1
487656839493,-1,-1,2,5,-1,0,0,0
487656839493,-2,-3,-3,-4,0,-1,-1,-2
487656851093,-1,-2,3,8,0,-4,-1,-1
487656851093,-1,-1,-4,-2,-1,-2,-1,-2
487656859927,2,0,1,0,-1,1,0,-1
487656859927,0,0,-1,-3,0,2,0,-1
487656874856,0,-1,-2,-1,-1,-3,-1,0
487656874856,-1,-3,-5,-8,0,-1,-3,-2
487656876379,-2,2,13,13,-2,0,-2,-1
487656876379,-3,-3,-4,4,-1,-1,0,-3
487656897376,0,-2,-4,-15,-2,2,-1,-2
487656897376,0,-3,-7,2,-1,-3,-1,-2
487656899350,0,-3,-2,0,-3,-1,-1,-2
487656899350,-2,0,-4,-3,-2,-1,-1,-4
487656911093,0,1,3,-4,-1,2,0,-1
487656911093,0,2,1,2,-2,-1,-3,-2
487656919948,-3,-1,-3,-4,-1,-3,-1,-1
487656919948,-3,0,1,6,-4,0,-1,-1
487656934799,-3,-2,-5,-9,0,0,-4,-1
487656934799,0,-1,0,-4,-1,1,0,-2
487656936731,0,0,1,-1,-1,-2,0,-1
487656936731,-2,-3,-3,-2,2,-2,-2,1
487656957680,0,1,2,0,-2,-3,-1,-1
487656957680,-2,-3,1,3,-2,-1,-2,1
487656959096,-3,-3,-5,-4,-4,-3,-1,-2
487656959096,-1,-1,1,-1,-1,-1,0,0
487656971033,0,-1,-3,-6,-1,-1,-1,-2
487656971033,-1,-4,-1,2,-1,0,0,0
487656979909,-1,-1,-9,-7,-1,-1,-2,0
487656979909,0,2,15,20,1,-2,-2,0
487656994850,-1,-2,0,5,-3,-1,0,-2
487656994850,-2,-3,-5,-8,1,0,0,-1
487656996338,0,0,-3,-6,0,1,0,1
487656996338,-1,-3,-4,-6,-3,-6,-2,-1
487657017672,-2,-4,-3,0,0,-1,-1,0
487657017672,-1,0,-2,-7,-3,-1,-2,-1
487657019239,-1,-2,-1,2,1,4,0,-1
487657019239,-1,-1,-3,-1,-2,-1,-2,-3
487657030989,-1,-1,5,2,1,-2,-1,-1
487657030989,-1,-2,-2,-6,1,1,-2,-1
487657039954,-2,-3,-4,-6,0,-2,0,0
487657039954,1,0,-5,6,-2,-2,-1,-1
487657054907,-2,-1,-4,-1,1,0,-3,-2
487657054907,1,2,9,14,0,-1,1,-1
487657056867,0,1,1,-2,-3,-2,-4,-1
487657056867,-2,-2,-7,-8,-2,-1,0,-2
487657077293,-3,-3,-4,-4,-1,-2,-1,0
487657077293,-4,-2,0,1,-3,0,-3,-1
487657078910,-1,1,3,2,-2,1,-1,0
487657078910,0,-3,-6,-5,-2,-1,-2,-1
487657090974,2,4,8,3,-3,-1,-1,-1
487657090974,-3,-2,-2,-5,0,1,-1,-3
487657099926,-1,-4,-8,-1,-2,-1,2,-1
487657099926,2,5,4,-10,2,-1,-1,1
487657114862,-4,-3,-4,8,-3,-2,-2,-1
487657114862,-1,0,-2,-5,-1,-1,0,1
487657116409,-2,-3,-6,-4,-3,-4,-1,-1
487657116409,-1,-1,3,5,0,0,0,-1
487657137612,1,0,-2,-9,0,2,2,-2
487657137612,-1,-2,-1,4,-2,-3,-3,-1
487657138812,1,-2,1,3,-1,0,-2,-1
487657138812,-2,-2,-5,-6,0,1,-1,-2
487657150881,0,1,0,3,-3,-2,-1,-1
487657150881,0,-1,-3,-3,1,2,-2,0
487657159869,0,1,0,-2,4,-4,-2,-1
487657159869,-2,-4,-3,2,-2,0,0,-3
487657174727,-1,-2,0,2,-1,-2,-1,-1
487657174727,-2,-1,-3,-4,-3,1,2,0
487657176350,-1,-1,-1,-8,0,-1,0,-1
487657176350,1,3,11,22,2,-2,-2,1
487657196991,2,0,-1,-5,-4,0,1,0
487657196991,-1,0,1,4,-1,-1,1,0
487657204880,-2,1,1,-5,-4,0,-1,0
487657204880,-2,-1,-6,-13,-5,0,-2,0
487657211442,-1,-3,2,5,0,-3,-2,-3
487657211442,-2,-3,-6,-2,-1,-2,-2,-1
487657219868,-1,0,3,0,-3,-1,-1,-1
487657219868,-3,-3,-7,-4,-6,0,-1,-2
487657234851,0,-2,-1,-3,1,1,-1,-2
487657234851,0,1,2,-2,-3,-1,0,-1
487657236473,-1,-4,-4,6,-2,-5,-3,-2
487657236473,-1,-2,-1,-2,-1,-2,0,-2
487657257930,-2,-1,-4,-6,-3,-3,-1,0
487657257930,-1,-2,-2,-2,-1,1,0,-2
487657258999,0,-2,2,2,-1,2,0,0
487657258999,-1,-2,-1,-3,-1,-1,0,-2
487657279861,-2,-2,-5,-4,0,-1,0,0
487657279861,-1,-1,2,1,0,-1,-1,-1
487657281404,-1,-1,0,1,-3,-2,-2,-2
487657281404,-1,-1,0,-2,2,1,-1,-1
487657294738,-2,-2,-7,-8,-1,-1,0,0
487657294738,-1,-3,-10,-13,-4,0,1,-1
487657296938,-1,0,14,24,0,-1,0,-1
487657296938,1,2,3,-8,-2,-1,0,1
487657317391,-1,0,0,9,-3,-1,-2,0
487657317391,0,-1,1,5,0,-2,0,0
487657319494,-2,-4,-11,-13,-2,-1,-1,-1
487657319494,0,-2,-3,-1,1,0,0,1
487657339870,0,-1,0,-4,-4,-2,-1,-1
487657339870,-1,1,-1,-4,0,1,0,-2
487657341412,-1,0,-5,-3,2,0,0,0
487657341412,-1,-2,-2,1,-1,-2,-2,-1
487657354865,-1,-2,-2,-5,-4,-8,-4,1
487657354865,0,-2,1,3,0,-2,-1,0
487657356378,-1,2,0,-1,-1,-1,-2,-2
487657356378,-1,-3,-1,-2,-1,2,-1,-1
487657378050,0,1,-1,0,0,2,-1,1
487657378050,0,-2,-1,-5,-3,-1,0,-2
487657379501,-2,-3,-13,-8,4,1,-1,-1
487657379501,0,2,10,11,-2,-3,-1,-3
487657399670,-2,-4,-6,-7,0,0,1,-3
487657399670,-1,1,11,20,1,1,0,1
487657414795,-1,-2,-8,-11,-3,-3,0,-2
487657414795,-3,-2,-7,-4,-2,-2,-3,-2
487657415596,-1,-1,-2,-3,-3,-2,-2,-1
487657415596,1,-3,-7,-11,1,0,1,-1
487657420965,0,-1,0,1,-5,-2,-1,0
487657420965,0,-1,2,4,3,-1,-2,1
487657437313,0,2,0,-9,-4,0,1,-1
487657437313,-2,-2,5,12,-3,-2,-2,-2
487657439088,0,-2,-1,2,0,1,1,-1
487657439088,-1,-2,-5,-9,-1,1,2,0
487657459824,-2,-1,-2,4,1,-2,-1,-1
487657459824,-1,0,-4,-4,-3,0,-2,-1
487657461402,0,-1,2,0,-3,-3,-2,-1
487657461402,-3,-2,-1,-8,-5,-2,-1,0
487657483170,0,-2,-7,-1,-1,0,0,-2
487657483170,0,2,10,10,2,1,1,0
487657484669,-1,-3,-1,-1,-1,-1,-1,-1
487657484669,-3,-2,-5,-2,-3,-4,0,-1
487657497607,0,-1,0,-1,-2,0,-1,-2
487657497607,0,0,-4,-5,-1,-2,-4,-1
487657499018,-1,0,1,-2,1,4,-2,-4
487657499018,0,-2,-3,-1,-1,-6,1,-2
487657519827,0,2,3,2,-1,-1,1,4
487657519827,-1,1,-1,-2,-2,-5,-5,-3
487657522059,-2,-1,0,0,0,-2,-15,-6
487657522059,-3,-3,-4,-4,-4,4,-2,1
487657534557,-3,-2,0,1,1,1,2,1
487657534557,0,1,0,-6,-3,-1,3,1
487657541512,0,-2,-1,-3,-5,3,4,0
487657541512,-1,0,0,6,2,0,-3,-4
487657557380,0,-3,0,-1,-4,-1,-3,-2
487657557380,-2,-2,-6,-8,-2,-1,-2,0
487657558968,-1,-1,1,1,-3,-2,1,-3
487657558968,1,0,1,0,5,2,2,0
487657579906,-3,-2,1,2,2,-1,3,0
487657579906,-1,-3,-5,-3,-6,0,-2,-1
487657581378,0,-1,0,-1,-1,-2,2,2
487657581378,0,0,-1,2,0,0,1,0
487657594364,-1,-2,-2,-3,-1,-4,-4,-4
487657594364,-1,-3,0,2,-2,-4,-2,-2
487657601521,-2,0,-6,-1,-1,-4,2,2
487657601521,2,3,6,1,-2,-2,-3,-1
487657617443,0,-3,-8,-3,0,2,-2,-3
487657617443,-1,1,4,-1,0,1,2,1
487657618888,-3,-5,-9,-9,-2,0,1,-1
487657618888,0,-1,-2,0,0,-2,-1,-3
487657639772,1,5,13,9,0,2,-3,-1
487657639772,-2,-3,-7,7,1,-5,-2,-1
487657641382,0,1,1,-2,-1,-1,0,-2
487657641382,-2,-3,-8,-3,-1,1,-2,-3
487657653558,-2,-4,-3,-6,-1,5,0,-1
487657653558,-2,-1,1,1,-2,-2,-1,-1
487657662947,-2,1,1,3,-3,1,-1,2
487657662947,-1,-1,-3,-4,-4,-2,-2,-1
487657677334,1,1,1,2,-1,-4,-3,0
487657677334,-2,-2,-1,-7,-3,3,2,-1
487657678946,-1,-2,-7,-6,1,-3,-1,-3
487657678946,-1,1,7,-1,-1,0,0,0
487657699801,-2,-3,-5,6,-3,-5,-2,-1
487657699801,2,1,4,5,0,-1,1,0
487657701415,0,0,4,-2,-2,-3,-3,0
487657701415,-1,-2,-4,-1,0,1,-1,0
487657713489,-3,-2,-5,-7,-1,0,-1,-3
487657713489,0,0,-2,-7,2,-1,0,0
487657722520,1,0,3,4,0,-1,-1,-1
487657722520,-2,-3,-5,-4,-1,-1,0,0
487657744835,-1,0,0,0,-2,-2,-1,-1
487657744835,-1,-2,-6,-3,-2,1,-1,-1
487657746404,1,0,1,1,0,-2,2,-1
487657746404,-1,-1,-1,1,-3,-3,-2,-1
487657759892,-2,-2,1,-2,-2,-1,-1,-2
487657759892,-2,-2,1,0,-1,-1,-2,-1
487657761434,-5,-2,-4,1,1,0,-2,1
487657761434,1,1,3,2,-1,1,1,-1
487657782313,-2,-2,-1,0,0,-4,-1,-2
487657782313,-2,-1,-4,-4,-3,-1,-1,-3
487657783881,-1,-2,1,1,-1,0,-2,0
487657783881,-2,-2,-2,-1,-1,-4,-3,-1
487657797743,-1,-2,-2,-6,2,1,2,2
487657797743,-1,-1,-3,6,-1,-3,0,-1
487657799363,1,1,2,6,-2,0,-2,0
487657799363,-3,-3,-3,-2,-2,2,1,0
487657820380,3,2,1,1,-1,1,-2,-1
487657820380,-1,-3,-6,-9,-1,0,-2,0
487657821814,-1,0,0,-3,-1,-1,2,0
487657821814,0,-2,-2,3,-1,0,-3,-1
487657833459,-1,-4,-5,-4,-2,-1,-1,0
487657833459,0,-2,2,-1,0,-1,0,-1
487657842477,0,1,1,0,-3,0,-1,-1
487657842477,0,-3,-3,-3,-1,-3,-2,0
487657857287,0,1,-1,1,0,-1,-1,-2
487657857287,-2,-3,-2,-3,-1,-1,-1,-1
487657859278,-1,-1,0,2,1,-2,-1,-1
487657859278,-1,-2,-4,-6,-4,-2,-1,-2
487657880175,-1,1,-2,1,0,-2,0,-2
487657880175,-1,-2,-1,-3,-1,0,0,2
487657881660,1,-1,0,-2,-4,-1,0,0
487657881660,0,0,0,-2,-2,0,0,0
487657893472,-2,-2,-2,-1,-2,-1,-1,-2
487657893472,0,1,2,1,0,1,-1,-1
487657902605,-3,-4,-2,-2,-2,-3,1,-1
487657902605,-1,0,-2,0,-4,-2,0,-1
487657917786,-3,-4,-2,0,0,0,-1,-1
487657917786,-1,-2,-2,-2,-1,-2,-1,-1
487657919222,-1,-2,-2,-3,-1,0,-1,-2
487657919222,-1,2,4,2,0,0,-2,-1
487657940099,-2,1,-2,-3,-2,-4,-3,-1
487657940099,-3,0,-3,-1,-3,-3,-2,-2
487657941574,0,-1,-1,1,1,0,0,-1
487657941574,-1,-2,-2,-15,0,-2,-1,-1
487657953832,-2,0,0,16,0,3,0,0
487657953832,1,-1,-1,-5,-3,-4,0,-1
487657962522,-1,2,-1,-30,-5,-1,-3,-1
487657962522,-2,0,3,38,4,-3,0,-1
487657984903,0,-1,-6,-17,0,4,0,0
487657984903,-3,-2,-6,-5,-3,-2,-2,-1
487657987064,-1,-1,-1,-16,-1,-1,-1,-1
487657987064,-2,-2,1,2,-3,-1,-1,-1
487658000330,0,1,0,-1,1,-1,-1,0
487658000330,-1,-2,-1,5,-2,1,1,-2
487658001733,-1,-3,-5,-4,0,-1,-2,0
487658001733,-3,-2,-2,-3,0,0,-2,-1
487658014015,-3,-2,-1,4,-3,-3,-1,-2
487658014015,1,1,1,-8,-2,0,0,0
487658029983,0,1,4,16,0,-1,0,1
487658029983,-1,0,0,7,1,-2,-3,1
487658036565,-2,-2,0,-5,-3,-4,-4,-2
487658036565,0,0,2,-22,-2,-2,-1,-2
487658044100,-1,-4,-4,15,1,-1,-1,-1
487658044100,0,-3,-10,-9,2,2,-5,-1
487658059931,2,3,7,-7,-3,-1,9,2
487658059931,-2,-1,1,6,-4,-1,-8,-4
487658062104,0,1,-1,2,2,9,24,-1
487658062104,1,-3,-8,5,3,-8,-21,-1
487658073602,-1,-2,-5,-5,1,0,-1,1
487658073602,-1,-2,0,6,0,-6,-10,0
487658082952,-3,0,1,-8,-2,-1,0,-1
487658082952,-1,1,1,-5,-5,2,5,0
487658096702,-3,-4,-5,-2,-2,0,0,-2
487658096702,-1,-1,-1,-1,0,1,3,0
487658103485,0,-1,2,10,3,-3,-7,-1
487658103485,-2,-3,-1,-10,-1,0,5,-2
487658119924,-1,-3,0,2,-3,-3,-9,-3
487658119924,-1,1,1,1,-4,0,5,0
487658121290,0,1,-7,-29,1,-3,-6,-1
487658121290,0,1,6,12,-2,1,-1,-3
487658133460,0,-4,-5,4,4,3,3,1
487658133460,-2,-2,-8,6,2,-1,-8,-3
487658142370,0,0,6,11,-1,1,14,3
487658142370,0,0,-11,-30,-4,-8,-11,-3
487658157145,1,2,7,-2,-2,-2,-4,-3
487658157145,1,-3,-2,0,-4,4,9,1
487658163522,-3,-3,1,11,-3,-6,-20,-3
487658163522,0,-1,2,-3,-4,-1,9,-1
487658179803,1,2,2,5,-4,-1,-2,-1
487658179803,-1,1,-4,-16,1,3,-1,0
487658181356,-1,-2,2,21,-2,0,5,-1
487658181356,0,-3,1,53,11,2,4,0
487658202655,-2,-2,-6,-15,-3,-3,-9,-3
487658202655,-2,-5,-1,2,1,0,6,-2
487658204138,0,0,-1,-21,-4,3,4,0
487658204138,-3,0,4,-12,-5,-11,-21,-3
487658217286,1,-1,-2,7,-2,-2,2,1
487658217286,-1,-2,-4,0,5,-3,-3,-1
487658223469,-5,-4,-4,4,-3,-3,-6,-2
487658223469,-2,0,0,-10,-2,4,5,0
487658239795,-1,-1,0,-4,-1,-2,-2,-2
487658239795,-2,-1,0,-4,-2,-2,7,1
487658241345,1,-1,-3,4,3,-4,-6,-2
487658241345,-2,-1,-5,-8,-1,4,6,1
487658262307,-2,-2,-1,-6,-3,1,1,0
487658262307,2,4,5,0,0,1,-12,-3
487658263875,-2,-2,-7,10,1,-2,3,5
487658263875,-3,2,0,-16,-3,7,8,0
487658277365,-3,-2,-4,8,0,7,10,-2
487658277365,0,-1,6,25,2,-5,-14,0
487658285027,1,-1,-4,-13,-2,-1,-2,-1
487658285027,0,-4,-2,-7,-2,-4,-4,-2
487658299745,0,-1,-1,-4,1,-1,4,1
487658299745,0,0,0,0,0,0,7,-1
487658301387,0,-1,5,4,1,-2,-7,-5
487658301387,0,-2,-10,-9,1,1,5,1
487658322305,-2,0,3,3,0,-3,-5,-2
487658322305,-3,-3,-1,-1,-2,-2,1,0
487658323914,-2,-2,-2,-20,-2,-1,-6,-1
487658323914,-1,1,2,7,-5,-2,-1,0
487658335996,-3,-1,1,9,2,-2,-1,0
487658335996,-1,-1,-6,2,0,0,-3,0
487658345093,0,0,3,3,-2,0,0,-2
487658345093,-1,-4,-2,-10,-3,-1,-3,-3
487658359794,0,0,-1,-5,-4,-3,4,0
487658359794,-1,-3,-1,1,-2,0,3,1
487658361499,-2,-4,-5,-1,-1,0,-4,-1
487658361499,3,4,3,0,0,-1,2,1
487658382318,-2,-2,-2,4,-1,-4,-7,-1
487658382318,-1,0,-2,-7,-2,-2,-1,-2
487658383900,-2,-4,-5,1,-2,-1,-2,-3
487658383900,-1,0,1,0,-1,-2,-3,-2
487658396455,-1,0,1,-1,-1,0,-2,-1
487658396455,-3,-1,-1,-3,-3,-3,1,-2
487658411289,-2,-1,-2,1,-2,-4,-6,-4
487658411289,-6,-2,1,1,-1,0,2,-18
487658420426,-1,-2,-2,-3,-1,-2,1,-2
487658420426,6,-1,-1,-1,1,1,3,11
487658421559,-3,0,-2,2,-2,-2,-3,-8
487658421559,-5,-1,-1,-1,-1,0,0,-2
487658442238,2,0,-2,-6,0,-2,-1,7
487658442238,1,-3,-2,-5,-2,-1,-2,5
487658444066,2,2,1,1,0,-1,-1,5
487658444066,-2,0,-3,0,-3,-2,-3,-3
487658457981,-4,-2,-3,-1,-3,-1,-5,-7
487658457981,-3,-3,0,1,-2,0,-2,-2
487658465092,1,-5,-7,-9,-6,-2,-1,0
487658465092,2,8,20,8,6,1,2,2
487658479874,1,-2,-6,-2,1,-3,-3,0
487658479874,-3,-2,1,1,-3,-2,-1,-4
487658481501,-4,-1,-3,-1,0,0,0,-3
487658481501,-4,-10,-15,-9,-2,-3,-2,4
487658509818,1,9,25,9,4,-1,-2,-5
487658509818,4,0,1,3,5,-1,1,12
487658511396,3,3,0,0,4,0,0,0
487658511396,-1,-5,-7,-5,-3,-1,0,1
487658516025,2,-3,-11,-4,-1,1,0,3
487658516025,-5,-3,-10,-6,-3,-1,-5,-18
487658524931,4,1,8,3,-5,-2,0,11
487658524931,-1,-4,-11,-9,-10,-4,-2,4
487658539061,-1,-5,-8,-6,-13,-5,-3,-6
487658539061,3,13,33,9,-14,-5,2,-3
487658539868,0,-4,-8,-3,-11,-6,1,2
487658539868,-1,-1,0,-1,-8,-6,-1,-5
487658561969,-1,-3,-3,-6,-6,-4,-3,-2
487658561969,-4,-5,-18,-8,-1,-1,-1,-2
487658562561,-3,4,14,1,4,1,-3,-7
487658562561,0,3,-2,2,10,1,0,3
487658584571,-2,-3,-4,0,11,3,1,-1
487658584571,-4,-2,-11,-2,8,4,-2,-2
487658586000,-1,3,-2,0,7,3,0,-1
487658586000,-2,-2,-4,4,5,3,0,2
487658599644,-2,-1,-2,-1,4,2,-1,3
487658599644,0,5,1,1,4,1,-1,-1
487658600358,-4,-1,1,0,4,1,-1,0
487658600358,0,0,-4,-2,-2,2,0,0
487658621629,-4,-3,-5,-3,-2,-1,0,-4
487658621629,-2,-2,3,3,-1,0,-3,-1
487658622422,-1,6,2,2,-1,0,1,-2
487658622422,1,0,6,0,-2,-2,0,0
487658644184,-1,-4,-2,-3,-4,-2,-2,-1
487658644184,-3,-9,-14,-8,-4,-4,-3,-2
487658644886,1,2,11,3,-2,0,-1,0
487658644886,2,0,11,7,-2,-3,0,0
487658659712,-1,1,4,0,-5,-2,-2,-3
487658659712,0,-4,-8,-3,-3,-2,1,-2
487658660400,-2,-4,-7,-3,-4,-3,-2,0
487658660400,-2,-2,-5,-4,-4,-1,0,0
487658681731,0,0,-4,0,-1,-3,0,-1
487658681731,-1,-3,3,-3,-2,-1,2,-3
487658682444,-2,-8,-19,-12,-2,-2,0,-2
487658682444,1,1,6,4,2,0,1,0
487658704628,2,9,12,6,0,-1,0,3
487658704628,-2,-3,-6,0,-3,-2,-3,-2
487658705288,-1,-1,6,5,2,1,1,0
487658705288,-3,-7,-16,-7,-1,-2,-1,-2
487658719156,-2,-5,-11,-3,2,1,-1,1
487658719156,-3,0,5,-2,1,-1,1,-1
487658719907,-1,-4,-10,0,1,0,-1,-1
487658719907,1,1,2,-2,2,0,-3,-1
487658750170,-1,1,5,5,2,0,0,1
487658750170,-2,-1,-3,-3,-1,0,-1,0
487658750901,-3,-2,-2,-2,1,-2,-1,-1
487658750901,0,-1,3,2,-1,-1,-1,-2
487658764173,-1,-2,-6,-5,-1,0,-2,-2
487658764173,2,-2,-4,0,-1,0,-1,-1
487658764985,0,0,1,1,0,-1,-2,-1
487658764985,0,-2,-2,-4,0,-2,0,0
487658779203,0,-4,-4,-3,-2,-1,-3,-2
487658779203,-2,1,1,2,0,-2,-2,-1
487658780036,-1,1,4,0,-3,0,-1,-1
487658780036,-1,-3,-8,-1,0,-1,-3,0
487658801610,1,-2,-1,1,-2,-1,0,0
487658801610,-2,-3,1,0,-1,0,0,-3
487658802394,-2,-3,-8,-5,-4,-2,-3,-2
487658802394,-1,1,1,-1,-1,0,1,0
487658824115,-1,-6,-2,-1,-1,-2,0,-2
487658824115,-1,5,-1,-6,-2,-1,-1,-2
487658824891,0,2,-3,1,0,-2,0,0
487658824891,-1,1,9,0,-1,-1,0,0
487658839556,-1,-2,-9,0,0,-2,-2,-1
487658839556,-1,0,8,2,0,0,-2,-1
487658840261,-3,-7,-8,-6,-2,-1,-1,-3
487658840261,-2,-3,-8,-5,-1,-1,-1,-2
487658877270,1,3,1,-1,-4,-1,0,-1
487658877270,1,1,0,4,0,0,-1,1
487658878074,1,3,5,2,0,-3,-1,-1
487658878074,-2,-3,-4,-1,-3,-1,-3,-1
487658884071,-2,-3,1,-4,-2,-1,-1,-2
487658884071,-1,-4,-8,-5,-2,-1,0,-1
487658884879,0,-1,7,2,0,0,0,-1
487658884879,1,2,3,1,1,-1,1,-2
487658899128,-3,0,-3,-2,-2,-1,0,-1
487658899128,0,-4,-7,-4,-1,-2,-2,-1
487658899912,-2,-5,-1,-3,-2,-2,-2,-1
487658899912,0,1,2,-2,-3,-1,-1,0
487658921682,0,-1,3,-1,-2,0,-2,-2
487658921682,-1,-2,-3,-4,-3,-2,-1,-3
487658922439,-1,-2,-6,-3,0,-1,-1,-1
487658922439,0,-2,1,0,-3,-1,-2,0
487658944124,0,1,0,0,1,-1,0,-2
487658944124,-3,-3,-1,-2,0,1,-1,-1
487658944941,-1,-1,-13,-2,-1,-1,-1,0
487658944941,0,5,11,5,0,-1,0,0
487658959175,-2,-1,2,0,-1,-1,-1,-1
487658959175,-3,-7,-15,-8,-2,-3,0,0
487658959963,4,12,20,10,0,1,1,2
487658959963,-1,-3,-2,-3,0,0,-1,-1
487658981655,0,-1,1,0,-3,-2,-2,-1
487658981655,-1,-1,2,1,-1,0,-1,-2
487658982456,-2,-4,-4,-4,-3,0,0,-3
487658982456,-1,-2,-5,-3,-1,0,-2,-2
487659004098,0,-2,-3,-4,-2,0,0,1
487659004098,2,4,24,9,-1,-1,0,-1
487659004976,0,-8,-5,-3,-2,-3,0,-2
487659004976,-1,3,0,2,-3,-3,0,-1
487659019449,-3,-6,-9,-6,-1,-1,0,0
487659019449,0,2,-5,-3,-1,-3,-1,0
487659020215,-1,-3,-1,-3,-2,1,0,-1
487659020215,-2,-6,-8,-1,-1,1,-1,-3
487659041612,-1,1,-3,-10,-3,-3,-1,-1
487659041612,2,10,6,12,-1,-1,-1,1
487659042382,-4,-8,-10,-5,1,-2,-1,0
487659042382,0,3,10,2,-1,1,0,-2
487659064857,0,-3,6,6,-2,0,-2,0
487659064857,-1,-5,-9,-7,-2,-1,-1,-1
487659065466,-2,1,0,-9,-3,1,-2,-1
487659065466,-3,-6,-27,-7,-1,-3,-2,0
487659079103,-2,0,5,2,0,1,-2,-4
487659079103,0,-2,1,-1,-3,0,0,-1
487659079913,-2,-2,-2,1,-1,-2,-1,-2
487659079913,-1,-5,-5,-5,-2,-2,-1,-1
487659101617,-1,4,0,-1,-1,-2,1,-1
487659101617,-2,-3,-6,-2,0,1,-2,-1
487659102394,0,-1,-1,0,-1,0,-2,-2
487659102394,-3,-4,-3,-2,1,-1,0,1
487659124152,-2,-3,0,-3,1,1,-1,-1
487659124152,3,3,2,2,-1,1,1,-1
487659124943,-2,-5,1,3,-3,-2,-3,-2
487659124943,-1,2,10,2,-3,-4,-1,-2
487659139199,-1,-2,1,3,1,2,-1,-1
487659139199,-1,-3,-7,-8,-1,1,-1,-1
487659139864,-1,2,-1,-6,-3,-1,-2,-1
487659139864,0,-1,0,5,0,-1,-1,-1
487659161785,-2,-1,0,0,1,0,0,-1
487659161785,-4,-1,-2,-1,-1,-4,-1,-1
487659162376,-2,0,-2,0,-4,-2,0,-1
487659162376,-2,-6,-12,-8,-5,-2,-2,-1
487659184124,3,14,22,3,-1,0,1,1
487659184124,-1,-5,0,0,0,-1,-1,-1
487659185521,-1,1,-2,-2,-1,-2,-1,0
487659185521,0,1,-2,-2,0,0,-1,-2
487659199159,-1,-5,-8,-1,-1,0,-2,0
487659199159,-1,4,7,0,-2,-3,1,0
487659200567,1,-3,-3,0,-1,0,-1,-2
487659200567,1,3,6,3,2,0,0,1
487659221668,-2,-6,-14,-5,-2,-1,-2,0
487659221668,-2,-3,-5,-4,-2,-1,-2,-1
487659222405,-1,0,1,0,0,-1,-1,-2
487659222405,3,1,-2,2,0,0,-2,0
487659244615,-2,-4,-3,-3,0,-1,-2,-1
487659244615,-1,0,-11,-7,-2,-3,-1,1
487659245283,-1,-2,0,-4,1,-3,0,-1
487659245283,-4,-4,-8,-2,-4,-2,-4,-4
487659259108,1,3,6,4,-1,-2,-1,0
487659259108,0,-3,-4,-1,3,0,-1,-2
487659259932,1,-1,-4,-3,1,1,-1,0
487659259932,-3,-1,3,-2,0,-1,0,0
487659281635,-2,-6,-14,-4,-1,-1,-2,-4
487659281635,-2,-2,2,4,-3,0,-1,-2
487659282397,-1,0,-4,-3,-2,-1,1,-1
487659282397,1,2,2,-3,-3,-2,1,0
487659304116,0,-2,1,0,-5,-3,-1,-1
487659304116,-1,0,0,0,1,-1,-1,-2
487659305153,-1,1,3,1,1,-1,-1,0
487659305153,-1,0,0,0,1,0,1,-1
487659319463,-1,0,1,-1,-1,-1,-1,-2
487659319463,-1,-3,-3,-2,-2,1,-1,-2
487659320237,-2,0,1,2,-1,0,-1,-2
487659320237,-2,-1,4,0,1,2,-1,-1
487659341617,-1,-2,-2,1,0,-2,0,-1
487659341617,-1,1,5,-2,0,2,-1,1
487659342454,-1,-4,-12,1,-1,0,-2,-1
487659342454,0,5,13,-3,-1,1,-1,-1
487659364390,2,2,2,6,-2,-1,1,0
487659364390,-3,-4,-3,-4,-5,-4,-3,-1
487659365182,2,-1,0,2,0,-1,0,1
487659365182,-3,-6,-14,-9,0,-1,-2,0
487659379185,-4,-8,-12,-9,0,-2,-2,-2
487659379185,8,16,39,20,8,3,1,2
487659379983,1,-3,-7,1,0,1,-1,-1
487659379983,-2,-4,0,1,-1,-2,0,-2
487659401564,-1,4,-14,-9,-2,-1,-1,-1
487659401564,-2,-5,-2,-2,-2,-3,-2,-4
487659402403,-1,1,1,-5,-3,-2,-2,-2
487659402403,0,-3,-5,0,0,-1,-1,-1
487659424112,-3,0,5,-2,-2,-1,-1,0
487659424112,-3,0,-7,-2,0,-3,-2,-1
487659424894,0,0,7,2,0,2,1,-2
487659424894,1,-1,-2,0,0,-2,-1,0
487659439116,-2,-2,0,-1,-2,-1,-1,0
487659439116,-1,-2,-8,-6,-3,-3,0,-1
487659439912,-2,-4,2,0,0,0,-3,-2
487659439912,0,-1,1,2,-3,-2,-2,2
487659461652,1,7,9,-1,2,-1,-1,-1
487659461652,-4,-7,-9,1,-1,-1,-3,-2
487659462403,0,9,19,0,-3,0,-1,0
487659462403,2,3,14,9,0,-1,-1,-1
487659484807,1,0,2,2,0,-1,-1,0
487659484807,-3,-6,-14,-8,-2,-1,-3,-2
487659485545,-3,-5,-9,-5,-2,-2,0,-1
487659485545,-1,0,-2,0,-4,-1,-2,-2
487659499141,-1,-4,-3,-4,-2,-1,-2,-3
487659499141,1,0,3,2,0,-3,-1,-2
487659499874,-1,-2,-3,-2,-4,-2,-1,-1
487659499874,-1,0,-1,-4,0,-1,-3,0
487659521645,-2,-5,-3,0,-2,-1,-1,-1
487659521645,0,-1,-3,-2,-3,-1,0,0
487659522383,0,-1,-5,-8,-2,-2,-1,-1
487659522383,-2,0,-1,4,-3,-1,0,-3
487659544795,-2,-4,3,3,2,1,0,-1
487659544795,-1,0,2,-3,-2,-1,-2,0
487659545630,-2,-2,-4,-1,2,0,-2,1
487659545630,-4,-8,-20,-18,-2,-1,-1,-2
487659559085,0,-1,-12,-1,-2,-4,1,-1
487659559085,2,8,20,11,2,2,1,1
487659559893,-2,-3,-11,-2,-1,-2,-1,-1
487659559893,0,0,1,-1,-3,-2,-3,0
487659581624,-2,-4,-9,-4,0,-1,0,-1
487659581624,-1,-3,-5,-5,0,1,0,-2
487659582417,-1,2,7,1,0,-1,1,-1
487659582417,0,-3,3,2,2,2,-1,-2
487659604163,0,-1,0,-3,-2,-1,0,0
487659604163,-1,-5,-14,-7,-2,-4,-3,-3
487659604899,0,3,16,7,1,-1,0,-1
487659604899,-1,-3,-8,-5,-2,-1,-1,-1
487659619100,0,7,5,2,-7,-4,-3,-1
487659619100,-5,-11,-17,-14,0,-1,-3,-2
487659619898,2,6,-1,6,-3,-1,-1,0
487659619898,0,2,19,6,-1,-2,2,1
487659641637,3,2,-4,0,0,-3,-1,1
487659641637,-2,-4,5,3,0,-1,0,0
487659642442,-3,-4,-10,-8,-1,-1,-2,-3
487659642442,-3,-3,-9,-8,-1,0,-2,0
487659664105,-2,-1,6,1,-3,-3,-2,-1
487659664105,2,-1,-4,-2,0,2,2,2
487659664904,-2,-4,-7,-3,0,1,-2,-1
487659664904,0,4,8,4,1,-1,0,0
487659687320,-3,-4,-3,-3,0,-4,-1,-3
487659687320,-2,-2,-6,-2,-2,-1,-1,1
487659688080,-1,0,-3,-1,-2,3,0,-2
487659688080,-2,-8,-9,-2,-4,0,-1,-1
487659701614,0,7,13,0,-3,-2,-2,0
487659701614,-2,1,0,-3,-4,-4,-4,-5
487659702396,1,-1,10,5,1,-2,0,0
487659702396,1,-1,-10,-4,-1,-2,-2,-1
487659724144,-3,-4,-5,-2,-1,4,0,-2
487659724144,-2,1,-3,-2,-2,-2,-2,-1
487659724924,-2,-2,-5,-2,-2,-2,0,-1
487659724924,-2,0,-2,0,-1,0,0,-2
487659738782,0,-1,3,1,0,-2,-1,0
487659738782,-1,3,-2,1,-2,1,0,0
487659746669,-4,-3,0,-3,-3,-1,-3,-1
487659746669,2,2,1,1,-1,-2,0,2
487659761946,0,-3,-9,-5,-1,2,-1,0
487659761946,-2,-2,3,2,0,0,-2,-2
487659762782,0,4,1,0,1,2,-1,-1
487659762782,-3,0,1,0,-1,-2,1,0
487659784452,0,-2,2,-1,0,-1,0,0
487659784452,-3,-18,-21,-6,-3,-1,0,4
487659785370,6,22,38,8,3,4,3,1
487659785370,-2,-3,-12,-5,-3,-2,-3,-2
487659798545,-1,0,11,8,0,1,-2,0
487659798545,-1,-5,-4,0,-2,-4,0,-1
487659807308,-2,-4,-8,-4,-5,-6,-3,-1
487659807308,-1,-1,-6,-5,0,0,1,-1
487659821593,-3,-4,0,-5,-3,1,2,1
487659821593,-3,-1,-5,-3,-1,-1,-4,-5
487659823015,-1,0,7,6,0,-4,-2,2
487659823015,1,1,5,0,-3,-4,-2,-2
487659844213,-2,-8,-11,-2,-2,-2,-2,0
487659844213,3,6,9,-1,-2,-1,-3,-4
487659845165,-3,-8,-15,-6,1,0,1,0
487659845165,-2,-9,-9,-6,-2,1,-2,2
487659859152,4,22,37,18,6,3,0,1
487659859152,1,3,0,-1,-1,-2,-1,-1
487659866989,-1,-4,-8,-2,-3,-2,0,-2
487659866989,1,1,7,-1,1,-2,-3,-1
487659881617,-4,-8,-17,-9,-2,-2,-2,-2
487659881617,1,0,-4,-4,0,1,0,0
487659882401,-3,-4,9,2,-3,-4,-1,-1
487659882401,-2,-3,-6,-1,1,0,-1,-1
487659904196,-1,-2,-11,-7,0,2,-1,-1
487659904196,2,5,8,3,-3,-2,0,-3
487659904955,-3,-8,-13,-6,-1,-1,1,-2
487659904955,-3,-3,1,0,-1,-1,-2,-1
487659918503,-2,-4,-6,-1,2,-1,1,0
487659918503,0,-1,-2,-3,-2,0,0,1
487659926680,0,-8,-10,-3,-5,0,-2,-1
487659926680,2,8,11,5,-1,-2,0,-1
487659941712,1,-5,-8,-2,-1,-2,-1,-1
487659941712,2,6,5,0,1,-3,-4,-2
487659942541,-2,0,-3,-6,-1,-2,-2,-2
487659942541,-2,-4,-10,3,-1,0,1,0
487659972417,0,4,7,0,-4,-3,-2,-3
487659972417,-3,-6,-3,2,-1,0,1,0
487659973139,1,0,12,5,-3,-1,-3,-1
487659973139,-1,1,-6,-6,-3,-1,0,-3
487659978443,-3,-6,-9,-6,-2,0,-2,-2
487659978443,-5,-4,5,1,1,-2,0,0
487659987389,0,-3,-16,-8,-4,-3,-4,0
487659987389,-1,0,16,6,3,2,3,0
487660002223,-3,-5,-2,1,2,0,-3,-6
487660002223,-3,-2,4,1,0,-1,1,0
487660002903,0,4,-3,1,0,-1,-1,-2
487660002903,-5,-4,-3,-3,0,-2,-4,-3
487660024124,2,1,-2,-1,0,0,0,-3
487660024124,0,7,4,1,-1,0,-1,-1
487660024955,-2,-3,-6,-2,0,-2,-1,-2
487660024955,0,-2,2,-1,5,-3,2,3
487660038700,2,-1,-1,-4,-7,0,0,1
487660038700,0,-3,-3,-1,4,-1,1,-1
487660046670,-1,1,1,1,-1,2,0,-1
487660046670,0,-2,-2,0,-2,0,-1,0
487660061671,0,-3,-5,-2,-3,-2,-1,0
487660061671,-2,1,9,1,-4,2,0,1
487660062395,-1,1,-14,-6,-3,-2,-1,-2
487660062395,2,9,29,11,-1,2,1,2
487660084166,-4,-6,-6,-3,4,-1,1,0
487660084166,-1,-4,-8,-2,-5,-1,1,1
487660084935,-5,-4,5,0,1,1,1,0
487660084935,-4,-4,-17,-8,-3,-2,0,-2
487660107376,2,0,4,2,-1,1,0,0
487660107376,-1,-5,-9,-7,0,-1,-1,-1
487660108167,-1,-3,-3,-1,1,-1,-2,-1
487660108167,0,-1,-3,-1,-4,0,-3,-1
487660121630,-2,4,10,0,-1,-4,0,-1
487660121630,-1,0,9,4,4,2,1,-2
487660122436,2,-6,-16,-5,-4,-2,-3,-2
487660122436,1,10,29,7,0,-1,-2,-1
487660144154,-2,-3,-8,-2,-3,-2,-4,-2
487660144154,1,-3,-1,-4,-4,-2,1,0
487660144977,-2,0,-8,-2,2,-2,-1,0
487660144977,3,5,14,1,-6,1,1,-2
487660167298,1,-1,1,5,1,-1,0,2
487660167298,2,2,-1,-3,-4,0,-1,-2
487660168101,-4,-5,-1,-2,3,-2,-2,-1
487660168101,-2,-6,-19,-9,-7,-1,-2,0
487660181684,-1,3,3,-2,-2,-2,-2,-3
487660181684,-3,-1,-1,0,-3,0,-2,-2
487660182425,0,-8,-3,-2,-1,0,2,2
487660182425,-1,-1,-4,0,-1,-2,-1,-4
487660204147,-1,-1,2,1,5,-1,-1,-1
487660204147,3,-2,-7,0,-2,-1,-1,-1
487660204952,-1,0,10,4,-1,-1,0,0
487660204952,-3,-10,-14,-5,-2,-2,-1,-1
487660227348,-4,-6,-9,-7,-6,-1,-1,0
487660227348,1,6,32,14,1,-5,-2,-2
487660228144,-2,-3,-11,-5,-4,-2,0,-2
487660228144,-1,4,1,2,5,-1,-3,-2
487660241631,-5,-3,-8,-3,-5,-2,-2,-1
487660241631,0,-1,-12,-8,-4,-3,-1,2
487660242422,-2,1,0,1,-4,-3,-2,-2
487660242422,0,-3,-7,-5,2,-2,-1,-1
487660264841,3,3,1,2,0,-1,1,0
487660264841,-1,-2,-5,-2,-3,0,-1,-2
487660265585,-2,8,9,2,1,1,-1,-4
487660265585,-2,-3,-4,-1,-2,-1,-2,-1
487660287363,-3,-7,0,-3,1,0,1,-1
487660287363,-1,5,2,0,-1,0,-1,0
487660288184,-3,-3,0,0,-5,1,-1,-1
487660288184,0,2,-1,-1,-1,-1,0,0
487660302061,1,-2,0,2,-2,0,-3,-3
487660302061,0,-4,2,-4,-2,0,0,-2
487660302966,-2,-5,-4,-3,0,-2,-1,-2
487660302966,-3,-4,-10,-5,0,0,-1,1
487660324855,-1,8,11,-1,-5,-1,-2,-1
487660324855,-4,-5,-13,-6,0,3,-3,-2
487660325675,3,0,-6,3,0,-2,0,1
487660325675,1,7,19,6,0,-3,-1,-2
487660347429,5,9,4,3,-1,-2,0,0
487660347429,-1,-1,3,4,2,-2,-1,-1
487660348156,1,1,8,1,0,0,-1,0
487660348156,-3,-7,-14,-3,-2,1,-1,-2
487660361800,-3,-7,-13,-5,0,-2,-2,-2
487660361800,-3,2,8,-3,-7,-2,-1,-2
487660362467,0,-3,1,4,5,0,0,0
487660362467,-4,-5,-14,-3,1,6,2,1
487660392864,-3,2,14,2,1,-1,-1,-1
487660392864,-3,1,-9,-3,1,-1,-2,-3
487660393293,-1,0,-1,-7,-3,-2,-1,-1
487660393293,2,2,11,7,-2,-2,-2,0
487660407780,-1,-5,-8,-1,0,1,-1,-1
487660407780,-1,-2,-7,-3,2,1,0,0
487660408579,-1,5,9,-5,-6,-1,-2,-3
487660408579,0,0,-5,-1,-1,-4,-1,-2
487660422219,-2,-7,-7,-5,-2,-1,-1,0
487660422219,0,-3,-1,6,-3,-4,0,-2
487660422960,-2,-3,-3,-13,-4,-1,-1,-1
487660422960,0,-1,9,11,-1,-2,2,-2
487660444173,-2,-3,-5,9,-2,-3,-3,-2
487660444173,1,-1,2,5,4,0,2,3
487660445120,-4,-2,-3,7,0,0,-1,1
487660445120,-3,-8,-11,-13,-9,-4,-2,-4
487660474907,-3,1,-7,-8,5,2,0,0
487660474907,5,6,31,9,-4,-1,0,2
487660475586,-2,-5,-9,-3,-5,-2,-2,-1
487660475586,4,-1,-2,-6,0,-3,-4,-2
487660481649,-3,-6,-11,-3,-5,1,2,-2
487660481649,-4,-6,-15,-6,-4,-2,0,-2
487660482393,0,0,-2,-1,0,0,-1,-1
487660482393,0,-1,-1,-2,3,2,-1,-1
487660504157,-2,2,2,-3,-7,-8,-3,-1
487660504157,-4,-6,-11,-8,-4,2,-4,-2
487660504930,2,1,6,4,-1,-1,0,0
487660504930,-4,-3,-1,-1,1,1,0,-1
487660527439,1,-1,4,0,1,1,-1,-2
487660527439,-2,-1,-6,-5,1,0,-2,0
487660528157,0,0,0,-2,-2,-4,-1,-1
487660528157,-3,-2,-17,-7,-4,-2,-1,-2
487660541706,0,5,5,0,5,2,2,-2
487660541706,-1,-8,-8,-4,2,-2,-2,-1
487660543111,-1,6,-3,-1,3,4,1,-2
487660543111,-2,-2,-1,-3,-3,-2,0,1
487660564819,-1,-1,8,5,-3,-3,-4,-3
487660564819,-3,-4,-13,-4,2,0,-1,-1
487660565613,1,8,10,2,1,-3,-3,-4
487660565613,1,1,6,0,1,-1,1,-1
487660587443,0,-5,-8,-4,0,2,1,1
487660587443,0,1,5,-1,0,-2,-1,-2
487660588186,-2,-5,-9,-2,-1,-1,-2,0
487660588186,-3,-1,-1,-1,-3,-1,-2,-1
487660601723,0,-2,0,-4,-2,-1,-1,-2
487660601723,-2,-3,-22,-6,1,-3,-1,-2
487660602495,1,9,34,13,-1,2,0,1
487660602495,1,3,10,4,1,-1,-1,0
487660624939,0,-3,2,1,1,0,1,1
487660624939,-2,-4,-4,-5,-2,1,-1,-2
487660625709,-2,-4,-14,-5,-3,-5,-2,0
487660625709,-2,1,-1,-1,-2,-3,-2,-1
487660647673,1,-3,-7,-5,-2,-2,-2,-2
487660647673,-1,0,6,-3,-1,-1,-1,-1
487660648455,-2,-5,-7,0,0,1,0,-1
487660648455,0,-2,-3,-1,0,-1,-1,0
487660661642,1,2,-2,0,-1,-2,-2,2
487660661642,3,3,5,2,-2,-2,-1,0
487660662530,-3,-3,-2,-2,-1,1,-1,-2
487660662530,-1,-6,-6,-4,0,0,1,-1
487660692706,-2,-1,-3,-3,-4,-1,-1,-2
487660692706,-2,0,-5,-3,-1,-1,-1,-2
487660693026,1,4,12,8,-1,-1,1,1
487660693026,-1,-3,1,1,-1,0,-3,-1
487660707343,-1,0,8,2,2,1,0,2
487660707343,4,2,-7,-4,-3,-2,-2,0
487660708112,-2,0,6,1,-2,-1,0,-1
487660708112,-3,-4,-10,-5,-1,-1,-3,-3
487660721597,-1,0,2,1,-4,-4,-1,-2
487660721597,-1,-1,-1,2,-1,-1,0,0
487660729395,-2,-7,-14,-5,1,0,0,-1
487660729395,1,4,10,2,0,-1,-1,1
487660744842,-1,-3,-8,-2,0,-3,-1,-1
487660744842,-2,-1,4,2,-2,0,0,-2
487660745972,-3,-2,-2,-2,0,0,1,-2
487660745972,-1,-1,-3,-3,-1,-1,-1,-1
487660767942,-3,1,-4,-3,-2,-1,-2,-4
487660767942,-2,-2,-8,-5,-1,-1,0,-1
487660768692,2,-1,18,9,0,1,0,0
487660768692,2,6,9,2,-3,-1,0,1
487660780953,-1,-2,-5,-4,3,-1,0,1
487660780953,-3,-3,-6,-3,-1,-1,-1,1
487660789182,-2,-4,-7,-7,-1,-2,-2,-2
487660789182,-6,-7,-16,-7,-1,1,-1,0
487660804810,1,1,11,3,-4,-2,0,-1
487660804810,-1,3,0,2,0,-1,-2,-5
487660805843,1,1,-4,-3,1,-2,-1,-2
487660805843,0,2,0,0,-3,-2,-1,-2
487660827909,1,1,0,0,0,1,-1,0
487660827909,-2,-4,-1,-1,0,0,-1,-1
487660828637,-2,-5,-11,-6,-4,-1,-3,-2
487660828637,-1,1,7,0,0,-2,-2,-2
487660850301,-3,-8,-22,-4,-2,-2,-1,-2
487660850301,1,14,33,11,0,1,1,0
487660850974,0,-2,-7,-1,1,-2,0,0
487660850974,0,-1,2,2,-2,1,-1,-1
487660864865,-2,-5,-8,-7,0,0,-2,-1
487660864865,-2,-5,-6,-3,-4,-3,-1,0
487660865748,0,1,2,-2,-2,2,0,-1
487660865748,0,-4,-5,-5,-1,-3,-1,1
487660887655,2,3,7,2,-1,-1,-1,-2
487660887655,-4,-3,-1,2,0,-2,-2,-2
487660888406,0,-1,-4,-2,-3,-1,0,1
487660888406,-1,1,3,3,1,0,-1,-2
487660901192,-2,-1,-1,-5,-6,-1,-2,-3
487660901192,-1,0,5,3,5,-1,-1,0
487660909629,-2,-2,-6,-5,0,-3,-2,0
487660909629,-1,-4,-15,-3,-1,-4,-3,-2
487660924989,2,9,26,10,0,-1,1,1
487660924989,3,-1,11,2,-3,-1,-1,0
487660925662,-1,-4,-5,-1,-3,-1,-1,-4
487660925662,-2,-6,-9,-5,0,-1,0,0
487660947358,-2,1,-1,-6,-1,-1,-1,0
487660947358,-1,-5,-16,-2,-1,0,0,-1
487660948215,1,-1,2,-1,-2,0,-2,-2
487660948215,1,2,0,-2,-2,-1,1,0
487660961105,0,-3,-4,1,-1,0,1,-1
487660961105,-3,-2,1,-2,-3,-2,-2,-1
487660969245,-2,-4,-3,-1,0,-2,-1,1
487660969245,-1,-5,-2,-4,-1,0,0,-3
487660984949,0,6,6,3,1,-2,1,0
487660984949,-2,-8,-16,-6,-2,0,-2,1
487660985684,-1,2,9,4,-1,-1,0,-1
487660985684,-2,-3,-12,-1,-2,-1,0,-1
487661007429,2,1,10,4,1,-1,-2,1
487661007429,-1,2,3,1,-2,0,-1,-2
487661008203,-2,-1,-6,-3,-2,-2,-1,-1
487661008203,-1,-3,2,-1,-5,-1,-1,0
487661021026,-2,-4,-10,-6,-4,-2,-2,-2
487661021026,-1,-2,-6,-6,-2,-2,0,-1
487661030042,1,3,6,-2,1,-1,-1,-1
487661030042,-2,3,1,1,0,-2,-2,0
487661043610,-2,-6,-6,-3,-3,2,-3,-1
487661043610,-1,0,0,-2,-2,0,0,0
487661052475,-1,-1,9,3,-1,-2,-1,1
487661052475,-3,-3,-4,-7,0,-1,0,-2
487661067371,-1,3,6,3,-1,-2,-2,-2
487661067371,0,-5,-9,0,-1,-1,-2,-2
487661068964,-1,4,-3,-4,-2,-1,-1,-1
487661068964,-1,-2,2,-1,-3,-1,-2,-2
487661089906,-2,-7,-15,-9,1,1,-2,-1
487661089906,-1,6,20,8,1,1,-1,-1
487661091472,-2,-6,-13,-4,-2,-2,-2,-1
487661091472,0,3,11,4,-1,0,-3,-2
487661104194,-1,-3,-9,-4,-3,-4,1,-2
487661104194,-1,-1,-5,-5,-2,-2,0,0
487661112484,0,-2,-4,-2,-2,0,1,-2
487661112484,-1,0,1,1,-2,-1,-1,0
487661127389,-2,-4,-3,-3,0,-1,-1,-1
487661127389,0,-2,-2,-2,0,-4,0,0
487661129066,-2,-1,0,1,-1,-1,-2,-1
487661129066,0,1,-4,-3,0,-2,0,1
487661150030,1,2,7,3,-2,-2,0,-2
487661150030,0,-3,-5,-1,-1,-1,-1,-1
487661151473,-2,2,-3,-3,0,-1,-2,-1
487661151473,0,-6,-5,-2,0,-1,-1,-2
487661163818,-1,7,11,4,1,-1,-1,-1
487661163818,1,3,-1,-1,-1,-3,-2,-1
487661172530,-2,-6,-6,-2,-1,0,0,-3
487661172530,0,0,2,-2,-1,-3,-1,-2
487661187943,-4,-10,-19,-7,-4,-4,-2,-1
487661187943,-1,1,11,5,-1,0,-1,-2
487661188968,-1,-3,-6,0,-1,1,0,0
487661188968,-2,-1,-3,0,-1,0,0,-1
487661209991,0,-1,-4,-1,-1,1,2,0
487661209991,-2,-3,-7,-5,0,-1,0,0
487661211487,1,0,6,-2,0,0,1,2
487661211487,-2,-3,-8,1,-3,-2,-2,-1
487661224252,1,7,5,0,1,-1,-1,0
487661224252,-1,-4,-5,-4,0,0,0,-1
487661231049,-2,-3,0,0,-2,-1,1,-2
487661231049,0,-2,-6,-3,0,-2,-1,1
487661247436,-2,-2,2,-1,-1,-2,1,0
487661247436,-1,-2,6,1,-2,2,-2,-2
487661249009,0,4,-3,3,-2,-2,-1,0
487661249009,-1,-1,4,1,-2,3,1,0
487661269922,-4,-6,-6,-2,-1,0,-3,-2
487661269922,-1,2,-2,-3,-1,0,0,0
487661271483,-1,-3,-8,-5,-1,-1,-2,-2
487661271483,0,1,3,-1,-1,-2,0,-1
487661284790,1,2,4,3,1,0,-2,-1
487661284790,-2,-2,-2,1,0,1,-1,0
487661291116,-1,-1,2,0,-2,-7,-4,0
487661291116,-1,1,5,-1,-3,1,0,0
487661307479,-1,-5,-8,-3,-2,1,-2,-3
487661307479,2,7,3,-2,0,-2,-2,1
487661309016,-2,-6,-9,-7,0,2,-1,1
487661309016,2,10,21,12,1,-1,0,0
487661330520,-4,-7,-9,-5,-2,-4,-2,-2
487661330520,0,-5,-1,-1,-3,-1,-1,-1
487661331558,1,-2,-14,-4,-1,-3,0,-2
487661331558,-1,0,8,-1,-3,-1,0,-2
487661344594,1,-2,0,2,-1,0,-1,-1
487661344594,-2,0,0,-2,-2,-3,0,-2
487661351306,-2,2,0,0,-1,1,0,0
487661351306,-2,-4,-9,-6,2,0,-2,-1
487661367341,-1,-4,-3,-2,0,1,-2,-1
487661367341,1,8,2,2,-2,-3,0,1
487661368957,-3,-6,-1,0,-1,0,0,0
487661368957,0,-2,-5,-2,-1,-4,-2,-1
487661389838,0,-1,4,-1,-2,-2,-2,-1
487661389838,-2,-4,-8,-5,-2,-2,-4,-2
487661391431,-2,-2,7,4,-2,-3,-2,-2
487661391431,0,8,7,3,-1,1,-2,0
487661404242,-1,-2,-8,-5,-3,2,-1,-1
487661404242,-1,-2,-2,-4,-2,4,1,-1
487661410959,0,-1,-3,1,-1,0,-1,-1
487661410959,-2,-8,-21,-13,-2,-4,0,-2
487661427362,0,5,38,19,0,-2,-1,1
487661427362,-2,-4,-9,-1,-1,-4,-1,-3
487661428956,1,1,1,-3,0,-1,0,-2
487661428956,-1,-2,-4,-2,1,-1,-1,-3
487661449898,0,1,-5,-6,-2,-1,-1,0
487661449898,-3,-4,2,-1,-2,-1,-2,-1
487661451438,-2,2,4,-1,-2,-2,-2,-1
487661451438,-1,-1,-4,1,-1,-2,-2,-1
487661464175,-1,1,-4,-2,0,0,0,-1
487661464175,-3,-3,1,0,-1,-3,0,-1
487661471004,0,-1,-4,-4,-1,1,0,-1
487661471004,-1,0,3,1,-2,-1,-2,-2
487661487370,-2,-2,-4,0,-2,-3,-2,-1
487661487370,-3,-3,-2,-3,-1,-1,-1,-1
487661488966,1,1,1,1,-2,3,0,0
487661488966,-2,-2,2,1,1,0,-1,-1
487661510109,-5,-6,-15,-7,0,0,0,-3
487661510109,2,5,4,3,-3,-4,-4,0
487661511437,-2,-4,0,-4,-1,0,1,0
487661511437,0,-3,-4,9,-1,3,-2,0
487661524229,-1,-2,-7,-6,-2,-1,-1,-1
487661524229,-1,-5,-8,-3,-2,-2,-1,-2
487661531440,-2,-4,-5,-4,-2,-2,-2,0
487661531440,1,5,4,-2,-2,-1,-1,0
487661547561,-3,-3,-2,-1,-3,-1,-2,-2
487661547561,1,0,-2,-2,0,0,0,0
487661548899,0,-2,0,0,-2,-3,-1,-3
487661548899,-2,-5,-3,-3,-1,-2,-1,-1
487661570014,1,4,3,3,0,2,1,-1
487661570014,-1,1,5,0,-1,1,1,-1
487661571479,-1,0,2,1,0,-3,-1,0
487661571479,-2,-2,-1,-2,-2,-6,-1,-1
487661583543,0,-1,-1,-2,0,-3,-1,-1
487661583543,-2,-2,-4,-2,2,5,-1,-1
487661592504,-2,-1,-6,-3,-1,-1,0,0
487661592504,-1,-2,5,1,-3,-1,-1,-1
487661608067,-1,-3,-1,2,-1,-2,-2,-1
487661608067,-1,-2,-7,-7,-2,-1,-1,-1
487661608897,1,-5,-7,3,-1,-3,-1,0
487661608897,0,6,14,5,1,1,1,1
487661637366,-1,-4,-9,-5,0,-1,-1,-2
487661637366,-3,-10,-12,-4,-1,-3,-3,-3
487661639412,2,10,16,1,1,3,-1,-1
487661639412,-3,-9,-11,-4,0,0,0,-1
487661643909,0,1,4,3,-4,-5,-3,1
487661643909,1,3,5,2,-1,0,-1,-1
487661652497,-3,-5,-8,-6,-1,-2,-2,-2
487661652497,0,4,2,0,-2,0,-1,0
487661667337,-3,-2,-5,-7,0,1,-1,0
487661667337,-2,-1,9,5,-1,-2,0,-1
487661668936,0,0,0,0,-2,0,-1,0
487661668936,0,-2,-5,-1,-1,-1,1,-2
487661690595,-2,0,-4,-4,0,1,0,-1
487661690595,2,0,1,0,-3,0,1,-1
487661692092,-1,-1,0,3,-1,0,-1,-2
487661692092,0,1,0,-2,-1,0,-2,-2
487661703516,-1,-1,1,-1,-5,-4,0,-1
487661703516,-2,0,-1,0,0,-1,-1,-1
487661713139,-2,-1,1,0,-2,-1,-1,-2
487661713139,-3,-6,-15,-7,-2,-1,-1,-2
487661727968,2,2,13,3,0,1,0,1
487661727968,-2,-3,-9,0,-2,-1,-1,2
487661729481,-2,-4,-7,-4,-1,0,-1,-2
487661729481,1,1,17,9,2,-5,-1,-1
487661749979,-1,-2,3,3,0,-1,-2,-1
487661749979,-4,-7,-11,-8,-1,1,0,-2
487661751459,1,1,-4,-1,0,-1,-3,1
487661751459,-4,-3,-8,-4,0,-1,0,0
487661763595,-1,-1,3,1,-3,-2,-2,-1
487661763595,0,2,5,1,0,-3,0,1
487661772430,-1,-3,-4,-3,-3,0,-2,-3
487661772430,-2,-1,-5,-6,-2,0,-1,-2
487661787442,1,0,-5,-1,-1,-1,-1,-1
487661787442,0,0,1,5,-1,0,-1,0
487661789140,-2,0,3,0,0,-2,-1,0
487661789140,0,0,-2,0,-3,-2,0,-1
487661809919,-1,-1,-3,-5,0,-2,0,-2
487661809919,0,-5,-9,-1,-2,0,-2,-1
487661811508,1,7,21,6,1,0,0,1
487661811508,-1,-5,-9,-2,-3,-2,-2,0
487661823587,-2,-1,-2,-2,-2,2,2,-1
487661823587,-2,-4,-8,-7,-1,-6,-2,-2
487661832618,-3,-2,-5,-2,-2,1,1,-1
487661832618,-3,-6,-5,-3,1,3,0,-1
487661847374,1,4,-1,0,1,-2,-1,-1
487661847374,1,6,21,8,0,-1,0,0
487661848929,1,1,-1,1,1,-1,-1,-2
487661848929,0,0,0,-3,-1,-1,-2,-1
487661869936,-3,-5,-14,-5,-1,1,-2,-2
487661869936,-1,-1,-5,-4,-1,-1,1,0
487661871471,-1,-3,-4,-5,-1,-1,-1,0
487661871471,1,4,3,2,-2,-2,-3,-1
487661883451,-2,-3,6,2,1,1,0,1
487661883451,0,-3,-9,-5,-2,-2,-3,-3
487661892472,-1,0,5,-1,-2,0,-2,-3
487661892472,0,2,-2,-1,0,1,2,0
487661907358,-1,-3,2,0,-2,0,-1,-1
487661907358,-2,-1,3,-1,-1,0,0,-2
487661908944,1,0,1,1,-2,-3,-3,-2
487661908944,-1,-2,3,4,-1,0,-3,-2
487661929988,-1,-1,-3,-1,-2,-3,-2,0
487661929988,-1,-4,-7,-4,-1,-3,-1,-1
487661932059,-2,-6,-5,-5,0,-2,0,-1
487661932059,1,1,-7,-5,-1,-3,0,-1
487661943864,-1,-1,21,6,1,1,1,-1
487661943864,-3,-3,-10,-7,0,0,-2,-3
487661952497,0,5,15,11,0,1,2,0
487661952497,-3,-2,7,4,-3,-2,-3,0
487661967326,0,-3,-17,-5,0,-1,1,0
487661967326,-2,-7,-21,-14,-2,-1,0,-2
487661969092,-1,3,8,6,2,1,-1,-1
487661969092,-2,-1,-4,-1,2,0,-1,-2
487661989966,0,6,8,3,-1,-1,0,-1
487661989966,1,1,8,-1,-2,2,0,1
487661991500,-3,-11,-33,-14,-3,-2,0,1
487661991500,-1,3,6,6,0,-2,0,-1
487662012496,0,0,0,0,-1,-3,0,-1
487662012496,-1,-3,-5,-1,-1,1,-1,-2
487662014092,0,-3,2,1,-1,0,-2,-1
487662014092,-2,-6,-8,-7,-2,-3,-1,-3
487662027379,-3,-3,-8,-4,-2,-2,-3,-1
487662027379,-2,3,10,3,-2,-1,0,-2
487662028966,-1,-2,-4,-2,-2,-2,1,-1
487662028966,0,-2,-1,-4,0,6,0,-2
487662049913,0,-1,-2,-2,-1,-3,-2,0
487662049913,1,0,2,4,0,2,-1,0
487662051426,-1,-2,-13,-7,0,-1,-2,-1
487662051426,0,0,9,1,-3,-5,-2,0
487662072422,0,-2,-7,-2,-1,1,0,-1
487662072422,0,3,1,4,-2,-3,-1,-2
487662074089,-1,-4,-2,-1,-1,0,0,-1
487662074089,-2,-5,-12,-5,-2,-3,-1,-1
487662087464,-2,-6,-5,-4,-1,0,-1,-2
487662087464,-1,-1,4,-2,-1,-2,-1,-2
487662088984,0,-2,1,-4,-1,-1,-2,-2
487662088984,-2,-5,-12,2,-3,-2,-2,-2
487662109918,-1,-1,2,4,-1,1,-1,-1
487662109918,0,2,3,0,-1,-1,0,0
487662112090,0,1,6,1,0,-3,-1,0
487662112090,-2,-2,-4,-7,0,-2,-2,-1
487662132437,-4,-7,-11,-9,-3,-1,-1,-2
487662132437,-1,0,3,4,0,0,-2,0
487662133985,0,9,10,0,-1,0,0,1
487662133985,2,1,5,-2,0,0,-1,2
487662146666,0,-2,-6,-3,-2,-3,-2,-2
487662146666,0,1,13,10,-1,-2,0,1
487662153788,-4,-10,-11,-4,-3,3,0,-1
487662153788,0,4,8,5,2,-1,-1,0
487662169949,-3,0,-2,-1,0,1,0,-1
487662169949,0,0,-3,-1,-1,0,-1,0
487662171761,-2,-3,-4,-1,-1,-7,-1,-1
487662171761,-1,-5,-7,-5,-2,2,0,-1
487662192442,0,1,-1,-2,-3,-3,-2,1
487662192442,-1,-1,-1,-2,-1,0,0,-2
487662194052,-1,0,0,0,-1,1,-1,-3
487662194052,-1,-5,-9,-3,-1,-1,-1,-2
487662206758,-1,2,7,0,-3,0,-1,0
487662206758,3,10,17,6,1,-1,0,2
487662213532,0,-4,-8,-8,-3,-1,-1,-2
487662213532,0,1,6,6,-2,-1,0,0
487662229890,0,-4,-4,2,0,1,0,-1
487662229890,-4,-6,-19,-9,-1,-1,-1,-3
487662231456,-3,-2,6,2,0,-1,0,-1
487662231456,0,1,8,1,0,-1,-1,-1
487662252391,0,4,2,1,0,-2,-2,0
487662252391,0,-9,-12,-1,0,-1,-2,-1
487662253917,-1,-1,-2,-5,-1,-1,-2,-2
487662253917,0,-4,-15,-3,-1,2,1,-1
487662266817,-2,-5,11,2,-2,2,0,0
487662266817,0,7,3,-3,-2,-4,0,-1
487662273493,-2,-3,-3,1,0,-1,-1,1
487662273493,-1,1,-5,-4,-1,-2,-3,0
487662289911,1,2,15,3,-1,-3,-2,-2
487662289911,-5,-9,-11,-7,-3,1,-1,-3
487662291484,1,1,9,9,0,0,-1,-1
487662291484,0,4,7,-3,-1,-2,0,0
487662312816,-3,-6,-13,-4,-1,0,-1,-2
487662312816,0,-4,1,0,-2,-3,-1,-1
487662314455,2,4,1,-3,-3,0,-2,1
487662314455,-3,-4,-6,-4,-1,-3,-2,-2
487662326941,-2,2,4,-2,-1,-3,0,-1
487662326941,1,-2,-3,3,0,-1,-1,0
487662334126,-2,-2,-6,-6,-1,-2,-1,-2
487662334126,0,-3,1,0,-2,0,0,-2
487662349910,-2,-6,-12,-5,-2,-2,0,-2
487662349910,-2,-1,-1,-6,-2,-3,-1,-1
487662351475,-2,-1,6,7,-1,-2,0,-1
487662351475,-3,-5,-10,-4,-2,2,-1,-1
487662372382,0,-2,-8,-6,-2,-6,0,0
487662372382,2,5,12,6,-3,2,-1,0
487662373956,-2,-7,-15,-7,0,0,-2,-2
487662373956,0,3,10,4,1,0,-1,-1
487662387310,-1,0,5,4,0,0,0,0
487662387310,-1,-2,-8,-4,-1,0,0,-1
487662393591,0,1,1,-3,-3,-1,-2,-1
487662393591,-1,0,-5,1,-2,-3,-1,-2
487662410517,-2,-2,-7,-6,-1,0,-2,-2
487662410517,-1,0,-6,2,-2,-1,0,0
487662411931,-1,7,17,-2,-3,-2,1,-1
487662411931,-2,-5,6,5,1,-1,-2,-1
487662432540,2,-1,-5,-3,-2,1,0,-2
487662432540,1,-1,-7,-1,0,-1,-2,-2
487662434111,-1,-6,-15,-6,-1,-2,-1,-2
487662434111,2,7,30,8,0,-1,0,0
487662447164,-1,-3,-7,0,-3,-2,-2,0
487662447164,-2,-4,2,-3,-1,-2,-2,0
487662453550,1,-3,-5,0,1,0,-1,-1
487662453550,-2,-2,-6,-6,-2,-5,0,-1
487662470095,-2,1,3,2,-1,2,0,0
487662470095,-2,-4,-6,-6,-1,-1,-1,-1
487662471611,-1,3,-2,3,-3,-2,-1,2
487662471611,-1,-1,6,4,-2,0,-3,-2
487662492712,-1,2,6,0,-2,-1,0,1
487662492712,-2,-5,-8,-2,-4,-3,-1,-1
487662494195,-2,-3,-1,-2,0,1,0,-1
487662494195,0,0,-11,-7,-3,-3,0,-1
487662506458,-2,-4,3,1,-2,-5,-1,-3
487662506458,-1,2,0,-2,-1,-2,-3,-2
487662515558,-1,-1,-3,-3,-2,1,-1,-2
487662515558,-2,-3,-8,-6,-4,-2,-1,-1
487662529900,-2,0,5,5,1,1,-1,0
487662529900,1,0,-2,-1,-1,-2,-1,-2
487662531489,-1,0,2,1,-2,-1,-1,0
487662531489,-3,-7,-16,-11,-1,1,-1,-3
487662552490,2,-4,-2,-1,-1,0,-2,1
487662552490,2,17,17,5,1,0,0,0
487662553948,-1,-2,-3,-2,-1,-2,-1,-1
487662553948,-1,-1,5,3,1,-1,-1,-1
487662566118,-2,-2,-11,-6,-2,-3,-3,-1
487662566118,-4,-8,-8,-4,0,0,0,-1
487662575110,1,-1,6,2,0,-1,-1,-1
487662575110,-2,2,-5,0,-1,0,0,2
487662589902,2,-1,-1,-2,-1,-3,-1,-3
487662589902,-3,-4,3,0,-3,-2,-2,-1
487662591502,-2,-1,-8,-3,-1,0,-2,-1
487662591502,-2,-3,-1,-2,0,0,-2,-3
487662612376,-1,-3,-2,-1,1,-1,-1,-1
487662612376,0,-2,1,-3,0,-1,1,-1
487662614075,-1,-3,-11,-2,0,-2,0,1
487662614075,-2,-4,4,-4,-3,-3,0,-2
487662626105,4,13,-1,5,0,4,2,1
487662626105,-2,-12,-17,-5,-3,-2,-2,-4
487662635683,1,1,6,1,1,1,-1,-1
487662635683,-1,-6,-10,-4,-1,-2,-2,-2
487662649989,-3,-4,-17,-8,-3,-3,-1,-1
487662649989,0,1,15,5,-2,-1,0,0
487662651505,-2,-6,-4,-1,-3,-1,-1,-1
487662651505,1,2,-10,-2,-1,0,0,-1
487662672498,-4,-6,-3,-1,-2,-1,-2,-3
487662672498,0,-1,6,-1,0,1,0,2
487662674041,-2,-3,-4,-5,-1,-3,-1,-2
487662674041,0,1,14,10,1,-2,-1,0
487662686060,-1,-2,-13,-4,-2,1,0,0
487662686060,1,1,7,1,-1,-1,0,-1
487662695113,-4,1,-5,-2,-1,-3,-1,-2
487662695113,-1,-1,10,2,0,0,1,-1
487662709937,-3,-6,-1,-6,-2,-1,-2,-2
487662709937,-1,8,10,2,0,0,-1,-1
487662711504,1,1,0,11,-1,-1,0,0
487662711504,0,-2,-8,-4,0,1,0,-2
487662732460,-1,1,0,-6,-1,-1,-1,-2
487662732460,-4,-5,-17,-6,-4,-3,-3,-2
487662734024,1,1,10,8,-1,0,0,-1
487662734024,-1,3,-3,0,0,-3,-1,1
487662746102,0,0,11,4,1,0,0,-1
487662746102,-1,-1,-5,-2,0,0,1,1
487662755076,-3,-2,-4,-6,-3,-4,-1,0
487662755076,-1,-3,-9,-6,-4,-2,0,-3
487662769970,-1,-3,-4,-2,-2,-2,-2,-2
487662769970,1,0,-1,-5,0,-1,0,-2
487662771539,-1,-1,13,7,0,0,1,-1
487662771539,-1,2,1,0,0,0,-2,0
487662792434,-1,1,4,0,1,-1,-1,-1
487662792434,-2,-2,-1,1,-3,-3,-1,-1
487662794029,0,-3,-3,-5,-1,1,-1,-2
487662794029,-3,-4,-12,-7,-2,-1,-1,1
487662806105,-1,-4,-4,2,-2,-1,0,-2
487662806105,2,10,20,8,2,0,0,1
487662821132,0,-3,-12,-6,-2,-2,-1,-1
487662821132,-1,-2,4,1,-2,-4,-2,-1
487662829959,0,-2,-4,-2,0,1,-2,-1
487662829959,-3,-1,-5,-3,-2,-1,0,-1
487662831571,1,3,4,2,-1,0,-1,-1
487662831571,0,-3,-7,-5,-3,-3,-1,-2
487662852490,1,7,17,5,-1,-3,0,-1
487662852490,-3,-9,-16,-6,-4,-2,-1,-2
487662854037,-1,2,5,1,2,2,0,-1
487662854037,-1,-5,-11,-7,-1,1,0,-1
487662866027,-2,-3,7,5,1,-1,0,-1
487662866027,-1,-4,-5,-2,-2,-1,-2,-1
487662875050,1,4,3,2,0,0,1,1
487662875050,-2,2,12,4,1,-1,0,-1
487662890462,-1,1,-1,-1,-2,0,-2,-3
487662890462,-4,-9,-12,-7,-2,-3,-3,-1
487662891919,-6,-9,-14,-8,-4,-4,-1,-2
487662891919,8,17,22,8,-1,1,-2,1
487662912363,-2,-4,-10,-3,-2,1,0,-1
487662912363,-1,1,4,0,-1,-1,-1,-2
487662913940,-2,-5,-11,-6,-2,0,-2,-2
487662913940,-1,-4,-1,-1,-2,-3,-2,0
487662934879,-1,-1,0,-5,-1,-1,-1,-2
487662934879,1,2,-3,4,3,1,0,0
487662936461,-1,-1,11,-4,-1,-5,-1,-1
487662936461,-3,-1,-5,4,-1,2,1,-2
487662950417,-1,-3,-3,-2,-2,-2,-2,0
487662950417,-3,-6,-8,-6,-1,-1,-1,-3
487662951475,-2,2,3,0,-1,0,-1,0
487662951475,-1,-4,-2,0,-1,-5,-2,-1
487662972266,-3,-3,-10,-5,-1,1,1,-2
487662972266,1,1,3,-1,-2,0,-1,0
487662978611,-2,-8,-17,-8,-2,-3,-2,-1
487662978611,-1,1,6,1,-2,0,0,0
487662995078,3,8,14,8,1,2,0,1
487662995078,1,0,7,5,0,-5,0,0
487662996507,0,5,7,2,1,1,0,-1
487662996507,-3,-7,-13,-5,-1,-1,-1,0
487663009307,-1,-4,-7,-6,0,-1,-1,1
487663009307,-2,-3,2,0,0,0,0,-1
487663016000,3,4,1,2,-1,-2,0,-1
487663016000,-3,-2,-5,-3,-3,1,-2,-1
487663032443,-1,-2,-3,-1,0,-3,-2,-1
487663032443,-1,-1,2,0,-1,-1,-2,0
487663034084,1,1,-5,-3,-1,0,-1,-1
487663034084,0,-1,8,3,-1,0,0,0
487663055063,-1,0,-1,2,-1,-3,0,-1
487663055063,-2,-2,-6,-2,-1,-1,-2,-2
487663056610,0,-4,-1,-1,-2,-1,-1,0
487663056610,-2,-6,-12,-6,-1,-4,-2,-3
487663070408,1,8,14,0,-4,-2,0,0
487663070408,-1,-3,-15,1,-3,-1,0,-1
487663071899,-2,1,15,4,0,2,-2,-1
487663071899,-3,-7,-15,-4,0,1,-1,-2
487663092454,0,2,0,-1,-1,-3,-2,-1
487663092454,-2,-6,-14,-8,-3,-2,-1,0
487663094071,-3,-5,-1,-6,-2,-1,-4,-3
487663094071,-1,-7,-11,-4,-5,-1,0,-2
487663114925,-1,-5,7,4,-1,-3,-1,-2
487663114925,0,0,3,4,1,4,1,-1
487663116515,-1,0,-10,-1,0,-2,-2,0
487663116515,-2,-3,-1,-6,-2,-2,-2,-2
487663129272,-2,-5,-16,-8,-3,-2,-2,-1
487663129272,0,0,13,3,-2,-1,-1,1
487663136105,-1,-3,-2,2,-2,-3,-2,0
487663136105,-1,2,1,0,0,-2,0,1
487663152710,1,4,13,3,-1,0,-1,0
487663152710,-1,1,3,1,0,-1,-2,-1
487663154097,-2,-1,-6,-3,-2,-1,0,-2
487663154097,-1,0,2,-1,0,1,0,-2
487663174929,-1,-6,2,2,-1,-2,0,-1
487663174929,-1,0,-5,-1,-2,-1,0,-2
487663176495,0,2,9,6,1,0,-1,-1
487663176495,2,9,-3,-5,-2,1,-1,1
487663189243,-4,-6,8,2,-2,-2,-1,-1
487663189243,-2,1,0,-4,-1,-2,-1,-3
487663196135,-1,2,-6,-1,-2,-1,2,-1
487663196135,0,-2,-1,-1,-2,-2,-1,0
487663212408,-4,-4,-11,-7,0,0,-2,-1
487663212408,2,0,-4,-1,-1,1,0,1
487663213995,0,-2,1,-2,0,0,0,-1
487663213995,-2,-2,3,0,-1,0,0,-1
487663234943,-1,-1,-10,-3,0,0,-1,0
487663234943,0,-1,-2,-2,-3,-6,-2,0
487663236486,-3,-5,-14,-9,-2,-1,-1,0
487663236486,1,2,7,8,0,-2,-2,-2
487663248959,-2,-5,-11,-5,-2,-1,0,-2
487663248959,-3,-5,-7,0,1,0,-1,-1
487663257469,0,5,11,3,-2,0,-2,-2
487663257469,-1,-3,-8,0,-1,0,-1,0
487663272310,-2,-3,-5,-3,-2,-1,0,-2
487663272310,-1,-2,-4,-6,-1,-2,-1,-1
487663273950,-2,-2,-7,0,-1,-2,0,-1
487663273950,-1,0,3,0,-1,0,-1,0
487663294905,-1,1,1,0,-1,-1,0,0
487663294905,-2,-4,-5,-4,-3,-3,0,-2
487663296470,-1,-2,0,-1,-1,-2,-2,-1
487663296470,-1,1,3,1,0,0,-2,-2
487663309205,1,3,0,-4,-2,2,0,-1
487663309205,0,-1,1,2,-2,-1,-1,-2
487663315988,0,-3,-3,0,0,-1,-1,-1
487663315988,-2,-1,9,4,0,2,-2,-1
487663332351,-4,-8,-11,-5,-1,0,-2,-2
487663332351,0,7,9,1,1,4,1,-2
487663333973,0,-5,-11,-11,-3,-3,-3,0
487663333973,0,-1,-14,-2,-3,-6,-2,-3
487663354878,3,3,10,10,0,1,0,1
487663354878,-3,-5,2,-2,-1,-2,-2,-2
487663356489,-2,-4,-1,-1,0,-1,-1,-2
487663356489,-2,-5,-11,-6,-3,-2,1,0
487663369207,-2,2,-1,-7,-2,-1,-2,0
487663369207,0,2,13,7,1,0,-1,1
487663375964,-4,-8,-19,-5,-2,-2,-1,-2
487663375964,-3,-2,3,-2,-1,0,-1,-1
487663392412,1,1,3,4,0,-3,-2,0
487663392412,-2,-3,-1,-1,-1,0,0,0
487663393961,-1,0,4,0,-1,1,0,-2
487663393961,-2,-3,-3,-5,-1,-1,0,-3
487663414878,-1,0,-1,1,-3,-1,1,-3
487663414878,-1,-2,-8,-5,-1,0,-1,-1
487663416486,-2,1,2,2,0,-2,-2,-2
487663416486,0,0,4,0,1,-3,-1,2
487663428477,1,1,-1,-4,-1,2,-2,-2
487663428477,-1,3,-1,-2,0,-2,1,-1
487663437509,1,5,21,9,0,1,1,-1
487663437509,-1,-3,-2,-2,-2,0,-1,0
487663452344,-1,-3,-9,2,0,-3,-1,-1
487663452344,-3,-5,-12,-8,-2,-3,-2,-1
487663454008,1,2,9,-2,-2,1,1,0
487663454008,-1,0,0,5,1,-1,0,0
487663474869,-2,-6,-3,-1,-3,-4,0,0
487663474869,1,6,-2,-2,-1,1,0,-1
487663476463,-2,-3,0,-2,-3,-2,-1,0
487663476463,1,-2,-5,-4,0,1,0,-1
487663497415,-3,-5,-6,-4,-1,-3,-1,-1
487663497415,-1,-3,4,-1,-1,-1,-1,-1
487663498991,-2,-4,-13,-5,-2,-4,-2,-2
487663498991,1,3,13,3,0,2,0,-1
487663512407,-1,2,3,2,-1,2,-1,0
487663512407,0,-1,-2,1,-2,0,-2,-1
487663513966,-2,-3,-9,-3,-2,-1,-1,-2
487663513966,-2,-5,-7,-10,-2,-3,0,-3
487663534895,-1,3,3,7,1,-1,-2,-1
487663534895,-1,-3,-2,-2,0,0,-1,-1
487663536494,3,6,12,6,1,1,0,2
487663536494,-2,-1,-3,-2,-1,-2,-2,-2
487663548541,-1,-2,-3,-6,-2,-4,-2,-4
487663548541,-2,-5,-12,-3,-1,-2,-1,-1
487663565025,0,-2,-5,0,-1,0,0,-1
487663565025,1,3,1,-1,-1,-1,-1,-1
487663572461,0,0,-2,-3,-1,0,-1,0
487663572461,0,-3,1,1,-2,-3,-1,-2
487663574119,0,-3,-1,-2,-1,-1,-2,-2
487663574119,-3,-1,3,3,0,3,-1,-2
487663602415,-3,-6,-7,-6,-2,-6,0,0
487663602415,-2,1,1,-4,-4,-8,-3,-1
487663604005,0,2,10,4,-1,4,0,1
487663604005,1,-1,4,5,1,-1,-2,0
487663608512,0,4,8,2,3,2,0,0
487663608512,0,6,3,-1,-2,1,1,-1
487663617569,-2,-3,-14,-1,-2,-3,-2,-3
487663617569,-1,-6,-6,-4,-2,-1,-1,0
487663632424,-2,-5,-7,-4,-1,1,-2,-1
487663632424,0,-1,2,0,0,-2,-2,-2
487663634033,-2,-3,-4,-2,-1,-1,-3,0
487663634033,-2,2,-1,-1,-2,-2,-1,-1
487663654894,-3,-4,-6,-4,-2,-3,1,-1
487663654894,0,-4,-6,-7,-1,0,-2,0
487663656482,-1,3,0,3,2,2,1,1
487663656482,-1,-1,22,10,0,-3,-1,0
487663668537,1,1,1,4,-2,2,1,0
487663668537,-1,-1,-2,1,0,1,-1,0
487663677505,0,-2,-3,-6,-2,-6,-2,-2
487663677505,-1,-1,-9,-7,-4,-4,-1,-2
487663692337,0,1,6,1,-3,0,-1,-2
487663692337,-2,-2,0,1,-2,1,1,0
487663693974,-3,-6,-8,-4,-1,0,-2,0
487663693974,1,8,1,-4,-2,-3,-1,-1
487663714882,-3,-6,-8,0,0,-1,-3,-1
487663714882,-3,-3,2,2,-1,0,-1,0
487663716503,-2,-2,-3,-3,-2,-1,-1,0
487663716503,-2,-1,-5,-3,0,0,2,-1
487663728555,1,-4,-10,-9,-1,-2,-1,-1
487663728555,3,9,21,9,-1,1,-2,-1
487663745049,-1,1,0,3,1,3,1,0
487663745049,-1,-2,5,2,-1,0,0,0
487663753055,-2,-4,-10,-3,-1,-2,-1,-2
487663753055,1,-3,-1,-2,-2,-1,-1,-1
487663754677,1,0,-2,-3,0,-3,-1,-1
487663754677,-1,0,-5,-2,-3,-2,-1,0
487663774878,0,0,-2,-3,-2,-1,-2,-1
487663774878,-4,-6,-5,-2,0,-1,0,-3
487663776506,0,-2,2,0,0,0,-1,0
487663776506,-2,-4,-8,-3,-1,0,-1,-3
487663788473,0,0,7,0,0,-3,-2,-1
487663788473,-2,-1,-6,-3,0,-2,1,0
487663797507,-1,-3,-2,-3,-1,-1,0,0
487663797507,-2,-5,-7,-5,-1,-1,-3,-2
487663812349,2,8,16,7,-1,-1,-1,0
487663812349,1,-3,7,5,1,-1,-1,0
487663813995,-3,-3,-15,0,-1,0,-1,-1
487663813995,1,7,8,2,0,0,0,0
487663834872,-1,2,11,0,-3,1,0,-2
487663834872,-2,-4,-6,-5,-3,-1,-1,-2
487663836592,-1,-3,-2,7,-2,-4,0,-3
487663836592,0,-4,-4,-6,1,1,1,-2
487663848494,-2,1,-4,6,3,3,0,-1
487663848494,-1,0,-5,-7,0,-3,-2,-1
487663857581,-2,-1,3,-7,-2,-3,-2,-3
487663857581,0,-5,-7,1,-1,-1,-2,-1
487663872380,0,5,5,-4,-2,-1,0,-1
487663872380,-1,1,-1,-1,0,0,-1,-1
487663873987,-2,-3,-2,-2,-1,1,0,0
487663873987,-3,-4,-11,-7,-2,-2,-1,-1
487663894887,1,5,20,12,-1,-1,0,0
487663894887,1,-2,-13,-1,0,1,1,1
487663896465,0,-2,0,-1,-1,0,-3,-2
487663896465,-1,0,9,3,-1,-2,-1,-2
487663917411,1,-4,-11,-3,1,3,-1,0
487663917411,-1,0,-3,-2,-2,-1,-2,-2
487663918996,-1,2,6,-3,-1,-4,-1,-1
487663918996,-4,-6,-15,-6,-2,-2,-1,1
487663932382,-3,-3,-8,-5,-2,-2,0,-2
487663932382,-3,-5,-2,2,-2,-2,-2,-2
487663933992,3,12,9,-1,1,1,-1,-1
487663933992,1,3,6,0,-2,-1,-2,0
487663954978,-4,-5,-7,-2,-3,-3,-2,-1
487663954978,-1,1,6,-1,0,-1,0,-1
487663956461,-4,-10,-8,-2,-3,-2,-1,-1
487663956461,3,9,19,10,-1,1,-1,0
487663977402,-1,-1,-2,-7,-1,-1,-2,0
487663977402,0,-2,-4,3,-1,-1,-1,0
487663978989,-2,-3,0,-7,0,-2,-2,-1
487663978989,-1,2,6,6,1,-2,1,-1
487663992379,1,-7,-7,-6,-5,-2,0,-1
487663992379,0,0,-4,-4,-3,1,0,-1
487663993990,-1,-1,1,4,0,0,0,-1
487663993990,-3,-5,-10,-4,-1,-3,-1,-2
487664014915,-3,-1,2,-3,0,1,-3,-1
487664014915,2,-1,-4,-1,-1,-1,-1,0
487664016518,1,-2,2,-1,-2,-3,-1,-1
487664016518,0,-4,-9,-3,-1,1,1,-1
487664037414,-4,-5,-6,0,-2,-3,-2,-2
487664037414,0,2,2,-2,1,-1,-1,-1
487664038993,-2,-4,-5,-1,-2,0,-1,0
487664038993,-1,4,12,4,-1,0,-3,-1
487664051721,-2,-3,-10,-2,-2,-2,1,0
487664051721,-1,4,13,4,-2,-1,0,-1
487664058487,-3,-4,-10,-1,0,-1,1,0
487664058487,1,1,11,6,0,-1,-1,0
487664074885,-1,1,2,-5,-2,0,-1,-1
487664074885,-2,-1,-8,-5,-3,-1,-2,0
487664076472,0,0,-4,-3,0,-1,-1,-1
487664076472,-2,-5,-8,-6,-1,-1,-1,-2
487664097365,0,0,-6,-1,-1,-1,-3,-1
487664097365,-3,-6,-6,-4,-3,-4,-1,0
487664098996,0,1,2,1,-2,0,-1,-2
487664098996,-3,-5,-8,-4,-1,-1,-1,-2
487664111777,-1,-2,0,-1,-1,2,-1,-2
487664111777,-1,-3,-5,-5,-2,0,-2,-1
487664118498,1,1,-1,3,-3,-2,-1,-1
487664118498,-3,-1,-4,-1,-1,-2,0,0
487664134881,0,0,-7,-4,-1,0,0,-1
487664134881,-1,-3,6,2,0,1,-1,-2
487664136492,-4,-4,-11,-5,-2,-4,0,-1
487664136492,-1,-1,6,-1,-1,-2,-3,-3
487664157400,-1,2,1,1,-1,-4,0,1
487664157400,-2,-3,-11,-3,2,4,0,0
487664159038,-2,-5,-3,-3,-1,0,-2,0
487664159038,0,4,2,-2,0,-1,-1,1
487664171744,0,-5,0,0,1,-1,-2,0
487664171744,0,-3,0,-1,0,-1,-1,-2
487664178492,2,6,12,2,-1,-1,1,-1
487664178492,-2,-6,-7,-5,-3,-2,-1,-2
487664194873,-1,-2,-4,-3,0,0,-2,-2
487664194873,-3,0,2,2,-2,-2,-1,-2
487664196550,-1,2,-5,-7,-1,-2,-1,-1
487664196550,-2,-3,9,10,-1,-1,-1,0
487664217338,0,1,-3,-3,-2,1,0,0
487664217338,2,-1,9,7,-1,-4,0,-2
487664218960,-2,-3,-10,-10,0,0,-1,0
487664218960,0,2,2,1,-3,0,0,0
487664231715,-1,-5,1,-2,-2,-2,0,-1
487664231715,-2,0,-3,-1,-1,2,-2,-2
487664238577,1,2,-1,2,0,0,1,0
487664238577,-2,-5,-16,-13,-1,-1,-1,-1
487664254894,0,2,4,8,-1,1,0,-2
487664254894,0,0,2,12,-1,-6,-3,-1
487664256529,-4,-6,-3,-7,-3,-2,-2,-3
487664256529,0,2,-8,1,0,2,-1,-1
487664277393,-2,-1,8,-2,1,3,1,-2
487664277393,0,-1,-11,-7,-1,2,-1,0
487664278995,-1,1,15,11,-1,0,-1,-4
487664278995,0,-2,-1,-6,-2,-2,-1,0
487664291689,-1,-1,-1,2,-1,-5,-3,-2
487664291689,-4,1,3,-4,-1,-1,0,0
487664298523,1,-1,-4,2,-2,-1,1,-1
487664298523,0,-2,-8,-6,-1,-2,-2,0
487664314993,1,2,4,1,-1,-1,-1,-1
487664314993,0,-3,-1,-2,-3,-1,-1,0
487664316562,0,4,12,4,0,2,-1,1
487664316562,-3,-8,-14,-4,-3,-3,0,-1
487664337483,-1,4,7,0,-2,-2,-1,0
487664337483,1,-5,-7,-2,-1,1,-1,-1
487664339005,1,-5,-7,-3,-1,-1,0,-1
487664339005,-2,-4,-4,-2,-1,-1,0,-4
487664351741,-4,-6,-13,-8,-2,-2,-1,1
487664351741,-2,2,0,-5,-3,-4,-2,-1
487664366052,-3,-1,0,3,-1,1,-1,-1
487664366052,1,0,6,2,-3,-2,0,0
487664374928,1,-3,-7,-1,-3,-2,-1,-2
487664374928,0,2,1,-1,0,1,-1,-1
487664376495,-3,-4,-5,-1,0,-1,0,-1
487664376495,0,2,2,-2,1,-1,-2,-2
487664397406,1,3,1,-2,-2,1,1,-1
487664397406,-1,-3,-4,-2,-5,-4,-1,1
487664399021,-1,-1,1,-1,-2,1,-2,-1
487664399021,-3,0,-7,-4,0,-1,-2,-2
487664411010,-3,-8,-12,-2,1,-4,-1,-1
487664411010,-1,7,9,0,1,0,-1,-1
487664420036,1,9,19,4,-2,0,-1,0
487664420036,0,-4,-5,0,-1,2,1,-1
487664434930,-1,-2,-4,-4,0,-1,-1,0
487664434930,-1,-1,-4,0,-2,0,-1,-1
487664436496,-2,-3,-4,-3,-2,-2,-2,-1
487664436496,0,1,1,0,0,-3,-1,0
487664457490,-2,-6,-3,0,-1,-1,0,-1
487664457490,-1,-1,-5,-3,-2,-3,1,0
487664459025,-3,0,1,-2,-1,0,-2,0
487664459025,0,0,0,1,0,-1,0,-1
487664471023,-1,0,-2,-2,-1,1,0,-2
487664471023,-1,0,4,2,1,0,0,0
487664480091,-3,-6,-4,2,-1,-1,-1,0
487664480091,-1,4,3,-1,-2,-1,-1,0
487664494886,-2,1,9,3,-2,-3,-3,-1
487664494886,2,4,13,2,0,-1,0,0
487664496504,-1,-4,-5,-5,-1,2,1,-2
487664496504,-1,-2,-3,2,0,0,-3,0
487664517372,0,-2,-8,-5,-3,-4,-2,-3
487664517372,-2,-3,0,2,-2,0,0,-1
487664518996,0,1,-2,-1,0,-2,0,0
487664518996,-3,-3,-6,-5,-2,0,1,-1
487664531022,0,0,2,-1,-3,-3,-2,-2
487664531022,-1,-5,-8,-5,-1,-2,-1,-2
487664540056,0,1,-2,-3,0,-2,-2,-2
487664540056,-2,-1,1,1,-3,0,-1,-1
487664554887,1,3,3,4,0,-2,-1,0
487664554887,-2,-1,-3,-2,-1,-1,-1,-1
487664556531,-1,-10,-13,-6,-4,-1,-1,-2
487664556531,3,9,19,6,2,-1,-1,1
487664577356,-1,-6,-11,0,0,0,1,-1
487664577356,1,6,9,2,0,1,-1,0
487664578992,-1,-4,-13,-9,0,-6,-2,-2
487664578992,-3,-4,-2,1,0,0,-2,-2
487664591035,2,4,8,2,0,1,-2,0
487664591035,-2,-5,-7,1,-2,0,0,-1
487664600022,-1,-2,-3,-2,1,-2,-1,-1
487664600022,-1,-3,-9,-9,-2,-1,-2,-2
487664614919,-1,0,-3,1,0,0,-1,-1
487664614919,-1,-3,0,-6,-2,-1,0,0
487664616464,0,-2,-13,-2,0,-2,0,0
487664616464,1,6,17,2,-2,-4,-1,-2
487664637380,-3,-1,3,-1,-1,3,0,0
487664637380,-1,-6,-8,-5,-5,-3,-1,-1
487664638996,-1,2,0,-2,-4,-3,-2,-2
487664638996,-1,-3,-8,-4,-4,0,-1,-1
487664651049,-3,-3,0,-2,-2,-2,0,-1
487664651049,-2,-1,-9,-3,0,1,-1,0
487664667563,-2,-2,13,9,0,0,1,-2
487664667563,1,9,6,1,1,1,0,0
487664674874,-2,-1,0,0,0,0,-2,-1
487664674874,-1,-2,7,2,1,-1,-3,-2
487664676491,-2,-2,-5,-2,-4,-2,-1,1
487664676491,-1,-1,11,2,1,-1,0,2
487664704885,2,0,-5,-3,-1,3,0,0
487664704885,0,-2,-4,-4,-2,-2,-2,-2
487664706491,-2,-2,0,-1,0,1,-1,-1
487664706491,-1,-1,-1,-1,-2,-2,-1,-2
487664711041,0,-1,6,0,-2,-3,-2,0
487664711041,-1,-4,-6,-1,-2,0,1,-1
487664720019,0,0,1,-1,-2,-5,-2,0
487664720019,0,-1,-8,-6,-1,-1,-1,-1
487664734879,-2,-2,12,6,0,0,-1,-1
487664734879,1,4,3,4,1,-1,0,1
487664736489,1,11,10,2,-1,-3,-1,0
487664736489,-4,-10,-13,-5,-1,0,-2,-2
487664757437,1,2,2,0,0,-3,1,-2
487664757437,-4,-3,-3,-2,-1,-3,1,-2
487664759103,0,-3,-6,-6,-2,1,-3,-2
487664759103,-1,-2,-4,-1,-2,-3,-2,0
487664771046,-1,-2,-8,-5,-3,-2,-3,-2
487664771046,-3,-7,-8,-1,0,3,0,-1
487664780151,-1,7,7,2,-1,1,0,-1
487664780151,-2,-7,-12,-3,-1,0,-2,-1
487664795288,0,1,5,3,1,-3,-1,0
487664795288,-1,1,0,-3,-2,-3,-3,0
487664796586,-3,-4,-9,1,0,0,-1,-1
487664796586,-1,-3,0,-1,1,1,-1,-2
487664817449,-2,-2,-8,-5,-2,-1,-1,-1
487664817449,-1,1,-9,-7,-2,-3,-3,-1
487664818987,-1,-6,15,4,0,0,-2,0
487664818987,1,-1,-15,-4,-1,-1,0,0
487664839893,-3,-4,6,5,-3,-1,0,-2
487664839893,2,5,5,2,0,-1,0,0
487664841553,-4,-7,-18,-5,-3,-3,0,0
487664841553,-1,-2,0,-5,0,-1,-1,-1
487664854889,-4,-4,-11,-5,-1,1,-1,-1
487664854889,-1,-2,-5,-3,-2,-4,-1,-1
487664856521,2,0,0,1,2,-1,1,-1
487664856521,0,-3,-13,0,0,-3,-1,-1
487664877421,0,0,6,0,-1,1,-1,-1
487664877421,-2,-2,6,-2,-3,-2,-3,-1
487664879042,0,1,-2,0,-1,1,0,0
487664879042,0,-1,2,1,-2,-3,-2,-1
487664899977,-3,-3,0,-4,-1,-6,-3,0
487664899977,-1,-4,-3,-1,1,4,1,-2
487664901504,-2,-2,-3,-2,-1,2,-1,-2
487664901504,-1,3,14,7,1,1,-1,1
487664914871,2,-1,-4,-2,-3,-3,0,-1
487664914871,-2,-6,-11,-4,-2,-1,-1,-2
487664916486,1,-1,-2,-3,0,-2,-1,-1
487664916486,0,-4,5,2,0,0,1,-1
487664937387,2,8,8,-1,1,-2,-2,0
487664937387,-2,-1,-9,-4,-3,-2,-2,-2
487664939079,1,2,10,5,-2,1,-2,1
487664939079,-2,-1,-2,-2,-3,-3,-2,-1
487664967415,-4,-7,-9,-6,-2,1,0,-1
487664967415,-1,-2,-6,-3,1,-1,0,-1
487664969042,1,9,17,9,2,-1,0,0
487664969042,-3,-4,-2,-2,-2,-1,-1,-2
487664974878,0,-1,-7,-3,-2,-1,-1,-1
487664974878,-4,-4,-8,-6,-3,-1,-1,0
487664976488,0,0,-2,-4,-1,-1,-1,-2
487664976488,0,1,6,0,-2,-1,-1,0
487664997413,0,0,-7,-3,-2,0,0,0
487664997413,-1,2,19,7,-3,-1,0,-1
487664999016,-3,-5,-9,-4,-3,-2,-1,-2
487664999016,-2,-5,-4,-2,-1,0,-2,-1
487665019882,2,7,2,4,2,-2,-1,0
487665019882,-1,-4,-5,0,2,-1,0,-2
487665021480,-2,-1,1,2,-1,1,1,-1
487665021480,-2,-2,-8,-5,-3,0,1,-2
487665034207,-1,-8,-4,-3,-3,1,0,-1
487665034207,0,1,-8,-4,-1,-2,-1,-1
487665041041,0,3,19,6,-2,-3,-2,0
487665041041,-2,-2,-5,-2,-1,-1,0,-1
487665057406,-2,-1,3,0,1,-2,-1,-2
487665057406,-1,-2,3,1,-3,-1,-2,1
487665059094,-2,-3,-13,-6,-3,-2,-1,-1
487665059094,0,0,-1,1,0,0,0,-2
487665079897,-1,-3,5,-1,-2,-1,-1,-1
487665079897,0,-7,-12,-4,0,0,0,-1
487665081503,1,9,13,1,1,-1,-3,0
487665081503,-1,-2,0,1,-1,-2,-2,-1
487665094213,0,-3,-14,-5,-2,-2,0,0
487665094213,2,8,6,1,-3,-2,0,0
487665101043,-5,-8,-7,-1,-3,-4,1,-1
487665101043,0,-1,1,0,0,-1,-1,-2
487665117349,-3,-1,-1,-2,0,2,-3,-1
487665117349,-2,-4,-10,-1,-2,-5,-2,-1
487665119005,0,0,8,1,-3,-1,-2,-2
487665119005,-1,1,-3,-1,1,-1,-1,1
487665139899,0,-6,0,2,1,0,1,-2
487665139899,-1,0,3,-1,0,1,-3,-1
487665141515,-1,-2,-11,-6,-1,-4,-2,-2
487665141515,0,-1,2,-1,-2,0,-1,0
487665154624,-1,0,4,0,-2,-4,-1,1
487665154624,-1,0,5,2,-1,1,0,-1
487665162600,-3,-2,-6,-2,-1,2,0,0
487665162600,0,2,2,-1,-4,-3,-1,-1
487665177413,0,-3,-8,-2,-1,0,-2,-3
487665177413,0,-1,3,-1,0,-2,0,-4
487665178982,-2,-8,-16,-7,-3,-3,-3,-3
487665178982,-2,-3,-2,1,1,-1,0,-1
487665199924,-1,0,7,4,0,-1,-2,-2
487665199924,-3,-2,1,1,0,0,0,0
487665201537,0,-6,-12,-7,-2,-2,-1,-1
487665201537,1,-2,-5,2,-3,-1,-1,0
487665214228,-2,-2,-8,-6,-3,-1,-2,-1
487665214228,-1,0,6,4,0,-1,-2,-1
487665221020,-1,-2,-5,-5,-1,0,0,-1
487665221020,-3,0,2,-1,-4,-1,-2,-1
487665237408,-1,0,4,2,-1,0,1,-2
487665237408,1,2,3,-2,-2,-2,-1,-1
487665239037,-1,0,-4,-1,-1,-1,-2,-1
487665239037,-1,-1,-2,-3,-1,0,0,-1
487665259973,-2,2,-3,-1,0,-1,-1,0
487665259973,-2,-2,-2,-1,-1,0,-1,-1
487665261506,0,0,2,2,1,1,1,-2
487665261506,0,0,0,-1,0,-1,-1,-2
487665274287,0,-1,-2,-6,-5,-4,-1,-2
487665274287,-2,-1,-1,4,-1,1,0,-1
487665281065,-1,1,0,1,-1,0,-1,0
487665281065,1,0,0,1,0,1,0,1
487665297414,-2,-4,-1,0,-1,-1,0,1
487665297414,1,1,-4,-3,-4,-3,-2,0
487665299049,-4,-8,-11,-7,-1,0,-2,-1
487665299049,-2,-1,-2,-3,-1,-1,-2,-2
487665319892,0,6,1,1,-3,0,-1,-1
487665319892,-1,-4,-2,5,-1,-2,-2,-1
487665321617,-1,-2,0,0,0,2,-1,-1
487665321617,-1,-4,-7,-5,1,0,1,-1
487665333579,-1,-4,-7,-5,-2,-5,-1,-2
487665333579,-2,-1,-1,-2,0,-1,-2,-3
487665342547,0,-1,1,-3,-3,-3,-1,0
487665342547,-2,0,6,7,1,-1,-2,-2
487665357454,-2,-3,-5,1,1,2,-2,0
487665357454,-1,1,1,-2,-1,-1,1,-1
487665359052,-1,0,2,2,-2,-1,-2,-3
487665359052,-1,-1,-1,-5,-2,-2,-2,-1
487665379909,0,3,2,2,-1,-1,0,0
487665379909,-3,-2,-2,-4,-1,-2,-1,-2
487665381525,-1,-2,-2,0,1,1,1,0
487665381525,0,-2,0,-3,-3,-1,-2,-1
487665393578,-2,-6,-8,1,0,-4,-2,-1
487665393578,0,9,9,-5,0,1,-1,0
487665402572,1,5,13,13,0,0,1,0
487665402572,-2,-3,-6,1,0,-1,0,-1
487665417437,-3,-5,-4,-4,-1,1,-1,-2
487665417437,0,-5,-8,-7,-2,0,-1,0
487665419006,-2,-4,-14,-5,-1,-2,-1,-1
487665419006,0,4,12,3,-1,1,0,0
487665439942,0,-3,2,-2,-1,-1,-1,-1
487665439942,-2,-4,-8,-3,-2,-2,0,-1
487665441533,0,4,8,1,-1,0,1,0
487665441533,-3,-5,-6,-4,-4,-4,0,-1
487665453560,0,4,8,4,-1,2,1,0
487665453560,0,-3,1,0,0,0,-1,0
487665462552,-1,-3,0,-2,-2,1,0,0
487665462552,-1,-4,-8,-2,-1,-2,1,-1
487665477416,-2,-2,-7,-12,-3,-5,-1,-1
487665477416,1,4,11,9,0,1,-1,-1
487665479052,-2,-1,-5,-3,0,0,-1,-2
487665479052,-2,-1,-2,-2,-3,-2,-1,-1
487665499685,0,-3,-5,-1,0,0,1,-1
487665499685,-2,-8,-17,-7,-3,0,0,-1
487665506046,-1,2,4,4,-1,-4,0,0
487665506046,-1,1,3,-1,1,2,-1,-1
487665513519,-1,-2,-8,-6,-2,1,-2,-2
487665513519,3,4,14,5,-1,-1,-2,0
487665522523,0,0,-5,-4,-4,-1,-1,-2
487665522523,0,0,2,-3,-1,-2,-1,-1
487665537451,1,6,22,11,-1,1,-1,-1
487665537451,-4,-6,-8,-3,2,-2,-1,-3
487665539041,-3,-5,-2,-4,-3,-2,-4,-1
487665539041,-1,-2,-7,-3,-1,-3,1,-2
487665559892,0,-2,-5,-1,1,-4,-1,2
487665559892,1,3,2,-1,0,1,0,0
487665561519,1,0,5,3,-2,0,-2,-1
487665561519,0,3,10,2,-2,-1,-3,-1
487665573558,-3,-2,-4,-1,-2,-3,0,-1
487665573558,-4,-2,-4,-2,-1,-5,-1,-3
487665582531,-3,-7,-10,-11,-2,-1,0,-1
487665582531,-1,1,-3,3,-2,1,-1,0
487665597382,1,3,21,9,0,-1,0,-2
487665597382,-1,-2,-5,-2,-1,-1,-2,0
487665598991,-1,-1,1,-1,-2,-4,-1,-3
487665598991,-2,-6,-8,-3,-1,-3,-2,-2
487665619909,0,1,-8,-4,-2,3,-1,-1
487665619909,-2,-4,-1,-2,-2,-1,-1,-1
487665621548,-1,-1,-3,0,-1,-1,-1,-1
487665621548,-2,-2,-3,-6,1,-3,-2,-3
487665633585,1,-3,-15,-4,0,0,-1,0
487665633585,0,4,8,4,0,0,1,-2
487665642539,0,0,-6,3,0,0,0,1
487665642539,-1,-3,12,3,-2,-3,0,-1
487665657375,-3,-4,-17,-8,-2,0,-1,-1
487665657375,-1,-4,-16,-2,-1,0,-1,-1
487665659015,2,7,24,9,1,-2,1,-1
487665659015,-2,1,0,0,-3,0,-2,1
487665679926,-3,-4,0,0,-1,1,-1,0
487665679926,0,-2,-7,-7,-2,-2,-2,0
487665681540,-2,-1,-6,-3,-2,-2,-3,-2
487665681540,-1,0,0,-1,-1,-1,-1,-1
487665693528,-1,-2,3,-2,-1,-3,-1,-1
487665693528,0,-1,4,0,-1,1,0,-2
487665702584,-2,-3,0,-1,1,1,-1,-1
487665702584,-2,-1,-10,-3,-1,-2,-2,-1
487665717414,-3,-2,1,-1,-3,0,-1,-1
487665717414,0,7,11,0,-2,0,0,1
487665719058,-1,-5,-10,-2,-2,-1,-1,-1
487665719058,-2,-4,-18,-14,-1,-1,-1,0
487665739897,-1,6,16,8,-2,-4,0,0
487665739897,0,-3,-1,2,-4,-1,-2,-1
487665741538,-1,1,-5,-2,0,3,0,0
487665741538,-1,-1,4,-1,-3,0,0,-1
487665753547,-2,-5,-17,-5,-3,-4,0,-2
487665753547,-4,-6,-7,-7,1,-3,-1,-1
487665762567,-2,2,2,-2,0,1,-2,0
487665762567,0,-2,-5,0,-4,-5,-4,-1
487665777414,1,1,2,-2,-1,2,-2,0
487665777414,-1,0,-1,1,-1,-1,-1,-1
487665779038,-3,-8,-10,-5,-1,-3,-1,-2
487665779038,4,15,19,10,3,1,1,0
487665799867,-3,1,4,2,-2,-1,-3,-1
487665799867,-2,-2,-3,0,-1,-1,-1,0
487665801535,-1,-4,-4,-5,-2,-3,-4,-2
487665801535,-1,-4,-3,-1,0,-3,-1,-3
487665822408,-1,-3,-12,-8,-2,0,-1,0
487665822408,0,0,13,7,0,0,1,-1
487665824041,0,1,6,2,0,0,-2,0
487665824041,-2,-2,-6,0,-2,0,0,0
487665836761,-2,-2,-4,-6,-1,-1,-2,-1
487665836761,-3,-6,-16,-4,-2,-1,0,-2
487665843546,-1,4,2,-2,-2,-3,-2,0
487665843546,2,3,13,4,-1,-1,-2,0
487665859928,-2,-3,-4,0,-1,0,0,0
487665859928,-2,-2,-3,-6,-3,1,-1,0
487665861524,-1,-2,4,1,-3,-2,-1,-2
487665861524,-1,2,-12,-2,0,1,-1,0
487665882407,0,-1,4,-1,1,-4,0,-2
487665882407,3,8,6,1,-2,-6,-1,0
487665883997,-2,-2,4,0,0,1,1,-1
487665883997,-2,-7,-8,-6,-1,-1,-3,-1
487665897438,-1,-4,-10,-3,-3,-3,-2,-3
487665897438,0,1,21,8,-1,1,-1,-2
487665899054,-1,-3,-11,-5,-1,-1,-1,-1
487665899054,-1,-1,-1,1,-1,1,-2,-1
487665919928,-2,0,0,1,2,2,1,-1
487665919928,-5,-7,-17,-9,-2,-4,-2,-1
487665921610,-1,0,-7,-1,-3,0,-2,0
487665921610,-1,-3,10,3,-1,0,0,0
487665942436,0,1,-6,-2,-1,0,-1,-2
487665942436,0,-2,-2,-1,-2,0,0,-1
487665944035,-2,-3,-5,-1,0,-1,0,0
487665944035,-2,-2,-6,-3,-1,1,-2,0
487665956787,-2,1,3,0,-1,-4,-1,0
487665956787,-1,-3,-4,-1,-1,-1,0,-1
487665963565,-1,5,5,-1,0,-1,-1,-1
487665963565,-1,-5,-4,-1,0,0,0,-1
487665979909,0,1,7,2,-1,1,-2,-1
487665979909,-2,-1,-4,-2,-2,-1,-3,-2
487665981554,-1,-3,0,-1,-2,-1,-1,-3
487665981554,-2,0,0,1,-1,-2,-1,-2
487666002413,-3,0,2,1,-1,0,-1,0
487666002413,1,1,-2,-1,1,-1,0,0
487666004026,0,-1,-2,-1,-2,-1,0,1
487666004026,0,0,-2,0,-1,-3,1,-2
487666016768,1,-1,0,-1,-2,-3,-2,-2
487666016768,-3,-3,-3,-2,0,0,-1,-2
487666023562,-1,-2,2,-1,0,1,0,1
487666023562,0,-4,-8,-3,-3,-3,-1,-3
487666040005,0,-3,6,1,1,-1,0,-1
487666040005,1,0,-1,0,-1,2,0,-1
487666041585,-1,-3,-3,-3,-2,-2,-1,-2
487666041585,-2,-2,-6,-4,-1,2,1,0
487666062418,-2,-1,4,0,-1,-1,-2,-1
487666062418,-3,2,6,3,1,-2,-2,-2
487666064016,-2,-6,-18,-7,-2,-1,-1,-3
487666064016,0,9,29,9,0,-3,0,0
487666076765,1,-3,-18,-4,-1,-1,-1,-1
487666076765,-1,-3,24,6,0,2,0,0
487666083573,1,2,-4,-4,0,0,-1,0
487666083573,-2,-5,-9,0,-3,-4,-1,-3
487666100405,-1,-2,9,-1,0,0,0,-2
487666100405,-2,-3,-13,-7,-3,0,-2,-3
487666101967,-3,-1,-2,1,0,-2,-3,-2
487666101967,-3,-3,-6,-5,-1,2,0,0
487666122422,0,2,5,1,0,-1,-1,-1
487666122422,-1,-2,-9,-1,-2,-2,-2,0
487666124020,0,-1,4,0,0,-1,-1,-3
487666124020,-1,-1,-6,-5,0,0,-2,0
487666136732,0,3,7,3,1,0,0,0
487666136732,-1,-4,-6,-2,-2,-5,-1,-1
487666143560,2,8,13,5,-2,-1,-1,-1
487666143560,-3,-3,-5,-3,-2,0,-1,-1
487666159873,0,1,11,4,-1,1,1,-2
487666159873,-2,-4,-8,-3,0,0,0,-1
487666161500,-1,0,-2,1,-1,-1,-1,1
487666161500,0,0,5,1,-2,-2,-2,-2
487666182425,0,-3,-8,-6,-3,1,-2,-2
487666182425,0,5,5,5,0,0,-1,-1
487666184071,-1,-6,-2,-3,0,-1,0,-1
487666184071,-1,0,-2,-3,-1,-2,-2,-2
487666196828,-2,-7,-18,-3,-1,-4,-3,-1
487666196828,3,9,26,4,2,2,0,1
487666203569,-3,-3,-3,-1,0,-1,-2,-1
487666203569,-1,-3,-14,-4,0,-1,1,0
487666219906,-4,-8,-8,-2,-3,-3,0,-1
487666219906,1,-4,3,0,-1,-1,-2,-1
487666221536,-1,-2,-8,-2,-2,-2,-1,-2
487666221536,-1,-2,0,-3,-1,-2,-1,0
487666241706,-2,-5,-8,-6,-2,0,-1,-1
487666241706,-3,-4,-12,-5,-1,-2,-1,0
487666242480,1,1,7,0,-2,-1,-3,1
487666242480,-2,-3,-6,-2,-1,-2,-2,-2
487666256066,1,2,3,1,0,-2,0,-1
487666256066,-2,-1,-2,-3,-1,-2,-1,-1
487666264310,-1,-1,-4,1,1,-1,0,-2
487666264310,1,1,5,1,-1,0,-1,0
487666279202,1,3,5,1,3,-1,-2,-1
487666279202,-2,-4,-8,-3,-1,0,-2,0
487666280004,-2,-3,1,-1,0,-5,-2,-2
487666280004,0,1,1,0,-2,0,-2,-1
487666302170,1,1,1,1,-1,1,0,-1
487666302170,0,-2,-12,-7,-3,-3,-1,-3
487666302995,-1,-1,-1,0,-1,-2,0,0
487666302995,-2,-6,-8,-8,-1,-1,-1,-1
487666317580,-2,4,-4,-3,-3,-2,-2,1
487666317580,0,-1,8,6,0,0,0,-1
487666324283,0,4,13,5,0,2,1,1
487666324283,1,3,3,-1,0,-1,-1,-2
487666339257,0,-1,3,0,1,-1,0,-1
487666339257,-3,-5,-16,-9,-2,-2,-1,0
487666340087,-3,-3,-2,-3,-2,0,-2,-2
487666340087,-1,-2,-4,-2,-1,-2,1,-1
487666361740,-1,3,-1,0,-1,1,-1,0
487666361740,0,3,20,10,1,-1,-1,-3
487666362529,0,-4,-3,-1,-1,-1,-1,-2
487666362529,1,0,-1,1,-2,-1,-1,-1
487666376091,0,-3,0,-1,-2,-2,0,-1
487666376091,-1,-2,-3,-2,-1,-1,0,-1
487666384301,-4,-4,-8,-5,-2,0,-1,-2
487666384301,0,7,11,3,1,0,1,0
487666399231,-3,-4,-2,1,0,-1,0,-1
487666399231,-2,-3,-8,-4,-2,-1,-1,0
487666400079,-1,-5,-4,-1,-1,-2,0,-2
487666400079,-2,-5,-3,0,-1,-1,-1,-1
487666421758,0,-1,-2,-8,-3,0,-2,-1
487666421758,1,2,2,7,-2,-3,-1,-2
487666422500,0,4,13,5,0,-2,-1,-2
487666422500,-1,-2,3,4,0,-1,-2,-1
487666436062,0,1,8,3,-1,-1,1,-2
487666436062,-3,-3,-3,-5,1,-1,-2,-2
487666444267,-2,-3,-13,-7,1,2,1,-1
487666444267,3,17,28,6,0,-2,0,-1
487666459213,-3,-8,-13,-7,-2,-1,-1,-1
487666459213,-1,3,-2,-3,-1,0,-2,0
487666460013,1,0,-3,-1,-1,-1,-1,0
487666460013,-3,-7,-11,-3,-2,-2,-1,-1
487666481747,0,0,-1,1,-1,0,-1,-1
487666481747,0,-2,1,-1,-1,-2,0,0
487666482490,0,1,0,0,0,-1,-1,-1
487666482490,0,-2,-5,-1,-1,0,1,1
487666496095,0,3,5,3,-1,-3,0,0
487666496095,-2,-4,-12,-6,-1,-1,-1,-1
487666504291,-2,-3,-4,-3,-2,0,-1,0
487666504291,-2,-1,2,1,-1,-1,-2,-2
487666519246,-1,-1,-2,-2,0,-1,-2,-2
487666519246,-2,-4,-9,-3,-1,0,-2,-2
487666520028,1,-1,-4,-1,0,-1,-1,0
487666520028,-1,-6,-10,-1,-1,1,-2,-2
487666541893,-1,0,3,1,-1,0,0,0
487666541893,0,4,7,-3,-3,-1,0,1
487666542595,-2,-4,-12,-4,-2,-1,-1,0
487666542595,-2,-2,6,1,-2,-1,-2,-1
487666556144,-2,-7,-7,-3,-2,0,-1,-3
487666556144,-1,-2,-4,1,1,2,-1,-1
487666564462,-1,2,4,1,-2,-3,0,-1
487666564462,-1,-4,-4,-4,0,0,0,-1
487666579261,-1,0,0,1,-3,-2,0,-1
487666579261,-2,0,0,-1,-1,-1,-1,-2
487666579994,-1,0,4,2,-2,-1,-1,-1
487666579994,-3,-1,-9,-6,0,-2,-1,-2
487666601763,0,0,0,0,0,0,-1,0
487666601763,1,0,-2,-1,-1,-3,0,-1
487666602538,0,-2,-1,-2,-1,-1,-1,0
487666602538,0,-2,-3,-3,-2,0,1,0
487666616059,-1,-2,-7,-5,-3,0,0,-1
487666616059,-2,-6,1,-1,-2,-3,-1,-1
487666624308,-1,-2,-15,0,0,0,0,-2
487666624308,3,11,29,11,0,0,0,1
487666639225,-4,-7,-8,-4,-1,-2,-2,-1
487666639225,2,2,-3,1,1,-1,0,0
487666640004,-3,-4,-10,-5,-3,-1,-2,-1
487666640004,-1,-6,-10,-6,0,-2,-2,-3
487666661835,0,-1,3,0,-3,-3,-2,-1
487666661835,-5,-5,-3,-3,-2,1,-2,-3
487666662552,-1,3,10,1,0,0,0,-1
487666662552,1,0,-6,-1,0,0,0,-1
487666676108,0,3,6,3,-1,-1,0,-1
487666676108,-1,-3,-3,0,1,-2,-2,-1
487666684320,-1,2,6,-1,0,-3,0,-1
487666684320,-3,-2,-4,-3,-2,-1,-2,-1
487666699360,-3,-1,-4,-2,-2,1,-1,0
487666699360,-1,1,1,0,-1,0,0,-1
487666700050,0,0,2,-1,-2,-2,-1,-2
487666700050,0,-3,-5,-2,-1,-3,0,-1
487666721785,0,0,1,0,0,-1,-1,0
487666721785,-1,1,-1,-1,0,-1,-1,1
487666722539,-1,-1,4,0,0,0,-2,-1
487666722539,-3,-1,-6,-2,-3,-3,-1,-2
487666744924,0,0,0,-1,-2,-1,0,0
487666744924,-1,-2,-3,-5,-3,-1,-2,-3
487666745700,-2,-3,-4,0,-1,-2,0,-2
487666745700,1,1,0,0,1,0,0,-1
487666759560,-3,-10,-22,-15,0,-2,-3,-4
487666759560,4,19,24,18,1,0,0,0
487666760366,-3,-1,-2,-5,-2,-1,-1,-1
487666760366,0,-3,-2,4,-1,-1,-1,-1
487666781743,0,2,2,-1,-1,1,-1,0
487666781743,-4,-9,-19,-12,-1,-4,0,0
487666783122,0,-2,0,1,-2,-1,0,-1
487666783122,-1,-1,-1,-2,-1,0,1,-2
487666805337,-2,-2,-4,-2,-2,0,-1,-1
487666805337,-2,-4,-1,-4,-1,-1,0,0
487666806004,0,2,1,3,-1,-2,1,1
487666806004,0,-3,-3,-7,-2,-2,-2,-1
487666819745,2,6,10,8,1,-1,-1,0
487666819745,-2,-5,-8,-2,-3,-1,0,-1
487666820479,1,12,17,4,-1,-1,2,1
487666820479,-2,-8,-3,1,-3,1,-1,-1
487666842489,-1,3,9,-3,-2,-2,0,-2
487666842489,2,-4,-15,-2,-1,-2,-2,-1
487666843206,-2,-4,3,3,0,0,-2,-1
487666843206,0,2,2,1,2,2,-1,-1
487666864395,-1,-1,1,3,0,-2,-1,-2
487666864395,-1,-2,-1,-6,-2,-2,0,-1
487666865666,-2,-6,-10,-7,-3,-1,-1,-1
487666865666,1,-1,-3,-1,-1,-1,0,0
487666879821,0,-1,0,1,-3,-2,-2,1
487666879821,-1,-2,-3,-2,-1,3,-1,-3
487666880575,-1,-2,0,0,-3,-3,-2,-1
487666880575,-1,-3,-8,-4,-2,-2,0,-1
487666910489,0,0,-2,-3,1,0,0,-1
487666910489,1,2,17,6,0,-1,-1,0
487666911166,0,-5,0,-1,0,0,-2,-1
487666911166,-2,1,-2,0,-2,-3,-2,0
487666924364,0,-4,-5,-1,0,-1,0,-1
487666924364,-4,-6,-7,-3,0,0,-1,-3
487666925030,0,-2,-5,-4,0,0,0,-2
487666925030,0,6,14,-1,-2,-2,1,1
487666939229,0,3,7,4,-3,-3,-1,0
487666939229,-1,0,2,1,-4,-2,-2,-2
487666940649,-1,-2,-6,-4,1,0,-1,0
487666940649,-1,-4,-6,-2,0,-2,-1,-2
487666961826,0,-1,-1,-1,-1,0,-1,-1
487666961826,0,-1,4,-1,-1,1,1,0
487666962567,-3,-2,-5,-2,-1,-2,-1,-1
487666962567,-1,-3,-5,-1,-2,-1,-1,0
487666984332,-2,-3,-1,1,-1,0,-1,-1
487666984332,-1,-2,-7,-5,-1,-1,0,-2
487666985100,2,3,2,-3,0,-3,-1,0
487666985100,-2,4,21,16,1,1,0,-1
487666999229,-1,-3,-4,-5,0,3,1,0
487666999229,-3,-4,-5,4,-3,-5,-5,-4
487667000033,-1,-2,-5,-4,-2,-3,-2,0
487667000033,0,0,-9,-10,-3,-2,-1,-3
487667021763,0,2,6,4,-4,-6,-3,-3
487667021763,-1,-2,-5,-5,1,1,0,-2
487667022527,-1,-4,-3,1,-3,2,-1,-3
487667022527,-2,2,-1,0,-2,-3,-2,-2
487667044285,-3,-2,7,1,1,2,1,-1
487667044285,-2,-4,-4,-4,-2,0,0,1
487667045062,-1,-1,2,0,0,0,-2,-3
487667045062,-2,-6,-17,-9,2,0,-2,-1
487667059347,3,6,26,9,3,-1,0,0
487667059347,-1,-1,1,-1,0,-2,2,0
487667060733,0,2,-8,-1,-2,-2,-2,-2
487667060733,-2,-5,4,-3,0,-1,0,-1
487667081814,-3,-1,-5,2,2,0,-2,-1
487667081814,-1,0,-2,1,-1,-5,-2,2
487667082607,0,1,1,1,1,1,-1,1
487667082607,0,-2,-6,-5,-4,-1,0,-2
487667104337,-1,-3,-10,-4,-3,-4,-3,-1
487667104337,0,0,1,-1,1,0,-1,-1
487667105101,-4,-6,-8,-4,5,5,1,0
487667105101,2,0,-2,6,-3,-8,-7,-2
487667118671,1,-2,-2,-3,-2,-1,-1,0
487667118671,0,2,-5,-1,-3,-2,-2,-1
487667126825,0,-3,-4,-3,-2,-2,-3,-1
487667126825,1,8,12,0,0,5,3,0
487667141813,-3,-6,-7,-2,-10,-4,-2,-1
487667141813,-3,1,3,-2,-1,0,0,-2
487667142583,-3,-3,-6,-4,0,1,1,-3
487667142583,-3,-3,-15,-2,-4,-4,1,0
487667164294,3,7,28,10,2,-1,0,0
487667164294,1,-1,-1,-2,4,0,0,0
487667165075,0,0,0,-1,-1,-3,-2,-1
487667165075,-1,-4,-11,-6,1,0,0,-2
487667179330,-1,1,-12,-5,0,1,0,-2
487667179330,-2,-3,2,2,-5,-1,-1,-2
487667180099,0,2,6,2,-3,0,1,-1
487667180099,-3,-3,2,-1,-1,0,-1,-2
487667201781,-2,-5,-12,-5,0,-1,-1,-1
487667201781,2,3,5,1,-2,0,1,1
487667202554,1,-3,-5,-2,-4,-2,-3,0
487667202554,-3,-5,-2,-3,-2,-1,-2,-1
487667224256,2,6,3,0,4,1,1,1
487667224256,-4,-6,-16,-17,1,0,0,-2
487667225063,1,2,1,15,-5,-4,0,0
487667225063,-2,-3,1,-3,-5,-8,-4,-1
487667239265,0,3,3,4,0,1,1,0
487667239265,-3,-1,1,4,-2,-2,-2,-1
487667240059,0,-1,-7,-10,-8,1,1,0
487667240059,-3,-5,0,1,-10,-9,-6,-3
487667261757,-1,-5,-16,-9,-6,-4,-2,-1
487667261757,-1,1,4,3,-6,0,1,-1
487667262546,-3,-4,2,-6,-4,-1,-2,-2
487667262546,0,3,-13,-1,1,4,1,-1
487667284247,0,-2,7,-8,-3,0,0,0
487667284247,1,-2,-12,2,3,1,-2,0
487667285026,5,20,63,24,6,0,1,1
487667285026,-1,-4,-6,-5,4,1,-2,0
487667299301,-3,-7,-16,-2,0,-1,0,-1
487667299301,-1,-6,-10,-8,2,0,-2,-2
487667300071,-3,-2,-13,-7,2,-2,-3,-1
487667300071,1,3,8,3,1,1,0,0
487667321752,0,-3,-5,-3,-4,0,-1,-2
487667321752,-1,1,3,-2,-3,-2,-3,0
487667322555,0,0,1,3,-2,-1,-1,0
487667322555,1,-1,5,1,1,0,1,-2
487667344246,-5,-6,-14,-7,-2,0,-1,-2
487667344246,3,5,17,9,1,-3,-1,-2
487667345035,-1,-5,-9,-7,3,0,-2,0
487667345035,-1,-1,-3,0,3,0,0,-2
487667358619,-2,-2,1,-3,3,-2,-2,-1
487667358619,-2,-1,-6,-6,2,-1,2,0
487667366840,-3,-9,-23,-14,0,-3,-2,-3
487667366840,7,22,63,34,7,3,2,2
487667382203,-2,-3,-4,-1,-1,-2,0,-1
487667382203,0,-1,-9,-5,-3,-2,-3,1
487667382474,-4,-8,-5,1,-2,0,0,-1
487667382474,-3,-6,-17,-12,-6,-1,0,-2
487667404304,0,-1,1,3,-3,-3,0,0
487667404304,0,0,4,-1,0,-1,0,-2
487667405026,-2,-3,-9,-6,-4,-1,-2,-3
487667405026,-1,-4,-8,-7,-2,3,0,-2
487667418621,-1,-1,2,5,-4,-4,-4,-2
487667418621,0,-3,-7,-6,-7,-5,0,-1
487667426812,-1,-3,-7,-3,-6,-7,-4,-4
487667426812,-1,-3,7,6,-2,1,-1,0
487667441794,1,4,9,2,-2,1,0,-1
487667441794,0,1,2,3,-1,-1,-2,-1
487667442546,-2,2,2,1,1,0,0,-2
487667442546,-2,-4,-16,-11,-1,-2,-1,0
487667464305,-1,0,4,1,2,1,0,0
487667464305,-1,-3,-3,-2,0,1,-1,0
487667465084,1,5,5,7,2,-1,-1,1
487667465084,-3,-6,-14,-6,2,0,-2,-2
487667479150,-3,-2,-8,-5,2,2,0,-2
487667479150,-2,-1,-9,-5,0,-1,-1,-2
487667486825,0,0,15,3,0,0,0,0
487667486825,-1,-3,-12,-2,-2,-2,-2,0
487667501763,3,7,17,10,-1,0,2,0
487667501763,-3,-5,-5,-5,-3,-2,-1,-1
487667502538,-2,-4,-14,-6,-2,-1,-1,-1
487667502538,-3,-4,9,5,-1,-2,-2,-1
487667524926,2,8,9,-3,-2,-1,-1,1
487667524926,-2,-1,4,2,-6,-2,0,-1
487667525014,1,-2,-5,-5,-6,-4,-2,0
487667525014,-1,-2,0,-2,-4,-2,1,0
487667538673,-2,-5,-17,-6,-4,-2,0,-3
487667538673,-1,1,13,6,0,-1,-1,0
487667547019,-1,-1,1,0,-1,-1,-2,-1
487667547019,0,0,-5,-5,-4,-1,-2,-1
487667561849,-5,-6,-7,-3,-4,-2,-3,-2
487667561849,-2,-1,1,3,-3,0,-1,0
487667562628,-1,-4,-3,0,-1,0,0,-1
487667562628,1,0,-8,-10,-1,-2,1,0
487667584541,-2,-4,1,3,2,-1,-1,-1
487667584541,-1,-1,4,4,3,0,-1,-1
487667585235,-1,3,14,10,3,0,0,-1
487667585235,-2,-1,-6,-3,-3,-1,-1,-1
487667598962,-2,-4,-9,-9,0,0,-1,-2
487667598962,-1,3,-2,3,3,-1,-1,-2
487667606922,-3,-3,-6,-5,2,0,-1,-1
487667606922,-4,-8,-15,-9,0,-2,-2,-3
487667621857,4,14,22,12,0,0,-1,1
487667621857,-1,-3,0,-2,-1,1,-1,-2
487667622624,-3,-3,-14,-7,-1,-1,0,-3
487667622624,-1,1,19,13,2,-1,0,0
487667644932,-1,-6,-12,-5,-2,-1,-1,-1
487667644932,1,-3,-1,1,-3,0,0,0
487667645736,0,-1,0,-2,-4,0,-2,-2
487667645736,-1,-2,-12,-10,-4,-1,-2,-1
487667668112,-1,-3,-6,-6,-1,1,-1,0
487667668112,-1,0,8,5,-2,-2,1,-1
487667668875,-1,-1,-3,-3,-4,1,-1,-2
487667668875,1,0,-1,0,3,-2,1,0
487667681835,-2,-1,-1,-3,-2,-1,-3,-2
487667681835,-2,-2,-3,-4,0,1,-1,0
487667682962,0,0,-5,-4,0,-2,0,0
487667682962,-1,2,3,3,-1,-1,-1,0
487667705250,-1,-4,3,-1,-1,3,0,-1
487667705250,-1,-2,-5,-6,-1,-3,-1,-2
487667705862,2,0,13,8,0,-3,-1,1
487667705862,0,1,6,5,-2,1,0,0
487667727986,-1,-8,-14,-8,-4,-2,0,-1
487667727986,2,9,13,6,2,2,1,0
487667728606,-3,-6,-21,-7,0,0,-1,-2
487667728606,-1,1,14,8,3,-2,0,-1
487667742120,0,-4,-11,-8,-2,-2,-2,-1
487667742120,-2,-1,11,11,-2,-1,-2,-1
487667742936,0,3,0,1,0,-1,-1,0
487667742936,-1,-2,-11,-8,-1,-1,-1,-3
487667765216,0,-2,3,4,2,-1,0,-1
487667765216,0,-2,-5,-9,-3,-1,-3,0
487667765930,-3,-3,3,-1,0,-1,0,0
487667765930,-1,-2,-2,-2,-3,-1,-2,-1
487667787558,-2,-1,-3,-4,-2,-2,0,-1
487667787558,-2,-3,-6,-1,-1,-2,-2,-1
487667788416,-1,-2,5,2,0,1,-2,0
487667788416,0,-1,-4,-2,0,1,-1,-2
487667802073,-1,-1,-4,-5,1,-4,-1,-1
487667802073,-3,-4,-7,-3,-1,0,-3,-2
487667802741,-1,-1,-9,-6,-5,-4,-2,-2
487667802741,2,6,16,7,-2,-1,1,-1
487667825061,-2,-3,-3,0,2,2,0,-1
487667825061,0,-3,-13,-8,-4,-1,0,0
487667826461,-2,-1,6,6,-1,0,-2,0
487667826461,-2,-3,-13,-14,0,-2,-3,-2
487667847740,-1,-1,-3,9,0,-2,-1,-1
487667847740,-2,-2,-7,-7,2,-1,0,-2
487667848506,0,5,16,11,2,1,1,0
487667848506,0,-2,-4,-1,-3,-1,0,0
487667862211,-3,-3,-14,-10,-8,-3,-3,-2
487667862211,5,7,16,8,-1,-1,1,1
487667862901,0,1,-4,-3,3,-1,-1,0
487667862901,-2,0,-5,1,-1,0,-2,0
487667885362,0,-2,-3,-4,-3,0,-2,-2
487667885362,-3,-5,-15,-7,-1,-2,-2,0
487667885821,0,-1,7,1,-2,-1,-1,-3
487667885821,-4,-4,-7,-2,-1,0,0,1
487667907911,-2,2,11,8,-4,-3,-1,-1
487667907911,-1,-2,-2,-3,3,-3,-1,-2
487667908525,0,-2,-1,-3,1,-2,-1,-2
487667908525,-1,-2,-2,1,-1,-2,-1,-2
487667922170,-1,-2,-3,-1,4,-1,-1,-2
487667922170,-2,-2,4,0,-3,6,-1,-1
487667922804,-1,-4,-6,-7,-2,-12,-1,0
487667922804,-2,-3,-9,-12,-2,-1,-2,-2
487667945245,-1,0,5,11,1,-2,-1,-1
487667945245,0,-4,-5,-2,4,1,-2,-2
487667945939,0,2,-8,-3,-2,2,-1,-2
487667945939,3,13,41,16,1,0,1,1
487667975066,-1,-2,0,0,-2,0,-1,0
487667975066,-1,-1,-2,-6,-4,-1,-1,0
487667975728,-4,-5,-13,-6,-3,0,1,-1
487667975728,-2,-6,-14,-2,-3,-1,-2,-3
487667981860,-2,0,1,-2,-1,0,-1,-2
487667981860,-1,0,-1,2,-4,-2,-2,-2
487667982651,-2,-1,4,-6,-6,-2,-1,-1
487667982651,-1,-4,-7,0,-1,1,0,-1
487668004969,-1,-2,-7,-15,0,0,0,1
487668004969,-1,2,8,18,-2,-3,-2,-1
487668005821,2,2,11,5,-1,0,0,-1
487668005821,1,-4,-10,-4,-2,-1,-1,-1
487668027515,-2,-3,-4,-4,-2,-2,-2,0
487668027515,-3,-2,-14,-12,-4,-2,0,0
487668028421,-1,-1,5,-2,-3,3,2,1
487668028421,-1,0,5,5,2,0,0,-1
487668041810,-1,-2,-5,-3,2,-1,-1,-2
487668041810,-1,-1,0,-2,3,0,-1,-2
487668042562,-2,-2,-5,-1,-2,-1,-3,0
487668042562,0,-2,-2,-9,-2,0,-1,0
487668065016,0,2,1,-2,-2,-5,-1,-1
487668065016,-1,-2,1,0,-6,0,0,0
487668065774,0,-1,-1,2,-8,2,-1,0
487668065774,0,-2,-7,-4,-3,-3,-1,-2
487668088021,-1,0,2,0,2,0,-1,0
487668088021,1,-2,-9,-11,6,-4,-1,0
487668088556,0,-1,5,14,6,-1,1,-1
487668088556,-4,-2,1,-4,-1,0,-1,1
487668101761,0,0,-8,6,-4,-1,-2,-4
487668101761,0,-1,5,-6,2,-2,0,0
487668102825,-1,-6,-17,-7,2,0,-1,-2
487668102825,0,-1,2,2,0,-2,-1,-2
487668125204,0,-2,-6,-4,-2,3,1,0
487668125204,-2,0,-2,-2,-4,-10,-2,-1
487668125928,0,0,3,3,-1,0,-3,-2
487668125928,-3,-2,-2,-1,-3,-2,-1,-1
487668148156,0,1,1,-1,0,0,1,1
487668148156,0,0,2,4,0,3,0,-1
487668148746,-2,1,2,-4,0,-2,-2,0
487668148746,-1,0,-2,-2,0,-1,-1,-2
487668161834,0,-3,1,1,0,1,0,-2
487668161834,-1,1,-1,1,-4,-4,-3,-1
487668162639,-1,-2,6,0,-2,-1,-1,0
487668162639,-2,-2,-7,-1,0,-1,-1,-2
487668185031,-3,-2,-5,-10,0,3,-1,-1
487668185031,-1,-6,-13,1,-2,-1,-1,-2
487668186085,3,11,36,16,0,-1,1,0
487668186085,-3,-4,-10,-3,-2,0,-3,-2
487668207530,0,1,9,4,1,-3,-2,-2
487668207530,0,-5,-12,-14,-1,0,-2,0
487668208320,-1,-5,-11,-4,-2,-1,-1,-1
487668208320,-2,0,2,1,-1,0,-1,0
487668221846,-1,-2,-1,-2,-4,-3,-2,0
487668221846,-2,1,7,3,-1,2,-2,-1
487668222625,-1,-4,-8,-7,0,-1,-1,-2
487668222625,-1,0,3,-2,0,-2,-1,-1
487668245302,0,-5,-3,-4,1,-1,-2,-2
487668245302,-1,5,11,7,-2,0,-1,-1
487668245959,1,-1,-3,0,-1,-2,0,1
487668245959,2,-1,0,-2,0,-1,-1,-2
487668267479,0,0,1,6,-2,-1,-1,-1
487668267479,0,-2,-3,-4,-1,2,0,0
487668268300,-3,-1,-11,-9,-1,-2,-3,0
487668268300,0,0,2,1,2,0,0,1
487668281178,-2,2,0,2,3,-9,0,-1
487668281178,-1,-4,-1,0,2,4,0,0
487668289681,1,6,9,-3,3,0,0,-1
487668289681,-1,-5,-4,-1,-1,3,-1,-1
487668305506,0,0,1,-1,-2,-8,-1,-1
487668305506,-1,-3,-9,-6,-3,-2,-1,-2
487668306301,-3,-4,-11,-3,-4,-1,-1,-3
487668306301,0,2,3,4,-1,0,0,-1
487668327713,0,1,5,-3,-2,1,-1,1
487668327713,0,2,0,3,-3,-1,1,-1
487668328400,-3,-9,-15,-14,-5,0,-2,-2
487668328400,-2,-1,-9,2,-3,-2,-1,-1
487668341792,-1,-2,2,4,-1,0,-2,0
487668341792,-2,1,13,8,1,-2,0,1
487668349310,-2,-2,-2,-2,0,0,-2,-1
487668349310,-2,-3,-7,-5,-1,-2,-3,-2
487668365464,-3,-1,-8,-13,-2,1,-1,-2
487668365464,0,0,0,5,0,0,-2,-2
487668366150,-1,-1,2,1,1,1,0,-2
487668366150,0,1,5,-1,-2,-3,-2,0
487668387502,-1,-2,-1,1,-1,-1,0,0
487668387502,-1,-2,-2,-6,0,0,0,-2
487668388331,-2,-4,-8,-4,-1,0,0,1
487668388331,-1,-4,-13,-5,-1,2,-1,-4
487668401113,1,6,20,3,-1,-6,0,0
487668401113,-4,0,-4,-3,-2,-1,-1,-2
487668409380,-2,-1,4,7,1,-1,-1,0
487668409380,1,2,3,-2,0,2,1,2
487668425181,-1,-3,4,8,-1,3,-2,-2
487668425181,0,-3,-14,-15,-3,0,-2,-1
487668426289,0,5,17,13,-1,-2,-1,-3
487668426289,-1,0,-1,-5,-1,-4,-2,-1
487668447488,-1,-4,-16,-4,-1,0,-2,0
487668447488,3,5,27,10,2,0,1,2
487668448261,-4,-5,-15,-7,-3,-1,-1,-1
487668448261,-1,-1,2,4,-1,-1,-1,0
487668461136,-2,0,-2,-2,0,3,-1,-2
487668461136,-4,-4,-11,-4,0,-7,-3,-2
487668469381,1,1,-6,-3,-2,0,0,1
487668469381,-2,-2,6,1,-1,-3,0,-1
487668485038,-1,-3,-8,-11,-2,1,-2,-1
487668485038,-1,-1,-7,6,2,-1,-1,-2
487668485807,3,5,8,0,0,-3,0,-1
487668485807,-1,-2,-2,-4,-1,-1,0,-2
487668507911,-1,0,-2,6,-1,2,0,-1
487668507911,-2,-4,-3,-4,-2,0,-2,-2
487668508624,-2,-4,-9,-8,-1,-5,-2,-2
487668508624,0,-1,-3,0,-3,1,-1,-1
487668521158,0,-4,-7,-7,-2,-2,-2,0
487668521158,-1,0,-2,-1,-1,-2,-2,0
487668529303,-2,-5,1,6,-2,0,-1,-3
487668529303,-2,2,9,-2,-2,1,0,1
487668544988,0,0,-6,-4,0,2,0,-2
487668544988,-1,0,-2,2,-2,-7,0,0
487668545793,0,-2,-1,-3,-4,2,-3,0
487668545793,-3,-5,-7,0,-1,-3,-2,-1
487668567640,-1,-1,1,1,-1,2,-1,-2
487668567640,0,1,-4,-5,-3,1,0,0
487668568319,-4,-2,-2,-3,0,-1,-1,0
487668568319,0,1,0,7,1,0,-2,0
487668581105,-1,-3,-1,5,1,-6,-2,-1
487668581105,-1,-1,0,-9,0,4,-1,-2
487668589333,-2,-1,-3,-1,-3,-4,-2,-2
487668589333,0,-2,-2,-5,-2,-1,0,-1
487668605002,-4,-2,0,-1,-2,-3,-2,-1
487668605002,0,1,3,1,0,-1,-3,2
487668605783,-2,-2,-8,-6,0,2,0,-1
487668605783,2,5,8,-1,0,-1,1,-1
487668627546,-1,-1,-8,0,1,-1,-1,-1
487668627546,1,1,11,3,2,1,0,0
487668628329,-1,-2,0,5,0,3,-2,0
487668628329,-1,-2,-5,-2,-2,-1,-1,0
487668650006,1,3,10,-2,-1,-5,0,-1
487668650006,-3,-6,-9,-2,-1,-1,0,-2
487668650765,-1,2,-1,-5,-4,-4,-2,-1
487668650765,1,-2,2,1,0,-3,-1,1
487668665632,0,1,2,0,1,5,0,2
487668665632,-2,-3,-4,0,-3,-3,-1,-1
487668666412,-1,-3,-6,-7,-4,-9,-1,-1
487668666412,-1,0,5,1,1,0,1,-2
487668687564,-1,-2,-4,-11,-6,0,-2,0
487668687564,0,-1,3,14,1,-5,-2,-1
487668688300,-3,-2,-2,1,-2,0,-1,0
487668688300,-3,-1,-3,-2,-2,-2,-2,-2
487668709985,2,-2,-1,-4,0,0,1,0
487668709985,-1,-2,1,2,0,2,0,-2
487668711586,1,-4,-7,-11,-1,-2,-1,-2
487668711586,0,3,10,7,-1,-2,-1,-1
487668723679,-2,-3,-9,-6,-2,0,0,-1
487668723679,-1,1,4,2,-2,3,0,0
487668732597,0,-1,2,0,1,-2,-2,1
487668732597,0,1,-2,-6,-1,-3,-1,0
487668748237,-1,-2,3,2,-4,0,-2,-3
487668748237,-1,-4,-7,-7,-2,-2,-2,-1
487668749655,-2,0,-4,0,-1,3,-1,-3
487668749655,-1,-3,5,2,1,-1,0,0
487668770071,-1,0,-2,2,0,-2,0,-1
487668770071,1,1,6,7,-3,-2,-1,-1
487668771892,-1,-3,-7,-10,1,0,-1,-1
487668771892,-4,-8,-26,-11,-2,-1,-2,-1
487668784274,1,5,21,10,-1,-2,-2,-2
487668784274,1,0,-4,0,1,2,0,-2
487668793107,-1,-2,1,3,0,-2,1,-1
487668793107,-3,-4,-7,-2,-3,-1,-2,-1
487668808193,-1,-3,-14,-11,-5,2,-2,-3
487668808193,-1,1,13,8,-8,-7,0,0
487668809585,-1,0,0,1,-2,2,0,-1
487668809585,-1,-2,-4,-2,1,-3,-1,-1
487668830040,-2,-2,-1,1,4,-1,1,0
487668830040,0,1,-3,-5,1,-1,-1,-1
487668831597,-1,-1,2,3,2,-2,0,1
487668831597,0,-2,0,-6,-1,-1,-1,-1
487668843675,-2,-2,3,12,2,-5,-2,-2
487668843675,0,-1,5,-4,3,-1,-1,0
487668853328,-1,-1,-1,0,4,0,-1,-3
487668853328,0,0,-5,-4,0,2,-3,0
487668867790,-2,0,8,5,-1,-3,-2,1
487668867790,-2,-7,-27,-8,-5,-2,-1,-2
487668869266,-1,-1,4,1,-1,0,-3,-1
487668869266,-1,0,2,-1,-2,0,-1,-1
487668890030,-1,-1,-11,-6,-4,1,-2,-1
487668890030,-1,-4,-6,-5,-2,-1,-2,0
487668892100,-1,4,4,-2,-3,0,-1,0
487668892100,-1,-1,2,-1,-3,-2,-1,-2
487668904443,-3,-3,-16,-17,-2,-1,0,-1
487668904443,1,4,13,17,-1,1,-1,0
487668911140,0,0,0,5,-1,-3,-2,1
487668911140,0,0,3,2,-1,0,0,-3
487668927550,1,0,2,0,-1,1,-1,0
487668927550,-3,-1,-7,-16,-3,-2,-2,-1
487668929717,0,0,10,10,-1,1,-1,-1
487668929717,-2,-3,-1,1,-1,-1,0,-2
487668950115,0,-2,-6,-3,1,-1,0,0
487668950115,-2,-2,0,-8,0,-2,-2,0
487668952342,-2,-1,-5,-5,-3,-2,-2,-2
487668952342,-1,-4,-6,-1,0,1,1,-1
487668964652,0,1,8,5,1,-2,-1,-1
487668964652,0,-5,-13,-11,0,2,0,-2
487668971168,0,6,26,6,0,-3,1,0
487668971168,-1,-2,-8,-2,0,-1,-2,-1
487668987524,-2,1,8,4,0,-2,-1,-1
487668987524,-2,-3,-1,-2,-2,-2,-2,-2
487668989128,1,-5,-16,-14,0,1,1,-2
487668989128,0,0,2,11,-1,0,0,-1
487669010076,-1,1,8,2,0,-1,-3,-4
487669010076,-2,-2,-7,-3,-2,-2,-1,-1
487669011630,-1,-3,-5,-4,-1,-1,-1,-1
487669011630,-1,-1,-1,-8,-6,-2,-1,-1
487669024445,-2,-1,-2,4,1,-1,1,-1
487669024445,0,3,12,4,0,4,0,-1
487669031149,-2,-5,-14,-3,-2,-4,-2,-1
487669031149,2,12,21,4,0,-1,0,0
487669047517,-3,-4,-8,-9,-3,-1,-1,-2
487669047517,-1,1,1,2,0,-2,-1,0
487669049110,-1,-3,-2,3,1,1,0,0
487669049110,-3,-3,-5,-1,0,-3,-3,-1
487669070031,-1,-1,-5,-3,-1,-2,-1,0
487669070031,-1,-1,-4,-2,0,0,-1,1
487669071634,0,0,1,-10,-3,-2,-1,0
487669071634,-2,-2,-5,9,-2,1,-1,-2
487669084957,-1,3,16,12,0,1,-1,1
487669084957,-2,-4,-6,-6,0,0,-1,-1
487669091374,-1,-2,-5,-1,-3,0,-1,-2
487669091374,1,-4,-17,-16,-3,-2,-2,-1
487669108188,-1,-2,-5,2,2,0,-1,-2
487669108188,2,11,30,10,-1,-2,1,0
487669109637,-2,-6,-10,-5,-3,-4,-3,-2
487669109637,-1,3,10,0,1,1,-1,-1
487669130360,1,-6,-10,-2,-3,-1,-2,0
487669130360,-1,-3,-4,-3,-1,-1,-1,-1
487669131589,-3,-2,-6,-12,-2,0,0,-1
487669131589,-4,-5,-1,9,0,-2,-1,-2
487669143818,0,2,6,1,-1,2,-1,0
487669143818,-1,-3,-9,-3,0,-4,-2,-2
487669152865,0,1,2,-4,-1,-8,-3,0
487669152865,-2,-4,-10,-11,-4,-1,0,-2
487669168049,-2,-1,-15,-4,-1,-1,0,-1
487669168049,-1,-2,12,12,0,0,-1,-1
487669169543,-1,-2,-5,0,-1,2,-1,-1
487669169543,-1,-2,-5,-5,-1,-3,-2,1
487669190579,-1,-2,-9,-11,-1,-2,0,-1
487669190579,-3,-2,-10,-10,-2,-1,-2,-2
487669191986,-1,5,17,14,-1,2,0,1
487669191986,-1,-3,2,-5,-1,0,0,1
487669203820,0,-2,2,2,-3,-3,1,0
487669203820,-1,-3,-12,-5,1,-2,0,-2
487669212676,-2,-1,0,1,-1,-1,-1,0
487669212676,0,0,-1,3,0,-1,-2,0
487669227530,0,1,4,-1,-3,-1,-1,-3
487669227530,0,0,-1,2,-1,0,0,-2
487669229111,-2,-2,-5,-4,1,1,0,-2
487669229111,0,-3,1,-4,-3,-2,-1,-2
487669249806,-1,-4,-3,1,-3,-6,-3,0
487669249806,-1,-1,-4,-14,-3,-1,0,2
487669257667,-1,-1,-6,9,-2,-1,-1,0
487669257667,1,2,10,8,0,0,-2,-1
487669263722,-2,-6,-5,-7,-1,0,-1,0
487669263722,-2,-3,-1,2,-2,-1,-1,0
487669273146,-2,-2,-5,-6,-1,-2,0,-2
487669273146,-1,-6,-15,-14,-3,-2,0,-1
487669287639,0,2,9,14,1,2,-1,-1
487669287639,0,0,5,3,0,2,-1,0
487669289239,-2,-3,-3,0,-3,-6,0,-2
487669289239,-2,1,-3,-2,-1,1,-1,0
487669317672,-3,-1,-8,-6,0,4,0,-2
487669317672,-2,-3,-2,0,-4,-4,-2,-1
487669319173,0,1,1,0,1,2,-1,1
487669319173,-2,3,12,4,-3,-6,0,-2
487669323720,-2,-2,1,-3,-3,-6,-3,-1
487669323720,-1,1,1,4,2,3,2,1
487669332795,0,-1,0,1,0,5,1,0
487669332795,0,1,-5,-8,-6,-7,-2,-1
487669347522,-1,0,-2,2,-3,-4,-3,-2
487669347522,-2,-2,2,3,-4,-1,-2,-2
487669349134,0,-2,-3,-4,-1,-3,-1,0
487669349134,-1,-3,-1,6,4,4,1,-3
487669377534,-2,1,2,0,6,6,1,1
487669377534,0,-1,-2,-2,-13,-9,-4,-2
487669379132,-2,1,-2,0,2,1,-1,1
487669379132,-2,-4,-12,-14,-1,-2,-3,-1
487669383641,-2,-2,-4,6,-1,-3,-1,-2
487669383641,2,5,10,7,6,4,1,-1
487669392560,1,-2,-5,-1,-2,1,-2,0
487669392560,0,-1,1,-3,-4,-2,-2,-1
487669407488,0,-5,-13,-13,-3,-1,0,0
487669407488,0,1,17,19,2,2,0,0
487669409109,0,-3,-6,-2,-5,-4,-2,-2
487669409109,-1,-2,-2,-4,0,2,0,-1
487669430724,-3,0,-1,0,-4,-8,0,-1
487669430724,-3,-7,-12,-9,-3,0,-2,-1
487669431649,-2,2,4,-3,-8,-2,-1,-2
487669431649,0,-1,4,7,-2,0,-2,-1
487669443654,-1,2,9,3,-1,2,0,-2
487669443654,0,-2,-8,-8,5,-2,0,-1
487669452683,-2,0,0,4,10,1,-1,-1
487669452683,-2,-6,-18,-11,6,-2,0,-1
487669467568,1,7,15,7,1,0,-1,0
487669467568,-1,-3,-6,-2,0,-2,1,2
487669469121,-2,-4,-4,-6,-3,-1,0,-3
487669469121,0,1,4,5,1,-4,0,1
487669490071,-1,-3,3,0,-2,-2,-3,-1
487669490071,0,-2,-3,-6,-5,1,-1,-2
487669491651,0,4,9,10,1,1,0,1
487669491651,-2,-1,-2,2,-3,-1,0,0
487669503681,-1,-2,-5,-5,-2,0,0,-1
487669503681,0,-2,-9,-7,-4,-1,-2,0
487669512729,-1,-3,-1,-6,-6,-2,-1,-2
487669512729,-1,1,-1,2,2,2,0,-1
487669527586,1,0,11,3,1,0,-1,-1
487669527586,-1,2,-1,-2,-4,-3,-1,-2
487669529263,-1,-3,-8,-5,-3,-2,-1,-1
487669529263,0,1,10,7,0,-2,-1,-2
487669549989,-1,-4,-11,-6,3,2,-2,0
487669549989,-2,-4,-6,-5,2,-3,-2,-1
487669551632,-1,3,4,4,-1,-1,-1,-3
487669551632,1,-1,3,3,1,1,3,1
487669572517,0,-2,-3,3,-1,-6,-1,-1
487669572517,0,2,7,-2,4,0,-2,0
487669574169,-1,-6,-14,-10,-5,-3,-2,-1
487669574169,-2,-2,6,10,-6,1,-1,-2
487669587523,0,-3,-6,-2,-1,1,-1,-1
487669587523,-1,-2,-5,-2,0,4,0,-2
487669589191,0,0,3,-3,3,-2,-2,0
487669589191,-1,-1,-10,-2,1,-4,-2,-1
487669610185,-2,1,11,5,1,3,0,-2
487669610185,0,-2,-9,-14,-6,-8,-1,-2
487669611541,-1,-3,-11,1,1,2,-1,-1
487669611541,2,7,15,1,-4,-1,-2,0
487669632516,0,1,2,11,-3,-1,1,0
487669632516,-2,-1,-3,2,1,-1,0,0
487669634128,-2,-3,-6,-4,0,-2,-1,-1
487669634128,-1,-4,-9,-8,0,-2,-1,-1
487669648198,-1,-4,-8,-6,-2,-1,-2,-3
487669648198,-1,1,0,1,-3,-2,0,-1
487669649143,-2,-3,1,0,-3,-1,0,1
487669649143,-1,-2,-2,-3,-2,-1,-2,-1
487669670069,-2,1,-4,-7,-4,-2,-2,0
487669670069,-2,-1,5,8,-5,0,0,0
487669671656,0,0,1,-2,-4,-1,-1,-1
487669671656,0,-2,2,0,-1,-3,-1,-1
487669692538,-1,-2,-10,-11,-1,-2,-2,1
487669692538,-1,2,12,11,5,1,0,1
487669694144,-1,0,4,3,4,0,-2,-1
487669694144,-1,-1,-3,-3,-1,1,0,0
487669707511,-2,-9,-12,-3,-4,-5,-4,-4
487669707511,1,-2,-3,-5,-4,-2,-2,-2
487669709126,3,10,24,11,2,4,2,0
487669709126,-2,-3,-5,-6,-6,-4,-1,-3
487669730036,-2,0,-5,-4,0,0,0,0
487669730036,-2,-2,-8,-4,-3,-1,-1,-2
487669731802,-2,-3,-3,-2,-1,-1,-1,0
487669731802,0,1,-1,1,-1,-2,-3,-1
487669752514,-1,1,2,-4,-1,0,-1,-1
487669752514,-1,-1,0,2,-1,1,-1,0
487669754119,-2,-2,2,2,2,-1,-1,-2
487669754119,-3,-2,-6,-5,-3,0,-1,-1
487669766839,-1,1,-6,0,-1,-3,0,1
487669766839,-1,-3,0,0,1,-1,-1,0
487669773711,0,-2,6,6,-1,-4,-1,-3
487669773711,0,1,1,3,1,1,-2,-2
487669790679,-1,-2,-7,-7,-2,0,0,-2
487669790679,-3,-7,-20,-7,-1,-1,-2,-2
487669791688,3,10,22,5,-2,0,1,2
487669791688,0,-4,0,0,0,0,-2,0
487669812544,-1,-2,-1,-7,-2,-3,0,-2
487669812544,-1,0,1,4,3,2,1,-2
487669814158,-3,-7,-20,-10,-7,-3,-3,-2
487669814158,0,4,21,18,1,-1,-1,-1
487669826845,1,1,6,-5,-2,0,-2,0
487669826845,-1,-1,-1,4,2,-1,-2,-1
487669833659,0,-3,-10,-12,2,-1,-1,-3
487669833659,-2,0,-7,-5,1,-2,0,-1
487669850014,1,-1,2,6,3,1,-1,0
487669850014,0,2,6,-1,-4,-3,0,-1
487669851686,-2,-3,-2,-1,-4,0,-2,1
487669851686,-4,-3,-8,-2,-1,3,-1,-1
487669872753,-1,-3,-7,-6,-2,-3,-1,-3
487669872753,1,2,13,6,-2,0,-1,-2
487669874237,0,-3,-7,3,-4,0,-1,-2
487669874237,-1,-3,-8,-3,-2,-1,-1,-1
487669886935,-2,-1,0,2,0,0,0,0
487669886935,0,-4,-6,-8,-2,-1,0,1
487669894158,-2,-1,-4,-2,1,0,-1,-1
487669894158,-1,-6,-5,-4,0,5,0,-1
487669917663,-2,-1,-2,-3,-8,-6,-2,-1
487669917663,0,-1,-5,-12,-2,-5,-2,-2
487669919846,-2,-2,5,4,0,0,-2,-2
487669919846,0,1,-4,6,1,-1,1,-1
487669932807,-1,1,3,1,-1,3,1,0
487669932807,-1,-3,0,-4,-3,0,-1,0
487669934094,2,-2,-6,-6,1,-2,0,-2
487669934094,-1,2,1,-6,0,0,1,-1
487669947052,0,0,1,0,0,0,1,-1
487669947052,-1,-3,-8,2,-1,-2,-3,-2
487669954233,1,1,-1,-8,0,-1,-1,0
487669954233,-1,0,6,6,-1,-2,1,-2
487669970138,0,-1,-2,0,-1,-1,-3,0
487669970138,-1,-3,-8,-4,-2,-2,0,-1
487669972303,-3,-2,-2,-1,-1,2,0,-1
487669972303,-1,-4,-4,-7,-4,-5,-3,-1
487669992515,-3,-3,-5,-4,-1,-7,-1,-2
487669992515,-1,0,2,3,1,3,1,-1
487669994635,0,1,-7,2,-1,0,1,0
487669994635,0,-4,0,2,-1,-1,-1,0
487670007443,0,-2,-4,-5,1,1,0,-1
487670007443,-1,-1,-5,-3,-2,-3,-2,-2
487670013625,-1,1,2,-3,-1,-1,-1,0
487670013625,-3,1,-3,-5,-3,-2,-2,-2
487670030012,0,-2,3,3,-1,1,-2,-1
487670030012,-2,-2,-7,-7,-1,0,-1,-1
487670031542,-2,-3,-2,4,-2,-1,-1,-2
487670031542,2,4,17,11,2,1,0,1
487670060012,-5,-6,-10,-9,-6,-6,-4,-3
487670060012,0,3,13,9,-2,-3,0,0
487670061648,-1,-7,-12,-9,-1,-2,-1,-3
487670061648,-1,-4,-7,-6,-2,-1,-2,-2
487670066148,1,1,4,5,2,0,1,-3
487670066148,-2,-1,-2,-7,-1,3,-1,-1
487670075154,-2,0,4,5,0,-4,-2,1
487670075154,-4,-3,-10,-7,-3,-2,0,0
487670090031,1,9,15,1,-1,1,0,1
487670090031,-3,-2,-6,-21,-6,-3,-2,-2
487670091641,2,3,18,33,4,2,2,-1
487670091641,-1,-2,-6,-13,-6,-3,-2,0
487670112562,-1,-5,-5,2,0,-2,-2,0
487670112562,-1,3,4,-21,1,1,-1,1
487670114234,-1,-1,7,26,5,1,-2,0
487670114234,-1,-1,-6,-7,0,-1,0,-1
487670126161,-2,-2,-2,12,-1,1,0,0
487670126161,-3,-6,-4,-15,-4,-6,-2,-3
487670135205,-2,-2,-11,-10,-4,-3,-2,-2
487670135205,0,0,1,-4,-1,-4,-2,-2
487670150006,-1,0,-1,-5,-1,1,0,-1
487670150006,-2,0,2,19,1,0,-1,-1
487670151639,-1,-2,-3,-10,-2,0,-2,-1
487670151639,-1,-3,-3,0,1,-3,-1,-2
487670172525,0,-4,-4,-9,-4,1,0,-2
487670172525,0,0,-3,7,3,1,0,0
487670174108,-1,3,23,9,-3,-1,1,-1
487670174108,0,0,-3,5,0,-3,-2,-1
487670186177,-1,-1,-2,6,2,-2,0,1
487670186177,0,3,6,0,0,0,0,0
487670195210,-1,-2,-5,-14,-4,-1,0,-1
487670195210,-2,-3,-6,1,-2,-1,-1,-1
487670210055,0,3,6,4,1,-1,0,-1
487670210055,-1,-6,-9,1,-2,-2,-2,-3
487670211671,-2,-5,-10,-12,0,-3,-3,-1
487670211671,0,3,13,5,0,0,0,-2
487670232545,-3,-3,-7,-11,-4,-2,0,-2
487670232545,-1,1,3,10,-2,-1,-1,-2
487670234140,-3,-2,-3,-7,-2,-1,0,-2
487670234140,-2,-3,-3,-3,-1,1,0,-1
487670246201,-1,0,3,-3,1,1,-1,2
487670246201,0,-5,-10,-10,-1,-1,0,0
487670255146,1,3,14,16,-3,-3,-1,-2
487670255146,-1,-2,-7,-8,-2,0,-2,0
487670269990,0,-2,-8,-2,-2,-6,-3,-2
487670269990,0,5,14,8,0,1,-1,0
487670271631,0,-4,-14,-13,-2,-1,0,-1
487670271631,-4,-1,-5,-2,-1,1,0,0
487670292528,0,1,5,4,1,2,0,0
487670292528,-2,-6,-10,-4,-1,-3,-1,-2
487670294133,-2,2,-3,-6,-3,0,-1,-1
487670294133,-2,-2,3,1,-2,-1,0,-1
487670306189,0,2,5,0,0,0,-1,-2
487670306189,0,0,6,11,-1,0,0,-1
487670322674,0,-2,-9,-15,0,0,-2,0
487670322674,0,-1,-8,2,-1,-2,0,0
487670330005,-1,-3,0,5,-2,-1,-1,0
487670330005,2,3,13,5,-1,-1,1,-1
487670331569,-2,-3,-6,-4,0,0,-2,-1
487670331569,1,0,3,-5,0,-5,-3,-3
487670352540,-3,-5,-17,-8,-4,0,-1,0
487670352540,-1,-4,-6,1,-2,0,-3,-1
487670354199,1,4,6,-1,-2,-2,-1,-1
487670354199,-1,0,3,-3,0,1,0,-1
487670366173,-2,0,1,-3,-1,-2,-1,-1
487670366173,-4,-6,-10,-2,-1,-3,0,-3
487670375292,0,-1,-3,-3,-2,-2,0,1
487670375292,1,-1,5,3,-2,-1,-1,0
487670390055,0,-2,3,2,-1,-3,-1,-1
487670390055,-3,-1,-9,-7,-3,-1,-1,0
487670391657,-1,-1,-8,-4,-1,-1,-1,-1
487670391657,0,3,11,7,-1,-1,-1,0
487670412528,-1,-3,-10,-3,-2,1,-1,0
487670412528,0,-4,-12,-12,-3,-2,-1,-2
487670414196,-1,2,11,8,-1,-4,-2,-1
487670414196,-4,-6,-19,-15,-1,0,0,-1
487670426148,-1,3,5,15,0,-1,-2,0
487670426148,-2,-4,-3,-4,-2,1,-1,0
487670435187,1,-1,8,9,-2,0,0,0
487670435187,-1,-5,-8,-8,-2,-4,0,-2
487670450025,-2,-3,-3,-8,-2,2,0,-2
487670450025,0,-2,-11,-4,-2,-3,-1,-2
487670451660,-1,0,6,-1,-4,-2,0,-1
487670451660,1,3,12,7,1,1,2,-1
487670472543,-2,-2,5,3,0,-2,0,-1
487670472543,-1,1,4,2,-1,-1,-2,1
487670474158,-2,-5,-15,-8,0,2,-1,-2
487670474158,0,3,9,-2,-1,-1,-2,-1
487670486274,0,0,5,-5,-4,-2,-3,0
487670486274,0,3,4,17,2,0,-1,0
487670495166,-1,1,3,0,0,-2,1,1
487670495166,-1,0,-4,2,-2,-1,-3,-1
487670517542,-2,0,-4,-12,0,1,-2,-2
487670517542,-2,-3,-4,0,-1,-3,0,-2
487670519198,-1,-1,-8,-4,0,2,0,0
487670519198,-3,-3,-1,-1,-2,-2,-1,-1
487670532536,1,-1,-5,-1,-1,0,-1,-1
487670532536,1,3,4,-3,-2,-2,-1,-1
487670534223,-2,-3,-8,-6,-2,-4,-1,-1
487670534223,-2,-3,-1,8,0,2,-1,-3
487670554087,0,0,1,0,-3,-2,1,0
487670554087,0,4,18,5,1,3,0,1
487670562691,-2,-1,-8,-5,-1,-1,-2,-1
487670562691,1,-2,1,3,-2,0,0,0
487670570009,-1,-3,-7,-3,2,1,-1,-2
487670570009,-1,-1,-4,-9,-2,-2,-2,0
487670571561,-3,-6,-7,0,-2,-2,0,-2
487670571561,-1,5,12,-1,-1,0,-1,0
487670600000,0,-3,-6,-2,-2,-1,-1,1
487670600000,-1,-2,10,6,-1,-1,-1,-1
487670601635,1,-1,2,-1,-1,-2,-2,0
487670601635,0,-1,-2,6,0,1,0,0
487670615000,-2,2,8,2,-1,-3,-2,-1
487670615000,-4,-2,-6,-5,-2,-1,-1,-2
487670616535,-1,-2,-5,-5,0,0,-1,-3
487670616535,-1,-2,-7,-5,-1,-1,-1,-1
487670629372,-2,1,4,-2,-3,-1,0,1
487670629372,-1,-5,-7,1,-3,0,-1,0
487670636195,-1,-7,-8,-5,-2,-1,-2,0
487670636195,2,9,27,8,2,-3,0,1
487670652521,-1,-4,-9,-2,0,1,0,-1
487670652521,-2,-4,-15,-12,-3,-1,-1,-1
487670654239,0,-2,3,6,-1,-5,-1,-1
487670654239,-2,-4,-17,-13,-1,0,-3,-2
487670674987,-2,-1,-6,2,-1,-1,-2,-1
487670674987,1,-1,3,-6,-3,-2,-1,0
487670676572,0,2,3,0,-1,2,-1,0
487670676572,-1,-3,-11,-2,-2,-1,0,0
487670689323,0,-1,4,0,-1,-3,-1,-2
487670689323,-2,-1,-7,-2,-2,-1,1,-1
487670696177,-1,1,5,-3,0,0,0,-1
487670696177,0,-2,-7,-5,-2,-3,-2,0
487670712583,0,-2,14,12,2,0,1,0
487670712583,0,0,-2,-1,-1,-1,0,-2
487670714140,2,5,19,9,0,0,-1,0
487670714140,-3,-4,-2,-2,-1,0,-1,-2
487670735037,-1,-2,-9,-6,-2,2,-1,-1
487670735037,-1,-2,1,0,-3,-3,-2,-2
487670736643,-2,0,-4,-4,-1,-1,-1,0
487670736643,0,-2,-8,-3,-1,0,0,0
487670749340,-1,-4,-7,-4,-1,-1,0,-2
487670749340,-1,0,0,-8,1,0,0,0
487670756131,1,2,11,12,-2,1,1,-2
487670756131,-2,-5,-7,-6,-4,-2,-3,-1
487670772509,-1,-2,-7,6,-1,-3,-2,-1
487670772509,1,-1,3,0,-1,-1,-1,0
487670774156,-1,-1,-9,-9,-1,-2,-2,0
487670774156,-1,-3,1,0,-2,-1,-1,1
487670794762,-2,-3,-8,-17,-4,-3,-2,-3
487670794762,-2,-1,-5,7,-1,0,-2,-1
487670802674,-2,-1,-5,-2,-1,-2,-1,-2
487670802674,0,-2,-3,0,-2,0,-2,-1
487670809390,-1,-2,0,-5,-1,-1,0,-3
487670809390,-2,-1,-8,-2,-1,-3,-1,-1
487670816182,-2,-2,-4,-2,-1,-1,0,-2
487670816182,1,5,8,2,0,1,0,-1
487670832545,0,0,-2,-2,-1,0,-1,-3
487670832545,-1,0,1,1,0,1,0,-2
487670834266,-2,-5,-12,-3,-1,-1,-2,-1
487670834266,0,1,-1,-13,-3,-2,0,1
487670855031,-1,1,8,14,0,-1,-1,2
487670855031,2,0,-4,-1,0,-1,-2,-2
487670856628,-3,-1,-3,-2,0,1,-1,-1
487670856628,1,-4,-4,-3,0,-1,0,-2
487670877319,-2,0,-4,-5,-2,-3,0,-2
487670877319,0,-2,6,2,-1,-1,0,-1
487670885278,-1,-3,-1,-5,-2,0,-1,-2
487670885278,0,-1,-3,-4,2,1,-1,1
487670892558,-4,-6,-2,-3,-3,-2,-2,-2
487670892558,-1,3,5,13,0,0,-1,1
487670894193,0,4,9,0,-1,0,-1,1
487670894193,-2,-2,-4,-3,-3,-1,-1,-2
487670915509,0,-2,-2,-5,2,-1,-2,-1
487670915509,0,-2,-5,-4,-1,-1,-1,-2
487670917130,-2,-3,-3,-1,0,0,0,-2
487670917130,0,0,-1,3,0,0,-3,-2
487670929346,-1,0,-7,-11,-3,-5,-2,-1
487670929346,0,1,14,14,0,-1,-2,0
487670936216,-1,0,2,0,-2,-3,0,-1
487670936216,-1,-3,-8,-5,-1,-1,-1,-1
487670960013,1,4,13,10,1,2,0,0
487670960013,-1,-1,-2,-6,-3,-1,0,-1
487670961643,0,-3,-8,-1,-1,-3,1,-1
487670961643,-3,-3,-2,2,-2,-2,-1,-1
487670975035,-1,-1,-5,-5,0,0,0,0
487670975035,1,1,3,-8,-1,0,0,0
487670976664,-1,-3,0,2,-1,-1,-2,0
487670976664,-1,-1,-1,1,-2,0,0,-2
487670989366,-1,-1,-3,0,-2,-2,1,-2
487670989366,-2,-4,-1,2,1,0,0,-1
487670996153,-1,-1,-6,-9,-2,0,-1,-1
487670996153,-2,1,4,-3,-1,-4,0,1
487671012935,-1,3,17,13,-2,2,1,0
487671012935,-2,-2,-2,2,-2,-1,-2,-1
487671014130,-1,-1,-2,0,-1,-1,-1,-1
487671014130,0,-2,-4,0,-2,-2,-1,0
487671035069,0,-2,-4,-9,-2,0,-1,-2
487671035069,-2,-4,-8,-3,-1,-6,-2,-2
487671036676,1,0,1,-2,1,-1,-1,0
487671036676,-1,-1,-8,-1,-1,-1,0,-2
487671048658,1,2,7,12,1,1,0,1
487671048658,-2,-2,-7,-5,0,1,0,-1
487671057697,-2,1,11,-1,-2,-1,0,-3
487671057697,0,-4,-6,-1,-2,-3,0,-1
487671072545,0,-2,1,-5,-2,-1,-3,-2
487671072545,-1,-3,-4,-9,-1,-2,-1,-2
487671074156,0,0,-3,7,1,0,-1,1
487671074156,-2,-1,-2,1,0,0,0,-1
487671095088,1,1,3,-2,2,-1,0,0
487671095088,-1,-3,-5,-12,-1,0,-1,-1
487671096684,-1,-1,1,8,-1,-1,-3,-1
487671096684,0,-1,1,0,-4,-4,0,-2
487671108708,-2,-4,-8,-6,0,0,-1,-3
487671108708,0,3,-3,-4,0,1,0,-1
487671117709,1,-2,-4,-11,-2,-2,-1,-1
487671117709,-1,1,-3,7,-1,0,-2,0
487671132566,-1,-4,1,0,0,1,-1,0
487671132566,-3,-7,-14,-12,-4,-3,-3,-3
487671134181,0,3,4,0,-4,-5,-2,0
487671134181,-3,-2,-1,2,-6,0,0,1
487671155051,1,3,15,8,-12,-3,2,-1
487671155051,2,-2,0,6,-5,0,-1,-2
487671156684,-3,-8,-14,-5,-6,-2,-3,-2
487671156684,0,-1,-3,-9,-4,0,0,-2
487671168694,-1,-3,-11,-6,-5,-2,-2,-1
487671168694,0,-1,3,3,-2,1,-1,-2
487671177780,-3,-2,-4,-5,-2,0,-1,-3
487671177780,-1,3,11,3,7,2,0,0
487671192561,-1,-3,-6,-6,7,0,-3,-2
487671192561,0,2,9,10,9,-2,-1,-2
487671194249,-1,-1,-7,-4,13,0,0,-1
487671194249,-2,-1,-1,-1,10,-1,-1,-2
487671215067,-1,2,8,-1,17,0,0,0
487671215067,-2,-1,-2,-9,3,-1,-1,1
487671216699,1,-2,0,8,2,-4,-1,1
487671216699,1,-1,-1,1,3,0,-2,0
487671228691,-2,-3,-15,-9,-2,-3,-1,-2
487671228691,-1,2,4,-1,-1,1,-1,0
487671245200,-2,-2,6,3,-6,1,-1,-1
487671245200,-2,-2,-6,-4,-7,-2,-1,-2
487671252494,-1,0,-5,-1,-9,-1,-1,-2
487671252494,-2,-1,3,-2,-7,0,-1,0
487671254128,-1,-1,-7,-9,-8,-1,-1,-1
487671254128,0,-4,2,2,-7,-2,0,-2
487671275056,0,-2,-5,-4,-18,-2,-2,-2
487671275056,-1,-3,-1,3,-7,-4,-1,-1
487671276654,-2,-4,-6,-4,1,0,0,-1
487671276654,-1,2,4,-1,5,-1,-2,1
487671288708,2,-1,-1,-2,4,-5,-1,-1
487671288708,-1,0,1,2,2,-2,-1,-1
487671303684,-1,0,-2,-1,4,0,1,-1
487671303684,-3,-1,-4,-2,4,-1,1,-2
487671312537,-2,-3,-1,4,2,1,-1,0
487671312537,2,2,2,2,-1,-1,-1,-1
487671314170,-2,-1,-3,-3,-4,-1,0,-1
487671314170,0,1,3,0,-4,-1,-1,-1
487671335056,-1,0,2,-1,-3,-2,-1,0
487671335056,-2,-6,-11,-7,-6,-2,2,0
487671336622,-1,3,6,-14,-8,-1,-3,-1
487671336622,-2,-6,-14,9,-4,-2,-1,-1
487671348679,0,5,17,12,2,1,1,1
487671348679,-2,-2,-7,-5,0,-1,0,-1
487671357714,-1,-6,-9,4,-1,-3,-2,-2
487671357714,0,4,12,-6,2,-1,-1,-1
487671371927,-1,-5,-12,-10,7,-2,-2,-3
487671371927,-1,0,2,7,3,1,-2,0
487671378730,-1,-5,-8,-15,-3,-1,0,-1
487671378730,1,-2,-12,5,-2,-3,-2,0
487671402608,-3,-5,-2,3,0,0,-1,-1
487671402608,1,-1,1,-4,-4,-2,-2,-2
487671404214,-2,-1,1,0,-4,0,0,-2
487671404214,-2,-4,-15,-8,-6,-1,-3,-3
487671408789,1,3,10,2,-8,-1,-1,0
487671408789,-3,-2,-9,3,-7,-1,-1,-1
487671423722,-1,-2,-8,-8,-4,-2,-1,-1
487671423722,1,-1,15,7,-2,0,1,0
487671431913,3,6,13,5,-3,-1,0,0
487671431913,-3,-4,1,-2,-2,-2,-2,-2
487671438699,-1,-2,-1,0,-1,-2,-1,-1
487671438699,0,-2,-2,-6,-6,-3,0,-1
487671455067,-2,-1,-9,-7,-5,-3,-2,0
487671455067,2,3,4,1,-6,-2,-1,-2
487671456637,1,4,2,4,-5,-2,1,-1
487671456637,0,-1,6,-3,-8,-1,-1,-2
487671477599,-1,-3,-12,-4,-2,0,0,0
487671477599,0,-2,-1,1,2,-3,0,-1
487671479119,1,3,6,1,3,-1,0,-3
487671479119,-2,-3,5,5,2,-2,-2,-1
487671491178,-1,-3,-11,-6,3,-1,-1,-1
487671491178,-2,-5,-12,-8,2,-5,-2,-2
487671500200,2,3,26,11,3,-1,0,0
487671500200,-1,-5,-6,-7,4,-3,0,0
487671515355,-3,-4,-9,3,5,0,-1,-2
487671515355,0,1,0,-4,7,0,0,-2
487671516681,0,2,3,4,12,0,0,1
487671516681,-1,1,-4,-5,8,-1,-3,0
487671537531,-3,-2,-1,-4,5,-2,-2,-2
487671537531,-3,3,4,2,7,1,-2,-1
487671539142,-2,0,-5,3,3,4,-1,1
487671539142,-3,2,-9,-4,6,3,-2,-1
487671551898,-1,0,9,6,3,3,-1,-1
487671551898,-3,4,4,3,3,3,-1,0
487671558697,0,-3,-4,1,1,2,-2,-3
487671558697,-1,0,3,0,0,2,-1,-1
487671575059,-3,-4,-3,-1,-1,-1,-2,1
487671575059,1,0,6,2,-7,1,0,0
487671576730,2,-2,-3,-2,-9,-2,-1,0
487671576730,-5,-2,1,1,-10,-2,-1,-2
487671605030,-7,-4,-1,0,-9,0,-1,-3
487671605030,7,-3,-2,-2,-8,-3,-2,1
487671606626,-3,-2,-6,-3,-8,-2,-1,-1
487671606626,3,-1,3,0,-8,-2,0,-1
487671611270,0,-2,0,-4,-8,-1,-1,-1
487671611270,-4,-4,-3,-3,-5,-3,-1,-2
487671620157,-3,-4,-1,-1,-2,-2,-1,0
487671620157,0,1,5,-3,-2,-2,-2,-1
487671635021,-2,3,5,1,0,-2,1,-1
487671635021,-1,-2,-1,1,1,-2,0,-1
487671636656,-1,-1,-6,-2,2,-3,-1,-2
487671636656,-1,0,-1,1,4,2,-1,-1
487671657550,0,2,4,1,2,-2,-1,-1
487671657550,-1,1,-2,-1,4,-1,0,0
487671659196,-2,-3,-4,-1,2,1,-2,0
487671659196,0,7,12,-8,-1,-3,-1,1
487671671226,-1,-4,0,6,0,-2,-2,-1
487671671226,-1,0,1,2,-2,2,1,0
487671680198,-3,-3,-7,-3,-4,0,-1,-3
487671680198,-1,-4,-7,0,-3,0,-1,-3
487671695020,1,-3,-9,-9,0,1,-2,0
487671695020,-2,3,5,3,-1,0,-2,-2
487671696672,-2,-3,-2,-2,-2,-2,0,-1
487671696672,0,-3,-4,-2,1,-1,0,-1
487671717593,-1,-2,-4,-4,-2,-3,-1,0
487671717593,-3,-5,-3,0,-1,-2,-1,-2
487671719249,0,4,5,3,0,0,-2,-2
487671719249,0,1,-6,-3,-1,0,0,-1
487671731194,-1,2,8,6,1,-1,-1,1
487671731194,-3,-7,-18,-9,-3,0,-2,-1
487671740234,3,7,22,11,0,-1,-1,1
487671740234,-2,-5,2,2,-1,0,0,-2
487671755084,-1,0,-6,-8,-1,0,-1,0
487671755084,0,-4,-9,-2,-1,-1,0,-1
487671756685,-2,-8,-19,-9,0,-1,-1,-1
487671756685,2,-3,-8,0,-2,-1,-1,0
487671777551,1,-1,0,-3,-4,-2,0,-3
487671777551,0,0,3,-3,0,-1,-1,-1
487671779128,-1,-3,-5,-3,-2,0,0,-2
487671779128,-3,0,0,1,-2,0,0,-1
487671791217,-3,-3,-5,-5,-3,-3,-3,-1
487671791217,0,3,7,1,-2,-2,-1,0
487671800208,1,2,0,-1,-2,-3,-2,0
487671800208,0,-3,-3,-7,-5,-3,-2,0
487671815060,1,-1,-1,9,-2,-1,0,-1
487671815060,0,-3,-4,-1,-4,-4,-1,2
487671816679,-1,-1,1,-1,-4,-1,-3,-1
487671816679,-1,0,-1,-3,-3,-3,-2,-1
487671837553,1,-2,-6,-8,-6,-1,0,-1
487671837553,-2,-3,-14,-10,1,1,0,0
487671839153,-1,3,15,15,6,0,1,-1
487671839153,2,6,0,-1,0,0,0,0
487671851200,1,2,22,16,1,-1,1,1
487671851200,-2,2,5,12,17,5,1,-1
487671860167,-6,-9,-21,-33,-14,-13,-6,-7
487671860167,-2,-5,-5,-1,5,-1,-2,-1
487671875158,-2,-4,-6,-5,-4,-2,-1,0
487671875158,1,6,7,3,-9,0,0,0
487671876686,0,-2,0,3,-1,2,1,0
487671876686,-3,-2,4,4,-2,-1,-1,-1
487671897324,-2,-9,-11,-6,-1,-2,-1,-1
487671897324,4,7,8,1,-5,-1,-1,-1
487671903679,0,5,1,1,-2,1,-1,1
487671903679,-1,0,2,-8,-5,-3,-3,-3
487671911180,-2,-4,-14,-1,1,0,-2,-2
487671911180,-5,-6,-6,-2,-2,-3,-4,-3
487671927689,-2,-6,-6,-6,-3,1,0,-3
487671927689,-1,0,-16,-2,0,-1,0,-2
487671935062,-1,-1,6,4,3,0,-1,0
487671935062,1,-5,2,-1,-4,-1,-1,-1
487671936684,-2,-1,-8,2,-1,-2,-2,1
487671936684,-1,-4,3,-1,-1,-1,0,0
487671957587,-2,-1,-11,-12,0,-3,0,-2
487671957587,-1,3,5,0,-2,-3,-1,-1
487671959185,-2,-6,-2,3,1,1,-1,0
487671959185,-1,-2,2,1,-2,-1,-2,-2
487671971174,2,5,2,-9,-4,-2,-1,-2
487671971174,-2,-4,5,7,3,0,0,-2
487671987699,-1,0,8,5,1,0,0,0
487671987699,1,2,0,6,-4,-3,-1,1
487671995062,-1,3,5,8,1,1,-1,0
487671995062,-4,-7,-16,-10,-3,-3,-2,-1
487671996726,0,-1,-8,-5,2,0,0,-1
487671996726,-2,-3,-4,-2,0,0,-1,-2
487672017554,-2,-3,-4,-4,0,-1,-1,-2
487672017554,-2,1,4,1,-3,0,0,-2
487672019175,0,0,-1,2,0,-1,-1,-1
487672019175,-2,-2,2,2,-4,-1,0,-1
487672031208,1,2,2,-2,2,0,-1,-2
487672031208,-2,-1,-5,-3,-1,-1,-3,-1
487672040289,1,2,8,0,-1,-1,-1,-1
487672040289,0,-2,-1,-3,-1,-1,1,0
487672055100,-1,-1,-4,-2,-2,-1,-2,0
487672055100,0,0,-1,-5,-1,-3,0,-1
487672056731,1,1,-2,-1,-1,0,-2,-2
487672056731,-1,0,3,3,2,1,-2,1
487672077546,-2,-2,-8,-4,-2,-3,-2,-3
487672077546,-1,-2,-9,-3,0,0,0,-1
487672079183,-3,-3,15,5,0,1,0,0
487672079183,-1,-4,-13,2,1,-1,-2,-2
487672091235,-2,3,21,8,0,0,-1,0
487672091235,-4,-4,-11,-9,-2,-1,-1,-2
487672100211,-2,-3,-10,-5,1,-2,-1,-1
487672100211,-1,-1,-4,1,2,0,-2,0
487672115066,-1,2,4,3,2,0,-1,0
487672115066,-2,-1,3,1,0,-1,-1,-1
487672116716,-2,-3,-2,0,0,1,-1,0
487672116716,-1,1,4,-3,-1,0,0,1
487672137539,-1,-2,-12,-7,-1,-2,-3,-1
487672137539,-1,-2,4,0,-1,-1,-2,-2
487672139170,0,2,1,2,-1,-2,-1,1
487672139170,-1,-2,0,-3,-3,0,0,-1
487672151213,-1,-1,-3,-1,-2,-1,-1,-1
