timestamp,emg1,emg2,emg3,emg4,emg5,emg6,emg7,emg8
60014540864,0,-6,-2,0,1,1,0,0
60014540864,-3,-1,0,-3,-1,2,-4,0
60014541739,-2,-2,-3,-2,-2,0,1,1
60014541739,2,0,-1,-1,-1,-2,1,1
60014546840,1,-4,-2,-3,0,2,2,0
60014546840,2,0,0,2,0,-5,-18,-2
60014547621,-5,2,-2,1,0,-3,7,3
60014547621,6,4,3,2,1,1,17,2
60014554829,-2,1,-1,-1,1,4,-3,-4
60014554829,1,0,-2,-1,-1,-6,3,1
60014562020,1,-5,2,-4,-1,-3,-10,-4
60014562020,-6,-1,2,-1,4,-5,-7,-3
60014579777,5,-1,-2,-9,-6,-5,5,3
60014579777,5,-1,-1,-2,-4,0,-6,1
60014583361,-7,-1,-9,-13,-6,-4,-4,2
60014583361,-3,-5,0,4,-1,-3,-11,-2
60014594800,-8,-1,3,3,3,-4,-13,-1
60014594800,-7,-7,1,-8,0,-3,0,-5
60014598300,-6,-2,-2,0,-2,-2,-12,-10
60014598300,2,-3,-6,-9,-6,-3,-4,2
60014614899,-4,-1,-2,-3,-2,-4,-9,-3
60014614899,1,-2,-1,-5,-1,1,-4,-4
60014661565,-1,-1,-3,-3,0,0,5,0
60014661565,-4,5,-3,-1,-3,-2,0,-2
60014662510,-4,-1,-4,-1,-1,-1,-3,-1
60014662510,-2,-1,-1,2,-2,-1,0,2
60014663217,-2,1,-1,2,-3,1,0,-4
60014663217,-1,0,0,1,0,-2,3,0
60014665642,-2,1,-1,5,3,-3,3,1
60014665642,-5,0,-2,-3,-1,1,0,-3
60014673888,1,2,-1,2,-3,-6,-1,-3
60014673888,3,-4,-1,2,-4,1,6,0
60014680704,1,-2,0,2,-3,-4,-8,-2
60014680704,-1,2,1,-1,2,3,0,-1
60014688780,-2,-1,0,1,3,-2,-1,2
60014688780,-4,3,-2,-7,-3,2,1,-1
60014703128,3,0,0,-2,2,1,0,0
60014703128,2,-1,-2,-2,0,-2,0,1
60014711343,-2,-2,3,8,4,2,-2,2
60014711343,-3,-3,5,8,7,1,1,-4
60014718190,6,-3,-6,-7,-4,0,4,9
60014718190,5,1,-10,-8,-12,-3,0,5
60014733902,1,-6,4,0,1,2,2,5
60014733902,-3,-1,-2,-7,-1,-1,-4,3
60014740648,-6,1,2,1,0,3,-3,-9
60014740648,-2,6,1,1,5,0,-10,-8
60014748889,-1,-4,-2,-1,-1,0,-2,-8
60014748889,-3,-3,3,1,0,-3,-5,-9
60014763154,0,-5,-3,-10,-4,0,-4,-5
60014763154,1,-2,-2,0,-2,-2,1,2
60014771382,-14,-2,-1,-7,-4,-3,-12,-2
60014771382,6,0,-2,0,4,2,-1,-3
60014778117,0,0,-3,-2,-2,-3,-1,4
60014778117,-1,1,0,0,-1,-3,-2,-2
60014793782,2,2,-1,-4,1,2,1,-2
60014793782,1,-4,-1,-4,-3,-3,1,2
60014800616,-4,2,-1,-5,-1,-4,-4,2
60014800616,-5,0,-2,-4,2,1,3,-2
60014808797,3,1,1,-3,3,-5,1,2
60014808797,0,-1,-1,-5,2,1,-5,-2
60014823081,5,3,3,-5,1,-1,0,0
60014823081,-5,-3,2,2,1,-1,-3,-5
60014832087,-3,2,3,0,7,4,-1,-8
60014832087,14,1,-9,-14,-6,-8,-2,15
60014838033,-6,-2,-2,0,-3,1,-8,-16
60014838033,-2,-1,-2,-8,-2,-2,-3,4
60014854561,4,0,-1,-7,-3,-4,-2,2
60014854561,-2,-2,5,5,6,-2,-1,-5
60014860540,-3,0,-1,-3,-2,-4,3,-2
60014860540,0,-1,0,-8,2,-5,-3,-3
60014877055,-1,3,-4,-7,-3,0,-4,-3
60014877055,-8,2,-3,-3,1,-2,-7,-2
60014883068,-2,2,-2,0,0,-2,3,3
60014883068,10,-2,-1,-11,-6,-1,10,8
60014892048,1,-4,-1,-5,-1,-1,-6,-1
60014892048,2,0,-2,-10,-4,0,-5,4
60014898046,-8,-1,0,-6,3,4,-4,-4
60014898046,-1,1,4,1,2,-4,-5,-2
60014921297,4,0,-3,-8,-5,3,0,6
60014921297,-1,1,-1,-3,0,6,6,-4
60014922058,-2,-2,0,-1,0,-3,-11,0
60014922058,-1,2,0,-6,-1,-1,-4,-6
60014937151,4,-3,-3,-4,-5,-3,-1,-2
60014937151,-7,-2,2,-7,-4,-4,-11,-6
60014943176,2,-5,0,-8,-2,-1,-5,1
60014943176,-1,-3,-1,-1,-2,-3,-7,-3
60014952119,-6,1,-2,-2,-2,-5,-13,-4
60014952119,-2,-2,-1,-8,-3,-1,-3,1
60014958135,0,-3,3,-2,-2,-1,-4,2
60014958135,-4,-6,1,2,0,-1,-13,-4
60014974628,-3,1,-3,-7,1,-4,4,-2
60014974628,-5,2,-2,-3,-2,-2,-5,0
60014980614,0,6,1,-3,-3,-2,-4,-1
60014980614,-4,0,-1,3,1,0,3,-1
60014997051,-2,-2,-1,-1,-1,0,-4,-3
60014997051,-2,-2,-1,-2,-1,-6,-4,-2
60015011950,0,-4,-1,-2,1,-3,-2,1
60015011950,-2,1,-3,-1,-1,0,-5,1
60015013550,-4,-2,0,-2,-2,-3,-2,3
60015013550,1,2,-3,-1,-3,1,1,-4
60015025629,-2,-4,-2,-1,0,2,7,1
60015025629,3,-1,0,0,0,-3,2,-4
60015034678,-5,-3,-3,2,-3,0,2,-3
60015034678,0,0,0,-1,-1,1,-2,-1
60015040655,-2,3,-1,1,-2,-2,1,1
60015040655,1,-3,-1,-2,1,4,4,0
60015057080,-1,-2,0,1,2,4,5,1
60015057080,0,-2,-1,4,-2,0,0,-2
60015063158,0,-1,-3,-1,0,-1,1,-2
60015063158,-1,-2,0,-3,-3,3,-2,-1
60015072163,0,1,-4,-4,1,-2,0,-1
60015072163,0,-6,1,-1,1,-3,-3,-1
60015085645,0,-2,-2,-4,-2,0,-2,-4
60015085645,1,-1,-4,-1,-1,-3,-4,-2
60015094680,4,-2,1,-2,-1,-1,1,1
60015094680,-3,0,0,-4,-3,-2,-6,-1
60015100661,0,2,0,-4,-1,-2,-4,-3
60015100661,-2,-2,1,-8,3,-3,0,-3
60015117090,0,2,0,-2,0,-4,-2,-4
60015117090,5,-8,-5,-4,-2,0,7,4
60015123067,-6,3,3,0,3,0,3,0
60015123067,8,0,-4,-4,-2,-1,-1,9
60015132072,8,0,-4,-12,-5,-1,5,15
60015132072,-4,0,3,2,4,2,-3,5
60015145582,-1,1,-2,4,1,1,-3,-1
60015145582,-7,1,1,-1,2,0,-4,-6
60015154579,-1,-1,2,-4,1,-1,-5,-6
60015154579,-1,0,-2,-2,1,-1,-2,-8
60015160527,-1,-6,-3,-4,-2,-2,0,-1
60015160527,-5,2,0,-7,-3,1,-3,-2
60015177048,-3,-3,-4,-5,-1,0,-6,-2
60015177048,-5,3,-2,-7,-2,0,-4,-1
60015183080,1,-3,-2,-6,-1,0,-4,1
60015183080,3,-3,-3,0,-2,-1,0,2
60015192090,2,-2,1,-4,-1,0,0,-2
60015192090,0,-1,-3,-4,-2,-1,0,-1
60015205572,2,0,0,-1,-3,-2,-2,-3
60015205572,-1,-1,0,-6,0,-3,-1,-3
60015214592,-4,1,1,-4,1,0,-3,-2
60015214592,-2,-4,1,-6,-2,-2,-4,-4
60015220548,2,-1,2,-3,0,4,-5,-2
60015220548,-1,0,1,-2,1,-3,-5,1
60015237051,-3,-5,-2,-1,0,0,-4,-2
60015237051,-1,-3,-1,-3,0,-2,-2,3
60015243051,3,1,-1,-5,0,0,1,0
60015243051,-2,-2,-1,2,-1,1,-1,-1
60015252077,-1,4,3,-2,-1,2,2,1
60015252077,0,-4,-1,-3,-2,-4,-7,-2
60015265636,-2,-5,-3,-3,-1,-2,-1,-3
60015265636,0,-4,-2,-7,-1,-3,0,2
60015274558,-1,-2,0,-3,2,1,-1,-4
60015274558,-5,-4,-1,-5,-4,-3,-4,-2
60015280543,-2,-2,0,-5,1,-1,-1,1
60015280543,-2,-2,-1,-4,0,-3,-5,1
60015297053,0,-3,0,-3,-2,-2,-2,-1
60015297053,-1,2,1,5,2,0,1,0
60015303092,0,0,-3,-6,0,-3,-6,-1
60015303092,-4,-3,2,-3,0,2,3,0
60015319588,1,-1,4,0,3,-3,-16,-5
60015319588,5,1,-3,-5,-3,-5,8,6
60015325680,0,1,-1,-1,-4,-1,-1,3
60015325680,-2,0,0,-1,1,1,-6,-5
60015334606,-8,-5,3,11,4,1,-1,-7
60015334606,5,2,-4,-2,-3,0,5,7
60015340640,-3,-2,2,1,2,-3,0,-2
60015340640,7,-1,-5,-10,-3,-1,0,20
60015357100,-2,0,1,4,3,-1,2,1
60015357100,-8,1,2,1,2,2,-8,-10
60015363206,-4,-10,-4,-6,-5,-1,-9,-8
60015363206,-4,-3,-2,-3,-3,-1,-6,-13
60015372152,-2,1,-5,-5,-6,0,-3,-4
60015372152,0,0,-2,-2,-1,0,0,-3
60015402725,-7,2,-1,-3,-1,-1,-4,-5
60015402725,-4,-3,-2,1,-3,-1,-6,-9
60015404244,0,1,-4,-6,-4,-7,0,3
60015404244,0,-7,3,-6,0,3,-1,-1
60015405043,2,-1,0,0,0,0,1,0
60015405043,-1,-1,-1,3,0,-2,1,-3
60015415680,3,-2,-3,-2,-2,-1,4,1
60015415680,1,0,0,3,-1,1,-4,0
60015423157,0,1,0,2,1,-1,1,1
60015423157,2,-3,-1,-5,-1,1,1,-3
60015432178,-1,-2,-3,0,-3,0,5,1
60015432178,-2,3,0,-4,0,-1,-1,-2
60015445655,4,-4,0,-5,0,-1,-2,2
60015445655,-3,2,-2,3,0,-4,-1,-2
60015454589,2,0,0,-2,-1,0,2,2
60015454589,0,-4,-2,-14,0,-2,-7,0
60015460654,1,0,0,-4,-2,1,2,0
60015460654,0,-2,-1,-1,-1,1,0,-4
60015475605,-3,0,-2,-6,0,-3,-3,-2
60015475605,2,3,-1,4,-1,1,7,0
60015483176,0,-3,-1,-5,2,-3,-1,0
60015483176,-2,-2,1,-6,-2,-1,-4,1
60015499600,0,-5,0,-3,0,-1,2,-3
60015499600,-1,1,-1,-2,2,0,-3,-1
60015505601,-3,2,-2,-1,0,0,-5,-2
60015505601,0,-3,-1,-2,-1,0,1,-2
60015514606,-1,1,-1,-8,-1,-2,-6,2
60015514606,0,-4,0,-8,0,-1,-2,0
60015520621,3,0,0,-2,-1,-1,0,-2
60015520621,-1,-4,0,-4,0,-2,-2,-2
60015535619,-1,1,-1,-3,1,1,-1,0
60015535619,1,1,1,5,1,0,0,0
60015543128,1,-3,0,-2,0,-2,2,0
60015543128,-2,2,1,-5,2,2,-2,1
60015552055,4,-2,0,-4,1,-2,0,0
60015552055,-2,6,-1,1,-1,-1,-1,-1
60015565613,2,5,-1,0,-2,1,2,0
60015565613,-3,-3,1,-3,0,-3,0,0
60015574548,0,-3,-1,-5,1,1,0,0
60015574548,0,0,-2,-5,-4,1,-3,-2
60015580638,-3,0,-2,-7,1,-2,-6,0
60015580638,-2,4,0,-7,-1,0,-4,-4
60015595661,-1,0,0,-4,-2,0,-3,2
60015595661,-1,0,2,-9,0,-6,-4,-1
60015603169,-3,-2,-3,-3,-3,-1,-3,-3
60015603169,0,0,1,-2,-1,1,-3,0
60015612170,-2,-2,-2,-9,0,-2,-4,-3
60015612170,1,-4,-2,-6,0,0,-12,-4
60015625612,0,-3,2,-5,2,0,0,0
60015625612,0,-2,-1,1,1,-2,-1,0
60015634579,1,1,-2,4,1,1,4,3
60015634579,-6,-4,-4,-4,-4,-4,-16,-3
60015648821,0,-4,-1,-7,0,-2,-3,1
60015648821,0,-1,0,-3,1,-3,-1,1
60015655554,1,-2,-1,3,0,0,4,1
60015655554,-5,-1,0,2,-4,-3,-5,-3
60015671926,-3,1,-2,-7,-1,-3,-3,-1
60015671926,0,-1,0,-1,-3,1,-1,0
60015673519,1,2,-1,0,-1,-3,0,0
60015673519,-5,-2,-1,6,-2,-2,3,0
60015685562,1,-5,-2,-3,-4,-5,-10,1
60015685562,2,-1,-1,-5,-2,-1,-7,-5
60015694609,-3,0,0,-1,-1,3,-5,-2
60015694609,-2,3,-2,11,2,-1,6,3
60015708847,-3,2,-3,0,-4,0,-1,1
60015708847,-3,1,0,1,-1,-3,-5,-4
60015715613,1,-1,0,0,-3,-1,-2,1
60015715613,1,0,-1,0,0,-2,6,-4
60015731962,-2,0,0,0,-1,-1,0,-1
60015731962,1,0,-2,2,0,0,1,0
60015733579,-1,-4,-1,4,-2,1,3,0
60015733579,-1,4,-1,-2,-3,0,5,3
60015745594,-5,1,-2,8,-1,1,2,-4
60015745594,-1,-1,-3,-1,0,-1,-2,-1
60015754584,-1,-3,-2,-1,0,-1,-2,-2
60015754584,1,1,1,0,1,1,2,-1
60015768788,0,-4,-1,3,-1,-1,0,-2
60015768788,-2,-2,0,0,-2,-1,-1,1
60015775540,0,2,-2,0,-3,2,2,-3
60015775540,-1,1,-2,3,-1,-1,-2,-1
60015792069,1,1,0,1,1,2,0,1
60015792069,-1,-2,-2,0,1,-3,2,2
60015793546,1,1,0,3,1,0,5,0
60015793546,-1,-1,0,-9,0,2,-2,-3
60015805682,-1,1,1,0,0,-2,5,0
60015805682,-1,6,-2,0,1,3,4,-2
60015814627,-2,0,-1,0,0,4,3,1
60015814627,3,-4,-1,-4,2,2,-1,-2
60015828905,-2,-3,-3,-4,0,0,-1,0
60015828905,2,-1,2,1,-1,-2,-3,1
60015835677,0,-5,0,-1,3,-2,3,1
60015835677,-1,1,-2,3,-2,2,6,1
60015852025,0,2,1,-3,0,2,-1,-2
60015852025,-2,-2,1,-5,-1,-2,1,-2
60015853699,0,7,-1,-1,0,-3,0,-1
60015853699,1,-6,2,1,1,2,-1,-3
60015865719,4,1,-1,-5,1,2,1,0
60015865719,-2,3,-1,4,0,1,3,2
60015874684,0,-4,0,-2,-1,-2,-1,1
60015874684,1,1,-1,-8,1,-6,0,-1
60015888890,-2,3,2,0,1,-3,1,-6
60015888890,0,-4,0,-4,-3,1,-2,2
60015895686,0,-2,-1,-3,-2,-2,5,3
60015895686,5,0,1,-2,-1,1,2,4
60015912038,-1,-1,1,2,2,-1,-1,2
60015912038,2,-5,-2,-3,0,-1,-1,-1
60015913587,1,3,1,-2,0,1,1,2
60015913587,-1,1,2,-2,0,0,-3,2
60015925675,-1,-5,-3,-4,0,0,0,3
60015925675,-2,-2,0,-2,2,-4,2,-1
60015934620,0,1,1,-1,0,0,-6,-3
60015934620,1,2,-1,-9,0,0,-3,-3
60015948830,-3,-1,0,-5,-4,0,-5,-5
60015948830,-1,2,-2,-5,-6,-1,-5,-4
60015955671,-3,-2,-2,-5,-2,-2,-6,-5
60015955671,-2,3,-2,-5,-1,-5,-3,0
60015972029,1,0,-1,-4,-1,-2,-4,-2
60015972029,0,-2,-2,-6,-1,2,-3,-3
60015973590,-1,4,-2,-1,1,-2,-6,-1
60015973590,-2,2,-3,-7,-3,-2,-9,-1
60015985666,1,0,-1,-7,-1,-1,2,2
60015985666,0,3,0,-3,0,-2,-3,-3
60015994622,-2,-3,-2,0,-3,0,-3,-1
60015994622,-3,-2,-3,-6,-3,-3,-9,-5
60016008835,-4,-3,1,-3,-2,-2,-4,0
60016008835,0,-3,-1,-3,-1,0,-2,-1
60016015574,0,0,2,0,1,-2,3,-1
60016015574,-5,-6,-4,-3,-3,-3,-14,-3
60016031927,-1,-1,0,-1,0,0,-3,-2
60016031927,-2,-2,-2,0,-3,-2,-4,1
60016033582,-3,-1,-4,-9,-2,0,-10,-4
60016033582,-3,2,-1,1,-2,-2,-1,-3
60016045617,0,0,-4,-4,0,-3,-1,-2
60016045617,-4,-1,-2,-2,-3,-3,-10,-2
60016054580,0,-3,0,-4,-2,-2,-3,0
60016054580,-4,4,-1,1,0,-1,1,-1
60016068747,-3,-3,0,3,0,-2,-3,-4
60016068747,-1,-1,0,-1,-1,-3,-2,1
60016075608,-5,0,-3,-4,-3,-2,-4,-2
60016075608,-3,-1,1,7,-1,-2,3,-2
60016091983,1,3,0,0,-3,-3,-2,2
60016091983,-1,-2,1,1,-1,2,0,0
60016093573,-1,0,-2,5,-2,-3,-3,-1
60016093573,-4,-3,1,6,2,1,4,-3
60016105592,-4,-2,-2,-5,-1,-2,-7,-1
60016105592,0,2,-4,-1,-3,-2,0,0
60016114621,0,0,2,2,3,-2,-2,-2
60016114621,2,-3,-3,2,-2,-1,4,0
60016128824,1,1,-2,6,-4,-2,5,2
60016128824,0,-1,3,3,3,2,1,-1
60016135587,-3,0,-3,0,-3,1,2,1
60016135587,-2,-2,-2,2,3,-2,-2,-2
60016152007,-2,1,0,-2,-1,-1,-5,3
60016152007,1,1,-2,1,-1,-3,-1,-3
60016153553,0,-1,1,3,0,-1,-1,-3
60016153553,2,-3,-3,-8,-4,-1,-1,4
60016165764,-3,2,2,-1,-1,-1,-3,-3
60016165764,-5,3,-5,-5,-4,-1,3,4
60016174683,0,-1,1,5,3,0,3,4
60016174683,-1,-1,2,2,3,0,1,-4
60016188850,-2,-3,-5,-1,-4,1,6,0
60016188850,-2,1,-2,4,-2,-4,2,-3
60016195723,0,1,-2,1,0,-2,5,-2
60016195723,-2,-4,0,2,1,3,5,4
60016212033,-2,-6,1,3,2,1,-1,-7
60016212033,-1,1,-1,-1,1,3,-1,-8
60016213569,5,1,-6,-9,-9,-2,4,6
60016213569,3,2,1,-2,-1,-2,1,0
60016225637,3,3,0,1,3,1,2,-5
60016225637,0,1,-1,0,1,-2,5,2
60016235303,0,-1,3,1,1,1,0,-3
60016235303,2,-1,3,-4,-1,-1,-4,-4
60016248895,3,-3,-6,-4,-4,-3,0,-4
60016248895,-3,-3,-2,-2,0,-2,-2,2
60016255676,-1,1,-2,-2,1,1,-2,-1
60016255676,-2,3,-1,-4,-1,0,6,2
60016271285,1,2,1,-3,4,-2,-2,1
60016271285,0,2,3,-2,-1,-1,-3,-2
60016278183,2,-4,-3,-7,0,1,-4,-2
60016278183,-1,-1,-4,-3,-2,-3,-1,-3
60016285691,-2,2,1,1,-1,1,-3,-1
60016285691,5,2,-1,0,2,2,4,4
60016294655,-1,0,1,1,-3,-3,-3,-3
60016294655,1,0,-3,-4,3,1,-2,1
60016308876,-2,0,1,-1,2,-4,0,4
60016308876,0,-2,2,-3,0,-1,-6,-2
60016315650,-1,7,1,-1,-3,0,-5,-2
60016315650,2,0,-1,-3,2,-3,-1,0
60016331362,-1,-3,1,-3,-1,2,-1,-3
60016331362,-3,-5,-1,-2,1,-3,-3,-2
60016338184,-2,0,1,-4,2,-3,0,-2
60016338184,-6,-5,-2,-1,0,-4,-3,2
60016345717,2,2,-2,-6,-1,-4,2,3
60016345717,3,-2,1,-9,0,4,-2,0
60016354697,-2,2,-3,-2,-3,0,-3,-1
60016354697,3,0,0,-7,-1,1,-5,0
60016368885,0,-1,0,-1,3,-4,-1,-1
60016368885,0,-1,0,2,0,-3,-1,3
60016375666,0,-1,-2,4,1,1,3,-2
60016375666,-4,1,1,-3,-1,-5,-5,-3
60016391398,2,-4,0,-2,-4,2,-3,0
60016391398,-1,-2,-1,-3,-2,-1,-4,0
60016398195,-4,-5,1,-7,0,1,-4,-2
60016398195,-2,3,-2,0,-2,0,-4,-6
60016405720,-4,0,-1,-1,-1,-1,-1,-5
60016405720,-1,0,-4,-3,-2,-4,-6,-5
60016414627,-2,0,-3,-10,-1,3,-4,-3
60016414627,-2,-1,-3,-3,-2,-3,-6,-5
60016428786,1,-3,0,-5,-4,-4,-8,0
60016428786,-3,-3,0,0,0,0,-5,-5
60016435605,0,-6,1,0,0,-5,-6,-2
60016435605,-3,-2,-2,-3,-3,3,-6,-4
60016451312,-3,0,0,-1,-1,-4,-2,-1
60016451312,-3,-5,-4,-6,-4,0,-4,-2
60016458162,-4,-4,-1,-2,-3,-4,-9,1
60016458162,-1,0,-1,0,-2,1,2,0
60016474443,-1,1,-2,1,-2,-2,-4,1
60016474443,-2,-2,-2,-2,-2,0,-1,-3
60016476021,1,2,0,3,-1,-5,4,2
60016476021,-2,-2,1,1,0,-1,-1,1
60016488506,0,-1,-3,1,-1,-2,6,3
60016488506,0,-8,-1,0,-1,0,-3,-4
60016497131,-3,0,-5,0,-1,-1,0,-1
60016497131,-3,-1,-1,-2,-3,-1,2,2
60016511311,0,-2,-1,-2,1,1,-2,2
60016511311,-8,-1,-1,13,8,-3,-3,-3
60016518117,-1,-2,-2,-1,-11,-4,-1,0
60016518117,3,-1,0,-1,1,1,4,1
60016534458,-2,2,-1,-2,-1,0,-2,0
60016534458,-2,1,0,-6,1,-4,4,2
60016536094,-2,-3,0,1,4,-1,1,-1
60016536094,-3,-2,-3,0,-4,-2,-4,0
60016548854,-1,3,-2,-5,-2,-4,-2,-2
60016548854,0,1,-1,0,-4,0,1,1
60016555708,-2,-8,0,5,4,-1,3,0
60016555708,2,-5,-1,-3,-5,2,0,2
60016571402,-1,-8,-2,-4,1,0,0,-6
60016571402,-1,0,-1,-1,-5,0,2,-1
60016578202,-1,4,-3,3,-2,1,4,0
60016578202,-2,2,0,2,2,-4,0,1
60016594466,-2,-5,-1,6,1,2,2,-2
60016594466,2,2,0,2,-2,-2,-1,1
60016596113,3,0,3,-2,1,-2,-2,-6
60016596113,1,1,-1,-1,2,-1,1,1
60016608903,1,3,0,3,-3,-3,-1,-1
60016608903,-3,0,-2,-6,-2,-1,-3,-2
60016615762,1,2,0,-3,3,0,-1,-2
60016615762,0,-2,-2,-1,0,0,4,3
60016631380,1,-4,-2,1,0,-2,-2,-1
60016631380,1,-6,0,-4,0,-3,2,1
60016638227,1,-4,-3,-3,0,-1,-3,-2
60016638227,-1,3,0,-1,-2,2,0,-2
60016654534,-2,4,0,-3,1,-1,0,-1
60016654534,3,2,-2,5,-1,0,4,0
60016656123,-4,2,-1,-3,-3,-1,0,1
60016656123,1,-5,-1,-5,0,-2,1,-1
60016668936,-1,-2,-2,-3,0,2,-3,-1
60016668936,-1,-2,1,1,1,0,-1,0
60016675650,1,1,-2,-4,-2,2,-3,0
60016675650,3,-1,-1,1,0,-3,1,-1
60016691399,-5,2,0,1,-2,0,1,-2
60016691399,1,-5,-3,-5,1,-1,-3,-2
60016698207,-1,0,-2,-2,-1,0,-1,-1
60016698207,-6,2,2,-2,-3,0,-1,1
60016714546,0,3,0,-3,1,1,-4,2
60016714546,0,1,-5,-7,-4,0,-3,3
60016716096,0,-2,-1,5,2,-1,-2,-1
60016716096,-1,-2,-1,-3,1,-3,-3,-3
60016728885,4,-1,2,-1,1,-1,1,1
60016728885,1,-1,-2,-8,-2,-5,1,9
60016735700,1,0,-3,4,-1,2,6,4
60016735700,0,1,3,2,4,-2,-4,-1
60016751467,2,-6,-3,-5,-5,-2,-2,3
60016751467,-2,4,-1,4,2,1,-2,-3
60016758201,4,-3,1,-7,2,-3,2,0
60016758201,-2,-2,0,-1,-2,-2,-4,-7
60016774552,-2,0,-1,-1,-3,1,-4,-7
60016774552,-3,1,-2,-9,-1,-1,-3,-4
60016776135,-3,2,-1,-4,-2,0,3,-3
60016776135,-3,-1,-3,-3,-1,1,-2,-2
60016788853,1,-2,-2,-2,-1,-6,3,-3
60016788853,0,-2,0,4,-1,2,1,-2
60016795611,1,-2,-2,-6,-2,0,-4,-2
60016795611,1,1,-1,-5,-2,3,0,0
60016811361,-3,0,-1,-1,-2,-2,-3,-1
60016811361,0,2,0,-4,0,-5,-6,-4
60016818107,0,-3,1,-3,2,-5,-7,-1
60016818107,-4,-2,-3,-1,-1,-1,-2,-4
60016834480,-5,-1,-2,-1,-1,-2,-2,3
60016834480,-2,-5,1,-5,-3,1,-2,-1
60016836048,-3,1,0,-5,1,2,-5,-5
60016836048,0,1,-2,0,-2,-2,-5,-3
60016848760,0,-1,-1,-5,2,-3,0,-1
60016848760,-2,0,2,2,0,0,-1,2
60016855630,-3,-2,-1,-6,-5,-4,-6,2
60016855630,-4,-1,0,3,-3,-2,1,-1
60016871337,-2,1,-1,3,1,1,0,-1
60016871337,-2,-2,-2,-4,-1,-4,-2,-4
60016878156,-2,2,-2,-2,-1,-1,2,0
60016878156,0,-2,1,1,-1,-3,-2,-1
60016894483,-2,-1,-2,0,0,2,-2,-2
60016894483,-1,-4,1,3,0,1,0,0
60016896118,-1,4,0,-4,-2,-1,-3,-2
60016896118,-3,4,-2,0,-1,-3,-4,-3
60016908800,4,1,-3,-4,0,-3,4,-1
60016908800,-1,0,-2,-2,-2,0,-3,-1
60016915592,0,-5,-1,1,0,-1,2,-4
60016915592,3,-3,2,-2,-2,0,1,1
60016931389,-2,0,1,-3,0,1,-1,-2
60016931389,-1,2,-1,6,0,-1,-2,-1
60016938197,-2,3,-1,-1,-3,-4,-5,-1
60016938197,4,1,-1,-1,-1,1,0,-1
60016954529,0,1,-1,2,0,-3,-1,0
60016954529,-3,3,-2,3,-1,1,-1,-1
60016956130,3,-5,-2,-1,3,0,-3,1
60016956130,-2,-2,-4,-2,-4,-2,-2,0
60016968151,-1,-1,-1,-7,-1,1,-3,-1
60016968151,-4,2,-1,-2,0,-4,-3,-1
60016977174,0,-1,1,0,-2,-2,2,-1
60016977174,-2,0,0,-1,3,-3,-1,0
60016991418,-4,-1,-3,0,-4,-1,-7,1
60016991418,2,-2,0,-5,-3,0,3,1
60016998256,-2,2,-3,-2,-1,-1,1,-1
60016998256,-5,-5,-2,-7,0,0,-4,-3
60017014515,-2,1,1,0,-1,0,-3,-2
60017014515,-2,-4,1,-3,0,-2,-2,-2
60017016156,-2,-1,-2,-3,-2,1,-6,0
60017016156,-1,0,0,3,0,-1,1,0
60017028134,-5,-1,4,0,3,-5,-4,-7
60017028134,14,-2,-12,-20,-14,-3,13,28
60017037133,0,0,2,4,2,-2,-1,3
60017037133,2,2,1,3,6,-4,4,5
60017051343,-4,0,1,7,0,-1,0,-4
60017051343,-2,4,2,-2,2,0,-6,-7
60017058135,-1,-2,-3,-6,-1,-1,-8,-6
60017058135,-1,-2,-3,-4,0,1,0,-8
60017074489,4,-2,-1,-4,-1,-1,-2,-6
60017074489,1,-2,0,-2,-2,0,-6,-8
60017076118,-1,-4,-3,-2,-2,-2,-1,-6
60017076118,-2,-4,-1,-1,-3,-4,-2,-3
60017088160,-1,-1,-1,-6,-1,1,0,2
60017088160,-3,2,0,3,1,-5,-2,-3
60017097134,1,0,0,2,2,-2,-3,0
60017097134,2,1,-2,-4,-1,0,0,0
60017111312,0,-1,-2,-4,-2,-3,-3,2
60017111312,-1,0,-1,-1,1,3,-4,-5
60017118199,-1,-1,-1,-2,-2,0,0,3
60017118199,-1,-2,-1,-4,-2,-1,-1,0
60017134536,3,0,-4,-7,-1,-3,1,3
60017134536,1,-3,3,-2,1,-2,-1,-6
60017136101,0,3,-2,3,1,3,5,3
60017136101,-1,5,-1,1,-3,-1,-5,-2
60017148610,2,2,-1,-1,0,3,2,-3
60017148610,-1,-2,1,4,0,0,3,0
60017164666,1,-2,0,-5,-1,-3,0,1
60017164666,1,3,0,0,-2,-1,-2,-4
60017171321,-3,-4,-2,0,-1,-3,2,-3
60017171321,-1,2,-3,-3,-2,-1,-4,-1
60017178123,-1,4,-1,-3,-1,2,3,-2
60017178123,-2,0,0,0,-2,-3,1,1
60017193839,2,-2,0,-3,-1,-4,-2,-1
60017193839,-1,-1,-1,-5,1,-3,-1,-4
60017200639,2,-4,-2,-6,-4,-4,-4,-2
60017200639,-5,-6,-4,-6,-4,-4,-7,-4
60017208154,-1,0,0,-5,-1,2,-5,0
60017208154,0,1,-2,1,-2,-1,2,-1
60017217127,-3,-2,-2,0,0,-6,-3,0
60017217127,0,-3,0,0,1,-2,-3,-3
60017231314,-1,-1,-6,-2,-3,-2,-3,1
60017231314,-7,-5,1,-1,2,-3,-5,-3
60017238115,-1,-2,-4,-6,-3,-1,-4,-5
60017238115,-1,-1,0,-2,0,2,-3,3
60017262010,-4,2,1,0,-1,-4,-6,-6
60017262010,-4,-1,-1,-2,0,-1,-6,-4
60017263591,-3,1,-1,-5,-2,-1,-6,-3
60017263591,-6,-2,-2,1,-3,-1,1,-2
60017268114,-1,-3,2,-2,-2,1,-1,0
60017268114,0,3,1,-1,1,-4,0,-2
60017277128,-3,3,-1,5,-2,-3,-3,-2
60017277128,-3,0,-2,1,0,1,0,-4
60017291325,-1,-1,0,-1,-1,-2,1,1
60017291325,2,0,-1,3,0,1,1,-1
60017298146,-6,-1,-2,-1,-2,0,-2,-1
60017298146,3,-2,0,-2,0,2,2,0
60017313835,0,1,-1,5,0,2,3,-2
60017313835,-3,-2,1,3,0,2,0,-1
60017320642,-1,1,0,-1,0,-1,0,0
60017320642,-2,1,-3,-1,-3,-1,-3,-3
60017328143,-1,0,-2,-3,0,-3,2,1
60017328143,-1,-3,-1,-7,-1,3,-4,-1
60017337100,0,-1,-3,-1,-2,0,5,5
60017337100,0,2,1,0,1,-5,6,1
60017351338,2,-3,0,-4,-1,-2,-6,-1
60017351338,-1,6,-4,3,0,-2,-2,-4
60017358159,-3,-5,1,0,-2,0,-3,-2
60017358159,-1,-3,-3,-5,0,-2,-9,3
60017373872,-2,-3,1,-3,-2,-2,-7,-1
60017373872,-1,-6,-1,-2,0,-3,-1,-1
60017380614,-2,-1,-1,-5,0,0,-2,-1
60017380614,-1,-1,-1,0,0,3,-4,-4
60017397026,-2,3,-3,-4,-2,1,-5,-5
60017397026,0,-2,-1,-2,-2,-3,-1,2
60017398602,-1,2,0,1,2,0,-3,-2
60017398602,-1,-2,-1,-1,-1,-2,-3,3
60017411348,-3,-1,-3,-1,-2,-3,0,0
60017411348,-1,0,-1,-4,-2,-2,-1,1
60017418104,1,-4,-1,-4,0,-3,3,-1
60017418104,-1,-4,-1,4,1,-4,2,-1
60017433845,0,2,-3,1,-1,-2,-2,-2
60017433845,-1,1,-1,1,0,-1,-3,0
60017440680,-1,-3,0,-1,-1,-1,1,-1
60017440680,-1,3,-2,-2,-4,-2,0,-1
60017456989,-3,-8,1,-2,2,-2,-2,-1
60017456989,-2,-1,-1,-6,-1,2,-2,0
60017458557,0,-1,0,-4,-2,-3,-2,0
60017458557,2,-3,-2,-3,-2,2,3,2
60017471319,-1,1,0,4,0,3,4,3
60017471319,-1,-2,-1,-7,-3,0,-2,-3
60017478161,-2,-1,0,0,-3,3,-2,-3
60017478161,0,-4,0,1,1,-1,2,-1
60017494190,-2,2,-2,-4,0,0,-1,1
60017494190,3,0,-2,-2,1,-3,-2,1
60017502157,1,-3,2,2,0,-5,2,1
60017502157,-2,0,-4,-6,-1,-2,-5,-2
60017517011,-1,-1,1,-3,-1,-1,2,-3
60017517011,0,1,-2,0,0,-1,1,-4
60017518633,0,0,-1,1,-1,-1,-3,-1
60017518633,0,4,-2,0,-2,-2,-4,0
60017531401,-1,4,-3,-3,0,-2,0,0
60017531401,-3,0,1,-5,-1,-1,-7,-2
60017538100,0,0,-1,-3,0,0,-2,-2
60017538100,1,0,0,-3,-1,-1,-4,-2
60017553847,0,1,-1,-5,-2,-3,-6,0
60017553847,-2,1,-2,1,-1,0,-2,-2
60017560632,1,-1,-4,-3,0,-1,-3,0
60017560632,-4,-1,0,-4,0,-3,-11,-4
60017576996,0,-2,-3,-3,-2,-4,-4,-3
60017576996,0,-4,-1,-7,-1,1,-2,1
60017578575,-2,-1,1,-2,0,-5,-11,-3
60017578575,0,-5,-2,-7,-1,-4,-4,-2
60017591343,-3,-6,-3,-7,0,0,-5,-3
60017591343,-2,-3,-3,1,-4,-6,-6,-1
60017605663,-2,-2,-1,-3,-3,1,-4,0
60017605663,-2,0,1,0,0,-3,-1,-3
60017613852,-5,-1,-1,0,-3,-4,-6,-5
60017613852,-2,-6,-2,-2,-2,-2,-2,-1
60017620660,-3,3,-2,-5,-1,1,-1,0
60017620660,0,3,0,2,-1,-3,-3,-1
60017637677,1,-1,0,-3,-2,1,-7,3
60017637677,0,1,-2,2,1,-3,0,-2
60017639252,-5,0,-3,2,-1,0,0,-2
60017639252,-2,-1,-1,1,-2,3,-1,-1
60017651350,-3,-1,-3,1,-1,0,1,-1
60017651350,0,-2,-4,-1,-2,-4,-4,-1
60017658144,-2,0,1,0,0,-2,-2,0
60017658144,-1,0,-1,0,0,0,-1,1
60017673831,-1,0,1,2,0,-2,1,-1
60017673831,-1,2,1,2,-2,0,2,0
60017680616,0,1,-2,-3,-1,0,4,-1
60017680616,0,-2,-1,0,-1,1,1,-4
60017696953,-1,-1,1,2,0,-2,-4,-3
60017696953,2,-4,2,-3,1,3,2,1
60017698582,-1,0,-1,2,-1,-1,1,-1
60017698582,-2,2,-3,-2,-3,1,-1,0
60017711305,-1,1,1,2,1,3,8,-1
60017711305,-3,2,-2,-3,0,2,2,-3
60017718161,1,1,0,-4,-1,-4,1,3
60017718161,2,-5,0,0,1,0,-3,2
60017733858,0,-5,-3,1,-1,-1,2,-2
60017733858,-2,-1,-1,-4,1,-1,-3,1
60017740645,-1,-1,0,0,2,1,1,-2
60017740645,-1,3,-1,0,-3,-6,0,-4
60017757053,-1,0,-3,-3,0,-3,-5,2
60017757053,-1,3,-1,-5,-2,-2,-3,-1
60017758600,0,-1,0,-4,-1,0,-2,0
60017758600,0,-1,0,-1,1,-1,1,0
60017771366,4,-2,-2,-3,0,1,-2,1
60017771366,-1,1,-1,-2,-1,0,-2,-3
60017778160,-1,-3,-1,2,-1,-1,-3,0
60017778160,-3,1,-3,-4,-1,0,-1,-2
60017793859,-2,4,2,0,3,0,0,-2
60017793859,0,2,1,-6,-2,-2,2,5
60017800680,1,-4,-2,1,-1,-5,3,1
60017800680,2,-2,-1,1,2,-1,1,4
60017817008,-2,2,0,-4,-1,-2,-2,-1
60017817008,0,-3,2,0,3,-1,-8,-3
60017818578,-3,2,-1,-8,0,-2,-6,-5
60017818578,-2,-1,-5,-7,-4,-3,-4,-1
60017831328,3,-1,-1,-1,0,-2,-1,2
60017831328,0,-1,1,-6,2,-2,-1,-2
60017838195,-3,-5,0,-2,0,-1,-5,-5
60017838195,0,5,1,3,1,1,0,-6
60017853835,-1,0,-1,-3,-2,1,-4,2
60017853835,1,4,-3,0,-4,-1,4,1
60017860683,1,-1,0,-2,3,-1,0,2
60017860683,2,-5,-1,-1,1,1,-2,-4
60017877052,-3,1,0,-2,-2,-4,-2,-2
60017877052,2,-2,-2,-7,-2,1,-4,2
60017878651,-2,2,-1,1,-2,-1,-4,-2
60017878651,-3,-2,-2,0,0,-3,-3,-3
60017890661,0,-1,-4,-7,0,-4,-2,-4
60017890661,-4,-4,-2,-5,-3,-3,-9,-10
60017899623,3,2,-4,-8,-5,2,-3,0
60017899623,-1,-2,0,-1,2,-1,3,-2
60017913903,-5,-1,-2,-4,-5,-4,-13,-6
60017913903,-2,-2,-1,-1,-2,-1,-1,0
60017920645,0,2,0,-1,-3,-3,-2,-2
60017920645,-2,2,-1,-4,0,-1,-4,-1
60017944467,-2,0,-1,2,2,-1,-1,3
60017944467,-1,-3,-2,-7,-3,-2,0,6
60017946099,-3,-7,-1,-1,-4,-3,-7,-5
60017946099,-4,-5,-3,-5,-1,-3,0,2
60017950720,0,-2,0,-4,1,1,-4,-3
60017950720,-4,-5,-3,-1,-3,-4,-7,-6
60017959648,-3,1,-3,-1,0,-2,-4,-2
60017959648,-2,-1,-1,-7,-5,-1,-6,-1
60017973831,-3,1,-3,-3,-5,-3,-6,0
60017973831,0,-7,-2,-3,-4,-3,-4,-3
60017980665,-3,2,-1,-4,-5,-1,-6,-6
60017980665,-4,0,1,9,1,-6,-6,-4
60017997434,-1,0,-2,2,-3,-1,-3,-5
60017997434,-1,1,-2,4,1,-1,-3,-2
60017999049,-2,-4,-2,6,0,-4,2,3
60017999049,0,-3,-4,-3,-8,1,3,0
60018010623,-2,-2,0,-3,2,2,0,2
60018010623,-3,-1,-3,3,0,-2,-4,-5
60018019664,-5,1,-2,-3,1,-1,0,-4
60018019664,-4,3,-3,-2,-1,4,3,0
60018033846,1,1,0,3,-3,-4,1,1
60018033846,-1,2,-2,1,2,2,2,-1
60018040662,-1,0,-1,7,0,0,4,-1
60018040662,-2,0,0,4,-1,-2,4,4
60018056995,0,2,-2,-7,-2,1,10,3
60018056995,0,3,4,3,6,-1,3,0
60018058618,-7,-7,-4,15,6,-2,-6,-4
60018058618,-2,-2,-3,4,-12,1,1,0
60018070711,-1,-5,0,-1,0,1,6,0
60018070711,2,-1,-1,-3,-3,-3,10,5
60018079656,-1,-1,-1,-1,1,1,1,-4
60018079656,-1,-4,0,-4,1,2,-4,-6
60018093840,1,1,-1,-1,-1,-4,-1,0
60018093840,-1,2,-2,-6,5,0,10,-1
60018100614,5,3,1,3,1,2,-7,0
60018100614,1,1,-2,1,-3,1,1,-5
60018116332,0,-2,-1,-2,-2,0,10,1
60018116332,-1,0,0,4,-3,-4,-18,-5
60018123178,-1,0,-4,-7,5,1,6,1
60018123178,1,6,-2,0,3,-3,-9,1
60018130685,0,-4,1,-2,0,-1,-5,2
60018130685,-2,4,0,-3,0,-1,2,-1
60018139627,-1,-4,-3,-4,-8,-3,3,4
60018139627,0,1,2,-4,0,-2,-4,2
60018153838,-1,3,-4,2,1,-1,4,-1
60018153838,-2,-2,1,-3,1,-4,2,0
60018160683,3,-3,0,-3,2,0,3,0
60018160683,5,-3,0,-4,-1,-1,11,2
60018176330,-2,-2,0,-1,5,-2,-10,-9
60018176330,-6,4,0,3,6,1,-13,-4
60018183164,-2,4,-1,1,-5,-4,-6,-3
60018183164,0,-2,-3,0,-23,-5,-5,0
60018190676,2,1,-3,-16,-1,2,0,0
60018190676,10,-4,3,-5,-2,2,3,3
60018199607,-1,-4,1,-1,6,-2,-4,-1
60018199607,-2,-4,-2,-9,9,-1,-5,-3
60018213844,-1,-1,0,0,1,-2,-9,-4
60018213844,1,-5,-5,-10,-4,1,-1,3
60018220689,11,-3,4,-18,-8,3,16,10
60018220689,0,-3,5,23,22,-2,-10,-8
60018236378,-24,-1,-11,32,-10,-6,-20,-12
60018236378,-1,1,-4,-14,-11,-1,-1,3
60018243195,5,-1,-2,-2,-6,-2,0,3
60018243195,5,-1,-2,-19,-9,-2,14,4
60018250680,7,-5,7,-14,16,5,9,4
60018250680,-3,-2,-2,4,-7,-7,-7,-9
60018265684,-9,-7,-3,-1,-10,0,-8,-7
60018265684,-7,0,0,-3,14,1,1,1
60018273816,2,3,0,7,-11,0,-3,6
60018273816,11,1,4,-7,-2,-2,5,5
60018280677,5,4,1,-9,4,-4,0,-1
60018280677,-5,-6,-2,-2,2,-2,-14,-6
60018296325,-3,-1,-2,-5,1,-3,-4,-5
60018296325,-2,-4,-2,-3,-1,0,-4,0
60018303159,-5,5,-2,3,2,-6,-5,-3
60018303159,0,5,1,-1,-4,-5,-14,-1
60018319507,4,-2,-2,-8,-2,2,8,0
60018319507,-1,-3,1,3,2,-2,-2,0
60018321067,-2,-4,-2,0,2,3,-7,-2
60018321067,0,-6,-2,-5,-3,-5,1,-1
60018333859,-1,-5,2,-14,-4,-2,6,0
60018333859,-2,-6,0,-1,6,-4,-18,-5
60018340629,-7,-2,-2,-6,8,-2,-8,-3
60018340629,-11,1,-5,9,-11,-6,-16,-6
60018356345,-6,6,-3,3,-14,-7,-19,-4
60018356345,-11,3,-5,-3,-1,0,10,-3
60018363139,5,1,-2,-1,-1,1,-7,4
60018363139,11,0,4,-8,12,4,14,5
60018379546,-1,-1,2,4,15,-3,2,-4
60018379546,-8,-3,-7,8,-25,-5,-13,-10
60018381125,-4,-4,1,6,4,-1,-2,-3
60018381125,-6,-5,-3,5,-1,0,-3,-5
60018393875,4,-2,1,-8,-3,2,5,6
60018393875,7,-1,1,-9,2,4,15,8
60018400657,0,0,1,6,5,-3,0,-2
60018400657,-12,2,-7,24,-2,-2,-2,-5
60018416332,2,-5,0,-14,3,-1,-5,-2
60018416332,-10,-7,-3,22,9,-1,-14,-8
60018423296,0,-2,-5,-11,-28,-1,8,3
60018423296,-4,2,0,11,4,1,5,-3
60018439371,4,-2,-2,-4,-2,-2,9,-1
60018439371,6,-1,2,-10,7,2,5,4
60018445720,-1,-4,-1,-5,4,0,0,-2
60018445720,-1,1,-3,-7,-2,2,-4,1
60018453916,-5,0,-2,6,3,0,-8,-2
60018453916,1,-1,0,-6,-9,0,-5,-3
60018460786,-7,-6,-5,8,-5,-2,-2,-4
60018460786,11,3,0,-20,-7,0,8,6
60018476372,2,0,2,0,14,0,2,1
60018476372,0,7,-1,12,-22,-4,-3,-3
60018483231,-5,3,1,-2,10,-1,0,-1
60018483231,2,2,-3,-3,-8,-3,2,-1
60018499632,4,-2,0,-9,-5,2,7,5
60018499632,-6,5,-4,5,2,-3,-2,0
60018501222,-2,-5,2,-1,4,0,-3,0
60018501222,10,0,3,-15,-5,0,12,8
60018514784,0,1,1,1,13,-3,-5,-3
60018514784,-3,-1,-2,-8,-11,-3,-5,-1
60018520700,-7,0,0,-1,-3,-5,-10,0
60018520700,-6,-2,-5,-8,-7,-1,1,0
60018535756,2,-7,-5,-12,-18,1,-4,-1
60018535756,-3,-4,2,2,15,3,-2,-7
60018543171,4,0,-1,-4,-11,-4,-7,2
60018543171,-2,1,3,-3,1,-2,0,-4
60018558927,-7,-1,-3,-8,-2,-1,-7,-8
60018558927,6,-1,3,-5,18,3,3,3
60018559712,5,0,-2,7,-11,-1,4,2
60018559712,-7,-5,0,15,8,-1,-15,-6
60018582818,-1,0,-1,9,-2,0,-2,-3
60018582818,5,1,0,-12,11,0,-4,4
60018583629,-2,1,-1,1,6,2,14,-3
60018583629,-1,-3,-3,4,-3,-4,-20,-5
60018595669,-1,-2,0,-1,-5,-1,-1,2
60018595669,-2,-4,-3,-13,-5,0,2,-3
60018603200,5,2,-2,-5,-4,-3,-4,-1
60018603200,-6,0,-2,-6,-1,0,1,-3
60018618848,0,5,-2,-4,-2,-3,1,3
60018618848,0,0,2,-2,5,-1,-5,-3
60018619641,-2,-3,1,-2,9,-2,-9,-4
60018619641,-2,-5,-3,-10,-10,-3,-1,0
60018634644,6,3,0,-14,-5,0,7,4
60018634644,-7,-3,0,11,19,-4,-13,-3
60018640626,-26,-4,-8,16,8,-4,-28,-15
60018640626,0,-6,-4,-12,-19,0,-2,2
60018655705,4,-1,0,-9,-9,-1,12,5
60018655705,12,0,1,-13,-2,-2,13,6
60018663156,12,2,5,-23,-2,-1,-9,-1
60018663156,-9,-2,-3,27,23,-6,-16,-10
60018678840,-3,-2,-4,-7,-13,-6,-5,-3
60018678840,2,-3,-1,-12,-7,-3,-5,-4
60018679627,-10,-1,-8,6,-23,-7,-13,-7
60018679627,12,0,2,-12,-1,2,9,4
60018694606,-3,-3,3,13,20,-6,-17,-2
60018694606,-5,1,0,-2,1,-2,3,0
60018700641,4,1,-1,-9,-3,-1,-2,4
60018700641,-4,-3,1,3,-5,-4,-6,-4
60018723941,-5,1,-4,5,2,4,4,-5
60018723941,-1,-7,-4,-5,-6,-3,-12,-3
60018724686,0,-2,1,-6,3,-2,0,0
60018724686,-1,-1,-4,3,-19,4,2,-3
60018738919,-2,-2,1,-4,-1,-5,-3,-2
60018738919,2,0,0,-3,-11,-1,3,2
60018739719,3,3,1,5,6,0,13,2
60018739719,2,-3,0,-13,2,1,8,2
60018754719,-5,-3,0,8,7,-5,-17,-4
60018754719,-8,2,-7,8,-22,-3,-10,-4
60018760730,-7,0,-6,3,1,3,2,-3
60018760730,3,1,1,-10,9,-1,6,2
60018775708,3,4,1,-2,-5,1,0,-2
60018775708,-7,3,0,-7,11,-1,-2,-2
60018783275,-7,4,-2,16,17,-1,-3,-2
60018783275,0,4,-1,-1,-4,-3,-5,-1
60018800396,1,-9,-2,-11,-7,1,6,0
60018800396,1,-4,2,4,0,0,-3,0
60018801190,5,-5,-2,-13,-13,3,10,4
60018801190,2,0,2,4,16,-2,0,-3
60018814747,-2,-4,-3,3,1,3,-9,0
60018814747,-4,0,-2,2,6,3,5,-3
60018820717,0,-4,0,6,-9,-7,-18,-1
60018820717,0,-4,1,-16,-14,4,11,6
60018835821,3,-3,-3,9,5,-1,-14,-4
60018835821,-5,0,-5,-4,-1,-3,1,-2
60018843284,5,-6,5,-21,17,-2,-1,0
60018843284,-6,0,-3,4,0,-3,-7,-6
60018860425,-7,-4,1,1,-6,-2,-5,-3
60018860425,1,2,2,-10,5,2,2,2
60018861180,2,0,-7,-15,-26,-5,-4,-1
60018861180,1,-1,3,1,7,-3,-5,0
60018874687,3,0,1,1,-1,-5,-3,3
60018874687,-2,-1,-1,0,-1,2,4,-1
60018880763,-2,0,-2,7,0,-7,-3,-8
60018880763,1,-1,1,-7,-15,3,-6,-1
60018895746,-3,4,-6,-10,1,-3,-4,-5
60018895746,6,0,1,-2,-18,-3,-3,3
60018911396,-9,-3,0,6,20,0,-8,-9
60018911396,2,0,-4,-3,-11,-8,-2,4
60018918820,5,-3,2,-16,1,2,5,1
60018918820,2,-7,3,-15,4,-2,-1,2
60018919602,-3,-2,-1,2,-7,-2,-2,-1
60018919602,-9,-1,-3,18,2,-8,-15,-8
60018934669,-1,-3,-2,-10,-6,2,1,3
60018934669,4,6,-2,-1,-10,-6,5,1
60018940640,4,-4,3,-8,3,3,-14,-2
60018940640,-4,-2,3,-7,17,-1,-3,-2
60018955651,-1,2,-3,-8,0,3,11,3
60018955651,-2,-4,0,6,-13,-8,-20,-7
60018963139,-14,5,-8,13,-1,2,3,-8
60018963139,5,-2,-4,-10,-11,3,3,4
60018978852,0,0,3,1,18,0,-7,-1
60018978852,-3,3,3,9,17,-1,-5,-3
60018979602,-3,2,-2,9,2,-2,-3,-4
60018979602,14,2,4,-31,-3,2,14,9
60018994674,-10,3,-1,10,8,0,2,-5
60018994674,-13,-1,-13,24,-17,-4,-18,-9
60019000632,3,1,1,-14,0,3,13,4
60019000632,-1,-1,0,1,4,-1,-1,-3
60019015660,11,-2,2,-21,4,-5,8,4
60019015660,-1,-5,7,15,17,1,1,3
60019031373,-8,0,-8,9,-33,-2,-11,-8
60019031373,-7,0,-4,-6,3,-1,2,2
60019038654,0,-6,-3,4,-6,-3,1,2
60019038654,6,-7,3,-15,10,9,9,1
60019045731,-1,3,1,6,8,-3,7,4
60019045731,-7,-4,1,12,-2,-2,-14,-4
60019054804,-1,-3,-2,-4,-7,-1,-4,0
60019054804,10,-4,5,-13,19,3,9,6
60019060733,-10,1,-8,18,-25,-5,-4,-6
60019060733,7,-1,3,-23,12,1,5,4
60019075750,-19,-1,-9,38,-4,-7,-24,-15
60019075750,-4,-4,-3,-27,-13,0,1,0
60019083250,16,-4,2,-10,8,6,8,9
60019083250,-1,0,-3,9,0,-5,-1,-5
60019106400,-4,3,-2,-14,-4,-2,-1,-1
60019106400,-6,3,-3,8,8,-1,-9,-7
60019107157,4,5,0,-3,-15,3,5,3
60019107157,-5,-4,1,1,16,-1,2,-1
60019114721,-9,3,-2,8,-5,2,-3,-7
60019114721,-5,3,-6,0,-11,-5,-2,-4
60019120726,3,-1,1,-14,4,2,-3,3
60019120726,5,1,1,-2,-12,2,4,2
60019135737,2,2,0,-8,-1,5,17,2
60019135737,-2,5,-5,10,-5,-9,-31,-8
60019143247,7,-2,7,-26,15,3,23,6
60019143247,-9,1,-1,29,17,-5,-11,-9
60019166434,-3,0,-10,-16,-41,-6,-10,1
60019166434,-3,-6,2,3,19,-1,2,0
60019167182,4,-1,-4,6,-25,-1,-2,-2
60019167182,2,0,2,-11,2,2,7,3
60019174687,5,4,6,-2,14,1,-6,1
60019174687,3,0,-1,-6,-10,3,13,3
60019180736,-12,1,-2,16,16,-3,-13,-9
60019180736,-3,-3,-9,-8,-19,4,11,-1
60019195725,2,2,4,3,0,-2,-3,1
60019195725,-11,-5,-3,-5,12,2,-7,-4
60019203237,6,0,4,-4,-2,4,-2,2
60019203237,-1,1,-5,-8,-2,-1,-11,-3
60019218217,9,1,3,-9,-1,-1,8,2
60019218217,-1,1,-1,7,5,-3,-4,-3
60019225794,-1,1,-1,-9,10,-1,2,3
60019225794,-3,3,0,6,-3,-3,-2,-2
60019234759,-7,0,-5,13,-8,-2,-9,-7
60019234759,3,5,-2,-7,-8,1,10,5
60019240752,2,4,1,-5,-1,0,8,3
60019240752,4,2,1,0,-11,-1,-23,-2
60019255745,0,1,-2,-6,4,-5,4,-2
60019255745,0,-1,-2,-8,-12,5,2,2
60019263279,4,-1,2,-12,0,-2,-1,6
60019263279,-5,2,-1,-6,15,1,6,-6
60019278251,-2,-4,1,10,3,-6,-7,-2
60019278251,5,-1,-3,-28,-18,5,8,2
60019285689,1,-2,-1,-3,6,-2,-7,-1
60019285689,-11,0,-8,18,-14,-5,-11,-8
60019310176,-9,-3,-5,5,10,-4,-13,-7
60019310176,-2,-2,-2,-6,-10,-4,-1,-2
60019310934,13,-3,3,-28,0,3,11,10
60019310934,1,-6,12,5,25,-2,-8,2
60019315687,-9,-1,-9,1,-31,0,8,1
60019315687,0,-5,-3,-8,-7,-11,-15,-1
60019323165,-11,-5,-1,18,3,-2,-12,-8
60019323165,15,2,0,-24,2,4,19,8
60019338118,14,3,9,1,14,3,-1,7
60019338118,-11,1,-2,3,9,-8,-7,-8
60019345623,-14,-2,-12,22,-19,-6,-20,-14
60019345623,-7,-2,-4,-8,-11,1,-1,-1
60019361308,1,-1,3,-3,3,-3,2,-1
60019361308,3,3,-1,2,-5,-3,-6,2
60019362118,3,-1,0,-9,8,2,11,0
60019362118,-4,0,-1,14,-7,-7,-14,-6
60019383819,2,-5,-4,-17,-1,8,11,-1
60019383819,-6,-4,-1,16,25,2,-3,-3
60019384608,-6,3,-3,-1,-18,-3,-1,-4
60019384608,-9,-1,0,1,3,-1,-6,-5
60019398234,1,-2,0,-8,-1,-1,6,3
60019398234,3,0,0,7,-3,4,4,1
60019405678,1,0,1,-2,4,-2,2,0
60019405678,-1,2,-2,3,-4,0,-4,-3
60019421407,3,-5,1,-3,1,-2,-8,2
60019421407,0,0,-1,-2,-2,7,16,-1
60019422184,4,0,1,2,8,-1,-6,3
60019422184,-15,-2,-6,9,11,-4,-10,-8
60019435709,-6,-1,-2,-3,0,-2,-9,-4
60019435709,3,-5,-4,-2,-20,-2,1,1
60019443266,8,-3,1,-26,10,8,8,5
60019443266,6,-2,4,10,7,-4,3,1
60019458201,-18,-5,-16,10,-39,-2,-14,-10
60019458201,1,3,1,-11,0,-1,3,2
60019465814,-2,-5,0,-10,-1,0,12,1
60019465814,8,-7,0,-10,-5,0,-3,4
60019481325,4,3,3,-13,1,2,-2,3
60019481325,0,1,2,9,7,-1,-1,-2
60019482099,-12,-5,-2,17,9,-5,-12,-7
60019482099,-10,-6,-7,5,-14,-8,-7,-9
60019495808,-5,-2,0,-7,0,-3,-5,-1
60019495808,6,-6,-2,-20,-10,1,1,3
60019503228,7,3,1,-10,0,1,2,5
60019503228,-7,2,-2,16,7,0,-7,-6
60019518225,4,0,0,-4,17,1,11,0
60019518225,-3,-1,0,1,-6,-3,0,-1
60019525747,-1,1,-2,5,-5,-2,-5,-2
60019525747,1,6,-6,-8,-14,-2,9,5
60019541398,-3,2,-6,4,1,3,-6,-5
60019541398,2,5,5,7,8,-1,7,2
60019542187,-1,0,-4,8,-3,2,3,-1
60019542187,6,4,6,-15,-6,1,2,5
60019555773,-3,4,6,16,26,-3,-5,-3
60019555773,-7,1,-8,6,4,0,-14,-5
60019563319,-4,0,-3,4,-18,-7,-1,-1
60019563319,-3,0,-4,-7,-3,6,6,-2
60019579682,11,-4,3,-11,5,1,17,8
60019579682,-3,-3,3,9,-4,-1,-2,-4
60019585736,-10,-3,-3,2,11,1,-8,-5
60019585736,3,-3,2,-1,-6,5,6,7
60019601309,7,-2,2,-5,6,3,4,3
60019601309,-1,2,0,-2,6,-3,-1,-1
60019602124,-9,-4,-3,9,28,-2,-16,-11
60019602124,5,1,1,-4,-17,-3,3,0
60019617189,-2,-2,-1,-15,-11,3,0,-2
60019617189,0,-2,-3,1,0,-1,-2,2
60019623166,2,-1,2,-6,-5,-1,8,5
60019623166,2,2,2,-3,21,-3,-5,-2
60019638278,6,0,0,-3,-7,-1,-5,-2
60019638278,-13,-5,-7,10,1,2,-4,-9
60019653930,-1,-1,1,-6,-8,-6,-2,-2
60019653930,3,-4,-4,-7,2,0,6,3
60019661409,-1,1,-3,-8,-4,2,5,2
60019661409,-1,-2,3,-6,5,-2,-6,-2
60019662149,0,-1,-2,-11,-7,1,7,-1
60019662149,6,-3,7,-2,-5,-6,-8,1
60019675757,-10,4,-5,14,5,-6,-9,-7
60019675757,0,2,-2,-12,-13,2,-3,2
60019691506,0,-6,-1,-6,-2,5,-3,-1
60019691506,1,1,1,-11,-1,1,3,-1
60019698265,1,-6,1,-2,6,-2,-4,1
60019698265,9,-7,-2,-20,-14,-6,8,7
60019705769,1,0,5,10,10,-4,-9,-4
60019705769,-16,2,-12,18,-18,-2,-17,-9
60019721469,-7,-5,-1,-6,-6,2,-2,-2
60019721469,-2,-4,-2,-5,-3,-7,-11,0
60019722274,7,-1,0,-7,-10,0,9,6
60019722274,3,1,3,-3,10,-2,2,2
60019735804,-1,0,-3,2,-1,0,3,-4
60019735804,8,-2,-1,-4,-2,-3,-8,3
60019743272,-8,-4,-5,14,-3,-1,-7,-8
60019743272,-3,-1,0,-12,1,0,0,0
60019758176,2,-2,1,0,0,-2,-2,3
60019758176,-6,1,1,14,8,-2,0,-3
60019765786,3,-1,1,-2,0,1,-5,-2
60019765786,-5,1,-4,-3,-2,3,8,-1
60019781402,-1,-1,-2,-4,-3,-3,-1,0
60019781402,-1,5,0,6,1,6,3,-3
60019782195,-2,-3,-1,-2,1,-5,-15,-1
60019782195,0,-1,-1,-2,-3,0,8,2
60019803878,3,-6,3,1,1,-6,-4,2
60019803878,-4,0,-3,-1,-4,-1,9,-5
60019804683,0,1,-4,8,2,-3,-2,-2
60019804683,-7,-7,1,-6,6,-2,-13,-8
60019818187,-6,1,4,-4,-6,-10,-5,-3
60019818187,8,-2,-6,-13,-7,1,-7,7
60019825721,6,1,0,-15,-8,-6,-6,6
60019825721,-3,-2,-1,-6,0,-5,-6,-2
60019841385,-7,-2,-1,6,6,-4,-9,-7
60019841385,-2,0,4,-4,-2,-2,-2,-5
60019842208,2,-1,-1,-8,-2,-5,-6,0
60019842208,2,0,0,-3,13,-1,-1,2
60019855796,-12,0,-3,2,-16,-6,-11,-10
60019855796,-19,-6,-6,-6,-2,-5,-22,-11
60019863283,-2,-3,-4,-15,-4,0,11,1
60019863283,6,3,1,2,-5,-2,4,1
60019878306,3,2,-4,7,1,2,-5,3
60019878306,1,3,-1,4,1,1,2,-1
60019885787,-7,-1,-2,8,-7,6,-5,-7
60019885787,-1,-4,-1,6,-1,2,6,0
60019901408,10,2,-1,0,2,2,9,1
60019901408,2,-3,4,9,1,-2,-4,0
60019902191,-8,2,0,16,7,2,7,-2
60019902191,-3,0,-4,16,-6,3,0,-1
60019915771,-3,1,0,0,-1,1,-7,-2
60019915771,3,-4,-3,-8,-2,-2,9,3
60019923224,1,0,1,3,12,1,3,2
60019923224,-2,-1,-3,1,-4,-3,-9,-5
60019938248,-5,-6,-3,-3,-2,-1,-6,-3
60019938248,1,6,-4,-15,-9,1,4,-1
60019945706,8,2,4,-7,2,3,10,3
60019945706,4,-5,0,3,1,0,-1,4
60019962882,6,-2,3,1,6,3,10,0
60019962882,8,-2,1,8,3,4,2,2
60019963671,-4,-2,-6,-1,-4,7,4,-5
60019963671,4,2,0,-8,0,-2,-1,2
60019975771,-3,-2,0,9,-3,1,8,-1
60019975771,-18,0,-4,14,21,-5,-14,-11
60019983235,6,0,-1,-11,-13,-2,8,6
60019983235,12,0,3,-20,3,4,14,6
60019999748,-18,0,-6,22,21,-3,-29,-14
60019999748,-9,-1,-9,-23,-31,0,-3,-4
60020005774,2,2,4,-2,2,-6,3,-1
60020005774,1,2,-2,7,12,-1,5,0
60020020792,12,-3,6,4,0,-2,12,8
60020020792,4,-1,5,4,10,-3,-6,-1
60020028943,-10,0,-6,7,-1,-4,-14,-8
60020028943,0,0,-2,-13,-6,-1,6,3
60020035749,1,3,-3,-16,-14,-1,4,1
60020035749,2,-1,1,3,3,-2,3,-1
60020043317,3,-1,3,-7,-7,-5,3,5
60020043317,-10,-2,-4,9,9,3,-9,-7
60020058306,2,0,-2,-2,1,2,9,0
60020058306,4,3,4,-6,7,-4,-5,4
60020065752,-1,2,-4,0,-9,-5,-4,-2
60020065752,-10,1,-7,6,-13,0,-9,-7
60020082230,-1,3,-1,-18,4,-4,0,-1
60020082230,1,-2,-1,1,-2,-4,6,-1
60020088879,9,3,2,-6,4,6,10,5
60020088879,-2,-2,2,4,5,-7,-9,-1
60020095738,-9,1,-9,-7,-13,5,-7,-4
60020095738,1,2,3,1,0,-2,-2,3
60020103264,-7,-2,-1,-1,0,-4,-8,-7
60020103264,0,-2,-3,-6,-12,-3,1,1
60020118207,8,0,4,-11,6,5,3,5
60020118207,-5,-1,-3,8,4,-1,-2,-3
60020125707,0,0,-3,0,-8,-3,3,2
60020125707,-1,3,-1,2,2,-3,1,2
60020140651,0,2,1,4,1,-3,-5,-1
60020140651,-2,-2,-2,-1,-4,0,4,-2
60020148864,1,2,2,-1,3,-2,-2,-1
60020148864,-2,-1,1,-1,2,0,-1,-1
60020155668,-3,-1,-1,-3,-4,-1,-5,2
60020155668,3,3,-1,-2,-6,-1,-7,0
60020163144,-3,1,-1,-1,3,-2,-3,-2
60020163144,-1,-2,-1,-1,-2,-2,0,-2
60020178275,3,-2,-2,-8,-3,-5,-8,-1
60020178275,0,0,-3,-2,0,-1,1,-1
60020185758,-3,-6,0,2,2,-2,-5,-3
60020185758,-3,-3,-2,0,0,-4,-10,-2
60020200794,0,0,-3,-2,-7,-3,4,-3
60020200794,-2,2,1,-3,1,-3,-8,-3
60020216476,-5,-2,-1,-1,5,-6,-12,0
60020216476,1,0,-2,-7,-15,-5,-2,-1
60020223953,-2,-3,1,-10,6,-3,-1,3
60020223953,-14,0,-5,4,6,-1,-8,-10
60020224711,2,-5,-1,-13,-18,-3,-6,0
60020224711,-3,-4,-3,-10,0,4,-5,-6
60020238202,-10,2,1,-3,5,-7,4,-3
60020238202,-2,-2,-3,4,-4,-6,-18,-3
60020245710,-3,-2,-2,-2,4,-4,-6,-3
60020245710,-5,0,-1,4,6,0,-3,-2
60020260808,6,-2,-2,-2,-7,-1,3,1
60020260808,2,-6,1,-1,3,1,8,0
60020268705,-7,2,-5,8,-4,0,-3,-5
60020268705,-4,0,-2,3,-5,2,-7,0
60020283948,2,0,2,5,1,2,0,-2
60020283948,-1,0,-2,-5,-1,11,17,1
60020284703,8,3,1,-5,-1,1,6,4
60020284703,-3,-4,3,5,6,-1,6,1
60020298277,-10,-2,-10,19,-21,1,-19,-9
60020298277,-8,-3,-2,-1,2,3,5,2
60020305786,-4,-2,-3,4,-6,1,1,-1
60020305786,9,-2,1,-14,0,3,6,7
60020320789,9,-2,1,3,4,3,10,5
60020320789,8,2,-1,3,-6,-1,-2,1
60020328973,-8,-3,-2,3,14,0,-5,-4
60020328973,-2,-5,-1,9,-2,3,5,0
60020343861,4,-3,2,2,1,-5,3,-1
60020343861,-2,2,-3,0,-16,6,9,-1
60020344680,3,-3,3,0,5,-1,3,1
60020344680,-2,-2,-2,6,-1,3,-3,-2
60020358212,5,1,0,-13,1,3,5,4
60020358212,5,-1,3,-10,-2,4,17,5
60020365720,-6,-1,-5,22,5,-4,-17,-5
60020365720,-6,6,-5,-4,-19,-3,1,-2
60020389576,1,1,1,-2,3,-2,-1,-1
60020389576,1,3,-2,-6,-5,-4,-4,1
60020390405,8,0,3,-15,-6,6,12,7
60020390405,3,0,0,4,10,-5,3,-3
60020404425,-5,-2,-5,1,5,-1,-1,-2
60020404425,8,-1,1,-16,-1,0,-6,4
60020405078,-10,-4,5,5,9,-8,-13,-8
60020405078,-7,2,-7,-2,-19,1,-13,-7
60020418235,4,1,4,1,2,6,4,3
60020418235,-1,-6,-2,28,9,-6,-2,-4
60020425734,3,0,0,41,-5,2,5,3
60020425734,12,2,11,69,21,1,16,3
60020440758,4,-8,-2,9,-8,0,4,4
60020440758,-3,-2,-4,-25,-10,-6,-7,-3
60020448982,-10,2,-8,-47,-8,-2,-4,-5
60020448982,-8,0,-6,-47,-2,-6,-7,-8
60020463887,-11,7,-5,-24,-2,-2,-10,-9
60020463887,-4,0,0,-41,-5,1,-8,-5
60020464671,-2,2,-4,-34,-2,1,5,0
60020464671,6,1,0,-29,-1,7,-4,3
60020478190,-3,1,2,0,9,-5,-7,-3
60020478190,-4,0,0,11,11,-4,-4,-3
60020485787,0,3,0,11,-1,-2,1,-1
60020485787,2,0,1,-2,3,0,-5,1
60020500667,5,-2,0,-1,-4,6,14,2
60020500667,-6,-3,2,26,16,-7,-18,-6
60020509031,-2,-5,-6,5,-6,3,8,0
60020509031,-3,-2,0,-1,-1,-5,0,-1
60020523898,-4,-3,0,-4,-4,-1,-6,-1
60020523898,4,2,2,2,3,-3,7,4
60020524717,9,-3,-1,-3,-9,2,10,4
60020524717,-6,-1,1,4,16,-6,-7,-4
60020538278,-4,-1,-3,2,-15,-6,-7,-5
60020538278,-2,-1,-1,7,-9,-2,-1,1
60020545752,1,-2,-1,-3,4,0,-3,-1
60020545752,13,-3,2,-15,-8,2,11,6
60020560786,-3,-1,-1,6,4,-5,-4,-1
60020560786,1,-1,-1,-9,-1,2,5,2
60020576431,-4,-1,1,4,4,-6,-5,-3
60020576431,-10,-4,-9,4,-30,-4,-9,-9
60020583893,2,1,-3,-6,8,-1,-4,1
60020583893,1,-7,1,-1,-9,-5,-4,1
60020584694,3,0,-1,-8,-3,-4,-5,3
60020584694,2,-3,5,-4,8,-3,1,-1
60020598216,-2,-2,-3,-4,-2,-4,1,-4
60020598216,-8,-1,-6,-2,6,-1,-18,-5
60020605689,-6,-5,0,13,-4,-3,-10,-5
60020605689,-3,-2,0,-13,-2,-5,-4,2
60020620647,-7,0,-3,7,-3,-2,-8,-5
60020620647,-4,1,-3,-3,-4,0,2,-2
60020628882,6,-5,2,-4,1,1,-1,1
60020628882,0,2,1,4,-7,1,5,1
60020643922,-2,-4,-2,-5,-5,-1,-1,4
60020643922,3,2,2,2,-2,-5,5,2
60020644650,-8,0,-4,7,-4,-3,-12,-7
60020644650,-7,-3,-6,0,-3,0,2,-5
60020658179,5,-1,-1,-10,-4,3,10,3
60020658179,1,0,4,16,5,3,-2,-2
60020665654,-2,0,0,-4,-3,-2,2,-4
60020665654,-6,3,-4,9,2,3,-6,-2
60020680678,-3,-2,0,-4,2,2,2,0
60020680678,0,-4,-1,4,6,0,10,5
60020688917,4,-1,-2,-12,3,6,11,2
60020688917,7,-3,2,-1,3,-5,7,1
60020703831,-6,-5,-6,3,-7,-2,-9,-4
60020703831,2,-2,1,3,5,4,-4,-2
60020704612,-1,-1,-2,-2,-6,1,4,1
60020704612,6,-1,-2,-9,9,-1,4,5
60020718173,-5,-1,-3,19,-19,-5,-1,0
60020718173,-2,-3,-4,-12,-18,0,9,-3
60020725743,3,1,0,9,1,-4,-8,0
60020725743,-3,-2,-1,-6,8,5,2,3
60020740755,4,3,5,-6,13,3,4,0
60020740755,4,1,0,-2,1,-2,-3,2
60020748969,-6,4,1,1,6,-2,-2,-7
60020748969,-3,0,-4,-3,-4,-1,-5,-4
60020763946,-2,0,2,-7,7,-3,-16,-1
60020763946,3,3,0,0,-2,-1,0,2
60020764721,11,-5,0,-16,-3,-4,5,6
60020764721,-11,4,-2,5,21,9,12,-7
60020778298,-11,1,0,15,-12,-8,-40,-10
60020778298,-6,0,-1,-8,7,-1,1,-3
60020785775,-1,-3,2,1,7,-3,-4,1
60020785775,-4,2,-5,4,-7,3,1,-5
60020800705,11,-2,0,-10,-11,-4,8,5
60020800705,-7,-1,-4,6,18,-1,-5,-5
60020808970,-1,6,0,-8,-2,1,2,0
60020808970,-1,1,-2,-3,-8,-8,-3,-1
60020823945,-1,-5,-3,-8,7,0,5,0
60020823945,-1,-4,-1,-7,-11,-7,-4,-2
60020824689,-7,-4,-5,0,0,1,-2,-5
60020824689,4,-1,2,-2,-9,-6,-2,3
60020838274,-2,0,-4,-1,13,6,18,1
60020838274,2,1,-1,8,-10,-4,-5,3
60020845773,-5,1,1,0,-1,1,-7,-2
60020845773,-2,-1,1,-5,-3,-4,-3,-2
60020860798,1,-1,1,0,5,-4,3,3
60020860798,-5,-1,-6,0,-2,1,-6,-7
60020869064,6,-1,5,2,12,-3,-3,4
60020869064,-7,1,-4,7,2,-3,-14,-8
60020883983,1,5,1,-4,-6,-1,8,1
60020883983,0,0,-1,-10,-7,0,8,0
60020884744,-2,1,1,-2,-4,-3,-3,0
60020884744,0,-1,1,-4,3,-1,-2,0
60020898299,3,-1,-1,-1,5,4,8,-1
60020898299,-1,-6,1,-2,-5,-3,-7,0
60020905778,-4,1,-3,-7,-2,2,2,-2
60020905778,3,-5,3,-5,-4,-2,0,3
60020920749,2,1,-1,-18,4,8,6,0
60020920749,-12,0,-6,27,-6,-8,-14,-7
60020928926,-9,-1,-11,1,-39,-3,-10,-8
60020928926,3,0,-3,-8,-2,5,8,5
60020943925,4,-1,2,0,3,-2,-3,0
60020943925,8,2,4,-12,1,-2,12,1
60020944709,6,-7,1,-2,12,2,4,4
60020944709,-5,-4,-3,5,0,-5,-7,-5
60020958150,-8,-4,-2,-3,-5,-5,-22,-9
60020958150,-4,-3,0,-2,8,-3,-5,0
60020965691,-2,0,-6,-6,-5,-3,-1,-1
60020965691,6,-1,0,-15,-1,0,-1,-1
60020980726,2,-3,2,-2,6,-5,-1,2
60020980726,-10,-1,-2,-2,1,-2,-5,-3
60020988909,3,0,2,-2,-5,-1,1,-2
60020988909,0,1,1,10,6,0,1,-1
60021003208,-8,-2,-4,-2,-1,-6,-6,-3
60021003208,-3,2,-5,0,-24,-1,-10,-4
60021011422,3,-1,3,-4,6,0,10,3
60021011422,3,-5,1,5,4,-5,-3,-2
60021026494,2,0,0,13,6,3,4,-2
60021026494,-2,-1,-6,-6,-1,7,2,-2
60021027111,0,0,-1,-5,-3,0,2,0
60021027111,-9,1,-2,6,-11,-2,-13,-7
60021050056,-1,2,-1,-3,-6,-8,-8,-4
60021050056,0,-5,1,-2,9,7,5,3
60021050800,-2,-1,-1,6,5,-2,0,-3
60021050800,5,-1,0,-1,-11,-1,9,-1
60021063288,-3,-2,0,3,-2,2,-2,-2
60021063288,-4,-3,1,-5,3,1,-6,0
60021071511,1,1,-1,-8,-1,0,8,3
60021071511,2,-1,2,0,8,8,8,3
60021078281,-6,1,0,19,11,-1,-2,-4
60021078281,4,1,-2,-8,-10,3,5,3
60021085782,-12,-3,-6,15,3,2,-13,-9
60021085782,-2,-1,-1,-13,-10,-2,2,0
60021109581,12,0,-2,-15,-20,7,11,7
60021109581,4,2,6,0,17,-3,6,2
60021110366,-1,-2,-4,10,-12,-1,-6,-2
60021110366,-1,0,-1,6,10,-5,-4,-2
60021123338,-3,-1,1,-9,-3,-4,2,0
60021123338,6,-4,4,-5,-4,1,5,3
60021131500,4,-1,2,-9,-2,-4,4,4
60021131500,-1,1,-1,-1,13,5,9,2
60021138249,-3,1,-4,4,-11,-6,-21,-2
60021138249,-7,-2,-7,-17,-27,-6,-2,-6
60021145779,1,0,1,3,4,-2,-7,0
60021145779,4,-1,-3,-12,-15,1,4,6
60021160773,-10,-5,1,11,26,-4,-9,-6
60021160773,1,0,1,3,-17,-5,-13,-3
60021168983,-7,3,-2,1,19,-2,-6,-8
60021168983,1,-1,0,-2,2,-2,-7,-1
60021183172,1,-4,-1,-8,-9,0,-6,1
60021183172,1,-3,-3,7,-6,-1,3,0
60021191449,-2,-5,2,-8,1,2,2,-3
60021191449,-8,0,-4,13,12,-5,-14,-7
60021214556,-10,5,-13,-12,-35,-8,-4,-8
60021214556,1,2,2,3,12,-1,-10,1
60021215356,7,2,6,-11,-1,-3,6,9
60021215356,-1,0,5,-5,12,-2,-12,-3
60021220791,3,1,2,3,4,5,9,5
60021220791,0,2,-5,-5,-22,-2,15,0
60021228887,-6,2,-4,0,-9,-4,-25,-7
60021228887,2,-1,0,-9,-7,5,8,6
60021243208,-3,3,1,12,8,7,9,-2
60021243208,-5,1,0,4,16,-8,-4,-3
60021251425,2,-2,-2,0,-14,1,8,-1
60021251425,-9,1,-5,7,-2,-2,-14,-7
60021266392,3,2,-3,-6,-6,8,18,6
60021266392,9,3,7,3,15,4,8,6
60021267159,-4,-5,-6,5,-19,0,-3,-2
60021267159,-3,-3,-2,5,-4,-3,-7,-4
60021280741,8,-1,4,-12,4,2,4,4
60021280741,-6,4,-3,-3,17,-1,-3,-3
60021288912,-5,1,-6,0,-24,-1,1,-3
60021288912,6,0,3,-21,-6,2,19,5
60021303247,-3,-2,-2,-1,20,-8,-8,-4
60021303247,-4,1,3,8,11,0,-12,-2
60021311430,-7,1,-2,8,17,-3,0,0
60021311430,0,-2,-1,0,-16,-8,-12,-1
60021326406,4,1,-1,-3,-4,-1,10,-1
60021326406,1,-3,-1,-9,4,0,2,1
60021327255,2,-4,-2,-3,-1,-5,-2,-3
60021327255,-1,3,3,7,0,-4,-11,-3
60021340814,-9,-1,-7,-16,5,-1,-5,-6
60021340814,5,-3,1,2,-9,-3,-10,0
60021348930,-5,-2,1,7,-2,-7,-4,-3
60021348930,-4,-3,-3,-10,-2,2,4,1
60021363249,5,0,6,-6,-4,-1,-1,2
60021363249,-7,0,-2,6,13,-3,-3,-4
60021371505,-1,2,-5,-11,-3,8,1,-2
60021371505,3,0,-2,-3,-9,-1,-10,-2
60021386488,-6,-1,-1,13,1,-1,-1,-3
60021386488,2,1,-1,-5,-7,-4,1,0
60021387227,4,3,8,2,13,2,0,1
60021387227,-10,-3,-6,4,-7,1,3,-5
60021400779,-2,-1,0,-5,-4,-3,-10,-2
60021400779,0,-1,-4,-1,-7,0,9,0
60021409016,2,1,1,3,4,-3,-6,0
60021409016,-1,-2,-2,2,5,1,11,-1
60021423276,1,-2,1,-1,0,0,1,0
60021423276,-2,-2,-2,1,-3,0,-8,-1
60021431501,-2,-1,-1,2,9,-2,0,-1
60021431501,-2,1,-1,5,0,-1,-3,-2
60021446421,2,-2,-3,-2,-9,0,4,3
60021446421,7,0,4,-6,2,3,5,2
60021447247,-6,-1,-3,5,12,2,3,-2
60021447247,2,-3,-2,-8,-24,-4,-1,2
60021462266,-1,-5,-1,8,3,0,-11,1
60021462266,3,-2,-2,-5,-1,-1,8,3
60021468972,-3,1,2,4,3,0,-5,-4
60021468972,-6,-2,-7,-6,-11,3,8,-2
60021483299,-1,4,3,-1,7,-5,-8,-1
60021483299,-9,-3,-2,6,5,-1,-9,-5
60021498980,4,-1,-1,-11,-13,0,7,5
60021498980,1,3,1,7,8,-1,-3,2
60021506468,-1,0,0,-8,-11,1,2,1
60021506468,5,1,1,-5,1,-1,1,0
60021507193,1,-5,2,1,1,-2,6,2
60021507193,-3,-6,-3,5,-1,3,-2,-4
60021520749,-6,-1,-4,0,-3,-8,-18,-4
60021520749,-3,2,0,-2,-1,-4,-8,-3
60021528851,-5,-6,-3,-1,4,1,-4,-3
60021528851,7,1,2,-10,-5,0,2,4
60021543243,-1,-2,-4,-1,7,-3,3,-2
60021543243,-4,-1,-3,-4,-8,-2,-6,-4
60021551427,2,1,-1,-9,-10,1,7,0
60021551427,-1,1,2,5,17,0,-9,-3
60021566438,0,-5,-1,-6,-5,-6,3,-2
60021566438,0,-4,0,-5,-6,-4,0,-3
60021567073,0,-2,-2,-5,5,-3,4,0
60021567073,-2,0,0,8,9,-3,-2,1
60021580748,-10,2,-4,17,0,-4,-6,-8
60021580748,6,2,0,-5,-16,1,1,1
60021589008,-7,-1,-4,9,17,-6,-8,-2
60021589008,-3,0,-2,-6,-5,1,-6,-2
60021603326,0,0,1,0,-4,7,11,1
60021603326,-8,-1,-1,4,4,5,-1,-1
60021611540,5,-1,0,-4,-5,2,1,1
60021611540,1,-1,2,-3,6,-4,0,-1
60021626474,3,-3,0,5,-4,4,5,2
60021626474,-5,2,-4,2,10,3,-6,-5
60021627207,0,-1,-3,-4,-17,0,0,1
60021627207,-7,3,-1,0,-7,-4,-3,-2
60021640845,6,2,3,-2,-4,3,15,5
60021640845,-2,1,-5,-4,-2,4,-10,-5
60021649018,2,0,5,-1,10,2,0,3
60021649018,4,-1,0,-8,6,-3,0,2
60021663279,-1,3,6,3,13,-3,-2,1
60021663279,-6,-5,-4,1,-2,-3,0,-6
60021671499,0,2,-6,-7,-36,-2,-3,-1
60021671499,-4,-1,-2,-1,10,2,3,-3
60021686441,6,1,1,-4,-3,4,-2,1
60021686441,7,-5,5,-6,9,2,10,4
60021687276,-4,-4,1,8,4,-9,-14,-4
60021687276,4,1,-4,-9,-8,0,7,2
60021702195,1,-1,-1,-4,-20,-4,-9,-1
60021702195,-1,-1,-2,-3,-2,-6,-6,-2
60021708988,3,-4,2,-4,-3,-3,0,-1
60021708988,0,-4,1,0,5,1,-6,-2
60021723371,-3,-2,-1,-5,7,-5,-17,-1
60021723371,0,1,-1,-1,-10,-7,1,1
60021738948,-1,-2,-1,-5,14,1,-1,-4
60021738948,-6,1,1,8,20,-8,-10,-7
60021746520,-11,-3,-9,3,-29,-7,-17,-10
60021746520,0,-2,2,-9,-1,0,-2,3
60021747272,2,-1,-3,-1,-8,-2,4,4
60021747272,-2,-4,1,6,-3,1,-5,-4
60021760747,2,0,0,-10,9,-5,1,2
60021760747,0,2,0,2,-3,-5,5,1
60021768902,-3,1,-4,4,8,3,-10,-4
60021768902,2,-3,0,-7,-15,-3,1,2
60021783297,-4,-1,-1,9,0,-1,0,-1
60021783297,-4,-3,-3,-4,-7,2,10,1
60021791461,-2,-1,2,3,9,3,-4,-5
60021791461,1,-4,0,5,-3,-1,-4,0
60021806531,-3,0,-6,-3,5,6,8,-3
60021806531,3,-2,0,-4,2,3,1,2
60021807289,-1,-1,1,6,2,-2,4,-2
60021807289,-7,2,-8,-8,-7,2,-2,-3
60021820833,6,0,6,-5,17,-1,3,3
60021820833,-11,-2,-6,26,-6,-8,-20,-11
60021828981,-8,-2,-7,-16,-16,-1,-4,-3
60021828981,6,0,2,-6,-2,1,9,7
60021852119,-3,-4,-2,-3,-1,4,12,0
60021852119,7,2,5,-4,9,0,0,6
60021852907,3,-2,1,6,3,1,-6,-2
60021852907,1,-5,-1,-6,-2,6,6,-2
60021866457,0,2,-5,-2,7,-2,3,1
60021866457,-1,0,-1,4,-12,0,-3,-1
60021867147,2,0,-3,-5,-5,6,13,2
60021867147,-5,-2,1,9,1,-2,-7,-4
60021880742,-1,-5,-4,-6,-3,1,-4,0
60021880742,0,-2,0,2,-3,-1,-4,-1
60021888911,1,-1,0,-8,0,-5,4,1
60021888911,-2,1,-1,4,3,-2,-2,-2
60021903289,-1,0,-5,-4,-14,-4,-6,-1
60021903289,-4,0,-1,-1,-6,-4,-3,-1
60021911504,4,0,-1,-5,6,0,0,4
60021911504,-7,-2,0,2,2,4,1,-3
60021925807,-7,-3,-1,-3,7,0,-8,-8
60021925807,5,-4,-3,-6,-1,-4,4,5
60021933997,2,-2,1,-4,-15,0,6,1
60021933997,-2,-2,-1,3,6,1,-6,-3
60021940811,0,4,5,3,3,-3,-4,-2
60021940811,-4,1,-4,-4,5,6,17,-2
60021949000,-1,0,0,0,-6,-2,-10,0
60021949000,4,0,0,-10,-7,-4,11,6
60021963306,-3,-4,0,5,6,1,2,-4
60021963306,-4,-2,1,10,9,-7,-21,-3
60021971488,-7,2,-6,1,10,-1,-4,-4
60021971488,8,1,-3,-3,-24,-1,6,4
60021985838,-2,-4,-1,11,-2,-2,-9,-1
60021985838,0,-4,-1,-9,0,3,12,5
60021993954,-2,3,0,1,2,-3,-12,-5
60021993954,-3,-1,0,-15,6,-2,1,-1
60022009637,4,2,-2,-2,3,-4,-2,-1
60022009637,-2,3,-1,-3,-3,-5,-3,0
60022010498,-4,0,-1,-3,0,-1,-5,0
60022010498,-1,-1,-3,-2,-3,-3,-2,-4
60022023332,1,3,-1,-10,-5,3,8,2
60022023332,-4,1,-1,-10,8,10,10,-4
60022031492,-5,1,0,4,7,-5,-16,-9
60022031492,-5,-1,-2,6,2,-2,-5,0
60022054707,-1,-1,-1,-8,-10,0,-7,0
60022054707,5,3,2,-14,7,0,13,6
60022055493,0,-2,-4,11,-8,-4,-3,-4
60022055493,-3,-3,2,0,6,-1,-3,-4
60022060841,-1,-2,1,9,-4,-2,1,2
60022060841,-5,1,-2,12,6,-3,-14,-4
60022076488,-2,2,0,-1,5,-1,-1,0
60022076488,0,0,-1,-10,-11,-8,1,0
60022083213,0,-2,-5,-10,-7,4,-1,-4
60022083213,1,-8,0,-10,-1,1,-6,-1
60022091425,0,-5,0,5,6,-1,4,0
60022091425,-8,-2,-7,-3,-13,-4,-14,-6
60022105750,-4,-3,-2,-6,-4,-2,10,0
60022105750,-8,-3,-7,2,-3,-5,-21,-7
60022113937,-4,0,0,-11,-5,-2,2,-1
60022113937,8,-3,4,-5,-1,1,0,5
60022129585,-5,-3,4,10,5,-7,-12,-7
60022129585,-8,-3,-4,4,-1,-9,-7,-4
60022130434,2,-7,-3,1,-9,1,9,3
60022130434,3,7,-2,5,1,3,-3,-2
60022143238,3,-2,2,-1,1,-3,0,4
60022143238,-4,-1,-1,2,-7,4,10,-3
60022151554,1,-4,0,-7,-7,-1,-8,1
60022151554,-1,-2,2,6,10,-2,3,-2
60022165874,-8,1,-7,10,2,-4,-10,-4
60022165874,2,4,0,-1,-11,0,8,5
60022174087,-1,0,2,-2,-1,-2,9,0
60022174087,-3,2,-1,1,8,4,2,-1
60022189692,4,2,4,5,5,1,-9,0
60022189692,1,0,-4,-2,-8,1,10,0
60022190495,6,1,1,0,5,3,3,2
60022190495,1,0,-2,4,-6,-2,2,-1
60022203281,-6,2,-4,12,2,1,0,-5
60022203281,0,-3,-1,-6,1,0,5,0
60022212281,0,0,-2,-2,-2,4,-11,0
60022212281,5,-2,0,-5,0,0,12,4
60022225833,7,-1,1,0,-2,2,9,5
60022225833,-2,1,1,8,15,2,-6,-9
60022234805,-9,0,-2,16,-4,0,-5,-4
60022234805,-8,-2,0,-5,6,-1,-8,-3
60022249005,4,-2,-5,-14,-22,-1,4,2
60022249005,5,2,5,-3,3,1,3,0
60022255817,-2,1,-4,-7,13,4,6,-1
60022255817,-3,2,-1,8,0,2,-6,-1
60022263307,8,1,5,-18,0,4,7,5
60022263307,2,-3,-2,4,-1,-7,-13,-2
60022272321,-6,2,-3,8,-9,-1,-4,-5
60022272321,-1,-1,-5,-1,-5,0,8,1
60022285862,5,1,-2,-8,-4,-2,-8,2
60022285862,3,-4,1,-2,-3,-1,-3,-3
60022294803,4,-3,0,0,12,-3,4,3
60022294803,-6,-3,-1,3,2,-3,-5,-6
60022308970,-8,-4,-1,-7,1,2,3,-3
60022308970,-7,0,0,3,-5,-5,-14,-5
60022315771,1,-4,-6,-13,-19,-1,0,1
60022315771,4,-2,2,3,11,1,9,2
60022323257,4,5,-1,-12,-6,2,4,6
60022323257,-6,3,-6,1,12,2,-2,-4
60022332217,4,-3,8,-3,3,-2,4,2
60022332217,1,1,-4,-1,-21,-3,-3,-1
60022345830,-10,-1,-6,-3,3,-3,-5,-8
60022345830,2,-2,-1,-7,-10,-1,8,6
60022354744,-6,6,0,3,23,-4,-16,-5
60022354744,3,-2,-2,-20,-6,7,19,6
60022368944,-8,-6,0,23,13,-6,-21,-10
60022368944,4,3,0,-12,-10,-5,8,5
60022375773,-6,4,-4,10,-3,1,-2,-6
60022375773,4,-2,2,-1,-7,-3,-13,2
60022383294,0,1,-3,-7,-12,1,12,1
60022383294,3,-4,4,-2,14,0,-3,-2
60022392250,0,-3,0,-4,6,-4,5,-1
60022392250,0,6,0,-3,-1,-5,-6,-2
60022405869,2,0,2,-11,3,3,8,3
60022405869,-16,-2,-8,33,-3,-9,-32,-12
60022414803,1,-3,-5,-17,-12,-2,7,6
60022414803,8,-1,2,-13,0,2,15,6
60022437160,5,-2,1,1,11,0,11,4
60022437160,-4,0,-4,-3,7,0,-8,-2
60022438708,-2,-1,-2,2,-22,-1,0,-2
60022438708,-5,2,-3,-9,-7,-1,-5,-3
60022443340,9,2,4,-15,7,0,9,7
60022443340,-2,-2,4,12,4,-1,-6,-1
60022452265,-1,-5,0,-9,-15,-4,-3,0
60022452265,-3,-1,-3,-2,12,1,-14,-4
60022465889,0,-4,2,7,-10,-7,-7,-3
60022465889,-2,-3,-2,3,-2,-1,-6,-6
60022474738,5,-4,-1,-13,2,-5,5,3
60022474738,-5,-7,6,22,1,-7,-9,-6
60022488966,-11,-4,-4,3,3,0,-19,-13
60022488966,8,-2,-1,-23,-4,0,4,8
60022495774,-1,1,1,5,-1,-1,8,-3
60022495774,-4,-5,-10,4,-34,-10,-18,-3
60022503285,1,-3,1,0,12,-6,-9,0
60022503285,5,-2,-2,-9,-16,5,14,2
60022512310,1,0,-2,-16,5,3,8,2
60022512310,-7,-1,1,12,28,2,-4,-7
60022525791,-10,-1,-6,12,-16,-8,-12,-5
60022525791,-5,-1,-3,-15,-14,3,10,1
60022534863,0,3,3,10,20,-3,-9,-2
60022534863,-1,2,-2,3,-13,-4,5,2
60022548975,5,5,-1,-12,-1,6,12,2
60022548975,2,-1,4,8,12,-3,-12,1
60022555773,-5,-2,-2,4,1,2,4,-2
60022555773,-4,-1,-2,1,-2,2,1,-1
60022563284,-3,-1,-3,-2,-12,-4,-1,-3
60022563284,6,-1,-4,-13,-14,1,17,5
60022572308,2,-4,-1,2,-3,2,-4,0
60022572308,3,0,5,-4,14,-2,-7,1
60022585833,-19,-2,-7,20,2,2,-5,-13
60022585833,0,-1,-1,-3,-8,-2,4,4
60022594847,4,0,2,-3,-5,0,8,3
60022594847,-1,-2,-4,-1,15,4,-1,-4
60022608979,-3,-4,-1,7,-15,-1,-9,3
60022608979,1,0,2,-11,7,8,16,1
60022615729,-1,-3,0,6,-3,-3,-8,1
60022615729,-4,1,-3,-3,-12,1,1,-2
60022623294,3,1,-2,-8,3,4,5,1
60022623294,-6,1,-2,11,0,-6,-12,-6
60022632268,1,0,2,-8,9,4,8,4
60022632268,-6,-1,-1,4,-2,0,-1,-5
60022645836,1,2,1,-8,12,-4,-9,-1
60022645836,-7,1,-4,2,-10,-1,-3,-5
60022654720,3,3,-1,-9,-5,2,2,1
60022654720,-1,-7,-3,0,9,0,-14,-4
60022668959,8,1,1,-13,-5,2,6,4
60022668959,2,-2,7,-4,9,-6,-4,0
60022675797,-7,-2,0,10,3,-6,-21,-7
60022675797,-4,2,-5,0,-22,2,8,3
60022683318,-1,-3,1,-7,11,0,2,-2
60022683318,-3,-3,-4,12,7,-9,-10,-3
60022692257,-3,2,-5,-1,-8,0,-11,-5
60022692257,2,3,-2,-9,2,5,4,0
60022705820,2,-2,1,7,2,-4,-4,-1
60022705820,-4,2,-3,-3,-3,2,5,-4
60022714720,1,3,4,-9,4,0,3,-1
60022714720,-1,0,-1,13,10,-3,-4,-3
60022729621,-6,-2,-5,1,-3,0,0,0
60022729621,1,-3,-2,-10,2,3,0,1
60022731146,5,0,-3,-2,-9,-4,11,5
60022731146,-1,2,-1,6,-4,-1,-1,-3
60022743240,-2,1,-1,-10,-4,2,4,0
60022743240,7,-5,1,2,-4,2,3,5
60022752252,-8,1,-3,6,12,-1,-7,-8
60022752252,-2,3,2,3,3,2,6,4
60022765734,-3,-2,2,13,2,-9,-4,-3
60022765734,3,1,-4,-16,-13,1,2,1
60022774736,10,-1,5,-6,12,3,-4,2
60022774736,-1,-4,2,5,23,-5,-1,-2
60022789567,-7,-2,-13,1,-45,3,-4,-3
60022789567,-3,2,1,-7,-1,0,-7,-3
60022791216,3,-2,-1,-3,-8,-1,3,3
60022791216,5,-4,2,-9,-1,-3,1,2
60022803263,8,3,5,-4,8,-2,5,4
60022803263,-1,-2,-1,4,1,0,10,1
60022812234,0,-4,-1,5,-6,-1,-3,-2
60022812234,-2,3,0,0,-14,-3,-12,-1
60022825760,-4,-3,-2,-4,8,-3,-2,-3
60022825760,-3,-3,2,-4,1,0,-7,-4
60022834707,-13,-3,-7,13,-12,-3,-21,-8
60022834707,0,-7,-2,-19,-1,-1,1,1
60022849681,3,-3,1,3,11,-3,-1,0
60022849681,-2,-1,-3,-3,0,-8,-14,-3
60022851179,1,-2,0,-5,-3,-1,13,0
60022851179,-5,0,-5,-5,0,7,-5,-6
60022863306,4,-2,5,-1,3,0,0,1
60022863306,-10,-5,-6,14,-2,-1,-2,-9
60022872342,-3,3,-4,-14,-13,-4,-7,-1
60022872342,2,2,4,7,2,-2,-2,3
60022885832,-7,5,1,4,7,2,-1,-4
60022885832,1,1,3,1,7,2,-2,3
60022894842,-5,-5,-5,1,-8,-5,2,-4
60022894842,1,0,-1,-4,-4,4,5,1
60022909037,1,-2,1,0,0,-1,2,2
60022909037,1,2,-1,3,-4,-1,-3,-1
60022915845,0,0,-1,-3,0,2,4,0
60022915845,0,-2,0,-3,0,-4,-2,-1
60022923304,-4,-5,-2,0,1,2,4,-3
60022923304,0,-5,-1,8,-6,0,-9,-3
60022932307,2,-1,2,-10,12,4,1,0
60022932307,-4,5,0,13,10,-5,1,-9
60022945837,-2,-3,-8,1,-33,-3,-10,-6
60022945837,-1,2,1,-14,-2,-1,10,1
60022954860,-1,3,-2,8,4,0,-1,-1
60022954860,1,-1,-2,-12,2,7,5,1
60022968996,4,3,-2,-2,10,2,6,1
60022968996,3,3,-3,7,-6,-3,-2,-2
60022975797,-3,-4,0,7,3,-1,3,-2
60022975797,-1,-1,1,1,0,-6,-6,-3
60022983262,0,2,-1,-7,3,2,20,6
60022983262,3,1,-3,3,0,0,-19,-5
60022992400,1,-3,2,3,4,-3,8,-2
60022992400,-3,-3,-1,-3,-6,-3,-2,-3
60023005836,3,0,-3,-8,4,-7,-4,1
60023005836,-2,1,-3,-5,-3,1,5,-1
60023022220,0,1,-3,3,-2,-3,-7,-2
60023022220,-3,2,-3,-14,-5,-5,-19,-2
60023028954,-3,-3,-1,-7,0,-1,-2,1
60023028954,-2,0,-1,-9,-1,2,-6,-1
60023035752,-3,3,-2,-5,-10,-3,-13,-4
60023035752,-3,-4,-1,-7,-15,-7,-1,-4
60023059616,2,3,0,-4,6,1,-7,-1
60023059616,1,-4,3,-6,1,-1,4,1
60023061241,3,2,0,1,2,0,-6,0
60023061241,-2,1,-2,10,2,1,2,-2
60023065759,-3,-7,-3,-3,0,-1,3,-1
60023065759,1,-2,1,1,4,-3,-1,-2
60023074743,-3,-2,-2,-4,1,-4,1,-1
60023074743,0,-1,-2,1,-4,-2,8,3
60023088970,-2,-2,3,2,0,-1,-5,-3
60023088970,-6,-3,-1,-2,1,-3,7,1
60023095752,-2,-5,-2,-1,1,0,-1,-1
60023095752,2,1,-1,6,0,2,7,-1
60023112143,-4,-2,3,-2,1,1,-4,-1
60023112143,-2,2,0,-3,-1,-3,-2,-2
60023113736,1,-5,-1,-1,-3,-1,-2,0
60023113736,3,1,-1,4,1,5,10,2
60023125723,0,-1,0,3,2,2,-1,2
60023125723,2,-2,0,0,0,-1,-4,2
60023134753,-1,0,-1,-1,0,0,1,0
60023134753,2,0,-1,-3,2,0,4,2
60023149043,-1,2,1,-1,-4,-1,-11,-2
60023149043,-2,-4,-5,-4,-2,3,6,-3
60023155819,-1,0,-2,-5,0,0,1,-1
60023155819,-3,-7,0,-2,-2,-3,4,-1
60023172222,-1,3,-4,-3,-3,-1,-3,-1
60023172222,8,2,-3,-2,-5,-3,-14,6
60023173705,-3,-1,2,-1,-1,0,-2,0
60023173705,-3,-3,-4,-7,4,7,4,-1
60023185889,0,-1,2,4,2,-5,-8,-6
60023185889,-1,-1,4,0,3,-1,3,0
60023202363,4,2,-5,-2,-5,-3,11,6
60023202363,-2,0,-1,0,-4,-4,-21,-8
60023209081,-2,-4,-3,-4,-4,-3,3,-3
60023209081,-7,-3,-2,-5,-1,-2,-3,-7
60023215860,3,-1,0,-4,0,-2,-3,1
60023215860,-1,0,-3,-13,-2,-3,-6,-2
60023232224,-1,0,0,-5,0,-6,-16,-4
60023232224,-4,0,-2,1,-2,-2,-3,-5
60023233759,-5,-1,-1,-2,0,-4,-8,-5
60023233759,0,4,2,-5,-3,0,-1,-2
60023245769,3,-4,-1,-8,-1,2,0,-2
60023245769,-6,-2,1,3,3,-9,-8,-5
60023262277,-7,-5,-2,-6,-5,1,-6,-4
60023262277,3,-14,-3,-5,1,0,0,3
60023269031,-2,-5,-4,0,-3,-1,3,1
60023269031,0,-1,0,1,0,3,9,3
60023275820,2,3,0,-1,1,1,-1,-1
60023275820,-1,1,1,6,-1,-3,-5,0
60023292216,-1,0,-2,1,1,-1,-2,-2
60023292216,0,0,-4,2,0,4,10,1
60023293743,-4,-1,0,10,1,-4,-1,-3
60023293743,-2,4,2,3,-3,-1,-1,-1
60023305830,-4,-2,-3,-7,-3,-2,4,-4
60023305830,1,-2,-5,-2,-5,2,2,-5
60023314785,-2,-5,4,6,3,-5,-15,-4
60023314785,-4,-4,-7,15,-3,1,11,2
60023329051,0,-8,3,11,-2,1,5,3
60023329051,0,-29,-4,-4,-4,-3,10,4
60023335825,3,-22,0,-5,-5,-1,3,4
60023335825,-6,37,-7,-5,-8,-5,-19,-6
60023352188,-6,30,-6,-5,-7,-3,-5,3
60023352188,-4,22,0,-9,-10,-3,-13,-1
60023353687,1,13,-2,5,-1,4,10,1
60023353687,9,-13,1,-1,-1,-3,9,6
60023365737,7,-3,4,4,3,1,9,7
60023365737,1,2,2,0,-1,0,-1,7
60023374739,-1,-1,0,-4,6,1,3,4
60023374739,3,-11,7,-8,7,2,7,3
60023388954,0,-4,0,-8,12,-7,1,-1
60023388954,1,-6,1,-2,-4,0,-10,-6
60023395775,4,2,-3,-22,7,0,7,-11
60023395775,-12,0,-1,7,18,9,10,-19
60023412111,6,-1,0,20,5,-10,-10,-4
60023412111,-5,2,0,6,27,13,11,-4
60023413721,1,5,4,7,8,1,2,4
60023413721,4,-3,1,-6,-6,2,10,9
60023434594,-1,-2,0,-3,-2,2,7,-3
60023434594,0,2,1,8,2,-5,0,-1
60023436177,1,1,-3,7,2,2,-15,-8
60023436177,-5,1,0,0,6,-4,-7,-6
60023448971,-3,1,-2,-1,-4,0,0,-3
60023448971,0,-3,-5,-7,-8,-5,-2,-3
60023455796,-6,4,-2,-8,4,3,-3,-1
60023455796,4,-2,0,4,0,-4,-7,4
60023472251,-1,1,-3,-8,-5,2,1,1
60023472251,2,3,3,-3,0,-5,1,5
60023473777,0,5,-2,6,4,-1,7,4
60023473777,-1,2,3,-2,3,-4,-2,-1
60023485768,-1,-4,-1,-5,4,6,-5,1
60023485768,-2,1,-2,-2,3,0,3,3
60023494774,5,-3,0,-5,-2,3,3,3
60023494774,14,-2,-6,-18,-9,-5,2,12
60023509019,-4,-5,-2,1,3,-1,1,11
60023509019,-2,5,0,7,-5,-8,-12,-2
60023515763,-11,-5,-7,-11,-3,-2,0,-6
60023515763,-5,-4,-2,-8,-6,-1,-13,-20
60023532214,-9,-3,-2,-4,-10,0,-10,-11
60023532214,1,3,-6,-14,-16,-3,3,-7
60023533790,-1,5,-1,4,14,-3,-11,-4
60023533790,-4,6,1,2,7,1,-12,-2
60023545850,4,-1,2,-3,6,2,7,2
60023545850,1,-1,4,3,10,3,2,2
60023554824,1,0,-2,-2,-7,0,0,3
60023554824,0,-5,-3,-10,-12,-4,-8,-3
60023568696,-1,5,-3,-9,-13,-3,-4,-5
60023568696,-4,4,-4,-1,-9,-1,-2,-5
60023577313,0,2,-2,-2,-7,-1,0,-4
60023577313,-2,-2,-1,-4,3,0,-2,1
60023592202,0,-3,0,4,8,0,-4,-2
60023592202,2,-3,-1,-3,6,-6,-8,-1
60023593767,-1,-4,0,2,-1,-4,-10,1
60023593767,-1,2,3,7,4,-1,3,-1
60023605859,-3,-3,-6,-9,-10,-2,5,10
60023605859,1,-7,0,0,-4,1,-20,-1
60023622254,-15,-5,7,8,-9,-1,9,-4
60023622254,6,-4,0,-3,-7,-4,-9,3
60023629028,12,-2,-13,-30,-30,-4,-2,24
60023629028,-6,5,-2,12,3,0,-4,-9
60023635836,6,-2,0,-4,-3,-4,-4,6
60023635836,-16,-2,10,23,19,-2,2,-13
60023652807,-10,3,12,21,41,3,5,-18
60023652807,5,-5,-3,0,0,-3,3,4
60023654448,31,0,-25,-44,-32,-9,6,26
60023654448,10,3,-19,-5,-22,3,0,1
60023665795,5,1,1,-4,-10,0,3,4
60023665795,-12,3,8,9,4,2,-3,-3
60023674728,-23,3,14,27,30,3,-9,-31
60023674728,-9,-6,-3,-2,-3,-7,-9,-5
60023688974,2,-3,1,5,3,-2,13,-5
60023688974,-7,1,3,9,9,0,6,-15
60023695793,6,0,0,-13,-14,-2,5,11
60023695793,-7,6,-4,1,-2,3,6,-1
60023712245,-9,2,-4,12,-5,1,-11,-13
60023712245,2,-2,0,-11,-3,0,4,8
60023713801,-3,-1,-1,8,-2,1,4,-2
60023713801,2,-1,-5,-13,-6,3,17,13
60023725828,-7,-5,1,3,4,-1,-5,-5
60023725828,0,-4,-8,-10,-12,-3,-4,2
60023734858,-3,1,-1,-7,-5,-3,-1,-2
60023734858,-4,1,6,1,6,0,0,-9
60023749026,2,0,-3,-4,-5,-3,-5,-2
60023749026,6,2,1,-1,-2,-1,2,5
60023755827,-3,-3,1,8,5,-3,0,-3
60023755827,5,-1,0,-1,-1,-1,1,6
60023772171,-5,1,-2,-5,-3,0,-3,-4
60023772171,0,0,-3,-4,1,2,2,0
60023773751,-6,1,-2,7,1,-5,4,-3
60023773751,16,-5,-1,-36,-3,6,13,10
60023785866,-3,1,6,22,22,-2,-3,-6
60023785866,-25,-3,-14,49,-9,-5,-12,-17
60023794818,-3,-12,-3,-12,-10,6,5,0
60023794818,-4,-15,-3,-13,-3,-7,-5,0
60023809031,2,-5,-8,-31,-27,0,-3,6
60023809031,8,8,-1,-27,-11,-3,4,5
60023823325,2,15,0,2,0,-3,-10,-10
60023823325,6,22,3,3,7,0,12,0
60023831553,7,10,5,1,20,-2,3,-5
60023831553,4,4,2,-2,11,-1,0,2
60023838363,5,5,3,10,5,0,6,0
60023838363,1,4,7,8,15,-1,-4,0
60023845831,-4,0,-1,17,5,-3,-9,-2
60023845831,7,-2,1,0,5,5,8,8
60023854800,1,-9,-1,-5,-1,1,-2,-3
60023854800,-3,-1,-4,4,4,-2,-9,-3
60023869027,-4,-4,-3,-3,-4,1,3,-1
60023869027,3,-4,-1,-10,-5,-5,-1,-6
60023875851,-6,-8,0,-5,3,1,-10,-5
60023875851,-6,-4,-3,1,-6,-3,-13,-5
60023899647,0,0,-3,-7,-10,-4,-4,0
60023899647,-4,-1,2,-10,-1,2,-5,-1
60023901207,-2,3,-4,4,-1,-3,-5,-2
60023901207,-11,0,5,8,-1,-2,-5,-5
60023905739,-5,3,5,6,6,3,5,0
60023905739,5,1,2,6,8,1,6,11
60023914748,7,-3,-20,-22,-22,-4,13,33
60023914748,7,-2,5,13,-3,-1,-3,5
60023928948,-17,3,9,9,15,4,1,-5
60023928948,-3,2,5,6,11,-1,-4,-6
60023935745,56,3,-19,-36,-24,-6,5,50
60023935745,5,-1,-5,-12,-3,-2,9,2
60023951454,3,3,-5,-3,-8,-1,-12,-9
60023951454,-23,3,5,10,6,-1,-14,-25
60023958194,-20,0,12,7,12,1,-15,-28
60023958194,-7,0,-4,-6,-1,-4,-4,-4
60023974647,-2,-14,-1,0,-1,-1,-4,-3
60023974647,5,-3,-7,-18,-10,-2,-10,-6
60023976205,-12,9,4,9,3,-1,-5,-13
60023976205,5,3,-3,-2,-5,-4,-6,-3
60024004732,-10,-4,-2,-4,-1,0,-6,-9
60024004732,10,-1,-7,-17,-12,-3,-9,5
60024006210,-6,-5,4,1,2,2,-5,-11
60024006210,-8,-3,3,6,1,-2,-10,-3
60024011537,14,2,0,-10,-7,-1,6,11
60024011537,3,-3,2,2,4,-1,2,5
60024018334,-22,-2,-9,9,-10,-3,-14,-21
60024018334,-6,-5,-5,-6,-11,-3,-2,1
60024034682,-4,-2,0,-6,-2,-1,-2,7
60024034682,10,-3,-4,-3,5,-2,5,10
60024036295,-7,-1,23,17,18,2,6,-10
60024036295,2,-6,-6,-23,-13,4,-1,14
60024057238,-4,3,-4,0,-4,-3,11,0
60024057238,4,0,-11,-17,-18,-5,-4,10
60024058767,-7,-5,-10,5,5,-4,-4,-13
60024058767,-16,-4,13,37,25,1,0,-29
60024071522,4,0,-6,-15,-9,-3,-6,0
60024071522,19,0,-12,-24,-18,-4,5,18
60024078326,5,1,4,6,2,1,8,-6
60024078326,-1,1,8,-6,0,0,3,3
60024094679,0,3,1,8,17,2,1,-18
60024094679,-18,2,4,6,7,-2,-8,-18
60024096283,4,2,-4,-4,-7,0,5,7
60024096283,-21,4,-2,19,14,0,-1,-14
60024109049,11,-3,-1,0,-5,-2,7,13
60024109049,10,2,-10,-6,-12,0,2,9
60024115804,-5,-6,3,6,3,1,7,-4
60024115804,3,-1,-10,-5,-4,-1,2,-2
60024131536,0,-2,-5,3,3,-1,-4,2
60024131536,4,0,5,8,8,2,8,-1
60024138409,-14,-2,15,-6,-13,-4,-20,-12
60024138409,-4,-3,-2,-4,-10,-1,3,14
60024154717,7,0,-2,-5,-5,-2,-2,1
60024154717,-17,1,-3,18,14,3,5,-9
60024156259,17,0,-2,2,11,0,1,4
60024156259,4,-6,1,-18,-20,-7,-5,4
60024169034,-2,2,-9,-7,-12,-3,-2,0
60024169034,-6,-2,-3,5,9,-3,2,-4
60024175801,0,6,-4,-9,-3,2,2,3
60024175801,4,5,0,-6,2,0,-3,-7
60024191507,-7,-4,2,10,7,-2,-11,-6
60024191507,-8,-8,4,5,5,-1,6,2
60024198256,30,-4,-10,-22,-12,-4,-1,13
60024198256,-5,1,-6,4,-1,-2,-12,-6
60024214675,1,-1,4,-10,-6,-1,1,2
60024214675,-9,-6,-3,6,5,1,-3,-5
60024216276,-10,-10,-3,5,8,-1,-6,-2
60024216276,16,-4,-8,-13,1,0,6,10
60024229031,-13,-4,21,-7,-28,-3,-18,-13
60024229031,-4,14,4,-6,-11,-1,-6,-2
60024235851,1,6,2,2,5,-1,2,5
60024235851,-9,-1,-5,16,8,-1,-6,-2
60024251528,0,-3,-9,-5,4,2,5,0
60024251528,8,-2,5,-21,-6,-5,3,0
60024258347,-6,1,0,-7,1,-5,-2,-4
60024258347,7,3,5,-3,6,-2,0,0
60024274682,1,7,4,16,22,0,8,-3
60024274682,-2,3,13,7,11,2,-10,-7
60024276287,7,1,-26,-35,-24,-3,8,42
60024276287,0,-2,5,3,5,2,-10,-15
60024288313,-4,-4,2,0,9,1,5,-2
60024288313,9,-6,-12,-15,-14,0,3,1
60024297336,-15,-3,7,13,10,1,-8,-17
60024297336,4,-2,4,-3,-4,0,2,10
60024311507,-11,1,-3,10,8,0,-6,-7
60024311507,-4,-1,1,6,5,0,-4,-5
60024318349,-2,-2,3,-3,1,-2,-9,-5
60024318349,-3,2,-5,-3,-7,-3,-3,-2
60024334733,2,-3,-3,-2,0,-5,-2,2
60024334733,-4,-2,-2,-12,-7,-2,-9,1
60024336343,1,-1,2,-1,-3,1,-2,-5
60024336343,-7,-8,-7,-1,-1,-1,2,-3
60024348390,6,0,-6,-15,-12,0,-5,3
60024348390,4,-3,2,-6,-6,-3,-4,3
60024357348,-8,-3,4,9,7,3,-4,-9
60024357348,1,1,-2,3,3,2,1,-2
60024379768,0,-3,-4,-5,-6,0,0,5
60024379768,-5,-4,2,1,-1,-2,-4,-4
60024381296,-6,0,0,0,3,-2,-3,-5
60024381296,1,-2,-3,-2,-6,-3,3,1
60024394692,3,1,0,3,-1,-3,-6,-3
60024394692,-7,-1,3,6,11,3,4,-2
60024396281,6,1,-8,-8,-10,-3,7,12
60024396281,0,-5,0,-4,-9,-3,-4,0
60024408302,4,-2,0,-4,-1,-3,-1,0
60024408302,-5,15,3,3,-1,0,0,-8
60024417297,-8,-1,-2,2,5,0,0,-12
60024417297,4,-1,-4,-1,1,-1,4,-4
60024431492,9,-11,-2,1,-1,-5,5,-6
60024431492,1,-18,-1,-5,-3,0,-5,-1
60024438234,-5,8,0,1,-4,-1,-8,-9
60024438234,13,8,-3,-4,-8,-2,0,3
60024454598,-8,9,-6,2,-6,2,-3,-2
60024454598,-2,-1,7,2,2,-1,1,-2
60024456221,33,-8,-7,-22,-22,-7,2,26
60024456221,3,-14,6,7,5,-4,-1,-1
60024468288,-16,-7,-1,6,-5,-3,0,7
60024468288,-18,-6,-9,12,-7,6,-5,-3
60024477247,-38,-5,-4,39,17,1,-3,-23
60024477247,-1,-1,-12,-27,-10,2,3,25
60024491445,21,-2,-11,-24,-10,-5,-1,2
60024491445,-8,1,3,-6,3,2,-2,1
60024498271,-9,-9,3,-8,-1,4,-1,-4
60024498271,-12,1,2,5,8,0,-7,-11
60024522267,-11,-3,2,-2,10,2,-3,-8
60024522267,21,-2,-2,-27,-7,-5,6,22
60024523845,16,-1,6,-10,3,-1,-5,-6
60024523845,-7,-4,4,-5,-4,-6,-1,-3
60024528423,-8,0,2,-14,-4,-1,-6,3
60024528423,-6,-2,-4,-4,-3,-5,-4,-8
60024537377,-9,2,0,-4,6,8,3,2
60024537377,10,2,3,14,8,2,8,6
60024551472,7,-3,-2,19,5,1,-6,-2
60024551472,4,-1,-2,1,5,0,1,1
60024558357,-1,-4,-1,7,0,-3,-1,3
60024558357,-2,-3,-1,-6,1,0,-7,-3
60024574706,-3,0,2,5,-1,-4,2,0
60024574706,-4,3,-3,-9,-7,-3,-7,-5
60024576308,1,3,-6,-11,-7,-3,2,5
60024576308,-11,0,-4,1,3,1,-1,-9
60024588401,3,-1,-3,-12,-3,4,-5,3
60024588401,0,-4,-2,5,4,1,0,-3
60024597305,0,1,-1,13,-2,-6,-10,-7
60024597305,10,-3,1,-8,-5,1,-6,2
60024611448,-3,-5,1,-8,4,1,8,5
60024611448,-6,2,5,14,18,-1,0,-11
60024618294,-18,-2,-1,8,-12,7,-12,-18
60024618294,-26,-5,14,23,3,-1,5,-10
60024634682,38,-1,-28,-64,-36,-4,20,57
60024634682,26,2,-15,-23,-19,0,0,14
60024636276,-3,-1,0,1,9,-1,6,11
60024636276,2,-5,0,13,6,2,-6,-6
60024657240,-7,4,20,28,30,1,4,-21
60024657240,-22,3,16,46,49,1,1,-37
60024658806,26,-2,-11,-25,-25,-15,14,38
60024658806,2,3,-11,-23,-26,-1,-19,5
60024671579,-13,-5,3,6,-4,-1,-3,-6
60024671579,1,-7,-1,-8,-11,3,-3,0
60024678330,-1,-2,13,20,22,0,9,-19
60024678330,6,2,1,-5,2,-3,11,4
60024694707,-2,6,-6,-1,-7,0,-9,-1
60024694707,-10,-1,3,4,0,0,-8,-1
60024696243,-8,4,0,-7,3,2,0,-6
60024696243,-1,-6,-7,-5,-5,-4,0,4
60024708303,-8,0,-1,14,5,-2,-9,-17
60024708303,2,0,2,-3,-8,-1,8,3
60024717255,-9,-3,12,20,17,2,-7,-24
60024717255,25,1,0,-9,2,-6,-1,-27
60024731505,-3,-6,3,32,9,4,-11,-70
60024731505,31,-2,-25,-58,-32,-11,1,65
60024738297,7,-5,-38,-44,-48,-4,-23,58
60024738297,-88,-1,49,90,64,7,-13,-3
60024753973,-2,-5,18,-9,22,-1,21,55
60024753973,80,0,-45,-66,-60,-10,19,54
60024760784,-21,-4,-4,48,-6,14,-33,-47
60024760784,-6,-5,7,3,10,-1,2,-12
60024768283,-56,2,28,51,39,-2,-22,-40
60024768283,-32,-5,8,23,11,-1,27,-14
60024777246,-10,1,-4,-14,3,-5,16,-20
60024777246,-19,-4,-26,-19,-35,-5,-13,-3
60024791480,-18,1,17,19,17,6,11,-8
60024791480,-12,-3,5,9,2,-3,-16,-20
60024798249,26,-4,-9,-23,-14,-7,5,16
60024798249,10,7,-7,-1,-7,7,8,-16
60024822143,30,0,-10,-26,-16,-11,3,14
60024822143,-14,2,16,16,26,7,7,-7
60024823841,8,6,7,-2,13,-3,-18,-16
60024823841,-23,-1,-2,-17,1,0,15,18
60024828360,-3,-2,-9,1,-10,3,-11,14
60024828360,-30,-7,8,41,20,2,-13,-40
60024837338,69,1,-23,-75,-43,-4,42,91
60024837338,19,1,8,12,-22,-7,-36,-29
60024851563,-5,4,-26,-15,-31,-3,-25,-9
60024851563,-30,1,3,35,8,7,-23,-36
60024858330,-34,5,26,43,43,0,16,-14
60024858330,21,-1,-20,-27,-4,3,33,32
60024874031,-4,0,12,10,17,-3,23,3
60024874031,-1,-4,0,9,10,-9,-39,-15
60024880922,10,-5,-5,-9,-5,1,6,1
60024880922,-5,3,-3,-6,9,0,2,-9
60024888439,-15,-5,-19,-25,-23,-3,16,4
60024888439,6,6,-12,-32,-13,-9,8,11
60024897337,-24,4,14,20,9,0,-15,-28
60024897337,-8,2,12,10,18,3,4,9
60024911563,9,-8,-3,2,-3,11,-3,-2
60024911563,28,-14,18,1,11,4,10,8
60024918329,-11,-2,7,12,11,-7,-3,10
60024918329,26,0,-44,-63,-55,-7,0,30
60024934021,32,3,-1,-7,1,-6,2,5
60024934021,42,-3,-11,-36,-22,-1,10,25
60024940872,-22,-11,18,30,29,1,8,-28
60024940872,-10,-6,14,7,11,-5,-9,-4
60024957222,-14,-1,-20,-17,-13,0,-8,6
60024957222,-66,2,-9,18,7,16,-26,-32
60024958818,-9,2,0,5,-1,-2,6,-6
60024958818,5,-1,0,10,10,4,20,5
60024971521,17,-8,10,8,0,-2,-2,3
60024971521,11,-8,16,6,11,0,8,-9
60024978375,17,-26,-12,-13,-7,-1,-4,-9
60024978375,44,16,-9,-17,-15,-1,5,-8
60024994112,38,-3,2,1,-9,-5,-18,-15
60024994112,36,-6,-14,-32,-18,-6,10,1
60025000948,32,-1,7,14,8,3,11,-6
60025000948,33,-23,20,38,23,-2,-2,-27
60025017221,7,-31,-11,-23,0,-13,22,44
60025017221,-29,-12,0,7,-1,-2,-6,-10
60025018805,-50,42,-12,-26,-17,6,-19,-21
60025018805,-94,26,-15,-18,-10,4,-20,-6
60025031486,-90,12,-4,11,-2,10,-28,17
60025031486,-68,-14,14,10,15,8,-15,22
60025038335,-22,-10,10,4,7,5,-65,-10
60025038335,12,-9,-5,8,-8,0,-90,-4
60025054002,7,30,-6,-15,-17,4,-86,-38
60025054002,27,23,-2,-9,-14,-7,-72,-54
60025060851,-15,11,-1,-24,-20,7,-55,-117
60025060851,-28,3,-12,-55,-30,-28,-79,-124
60025077145,-50,-1,-17,-67,-25,-38,-114,-128
60025077145,-31,29,-14,-38,-39,-38,-59,-91
60025078723,26,13,-4,-9,-1,-2,-7,78
60025078723,71,0,23,63,56,13,119,119
60025091511,104,-7,31,123,122,32,127,127
60025091511,62,-29,-5,85,121,28,127,55
60025098280,6,-48,-43,16,44,6,61,2
60025098280,-4,-28,-56,-43,-14,9,30,108
60025113981,38,2,-7,-38,10,-1,52,114
60025113981,34,-6,-27,1,35,-11,19,127
60025120759,14,-21,8,42,-6,-8,5,40
60025120759,-40,-28,-39,90,-50,-1,-47,-47
60025137140,-74,-16,80,100,-114,0,-61,-128
60025137140,-52,3,93,83,-126,2,-58,-118
60025138743,-26,20,127,-17,-66,-8,-33,-92
60025138743,-18,9,113,-107,-36,1,-31,-85
60025151482,-21,6,-21,-128,-30,3,-30,-66
60025151482,6,-5,-52,-90,18,0,2,-27
60025158225,46,-17,-87,31,91,-5,38,33
60025158225,4,1,-73,-40,16,-11,-29,-54
60025173996,53,69,-60,27,43,15,82,106
60025173996,-86,-96,-57,-105,-82,-3,-73,-99
60025180867,-52,105,-92,-89,-115,-20,-55,-20
60025180867,112,50,6,113,116,14,74,96
60025197220,85,27,9,71,72,-9,31,84
60025197220,74,35,23,78,93,16,78,108
60025198779,36,-32,33,80,89,-4,54,-13
60025198779,-45,-22,11,-1,-14,-11,-26,-69
60025211345,-38,-35,-2,-30,-22,1,-63,-61
60025211345,-9,1,-1,-12,-24,-4,-51,11
60025219899,-12,-19,2,-21,-31,3,-42,1
60025219899,9,22,7,-3,-19,-3,15,20
60025234126,-21,-20,-7,20,13,-2,3,-24
60025234126,-15,3,-10,1,-23,-9,-14,-21
60025240918,-6,11,6,-13,-18,-4,8,10
60025240918,-4,-9,0,5,4,1,12,8
60025257260,-15,-24,-3,-11,-26,-6,-1,-28
60025257260,7,22,0,-26,-2,3,14,4
60025258794,8,0,10,27,21,14,8,-14
60025258794,-20,-12,-3,-1,-26,0,-17,-11
60025270932,-8,3,-2,-24,-16,3,7,11
60025270932,6,27,7,19,18,3,13,17
60025279868,-10,-13,1,-19,-8,2,-9,19
60025279868,-34,-11,-3,-31,-9,2,-32,-30
60025294086,-24,8,-11,-20,-22,-13,-29,-39
60025294086,18,13,4,-13,-27,-1,13,27
60025300822,13,-10,1,-6,-2,-5,15,6
60025300822,-12,4,-2,0,-10,-10,-13,-23
60025317232,7,0,-8,-35,-24,3,10,-12
60025317232,0,-7,2,3,26,-7,-13,-15
60025318741,1,-3,-5,17,16,3,-15,-7
60025318741,23,7,2,-1,-11,0,25,24
60025331566,4,-10,1,3,11,1,27,-4
60025331566,8,1,5,20,9,3,13,-7
60025338415,1,-2,2,-6,6,-1,3,0
60025338415,1,-1,-3,12,29,0,9,8
60025354022,6,-3,4,-6,-2,-2,11,3
60025354022,-7,4,2,-9,3,-1,-4,10
60025360869,-19,-4,-10,-19,-16,-3,-24,21
60025360869,-6,-1,-10,-10,-17,1,6,27
60025368991,-2,-11,3,2,12,-4,-11,10
60025368991,10,-4,-5,9,-1,-5,-9,6
60025375849,10,-10,3,-5,-8,-2,-11,5
60025375849,10,-8,3,5,3,-5,-15,-5
60025391481,10,-4,0,3,12,2,-13,-9
60025391481,4,8,4,2,3,-2,-5,-4
60025398315,3,-1,-6,10,4,1,-4,-6
60025398315,15,-20,2,0,12,3,8,-1
60025413991,12,-2,2,-4,3,-4,7,-3
60025413991,4,7,1,1,16,1,9,8
60025420791,1,3,4,-3,-2,-9,5,7
60025420791,-2,8,1,-4,6,0,10,13
60025428992,-22,0,-9,-8,-12,-3,-14,-9
60025428992,-14,-1,-3,-23,-25,2,-14,-12
60025435829,-11,5,-2,-9,-6,0,-16,-15
60025435829,5,2,-2,2,-1,-1,-1,0
60025451502,-10,1,2,7,12,2,6,-2
60025451502,-23,-4,1,2,5,-8,-2,3
60025458311,-1,-4,5,23,22,3,19,8
60025458311,9,-6,-1,7,3,0,10,2
60025474185,4,-1,-10,-1,1,-6,-6,-5
60025474185,0,6,-15,18,18,1,16,4
60025489654,-13,-11,-6,-8,-16,-1,-8,3
60025489654,-17,5,-7,-13,-8,-4,5,0
60025490441,-46,-9,6,-8,-16,-2,-8,-1
60025490441,-16,0,15,-17,-13,-6,-14,0
60025495907,-8,-1,22,45,33,-8,-9,1
60025495907,16,3,15,24,1,0,-6,15
60025511567,38,10,11,19,7,-1,-9,11
60025511567,48,-2,15,-10,2,4,23,16
60025518373,15,0,8,-4,5,-3,-3,-1
60025518373,-18,1,0,15,22,-2,-20,-9
60025534042,5,-1,-22,-8,-41,-2,-26,-4
60025534042,-12,-1,-13,-25,-12,-2,-27,-10
60025540937,-4,4,-17,-47,-55,1,-23,-18
60025540937,-16,1,-10,-21,-12,-1,-32,-24
60025549077,-8,0,-12,-21,-31,-3,-39,-33
60025549077,22,-7,-8,-6,-13,6,-12,-27
60025555890,-10,-4,-14,-24,-9,0,13,-36
60025555890,-1,-14,-16,-21,-15,-1,13,-44
60025571570,-10,-8,-13,-20,-13,3,23,-27
60025571570,5,-2,-6,2,4,-2,13,-23
60025578404,30,-8,0,53,54,4,50,1
60025578404,24,2,6,1,-17,2,24,9
60025594001,0,14,9,40,47,-1,40,28
60025594001,14,19,6,68,44,-1,53,51
60025600872,-13,6,8,24,4,-2,17,32
60025600872,-29,2,-2,1,7,2,0,3
60025609048,-10,-4,3,-43,-13,0,4,6
60025609048,-22,3,2,-29,-19,-8,4,11
60025615840,0,6,3,4,19,0,39,23
60025615840,-1,-10,17,14,13,-4,13,-28
60025631573,30,-12,16,-7,17,5,30,14
60025631573,50,-37,58,7,34,60,31,-14
60025638444,112,-24,-62,82,47,52,-52,92
60025638444,22,-54,-106,116,117,-3,64,127
60025654119,-98,36,-75,10,-12,-58,-115,88
60025654119,-78,52,-128,127,118,-62,-7,65
60025660837,57,35,-89,-37,-14,-71,-45,-115
60025660837,91,87,99,-106,-93,-15,-119,-124
60025668347,-12,-6,107,-90,-90,42,-33,-128
60025668347,-13,-41,124,-72,-66,9,45,-47
60025677277,-40,-45,110,52,77,32,124,63
60025677277,-19,-59,96,127,119,2,127,99
60025691549,-42,-51,45,-9,2,-7,19,84
60025691549,-111,-11,-51,-93,-125,-8,-117,44
60025698324,-97,13,-114,-128,-123,0,-72,73
60025698324,-24,33,-128,-83,-72,-11,-49,114
60025714003,38,32,-71,26,34,6,34,74
60025714003,45,10,-63,17,48,-6,29,-35
60025720801,19,-2,-10,20,40,2,5,-106
60025720801,-1,4,9,36,52,22,-6,-117
60025728281,37,3,-14,71,69,12,17,-91
60025728281,32,2,-9,56,51,-5,-1,-42
60025743310,-12,8,31,18,35,-5,25,-3
60025743310,-7,9,20,-8,-10,9,15,14
60025751502,44,-4,-15,25,30,-1,44,21
60025751502,50,5,27,46,44,1,37,37
60025765853,-2,12,44,26,26,6,-12,38
60025765853,-14,6,-13,7,4,-9,-36,-1
60025774011,36,-8,-33,-13,-23,-14,-33,-4
60025774011,11,-13,-7,-37,-42,-4,-46,-11
60025780812,-26,-14,3,-45,-46,-1,-29,-38
60025780812,-60,-17,-32,-102,-93,-7,-55,-67
60025788305,-71,-13,-19,-67,-77,-9,-63,-69
60025788305,-66,-4,7,-81,-113,1,-64,-68
60025803451,-26,-8,-5,-77,-81,-7,-30,-14
60025803451,6,-5,-7,-56,-37,3,7,19
60025811562,23,1,6,26,41,9,33,39
60025811562,38,7,-4,32,60,1,30,44
60025818346,27,6,2,45,61,1,36,37
60025818346,-15,0,1,29,31,1,-15,-9
60025834075,-30,1,4,39,46,12,-5,-41
60025834075,59,2,-18,-24,-21,-2,37,63
60025840903,-29,-6,17,-11,-28,-9,-17,-15
60025840903,42,-3,-4,-39,-43,-6,13,35
60025848404,4,2,18,47,48,-5,15,-15
60025848404,-29,6,26,42,38,2,-18,-41
60025863387,57,-1,0,-8,-6,-4,16,14
60025863387,48,3,-24,-29,-30,1,38,51
60025871659,31,-1,7,25,27,2,22,9
60025871659,3,-16,-2,8,3,-1,-4,-3
60025878382,-29,8,10,32,26,0,-13,-26
60025878382,-54,-5,13,38,26,4,-14,-19
60025894826,8,-6,-17,-20,-19,-2,-1,17
60025894826,-40,-3,-4,-18,-12,3,-12,-12
60025900894,-42,-6,-6,-25,-23,-1,-15,-9
60025900894,-24,0,-2,3,-11,-4,-9,-15
60025915804,-6,4,-8,-28,-19,0,-9,8
60025915804,9,4,-3,11,7,-4,-3,1
60025923372,3,3,-1,6,12,1,3,9
60025923372,16,3,5,-8,13,5,11,-3
60025932420,5,-5,9,10,15,-2,5,-2
60025932420,7,2,1,11,2,-3,2,-3
60025938374,12,-5,-4,-9,-9,0,1,3
60025938374,0,0,5,19,14,2,-6,-6
60025954827,9,7,-3,12,1,2,3,18
60025954827,7,6,-5,-5,1,-3,5,18
60025960911,-6,-3,-2,-5,-14,2,-8,-1
60025960911,-9,0,-3,-7,5,3,-5,-16
60025975842,-14,-5,-8,-42,-33,-3,-11,-15
60025975842,-19,-2,-9,-55,-51,-3,-22,-10
60025983352,-13,-3,-11,-32,-41,-12,-14,-15
60025983352,-1,-3,-7,-27,-12,-4,-11,-16
60025992428,32,-2,-10,-38,-37,-8,-11,2
60025992428,-2,2,0,-14,-9,-1,0,-4
60025998338,-40,-1,6,5,9,0,-9,-3
60025998338,-30,4,-3,9,-27,3,-9,-11
60026014813,-21,1,-3,-18,3,7,4,9
60026014813,10,-3,9,-5,29,12,3,-7
60026020807,26,-10,-4,-26,-1,-3,35,37
60026020807,44,-8,7,22,58,1,24,22
60026035821,31,-4,26,61,74,-1,30,11
60026035821,22,-9,28,46,65,7,14,0
60026052207,-16,16,44,72,100,1,10,-31
60026052207,20,2,34,-10,21,-5,20,10
60026053794,1,6,3,-17,6,-7,-2,7
60026053794,1,6,5,-17,-45,-14,-14,1
60026058292,9,-4,-11,22,-31,-1,-4,3
60026058292,-18,-3,5,46,28,0,3,-12
60026074803,-17,-18,9,-22,17,14,-15,-9
60026074803,-7,-7,-5,27,-27,-10,-12,0
60026080796,0,3,0,22,-17,-3,-13,-4
60026080796,3,23,0,43,-16,-3,19,5
60026103985,-12,35,-28,65,12,0,-46,-18
60026103985,-14,27,-53,3,-25,-2,-9,-5
60026104754,17,20,-56,-31,-58,-7,-19,5
60026104754,-5,-5,-54,-44,-37,-2,-19,0
60026112377,-9,-15,-40,-53,-40,-3,13,10
60026112377,-8,-15,-23,-62,-49,-8,20,10
60026118371,-14,-20,-7,22,103,-1,-38,-28
60026118371,-21,-5,15,39,33,5,4,-7
60026143031,-21,18,69,27,17,3,-9,-38
60026143031,25,1,-4,-75,-80,-13,26,64
60026143803,5,16,-8,-78,-54,-5,-11,0
60026143803,-39,-20,-29,-47,-25,15,-30,-27
60026155789,16,-14,-11,-15,-18,-1,9,26
60026155789,-18,21,8,9,25,1,-7,-24
60026163398,30,1,25,-27,-1,-7,14,28
60026163398,40,10,1,-26,-30,-12,-8,34
60026172353,-18,-8,9,16,26,7,-12,-28
60026172353,-14,-10,25,12,35,4,27,-8
60026178369,-6,-3,31,51,26,9,-26,-12
60026178369,-5,7,23,36,21,-8,9,-17
60026194843,13,-3,-7,-11,-6,1,15,17
60026194843,8,-5,2,13,19,6,-12,-13
60026200850,-23,-2,-17,7,-22,2,-12,-11
60026200850,-16,-5,-14,-15,-34,-13,-6,1
60026215896,-6,2,-9,-21,-30,-10,11,4
60026215896,7,-4,-4,-3,25,5,-10,-2
60026223397,25,-3,-3,-47,-29,-6,23,14
60026223397,0,2,-3,-27,17,-11,-12,-4
60026232377,-17,-4,-15,8,-11,-11,-37,-8
60026232377,-33,-4,-5,-28,-30,7,-16,-21
60026238374,-10,1,0,8,5,-10,-10,13
60026238374,-12,1,-3,-41,-30,5,-6,-11
60026254854,8,4,-7,-18,-42,-3,4,9
60026254854,20,-4,-4,8,-17,5,17,12
60026260877,20,-13,19,40,11,9,11,0
60026260877,18,2,12,58,39,3,10,7
60026275874,34,2,49,13,18,-2,22,10
60026275874,-16,-1,23,14,52,1,-32,-19
60026283326,-39,-4,-16,-6,-24,-1,-4,-17
60026283326,-20,6,4,-38,-8,6,-6,-8
60026292385,-12,-13,-18,6,23,-8,-4,-7
60026292385,7,-6,-11,5,12,-3,5,6
60026305833,17,-1,-13,1,1,8,18,18
60026305833,19,-7,-1,43,13,2,18,17
60026322996,14,0,-18,28,14,5,32,18
60026322996,21,1,-26,31,22,3,26,10
60026323797,-20,1,-27,26,42,-9,-19,-20
60026323797,-26,-4,-9,-15,-42,-17,-35,-21
60026335842,-25,-6,27,-94,-60,9,-16,2
60026335842,-11,-41,34,-80,-67,-13,-22,-35
60026343337,1,-23,27,-39,-40,13,7,-31
60026343337,34,-13,-2,-3,37,4,9,-18
60026360476,104,41,-25,81,123,7,31,12
60026360476,116,31,-5,70,75,8,27,25
60026361270,127,14,-21,10,-52,-7,-8,6
60026361270,-31,-35,-8,-13,-99,-8,-45,4
60026374810,-110,83,-12,-2,-85,-9,-48,-9
60026374810,-128,33,6,15,17,7,-40,18
60026380780,-128,21,2,-2,28,-12,-39,-4
60026380780,-84,2,4,7,13,-6,21,-60
60026395817,35,-32,9,-21,7,-1,72,-12
60026395817,63,-10,2,15,20,3,35,30
60026403333,44,-9,9,44,44,-6,26,54
60026403333,12,-14,4,-10,3,-7,13,8
60026418983,-11,-35,-6,-54,-36,-8,21,-17
60026418983,29,3,0,-13,-18,-11,21,8
60026419749,-11,-9,-8,-9,-14,-1,-29,20
60026419749,-40,6,-16,-57,-65,5,-64,11
60026434827,-56,-16,-23,-28,-43,-6,-90,-30
60026434827,7,-16,-2,8,-5,4,-23,5
60026440787,30,12,2,-2,8,3,-15,10
60026440787,52,8,11,32,53,3,0,28
60026464087,45,3,0,-9,-21,-8,-15,-20
60026464087,-17,-3,-13,-14,12,-7,4,-57
60026464838,-35,-3,4,-22,-5,0,51,-20
60026464838,62,11,24,50,65,7,47,69
60026479095,-22,-14,6,3,22,-2,-20,8
60026479095,16,-6,-10,-50,-44,-9,-21,26
60026479803,-34,-1,1,-33,-9,2,17,-15
60026479803,-48,1,-9,-15,-11,-7,15,-20
60026494863,0,-4,-5,8,2,5,28,18
60026494863,-22,3,10,68,45,5,-8,-14
60026500817,21,-5,5,9,12,1,3,-9
60026500817,50,11,8,29,35,3,12,0
60026515874,29,0,6,39,32,1,25,16
60026515874,8,2,6,-6,9,-3,4,6
60026523374,13,-1,2,10,-6,1,-5,11
60026523374,19,6,-3,11,-5,3,-1,-8
60026539159,-2,-4,-1,0,-1,-3,-4,-10
60026539159,-19,-4,-9,-22,-39,1,-4,-11
60026539874,4,-3,2,1,-2,2,7,-2
60026539874,19,1,-1,-11,9,-1,-2,-7
60026561580,3,3,-4,14,13,-2,-11,-5
60026561580,2,1,-4,-8,-23,-4,-3,-10
60026562377,-13,1,-3,-24,4,0,0,-19
60026562377,-27,6,-6,-10,-10,-5,-20,-18
60026575934,-30,-8,-8,-18,-24,-5,-7,1
60026575934,-23,-6,1,-13,-14,-7,-12,-2
60026583447,-18,4,-5,-35,-23,1,8,-8
60026583447,-23,-3,-17,-22,-16,-7,-30,-12
60026599037,-9,-3,-5,-30,-23,-6,-21,4
60026599037,-18,0,-1,-16,-8,-3,-3,-6
60026599791,-3,-1,2,29,-6,-9,-15,-2
60026599791,9,3,-8,-16,-10,5,15,-1
60026614964,20,0,5,5,-4,-1,2,12
60026614964,-4,3,-9,4,7,-4,-11,-13
60026620933,7,2,5,-14,-2,-2,5,4
60026620933,14,2,4,10,6,1,16,7
60026635903,14,-1,7,18,26,5,15,6
60026635903,11,-3,12,22,25,3,4,3
60026643401,9,-4,3,10,9,4,-1,-2
60026643401,7,-1,3,12,7,-1,4,-3
60026658382,5,1,-2,-10,-10,4,2,-2
60026658382,-11,-1,-5,-12,-12,-5,-1,-2
60026665877,-4,-3,-11,-12,-6,-4,-21,-3
60026665877,4,1,-5,-35,-35,-7,-2,5
60026674823,-19,-1,-34,-6,-23,-10,-12,-11
60026674823,2,3,-1,-3,-3,2,-31,12
60026680842,16,-6,-4,-18,-15,-2,10,9
60026680842,18,0,-1,-26,-10,1,10,15
60026695800,-7,0,10,14,16,-1,12,6
60026695800,-13,-5,-10,-16,-27,1,12,-6
60026703345,11,8,-4,-13,-5,1,-12,-8
60026703345,-1,0,9,19,24,11,-11,1
60026718341,5,0,4,27,21,2,-2,0
60026718341,-12,-7,5,22,11,-3,-4,3
60026725807,15,-3,9,19,4,7,22,8
60026725807,5,-1,5,21,39,11,34,-4
60026741499,-33,-3,7,9,21,1,4,-22
60026741499,-54,1,-7,-29,-31,-9,-34,-25
60026742280,-46,2,-14,-32,-34,-12,-49,-25
60026742280,-6,0,-16,-21,-34,-6,-22,-19
60026755893,-5,3,-5,-35,-26,0,-27,-4
60026755893,16,2,-7,4,1,-1,20,-1
60026763367,20,-2,7,11,22,1,6,3
60026763367,-8,1,5,7,9,-3,-8,9
60026778376,-6,-6,-1,-16,-6,-2,-6,2
60026778376,9,1,-5,5,7,-1,-4,5
60026785902,23,0,-9,-19,-13,2,12,15
60026785902,27,1,3,-14,-8,-11,0,13
60026801478,4,-2,20,58,58,-1,6,16
60026801478,20,-4,15,48,34,2,21,21
60026802267,1,-3,4,7,11,-1,-6,4
60026802267,-1,3,2,-10,-6,0,4,-7
60026817411,27,-7,2,-11,-6,5,17,4
60026817411,-3,-9,-3,-14,-5,-6,5,-5
60026823381,-30,-3,-8,-29,-21,-5,-14,-3
60026823381,-22,-5,-5,-4,-21,-8,-15,4
60026838444,10,3,-5,-29,-42,-5,-6,4
60026838444,-25,2,-3,-21,-10,3,-26,-23
60026845926,-12,22,-2,58,38,-3,4,-5
60026845926,34,3,22,42,47,6,28,22
60026861550,17,8,7,-3,17,4,5,3
60026861550,37,0,6,16,30,-1,7,0
60026862353,24,-7,4,10,20,1,14,9
60026862353,-13,-3,-3,10,17,-8,-26,-13
60026875932,-26,0,-29,-49,-67,-8,-22,-17
60026875932,-12,1,2,-37,-26,3,-11,5
60026883349,-4,-6,13,18,23,1,-3,4
60026883349,-25,2,-11,-24,-19,0,-14,-15
60026898407,19,-1,1,7,2,4,14,6
60026898407,25,0,1,-11,-1,5,15,9
60026905968,-36,-2,3,2,11,-10,-33,-28
60026905968,-21,-1,-26,5,-38,-7,-22,-26
60026921595,4,-6,1,-2,-2,-3,-8,-1
60026921595,-19,3,-12,-15,-15,-4,-12,-18
60026922355,-16,2,-9,-69,-65,2,-10,-13
60026922355,-5,-5,0,-27,0,4,6,-15
60026935874,-3,-4,-3,19,34,-3,-16,-24
60026935874,14,0,-4,-1,-21,-2,1,-7
60026943377,34,2,3,13,-3,3,38,5
60026943377,0,0,2,6,20,0,16,7
60026958378,28,3,7,7,25,5,38,28
60026958378,13,1,23,30,74,1,36,29
60026965966,19,4,19,79,73,-3,48,22
60026965966,-18,-9,-11,21,-27,-17,-2,-25
60026981647,-45,-2,-17,-63,-67,-3,-2,3
60026981647,-3,-7,-18,-48,-45,-14,13,-12
60026982310,76,-27,7,-11,8,-3,62,-70
60026982310,127,-104,58,12,62,111,109,-88
60026995956,127,74,100,35,113,-104,92,76
60026995956,-124,-74,-107,80,62,106,65,85
60027003383,-114,56,-114,56,-44,25,-79,-59
60027003383,-103,111,75,109,127,-46,-7,-67
60027018371,63,68,-54,-125,-128,127,-47,-128
60027018371,87,78,68,-95,-77,-74,-84,-128
60027025882,127,-100,127,-86,92,-34,-79,127
60027025882,75,-70,45,46,65,-13,19,114
60027041551,11,-87,127,127,127,-13,112,127
60027041551,-54,-48,127,100,-22,-40,40,69
60027042324,-124,-16,98,-112,-128,-6,-105,-34
60027042324,-128,0,-68,-128,-128,-50,-113,-5
60027057316,-128,-43,-107,-106,-95,-29,-128,-99
60027057316,-52,35,-128,-128,-110,-1,-69,-88
60027063413,65,-10,-125,89,84,0,91,64
60027063413,87,19,-69,103,115,29,119,112
60027078340,22,3,-36,127,127,8,127,69
60027078340,105,-18,75,126,127,17,83,25
60027085836,92,24,116,74,101,5,39,-49
60027085836,11,31,23,-92,-72,-10,-84,-29
60027101506,-98,2,-67,-107,-105,12,-128,-63
60027101506,-92,13,-36,-110,-45,-8,-69,-37
60027102261,-36,9,-32,2,34,16,44,-38
60027102261,75,12,-13,79,104,14,18,-21
60027115804,71,3,37,85,114,-8,-48,-18
60027115804,120,40,24,122,127,12,47,40
60027123311,103,15,-36,14,15,-2,115,100
60027123311,23,0,-12,15,12,-18,81,88
60027138342,-34,-33,12,-10,-34,-19,-7,76
60027138342,-72,-45,-22,-81,-77,-13,-76,-31
60027154045,-128,-8,-55,-118,-128,10,-128,-110
60027154045,-128,-15,-42,-128,-128,-6,-128,-128
60027161477,-45,15,-26,-117,-110,-5,-94,-106
60027161477,-13,28,-41,-64,-77,-7,-57,-80
60027162278,-44,4,-40,-57,-62,-13,-19,-45
60027162278,-30,22,15,9,16,6,63,20
60027175808,-20,-1,37,73,55,5,58,25
60027175808,6,-14,54,64,50,9,37,29
60027183323,-55,-1,44,37,15,12,17,6
60027183323,-47,13,16,-7,-14,1,-5,5
60027198386,6,-1,-1,-11,4,10,13,11
60027198386,34,23,-6,2,44,-1,14,23
60027205858,51,-26,-11,38,45,0,25,33
60027205858,72,11,-9,42,37,1,5,22
60027221487,40,14,-1,17,21,-2,-3,6
60027221487,29,-5,-22,-7,8,-4,4,36
60027222258,9,22,-13,-6,-15,-2,-11,11
60027222258,15,-19,-23,-8,-24,-3,-26,4
60027235818,8,1,-6,-3,-15,-5,-4,7
60027235818,1,-9,1,31,9,-4,13,2
60027243342,-7,-28,-5,21,21,1,2,0
60027243342,13,-41,11,-54,-23,-1,-11,26
60027252396,27,-12,4,-49,-2,-6,14,14
60027252396,4,-6,9,19,44,13,-1,-7
60027265935,-50,19,18,12,13,-31,4,-44
60027265935,62,9,-12,-19,-35,-15,-8,39
60027274920,-5,4,29,26,0,-6,27,-1
60027274920,-12,-1,26,-35,-39,-12,-38,2
60027280904,-70,21,13,10,-9,6,-13,-26
60027280904,-27,3,39,31,44,15,14,-12
60027295905,6,1,8,-10,12,4,-11,3
60027295905,-7,6,-17,-4,3,-2,-4,-15
60027303454,34,-4,-21,-3,7,4,16,32
60027303454,-11,8,-14,-13,6,6,-12,-22
60027318461,-24,4,-36,-44,-37,-2,-31,-20
60027318461,-20,-25,-20,-21,-18,-1,6,-12
60027325948,6,52,-16,-43,-36,-10,-19,3
60027325948,-29,8,-11,-53,-43,-9,-32,-31
60027334860,-26,30,-2,-23,-26,-1,-27,-30
60027334860,28,42,5,-9,-14,-9,-4,13
60027340950,8,49,-1,-24,-26,-8,-42,-4
60027340950,-19,-7,4,9,8,2,24,-12
60027355918,-3,26,-10,34,24,-5,-21,3
60027355918,-9,-17,17,-11,-4,-8,42,24
60027363491,-6,-29,3,14,16,7,-20,-5
60027363491,23,32,38,51,35,-5,17,20
60027379858,23,-11,-4,22,38,11,36,13
60027379858,9,19,-7,37,39,1,-29,-11
60027385936,3,-3,-10,8,16,5,25,13
60027385936,12,8,-11,-5,-10,-2,-37,-3
60027394900,27,-8,5,-5,-14,-18,13,6
60027394900,3,-1,3,11,16,-4,2,-4
60027400884,-16,4,12,-2,15,5,-22,-25
60027400884,-11,-2,-17,3,1,-4,6,6
60027415847,14,-6,10,23,29,2,3,13
60027415847,-39,8,9,1,2,3,-14,-18
60027423383,3,-5,7,-29,-37,-7,25,13
60027423383,0,3,-10,31,27,6,-33,-14
60027438402,-5,-10,-8,3,-3,-3,-4,-7
60027438402,0,11,-28,-27,-21,-1,2,-8
60027445899,0,1,1,3,-4,-3,18,23
60027445899,21,19,8,5,0,2,13,-12
60027463029,-58,-1,1,-10,-7,-5,-21,-30
60027463029,18,-9,0,-21,-14,1,-10,9
60027463834,5,2,-5,30,0,1,-8,-26
60027463834,-39,-8,11,-27,-22,-3,18,-9
60027475923,-38,-1,0,-10,-26,-1,-31,-23
60027475923,77,12,3,-32,-26,-2,34,58
60027483402,-2,0,12,-4,20,8,-8,-2
60027483402,14,-5,4,0,9,-5,6,-2
60027498404,18,-10,-4,8,2,5,35,31
60027498404,-8,-14,-5,26,24,4,-13,-6
60027505939,32,2,-11,-17,-21,-3,3,16
60027505939,14,5,-25,1,-2,-11,3,-10
60027514953,28,-28,-1,26,23,-6,-5,-2
60027514953,-14,-36,-1,12,16,3,11,-21
60027520913,-10,5,-6,-2,12,2,13,2
60027520913,-10,2,4,14,7,-2,-5,-5
60027535946,-1,0,0,-21,4,4,-3,-7
60027535946,-48,20,-23,-15,-22,-11,-70,-37
60027543459,-5,-15,13,16,-1,7,25,9
60027543459,8,-7,4,-20,-2,-1,-10,7
60027558415,-26,28,7,-34,-15,-7,1,-11
60027558415,-21,-11,3,3,-20,19,2,-10
60027565875,-34,4,11,-15,-13,-16,0,8
60027565875,-27,7,-7,1,6,9,-34,-23
60027574917,30,5,-2,-14,-7,-14,17,24
60027574917,10,3,12,-2,16,3,32,24
60027580906,36,0,-23,-27,-30,-16,-9,16
60027580906,5,-2,-3,-13,-11,-5,0,-2
60027595929,-12,3,7,34,33,8,-15,-24
60027595929,27,2,11,-24,0,-9,1,10
60027603331,74,-11,-31,-76,-51,-4,19,47
60027603331,-33,1,6,7,-4,-2,-5,-26
60027618386,-1,-3,6,11,4,5,15,12
60027618386,-35,12,13,21,33,-3,0,-17
60027625898,-61,-7,6,49,45,-3,-32,-26
60027625898,-12,-1,-3,-23,-10,4,8,18
60027634870,0,24,-20,-24,-32,-6,-21,-6
60027634870,9,-9,-10,-10,-21,-10,-7,-3
60027649154,17,2,11,-1,16,16,14,1
60027649154,22,-7,4,29,22,-6,-9,5
60027655855,-5,-2,1,5,-4,1,-2,-7
60027655855,18,-3,9,-5,15,1,11,17
60027663430,14,3,5,4,24,-3,9,3
60027663430,3,-4,-24,19,-14,-13,-40,-17
60027678503,21,-16,1,-45,-21,-1,8,27
60027678503,8,16,-7,7,3,-6,-11,-10
60027685928,-32,-7,2,-7,9,-10,-22,-18
60027685928,-9,2,8,-6,16,3,8,7
60027694920,8,0,-5,-14,-24,7,-5,13
60027694920,7,-4,-2,-4,-12,0,-10,2
60027709051,6,-2,14,-13,-6,17,-10,-12
60027709051,0,-18,15,41,24,7,5,6
60027715928,-1,-29,58,38,-1,-2,-17,-2
60027715928,15,-34,41,-69,10,-5,21,15
60027723473,-9,-38,-13,-13,10,-11,-5,-13
60027723473,-4,76,-64,-23,-11,-18,17,-13
60027738468,-16,-24,-116,2,-35,-13,-5,-50
60027738468,-20,-21,-86,22,-46,-17,2,-48
60027745876,6,-74,-39,18,-17,-8,7,-28
60027745876,-3,-86,9,13,2,5,-13,-1
60027754923,10,116,33,16,12,2,-9,12
60027754923,29,53,48,58,34,19,-5,17
60027769098,23,61,39,38,13,6,-20,7
60027769098,22,20,48,15,13,7,-5,33
60027775909,-6,-66,30,24,33,-2,-36,17
60027775909,-40,-28,8,-7,-13,2,-34,-27
60027783534,-2,-11,9,-26,-1,5,3,-39
60027783534,-34,-19,-1,-89,-18,13,-23,-67
60027798411,-47,-23,-15,-88,-30,-19,-45,-62
60027798411,-115,29,-44,-76,-80,-21,-91,-47
60027805892,-104,-6,-36,-68,-99,-19,-82,-9
60027805892,-38,9,-1,1,-30,-15,19,66
60027814999,21,16,12,19,51,6,96,93
60027814999,98,-10,39,84,119,8,127,86
60027829144,81,26,19,92,127,11,113,11
60027829144,63,-3,3,52,74,-3,53,-18
60027835854,26,-1,-6,10,5,9,-3,-15
60027835854,18,-6,1,-6,-3,3,-43,0
60027843399,7,4,4,-38,-15,1,-29,3
60027843399,13,3,7,9,3,4,24,-2
60027858425,68,-7,12,54,49,15,71,46
60027858425,110,-3,21,81,95,10,85,69
60027874743,95,3,35,98,85,4,73,69
60027874743,-58,-9,-12,-41,-54,-20,-37,37
60027876348,-102,-7,-79,-94,-82,-23,-105,-60
60027876348,-128,0,-72,-128,-128,-19,-128,2
60027889080,9,34,-19,-9,-14,1,39,17
60027889080,56,21,29,74,58,5,74,-52
60027895857,45,17,28,38,42,3,80,-75
60027895857,34,0,22,41,64,2,61,-51
60027903356,9,-15,9,4,2,1,-96,-2
60027903356,77,-21,-2,-31,-3,3,-103,18
60027918336,28,-16,9,25,37,4,-63,-24
60027918336,42,-4,10,-9,-8,3,24,5
60027925805,-64,-2,-3,-6,-15,-8,27,-2
60027925805,-84,-6,-12,-1,-35,-5,8,11
60027934849,-82,-12,-16,-16,-27,-9,-16,35
60027934849,-32,-10,1,-20,-22,6,16,50
60027949030,-35,-4,5,-15,1,-3,-10,27
60027949030,-10,-13,-6,-6,-6,-8,-3,14
60027955831,18,-8,8,-34,10,19,23,8
60027955831,13,15,2,-30,11,-15,-66,-54
60027963319,-38,7,-22,-105,-94,-10,-44,-84
60027963319,-40,20,-22,-48,-81,-15,-82,-62
60027978365,-8,4,-6,-66,-70,0,-25,-15
60027978365,-9,-1,-28,-27,-32,0,-2,-56
60027985876,23,12,-10,32,11,11,20,-26
60027985876,36,8,16,2,46,13,51,27
60027994847,11,-4,29,82,47,-1,8,29
60027994847,17,-11,36,58,14,0,27,47
60028009113,18,-7,76,116,85,-6,11,42
60028009113,31,-2,108,71,66,8,56,42
60028015884,61,1,127,55,47,1,47,30
60028015884,38,6,-19,60,59,1,34,4
60028023341,-65,0,-107,-74,-87,-13,-70,-63
60028023341,-78,4,-128,-128,-128,-12,-73,-66
60028038414,-53,6,-114,-99,-82,-12,-48,-32
60028038414,-40,-2,-69,-22,-27,0,-8,-18
60028045853,5,-4,-55,-18,-30,-9,-20,-2
60028045853,3,-12,-64,-37,-2,14,29,-1
60028054808,30,-9,4,11,28,-7,-13,20
60028054808,-14,-4,25,15,27,10,9,-2
60028069128,7,-3,37,-5,2,1,12,22
60028069128,19,-3,28,19,15,-3,-3,18
60028075899,7,2,-14,6,7,-2,14,6
60028075899,-13,3,-8,-40,-35,1,-10,-7
60028083355,4,-5,-4,-15,1,-2,11,0
60028083355,3,-1,9,35,25,4,8,1
60028099877,-25,-1,-19,-4,-25,-5,-3,-6
60028099877,-13,-2,-7,-2,-8,5,-3,-1
60028105896,18,-4,26,15,1,4,13,3
60028105896,9,-4,30,47,13,-7,11,3
60028114893,-2,-2,12,22,-4,-3,-9,-4
60028114893,5,-3,37,9,5,11,24,9
60028129093,25,-10,35,22,21,-13,-33,8
60028129093,9,1,11,-15,-10,0,7,-11
60028135877,6,-7,-2,-7,10,17,18,-8
60028135877,12,2,18,6,2,-14,-14,-34
60028143367,9,6,11,9,31,6,34,-111
60028143367,46,-2,41,98,93,13,36,-103
60028158376,16,9,8,11,11,-8,16,82
60028158376,-38,-8,-28,-65,-61,-18,-44,113
60028165872,-69,0,-59,-120,-92,-2,-49,127
60028165872,-39,11,-37,-86,-81,-18,-45,102
60028174832,-36,-2,-32,-53,-29,0,-26,11
60028174832,-19,4,-14,-48,-40,-8,-24,-3
60028189013,-11,1,-6,7,1,5,9,-18
60028189013,1,5,-9,-9,6,6,14,-14
60028195845,16,-1,11,37,27,6,21,-31
60028195845,26,2,24,93,51,-1,23,-27
60028203358,47,-1,31,72,49,10,47,-14
60028203358,30,-2,14,44,40,10,23,-11
60028218463,27,-11,8,31,22,-3,11,-33
60028218463,25,-6,8,21,20,4,10,-55
60028225903,-10,5,-4,-7,-15,-2,-6,-34
60028225903,-13,5,-7,-36,-15,-5,-38,-6
60028240833,-12,6,-13,-21,-17,-3,-10,-19
60028240833,16,-2,1,-12,0,-3,-17,-17
60028249062,7,6,10,8,17,11,2,24
60028249062,-17,-3,7,-11,16,1,4,20
60028264034,-16,-17,7,-18,4,-5,-9,4
60028264034,-57,1,-4,-28,2,1,14,6
60028264788,-22,1,-12,-46,-14,-8,-15,-9
60028264788,-4,-5,-5,-24,-6,-2,7,-2
60028278373,9,-8,0,-1,0,2,11,-6
60028278373,14,-11,-5,-9,-21,-3,-28,-8
60028285870,4,-17,-5,-4,-4,0,-19,7
60028285870,7,6,-2,6,-9,-4,1,4
60028300832,22,-5,9,-15,14,-4,53,-35
60028300832,40,0,-15,-5,-19,-4,28,14
60028309088,-8,-6,5,40,-4,-5,0,29
60028309088,-93,-16,-36,-81,-89,-18,-60,-10
60028324007,26,13,-8,14,-14,-10,-67,-13
60028324007,22,12,9,53,23,7,10,57
60028324797,-59,7,4,8,17,2,-16,27
60028324797,-5,15,5,20,33,9,-23,-42
60028338371,-22,11,15,3,42,9,7,-50
60028338371,19,5,63,86,100,14,36,-60
60028345862,127,0,-30,-31,-9,-5,103,106
60028345862,74,-6,61,116,118,12,108,60
60028360888,19,-18,6,10,-5,-15,-4,0
60028360888,-41,-10,-20,-42,-50,-9,-64,-44
60028369031,-85,-3,-32,-57,-72,-15,-81,-44
60028369031,-68,-2,-52,-80,-102,-18,-37,-5
60028384011,-32,1,-27,-59,-69,-5,-6,-8
60028384011,-35,-2,-15,-44,-30,-10,-10,-31
60028384805,-32,2,-6,-35,-20,-2,-25,-79
60028384805,17,-1,-15,-39,-25,-8,-32,-32
60028406515,-13,10,1,10,11,3,-28,2
60028406515,-9,3,0,-6,6,-1,-3,13
60028407289,28,8,20,12,26,7,13,-7
60028407289,31,4,14,36,31,8,23,12
60028420884,9,3,10,9,14,5,12,41
60028420884,2,-7,-3,-18,12,-3,7,17
60028429110,21,0,15,8,39,1,3,-3
60028429110,16,-7,1,-9,2,-2,-11,12
60028444031,-24,0,-10,-21,-6,-1,-5,11
60028444031,-2,0,-11,-28,-22,-7,-5,-6
60028444781,-8,-5,1,7,-10,1,-6,-18
60028444781,-8,-1,-3,-8,-20,-3,-3,1
60028458477,-17,3,-10,0,-16,-6,-7,7
60028458477,-17,3,-1,-1,-9,2,2,2
60028465885,-6,-4,4,11,7,2,1,-7
60028465885,-7,-2,4,24,9,-3,-3,-3
60028480922,5,-1,6,16,8,4,4,0
60028480922,7,0,-4,4,1,-3,3,3
60028489017,10,1,-2,-2,-3,1,4,-2
60028489017,12,-1,-4,6,-2,0,3,-7
60028504050,5,0,-5,1,-13,2,-9,9
60028504050,-5,-6,-5,-4,-9,-1,-9,-2
60028504843,-6,3,-3,-8,6,1,-4,-9
60028504843,5,0,1,-1,0,-3,1,2
60028526518,-11,-3,2,-13,-1,-6,2,4
60028526518,-1,-2,0,-9,-9,-4,-10,-1
60028527393,-12,-1,-2,-2,-6,-4,-1,-8
60028527393,2,0,-4,-3,-1,3,2,-1
60028540915,3,-8,-6,3,-14,-2,-8,2
60028540915,9,-1,2,1,-2,5,10,3
60028549104,8,-1,6,12,11,0,2,-5
60028549104,-14,-3,2,9,4,2,-3,0
60028563367,-29,-1,-2,18,-11,-1,-17,-6
60028563367,-17,-1,-7,-3,-2,4,2,0
60028571573,-3,3,2,2,5,-1,-2,-3
60028571573,11,0,-2,-7,-3,-2,4,5
60028586508,12,3,3,10,13,-1,7,2
60028586508,4,0,2,9,14,-2,2,0
60028587275,3,-2,1,7,8,-2,9,1
60028587275,5,2,-6,-10,-3,1,5,13
60028600885,-1,0,5,19,10,4,10,9
60028600885,11,-4,-5,-6,-4,-5,5,16
60028609094,0,-4,-3,1,4,-5,-4,-5
60028609094,-10,-1,-1,-5,-2,-4,-7,-5
60028623362,-3,4,-1,5,9,-5,-1,-9
60028623362,-4,1,-3,-6,-4,-3,-7,-10
60028631573,-5,-2,5,-7,-2,2,-5,-9
60028631573,-4,-3,-1,2,8,4,-5,-9
60028646523,6,1,-3,-20,-4,2,1,6
60028646523,-4,2,0,1,5,1,-6,-9
60028647292,8,3,-8,-13,-8,-3,-2,7
60028647292,4,-1,-2,2,3,-4,1,3
60028660843,7,2,-1,-7,8,-2,-6,3
60028660843,-8,1,0,0,3,-3,-6,-2
60028669093,-3,-1,-3,-3,-4,0,-1,-3
60028669093,-3,-2,0,-18,-2,-1,-6,-4
60028683367,1,2,-1,-8,13,4,-6,1
60028683367,1,1,9,21,6,-1,2,-3
60028691631,-3,-1,-2,-5,1,2,-5,2
60028691631,1,0,-4,-9,-5,-1,0,1
60028706544,1,3,-5,-15,-8,-1,3,0
60028706544,0,5,0,-3,-4,-2,-6,-1
60028707285,0,1,0,0,-2,-1,-2,1
60028707285,-1,-1,0,-1,0,-1,-1,0
60028720865,-2,-4,2,-7,-5,0,-10,-8
60028720865,-8,-2,-7,-18,-8,-1,-13,-10
60028729104,-5,0,-2,-7,-2,-4,-3,-2
60028729104,-1,0,0,-2,1,-3,-6,-2
60028743365,-1,0,0,-1,-4,-4,-14,-3
60028743365,5,-2,4,3,4,-1,-1,-1
60028751596,4,-5,-9,-9,-12,-6,2,14
60028751596,-1,0,8,11,11,2,-3,-2
60028766974,2,1,-5,-9,-4,-2,15,14
60028766974,2,-2,-7,-2,-5,2,-8,-13
60028767763,-5,4,9,7,11,-1,-3,-4
60028767763,1,4,-1,2,-1,-4,-6,-5
60028780846,-2,-1,1,-1,4,3,-3,-6
60028780846,-1,-1,-1,-2,0,1,3,2
60028789110,-8,-9,-6,-8,-10,-4,1,6
60028789110,-13,0,-3,-2,-7,-1,-2,-10
60028803465,-4,-8,3,1,1,-5,1,-6
60028803465,-3,10,3,-5,1,-4,1,4
60028811576,7,4,0,5,2,-1,-2,-5
60028811576,-3,-4,-4,-10,-4,-5,0,2
60028826540,0,-15,1,-3,2,1,-1,-5
60028826540,1,5,-1,2,0,1,2,0
60028827445,10,8,10,12,15,2,6,0
60028827445,2,33,-4,-1,-10,-3,-7,-2
60028840911,-3,23,-9,-12,-17,-4,-6,-5
60028840911,0,-9,0,-17,-14,-3,-6,-2
60028849110,0,-3,-1,-9,-14,0,-6,1
60028849110,4,-17,-5,-9,-7,-2,-4,5
60028863441,9,-15,-2,3,7,-2,5,2
60028863441,-22,-11,-1,8,0,-5,-6,6
60028871573,-15,-10,-1,7,5,-2,1,-6
60028871573,-13,-11,-3,5,1,-1,-3,3
60028886574,-18,14,-3,8,-6,-3,-8,-7
60028886574,-21,-5,-7,-23,-12,-3,-14,-7
60028887342,5,-21,-3,-6,-4,-1,-10,-4
60028887342,15,1,9,4,18,0,6,-2
60028900904,15,7,8,-14,16,0,-2,1
60028900904,23,10,4,-20,12,0,2,11
60028909090,-12,6,-3,-13,-2,0,-13,-10
60028909090,-8,2,-3,-1,-1,-2,0,-7
60028923471,14,-1,-7,10,-11,-5,1,9
60028923471,12,-9,0,8,-9,0,-1,5
60028931571,-2,13,2,3,-1,-3,-6,-1
60028931571,5,-2,-5,7,-4,-1,-10,5
60028946547,-26,2,-1,-7,-8,-4,-16,-9
60028946547,-4,4,-8,1,5,-2,5,0
60028947316,-10,-2,-8,-2,-10,3,6,0
60028947316,-4,0,-1,-10,0,3,0,-5
60028960879,6,-11,2,-9,-4,0,-4,4
60028960879,2,-3,-4,-2,-10,0,-1,-7
60028969071,10,0,6,12,8,0,-1,-2
60028969071,-6,0,-5,-8,-4,0,3,-4
60028983430,1,-2,-3,7,-3,-2,13,2
60028983430,5,-4,5,-1,6,3,5,7
60028991527,14,5,-1,-5,-10,-7,-12,-5
60028991527,-6,-6,-4,-10,-13,-4,1,2
60029006531,15,-3,-8,1,-4,1,3,3
60029006531,-5,9,6,15,19,1,1,3
60029007315,-5,0,-6,3,13,0,3,4
60029007315,-1,-7,1,2,4,-3,-8,-2
60029020884,-15,0,7,0,0,3,-8,-4
60029020884,-12,-5,-9,-7,-7,-1,-5,-4
60029029037,-6,-1,-1,-6,-3,3,1,-4
60029029037,-4,0,2,-12,1,-1,-2,0
60029043378,0,0,-3,-1,-7,-3,-6,-6
60029043378,5,2,-3,2,-2,-3,2,-5
60029051629,7,2,-2,-3,3,0,9,-1
60029051629,15,-1,-2,2,2,3,6,0
60029066528,31,0,-2,-9,-3,-3,1,17
60029066528,12,4,-2,-6,-5,-2,-4,2
60029067321,6,-2,5,5,5,-1,0,2
60029067321,-10,0,7,-2,5,1,-12,1
60029080900,-5,-2,13,-2,10,3,-10,-8
60029080900,-7,-5,1,-2,-1,-3,-6,-7
60029089109,-9,0,-10,-9,-10,-3,-5,-2
60029089109,-3,1,-7,-9,-9,-3,-5,0
60029103393,-9,2,-7,-6,0,-10,-2,-3
60029103393,-9,-4,0,-8,-5,-1,-7,-2
60029111613,-6,1,-1,-5,-6,-3,-10,-8
60029111613,-5,-2,-2,5,-2,-2,2,-3
60029126503,-7,-7,-6,-7,-2,4,17,-2
60029126503,16,-3,-7,-7,-10,-8,-8,14
60029127302,-5,32,6,0,1,1,-5,1
60029127302,15,0,-3,1,-2,-2,-10,1
60029140886,-6,22,0,2,5,3,2,-3
60029140886,-9,4,-3,0,7,3,7,-5
60029149108,0,-3,2,2,2,0,0,2
60029149108,-2,-4,1,-6,3,-2,1,-2
60029163388,-11,0,1,-5,0,-2,-6,1
60029163388,-4,0,1,-3,-1,-1,-4,-3
60029171623,1,-6,-2,-4,-1,-5,-2,0
60029171623,5,-2,3,-4,1,1,6,-1
60029186545,0,-8,-3,-6,-2,-1,-4,-7
60029186545,2,0,3,6,1,1,-5,-7
60029187312,7,-7,-1,-3,-2,-2,1,-1
60029187312,-1,-2,-3,-6,-2,-1,2,3
60029200893,-5,2,-2,-2,9,0,-7,-1
60029200893,4,3,-6,-14,-7,-1,2,3
60029209130,-3,-3,-5,0,1,-1,1,-8
60029209130,-11,3,3,-2,4,0,-3,-5
60029223363,14,-3,-8,-21,-14,-3,0,15
60029223363,-11,1,3,-1,4,1,-3,-6
60029231562,3,-3,-5,-7,-5,0,-12,2
60029231562,4,1,2,4,4,1,3,0
60029246583,-4,-3,-1,5,-4,-5,-7,-5
60029246583,-5,4,4,6,7,2,-6,-3
60029247438,8,-3,-2,-8,-5,-1,-5,7
60029247438,-6,0,4,2,1,-4,-5,-2
60029260862,1,2,0,-4,0,1,-9,-4
60029260862,-1,-5,-4,-6,-2,-4,1,3
60029269122,-8,-2,0,9,3,1,-4,-13
60029269122,-1,2,1,0,-7,-4,-3,-1
60029283445,1,-5,-2,-2,-3,-2,-3,-3
60029283445,13,2,-5,-2,-10,-4,-5,0
60029291568,-10,-6,2,1,3,-1,4,-3
60029291568,-2,2,-2,1,1,0,-2,-6
60029306582,3,0,1,9,-3,-6,-8,-5
60029306582,9,-1,-2,-5,-5,-2,-8,1
60029307409,-6,-6,-1,1,-2,-3,-8,-7
60029307409,4,1,-5,-7,-8,-1,1,0
60029320910,-10,-4,1,0,1,0,-9,-6
60029320910,-8,0,1,0,-3,-1,-3,-4
60029329053,1,-1,-3,3,-3,-1,5,4
60029329053,-8,0,0,-1,-2,1,-1,-2
60029343427,0,-5,-2,4,-4,4,10,-3
60029343427,-5,-4,0,2,4,-3,4,-1
60029351543,-3,0,-3,-2,3,-2,-4,-1
60029351543,3,-3,-2,6,-3,-7,-2,1
60029366568,-10,0,-3,11,3,-1,3,-6
60029366568,6,-4,-4,7,-9,-1,0,5
60029367410,0,-1,1,9,-1,0,2,2
60029367410,-1,2,-5,-9,-2,-2,-7,-1
60029380915,-3,-1,4,-15,0,0,1,0
60029380915,9,-3,-1,-18,4,0,4,3
60029389065,-6,-4,5,-8,9,0,3,-5
60029389065,15,-2,-9,-20,-10,3,-1,15
60029403452,1,-2,1,-3,1,1,4,2
60029403452,-5,3,0,7,8,2,-1,-6
60029411563,5,-1,0,4,0,2,1,4
60029411563,-8,-3,0,8,4,0,-9,-9
60029426574,-10,-1,1,4,4,-2,-10,-10
60029426574,6,1,-3,-6,-3,1,-6,1
60029427441,2,0,-3,-1,-8,2,0,-1
60029427441,-2,-3,-1,2,-4,-1,2,-6
60029450473,0,-1,-1,10,-4,1,1,1
60029450473,-15,-3,-1,11,-2,4,-2,-9
60029451222,1,-2,1,5,-1,-3,-6,-3
60029451222,-2,0,-1,12,2,0,4,0
60029463391,-1,-1,-4,-8,-7,-1,-4,2
60029463391,-3,0,-1,-6,2,-4,2,-2
60029471708,4,-3,0,-15,2,0,2,2
60029471708,-2,1,-3,-13,2,0,2,-1
60029485990,3,0,0,-16,-2,0,-3,-3
60029485990,-7,3,1,-7,7,0,-8,-1
60029494097,-2,0,-5,-9,0,-4,-3,0
60029494097,-5,-3,1,1,1,1,-3,-5
60029509860,-6,2,0,5,6,1,3,-2
60029509860,2,-1,-2,2,-1,-3,1,1
60029510593,7,-1,-6,-9,-7,-1,6,6
60029510593,1,-2,1,7,4,0,-9,-2
60029523468,12,-2,-9,-4,-10,1,7,11
60029523468,-7,-3,1,4,1,0,-9,-6
60029531626,5,0,2,-2,0,1,1,4
60029531626,5,0,-6,-1,-6,1,6,5
60029545997,-1,-2,2,6,2,-4,-7,-4
60029545997,-2,-1,1,-4,-1,-4,-6,-3
60029554158,-5,2,1,3,1,0,-2,-5
60029554158,0,-2,0,-7,-1,-5,-1,-1
60029560974,-6,-5,-1,-4,-2,-2,-7,-7
60029560974,0,-4,-4,-5,-1,2,0,3
60029569114,-2,-5,0,2,0,-2,-1,-4
60029569114,0,-4,-2,-6,-4,-3,-7,-3
60029583464,-3,3,-1,-7,0,-2,0,-3
60029583464,-3,0,0,1,2,-2,2,-3
60029592458,-3,-2,-2,0,-1,-2,-10,-3
60029592458,-1,4,3,-6,1,-2,-4,1
60029605951,2,-1,1,1,-1,1,-5,1
60029605951,-3,1,-1,-1,0,0,-4,0
60029615007,-4,2,1,-2,1,0,-11,-2
60029615007,-7,-1,-3,3,3,2,-10,-2
60029629896,-7,-3,0,-2,0,1,-10,-8
60029629896,-5,-5,0,-1,-2,-3,-4,-9
60029631483,1,-4,-4,-5,-7,-5,-4,11
60029631483,-1,-1,5,1,1,-4,2,-6
60029643502,-1,-4,-1,-2,7,2,2,4
60029643502,-2,1,-5,2,-12,-4,-13,-7
60029652476,-9,-2,0,0,2,-3,6,-5
60029652476,-3,-6,0,-3,-2,0,-4,0
60029665931,-4,2,0,0,0,-3,-5,-1
60029665931,1,-1,0,-2,-2,-4,-1,0
60029674983,-4,-2,-4,-1,-3,-2,-4,-5
60029674983,-5,1,-4,-2,0,-3,2,1
60029690534,4,1,-2,8,1,-5,-5,-3
60029690534,-4,-3,-2,4,-1,-2,-5,0
60029692086,0,2,0,1,-4,2,-1,-1
60029692086,2,-2,-1,2,0,-2,5,0
60029703508,-5,-3,-2,4,-1,-1,-2,-3
60029703508,4,-2,-4,-5,-7,-1,0,4
60029712496,-2,1,0,5,4,1,3,-1
60029712496,-1,-1,-2,4,0,-3,2,-2
60029725973,-1,0,0,0,-1,-4,4,2
60029725973,1,-3,1,0,-1,1,3,4
60029734978,-4,-3,0,3,5,-7,-1,-4
60029734978,-9,-3,-1,5,5,4,-3,-4
60029757331,0,0,-1,-3,-4,1,-1,1
60029757331,-3,1,-1,-3,-1,0,2,4
60029758866,0,-1,3,4,3,1,7,-3
60029758866,13,1,-5,-10,-6,-8,-8,12
60029763499,-2,1,-2,4,-1,-1,-4,-5
60029763499,-4,-4,1,-1,0,-1,4,3
60029772459,-6,8,-1,1,3,3,-6,-11
60029772459,6,0,-6,-16,-9,2,6,13
60029785934,0,-2,-3,4,-1,0,3,0
60029785934,-2,-2,3,4,5,0,5,0
60029794928,-1,-1,-4,-1,-2,-2,-5,-1
60029794928,-7,7,1,7,3,0,-6,-6
60029817376,2,1,0,3,-1,-2,0,4
60029817376,1,2,0,1,5,2,-4,-8
60029818878,1,-2,-3,-2,-3,-4,0,4
60029818878,2,-2,2,-2,-2,-1,5,-6
60029823497,-3,-4,-3,-9,0,-2,-1,-1
60029823497,-1,4,-1,-5,-3,-1,-9,-6
60029832467,2,0,-4,-10,-5,-2,-3,-1
60029832467,-7,-2,-1,3,3,-2,-8,-6
60029845972,-7,-5,2,-1,-1,3,-2,-2
60029845972,8,-11,-1,-2,0,-1,-1,2
60029854950,2,0,0,-1,3,0,-1,1
60029854950,-5,-2,-1,0,4,-2,-3,-8
60029869769,-1,1,2,-7,-1,-1,-3,-3
60029869769,-2,-1,-3,-3,2,-2,-6,0
60029871369,10,-3,-2,-8,-4,1,-7,5
60029871369,3,4,2,2,0,-2,6,-4
60029883543,5,0,-1,-6,-2,1,-1,5
60029883543,-3,2,-3,-4,1,1,0,0
60029892496,-3,4,-1,-3,-2,-2,-1,3
60029892496,2,-1,2,3,3,6,-1,-1
60029905954,-2,-4,-1,3,4,-2,-1,-1
60029905954,-7,-1,5,12,8,0,5,1
60029914929,9,-1,-2,-11,-4,-2,-4,6
60029914929,1,-3,-3,-4,-7,-1,6,4
60029929760,-5,1,1,-2,-1,-2,-1,-4
60029929760,-5,4,1,-6,1,-4,-10,-6
60029931426,-10,-2,3,1,0,2,-2,-5
60029931426,-2,3,-2,3,0,-4,-1,-2
60029943497,-5,-3,-3,-1,-1,-1,-3,-2
60029943497,4,0,-4,-4,-7,-4,-1,5
60029952416,3,0,0,3,0,1,-5,-2
60029952416,0,-2,1,-8,2,2,-4,-2
60029965936,-4,2,-3,1,-4,-1,-10,-7
60029965936,3,-3,-2,-11,-6,-2,-1,-1
60029974855,-2,-3,0,-1,-3,-3,-4,-5
60029974855,-10,-3,-4,1,5,-3,-17,-7
60029988806,3,-1,-1,-6,-2,-2,-6,2
60029988806,-2,2,-1,-4,-4,2,-1,2
60029997405,-1,-4,-3,-6,-6,-1,3,-1
60029997405,-3,-1,0,-6,-3,-3,3,-3
60030003406,1,0,-4,-5,4,-3,-6,-1
60030003406,-2,-1,-7,0,-14,-4,-1,-1
60030012397,-12,-5,0,1,2,-2,-1,-5
60030012397,-1,-1,2,-3,-3,-4,-9,-2
60030025863,3,-1,-1,-6,-3,-4,4,0
60030025863,-3,0,-1,7,2,1,-3,-5
60030034879,-3,1,0,7,1,-2,0,-4
60030034879,-3,-2,-1,2,-3,0,-6,-1
60030049793,-5,-3,1,2,0,-1,3,-2
60030049793,-4,-2,1,-1,2,-2,-6,-4
60030051456,2,-3,-5,0,-2,-3,-2,1
60030051456,-4,1,-2,10,-2,-2,3,-2
60030063506,3,0,-2,-4,-6,1,4,-2
60030063506,0,-2,0,5,3,2,0,-1
60030072503,-5,-3,1,6,2,-3,-3,-2
60030072503,0,-5,-1,2,1,-2,8,1
60030085925,8,-2,-4,-1,-2,-1,6,1
60030085925,2,1,-1,-4,-2,-3,4,-1
60030094945,-2,1,1,2,0,-3,-3,-1
60030094945,-1,0,0,4,0,2,12,-2
60030109836,-4,5,-2,-1,-3,0,0,-2
60030109836,2,0,-3,-2,2,-1,-1,1
60030111437,0,-1,-1,0,2,1,6,-2
60030111437,5,-2,2,6,5,0,0,0
60030123530,-7,-2,3,-2,4,-2,-8,-6
60030123530,-4,2,1,-2,-2,0,-2,-1
60030132496,-6,-2,2,2,3,-2,-3,-7
60030132496,8,-1,-7,-16,-6,0,2,13
60030145958,2,0,-7,-4,-6,-2,1,3
60030145958,-4,-2,-1,6,0,-3,0,2
60030154980,1,0,-5,-9,-4,0,1,0
60030154980,-3,4,0,-5,6,4,-7,-5
60030169801,0,-2,1,2,1,-3,-2,-1
60030169801,3,-3,0,-4,1,-5,2,-2
60030171448,2,2,1,-1,3,0,1,-3
60030171448,-4,0,-3,-1,0,2,-2,-3
60030183531,0,-2,2,-1,1,2,-5,1
60030183531,-1,-2,1,-5,3,0,-4,-3
60030192506,5,2,-2,-1,-3,-1,-2,-1
60030192506,-1,-5,-1,-12,-8,-3,-2,1
60030205986,3,2,-3,-4,-3,-2,-1,2
60030205986,-5,-1,2,7,5,-1,-6,-9
60030214877,5,0,-2,-11,-8,-4,-3,6
60030214877,-4,-3,1,-8,-2,-2,-10,-6
60030229596,-1,-2,-1,0,3,-5,1,-2
60030229596,4,-6,-1,-7,0,2,-2,0
60030235977,-5,-1,-1,1,2,1,-8,-1
60030235977,2,3,1,2,3,-3,-3,-1
60030243515,-5,2,0,1,1,-1,-5,-1
60030243515,-4,-3,-5,-4,-6,-1,-4,-5
60030252496,0,-5,-3,-6,0,4,-1,-2
60030252496,1,0,0,-6,-4,-2,2,2
60030266005,-4,0,-2,-4,0,-3,-2,-2
60030266005,4,0,-1,-2,0,-2,1,0
60030274995,-3,-4,1,3,2,-1,2,0
60030274995,-10,1,-3,2,1,1,-4,-5
60030289755,4,0,0,-4,-1,-3,0,6
60030289755,2,0,-3,-4,-2,0,-1,4
60030291519,-6,-1,0,-2,-2,1,3,2
60030291519,-1,1,-2,5,1,1,2,-2
60030303541,-7,3,3,4,7,-2,-5,-8
60030303541,6,1,-6,-6,-7,-2,7,5
60030312497,0,1,-1,0,3,-1,0,0
60030312497,3,-3,-4,-6,-1,-1,4,3
60030342677,-6,-4,-1,-5,-3,3,3,-2
60030342677,-7,3,0,-2,-1,-2,-7,-5
60030350431,-2,-1,0,-5,1,-1,-9,-8
60030350431,-1,2,3,-1,2,-4,-2,-2
60030351165,4,1,-2,-7,-4,-3,-2,0
60030351165,-6,4,1,0,2,1,-5,-7
60030352816,7,3,-7,-4,-7,1,-8,6
60030352816,-4,-1,-1,-5,2,-1,-12,-4
60030363470,-3,-1,-2,-10,-2,0,-2,-2
60030363470,-4,-2,-1,2,1,-1,-6,-2
60030372400,-11,0,0,9,0,-6,-2,-7
60030372400,-3,-3,-1,-5,-8,-4,-15,-4
60030385880,0,-5,-4,-5,-4,-3,-2,5
60030385880,-1,2,3,0,0,-2,0,-3
60030394913,0,-2,1,-2,-3,-1,-2,-1
60030394913,1,-1,-8,2,-7,-5,-13,-3
60030409761,-6,4,0,5,1,0,-3,1
60030409761,-5,-1,-4,-3,-3,-1,-3,0
60030411421,1,0,1,2,0,1,6,1
60030411421,-5,-4,-2,0,-3,-3,-3,-3
60030423473,0,-2,-1,3,4,1,-1,-4
60030423473,-1,2,-2,3,-6,-4,0,-1
60030432417,-2,-2,-1,2,-1,-3,-4,0
60030432417,-7,-1,0,12,-2,-2,4,-2
60030454832,-5,1,-2,2,-1,0,-3,-8
60030454832,0,1,-2,-6,-3,-2,-1,1
60030456427,3,-1,-6,-6,-6,-4,4,5
60030456427,1,-3,2,5,0,3,28,0
60030469119,-3,-4,-2,2,0,-2,8,-1
60030469119,-4,-4,-1,1,6,2,5,0
60030475906,-4,1,-1,-3,0,-1,2,-1
60030475906,6,-3,0,1,0,-1,11,3
60030483484,4,-3,1,0,3,1,3,1
60030483484,4,-2,2,4,2,1,4,2
60030492397,-5,1,0,3,3,2,-1,-7
60030492397,5,3,-4,0,0,-4,5,6
60030505956,8,3,-1,0,-2,3,-2,2
60030505956,6,-2,-3,-2,-7,-2,-3,6
60030514905,-8,4,2,2,4,0,-6,-4
60030514905,8,0,1,-8,5,2,-1,0
60030529119,-1,2,2,5,3,-2,-1,-5
60030529119,-2,-4,-2,-1,7,2,-4,-3
60030535896,4,-2,0,0,2,2,1,-2
60030535896,-3,-6,1,-8,-3,1,-2,2
60030543474,-7,-7,-4,-8,-5,-1,-5,-1
60030543474,2,-4,3,-7,0,1,-8,-4
60030552502,1,-3,-4,-1,1,-5,2,1
60030552502,-2,-1,-1,-6,-2,-1,-11,-7
60030565912,0,0,-1,-6,-4,0,2,2
60030565912,0,-1,-1,3,-5,1,-4,-5
60030574950,-3,-1,-2,-5,-5,3,6,3
60030574950,14,1,-1,-20,-8,-1,-18,4
60030589107,14,1,-3,1,1,0,4,5
60030589107,-4,3,-2,6,3,1,3,-1
60030595915,-2,-3,-1,-1,2,-2,-5,-4
60030595915,-6,0,1,-4,3,3,9,2
60030612234,4,0,-5,-8,-2,-3,-8,0
60030612234,0,3,0,-7,-4,-4,-12,-3
60030613854,-2,-1,-2,-9,-5,-2,-12,-5
60030613854,-13,-1,-4,6,4,-1,-3,-4
60030625888,-1,-3,1,1,0,-4,-3,0
60030625888,3,1,-1,15,-2,-3,8,1
60030634931,4,1,2,3,-2,-3,1,2
60030634931,5,-1,-1,-9,-2,-3,-10,2
60030649539,-5,-3,0,-12,6,0,-2,-1
60030649539,-3,-2,-1,-11,0,-4,-2,0
60030655872,3,-4,1,0,-7,-2,6,1
60030655872,9,-1,1,6,5,0,21,4
60030672430,2,-1,0,4,2,-3,3,-2
60030672430,-1,2,-2,-3,3,1,-7,-5
60030673888,-7,1,-1,-4,-1,-5,-9,-1
60030673888,-15,2,-1,-12,-12,-1,-15,-11
60030685950,-9,0,-4,13,-11,-3,2,-8
60030685950,-9,-4,-4,0,-6,-1,0,1
60030694954,-7,1,0,1,-2,-2,-8,-6
60030694954,-5,-2,-1,9,-6,1,-2,-2
60030709092,-1,1,0,-11,-3,1,-6,-2
60030709092,-3,0,-3,-14,-2,-3,-4,-3
60030715897,6,-1,-2,-9,0,2,-4,2
60030715897,0,-1,0,-12,8,-4,-6,-1
60030732230,9,-3,-2,-11,2,-2,-8,5
60030732230,-4,1,-2,-7,5,-3,-6,5
60030733851,-3,1,1,-4,4,0,3,4
60030733851,-3,-1,0,8,-4,-1,0,-1
60030745891,-3,0,0,-4,-5,0,-10,-2
60030745891,-11,0,0,7,11,3,-10,-6
60030755570,-5,5,-2,13,4,-6,-16,-10
60030755570,-3,0,-3,10,-7,-1,-17,-6
60030769125,3,-4,-1,2,-5,2,-1,-3
60030769125,11,-6,0,-5,-9,-5,5,-1
60030775942,-3,-5,-5,-5,-8,-4,7,-1
60030775942,-15,-4,-2,-7,1,-5,-7,-5
60030792296,-12,2,1,-1,-10,-4,-3,0
60030792296,-2,2,-2,7,-8,-1,4,0
60030793874,0,-2,0,7,-7,0,2,1
60030793874,-6,2,-1,0,-4,-4,2,1
60030805944,-9,-3,1,4,10,-2,8,2
60030805944,-6,-3,-2,0,9,-2,-6,-1
60030814899,-3,-3,-5,-4,5,-2,-6,-1
60030814899,2,-2,-1,1,1,1,13,2
60030829109,-13,-2,2,-2,3,-2,4,-2
60030829109,-6,0,1,5,0,0,5,2
60030835877,2,0,0,14,0,-2,0,-2
60030835877,12,-9,-2,19,-8,-2,8,-1
60030852328,-2,-2,-2,2,-4,-2,-6,-5
60030852328,8,4,-7,-2,-7,-2,1,-5
60030853844,5,-5,3,2,3,2,11,6
60030853844,-2,6,0,12,13,4,10,7
60030865993,23,-4,-2,9,0,4,-4,-5
60030865993,22,-2,-1,-7,-11,6,-3,-5
60030882422,6,6,-8,-3,-4,1,-8,-16
60030882422,27,6,-4,-21,-14,-1,-9,-7
60030889045,-1,5,-4,-12,-5,-8,-7,-6
60030889045,-1,-2,0,2,3,-11,-12,-5
60030895961,-8,-14,-1,-3,-4,-5,-14,-1
60030895961,-12,-17,0,-6,-3,-3,-8,-2
60030912349,-18,-17,-3,-6,-3,1,-1,5
60030912349,-13,-14,1,-17,-2,-1,4,8
60030913899,-4,2,-1,-17,-1,1,1,11
60030913899,-8,6,1,-10,2,3,4,5
60030925947,1,14,0,4,6,5,16,3
60030925947,-8,4,0,12,4,0,8,0
60030934907,16,6,6,-4,5,-1,7,5
60030934907,-11,-2,0,3,9,-5,-16,-5
60030949172,0,-5,-2,11,-2,-2,-6,-3
60030949172,3,0,3,4,12,6,6,7
60030955933,-2,-3,4,6,12,4,3,3
60030955933,8,2,1,9,1,-1,-2,-4
60030972273,3,3,-6,5,-5,-3,-13,-15
60030972273,5,-1,-3,-19,-15,-6,-16,-15
60030973928,9,-2,-5,-13,-10,-2,-10,-10
60030973928,-3,0,-1,-4,1,-5,2,3
60030986024,-4,-8,4,4,10,-2,9,5
60030986024,5,-2,0,5,-3,1,9,9
60030995030,1,-5,2,-6,4,5,3,7
60030995030,1,-2,2,0,4,-3,0,9
60031009183,-8,10,-3,5,6,-4,-3,-2
60031009183,-7,-2,-4,-6,-11,-4,-3,-3
60031015942,-9,-1,0,-8,-1,-7,-9,-7
60031015942,-1,1,-6,-13,-13,5,-2,-2
60031032303,6,-2,0,-25,-11,3,0,4
60031032303,-5,-1,1,-8,5,1,3,0
60031033845,-5,3,-5,24,12,0,-6,-6
60031033845,-1,-1,-3,12,-8,1,5,-1
60031045894,5,4,7,-2,5,2,3,6
60031045894,1,4,0,-6,6,-2,-3,1
60031054930,3,-6,0,-17,-7,-3,-7,0
60031054930,-1,-1,-5,-10,-10,-2,-5,-4
60031069098,-4,2,-2,-1,-6,4,2,7
60031069098,4,2,0,8,13,6,-2,0
60031075899,22,0,5,13,15,6,15,6
60031075899,-7,-5,9,49,29,-9,-20,-21
60031092280,-13,-14,-16,50,-13,-9,-26,-25
60031092280,-3,-12,-7,-34,-32,-6,-22,-4
60031093868,-7,-2,-13,-40,-32,-8,-16,-2
60031093868,-13,-6,-8,-65,-22,1,-1,6
60031105950,-6,5,5,-21,-2,-2,2,7
60031105950,-18,16,3,4,3,-3,-11,-4
60031114899,-3,5,5,-2,20,1,6,0
60031114899,1,11,8,2,16,3,7,1
60031129074,6,5,1,-23,8,4,4,3
60031129074,-6,8,-4,-6,7,1,-5,-4
60031135881,-22,8,-5,14,4,-2,-12,-9
60031135881,-21,6,-16,43,-3,-4,-16,-16
60031152289,12,-5,4,-12,-6,4,9,10
60031152289,12,-8,6,2,4,4,11,9
60031153903,7,-8,7,-13,-1,4,4,7
60031153903,-1,-5,4,-8,13,-3,-8,-4
60031165952,-7,-9,-8,-1,4,-8,-4,-6
60031165952,6,0,-2,-5,-16,0,1,2
60031175025,-11,-14,-5,5,-4,-6,-6,-6
60031175025,1,-3,-3,10,5,-2,-4,-4
60031189249,4,0,4,2,-1,1,7,2
60031189249,-14,-4,2,45,31,-2,-15,-12
60031196014,-1,-2,-9,1,-31,1,-4,-2
60031196014,7,2,2,-20,-16,5,11,13
60031212352,-6,-5,1,-11,-11,-1,-2,0
60031212352,-24,-2,4,-15,-1,-1,-6,-1
60031213956,-1,2,-10,-9,-22,0,9,4
60031213956,32,-2,-1,-16,-5,3,20,10
60031225951,-10,1,1,13,29,-4,-21,-11
60031225951,-4,4,-7,47,-20,-8,-13,-9
60031234928,-24,-3,-2,3,-7,-2,-11,-5
60031234928,37,-4,-2,-2,-1,5,23,19
60031249175,53,-2,2,9,10,8,37,19
60031249175,27,-6,-3,-1,20,0,18,5
60031255951,8,1,6,21,48,2,8,-1
60031255951,2,-2,8,15,36,2,9,-1
60031272326,-24,4,5,-10,-30,-5,-26,-16
60031272326,-23,-5,5,9,-29,-7,-17,-15
60031273959,-1,7,0,-20,-29,-3,-12,-5
60031273959,1,-1,-3,-20,-23,-1,-11,-3
60031285994,-1,2,-6,13,11,0,2,-1
60031285994,-6,-3,-11,-18,-1,5,2,3
60031294981,-1,1,-7,1,-1,-4,-3,-1
60031294981,-6,-1,-10,-18,-7,-1,3,0
60031309213,-7,-1,3,-7,8,2,3,3
60031309213,-27,-3,-7,18,24,-6,-27,-23
60031323455,-8,-2,0,6,-14,0,-9,-1
60031323455,-15,1,2,1,6,-4,-15,-7
60031332313,22,0,0,-12,-16,2,21,13
60031332313,37,-2,7,-18,15,5,22,20
60031333873,3,0,0,29,33,-5,1,-5
60031333873,-7,-3,3,-3,-18,-1,0,4
60031345905,-7,-1,-1,-10,10,-1,2,-3
60031345905,-20,6,1,22,15,-4,-4,-15
60031354927,-2,-1,-3,-18,-11,-3,-10,-6
60031354927,-5,-3,-5,-31,-25,2,-4,1
60031369113,13,-1,-2,-25,-13,1,2,3
60031369113,13,-1,2,-16,14,6,8,10
60031375890,-28,-2,-7,48,44,-10,-21,-18
60031375890,-3,1,8,43,-2,-1,-3,-6
60031391717,12,1,-1,-9,-3,4,-3,2
60031391717,16,-1,0,-36,-26,2,5,8
60031398468,7,4,0,-44,-17,3,5,9
60031398468,-6,0,-10,-23,-10,-6,-17,-8
60031406028,-15,-4,-7,7,1,-5,-17,-12
60031406028,-4,-1,-1,-15,-11,-5,3,-2
60031421004,-2,-1,0,-28,-12,2,11,4
60031421004,-24,0,2,16,26,-3,-11,-6
60031429263,-27,2,2,23,12,-4,-5,-1
60031429263,22,-1,-1,0,-5,1,0,6
60031435971,35,2,4,2,7,0,14,10
60031435971,38,1,6,-8,14,6,25,17
60031451699,2,-6,5,23,38,-4,-4,-2
60031451699,-25,-4,-9,36,6,-4,-8,-9
60031458498,-30,-4,-1,6,11,5,0,-8
60031458498,-31,-1,-3,-24,-25,0,3,-5
60031466017,-18,-3,-10,-57,-46,0,5,1
60031466017,6,1,1,-58,-40,3,5,3
60031475021,-11,-5,-4,22,11,-6,-25,-21
60031475021,0,-2,-12,2,-19,-6,-22,-10
60031489142,9,3,0,12,-7,-2,-11,-1
60031489142,23,12,4,-11,2,0,13,13
60031495955,17,-6,10,18,25,2,14,7
60031495955,22,-2,4,10,22,3,11,6
60031511685,18,-2,0,26,15,2,-3,-5
60031511685,-9,-5,-2,-1,-11,-2,-2,-2
60031518504,-25,9,-8,-36,-26,0,-2,4
60031518504,-46,4,-5,2,-4,-7,-19,-16
60031526032,-24,0,-5,-21,-36,-6,-16,-8
60031526032,-1,-3,-4,-14,-18,-2,-7,-1
60031535003,17,-4,1,4,2,-1,2,2
60031535003,14,-7,2,7,6,2,6,3
60031549218,8,2,-1,3,12,0,-1,2
60031549218,9,-3,4,16,17,1,4,2
60031555964,14,1,0,2,1,-3,4,4
60031555964,1,0,-4,-12,-11,0,-6,-8
60031571613,-17,0,-1,40,31,-8,-25,-19
60031571613,9,2,-3,10,-10,1,-6,-1
60031578433,0,-2,4,-1,-13,2,1,4
60031578433,-5,2,-4,-5,4,-3,5,6
60031594794,-22,-2,0,-14,0,3,11,3
60031594794,-24,-1,-2,-14,-11,0,2,7
60031596406,4,0,0,-11,-7,2,-2,2
60031596406,-8,1,3,13,16,-1,-9,-4
60031609126,-2,5,-13,-6,-10,-3,-9,-3
60031609126,7,-3,2,-9,-2,-1,-2,-3
60031615932,17,3,2,-8,-17,0,1,3
60031615932,7,3,1,5,-6,3,0,-1
60031631641,-9,0,1,30,35,-5,-6,-7
60031631641,-1,2,-1,7,-15,-2,7,-1
60031638533,1,3,2,-3,11,2,11,6
60031638533,9,-3,4,-13,-5,4,11,3
60031654860,-4,3,3,29,35,-3,-17,-11
60031654860,-6,-6,-11,0,0,-3,-11,-7
60031656457,-4,-6,-6,-15,-12,-3,-11,1
60031656457,1,0,-1,-11,-11,-5,-3,-1
60031669183,13,1,-1,-36,-26,2,8,6
60031669183,-5,-3,2,13,18,-3,3,-5
60031676053,8,-2,-4,-17,-17,1,5,2
60031676053,8,-4,5,-4,10,-2,1,4
60031691720,-26,2,-7,46,55,-9,-25,-22
60031691720,0,1,1,0,-16,-2,-4,4
60031698506,7,0,-5,-24,-19,3,2,5
60031698506,6,-2,1,-7,-8,1,7,5
60031714863,0,-5,4,1,-6,3,3,-1
60031714863,-1,0,-3,-14,7,-2,-7,-2
60031716416,-18,-1,1,21,17,-5,-14,-14
60031716416,-2,-1,-3,-6,-19,-3,-7,1
60031729206,8,-3,-4,-27,-31,1,6,7
60031729206,4,2,-2,-20,-4,2,3,2
60031736030,-3,-4,8,7,16,0,-7,-7
60031736030,-20,0,-8,34,13,-8,-20,-22
60031751701,5,2,-2,-28,-28,3,7,6
60031751701,13,2,5,-4,5,5,14,11
60031758494,7,3,3,2,24,-1,10,4
60031758494,1,6,-5,21,19,0,-1,-1
60031774853,12,-2,10,-6,-6,3,8,7
60031774853,-28,-1,-4,52,44,-9,-27,-20
60031776511,-6,-2,2,7,-27,0,-4,0
60031776511,0,0,-4,-12,-2,-5,0,4
60031789108,9,-3,-3,-35,-30,-1,9,10
60031789108,4,-5,-3,-30,-11,-2,1,1
60031803508,-12,-3,-7,1,1,-4,-15,-8
60031803508,-4,-5,-5,-11,-4,-3,-2,-2
60031811624,2,-6,3,-11,-18,0,-2,1
60031811624,8,4,5,5,-2,-3,-9,-4
60031818465,10,0,-3,4,7,0,-6,-7
60031818465,-4,2,-3,4,-8,-2,-5,-7
60031834768,-15,-3,-1,-8,1,1,-4,-1
60031834768,-20,-1,-2,-3,4,-5,-3,-2
60031836427,-1,5,-7,-20,-15,1,8,15
60031836427,-3,0,11,10,19,1,1,-1
60031848439,-5,2,5,30,31,-8,20,-2
60031848439,42,-2,-11,-4,-14,-6,24,34
60031872432,13,-5,6,13,14,0,16,6
60031872432,1,-2,0,-7,-3,2,1,-5
60031873141,-7,1,-3,-2,-13,6,-20,-15
60031873141,-12,-6,-2,-14,-22,1,-18,-15
60031878501,0,-6,-5,-19,-18,1,-8,-9
60031878501,5,-3,2,20,18,1,-14,-22
60031894854,1,-2,0,7,7,1,-7,-17
60031894854,-6,3,-1,4,-4,0,-9,-13
60031896475,-5,6,-5,2,1,-4,0,-2
60031896475,0,9,4,-6,-10,0,9,8
60031908575,7,0,-2,-15,-1,0,4,15
60031908575,-22,11,-2,9,14,-4,-18,-2
60031917537,-6,6,0,-1,-9,-2,-6,-1
60031917537,-1,-5,-4,-25,-19,1,-12,3
60031931707,-1,-2,-8,-23,-47,-5,-5,2
60031931707,-1,0,3,-15,-24,2,-6,-9
60031938552,-9,-2,-3,-17,-22,-3,-5,-5
60031938552,-7,1,-4,-6,-7,-6,7,7
60031954824,11,-4,3,7,5,0,11,14
60031954824,13,-29,7,17,31,5,15,6
60031956439,1,4,2,5,26,5,6,0
60031956439,13,-6,3,12,26,0,13,4
60031968503,-9,39,-7,-14,-2,-7,-6,-9
60031968503,-4,-5,-3,-4,-1,6,6,-5
60031977493,-8,-6,-7,-20,-20,0,-9,-5
60031977493,-5,-22,-7,-13,-16,0,1,1
60031991729,-2,-2,-2,-2,-2,9,7,-3
60031991729,3,6,3,12,16,-3,3,6
60031998497,-6,-17,7,14,11,3,-7,-4
60031998497,10,-4,2,6,0,5,6,5
60032014907,11,-15,-8,0,1,-5,2,13
60032014907,-4,4,2,-1,7,-5,-6,1
60032016493,-4,-10,1,-2,3,-5,-4,5
60032016493,-24,13,-1,-23,-16,-9,-19,-16
60032028498,-25,3,-8,-5,-7,-5,-26,-20
60032028498,-5,-3,-9,-36,-30,-6,-10,-3
60032037524,4,5,-3,-15,-3,4,1,-2
60032037524,7,-4,0,-15,8,6,7,2
60032051641,5,-9,3,-7,9,2,13,5
60032051641,1,4,-1,19,14,-1,8,-1
60032058485,10,0,1,16,2,-1,5,1
60032058485,5,-2,2,19,3,1,2,3
60032074779,7,-9,2,22,7,0,2,1
60032074779,-2,0,1,10,2,1,-1,-4
60032076401,-2,0,-5,1,-7,-1,3,2
60032076401,6,3,-4,7,0,1,3,2
60032088448,9,3,6,6,10,0,3,5
60032088448,-13,-3,-3,31,21,-7,-19,-14
60032097400,3,0,-1,10,-17,2,5,3
60032097400,-3,8,2,5,-2,-2,1,-3
60032111708,-3,-1,3,-19,-13,1,-1,0
60032111708,8,-3,-1,-36,-11,-2,11,7
60032118589,-3,-4,1,-8,7,-4,-13,-7
60032118589,-14,-2,-6,-2,-5,-11,-17,-9
60032134921,1,2,7,-19,-4,-1,1,0
60032134921,-1,4,1,-9,7,4,9,-5
60032136488,12,7,-13,-16,-13,-8,-2,18
60032136488,8,2,1,-5,-3,-2,4,7
60032148999,9,-2,-2,4,8,-5,-5,0
60032148999,-1,-1,3,7,-6,-6,-6,-3
60032157479,-16,-1,0,2,15,11,2,-13
60032157479,-16,-2,-6,-10,-2,3,-1,-5
60032171732,-21,-5,-5,6,-8,-3,2,-4
60032171732,-4,0,-3,-13,-9,-2,-10,4
60032178482,1,-4,-1,1,-8,-3,4,-2
60032178482,0,-2,-2,9,2,-2,-6,1
60032194847,14,2,0,4,3,5,5,-2
60032194847,10,3,1,-7,-2,1,9,4
60032196465,-11,-3,-1,2,1,0,5,-2
60032196465,-12,-8,0,7,-1,3,-6,-4
60032208516,-18,-8,-2,-6,-5,4,13,0
