timestamp,emg1,emg2,emg3,emg4,emg5,emg6,emg7,emg8
138318920017,3,0,-7,0,-2,-3,1,-5
138318920017,-5,-3,4,-5,3,-2,-3,-3
138318920680,0,-3,-1,0,4,0,1,1
138318920680,-2,-5,1,-4,-2,-4,-4,-1
138318921497,0,-4,-5,-2,2,-4,0,4
138318921497,1,-3,2,-2,-3,0,2,-3
138318922299,-2,-1,-1,-6,3,1,1,2
138318922299,-1,1,-12,1,-2,1,-1,-1
138318933695,-4,-7,11,-10,-3,-3,0,-4
138318933695,-5,3,-6,0,-2,0,0,1
138318941558,-5,-2,-6,0,-2,-3,2,0
138318941558,0,-1,1,2,-2,0,1,-1
138318948600,0,0,7,-10,-3,-2,-6,-2
138318948600,4,-2,-6,3,-3,3,2,2
138318962966,-1,0,2,0,-5,-1,-5,-4
138318962966,1,-4,1,-2,3,0,-1,3
138318972353,-1,2,-5,4,-2,4,0,1
138318972353,2,-1,-5,5,-3,0,-3,-2
138318977920,-1,0,-2,-3,0,-1,-1,1
138318977920,-4,2,3,0,-3,0,5,0
138318993662,-4,-3,-4,5,-1,1,-1,1
138318993662,0,-1,-1,-3,0,-2,-1,0
138319009063,0,1,0,-2,-3,-5,-3,-3
138319009063,-1,5,-6,1,4,-3,-1,-3
138319041227,1,-2,-4,2,-2,0,0,2
138319041227,-1,-1,7,-5,0,-5,-1,-4
138319042001,3,0,-9,4,-3,-4,0,3
138319042001,-1,1,-7,3,-4,2,0,2
138319042945,-1,2,-2,-1,1,0,-1,-1
138319042945,2,2,1,3,-1,1,-3,0
138319045306,0,-3,-9,6,0,1,2,-1
138319045306,0,0,1,-2,3,-4,0,-1
138319061646,-1,4,-3,0,0,1,-1,-3
138319061646,0,6,-13,5,-2,-2,2,2
138319063258,-2,3,-3,-4,2,-3,-1,-3
138319063258,-1,0,3,0,-4,-2,-2,2
138319076869,0,1,-6,4,-1,2,2,2
138319076869,-2,1,-7,-1,-6,-1,-1,-2
138319082804,-2,-3,4,-5,-4,-1,-2,-2
138319082804,3,-5,0,-1,0,-2,0,-3
138319091803,-4,-6,-1,-7,-2,-4,-4,-4
138319091803,-4,-1,-5,-3,3,0,0,-3
138319097777,-2,-6,3,-8,-5,0,-5,-4
138319097777,2,0,-15,5,2,2,0,-5
138319114289,1,1,0,-2,1,2,-2,-2
138319114289,-4,-4,4,-1,1,-3,-1,-3
138319120253,-2,4,2,-3,1,-4,-2,-5
138319120253,-3,-5,2,0,2,-4,-2,-7
138319136757,-3,-1,-5,-1,-4,-3,-2,0
138319136757,-1,-2,-2,-2,2,-4,-1,-1
138319142734,2,-1,3,-3,-3,-3,-2,-3
138319142734,2,-2,5,-4,-1,0,-2,-1
138319151795,0,-2,7,-4,-2,-4,3,-6
138319151795,3,-4,-3,2,0,2,-2,-1
138319157801,-3,-1,0,-5,-1,-2,-1,-2
138319157801,-3,1,5,-4,-3,-4,-1,-1
138319174309,1,-3,-4,2,3,0,1,-1
138319174309,0,-3,6,-5,-4,1,-9,2
138319180304,3,-2,-6,1,0,1,0,-1
138319180304,-2,0,-3,-2,-1,-2,2,1
138319196751,5,-2,3,-6,-3,-6,1,-1
138319196751,-3,-6,0,-2,3,0,1,-1
138319202774,-5,-4,3,2,-1,2,-4,3
138319202774,-4,-3,-1,-4,-1,-1,-4,4
138319211731,-5,-1,1,1,-1,0,-8,0
138319211731,3,-5,-1,0,1,0,3,-2
138319217736,-1,7,1,-1,-4,0,-4,0
138319217736,3,3,-7,5,1,0,-3,-3
138319234241,1,1,-2,2,-2,-4,-2,3
138319234241,-2,1,1,-2,-4,1,-3,1
138319240201,1,2,-6,6,3,-2,0,1
138319240201,-2,0,-1,-2,-2,-4,3,2
138319256741,0,4,0,0,1,-2,-6,-3
138319256741,1,3,-1,5,-4,-4,0,1
138319262798,1,-3,-5,0,-1,2,-2,2
138319262798,-3,-4,-1,-2,-1,3,-1,-3
138319271718,1,-2,-1,1,-1,-2,0,-2
138319271718,1,2,-9,4,0,-3,-2,5
138319277775,0,-9,4,-1,1,3,-5,-1
138319277775,1,2,-4,3,0,-3,-4,-2
138319294256,-1,-5,-8,3,2,-1,1,1
138319294256,-1,-1,-8,4,2,0,3,2
138319300287,0,-1,-5,2,-1,-3,1,2
138319300287,-5,-5,5,-3,-3,-1,-3,-3
138319316776,3,1,4,-1,-2,6,-2,1
138319316776,-1,-2,3,-5,-2,-3,-10,-3
138319322743,-3,0,-9,7,3,-2,2,-2
138319322743,0,3,1,-2,-1,-2,0,-1
138319339926,2,1,-1,-2,2,-3,1,-2
138319339926,2,-3,-6,0,-6,2,0,2
138319340718,-2,0,2,-1,-5,1,1,2
138319340718,-3,5,-4,0,-6,0,-3,1
138319354247,-2,-6,-8,7,-1,0,2,-6
138319354247,-2,-3,-2,-2,-4,0,0,-4
138319360244,3,3,-9,5,2,-1,0,-2
138319360244,2,0,-4,3,0,-1,-2,3
138319376709,1,2,-9,8,2,-1,-4,9
138319376709,0,-1,4,-4,-3,-6,-1,-3
138319382702,2,2,-4,0,-3,-2,3,-1
138319382702,-1,-2,-1,0,3,2,-2,-4
138319391731,-3,-1,-8,4,-1,-1,-1,-4
138319391731,0,3,-4,3,-1,0,-5,1
138319405222,-4,-4,-1,1,-1,-3,0,-3
138319405222,3,2,-5,4,-1,-2,-1,1
138319414229,-4,2,2,-1,-1,-5,-1,-1
138319414229,0,1,-4,2,-1,2,-1,0
138319420207,-2,-2,0,-1,-2,-2,0,2
138319420207,2,-3,-7,4,-5,0,5,-1
138319436713,-3,-1,5,-4,-3,-3,1,-6
138319436713,-1,1,3,2,-4,2,-3,0
138319442744,-1,2,5,-5,0,-3,-2,-5
138319442744,-4,-5,-3,-1,-3,-3,-1,-2
138319451774,3,6,-15,0,-3,2,-1,1
138319451774,1,2,-10,6,0,-2,1,-5
138319465299,-1,-2,-5,1,-3,-1,-5,2
138319465299,1,-2,-8,3,0,-2,3,-3
138319482382,-1,-6,1,0,0,1,1,-7
138319482382,-1,-3,2,-9,-3,1,4,-4
138319483169,2,-4,5,-7,1,-2,-4,-6
138319483169,2,-3,0,-1,2,-4,-4,-1
138319496794,-2,-4,-6,-1,0,0,-1,3
138319496794,2,-7,9,-8,2,-4,-2,-3
138319502753,3,-1,-4,3,-3,-3,-2,-2
138319502753,-11,-4,7,-12,-1,0,-3,-6
138319511706,0,-8,19,-18,2,3,-3,-4
138319511706,-4,-3,4,-8,-5,-3,-1,-1
138319525272,-3,0,2,-7,0,2,1,0
138319525272,-1,-4,-5,4,-3,2,-4,0
138319534270,-4,2,-2,-3,-2,-1,1,1
138319534270,0,-4,2,-5,2,-2,-3,1
138319540258,-2,-1,-3,2,-2,3,-5,0
138319540258,4,3,-7,3,-2,-1,1,6
138319556766,-2,5,-6,0,-3,-2,-4,-2
138319556766,-1,1,-3,-2,3,-1,4,-3
138319562758,-4,-6,4,-3,1,0,-2,-7
138319562758,-2,0,3,-6,-1,3,-2,0
138319571682,0,-6,-3,2,0,-2,-1,1
138319571682,1,0,-3,3,-5,-6,2,3
138319585285,1,-3,3,-5,1,2,-1,0
138319585285,-4,-2,10,-7,-6,-1,-1,1
138319594280,-5,-5,-1,-1,5,0,1,2
138319594280,-2,-2,1,-1,-1,3,-1,-5
138319600247,3,-1,4,-1,-5,0,2,-1
138319600247,1,-3,-4,2,-1,0,-2,-2
138319616725,0,0,-2,-1,-6,0,-4,0
138319616725,0,-2,-3,2,4,2,-2,-3
138319622742,-3,-1,0,-2,-7,2,1,1
138319622742,-4,-2,3,0,3,3,-2,-5
138319631763,-2,-1,2,-2,-3,-2,-3,-5
138319631763,-2,0,-9,7,2,-1,-1,-1
138319645233,0,-1,-1,2,-3,-3,2,2
138319645233,0,2,-9,1,0,-2,2,-2
138319654255,3,1,-7,5,-5,2,1,1
138319654255,5,-2,-3,5,-1,1,0,4
138319660275,-1,-2,-8,3,0,-1,-1,-1
138319660275,1,-3,4,-3,-1,-7,-2,-2
138319676767,-2,-3,11,-5,2,-5,-1,-4
138319676767,0,1,-9,1,2,3,-2,-3
138319682758,0,-2,-1,0,3,-2,-1,0
138319682758,5,0,8,-2,-2,2,0,-3
138319691731,0,-3,-7,3,4,0,-3,0
138319691731,1,3,-9,2,-5,-1,3,4
138319705255,-4,0,0,-1,-1,-1,-4,-2
138319705255,1,4,-8,5,-1,1,-1,1
138319714229,-4,-2,3,-4,0,-3,-6,-3
138319714229,0,0,2,3,1,-1,-2,-1
138319720246,-5,-2,-4,4,6,1,0,-5
138319720246,-1,-2,-1,-3,-3,-2,0,-1
138319735269,2,2,-5,6,-2,3,0,0
138319735269,-3,-3,3,-1,-1,0,-5,-3
138319742760,0,6,0,3,0,-1,0,0
138319742760,-1,-2,-11,5,0,-1,-2,3
138319751781,4,0,-3,0,-6,-1,-2,-4
138319751781,-1,-1,-7,3,-6,-2,3,3
138319765265,-2,-1,-4,0,2,-2,-3,1
138319765265,1,0,-4,-1,0,-1,-1,-2
138319774275,-3,-2,-5,3,-1,-3,3,5
138319774275,-1,0,-9,5,2,1,0,-2
138319780279,-1,-4,-3,-3,-2,-4,0,-1
138319780279,2,-1,-8,6,1,1,-1,-2
138319795299,-2,4,-2,6,-3,0,-4,0
138319795299,-4,0,4,0,5,-1,-1,-2
138319802797,3,2,-8,4,-4,0,1,3
138319802797,-4,2,-5,3,0,-1,-2,-4
138319811699,1,-5,-1,-5,-2,-2,2,0
138319811699,-2,1,-1,-1,-4,-3,-6,3
138319834131,0,4,-4,2,-1,-2,0,-5
138319834131,-4,0,0,-5,-3,-3,-3,-1
138319835714,1,-1,-9,8,0,-2,2,3
138319835714,-2,0,1,-2,-4,-5,-2,-5
138319840249,-2,-6,-4,1,-4,6,-3,-1
138319840249,0,0,-3,0,0,-3,2,0
138319855249,-1,-2,-1,-1,-1,-3,-1,-7
138319855249,-7,0,3,-5,-2,-5,-2,0
138319862741,3,-1,-5,1,-1,-2,-4,1
138319862741,2,-11,-4,-3,4,-4,-4,0
138319871751,0,-6,3,-3,-2,-2,1,-2
138319871751,1,-8,-1,-5,-4,-1,-1,-7
138319894081,-3,2,8,-8,1,-3,-4,-3
138319894081,-4,-3,13,-3,-2,0,-3,-4
138319895712,-2,3,-2,4,2,0,0,0
138319895712,-2,-3,10,-1,0,-1,-3,-6
138319900251,2,-2,-5,3,-1,-1,4,-1
138319900251,-4,-4,-1,9,-4,1,-2,1
138319915293,-1,4,-5,0,1,-4,-5,-2
138319915293,-4,-6,2,-16,-3,-1,1,-3
138319922736,3,-2,-9,3,0,2,-2,0
138319922736,-2,-2,-3,-3,-1,2,0,3
138319931739,1,-3,0,-8,-1,1,-2,1
138319931739,4,-4,5,-12,3,-3,-2,0
138319945233,1,-3,-3,-2,-2,0,3,-1
138319945233,2,0,-1,-13,0,-1,-1,0
138319954237,-1,-4,4,10,-2,5,-2,0
138319954237,1,3,6,21,-2,2,2,3
138319960218,-1,-1,0,22,-2,-5,-1,4
138319960218,-4,2,16,40,-5,-4,0,0
138319975258,-2,-1,15,23,-4,1,-2,-4
138319975258,-4,0,-15,19,-3,0,4,3
138319982736,-5,-4,11,-19,0,-1,-2,-1
138319982736,1,-2,9,-23,3,1,-3,-7
138319991708,0,3,16,4,-1,-2,1,2
138319991708,-5,4,-4,-45,1,2,-2,-2
138320005251,0,1,-6,-22,-1,1,-5,3
138320005251,4,-2,-23,-14,-6,1,-1,0
138320014258,-5,-3,-22,-26,2,-3,2,-2
138320014258,1,0,-16,-8,-2,-1,-4,0
138320028466,0,-2,-3,9,1,-1,-5,0
138320028466,-3,-1,1,-2,2,-4,-4,-1
138320035240,0,2,-10,22,0,0,0,8
138320035240,6,-1,0,22,-2,3,2,2
138320052116,-3,2,-3,-7,-5,-2,2,-3
138320052116,0,7,-9,14,0,1,2,3
138320053680,-6,-5,-9,1,-4,-2,-2,1
138320053680,-2,-8,8,48,-4,-6,0,5
138320065259,1,0,4,-3,8,-4,-1,-1
138320065259,-1,-4,-8,-23,3,-2,3,-7
138320074231,-2,5,1,5,2,3,0,-3
138320074231,-1,1,5,-37,0,0,-3,1
138320087798,-7,-8,-12,-97,89,-8,-7,-100
138320087798,-2,1,-4,-127,-14,3,-3,31
138320096716,6,5,-4,62,-93,3,-1,91
138320096716,-1,1,-6,113,-74,-1,-3,74
138320111681,3,4,-1,127,-83,0,3,81
138320111681,-5,-2,0,104,7,-1,-2,-17
138320113265,1,-4,0,10,30,-2,2,-37
138320113265,0,-4,-7,-26,7,-2,-4,-18
138320125321,-4,1,-1,-35,18,-4,0,-25
138320125321,2,-1,0,-28,17,-3,0,-26
138320134339,2,-2,-2,-34,11,-2,-4,-15
138320134339,3,-4,5,-33,17,-1,1,-27
138320147835,-4,0,6,-17,-1,-1,-1,-4
138320147835,-1,-6,-6,-18,-2,0,-5,-6
138320162794,3,2,-1,-23,0,-3,-2,-7
138320162794,-1,0,-3,-39,14,0,-1,-19
138320171660,-1,-4,0,-11,-2,0,2,3
138320171660,-3,-1,5,11,-16,-1,3,9
138320173205,-5,-4,-1,-16,15,0,-6,-15
138320173205,0,-4,1,-11,15,-3,-3,-14
138320185322,3,1,1,13,-24,3,0,16
138320185322,-3,7,4,33,-5,-2,2,5
138320194346,-1,-4,0,-11,5,0,2,-8
138320194346,2,3,-1,6,3,-2,-3,-3
138320208516,-1,-4,0,-14,-10,-3,0,8
138320208516,2,-2,-2,-25,3,-4,-4,-12
138320215408,-4,-1,1,-2,3,-4,1,-11
138320215408,-4,-1,-3,-22,6,-6,2,-8
138320231714,1,-2,-4,-4,4,-2,1,-8
138320231714,5,0,1,19,-4,-2,-6,4
138320233292,-2,1,-1,7,-4,1,3,2
138320233292,-5,1,-3,-13,5,-2,-1,-11
138320245374,2,-1,-1,-6,-2,-4,-2,-4
138320245374,-3,-4,-4,7,-5,3,1,4
138320254351,-4,0,0,5,0,-2,-2,3
138320254351,-1,-8,0,-39,11,-2,-4,-11
138320268440,-3,-7,2,-8,-1,3,3,-1
138320268440,4,2,-4,5,-2,0,-8,4
138320292342,1,2,-4,-15,3,-3,-3,-3
138320292342,-4,-2,-1,-17,4,0,-1,-6
138320293096,-4,-2,-4,-15,-4,-4,2,2
138320293096,-2,-2,-2,-6,0,-2,1,-3
138320294713,-4,-4,-4,-25,3,-5,0,-7
138320294713,-6,-3,1,-26,7,-1,-4,-4
138320305323,-2,1,-3,-5,0,2,-2,-6
138320305323,-4,-3,0,-22,5,-1,-6,-5
138320314337,1,-2,1,0,1,-3,-2,-7
138320314337,-1,4,0,-7,-5,-1,1,1
138320328493,-1,4,1,-2,-3,-1,-7,-2
138320328493,-4,-3,-2,-10,4,-3,2,-1
138320335292,0,-3,1,1,3,-1,-1,-2
138320335292,2,4,-2,5,-3,-2,1,2
138320351682,1,-1,3,14,-3,0,-1,3
138320351682,2,-3,-2,7,-3,-3,-1,-3
138320353321,-3,-5,1,-19,0,2,-5,-4
138320353321,0,-3,3,25,-8,7,1,3
138320365368,-2,0,-4,4,1,0,3,0
138320365368,-1,4,1,6,-3,-4,-3,-3
138320374259,4,-3,-1,-20,0,-7,-3,-5
138320374259,4,1,-6,-6,-4,0,-3,-2
138320396665,-1,-1,1,4,2,-3,-6,-1
138320396665,-3,-4,-5,-7,2,6,-5,-4
138320398287,-3,3,-2,25,-8,3,6,5
138320398287,0,3,-2,24,-6,-2,4,-2
138320411696,-1,-3,-5,-6,-2,-1,-3,1
138320411696,-5,-1,-1,2,3,-1,1,-6
138320413254,-4,-3,-4,-4,3,3,-5,-5
138320413254,1,-3,4,9,-1,-2,-3,-1
138320425327,-5,1,-2,13,0,1,0,-1
138320425327,-1,0,1,1,0,0,1,-2
138320434287,0,2,-3,-1,-2,0,-3,2
138320434287,-3,0,-6,11,-1,-1,-4,0
138320448520,2,-4,2,-9,5,0,-4,-7
138320448520,-2,1,1,19,1,-4,1,1
138320455339,1,0,0,-2,-1,-5,2,-10
138320455339,-1,0,0,-14,2,-1,1,2
138320471579,2,2,-2,1,-3,-2,0,2
138320471579,1,-2,-3,-36,3,-4,-4,-9
138320473216,0,-2,4,-12,-2,-3,-4,2
138320473216,-3,-7,-4,-12,7,-3,-2,-9
138320485324,-1,0,-3,-24,5,-7,1,-10
138320485324,-1,-1,2,-7,0,0,0,-9
138320494289,2,-4,-3,7,9,-6,-2,3
138320494289,-1,0,1,-7,4,0,1,-8
138320508566,3,-3,-3,-24,-1,0,-5,-2
138320508566,-2,-4,-4,-7,3,1,-1,-2
138320515377,-1,-2,-3,-3,2,2,-2,-2
138320515377,-2,-4,0,5,-1,-2,-1,-1
138320531663,-1,-2,-5,-23,5,-4,-2,-13
138320531663,1,0,1,25,-1,2,-2,5
138320533212,-2,-1,-2,-10,3,-1,0,-6
138320533212,0,-1,-2,-4,2,1,-5,0
138320545296,1,0,0,9,-4,2,1,6
138320545296,-4,-1,-2,-6,0,-1,-1,8
138320554259,-1,0,-2,1,-4,-2,0,-2
138320554259,0,-1,-3,-8,-2,-1,-3,-7
138320568527,-3,-1,0,5,-4,1,-3,7
138320568527,0,1,-1,-5,-1,-7,-2,-4
138320575326,-3,-2,-2,-16,6,3,-2,-3
138320575326,3,1,-1,-16,-7,-1,-4,-3
138320591648,-1,-3,-1,-7,2,-4,-2,-3
138320591648,-2,-2,-1,-21,0,-2,1,-6
138320593228,-3,-1,0,-1,-2,-3,0,3
138320593228,-4,1,-1,-7,5,4,-4,-9
138320605315,0,4,1,1,-1,-4,1,-5
138320605315,3,-4,-1,-11,2,1,-2,-12
138320614407,1,3,0,-14,3,-5,-2,-11
138320614407,2,0,-2,-4,7,-5,3,0
138320628524,1,-3,0,-14,-1,-3,-2,-3
138320628524,-2,-5,-2,-32,4,-3,-1,-7
138320635323,0,1,-4,-10,2,-6,0,-3
138320635323,-1,0,-1,-17,2,-7,-5,-4
138320651046,-1,-3,0,-48,10,0,-3,-21
138320651046,1,-2,0,-5,-3,-2,1,-2
138320657857,1,-3,-1,27,-2,3,1,7
138320657857,-2,-1,-2,1,3,-4,2,-1
138320665283,-2,-3,0,-15,1,-2,-2,-6
138320665283,-4,5,3,12,-5,-1,-3,4
138320674276,-5,-2,-2,-42,7,-3,-2,-12
138320674276,2,-1,-4,-13,-2,1,2,1
138320688474,-1,-1,-4,16,-8,1,3,7
138320688474,-1,-6,-2,-21,8,0,-4,-5
138320695305,-2,1,-3,-10,-3,-2,-2,-7
138320695305,-2,2,10,-4,-2,-2,0,-2
138320711006,-4,2,0,-12,2,-1,-1,1
138320711006,-1,2,1,-13,-3,1,0,0
138320717771,-3,0,1,-6,-1,0,-6,0
138320717771,-4,-3,0,-13,1,-3,0,-7
138320725272,-1,1,-3,-1,1,-1,-8,-4
138320725272,0,5,-10,16,1,-1,-2,2
138320734291,1,1,-2,-11,4,1,-3,-3
138320734291,-5,-3,-2,-2,-1,-1,0,1
138320748456,-2,-2,3,17,-1,0,1,4
138320748456,-2,-2,3,12,-8,-1,-1,2
138320755237,-1,-3,-5,10,-2,-1,-2,-3
138320755237,2,0,-6,12,1,-2,-1,-3
138320770989,-2,5,-4,7,-2,-1,3,2
138320770989,-1,-4,-4,0,-2,-1,-1,-3
138320777712,-1,-3,-7,-8,0,1,3,-3
138320777712,-4,-1,2,-4,-1,-2,0,3
138320785243,4,-4,-5,-5,2,1,-1,-2
138320785243,-4,-1,1,-6,-6,-4,4,-4
138320794291,-2,-3,1,2,3,-1,0,-3
138320794291,-5,-1,-2,-2,0,-1,-6,0
138320808469,-8,0,2,-11,0,-7,-4,-3
138320808469,0,-2,-3,-4,5,-7,-2,0
138320815311,5,-2,-2,-1,-1,2,-1,-3
138320815311,0,-1,-3,-6,0,-3,2,-2
138320830967,-3,-4,2,-5,1,-2,-4,-3
138320830967,-1,2,2,-2,-3,5,2,3
138320837772,-2,-4,-4,-5,0,0,7,-3
138320837772,1,-3,-6,0,-3,0,-5,1
138320854092,2,-2,6,-1,1,-4,0,-4
138320854092,0,-3,3,-1,-2,-1,-3,-2
138320855705,1,-1,-3,0,-2,-2,-4,0
138320855705,-1,1,4,-2,2,-5,-6,0
138320868505,0,-1,3,-2,-1,2,0,3
138320868505,-3,-4,-4,6,2,-2,-3,-2
138320875247,2,0,4,-8,-3,-6,-2,0
138320875247,1,2,-1,0,-1,1,-7,1
138320891038,-3,-4,-7,5,1,0,-1,0
138320891038,4,-2,-6,0,1,-4,0,0
138320897803,-4,1,-3,-4,-3,2,0,-1
138320897803,-2,2,5,1,-7,-2,6,-1
138320914136,0,-3,-4,-2,3,-8,-2,-5
138320914136,-1,-1,-3,0,-1,0,-4,-3
138320915728,-3,-1,9,-2,0,-5,-2,-5
138320915728,-2,-3,-7,4,0,3,1,3
138320928473,0,-1,-4,3,-3,1,2,0
138320928473,1,1,-6,-1,0,1,0,0
138320935221,2,-2,4,-2,-3,-2,-2,0
138320935221,1,1,-7,4,-5,-1,4,-2
138320950948,4,4,-7,5,-4,-1,-4,1
138320950948,1,2,-9,4,0,-1,0,-1
138320957741,1,2,-8,3,2,2,0,3
138320957741,1,-1,-8,1,1,-1,-3,-2
138320974215,-2,3,-3,2,1,-6,1,-5
138320974215,-3,-1,1,-3,0,-5,-3,-1
138320975788,-2,-1,7,-9,-2,-3,-3,-1
138320975788,2,2,4,-4,-3,0,-1,-1
138320988493,-1,-5,8,-4,1,-4,0,-4
138320988493,0,2,1,-5,1,1,-2,-4
138321002776,-1,0,6,2,-4,1,0,2
138321002776,0,1,-5,0,3,-1,-4,0
138321011015,0,-2,5,-5,-8,-2,2,1
138321011015,2,-3,-2,-2,-1,-2,1,-2
138321017824,3,-1,-10,7,-2,0,-2,-1
138321017824,0,-5,-1,-6,1,-1,-1,-3
138321034259,-5,-3,-4,-3,-1,5,2,-5
138321034259,-3,-3,8,-3,-1,-1,-3,1
138321035776,-2,4,-8,-1,-2,-1,2,3
138321035776,0,1,4,1,0,3,-1,-2
138321048577,3,-3,-3,-1,-2,-2,-4,-3
138321048577,1,-3,2,2,-5,-1,2,-1
138321055320,-2,1,0,-1,-2,-4,-4,-7
138321055320,-2,4,4,-4,-3,-4,-1,0
138321071032,-1,1,2,1,3,1,1,1
138321071032,-2,3,1,-4,-4,-1,-1,2
138321077793,-4,2,-2,-2,5,1,-5,-1
138321077793,-4,-4,1,-1,-3,-1,0,-5
138321094204,-2,-5,-4,0,-5,-1,4,2
138321094204,3,1,0,0,-2,2,1,-1
138321095749,-7,-3,1,-4,2,-5,-4,-1
138321095749,-5,-1,0,5,0,1,-3,1
138321108526,-1,5,3,4,1,3,0,2
138321108526,-3,-2,-3,2,0,-1,-1,-3
138321115344,-1,-4,-4,2,-2,-1,1,5
138321115344,1,2,-10,1,0,-4,-1,0
138321131032,-2,3,-1,-4,-3,-2,-2,3
138321131032,0,-3,-2,0,-4,-5,2,1
138321137794,1,-1,-4,3,0,0,1,1
138321137794,-1,-1,4,-5,-4,-2,-4,-1
138321154174,-1,1,-3,1,-2,-1,-2,-2
138321154174,-2,2,-8,7,4,-3,2,3
138321155854,1,3,-3,-2,-5,0,3,-2
138321155854,3,-6,2,0,0,1,2,0
138321176700,2,1,-7,5,-3,4,1,1
138321176700,-1,3,-5,4,-5,4,3,-3
138321178252,2,-4,-2,-1,3,0,-4,0
138321178252,-1,-1,-7,1,-2,0,4,2
138321190998,-5,-2,3,-3,1,-1,-5,-2
138321190998,3,-2,-3,4,-4,-4,-1,-2
138321197820,5,-1,0,0,-2,-1,0,-5
138321197820,-2,0,2,1,-2,-3,-5,-1
138321220787,1,1,-3,2,-2,-4,-4,-2
138321220787,0,6,-9,3,0,-1,-2,3
138321230720,-1,-4,-1,0,-4,1,2,0
138321230720,-2,1,-6,2,4,-1,0,3
138321231505,1,-1,-8,4,-1,0,-2,5
138321231505,-2,1,3,-1,-1,1,-7,0
138321235282,2,5,-7,-1,-2,-2,3,-1
138321235282,-2,-1,3,-3,-5,2,-3,-1
138321251018,0,3,3,-1,-1,-1,-3,0
138321251018,-3,-2,0,0,-2,-3,-1,-1
138321257850,0,0,-5,4,-4,4,0,2
138321257850,-1,-3,-5,2,3,-5,-1,0
138321274208,0,0,-2,0,-3,2,1,0
138321274208,-5,-4,-2,-1,-2,0,0,3
138321275817,-4,-2,3,2,0,-1,2,3
138321275817,3,1,0,-1,-4,1,-2,-1
138321288485,2,-3,-5,8,0,-1,-2,-2
138321288485,-2,-1,-2,1,1,1,4,0
138321295334,-3,0,3,-3,-5,1,-1,-2
138321295334,-2,-5,-6,1,6,-3,-1,-3
138321311026,-3,-4,-2,-4,-1,-3,2,-4
138321311026,2,2,-3,1,0,0,1,4
138321317876,-5,0,-4,0,4,-3,-5,0
138321317876,-2,2,-1,1,-3,-4,-1,-1
138321333246,-4,-4,2,-9,0,-5,-3,-4
138321333246,-3,-6,-6,1,-3,-3,-5,-3
138321341873,-2,2,-8,2,-4,-1,-4,0
138321341873,4,0,-7,4,-4,-1,1,3
138321347842,2,-1,-1,-2,-2,-5,-3,0
138321347842,-4,-4,11,-8,-3,-6,-7,-8
138321356800,-2,-2,-2,-1,0,-2,1,1
138321356800,-2,-2,2,-5,-5,1,-3,-3
138321371049,1,4,0,-2,-1,0,-3,-5
138321371049,2,3,5,-4,-1,0,-4,-3
138321377853,-1,-5,0,2,1,-5,-2,1
138321377853,-3,-5,5,-8,2,-3,1,0
138321394234,0,2,-2,1,0,1,-1,0
138321394234,2,4,-3,-2,2,2,-1,3
138321395835,0,-5,6,-7,2,-4,0,-1
138321395835,4,1,-1,-3,1,0,-1,-2
138321407832,-4,-1,1,-4,0,1,-2,-2
138321407832,-3,-4,2,2,2,-2,3,1
138321416802,-3,-2,2,-1,-1,-4,-3,-3
138321416802,-2,-4,2,-2,-3,0,0,-2
138321431497,-1,-2,-4,0,-2,-4,1,5
138321431497,1,0,0,-1,-2,-3,-1,-4
138321437815,-2,0,1,-4,0,-1,-4,-7
138321437815,-1,-2,9,-3,-3,-3,-3,-1
138321454167,1,-4,2,-2,1,-1,2,-2
138321454167,-5,1,-3,-2,1,-3,-1,-2
138321455786,2,-2,-3,-4,-3,0,1,0
138321455786,0,2,4,-1,0,-3,-3,-6
138321467884,1,-3,2,-4,-4,1,0,2
138321467884,-4,0,-1,-6,-1,1,-3,-6
138321476826,-1,1,-7,6,1,0,5,0
138321476826,0,-4,-5,3,-2,0,2,1
138321490998,-4,-1,3,-3,-5,-3,-1,2
138321490998,1,-3,2,-6,-1,2,-1,-1
138321497820,-1,1,-5,1,0,2,-2,4
138321497820,-5,3,-4,0,3,-2,-2,-1
138321514265,-4,-1,-7,3,-1,0,-2,2
138321514265,1,-4,-1,0,-1,-2,-3,0
138321515796,3,-3,7,2,-5,-2,-5,0
138321515796,0,-4,2,-5,1,-1,0,1
138321527770,0,-1,9,-4,0,-4,0,-2
138321527770,1,3,-5,2,-5,-3,1,7
138321536878,-1,-5,-4,-2,0,-4,3,-1
138321536878,3,-2,-5,2,-1,6,-4,0
138321559082,0,0,-8,5,2,2,0,2
138321559082,-4,-1,-7,3,0,3,4,1
138321560762,4,-1,-4,3,2,-1,-2,-3
138321560762,-3,1,4,-3,-2,0,3,-2
138321573506,3,2,-6,-1,-1,0,1,-1
138321573506,1,-2,-6,4,-2,0,0,-2
138321580344,1,1,-4,-3,-6,-3,-1,4
138321580344,-6,0,2,-2,-1,-5,-5,-5
138321587895,1,-7,-5,4,-1,1,1,1
138321587895,2,3,4,3,-1,-3,-4,6
138321596840,-1,4,-2,-1,-2,0,4,-3
138321596840,-4,-2,-1,-2,-2,-4,-2,-2
138321610688,1,0,1,-1,0,-4,4,2
138321610688,-2,-6,4,-7,0,-2,-3,-1
138321619393,-3,-1,0,-2,2,-1,-5,1
138321619393,1,0,0,0,-5,0,1,0
138321633604,-4,4,-6,1,5,2,0,-3
138321633604,-1,0,-8,4,2,1,3,0
138321648540,-1,0,-1,-1,-3,0,-1,-1
138321648540,0,1,-6,-1,-6,2,2,3
138321649287,-4,-2,-1,-1,-3,-1,-1,-3
138321649287,-1,1,-5,5,-2,0,0,0
138321656858,-4,-4,1,-6,5,1,1,0
138321656858,-1,2,-6,3,0,3,1,2
138321671057,1,-3,-3,3,-2,2,-3,0
138321671057,8,3,-7,2,-2,-1,-5,1
138321677771,-3,-1,-3,2,-2,-4,-3,1
138321677771,-1,-6,-3,3,2,-3,0,-4
138321701712,0,-1,0,1,0,-7,-3,-1
138321701712,-5,-2,1,0,-4,-2,2,-3
138321703236,-2,1,0,0,-3,1,0,2
138321703236,3,-6,4,-5,-2,-5,-3,-1
138321707918,-2,-1,-1,0,-4,-3,-2,-3
138321707918,-2,-1,0,-3,-4,-2,0,-6
138321722771,0,-3,-5,0,-2,-1,-3,-3
138321722771,-4,0,1,0,0,-1,-1,1
138321731050,0,-2,-3,-3,-3,-2,-5,-7
138321731050,-1,-4,-1,-1,2,1,-8,-3
138321737851,-6,-7,0,-1,3,0,-1,-3
138321737851,1,-2,-2,-2,1,-5,1,-6
138321761682,2,1,-2,1,-3,3,0,3
138321761682,-4,-3,-2,-2,3,-1,2,-3
138321763287,-2,-1,1,-3,0,-4,-2,-5
138321763287,-2,-1,0,0,0,-1,-3,2
138321775762,0,3,4,-4,-3,0,-1,-1
138321775762,-3,-6,5,-5,3,3,0,-5
138321784335,-1,-7,6,-5,3,2,-7,-2
138321784335,0,0,2,-3,-2,-1,-1,3
138321791091,-6,-1,1,-7,1,-1,3,-2
138321791091,5,-2,5,-5,-2,-1,0,-4
138321797881,0,-1,-3,0,-3,0,5,3
138321797881,-1,-1,4,-5,-2,-3,-2,-1
138321813506,-4,-2,3,1,2,-2,0,-3
138321813506,1,1,1,0,-3,-1,2,0
138321827862,-3,-2,2,-1,-5,2,2,-4
138321827862,4,1,-2,3,0,1,-3,0
138321836696,3,-3,4,-4,0,-4,5,-6
138321836696,-4,-4,3,-7,-2,-7,-2,1
138321838287,0,2,3,-4,-1,-1,-8,-3
138321838287,1,-1,1,-3,-1,-1,-1,-5
138321851061,-4,0,2,1,-2,2,-5,-1
138321851061,3,0,-7,5,0,-1,0,3
138321865316,6,2,-6,0,-5,-2,2,4
138321865316,-4,-3,4,-3,-3,-1,-2,-2
138321873516,-3,-4,-11,5,2,1,3,5
138321873516,-3,3,-9,5,-1,1,2,2
138321880366,2,4,-6,-2,-3,-3,4,2
138321880366,2,-4,0,-4,-4,4,-2,0
138321896674,4,1,-3,0,0,0,-6,1
138321896674,-1,-1,0,-1,-4,-3,0,5
138321898285,-2,-1,1,-1,-4,-2,0,-6
138321898285,-1,3,2,1,1,-1,-1,3
138321911032,2,-1,5,0,-1,-2,1,-4
138321911032,1,2,-1,-4,-7,-2,-3,1
138321917847,2,-4,4,3,1,-3,0,1
138321917847,1,-2,-16,3,0,-4,12,4
138321933548,-3,-6,-3,-2,-2,2,2,1
138321933548,1,4,-3,-1,0,-1,2,0
138321940382,-4,0,4,1,-2,1,-3,-4
138321940382,-2,4,-1,3,0,-3,-1,0
138321956646,4,0,-7,6,0,-2,-2,0
138321956646,-1,-4,3,-1,-1,-4,-7,-3
138321958342,-2,3,-2,-2,0,-1,-1,-5
138321958342,-2,-2,3,-2,-2,-2,-1,-2
138321971104,-1,2,-5,3,0,-5,1,0
138321971104,-2,-6,0,2,1,2,1,-3
138321994164,0,-3,2,-2,-3,-3,-2,-1
138321994164,1,1,-1,1,-1,-1,-6,1
138321994935,1,-1,-3,-2,-4,4,-6,5
138321994935,0,0,-3,4,-3,-1,1,4
138322000343,2,-3,-6,2,-1,-3,4,2
138322000343,-3,-1,-1,-1,0,2,-2,-1
138322016704,-4,-4,1,-1,-2,-3,-5,-2
138322016704,0,2,-9,6,-4,1,0,-1
138322018280,0,-5,-1,-5,0,1,0,-2
138322018280,0,-2,-3,0,-1,-2,-2,0
138322046771,-1,-2,2,-4,-1,0,-1,-1
138322046771,-5,-3,1,-1,-4,0,-2,3
138322048333,-3,0,-5,7,2,1,-4,-3
138322048333,-1,0,2,0,4,-2,3,-9
138322061661,1,7,-5,0,-3,0,1,3
138322061661,-1,0,-2,1,1,-1,-2,-3
138322063297,0,-1,-2,2,-1,3,0,-1
138322063297,-4,-1,2,-4,-1,-2,-7,-5
138322076691,-2,-3,0,-4,0,-4,-4,-5
138322076691,3,-5,-4,0,1,-1,1,-4
138322078342,2,2,0,0,-3,-3,-2,5
138322078342,-4,1,-7,-3,-5,-1,2,2
138322099151,1,-3,-3,3,-2,-2,2,-4
138322099151,1,-2,-5,2,-1,1,-5,1
138322100793,-2,0,8,-5,0,-2,-4,-4
138322100793,3,-1,-8,3,-2,-2,0,0
138322113481,1,-1,-4,0,0,-1,-3,1
138322113481,-4,-4,0,-4,-1,-4,-1,-1
138322120363,3,3,-7,3,-2,1,5,-1
138322120363,2,-3,-2,-2,0,4,2,-1
138322144183,-1,0,-2,-2,-4,0,2,-5
138322144183,-2,2,-5,-1,0,-3,3,-1
138322145758,0,2,1,-2,-3,0,0,-2
138322145758,2,1,-4,2,-2,-1,1,3
138322151030,-1,1,1,-2,1,-3,0,6
138322151030,0,-2,5,-5,-2,-3,0,-6
138322157845,-6,-5,2,-2,2,-4,-5,-2
138322157845,-2,-4,4,-2,2,-3,-2,-4
138322173490,0,3,-3,2,0,0,0,4
138322173490,-4,-2,2,-1,0,1,1,4
138322180265,2,4,5,-1,-5,0,-1,3
138322180265,-1,1,5,7,-5,1,-4,2
138322203950,-2,-3,8,13,-2,0,-4,0
138322203950,1,2,6,31,-6,-3,1,0
138322213148,-2,2,-1,43,-4,-4,-2,5
138322213148,-1,-3,-10,30,1,0,-2,3
138322213944,-4,-5,-10,-1,0,1,1,-2
138322213944,-1,0,16,15,2,-4,-1,2
138322217797,-2,-1,-34,33,-3,3,-2,4
138322217797,0,4,14,45,-5,2,4,4
138322233486,1,-1,-5,1,1,-1,0,-2
138322233486,6,0,-3,-61,-2,1,-4,-3
138322240336,-1,-6,26,-55,4,-1,-5,-3
138322240336,-3,-2,10,-84,5,-1,-4,-1
138322256698,-1,-1,22,-36,4,4,0,-10
138322256698,-5,-1,5,-9,3,3,-1,-2
138322258296,4,3,-73,-16,-4,-2,2,3
138322258296,0,-4,-64,-27,3,2,-4,-5
138322270320,-1,-2,-20,-14,-6,-3,-3,0
138322270320,1,-1,-4,10,-3,-2,-2,-6
138322279329,-3,-2,22,6,-3,-2,-1,6
138322279329,-1,1,18,2,-2,-4,-2,-2
138322293501,-5,2,2,13,-4,-1,-1,2
138322293501,2,-2,5,19,-1,-2,3,-1
138322300335,-1,1,11,11,-10,0,2,4
138322300335,-1,-2,2,-5,-1,-5,0,-10
138322316681,0,3,14,-6,1,-5,-3,-4
138322316681,-1,-2,-16,-22,4,-2,-3,-9
138322318299,-3,1,12,-22,4,-3,-2,-13
138322318299,-1,-4,10,15,0,-2,-3,1
138322339248,-3,-3,-2,-17,8,-4,-6,-11
138322339248,-1,1,-4,-15,0,1,-4,-7
138322340757,0,-1,4,21,0,2,-2,2
138322340757,-2,2,10,-7,4,-1,-6,-3
138322353502,-2,-4,-3,-14,11,-1,-5,-8
138322353502,-5,-2,-8,-2,0,-5,-6,-4
138322360338,-4,1,8,13,0,-2,-3,-5
138322360338,3,0,-2,-6,2,-2,-2,3
138322377379,-2,0,-3,20,-5,5,3,9
138322377379,0,3,-1,14,4,-2,-1,-4
138322378953,0,2,2,26,-5,-1,-3,6
138322378953,-3,3,3,44,-3,2,1,2
138322390808,6,-2,-1,14,0,-1,2,-2
138322390808,-3,-1,-2,-16,1,-1,-2,-4
138322399366,-2,0,0,-25,6,-6,-3,-15
138322399366,0,0,3,19,-2,3,3,1
138322413537,-2,-3,0,-38,2,-3,-5,-15
138322413537,0,-2,0,-3,1,1,2,1
138322420336,1,-5,2,-9,4,1,-6,-6
138322420336,-3,-4,-2,-44,6,-5,-5,-16
138322436619,-4,0,-3,-22,0,-2,-3,-2
138322436619,-3,1,-4,-9,-3,-1,0,-1
138322438244,0,-2,3,-11,0,-4,-2,3
138322438244,2,-3,2,-16,9,-5,-1,-7
138322450378,2,2,-5,-1,5,-5,-3,-8
138322450378,-4,-3,-3,-16,7,-4,-5,-18
138322459351,-6,-5,2,-17,2,0,2,-8
138322459351,-4,-4,-4,-48,5,-4,-2,-20
138322473599,3,3,-4,-14,1,-1,1,-7
138322473599,1,-3,-4,-30,10,-4,-4,-25
138322480379,-2,-1,-2,-18,3,-7,2,-9
138322480379,-2,-1,2,-23,6,-7,-2,-12
138322496045,-4,-3,-1,-15,-1,-1,-1,-6
138322496045,2,0,-2,3,-2,2,0,1
138322502848,1,0,-1,-13,2,-2,-4,-7
138322502848,-1,0,0,-44,12,1,-7,-17
138322510378,-3,0,0,-36,8,-3,-2,-15
138322510378,4,-5,0,-41,17,-3,0,-19
138322519387,0,-3,-4,-19,6,-1,1,-1
138322519387,1,-1,-5,-26,8,-5,-3,-20
138322533475,-5,-3,2,-35,6,-5,-2,-7
138322533475,0,-4,-1,-33,8,-5,-2,-15
138322540343,-1,-2,0,-24,7,2,-3,-19
138322540343,-4,-5,-4,-14,4,-2,1,-3
138322556038,0,-5,-2,-59,23,-10,-1,-37
138322556038,0,0,1,6,-3,-3,2,7
138322562804,0,-1,7,-1,3,1,-2,5
138322562804,-5,-3,-4,-65,12,-2,-1,-27
138322570338,-2,-3,-1,-36,3,-6,-4,-14
138322570338,-4,5,0,-21,9,-6,-4,-14
138322579338,-1,3,-2,-13,-4,-2,1,2
138322579338,-5,-1,1,-68,13,-11,-4,-23
138322593479,4,0,-3,13,5,-1,0,-9
138322593479,4,-1,-1,-41,10,0,-10,-18
138322600297,-1,-1,-3,-17,4,-1,-5,-10
138322600297,0,-3,-2,-27,4,-5,-1,-12
138322615992,-1,4,-1,11,-5,1,1,19
138322615992,-6,-2,-5,-22,-6,-4,1,8
138322622788,1,-1,-3,-19,15,-9,-8,-19
138322622788,0,-4,2,-14,4,2,-6,0
138322630336,-1,0,-1,-13,9,-3,-4,-18
138322630336,2,-1,1,-19,9,-1,-3,-22
138322646790,-2,-4,-3,-19,7,-1,-1,-6
138322646790,2,1,3,36,-16,5,4,23
138322653481,0,-3,0,-27,25,-9,-7,-51
138322653481,-2,3,-4,-19,17,-6,-3,-39
138322660262,-1,-4,0,21,-14,0,-2,26
138322660262,-3,-2,-10,-37,27,-10,-8,-59
138322675992,-1,-2,2,-37,10,-1,-6,-22
138322675992,-1,-2,-4,-121,38,-14,-8,-91
138322682822,-5,1,-5,-128,66,-19,-15,-128
138322682822,2,3,-2,-76,42,-12,-10,-101
138322699608,0,0,-5,2,26,-8,-12,-61
138322699608,-1,0,1,-41,47,-12,-10,-92
138322701211,-1,-4,-4,91,-2,1,-5,20
138322701211,2,0,-1,96,0,-1,-6,6
138322713583,-2,-1,-5,-9,30,-8,-5,-73
138322713583,-5,-2,2,-59,37,-14,-14,-82
138322720339,-4,-5,4,50,13,-6,-5,-18
138322720339,2,-1,0,105,-16,5,1,50
138322735353,-2,-3,0,127,-41,13,7,102
138322735353,-3,-4,-3,52,5,-1,-1,-17
138322742851,-3,-3,0,59,-16,6,9,67
138322742851,-2,-2,-1,104,-5,-1,-4,21
138322760041,0,1,1,127,-42,10,5,120
138322760041,1,1,0,127,-51,15,11,120
138322760824,2,0,-2,99,-25,6,3,68
138322760824,1,2,1,127,-60,17,15,127
138322782512,4,-5,1,113,-42,12,9,115
138322782512,-3,-3,-2,127,-62,14,18,127
138322783294,-2,0,0,-103,33,-9,-8,-101
138322783294,0,1,-3,-100,48,-14,-15,-100
138322795349,2,2,-4,50,9,0,-5,1
138322795349,-1,-4,0,127,-66,16,12,127
138322802895,0,1,-1,-49,-10,0,-1,2
138322802895,-2,-4,-6,-114,44,-11,-10,-96
138322818566,-2,1,3,51,-5,0,4,22
138322818566,2,-3,-1,127,-19,12,5,74
138322819276,-2,-1,-1,127,-19,9,3,62
138322819276,-3,-3,0,102,-5,-4,-4,4
138322834401,1,-4,-3,92,-10,-1,-1,36
138322834401,3,5,-2,127,-28,6,3,82
138322840308,-1,1,2,126,-16,1,-3,57
138322840308,-3,2,3,-28,23,-8,-8,-51
138322855404,-5,-1,-5,78,2,-4,-5,-15
138322855404,2,3,-4,49,13,-9,-6,-42
138322871026,1,1,-3,127,-31,6,7,91
138322871026,-2,1,-2,127,-68,19,18,127
138322878472,0,1,3,103,-33,8,8,96
138322878472,-2,-7,1,94,-56,13,13,101
138322879251,-3,-2,-3,-79,15,-1,-10,-68
138322879251,-7,-2,1,-48,24,-7,-6,-38
138322894350,-1,1,-5,-47,32,-9,-11,-88
138322894350,-1,-4,-3,54,32,-9,-8,-52
138322900376,-2,-3,-2,78,7,-1,-2,-19
138322900376,1,0,-2,127,-77,20,18,127
138322915400,-1,-4,4,-12,-22,6,6,39
138322915400,-3,1,-4,-101,57,-18,-18,-108
138322922873,1,-3,3,105,-28,6,11,74
138322922873,-1,1,0,-90,27,-7,-13,-68
138322938565,-3,-1,-3,-49,34,-11,-10,-86
138322938565,-3,-1,-1,-55,34,-7,-13,-82
138322939320,1,-4,-6,-108,67,-20,-18,-128
138322939320,2,-7,0,127,-29,9,6,76
138322954773,-2,-3,1,127,-62,18,13,127
138322954773,2,-1,4,102,-50,13,13,107
138322960339,-1,0,3,-91,14,-6,-1,-58
138322960339,-1,2,0,-74,33,-13,-10,-85
138322975327,-1,0,-3,-127,69,-16,-23,-128
138322975327,-7,3,-2,-110,60,-16,-17,-128
138322982844,4,5,0,127,-62,10,11,127
138322982844,2,1,6,115,-61,18,20,123
138322998484,-2,-2,-1,-105,42,-16,-9,-109
138322998484,1,-1,-3,-110,41,-8,-14,-95
138322999282,-5,-2,-2,8,33,-5,-10,-70
138322999282,0,2,1,94,-16,3,1,72
138323014321,-1,0,-4,127,-28,2,9,85
138323014321,2,-3,2,127,-22,6,-1,52
138323020350,-4,-6,1,83,-29,7,4,82
138323020350,2,-2,-1,116,-14,8,4,63
138323036830,-1,-4,2,127,-49,17,9,127
138323036830,0,-2,0,110,-36,11,10,127
138323051038,0,-3,1,127,-56,17,14,123
138323051038,-4,-1,-4,119,-56,16,14,118
138323058508,-3,-2,3,118,-52,13,16,126
138323058508,-3,0,1,74,-46,12,13,120
138323059277,2,-4,3,39,-34,11,9,119
138323059277,0,-1,-1,45,-30,9,8,89
138323074320,-8,-6,-3,-128,28,-14,-13,-115
138323074320,-4,1,0,-86,29,-7,-9,-85
138323080330,1,-2,-3,82,-12,1,4,78
138323080330,0,-1,-2,76,12,-3,-4,9
138323095313,4,1,2,127,-14,12,3,74
138323095313,-2,0,-1,70,1,-3,-5,-25
138323110992,-1,-3,-6,85,22,-6,-9,-79
138323110992,-4,-3,1,60,29,-13,-12,-82
138323118440,-1,3,-9,-98,36,-14,-18,-95
138323118440,0,2,-4,-88,27,-19,-17,-89
138323119267,-5,0,-10,-128,56,-23,-21,-128
138323119267,-4,1,-9,-128,48,-23,-19,-128
138323134297,3,-3,-3,-110,35,-21,-18,-123
138323134297,0,-3,0,-86,22,-15,-11,-83
138323140317,0,2,-3,-128,40,-22,-18,-128
138323140317,-4,-2,-7,-128,48,-24,-24,-128
138323155350,-1,6,-5,-68,32,-14,-10,-111
138323155350,1,4,-8,-93,33,-14,-12,-101
138323162842,-4,-1,-6,-16,26,-13,-8,-102
138323162842,5,1,-6,-128,46,-22,-16,-128
138323178561,-1,0,-2,3,22,-11,-10,-95
138323178561,0,-1,-8,-85,20,-17,-14,-94
138323179277,-1,2,-3,-2,26,-9,-13,-120
138323179277,-4,-1,-3,-128,45,-20,-22,-128
138323202525,-6,-1,-1,-116,30,-16,-10,-116
138323202525,-4,-2,-6,-65,19,-17,-13,-99
138323203352,0,2,0,-128,33,-27,-21,-128
138323203352,2,4,-1,-120,31,-21,-19,-128
138323223537,-2,-2,-5,-128,36,-21,-20,-125
138323223537,-3,-4,1,-113,25,-13,-18,-120
138323224346,3,1,-2,-128,20,-10,-12,-114
138323224346,-2,0,-6,-117,17,-15,-14,-126
138323238548,-4,-3,-6,-128,23,-18,-14,-128
138323238548,-2,3,-4,-101,25,-20,-13,-113
138323239335,-3,-1,-5,-128,25,-21,-20,-128
138323239335,-2,-6,-2,-120,27,-17,-14,-128
138323254999,-2,-3,-7,-128,33,-19,-24,-128
138323254999,0,-1,-1,-106,27,-16,-17,-122
138323260354,-6,-1,-7,-128,45,-16,-20,-128
138323260354,-7,-1,-6,-128,31,-17,-15,-128
138323275356,-4,1,-3,-128,30,-19,-18,-128
138323275356,0,1,-5,-109,34,-16,-17,-117
138323282819,0,-1,-3,-128,37,-23,-18,-128
138323282819,-2,-2,-3,-127,32,-15,-17,-128
138323298615,-1,-3,-4,-125,33,-16,-16,-124
138323298615,-2,-3,-3,-114,19,-13,-12,-121
138323299363,-4,-3,-4,-128,35,-23,-12,-128
138323299363,-2,1,-4,-126,32,-18,-11,-128
138323314408,1,3,-8,-128,32,-21,-12,-127
138323314408,-4,2,-5,-125,25,-19,-10,-126
138323320427,0,-1,-5,-128,29,-18,-19,-128
138323320427,0,-1,-1,-126,22,-17,-15,-127
138323335435,-2,2,-10,-128,29,-20,-20,-128
138323335435,-1,0,-7,-122,26,-19,-10,-125
138323342940,2,2,-5,-128,24,-13,-9,-128
138323342940,0,-2,-4,-126,28,-19,-18,-128
138323358495,3,1,0,-128,31,-20,-14,-128
138323358495,-7,-5,-6,-123,34,-20,-22,-127
138323359342,-3,1,-7,-128,31,-23,-21,-128
138323359342,-1,-2,-9,-128,35,-19,-17,-128
138323374320,3,2,-6,-128,36,-19,-18,-128
138323374320,-2,2,-1,-124,33,-14,-20,-126
138323380324,0,-1,-4,-94,34,-15,-17,-128
138323380324,-6,1,1,-121,42,-17,-16,-128
138323395326,-5,2,0,-87,30,-17,-14,-127
138323395326,0,-5,-3,-128,33,-23,-21,-126
138323402817,0,0,-1,78,8,-7,-6,-18
138323402817,-4,-6,-9,-107,40,-25,-18,-120
138323418428,-3,0,-2,-110,27,-15,-13,-118
138323418428,-1,2,-6,-127,44,-24,-16,-128
138323419251,0,2,-7,23,20,-12,-11,-79
138323419251,4,-4,-6,88,12,-3,-4,-61
138323434311,0,-3,-3,51,17,-7,-7,-72
138323434311,2,1,0,127,7,1,-9,-3
138323448517,-1,1,1,70,-13,8,5,85
138323448517,0,4,2,91,-26,11,11,119
138323455346,1,-2,1,60,-33,13,14,118
138323455346,-1,1,3,-69,5,-10,-4,-81
138323462845,-1,1,-4,-20,26,-10,-12,-110
138323462845,-3,3,-8,-71,32,-13,-15,-128
138323477814,0,-3,-2,9,23,-5,-14,-103
138323477814,3,2,-2,7,16,-4,-10,-82
138323485335,-1,0,0,60,6,-4,-4,13
138323485335,2,-1,-1,127,6,-1,-1,-19
138323500954,-3,-5,-2,78,15,-11,-7,-65
138323500954,0,0,-4,125,2,1,-7,-8
138323501800,-4,-3,3,55,-1,6,0,54
138323501800,0,-3,0,127,-14,7,2,111
138323515363,-1,3,2,115,-7,6,4,53
138323515363,1,-3,-5,127,-15,9,9,101
138323522813,-1,-2,-1,88,-14,4,5,71
138323522813,2,4,-5,115,0,4,2,40
138323537860,3,0,0,127,-17,10,7,125
138323537860,-1,-3,-2,127,-22,10,8,121
138323545355,6,0,0,110,-11,9,5,77
138323545355,-5,1,0,108,-8,5,1,63
138323554314,3,-1,-2,127,5,-2,-4,17
138323554314,-1,-1,5,127,-30,22,18,127
138323560350,-2,-4,0,90,-19,11,15,89
138323560350,-1,-1,-3,-106,3,0,-3,-32
138323575332,0,7,-6,-104,24,-14,-12,-79
138323575332,-1,-1,-5,-127,39,-21,-18,-111
138323582846,1,1,-5,-33,31,-18,-18,-128
138323582846,2,0,-6,-28,28,-13,-18,-109
138323597808,-1,-1,1,64,11,-5,-4,-57
138323597808,-3,2,-2,-78,34,-18,-17,-119
138323605267,-3,4,-5,31,21,-9,-14,-86
138323605267,3,0,-3,99,4,-1,0,-5
138323614336,-1,-1,-6,-95,26,-16,-12,-87
138323614336,-1,2,-1,80,13,-6,-6,-38
138323620424,-2,0,1,23,11,-8,-2,-5
138323620424,2,-1,8,127,-9,7,4,119
138323635429,-1,-3,1,127,-26,21,14,127
138323635429,0,-2,-3,127,-32,17,21,127
138323642875,0,-4,1,69,-24,12,9,95
138323642875,-4,0,-1,-86,10,-10,-8,-85
138323659349,-5,-1,-4,-108,30,-16,-14,-87
138323659349,-3,-1,-4,-118,37,-11,-16,-128
138323665426,-2,-4,-2,75,15,-2,-8,-16
138323665426,-1,1,-7,80,12,-3,0,-36
138323681090,1,0,-5,110,0,-1,-3,-21
138323681090,0,-3,-1,127,0,5,2,25
138323681806,-1,0,0,62,-28,12,8,70
138323681806,-1,2,-5,-95,27,-16,-13,-93
138323695437,0,-2,-5,-124,37,-13,-20,-94
138323695437,1,7,-3,-68,33,-18,-14,-109
138323702958,4,0,0,39,-4,0,7,43
138323702958,2,-5,-1,-60,-5,1,0,-4
138323726052,1,1,-1,-34,23,-8,-6,-68
138323726052,-1,-3,5,122,-29,10,9,125
138323726843,-3,3,0,-128,17,-8,-8,-50
138323726843,0,1,0,-53,20,-10,-7,-64
138323740997,-1,-2,-2,91,-7,8,1,33
138323740997,2,-1,4,76,-21,8,7,78
138323741822,-3,-3,-3,-85,5,-5,-6,-17
138323741822,1,2,-3,-43,22,-8,-10,-30
138323755380,2,-1,6,86,-33,13,8,112
138323755380,1,-2,4,39,-20,5,7,83
138323762899,3,6,0,-70,-1,-3,1,-32
138323762899,-2,-2,-3,-90,30,-13,-9,-96
138323777819,0,2,-1,69,-9,5,8,73
138323777819,2,-5,-1,127,-43,18,15,127
138323785286,-3,-5,-2,-65,-8,1,0,12
138323785286,-3,-2,0,-67,17,-10,-8,-64
138323801518,1,5,-4,68,0,-2,2,-11
138323801518,2,1,-1,68,-20,11,5,77
138323808644,1,4,-6,26,-6,-2,4,23
138323808644,-1,-3,-3,10,1,-2,-3,6
138323815366,-3,-2,2,22,4,-3,-5,-32
138323815366,-2,-6,1,9,9,-3,-6,8
138323822910,1,2,-2,127,-29,16,5,63
138323822910,1,2,2,41,-34,12,8,80
138323837867,-2,-5,2,-121,30,-12,-7,-82
138323837867,-1,2,-2,17,14,-5,-10,-27
138323845365,2,-5,0,119,-24,5,6,49
138323845365,0,1,-1,22,6,1,0,6
138323861050,3,-1,-3,85,-27,11,7,97
138323861050,1,1,2,27,-22,6,8,24
138323861823,-5,-7,1,106,-24,10,7,84
138323861823,-1,-1,-2,7,10,-3,-8,4
138323875404,3,-1,4,83,-36,13,13,110
138323875404,-1,1,-2,67,-26,10,7,62
138323882894,3,-1,2,118,-40,5,11,91
138323882894,0,0,-3,-7,3,1,0,-29
138323897827,-5,1,1,87,-13,4,6,64
138323897827,-4,-3,-1,68,-17,4,4,70
138323905315,-6,0,-1,6,-4,1,4,9
138323905315,-2,-4,3,26,3,-2,-2,16
138323921049,4,2,1,77,-20,8,6,71
138323921049,-5,0,3,23,-27,4,3,37
138323921844,1,-4,0,-98,20,-6,-5,-72
138323921844,-1,-3,2,127,-15,8,4,78
138323935440,-1,-5,-1,62,-34,9,5,97
138323935440,0,-3,-5,55,-9,4,-1,39
138323942899,-2,-2,2,124,-29,13,9,89
138323942899,0,2,1,1,-1,-2,-1,-4
138323957898,-6,-3,0,60,-3,2,1,16
138323957898,5,0,-3,56,-14,4,3,60
138323965456,0,2,-2,79,-12,6,2,49
138323965456,-3,0,1,17,-31,11,12,59
138323981039,-5,1,0,21,8,-6,-6,-49
138323981039,-2,1,-3,29,22,-7,-9,-51
138323981813,-2,-1,-4,85,-8,6,-3,30
138323981813,-2,-1,1,45,-6,0,0,19
138323995310,-3,-3,-4,-22,17,-4,-6,-65
138323995310,-4,-4,-4,-110,57,-18,-19,-128
138324002811,0,-3,-3,68,33,-9,-10,-41
138324002811,-1,-1,1,127,-11,4,3,38
138324017936,1,-5,-4,-19,22,-14,-9,-55
138324017936,0,-5,-1,87,-27,12,15,74
138324025331,2,0,0,48,-5,0,0,35
138324025331,-1,-4,-2,127,-22,11,12,81
138324041136,-3,-2,2,-43,31,-10,-6,-75
138324041136,0,3,-4,-118,59,-23,-20,-128
138324041868,-4,2,-1,-126,63,-27,-21,-128
138324041868,-1,-3,1,-47,32,-12,-14,-64
138324056950,1,2,-3,-83,40,-16,-14,-89
138324056950,-3,1,0,-128,49,-24,-19,-128
138324062889,-6,-2,-6,-128,74,-25,-25,-128
138324062889,0,2,0,-55,36,-13,-14,-79
138324077927,-1,0,4,-50,23,-5,-8,-75
138324077927,-3,-6,-2,-128,31,-12,-10,-119
138324085410,-1,3,4,-128,58,-22,-25,-128
138324085410,-6,5,3,-84,31,-15,-14,-91
138324109263,4,-2,2,-128,37,-19,-19,-102
138324109263,-3,-2,5,-117,48,-21,-18,-128
138324109970,-2,-2,2,-128,53,-20,-16,-128
138324109970,0,0,-2,-103,22,-13,-9,-95
138324115442,-5,-2,-3,-123,31,-13,-12,-104
138324115442,1,5,-4,-64,25,-10,-5,-90
138324122944,2,-2,-3,-124,55,-23,-21,-128
138324122944,1,3,-1,-96,38,-14,-13,-94
138324146017,0,2,-1,-116,41,-15,-19,-118
138324146017,-2,-2,0,-128,62,-22,-20,-128
138324146792,-1,0,0,57,12,-9,-5,-18
138324146792,-5,-3,1,-72,35,-9,-8,-94
138324160866,-1,-3,-2,-97,36,-18,-17,-102
138324160866,-3,-1,-1,28,34,-5,-13,-71
138324168607,0,-2,3,55,-16,3,3,62
138324168607,0,1,0,127,-37,17,12,127
138324175446,-4,-2,0,127,-64,24,23,127
138324175446,-4,-1,-1,32,-43,9,6,84
138324182907,1,-3,-3,8,-25,10,4,58
138324182907,-2,-4,-5,-69,20,-10,-7,-70
138324199409,-2,3,1,61,9,-4,-4,-5
138324199409,0,-3,1,116,-45,15,11,103
138324205415,-2,-2,-1,-48,-6,-2,-1,0
138324205415,-4,-4,-4,-85,26,-7,-8,-53
138324221066,6,3,-1,-117,50,-14,-19,-122
138324221066,2,-1,3,84,10,3,-2,25
138324221807,1,3,-5,106,-36,13,10,85
138324221807,4,-1,-4,-49,-9,-1,0,-4
138324235404,-6,2,-2,43,6,4,0,24
138324235404,-1,-2,-1,83,-38,13,10,92
138324251118,-5,-6,2,38,-19,10,6,35
138324251118,0,0,1,8,-21,5,8,28
138324257955,0,-2,-1,-56,28,-8,-13,-76
138324257955,-5,1,-2,12,6,-2,-4,18
138324265465,2,-1,0,87,-18,3,4,49
138324265465,1,-8,0,-14,-11,-3,3,6
138324282565,-2,-1,-4,116,-24,5,12,71
138324282565,2,-2,3,58,-17,6,5,53
138324283342,-1,0,-3,71,-27,10,8,46
138324283342,-4,-4,3,9,6,-5,-3,-9
138324295417,-4,2,1,104,-14,4,5,31
138324295417,3,-7,2,67,-21,2,4,62
138324302920,1,3,3,106,-25,7,2,76
138324302920,4,1,2,110,-47,17,10,127
138324317860,1,-2,-4,-87,4,-3,-2,-42
138324317860,1,3,-3,-124,59,-25,-16,-128
138324333559,-3,0,4,-12,33,-10,-16,-59
138324333559,-5,2,-5,127,-31,10,7,122
138324341045,1,-3,2,127,-59,15,14,127
138324341045,-4,0,-1,106,-18,7,3,60
138324341838,1,-1,-2,38,16,-5,-5,-11
138324341838,0,3,0,127,2,2,-4,24
138324355373,1,-3,-4,65,5,1,-4,-5
138324355373,-2,-1,-2,-128,51,-17,-18,-128
138324362906,0,-1,-5,-128,72,-20,-21,-128
138324362906,-2,-2,-1,-92,55,-23,-17,-115
138324377929,-1,0,-2,-121,39,-13,-14,-75
138324377929,-2,3,-5,-115,38,-15,-10,-128
138324385438,1,2,-2,-128,57,-24,-17,-128
138324385438,-4,1,-6,-102,30,-8,-12,-97
138324400427,-1,-5,0,-124,42,-14,-12,-118
138324400427,-2,-1,-2,-118,42,-14,-12,-112
138324408581,-1,-1,-4,-128,44,-14,-10,-108
138324408581,-2,2,-1,-120,24,-9,-7,-71
138324415472,-7,-2,-7,-121,25,-12,-8,-96
138324415472,1,1,-3,-105,-3,-4,-5,-18
138324422818,-4,-8,-5,-62,12,-1,-4,-36
138324422818,1,-2,0,-98,28,-4,-6,-69
138324439425,-4,-1,-3,-111,28,-7,-9,-66
138324439425,0,2,0,-52,9,-5,-6,-35
138324445425,-4,-3,-5,-83,14,-8,-5,-38
138324445425,1,5,2,-65,3,-4,-7,-21
138324460386,-2,1,2,-33,-9,3,6,29
138324460386,-6,0,-2,-70,7,-5,0,-20
138324468989,-7,1,4,-13,7,-5,-5,-13
138324468989,1,-4,-3,-47,8,-3,-2,-20
138324476943,3,0,3,-46,-7,-3,0,8
138324476943,-1,4,0,1,2,-5,4,-10
138324482914,0,4,1,-41,6,-2,-5,-20
138324482914,-5,-8,0,-12,1,-6,0,-4
138324497915,1,2,4,71,-20,6,2,45
138324497915,0,-4,-4,-34,2,0,-2,-2
138324505493,-2,-4,-7,-28,5,-3,-6,-10
138324505493,0,1,-1,48,0,2,0,0
138324520352,-4,-2,-1,-11,-4,-4,1,12
138324520352,1,2,-1,-22,6,-9,-3,-17
138324528671,-4,-1,-3,17,1,0,0,-12
138324528671,-1,-4,-3,-42,4,-4,-4,-6
138324535338,-3,-3,-2,-4,-11,2,2,14
138324535338,-3,0,-1,27,-4,1,0,11
138324542902,4,-1,4,-9,2,-4,-3,-8
138324542902,4,2,-3,22,-4,1,0,10
138324557968,2,-1,2,2,2,-6,-2,-10
138324557968,2,0,-1,-22,5,-2,-5,-12
138324565353,0,-5,2,-20,1,-2,-5,-12
138324565353,-3,1,0,3,-3,-2,-8,1
138324589268,-1,-3,1,-25,-7,4,-2,2
138324589268,-3,0,-2,26,3,-1,-2,2
138324590021,-3,0,2,-16,1,-8,0,-13
138324590021,1,0,-1,1,1,-1,1,-1
138324603517,3,-2,-2,6,2,1,1,-4
138324603517,1,-3,1,-7,-1,-1,-6,-3
138324604305,-3,3,-1,7,-1,-2,6,-1
138324604305,-4,0,2,14,-2,-1,-1,-3
138324617863,-1,-1,-2,-58,6,-3,-3,-20
138324617863,3,-5,0,-3,-3,-1,5,5
138324625317,-1,-1,-3,-35,5,-3,-3,-9
138324625317,0,3,0,-15,2,-7,1,-9
138324640415,-1,0,-1,8,1,-1,-2,1
138324640415,-1,-2,0,-21,3,-2,1,-11
138324648598,0,2,-1,-6,3,-6,-7,-10
138324648598,-2,1,3,-6,6,4,0,-6
138324663523,1,2,-1,-4,4,-3,-2,-5
138324663523,-1,1,-1,-37,1,1,-6,-5
138324664295,1,1,-4,-12,2,0,3,1
138324664295,-3,4,-2,-16,0,-4,0,1
138324677868,0,-2,2,14,-2,-2,1,10
138324677868,-8,0,-1,-30,2,-4,-2,-11
138324685324,1,-6,-2,-30,2,-2,4,-4
138324685324,-4,-8,-3,-40,3,-2,-2,-7
138324701941,-1,3,-1,2,3,-5,-3,0
138324701941,0,-3,0,2,2,-3,0,-2
138324708493,-7,-3,1,-28,9,-5,-7,-13
138324708493,-1,-4,-1,6,1,-2,-2,4
138324723530,-3,0,-4,8,4,1,-3,-2
138324723530,1,0,0,14,-6,2,-3,-3
138324724291,2,0,-2,-10,5,-4,-2,-10
138324724291,3,-4,-3,-16,1,-2,-3,-11
138324737880,-3,1,-3,6,-4,-2,-1,4
138324737880,0,-3,-6,-16,0,-2,-3,-2
138324745364,-4,0,-8,-22,0,-1,-4,-9
138324745364,2,-1,-1,-32,5,-6,-7,-12
138324760312,-2,0,0,-34,5,-6,-1,-19
138324760312,-2,-3,5,-21,4,-3,-2,-15
138324768570,-1,2,4,-40,-1,-2,-5,-16
138324768570,-7,0,5,-22,-3,-4,-4,-6
138324783541,1,-1,-2,-15,3,-4,-1,-9
138324783541,2,-1,6,-1,-1,-1,0,0
138324784337,1,-1,4,-11,3,-3,-4,-13
138324784337,0,-3,2,32,-2,0,5,7
138324797861,-2,0,6,-2,-2,1,-5,-5
138324797861,-2,-1,10,-4,0,-4,-4,-6
138324805367,2,-3,5,-1,3,1,1,-3
138324805367,-1,0,-4,10,-3,2,-3,3
138324820389,0,-1,-1,1,-3,0,4,4
138324820389,5,-1,1,-2,-2,-4,-3,1
138324828526,-3,-2,1,8,3,0,0,3
138324828526,2,0,-3,6,-7,3,2,5
138324843542,0,-6,7,-11,0,-2,-1,-3
138324843542,-2,3,-14,2,-1,2,2,5
138324844326,-3,-2,-3,-5,0,0,0,0
138324844326,-4,3,1,9,-2,-5,2,-1
138324857895,3,-2,-4,-5,1,1,-1,-4
138324857895,-2,3,-3,5,-4,6,4,4
138324865403,-1,-9,4,6,0,0,-4,-3
138324865403,-1,-1,-8,8,0,-1,3,0
138324888995,-1,-3,-3,-16,-3,-2,-1,-3
138324888995,-5,-8,-3,3,2,1,3,2
138324889766,3,-1,-7,12,-2,0,4,-1
138324889766,0,-2,0,-7,1,-3,-6,2
138324903570,-1,2,-5,1,1,2,-3,-3
138324903570,0,4,-4,15,0,-2,0,6
138324904393,3,2,-12,-1,-3,0,0,2
138324904393,2,-2,-8,9,0,2,6,2
138324927568,-2,-4,-7,9,4,3,-3,3
138324927568,-4,-2,-3,-1,2,1,-1,-3
138324928386,1,-4,0,-4,-3,2,-1,3
138324928386,0,1,-5,10,0,-2,0,-1
138324940420,-1,-3,-4,-2,-4,3,6,1
138324940420,0,-2,-5,-2,-2,-2,1,-2
138324948675,-3,3,-5,2,3,-2,1,3
138324948675,1,-4,0,2,-4,2,-1,3
138324963375,-2,0,4,-9,-8,-6,-2,-2
138324963375,-2,-2,1,-1,0,-4,0,-6
138324971106,1,3,-2,0,-2,5,-4,4
138324971106,5,1,-4,3,-5,0,0,6
138324977872,2,-3,-4,1,1,-1,-3,-4
138324977872,-5,-1,4,-2,-4,-1,3,-3
138324985466,6,0,0,0,-3,-4,-6,-4
138324985466,-1,3,-5,3,-3,-2,-3,-2
138325001989,-1,0,-5,-2,2,0,-5,2
138325001989,-1,2,-11,4,-1,3,-3,2
138325008648,-9,-2,1,0,-2,-1,2,-2
138325008648,-3,-2,2,-5,-4,1,2,1
138325023346,-2,0,5,-4,2,0,3,0
138325023346,-1,-2,3,-1,2,-7,-4,-1
138325031147,1,2,4,0,-2,-2,2,-4
138325031147,-6,-8,1,-2,-1,-1,1,-3
138325037906,-1,1,-6,4,3,-1,-2,-1
138325037906,1,-1,-5,3,0,0,1,-1
138325053607,1,2,-6,2,-1,-3,1,0
138325053607,-2,-1,3,2,-2,2,-1,-4
138325060404,0,-4,1,2,-1,-5,-1,1
138325060404,1,-5,2,-1,-3,-1,-1,0
138325068603,-1,-2,-2,4,0,-2,-2,2
138325068603,-1,-3,-1,1,0,-1,0,0
138325083590,-4,5,-3,2,-1,1,-4,3
138325083590,1,1,1,0,-2,0,-4,-4
138325084385,0,0,0,-3,-2,-1,0,-5
138325084385,-3,-2,1,-1,-3,-2,-3,-4
138325097930,4,-3,-7,6,-7,0,0,4
138325097930,1,-1,-5,1,-1,0,-1,-3
138325105388,-3,5,1,-5,0,-5,-3,-6
138325105388,-1,-2,-4,0,3,-1,-3,-3
138325120371,-2,-1,0,-1,-2,-2,0,-4
138325120371,0,-3,0,-2,-1,0,-3,0
138325129004,-1,-8,5,-7,-3,-4,-4,-3
138325129004,0,-1,0,-1,1,-2,1,-3
138325143579,0,-5,3,-3,1,-1,-2,-6
138325143579,-2,-3,-3,0,-1,2,-3,2
138325144364,-3,-2,-2,-4,-2,0,-1,-1
138325144364,-4,2,4,-3,0,-1,1,-2
138325167566,1,-6,-3,-4,-4,1,2,4
138325167566,-1,-2,1,-7,-3,-2,0,-5
138325168360,1,0,0,-1,-4,0,2,1
138325168360,-5,-1,4,-4,-3,3,-2,-5
138325180387,0,0,1,-5,1,-5,3,-9
138325180387,0,2,-5,0,1,-7,2,-1
138325196123,-2,-3,1,-4,-1,1,0,3
138325196123,4,-1,7,-3,3,-7,0,-7
138325203641,-1,1,6,-3,-2,-3,2,-4
138325203641,-1,-6,1,-4,-3,2,0,3
138325204384,0,-2,4,-7,-2,0,3,2
138325204384,2,-3,6,-2,-3,-4,0,2
138325217891,-2,2,-1,-2,-3,-1,-1,4
138325217891,0,-1,5,1,-3,-2,-3,3
138325225369,-3,-2,2,2,0,2,-1,2
138325225369,1,1,-5,-1,1,-1,-3,1
138325256799,-1,-3,-8,8,1,0,4,2
138325256799,-3,-1,-3,-1,-2,0,0,0
138325257588,2,1,-2,2,4,-1,-2,-3
138325257588,1,3,-5,2,1,-4,-3,4
138325263570,2,-2,0,-1,-1,-3,2,0
138325263570,-4,0,0,-2,2,-2,1,-2
138325264337,-1,-2,-5,5,-2,-4,2,-2
138325264337,-1,-2,-4,2,-3,1,-1,4
138325278020,-1,1,-7,5,2,1,-4,-3
138325278020,-5,-4,5,-3,-2,0,0,-3
138325285482,-2,-5,-1,1,1,-8,-1,-4
138325285482,-2,1,3,-4,-5,3,-3,0
138325300402,0,2,6,-6,-8,1,-7,-2
138325300402,1,-3,-2,-3,-2,-1,-4,1
138325308595,-4,2,-8,1,-4,2,3,4
138325308595,-3,-1,3,-5,5,-5,-2,0
138325323638,1,-2,-5,5,-3,0,2,-1
138325323638,-2,3,-3,1,1,-2,3,-4
138325324393,0,-2,2,3,-2,-2,-2,0
138325324393,-2,-3,-8,6,-1,-2,1,0
138325337857,-3,1,-2,-3,-3,-2,-7,-7
138325337857,1,-4,-5,-4,-4,-4,3,0
138325345367,2,3,-4,-2,-1,0,4,-2
138325345367,3,3,-10,4,0,1,-1,0
138325369245,-4,-2,2,-4,3,-1,-4,-2
138325369245,1,-3,-3,2,-2,1,1,5
138325370059,1,-4,1,-1,-1,-2,-5,0
138325370059,-4,-8,3,-8,2,-2,-1,-1
138325382952,-4,-5,6,-11,2,-2,-4,-7
138325382952,-3,1,0,5,-4,0,1,0
138325391215,-2,0,-5,6,-1,2,-2,1
138325391215,0,4,-8,2,-3,0,2,0
138325398026,-3,-6,9,-9,5,-1,-2,-2
138325398026,-6,-2,-3,3,1,0,1,-1
138325405437,-2,2,-2,-1,-2,-5,-2,-1
138325405437,1,-3,-3,4,-3,0,0,-4
138325420426,1,2,5,1,-4,2,5,10
138325420426,2,4,-4,3,-3,-2,-4,1
138325428557,0,-4,4,-4,-2,0,-2,1
138325428557,-1,0,4,-4,1,0,-5,-3
138325442990,-2,-1,6,-5,-5,-3,-3,0
138325442990,0,0,0,-3,-3,-1,-4,-1
138325451097,-1,-1,-1,-4,2,-4,-7,0
138325451097,-2,-3,8,-1,-4,-3,0,-8
138325457931,-1,5,-3,2,-6,-1,4,2
138325457931,-1,-4,3,-1,-4,4,-1,-5
138325465421,0,-4,-5,3,-2,-1,2,-4
138325465421,-4,0,-4,-4,0,2,1,1
138325480432,0,-1,-10,12,-3,3,2,3
138325480432,1,-2,-2,0,2,-4,-1,1
138325488672,-3,-1,2,-1,-5,0,1,-1
138325488672,0,-7,0,-3,-3,-1,0,4
138325502868,1,-2,-3,0,-3,2,-1,0
138325502868,-1,-2,2,-6,-2,-5,-5,-4
138325511117,2,-3,4,-2,2,2,-7,-3
138325511117,-5,2,8,-3,-1,-5,0,2
138325517892,-3,-2,-9,3,-1,-1,-3,-1
138325517892,1,-2,-4,0,3,-3,-2,-1
138325533667,2,-7,1,-6,-4,1,-1,2
138325533667,2,-4,-4,0,-1,3,-3,-4
138325549268,2,0,-4,-2,4,-3,1,-7
138325549268,-3,-3,3,-1,-3,0,-3,0
138325550067,-3,0,-2,-4,1,1,-1,0
138325550067,1,-3,-3,-2,-1,0,1,0
138325562948,-1,-6,-4,-3,2,-1,-4,1
138325562948,-3,-3,1,-2,-2,1,1,-2
138325571078,-6,-1,6,-5,1,-3,1,-4
138325571078,0,3,-2,1,-1,2,2,3
138325586069,1,0,2,-4,0,-4,-1,-3
138325586069,-3,-1,2,-4,1,-1,-4,3
138325586847,-1,-4,7,-9,-6,0,-3,-2
138325586847,2,-5,-2,1,1,0,-2,-1
138325600372,-2,-2,0,1,9,-1,-4,0
138325600372,1,-1,-2,-1,-1,2,1,1
138325616162,4,3,-3,7,-5,0,0,5
138325616162,1,1,-2,0,-1,-2,-5,1
138325622914,-6,-3,6,0,-1,-2,2,1
138325622914,2,0,1,-1,-6,-2,-4,-2
138325631115,2,1,-3,1,1,3,-1,6
138325631115,-6,-2,3,-2,0,-2,-4,-7
138325646026,0,0,-1,4,-7,1,5,1
138325646026,0,-3,-1,0,2,-5,-1,0
138325646828,-5,-4,1,-3,0,-2,-2,0
138325646828,-3,-2,7,-5,-1,-2,-3,1
138325660420,1,-2,-5,4,-1,-6,-2,-4
138325660420,2,2,0,2,-1,-2,-2,0
138325668638,-2,-1,-3,-2,-2,-3,1,-5
138325668638,2,0,3,0,-1,-7,-1,-4
138325683006,-1,5,-4,-4,0,-3,-2,0
138325683006,-4,1,-6,3,2,-3,0,-3
138325691189,-1,-2,4,-1,-1,-4,-4,-2
138325691189,1,-1,-2,-1,-5,-3,-1,-3
138325706080,0,2,-4,-2,-2,2,3,2
138325706080,-1,1,-6,2,-3,1,1,2
138325706833,0,-2,-3,-1,-2,-1,3,-5
138325706833,-1,1,0,2,0,-2,0,-2
138325720416,-3,-5,-6,4,-1,-1,-4,0
138325720416,-2,0,0,-4,-2,-3,-3,-3
138325728649,-3,-1,-2,-2,-2,-5,1,-1
138325728649,-1,-2,2,-1,2,2,-3,4
138325742907,-5,-6,1,-9,1,-1,1,-5
138325742907,-3,-2,4,-5,-2,-3,0,-2
138325751120,0,-1,0,0,0,-5,-3,-2
138325751120,0,3,-5,-3,-5,0,1,-7
138325766065,2,1,4,-7,-3,4,-2,-3
138325766065,1,-2,-2,4,-1,-1,0,2
138325766807,-1,-2,2,-3,1,-3,-3,-5
138325766807,-3,-3,-12,2,4,2,-2,0
138325780390,-5,-3,0,-6,0,-1,5,-3
138325780390,0,3,6,-7,-2,2,1,-2
138325788615,0,-2,0,1,-1,1,0,1
138325788615,-1,3,-1,2,-2,-6,1,-1
138325802894,-2,-1,7,-6,-4,-4,-4,0
138325802894,-2,3,-6,0,-1,2,-4,2
138325811177,-3,4,-2,-1,-2,2,0,1
138325811177,1,-4,4,-5,-4,0,-5,1
138325826099,4,-2,4,-2,-3,-1,-3,-5
138325826099,-3,-4,6,-1,-2,-3,3,0
138325826987,2,-1,6,-3,-1,-2,-3,-5
138325826987,-2,-2,0,-1,-2,5,0,3
138325840424,-2,2,-4,2,-4,0,3,-4
138325840424,0,-2,-4,1,2,-1,-4,-3
138325848615,-3,2,1,-2,-1,-2,-1,-4
138325848615,-1,-3,0,4,2,-3,4,3
138325863061,-1,-2,-2,-2,-1,-1,1,1
138325863061,-2,-2,2,-1,-1,-5,0,-2
138325871133,-6,-1,-7,2,0,0,-1,4
138325871133,-3,-3,0,-3,1,-2,-2,-3
138325886099,-3,1,-2,2,0,-3,-5,-1
138325886099,4,-2,-7,3,-1,4,-1,3
138325886896,-1,-2,2,-1,1,-4,-4,-1
138325886896,-2,4,4,-5,-5,-2,2,-2
138325900442,4,-5,-6,2,1,3,4,2
138325900442,-3,0,3,-7,1,-4,-2,1
138325908544,0,-4,-2,0,-1,0,1,5
138325908544,3,1,-5,3,-1,0,0,6
138325923031,3,1,3,-3,2,-5,-2,-4
138325923031,-3,-1,3,-3,-2,-1,-4,-4
138325931094,0,-1,5,-1,-2,1,1,-3
138325931094,-2,-3,3,-3,-4,-1,-3,-1
138325946053,2,3,0,4,-6,0,-2,1
138325946053,0,1,-2,0,-2,-3,2,-1
138325946849,-3,2,1,-2,0,1,-2,-1
138325946849,-1,-2,3,1,-2,-6,-3,-1
138325960474,0,-1,2,2,-5,0,-3,5
138325960474,3,2,1,-2,0,-4,1,0
138325969276,-2,-2,1,-2,-2,-2,-2,-3
138325969276,-8,-3,1,1,3,3,-3,-1
138325982948,-7,-5,8,-5,0,0,-4,1
138325982948,-4,-4,7,-2,-1,0,-3,-3
138325998727,3,-2,0,-1,3,-5,0,-1
138325998727,1,-2,-1,-1,-3,-7,-4,0
138326006109,-5,1,0,2,0,-3,1,0
138326006109,2,4,-9,2,0,1,2,-2
138326006831,2,3,-2,1,-3,2,2,3
138326006831,5,-2,2,-4,-3,-1,4,1
138326020365,0,1,-3,4,1,-1,-2,-1
138326020365,-2,0,-3,4,-1,-3,1,4
138326028565,-2,2,-3,5,-5,2,-4,0
138326028565,-2,-3,-1,1,-2,0,5,-1
138326042880,1,-2,-5,3,-5,-1,-5,0
138326042880,-2,0,0,1,-1,-1,0,-9
138326051182,-2,-3,-1,-3,1,-1,0,0
138326051182,-2,-1,-2,1,0,-3,-2,-3
138326066046,-4,0,-7,-1,0,0,1,2
138326066046,0,2,-2,0,-5,-3,-2,8
138326066838,-3,0,5,-4,-3,-5,-3,-1
138326066838,-1,2,-7,1,1,0,1,1
138326089333,-2,3,2,-3,-2,1,0,-2
138326089333,-2,-3,-3,3,0,-1,-1,-4
138326090025,-6,-4,3,-7,5,-5,-4,-7
138326090025,-3,-5,-4,1,-1,1,-4,-1
138326102935,-1,-1,0,-1,-3,-4,-4,-3
138326102935,-2,-1,-2,1,0,2,-3,1
138326111136,1,4,-8,1,-3,0,4,3
138326111136,-2,-1,1,-2,-2,-1,-3,-4
138326126132,2,1,-8,6,0,-2,-1,2
138326126132,2,-1,3,-4,-5,1,-4,-2
138326126965,3,2,-4,-1,-2,-3,-1,0
138326126965,2,7,-3,-1,-3,2,-6,3
138326141982,4,-1,2,-2,-4,3,-4,-7
138326141982,4,2,0,0,1,-2,-5,6
138326156129,-2,-5,4,-2,-3,-2,-3,-3
138326156129,1,2,-7,6,-1,-1,-1,2
138326162915,-2,2,0,-1,1,0,-2,-3
138326162915,-4,-7,3,-2,-1,-1,2,-4
138326171112,1,-1,-2,-1,-4,1,-5,4
138326171112,-3,-2,-1,-1,-3,0,1,-1
138326186042,-1,-5,-2,0,1,0,0,-2
138326186042,-1,-4,-1,-6,-3,-2,-1,-5
138326186839,-4,-2,-4,1,-2,3,3,-1
138326186839,0,-1,3,-1,-1,-1,-4,2
138326200458,-2,-4,-4,-2,1,-1,2,3
138326200458,-3,-2,4,-1,-4,-2,-3,2
138326208597,-1,-2,-5,3,-3,-1,3,-2
138326208597,-4,-4,-1,-6,0,0,-1,1
138326222850,2,0,4,-1,-3,-4,3,0
138326222850,0,2,-3,3,-1,0,-1,0
138326231083,-1,-2,1,-4,-4,-4,0,-2
138326231083,0,-3,5,-3,-1,-1,-2,-4
138326246081,0,-2,-4,-2,1,-3,-6,-1
138326246081,-2,2,-7,1,2,1,4,-6
138326246821,-3,-8,9,-5,2,-4,-3,3
138326246821,-2,-1,-3,-1,2,-4,3,-2
138326260388,-5,0,-2,-3,-1,0,1,1
138326260388,-2,-4,1,-3,1,-1,-2,-8
138326268600,-4,-1,-1,-4,-3,0,-3,-1
138326268600,-1,1,0,-4,-3,-4,3,-1
138326282883,0,-3,5,-1,-1,-1,1,1
138326282883,0,0,-3,1,-3,-4,-2,2
138326291067,-1,3,1,-1,0,-2,-2,-2
138326291067,2,2,4,-4,0,3,-4,2
138326305381,0,-3,2,-3,0,-4,-1,-3
138326305381,-2,5,-9,2,-1,3,-1,8
138326313580,0,2,1,0,-2,-2,1,3
138326313580,1,-2,-1,1,-1,-2,0,1
138326320383,-3,1,-3,1,-5,-1,1,6
138326320383,3,3,3,0,-1,-1,-3,5
138326336065,4,5,-5,0,0,1,-2,-3
138326336065,-4,0,-1,-1,-1,-1,3,1
138326342872,4,0,-3,2,-6,1,2,6
138326342872,-4,-3,-2,-3,-4,-3,-2,3
138326351127,1,2,0,1,-1,-1,-1,-1
138326351127,-1,1,-5,6,-2,1,1,0
138326365331,-1,4,-1,0,-1,-1,-3,-4
138326365331,2,-3,-6,1,1,2,-1,-3
138326374427,-1,-3,-1,2,0,-2,0,-3
138326374427,2,-2,3,-4,-3,-2,0,2
138326380396,-1,-3,-1,-2,-2,3,-2,0
138326380396,-5,-4,2,-3,1,-4,2,-4
138326389414,-3,-5,-3,4,-2,2,-5,1
138326389414,-1,-1,-3,0,2,1,-5,-2
138326402866,-1,-3,-1,-2,-3,1,-1,-2
138326402866,-1,-4,-1,-1,0,-1,-1,3
138326411906,1,-3,-1,0,-1,-2,-3,-1
138326411906,0,-1,-3,4,-2,1,-2,-1
138326425462,-1,0,-2,2,1,0,1,-2
138326425462,6,0,-3,-3,-3,1,-1,-1
138326434379,-2,-2,-3,3,1,-3,0,-4
138326434379,6,1,-4,0,-7,-2,0,2
138326440342,1,5,-5,2,0,-3,0,1
138326440342,-2,1,-2,3,-4,-1,0,-2
138326449416,-2,1,-4,-1,2,-3,0,3
138326449416,1,5,-5,0,-3,-4,3,-2
138326462934,-3,-2,0,-1,-2,-6,-1,-3
138326462934,-6,0,-2,-3,-1,3,-1,1
138326479365,-1,0,-1,0,-2,3,-5,0
138326479365,-3,-11,-4,0,3,-2,-5,-7
138326485376,1,0,-5,-2,-2,-4,2,2
138326485376,-4,-3,5,-2,-2,1,2,-3
138326494409,2,-1,-1,-1,-2,2,3,-2
138326494409,-3,-1,2,-4,-3,3,-6,-6
138326509238,-2,-3,5,-1,0,1,-2,-3
138326509238,2,-2,-6,-2,-1,2,-1,6
138326510820,-2,1,-3,2,-1,-1,2,3
138326510820,2,5,1,-2,-2,-4,1,0
138326531873,-1,-2,4,-6,0,2,0,-7
138326531873,-1,0,0,7,-1,-2,-2,-6
138326533443,-1,-1,-1,4,-2,-1,-4,2
138326533443,-2,3,3,19,1,4,0,4
138326545498,0,2,-2,8,-2,-1,-2,-2
138326545498,-5,-4,2,25,1,-2,-3,2
138326554390,-1,1,-5,-1,-6,0,-5,-5
138326554390,-1,0,-22,-2,-1,-2,-2,0
138326569287,2,2,3,-8,0,0,-4,1
138326569287,2,0,0,-19,0,-3,3,0
138326570937,0,-1,9,-9,-1,-3,1,-1
138326570937,1,0,6,-6,0,-2,-1,-3
138326582998,-2,-1,0,6,-2,-2,-3,-3
138326582998,5,-3,-9,24,-5,-3,-4,-3
138326591940,-1,-3,13,28,-2,-1,0,0
138326591940,-3,-5,3,81,0,-7,-1,7
138326605487,1,1,16,44,-1,-2,0,-1
138326605487,3,4,15,1,-1,-2,-5,-5
138326614488,-1,-4,-9,-94,2,5,0,-6
138326614488,0,2,-2,-109,-3,2,1,-6
138326629316,-3,-2,4,-59,-4,-2,-1,-5
138326629316,-3,0,12,-10,-4,-5,2,-4
138326630981,2,0,3,2,-2,-6,-3,-8
138326630981,3,-2,18,-2,1,0,-3,-9
138326642888,-2,-4,68,7,12,-6,-4,-35
138326642888,-2,3,-91,-56,4,-1,4,-19
138326651976,-1,3,-64,-28,8,-6,1,-22
138326651976,-5,-2,-43,-124,24,-9,-9,-69
138326665556,0,2,-9,-121,19,-18,-11,-111
138326665556,-6,1,25,-128,6,-18,-11,-123
138326674462,0,-2,1,-128,1,-12,-7,-78
138326674462,-5,0,17,-104,-17,-4,0,24
138326689279,-3,-3,-11,85,-6,10,7,86
138326689279,-2,-1,13,-112,1,-9,-15,-85
138326690912,1,-2,-4,-7,1,5,6,63
138326690912,-3,-1,16,72,10,-4,-5,-25
138326702993,0,-7,-24,-128,-5,-11,-10,-90
138326702993,-1,-2,-7,-75,-5,9,4,71
138326711989,-1,2,19,79,6,5,-3,31
138326711989,2,-6,2,-116,-7,-9,-7,-88
138326725435,2,0,-23,52,-5,15,14,127
138326725435,2,2,16,63,3,-13,-12,-99
138326734433,0,0,5,-123,-6,-7,-2,-40
138326734433,-1,-2,-5,127,2,18,15,127
138326749240,-3,6,-16,-128,-4,-22,-22,-128
138326749240,2,-6,10,15,-3,12,19,127
138326750958,-2,5,-1,-7,-4,-13,-17,-112
138326750958,2,-2,-8,-22,6,3,7,71
138326762842,-1,2,3,-37,-2,-12,-13,-97
138326762842,1,-2,5,41,-6,13,16,120
138326777997,-4,-2,-2,-31,1,-14,-12,-80
138326777997,-4,2,1,-8,-1,8,8,74
138326785384,0,-1,-9,-95,-9,-6,-4,-47
138326785384,-2,1,3,95,4,8,3,52
138326794497,-2,-2,0,-100,-6,-3,-2,-43
138326794497,-4,-2,-3,98,5,1,2,15
138326809293,-1,-1,-10,-80,1,-1,-7,-51
138326809293,0,4,-5,92,6,8,3,58
138326810970,-1,-4,6,-107,-6,-7,-2,-43
138326810970,-1,3,-3,41,-1,-9,-11,-91
138326831801,0,0,-5,-28,3,10,11,97
138326831801,-2,1,2,-108,-4,-23,-25,-128
138326833369,-3,-2,-3,127,12,16,17,127
138326833369,0,1,3,-128,-8,-21,-12,-128
138326845443,1,-5,0,127,7,10,14,121
138326845443,2,-6,-1,-128,-8,-16,-11,-93
138326854486,2,-1,2,116,4,8,2,30
138326854486,0,-2,-4,-120,-2,-4,0,11
138326869364,-6,2,0,108,0,-2,-5,-14
138326869364,-1,-1,5,-128,-2,-3,-4,3
138326870992,-2,2,1,101,1,0,-1,-12
138326870992,3,-2,3,-125,-3,1,3,29
138326883002,-1,0,2,33,-3,-4,-2,-67
138326883002,-2,-6,0,-66,0,-3,-2,-25
138326891992,4,3,2,20,-1,-9,-6,-64
138326891992,-5,-5,4,-85,-5,-9,-7,-88
138326905424,2,3,-8,50,-3,-6,-3,-16
138326905424,-2,1,1,-58,-4,-3,-1,-32
138326914398,0,1,-4,-78,-4,-11,-15,-83
138326914398,1,0,1,55,2,14,10,52
138326929273,-3,-1,1,-82,-6,-14,-17,-95
138326929273,-1,-4,1,61,6,11,11,89
138326930958,-2,0,-1,-128,-6,-10,-8,-86
138326930958,3,0,-1,127,5,12,6,92
138326943034,-5,-6,-1,-128,-4,-9,-6,-60
138326943034,-4,-1,3,127,3,7,5,38
138326951986,4,1,2,-112,-3,2,4,18
138326951986,-3,2,-6,23,-2,-14,-15,-108
138326965497,2,-7,4,54,5,14,18,127
138326965497,-1,-2,-1,-102,-9,-16,-20,-128
138326974356,-6,-8,-3,96,2,14,17,120
138326974356,-3,-4,-4,-83,-3,0,-2,-22
138326989274,2,2,-2,-90,-5,-6,-7,-48
138326989274,3,5,-11,64,1,4,8,34
138326990849,-5,-2,2,-89,0,-6,-8,-36
138326990849,1,-5,3,54,5,5,7,26
138327002994,-4,-5,-2,-58,-1,-1,1,-1
138327002994,-2,0,0,-43,-4,-7,-11,-66
138327012025,0,-3,-2,13,2,7,6,49
138327012025,3,1,1,-39,-3,-3,-3,-22
138327025474,-1,-5,-1,-128,-6,-14,-16,-98
138327025474,-3,-2,2,83,-1,-3,-6,-40
138327034467,-1,-1,-6,6,3,15,18,127
138327034467,-5,-1,-1,-128,-10,-25,-23,-128
138327056774,1,2,-4,71,-4,0,-4,12
138327056774,-3,-1,-3,-28,5,11,13,112
138327058370,0,1,-1,-128,-10,-16,-12,-117
138327058370,-3,2,0,87,-4,2,-7,-11
138327063001,-5,0,-3,43,4,14,16,101
138327063001,-3,-2,2,-125,-6,-7,-11,-79
138327072018,-1,-4,1,46,-5,-6,-9,-55
138327072018,2,-1,-1,-30,8,15,13,116
138327085461,-5,4,-1,-31,-8,-8,-6,-50
138327085461,-2,-3,-9,-109,-1,-6,3,16
138327101966,-2,-4,-2,109,2,2,-4,-16
138327101966,-2,1,-21,-128,-3,-7,-10,-19
138327108651,-2,-4,-19,127,12,16,9,121
138327108651,-2,-1,7,-102,-7,-12,-10,-97
138327115473,-2,3,8,-83,-3,-1,-5,-13
138327115473,3,1,67,105,-2,1,0,4
138327123028,-1,1,104,-46,-7,-12,-4,-56
138327123028,0,-2,15,-22,-3,-2,-6,-16
138327131923,9,0,-24,100,7,17,17,125
138327131923,-2,4,-93,-128,-9,-25,-21,-128
138327145424,-1,-6,-40,-79,-1,6,8,71
138327145424,-1,0,6,86,0,16,12,88
138327154424,0,1,7,1,1,-9,-8,-79
138327154424,-3,-2,6,-46,-4,-4,-1,-21
138327168669,3,2,-3,11,-4,4,6,38
138327168669,0,5,1,66,1,8,7,74
138327175473,-7,3,-8,-128,4,-19,-10,-73
138327175473,-3,-7,9,6,4,-10,-6,-58
138327183011,-3,-7,7,34,-13,9,10,30
138327183011,-2,0,0,86,-2,4,6,63
138327191990,1,0,-10,-45,4,-7,-5,-33
138327191990,-3,-3,0,-114,-7,-10,-5,-61
138327205487,0,-5,-4,-128,-3,-9,-11,-78
138327205487,-3,-5,13,47,-13,15,20,124
138327214451,-4,0,11,125,-9,11,5,88
138327214451,-1,-1,-13,-84,4,-13,-9,-69
138327228656,0,1,-24,-82,0,-10,-8,-99
138327228656,-6,-2,-27,-128,4,-21,-19,-128
138327235441,-5,-6,-12,-128,-6,-16,-15,-128
138327235441,2,-3,-11,-60,-2,-4,-3,-43
138327242992,2,-2,21,31,-14,10,8,99
138327242992,4,-2,39,17,-16,8,6,34
138327252001,-5,1,17,84,-3,6,7,64
138327252001,-3,2,-31,40,14,-5,-2,-17
138327265402,-1,3,-61,-108,23,-27,-21,-128
138327265402,-1,1,-59,-128,18,-34,-29,-128
138327274417,3,-4,-37,-128,17,-21,-20,-105
138327274417,2,-2,-28,-68,11,-6,-2,-74
138327288713,-3,1,-44,-127,24,-26,-23,-128
138327288713,-3,1,-41,-128,18,-22,-21,-128
138327295475,0,3,-27,-128,10,-19,-13,-128
138327295475,-2,3,-11,-114,16,-18,-14,-103
138327303019,1,-2,-7,-123,13,-15,-12,-128
138327303019,3,-4,-29,-117,20,-19,-17,-128
138327311942,2,-1,-13,-26,9,-16,-10,-82
138327311942,-3,-3,7,-56,3,-6,-6,-39
138327325421,3,-2,-2,20,0,-3,-1,-7
138327325421,3,1,-6,-28,2,-4,-5,-38
138327334426,-4,-2,2,-32,-3,-2,-4,-22
138327334426,-1,2,9,58,-9,7,10,57
138327348611,-2,0,3,19,2,-4,-5,-10
138327348611,-2,-6,4,-8,3,-4,-1,-25
138327355484,0,-1,3,-46,-3,-2,2,2
138327355484,0,-1,2,35,-1,5,3,22
138327363009,-3,3,-13,2,-2,1,-6,-6
138327363009,1,2,-15,19,-4,-2,1,-7
138327371956,8,0,-1,-14,2,-2,-4,-8
138327371956,1,-4,-7,1,-1,2,-4,9
138327385499,-1,1,-10,9,0,-2,0,-4
138327385499,-1,-2,0,-20,-3,-2,-1,-15
138327394438,-5,0,2,-14,2,1,-1,-8
138327394438,-5,-1,-1,14,-1,-3,0,2
138327408636,2,1,-5,4,2,-4,-4,-2
138327408636,-4,3,-2,6,0,-3,-2,2
138327415435,-3,0,-5,-23,-6,-4,-2,-16
138327415435,-4,-3,9,-2,-1,-2,-2,3
138327439306,-3,-4,-3,-1,1,0,-1,-7
138327439306,2,-1,-16,1,5,-5,-5,-7
138327440993,1,-2,-1,-16,0,1,-3,-6
138327440993,0,-1,5,-10,-2,-6,-2,4
138327445405,3,-1,1,-2,3,0,-3,-7
138327445405,1,-1,5,-5,-4,-4,2,-9
138327454455,0,1,9,-18,1,-3,-3,-3
138327454455,1,-3,4,15,1,1,6,5
138327468651,-3,1,3,-2,1,-3,5,1
138327468651,1,-5,5,-6,-1,-2,-5,-4
138327475393,-2,-4,-5,-4,0,-1,-1,-4
138327475393,-3,1,-6,-4,1,-3,0,2
138327491796,1,-1,9,-10,-5,-6,-2,-1
138327491796,1,-1,-1,-7,1,2,2,-2
138327493394,-5,-1,-1,-6,0,4,-2,5
138327493394,5,1,-1,3,4,0,-3,-4
138327505473,-1,0,1,-1,0,-1,2,-3
138327505473,1,0,-2,3,-2,1,-3,-4
138327514470,-3,-3,-3,-5,2,-3,-4,0
138327514470,-4,0,9,7,-4,4,-3,4
138327528720,-2,-3,-6,4,-1,1,-1,3
138327528720,-6,-6,-3,-1,-2,-2,-5,-10
138327535476,-3,-1,-12,2,-1,-1,3,1
138327535476,3,-3,1,-4,-6,-7,-5,5
138327550891,2,-1,-2,2,-4,1,0,-4
138327550891,-1,1,10,0,-3,-1,2,3
138327559464,1,-2,5,-4,-3,2,3,-2
138327559464,0,-3,-15,2,-1,1,0,6
138327565545,0,-2,-3,-3,1,0,-2,-4
138327565545,0,-4,0,-9,-1,-2,-3,-3
138327574425,2,3,2,6,-1,1,2,-8
138327574425,-2,-1,3,-6,-1,-3,-1,0
138327588645,-5,-1,-1,0,1,0,-2,1
138327588645,-6,0,3,-5,-2,-4,1,1
138327595374,5,-4,-4,3,-5,-1,-1,-5
138327595374,1,-2,-3,0,2,-1,-2,1
138327611762,1,-6,-6,2,-2,1,1,2
138327611762,-3,1,4,-7,-4,-2,-3,-3
138327613344,-1,-3,8,-5,-3,-2,-2,2
138327613344,-4,0,1,2,-4,3,3,-2
138327625503,-3,-1,3,0,-2,0,-2,-4
138327625503,-1,2,-3,2,2,-3,-1,4
138327634454,-1,-4,-25,9,0,-3,-1,0
138327634454,-4,0,-2,7,2,1,0,5
138327648657,-1,-4,4,3,-1,-5,0,0
138327648657,2,0,2,1,1,-2,-1,-2
138327662972,5,-1,9,2,-1,-6,3,-3
138327662972,4,-3,-8,8,2,-1,-2,-6
138327671803,0,6,-5,-7,-3,-3,-2,-6
138327671803,-3,-4,-7,-15,3,0,-7,0
138327673422,0,0,3,-6,1,-2,-3,-3
138327673422,-2,-1,-2,5,-2,0,0,-2
138327685441,3,1,-6,27,0,-2,-1,-2
138327685441,4,-3,-18,29,0,-1,2,0
138327694437,-5,1,-13,41,3,2,-1,-1
138327694437,3,0,-6,45,1,-4,-2,0
138327708700,-4,-1,22,52,-12,-4,-3,1
138327708700,4,2,23,5,-12,-3,-3,-3
138327715452,0,1,55,-32,-7,0,-2,1
138327715452,-2,-4,51,-44,-7,1,-2,-5
138327731821,-2,-2,76,83,-11,-1,5,1
138327731821,0,1,81,70,-10,-1,-2,-2
138327733356,-6,-1,-96,-71,1,0,0,-8
138327733356,0,2,-115,-112,13,-4,-6,-6
138327745476,-1,1,-78,-128,22,-4,-7,-3
138327745476,-3,-4,0,-122,20,0,-3,-1
138327754519,-3,0,28,-83,-1,-1,0,3
138327754519,-3,-4,9,-38,-2,-5,1,3
138327768727,-3,-4,-5,-57,-11,5,1,16
138327768727,3,-3,-22,-71,-9,-4,-1,20
138327775416,2,0,-2,91,-7,-4,-3,-3
138327775416,-2,-2,6,103,-1,-1,-1,-18
138327791763,-3,-5,2,106,16,-3,-1,-39
138327791763,-4,0,-13,53,10,0,-2,-37
138327793416,-1,-3,2,20,4,-2,-5,-24
138327793416,-3,0,23,72,-8,2,1,-10
138327805486,0,-4,-5,57,-5,1,3,8
138327805486,-4,0,-18,-38,-5,0,0,18
138327814501,1,-5,5,-41,-4,-3,-4,10
138327814501,1,0,2,-79,-5,0,-5,11
138327828642,2,0,-3,-51,1,-2,-1,6
138327828642,-1,1,-18,28,4,0,2,-4
138327835440,-3,-6,8,44,2,1,0,4
138327835440,-1,0,10,-3,-1,-1,-5,2
138327851831,1,-3,-6,11,1,-2,-1,1
138327851831,3,2,-3,56,2,-3,1,-4
138327853454,-1,-1,7,-19,8,3,3,1
138327853454,-4,0,7,-35,1,0,7,3
138327865432,-1,2,-3,32,-5,2,-4,10
138327865432,-2,-5,-15,40,-8,-1,4,-6
138327874418,-4,3,-8,32,-1,-3,0,-2
138327874418,6,4,0,47,2,1,2,1
138327888662,1,7,2,7,2,1,3,2
138327888662,1,3,1,-16,-3,1,-1,1
138327895433,-5,-2,0,-7,1,0,2,8
138327895433,2,-7,5,-21,-1,0,-3,-4
138327911838,-1,-6,-4,-44,-5,-5,-4,0
138327911838,1,3,-4,-7,-3,1,-5,3
138327913418,-1,3,1,-11,-2,-4,-2,-3
138327913418,-4,0,1,-17,0,-1,-2,-8
138327925512,-1,0,-2,-24,2,-5,0,-1
138327925512,-5,-2,-3,-26,1,-7,-4,-7
138327941936,1,-3,-2,12,-2,-3,1,4
138327941936,-2,2,-1,24,2,-3,-2,4
138327948645,-3,0,-5,-16,-2,-6,-5,-8
138327948645,-3,3,-2,-22,3,-3,-1,-11
138327955448,3,-5,2,-7,1,-5,-3,6
138327955448,4,1,4,2,-5,-2,1,7
138327971851,-4,-4,-4,-17,-4,0,3,5
138327971851,3,-2,-2,-4,-1,0,-2,-3
138327973401,-1,5,-17,-34,8,-13,-16,-116
138327973401,-2,0,-3,15,4,1,2,38
138327985499,2,-4,3,6,1,0,1,10
138327985499,-3,0,-13,-30,4,-14,-12,-90
138327994473,-3,4,-9,-34,6,-16,-14,-95
138327994473,-2,2,-16,-57,11,-22,-24,-128
138328008654,3,6,-14,-51,8,-19,-21,-128
138328008654,0,4,-14,-44,6,-17,-17,-107
138328015497,2,3,-15,-54,8,-16,-19,-128
138328015497,0,2,-16,-54,10,-16,-23,-128
138328031847,-2,3,-16,-53,14,-18,-19,-128
138328031847,-2,1,-16,-53,10,-18,-21,-128
138328033399,2,0,-1,-4,5,-4,-9,-23
138328033399,1,-9,10,46,-8,15,16,97
138328045463,-5,3,-14,-48,5,-14,-15,-108
138328045463,1,-2,3,25,-6,9,7,91
138328054532,-3,-4,-6,-11,-2,2,-1,-27
138328054532,-3,-1,3,30,-8,9,3,113
138328068738,-1,2,-1,-18,8,-7,-5,-49
138328068738,-3,-7,1,31,-9,7,8,56
138328082967,-2,3,-1,-31,17,-10,-6,-64
138328082967,0,-1,-4,-29,2,-6,-7,-71
138328091772,3,-4,6,53,-33,16,13,127
138328091772,1,0,-1,-22,22,-11,-15,-66
138328093370,-5,-6,2,15,-18,8,6,41
138328093370,1,-3,-4,26,-18,-3,-5,10
138328105514,2,-3,3,74,-53,11,8,107
138328105514,1,-4,0,41,-37,3,6,54
138328114401,2,-3,8,42,-28,6,7,91
138328114401,1,0,-7,-47,23,-16,-15,-108
138328128584,-2,0,-1,-24,20,-2,-4,-43
138328128584,1,-2,-3,27,-8,2,4,19
138328135430,-3,-2,-1,-5,3,-2,-5,-18
138328135430,-3,-1,1,-8,-2,-6,0,-6
138328151901,-4,-6,-2,-12,4,1,-1,-16
138328151901,-2,1,1,3,-6,1,1,-9
138328153409,0,-2,-1,15,-5,1,-2,14
138328153409,-1,-2,-5,-5,3,-2,-4,-24
138328174323,-5,-1,2,9,-1,3,-2,23
138328174323,-5,-3,-1,-23,25,-2,-7,-41
138328175959,0,-1,4,13,-1,-3,0,14
138328175959,-5,-5,2,10,-5,0,2,18
138328188681,2,-5,-1,-24,21,-6,-5,-25
138328188681,-2,-2,1,-12,-3,-2,-1,0
138328195494,0,1,-3,-5,-16,3,1,24
138328195494,0,2,-3,14,-16,1,2,5
138328211178,-4,-4,-4,5,10,-12,-8,-27
138328211178,-2,-3,-5,-17,63,-19,-14,-123
138328218068,-2,1,0,10,26,-12,-4,-59
138328218068,-2,-3,-1,-6,24,-13,-13,-79
138328225493,2,-1,5,-7,23,-4,-5,-52
138328225493,1,-3,5,-3,32,-6,-5,-49
138328234464,-1,-3,-1,-10,23,-1,-1,-34
138328234464,-2,4,0,-7,26,-6,-4,-43
138328248619,-1,4,-7,-7,-10,-1,4,25
138328248619,1,-3,-6,-10,-21,1,4,26
138328255534,0,-1,0,-20,10,0,-5,-18
138328255534,-2,1,0,8,0,-5,2,-15
138328279350,-2,0,9,0,37,-2,-3,-31
138328279350,2,3,16,-90,43,0,-4,11
138328280994,-2,11,7,102,-91,6,1,9
138328280994,3,12,89,95,-96,11,-2,-20
138328285535,3,-1,-83,-88,82,-12,-7,-14
138328285535,5,-16,-105,-85,21,-16,-1,3
138328294488,-2,-19,30,-128,33,-13,-3,17
138328294488,-14,-33,2,6,1,-4,2,17
138328308671,2,13,42,127,-61,16,-4,20
138328308671,2,38,103,127,-45,9,4,114
138328315472,-7,2,45,120,-19,2,-3,-85
138328315472,2,-5,-8,-86,20,7,2,-94
138328331151,-4,-20,100,4,15,-24,3,-53
138328331151,5,18,-126,77,-110,11,0,86
138328338013,11,8,-74,28,75,27,-2,30
138328338013,-4,4,-54,96,115,-1,-3,81
138328345443,-3,-17,-68,33,-1,-7,-1,-18
138328345443,-5,-5,12,96,-107,-17,2,-54
138328354537,-3,1,67,-74,6,-24,1,-11
138328354537,5,4,2,6,-28,-5,-6,-2
138328368703,4,6,14,61,-90,18,-2,40
138328368703,0,-2,55,127,-4,9,-1,-24
138328375465,-3,-5,-36,126,41,13,0,-47
138328375465,0,-7,0,-115,109,-3,1,-6
138328391123,3,19,-7,51,-101,-12,-4,32
138328391123,-3,-19,42,-128,27,-8,-1,-30
138328398026,1,3,-19,-65,-61,-16,-4,42
138328398026,2,-1,24,-116,0,-13,1,4
138328414303,-7,-4,-25,27,-16,14,-2,5
138328414303,-4,-8,-52,56,-34,20,0,-8
138328415970,1,-2,-10,92,0,-3,2,11
138328415970,2,5,2,81,-36,-8,-2,0
138328428640,0,-6,38,-128,53,-6,-1,-29
138328428640,-2,-2,21,-62,43,-6,-1,-28
138328435491,-5,-4,-15,26,-9,-3,3,17
138328435491,2,11,-26,127,-57,1,-3,23
138328451224,-1,-1,-12,21,14,2,-3,-11
138328451224,-3,-5,17,-22,26,-3,-3,-16
138328457995,1,-5,13,-4,-15,-2,3,17
138328457995,-3,0,-7,-79,-27,7,-1,-5
138328474333,1,0,3,-76,26,-2,3,-19
138328474333,-2,0,3,-30,25,-9,-5,-20
138328475938,1,1,-9,56,-19,2,-2,30
138328475938,3,0,-4,20,-11,-1,-2,2
138328488730,-1,-1,7,-97,18,-7,-5,-29
138328488730,-6,0,11,-99,9,-7,-1,-19
138328495421,1,-2,6,13,-3,7,2,44
138328495421,-2,4,0,14,-22,9,7,76
138328511264,-4,4,-18,-94,11,-12,-13,-96
138328511264,1,1,3,88,-2,5,4,52
138328517999,-2,-2,2,-91,4,2,-1,14
138328517999,-1,-1,1,99,-10,4,10,71
138328534329,-3,3,-4,-82,-1,-8,-3,-47
138328534329,0,-5,7,-35,-5,4,11,96
138328535940,0,1,6,20,-1,10,9,57
138328535940,0,-3,0,90,-6,17,14,108
138328548693,-3,-5,6,127,-2,17,15,127
138328548693,-3,-2,2,91,17,3,-2,40
138328555536,2,0,7,105,-4,9,13,127
138328555536,1,-4,-6,-31,-11,5,7,47
138328571228,-3,0,-5,-30,15,-11,-11,-55
138328571228,3,-1,5,85,1,11,9,91
138328577924,2,1,-5,-96,0,-4,-5,-39
138328577924,0,-1,0,19,9,-5,-12,-35
138328594354,-1,-3,6,-38,-9,6,9,18
138328594354,-5,-2,4,74,6,3,0,36
138328595927,-3,1,4,-75,6,-15,-8,-85
138328595927,-4,-2,-3,-108,-5,-8,-6,-83
138328608653,-1,-1,10,127,-24,20,23,127
138328608653,0,-1,5,32,10,4,-2,15
138328615401,-7,-6,-4,-97,14,-16,-16,-111
138328615401,-2,-4,-1,-117,5,-12,-7,-87
138328631135,1,1,-4,44,-10,2,9,47
138328631135,1,0,3,108,-17,15,19,120
138328637939,1,1,-19,-89,5,-15,-14,-92
138328637939,0,-2,-7,-57,-9,1,0,-33
138328654361,1,-3,9,127,-7,17,11,123
138328654361,0,0,-4,-27,18,-8,-10,-66
138328655959,3,2,0,-89,7,-10,-10,-76
138328655959,-2,-2,13,11,-10,5,6,33
138328667986,-4,-1,21,81,-11,14,12,82
138328667986,-3,-1,-9,-10,11,-7,-8,-52
138328677013,-1,-3,15,75,-19,11,12,115
138328677013,2,5,-42,34,19,-6,-14,-26
138328691182,-2,-1,-18,-69,-1,-8,-9,-54
138328691182,-2,1,29,15,-9,4,0,14
138328698046,-2,0,-8,-5,-8,5,8,36
138328698046,1,-2,29,123,-7,7,4,89
138328713428,0,5,-51,-110,31,-20,-21,-128
138328713428,3,-3,-35,-81,-6,-3,2,-38
138328721941,2,0,29,127,-20,14,17,108
138328721941,1,-3,11,68,-4,-2,-3,16
138328727951,0,-2,-6,-43,16,-10,-13,-55
138328727951,-1,-2,35,-55,-12,-1,2,-22
138328736962,1,-1,12,83,4,4,5,49
138328736962,-1,1,-5,-74,8,-10,-5,-44
138328751206,0,-2,32,64,-13,6,10,59
138328751206,0,0,-10,-63,5,-7,-9,-54
138328757994,0,2,2,21,-4,2,-2,13
138328757994,-2,1,-5,17,1,-3,4,10
138328774284,-2,-2,-2,-29,1,-4,-7,-32
138328774284,2,6,-6,16,-10,4,2,12
138328775923,-3,-1,-33,16,6,2,-4,-18
138328775923,1,-2,0,-5,-4,3,1,15
138328787989,4,2,4,27,2,2,-2,0
138328787989,1,-2,-10,-42,1,-4,-3,-34
138328797009,0,-2,1,36,-1,-2,3,28
138328797009,-3,2,1,-2,0,-2,-5,-14
138328811219,2,-4,5,-7,-3,0,3,-3
138328811219,-3,0,-8,-15,1,-2,-2,-16
138328817999,-5,-4,-12,10,5,-4,4,-3
138328817999,-2,2,-9,23,-3,3,-1,9
138328834372,-5,-2,-11,15,2,-3,-4,-80
138328834372,1,-2,0,0,-4,3,1,3
138328835931,-3,1,-1,-3,2,-1,-4,26
138328835931,-4,-2,-28,-17,1,0,2,4
138328847991,4,-4,14,-2,2,3,0,36
138328847991,-3,-2,7,-11,7,-5,1,-5
138328856958,-1,-1,9,-4,-5,0,-3,2
138328856958,-1,-4,5,5,2,-3,-3,0
138328871226,-2,0,-8,-5,-2,0,-1,2
138328871226,-3,-1,-5,4,-4,-2,-2,-10
138328878025,0,1,-9,-9,0,-3,-3,-17
138328878025,3,-2,-3,-2,-6,1,1,-8
138328894374,-1,-3,-8,-1,2,-2,-5,-4
138328894374,-2,-4,-20,18,1,-2,-1,1
138328895943,-4,-7,8,3,0,-3,-4,-1
138328895943,-2,-6,4,-12,1,-4,0,-2
138328908059,-2,2,3,-7,-1,1,-1,19
138328908059,-4,0,1,-11,6,-2,-4,-2
138328916988,5,3,-6,-1,0,0,-1,-6
138328916988,-3,-1,8,0,-2,-2,1,12
138328931200,0,-3,7,-5,-1,-5,-5,-6
138328931200,-1,-1,6,-1,-3,-4,-2,-20
138328937945,1,-2,-7,-1,-2,-2,-2,1
138328937945,2,1,1,0,1,0,0,-5
138328954329,0,2,-11,-2,-1,-3,2,-2
138328954329,-1,0,-6,-16,3,0,-2,-5
138328955925,-2,-4,1,-21,2,-2,-2,-9
138328955925,-1,0,10,-7,-3,2,-3,-3
138328967943,2,-1,12,3,-7,1,-3,6
138328967943,0,-3,4,2,0,2,1,9
138328976914,1,-3,7,14,7,1,5,-2
138328976914,-2,-4,10,-10,11,-3,-1,4
138328991113,-4,-6,-10,-3,6,-2,-2,2
138328991113,-2,-1,-11,49,0,-1,-2,4
138328997979,0,-5,-30,69,12,1,-1,-6
138328997979,0,-3,-25,75,-25,-3,-1,0
138329014311,1,0,8,-24,5,0,0,-2
138329014311,0,-3,25,-11,-10,3,4,-7
138329015918,0,0,47,47,-22,4,1,-1
138329015918,0,1,77,111,-19,7,0,0
138329027939,0,-2,120,17,-22,-3,1,0
138329027939,-3,-3,39,100,-16,0,6,6
138329036950,-3,-3,-59,65,-9,-4,-2,-4
138329036950,-1,2,-122,-113,78,-2,0,-9
138329051167,-4,0,-128,-91,77,2,1,-2
138329051167,2,0,-34,-128,48,-4,-3,-14
138329057932,-3,0,48,-94,-35,1,2,26
138329057932,-2,-5,46,-118,-59,1,5,59
138329074345,-4,-1,-95,-66,-39,-14,-15,-108
138329074345,0,-4,-3,93,-10,8,12,79
138329075951,1,-1,16,94,6,11,12,78
138329075951,-1,-2,13,88,3,10,7,100
138329087971,3,2,39,40,4,2,4,48
138329087971,-2,2,27,-24,-4,-6,-8,-101
138329096926,0,4,-4,-64,7,-4,-5,-87
138329096926,-2,-5,37,-2,10,9,10,68
138329111137,-3,-5,36,17,-8,-6,0,-87
138329111137,-5,-2,-38,-5,-11,-12,-12,-97
138329118034,0,-1,-101,-33,11,-10,-8,-48
138329118034,-3,6,-85,-114,2,-20,-19,-111
138329133672,-3,0,2,-75,-14,0,1,45
138329133672,0,2,8,71,-5,-2,-2,24
138329140472,-4,5,-4,55,16,-4,-11,-53
138329140472,-1,-3,-30,84,9,-3,3,-50
138329147974,-1,-6,-9,26,1,0,-6,3
138329147974,0,0,10,-110,-5,3,-2,0
138329156943,0,-3,-19,-25,-4,-1,-4,-4
138329156943,-1,3,-58,92,-12,-2,-3,-95
138329171099,-4,-1,-6,78,11,-2,2,10
138329171099,2,-3,-27,45,4,-4,-2,7
138329178023,1,6,17,-54,11,0,2,-10
138329178023,3,3,33,-84,-3,-5,-6,-12
138329193677,1,-1,-2,-50,-5,-2,3,-3
138329193677,-3,-4,-54,-101,-8,-2,1,15
138329200541,-4,-6,-27,-38,-1,1,-7,-5
138329200541,3,0,-14,-41,-4,-3,-5,-34
138329207955,2,-2,-9,18,-2,-2,3,3
138329207955,-1,3,-11,-19,5,-7,-5,-3
138329216954,-2,0,-2,-120,-3,-8,-6,-16
138329216954,-1,0,56,76,-7,11,10,94
138329231210,-3,3,-59,-83,3,-6,-17,-100
138329231210,2,-3,-31,-72,5,-8,-5,-56
138329238000,3,-1,-17,-51,5,-10,-1,-46
138329238000,-6,-2,-10,-51,6,-3,-9,-26
138329253652,1,0,6,0,0,1,1,31
138329253652,-2,-1,-21,-88,2,-7,-4,-26
138329260413,-3,-5,4,3,0,0,1,48
138329260413,0,0,-55,-128,0,-22,-17,-128
138329267978,-5,-2,-33,-91,0,-8,-12,-104
138329267978,4,1,-40,-121,9,-19,-22,-128
138329276983,-3,2,-22,-128,5,-22,-20,-126
138329276983,2,5,-30,-128,13,-21,-20,-128
138329291218,1,-2,-38,-128,7,-21,-26,-128
138329291218,-2,8,-21,-88,5,-11,-22,-125
138329298043,-1,0,6,49,-1,7,6,69
138329298043,-1,-5,-10,-37,1,-1,-1,-27
138329313701,-2,1,-15,-48,5,-14,-9,-73
138329313701,-2,-5,14,54,-3,3,-1,54
138329320506,0,-2,-3,1,-1,4,3,18
138329320506,0,2,-24,-67,4,-18,-12,-91
138329336817,-1,-3,22,67,-12,11,14,90
138329336817,-7,-2,-16,-21,9,-6,-12,-54
138329338417,-4,0,-15,-61,5,-11,-6,-102
138329338417,3,1,-10,-20,3,-2,-5,-13
138329351175,-3,3,-17,-74,5,-11,-14,-93
138329351175,2,-2,20,109,-9,15,17,123
138329357928,-2,-2,-27,-98,3,-12,-14,-113
138329357928,-5,-2,3,-12,1,4,2,-11
138329373668,3,1,17,78,-8,5,9,53
138329373668,1,-1,15,93,-4,8,14,89
138329380597,-1,1,-31,-109,26,-16,-20,-128
138329380597,-4,-1,-20,-87,23,-10,-10,-102
138329396850,-1,-2,15,77,-21,16,13,115
138329396850,-1,-6,10,45,-35,6,8,66
138329398449,0,2,30,126,-41,14,17,127
138329398449,1,0,1,34,-16,5,-2,52
138329411183,-6,-5,-15,-58,51,-16,-13,-78
138329411183,-5,-2,-6,-39,-8,2,2,-50
138329417945,-2,-9,-1,-28,18,-7,-10,-57
138329417945,-5,-6,1,23,31,0,-2,-13
138329433670,0,1,1,15,-40,5,5,45
138329433670,0,0,-15,5,-46,2,-1,42
138329440467,0,-1,-17,19,-25,0,0,31
138329440467,-3,3,-7,2,-26,-2,3,10
138329456849,5,2,7,25,-26,5,3,17
138329456849,-1,1,8,-67,40,-11,-9,-96
138329458426,-2,2,26,7,-1,7,9,16
138329458426,0,-6,21,8,7,4,4,25
138329471205,-3,6,8,-14,24,0,4,-22
138329471205,1,-1,0,0,-5,0,0,6
138329477958,1,-2,-7,9,-26,-2,-4,21
138329477958,0,-1,-4,30,-33,-1,-1,25
138329493641,-2,-3,-22,18,-43,1,-4,36
138329493641,2,3,-21,-18,5,-6,-9,-24
138329500421,-3,0,-12,33,-24,6,7,73
138329500421,1,4,2,39,-21,3,6,50
138329516787,2,-5,13,31,-13,11,6,27
138329516787,0,3,12,9,-21,2,3,10
138329518372,-5,1,16,-28,27,-2,0,-32
138329518372,0,-5,18,-4,-4,6,6,36
138329531187,-6,0,-1,-44,35,-6,-7,-55
138329531187,1,-4,4,-18,31,-3,-5,-41
138329537975,1,2,37,0,28,8,2,-7
138329537975,-6,7,110,-111,120,4,-2,-54
138329553679,5,5,-80,98,-85,5,1,111
138329553679,-1,7,-11,98,-104,1,-2,83
138329560454,1,-6,-106,41,-22,-8,-1,45
138329560454,4,-13,-128,-65,18,-7,-1,34
138329576812,-4,-17,-58,-128,127,-7,-5,15
138329576812,-10,-9,-14,-22,-20,-13,-8,-116
138329578412,7,8,-83,109,-87,-6,-11,91
138329578412,-1,25,101,126,-103,-11,-18,-33
138329590436,-4,0,111,101,21,10,2,-92
138329590436,-6,-5,101,-19,-47,6,-3,-112
138329599448,3,-9,127,-3,91,-6,1,-17
138329599448,1,3,-123,33,-73,0,-2,127
138329613631,-3,0,-124,21,48,1,-4,109
138329613631,-6,-7,-101,69,-11,-4,-1,99
138329620433,-6,-4,-111,81,-69,-5,-3,-12
138329620433,-3,-10,8,-22,-70,-9,-1,-8
138329636809,-1,0,113,-78,14,-10,-4,18
138329636809,-2,1,90,-53,106,4,0,41
138329638403,-3,0,40,42,97,10,-4,58
138329638403,-2,-4,-5,127,123,1,-6,-87
138329650468,1,-6,19,127,88,0,-1,-128
138329650468,1,-2,5,-126,71,-3,1,17
138329659414,2,5,5,-128,-64,-4,-2,42
138329659414,-1,-3,6,-106,-78,1,-1,12
138329673674,1,-4,-16,-128,-93,-13,-3,-31
138329673674,-1,-2,-41,-92,-20,-12,-6,-71
138329680447,0,-3,-25,21,-30,-5,-12,-90
138329680447,1,-5,-16,31,5,-5,-6,-56
138329696828,-1,2,-29,120,-37,-4,-1,52
138329696828,2,0,-39,127,2,1,1,86
138329698425,-2,-5,20,9,11,8,5,32
138329698425,-3,1,12,-93,37,-11,-10,-83
138329710416,3,2,6,103,-21,-6,-1,39
138329710416,-1,6,-2,95,-6,7,10,80
138329719490,-6,-1,29,-96,36,-9,-11,-112
138329719490,3,-2,4,89,16,-2,3,18
138329733651,-1,0,3,42,-25,11,2,63
138329733651,1,-1,-7,-93,16,-8,-12,-75
138329740451,2,0,6,93,4,5,5,31
138329740451,-7,-2,-13,41,-16,9,13,90
138329756800,-6,0,-11,-128,1,-23,-21,-128
138329756800,4,-3,-16,127,-1,6,9,114
138329758392,1,1,-10,9,-10,-3,11,42
138329758392,-2,2,-2,-98,25,-21,-16,-96
138329770463,6,1,7,127,-18,15,16,127
138329770463,-6,4,5,-128,14,-17,-15,-128
138329779407,-2,-4,5,105,2,9,9,71
138329779407,-3,-5,5,-47,2,4,-3,-36
138329793689,-1,-8,3,75,-18,14,6,84
138329793689,-2,2,-7,-128,10,-11,-18,-128
138329800474,2,-5,3,103,-4,7,9,73
138329800474,-1,-3,-3,-38,10,-5,-5,-42
138329816840,0,0,-3,24,-24,6,3,37
138329816840,-1,0,-6,19,14,-5,-4,-18
138329818426,4,2,1,-52,-13,5,-2,8
138329818426,1,-4,0,1,3,4,-4,1
138329830476,-1,0,-12,-77,-1,-6,0,-42
138329830476,3,-4,-28,55,-5,9,9,57
138329839468,-2,-2,-35,-70,7,-8,-7,-68
138329839468,-1,-2,-9,70,-3,3,5,43
138329853656,1,9,30,8,-1,-6,-10,-30
138329853656,3,-1,15,124,-15,4,6,76
138329860465,-3,0,8,7,7,-8,-8,-42
138329860465,4,-3,-3,61,-12,5,5,73
138329876811,2,-5,-5,-28,-1,3,3,-11
138329876811,-1,1,0,-19,2,-1,-2,9
138329878396,-2,-2,8,-25,5,-4,-6,-33
138329878396,-2,-1,-12,12,2,-1,3,29
138329890474,-2,-6,-5,-42,3,-2,-8,-28
138329890474,3,-2,-12,13,-4,-2,-3,-1
138329899426,-1,0,-7,-20,4,0,0,-17
138329899426,0,6,-6,42,-5,3,7,34
138329913643,-1,3,-2,-40,0,-8,-7,-39
138329913643,-1,-3,-4,25,-5,7,-2,26
138329920489,-2,2,12,-5,2,-4,1,-12
138329920489,-6,-4,25,-16,2,-2,-3,7
138329936860,2,2,2,-17,6,-4,1,-19
138329936860,-1,1,20,-4,1,0,0,0
138329938418,-3,-6,14,-9,4,-5,-5,-23
138329938418,3,-1,3,24,-7,4,5,17
138329950456,-2,-3,-13,-5,2,-5,-5,-13
138329950456,3,-1,-11,19,-3,-5,-1,17
138329959501,2,1,-13,5,-2,3,-6,-11
138329959501,3,-6,-18,37,0,1,0,22
138329973643,1,1,-7,8,-1,-2,-4,-4
138329973643,-1,-3,-12,9,-4,-1,2,3
138329980456,1,-2,-8,4,-3,-3,-2,0
138329980456,2,-2,-8,19,-2,4,-5,4
138329996823,-3,-4,-4,5,-6,-3,1,-49
138329996823,0,-3,-5,4,0,1,2,23
138329998444,-3,0,6,-27,-3,-2,4,-2
138329998444,-3,0,-1,0,2,-4,-5,18
138330018600,-3,-2,6,-14,4,1,-3,0
138330018600,-3,3,-2,-3,1,0,0,-8
138330019347,-2,-8,-5,-9,1,-2,-2,-12
138330019347,-4,-4,7,-9,0,0,-3,-4
138330034427,2,0,0,0,-4,-3,2,-1
138330034427,-2,-6,0,2,-1,-3,-3,-4
138330040511,1,-3,-1,-8,1,-5,-4,-4
138330040511,-2,1,0,2,-3,-2,-1,-22
138330056116,1,-4,-9,2,-1,0,-4,-38
138330056116,-5,-5,1,-10,6,-1,0,11
138330056950,2,4,3,-11,-2,-2,-3,-1
138330056950,2,2,3,-8,0,2,1,18
138330078614,0,3,-4,2,2,-2,0,24
138330078614,2,2,2,4,-2,2,-4,6
138330079355,-4,-5,-3,2,-2,-2,2,-12
138330079355,2,-2,-3,1,0,-3,0,0
138330094432,-7,-2,-5,-1,3,3,-2,10
138330094432,0,2,-1,9,-4,2,-2,-15
138330100424,-3,-2,-6,-6,7,-1,-3,-6
138330100424,-2,1,-7,5,-2,1,1,1
138330115444,1,-3,-1,-4,1,2,-3,-5
138330115444,0,-2,-3,8,0,-1,5,2
138330122964,2,4,4,-4,-3,-1,1,10
138330122964,-2,2,1,2,-3,2,6,1
138330138608,-1,-1,1,-2,-3,2,1,11
138330138608,2,-6,-6,-7,4,-1,-1,0
138330139377,-2,-1,-3,-4,1,3,-3,-8
138330139377,0,0,2,7,-2,-4,-3,0
138330154468,-1,0,-6,-2,-6,1,0,11
138330154468,-4,0,-5,-8,-5,1,1,3
138330160519,0,1,7,-3,-1,3,-4,-2
138330160519,2,-6,10,3,-2,-3,-2,-1
138330175437,3,3,4,-2,-4,-1,-3,4
138330175437,1,-2,1,4,3,-4,-3,0
138330182952,0,-2,2,1,-2,-7,2,-5
138330182952,-4,-5,2,3,-4,1,-2,-2
138330198583,-2,-1,27,13,-2,2,1,-3
138330198583,4,6,-18,-1,-2,1,4,-4
138330199375,1,-3,0,6,-2,2,-3,-5
138330199375,-6,-3,-26,-9,1,-5,-1,-5
138330221111,1,-6,-32,-8,2,-2,0,-3
138330221111,-1,-1,-11,2,-9,0,1,0
138330221949,-4,1,0,2,20,-4,-3,-6
138330221949,2,0,34,1,3,-1,-1,4
138330235480,-2,4,59,26,-21,0,-3,0
138330235480,1,3,21,35,-15,-1,-1,0
138330242920,0,-2,2,35,-22,-5,-4,1
138330242920,1,2,-30,9,-2,2,4,4
138330258614,4,0,-40,-48,6,-3,-8,0
138330258614,-2,0,-27,-39,1,-2,3,-6
138330259446,-3,-3,-12,-38,4,0,-3,-1
138330259446,-3,2,3,-28,0,-2,-1,-4
138330274481,-2,2,0,-7,1,-5,2,-4
138330274481,-1,-1,13,2,-6,-2,-5,2
138330280474,0,-3,7,8,-20,1,2,2
138330280474,0,-4,18,-12,-14,-3,-1,-1
138330295479,0,1,26,0,-1,-3,-1,-3
138330295479,-2,-3,1,7,10,-3,-4,-4
138330303019,-1,0,-21,11,5,-2,0,-7
138330303019,-3,-1,-13,37,-2,0,-1,-6
138330318652,-5,0,-38,26,26,0,6,0
138330318652,0,-3,-16,40,43,-2,-3,0
138330319411,2,-1,41,86,28,2,2,-1
138330319411,0,-4,-44,52,-27,3,-1,5
138330334455,-1,2,-52,-84,-35,-2,2,12
138330334455,-1,-1,-20,-75,-35,-1,-3,13
138330340480,2,4,-41,-116,-6,-2,2,16
138330340480,0,3,-96,110,6,-3,-4,10
138330363634,0,-1,-120,109,0,-2,-3,4
138330363634,-1,1,53,75,6,4,-1,-47
138330364438,-3,1,91,18,3,1,0,-44
138330364438,-3,4,127,-52,7,-3,-2,-15
138330386142,-4,-4,127,-5,2,0,-6,7
138330386142,-2,-2,114,-31,2,-3,-2,23
138330386912,-5,-3,101,0,-8,-3,-3,15
138330386912,2,-3,87,-29,2,2,-3,4
138330394457,-3,-5,18,-10,4,-2,-5,-3
138330394457,0,2,-88,7,-5,-7,2,4
138330400472,-1,-4,-97,-7,-7,-1,-5,1
138330400472,-3,1,-82,-10,8,-3,-3,0
138330415537,-1,0,-32,5,5,-3,5,-5
138330415537,-2,-2,12,-2,-12,2,-6,9
138330422937,-1,-4,-9,9,-8,0,-4,5
138330422937,-1,-4,-38,-26,1,0,3,-22
138330440175,-4,-5,-11,13,9,0,-2,-13
138330440175,-4,-1,-22,27,3,-5,2,11
138330440971,-3,-2,-25,-2,-2,-1,-1,30
138330440971,-2,7,18,-30,-13,0,-7,-21
138330454445,-2,1,22,-10,-102,0,0,-43
138330454445,0,-10,11,79,102,2,-1,-14
138330460467,-2,-2,89,-96,17,3,7,14
138330460467,3,2,-89,112,-86,2,5,26
138330475476,0,-1,-10,-8,-41,1,2,3
138330475476,-3,1,-50,70,-67,-7,0,-3
138330482942,-6,-8,-39,20,7,-12,-6,-4
138330482942,-3,-6,-11,-43,38,3,-1,-1
138330498615,2,1,-3,-16,16,3,-2,9
138330498615,0,2,-19,59,-8,5,0,14
138330499419,-3,-4,-27,122,15,-5,2,27
138330499419,-1,-3,-76,-84,3,-12,-13,-95
138330514477,0,-2,40,125,15,7,11,87
138330514477,-1,-3,7,-128,-4,-13,-10,-92
138330520465,0,2,-13,50,-37,1,0,-15
138330520465,-1,-2,29,39,-5,-2,-2,-11
138330535517,2,-3,4,-11,46,-2,-4,-9
138330535517,1,0,18,-50,19,-3,1,13
138330542989,4,2,-7,-13,21,1,0,2
138330542989,-1,-4,36,-98,17,-3,3,33
138330558650,-1,-1,0,-100,14,-4,-4,-7
138330558650,3,0,2,5,-33,6,1,48
138330559419,-2,3,-25,21,-22,6,0,23
138330559419,1,-1,12,-85,10,-12,-13,-85
138330574485,-3,1,-28,-104,0,-24,-22,-125
138330574485,-3,-3,-21,-128,-12,-22,-24,-128
138330580500,0,1,-36,-128,6,-25,-19,-128
138330580500,2,-1,13,-98,24,-20,-15,-99
138330595530,-4,1,-8,-58,18,-13,-19,-128
138330595530,1,4,-12,-128,14,-18,-21,-128
138330603010,-1,3,-12,-99,10,-17,-21,-128
138330603010,-1,-2,0,2,1,-2,-9,-27
138330618626,-3,0,-10,-24,11,-7,-14,-71
138330618626,3,0,13,113,-12,14,15,114
138330619374,-1,-4,1,77,-18,10,11,99
138330619374,-1,0,-15,-45,-7,-6,-6,-69
138330634436,-2,-1,-7,34,6,1,0,6
138330634436,0,-2,-2,67,-11,5,4,71
138330640509,-2,-2,-20,-44,5,-4,-2,-36
138330640509,-2,-2,5,-22,40,-7,-9,-51
138330655451,3,-1,9,57,-14,4,3,72
138330655451,0,-2,11,51,-30,11,8,47
138330662948,-1,2,-5,-67,22,-10,-12,-75
138330662948,1,-2,5,18,-3,0,1,-5
138330678632,-2,1,-12,-62,22,-13,-14,-80
138330678632,4,2,-2,-9,16,-5,-6,-40
138330679411,1,1,6,-11,6,-1,0,-27
138330679411,-2,-2,6,-35,25,-7,-4,-34
138330694454,-4,-3,0,4,9,-4,2,9
138330694454,-4,-2,-13,-9,-11,0,3,-1
138330700409,1,2,-31,3,-32,-5,-4,-6
138330700409,-1,-1,-20,56,-37,3,4,56
138330716972,0,0,-10,72,-47,8,8,64
138330716972,-6,-1,6,-43,5,-13,-8,-75
138330723071,0,0,34,-24,14,-2,-6,-57
138330723071,-5,2,37,17,31,1,5,8
138330738632,-3,-2,25,-64,58,-1,5,-36
138330738632,-1,1,4,-100,64,-8,-7,-75
138330739415,-2,5,1,14,1,5,2,28
138330739415,4,-2,-7,27,-10,1,-2,41
138330754522,-3,-1,-16,-18,-7,-6,-5,-21
138330754522,2,-1,-16,24,-38,-4,-4,2
138330760577,4,-5,-15,59,-38,0,0,40
138330760577,2,-1,-5,19,1,0,-2,13
138330775553,-2,-3,-5,-26,-3,-6,-4,-8
138330775553,-5,-3,-3,-29,20,-2,-7,-17
138330782999,1,-4,-2,-30,30,-5,-7,-40
138330782999,-4,0,4,-22,7,-2,-9,-27
138330798739,3,3,12,-1,12,-1,0,-24
138330798739,-2,2,9,-34,18,-2,-2,-39
138330799494,-5,1,6,-20,12,-1,4,-20
138330799494,-3,5,8,-33,21,-1,-3,-28
138330814478,-1,0,9,-20,23,3,-3,-37
138330814478,0,-4,26,-49,43,-5,0,-31
138330820475,-3,-1,64,-109,119,4,-2,-17
138330820475,-3,3,121,-114,124,11,1,87
138330835457,4,5,-95,77,-84,7,-3,72
138330835457,-1,5,-97,107,-112,-2,-6,8
138330842985,2,-11,-128,45,-75,-17,-1,12
138330842985,1,-15,-128,-65,-8,-9,-3,33
138330858664,-4,-19,70,-20,-20,-14,-1,-80
138330858664,3,0,-110,13,-44,0,2,115
138330859497,0,28,104,85,-128,3,2,68
138330859497,-2,1,97,127,30,8,8,-65
138330874477,5,1,116,3,126,10,5,-95
138330874477,-2,-7,116,29,127,-9,6,-69
138330880494,6,5,-96,37,-57,-4,-6,84
138330880494,2,1,-128,80,-128,0,-3,108
138330895502,-4,1,-128,107,-128,-6,0,96
138330895502,-4,-5,-51,111,-1,-6,0,16
138330903016,1,-7,-66,61,29,-11,-5,0
138330903016,-4,-7,80,-79,0,-2,4,-6
138330918632,4,7,65,92,-101,10,-1,-31
138330918632,0,5,70,55,-128,10,-3,-26
138330919443,2,-2,71,125,61,1,0,-82
138330919443,-3,-1,42,127,80,-2,0,-89
138330942627,-3,8,28,-128,127,4,-3,31
138330942627,-3,2,18,-128,-29,4,-2,-1
138330943451,-4,-3,4,-69,-32,-1,-2,-9
138330943451,-2,-1,-23,-98,-21,-2,-1,15
138330955433,-6,-3,-25,-115,23,-1,-9,25
138330955433,-1,7,-33,-75,-43,2,2,18
138330962993,-3,-6,-11,-56,-55,2,0,-24
138330962993,1,-3,-10,-41,-66,-4,3,-15
138330980198,-4,-3,-26,-70,-33,-7,3,-7
138330980198,-2,-5,-28,4,9,-3,-7,-26
138330980956,-1,-1,-12,74,-4,4,1,23
138330980956,-4,1,-26,78,-15,-3,-2,15
138330994472,3,8,-3,30,3,-6,3,7
138330994472,0,-1,27,-11,18,-1,-1,-10
138331000464,2,-5,24,-81,31,2,-3,-13
138331000464,1,7,1,-79,-16,-3,-6,-14
138331015492,0,-3,-4,-87,9,-3,-3,-23
138331015492,-6,2,12,-95,34,-5,-6,-41
138331023008,-2,7,0,6,9,-2,-6,-9
138331023008,2,4,-19,15,-13,1,-1,-4
138331038008,-1,2,-11,-38,-1,-5,-6,-11
138331038008,1,3,-11,20,8,-5,0,1
138331045462,-5,-6,-8,-128,21,-11,-8,-58
138331045462,-4,-1,-7,-109,5,-10,-8,-48
138331054509,-5,-1,1,-96,22,-13,-10,-60
138331054509,-4,-1,7,-57,16,-4,-7,-25
138331060507,-4,0,8,-53,22,-4,-1,-54
138331060507,-1,-4,3,-107,15,-8,-7,-62
138331075530,-2,-7,-2,-60,5,-5,-5,-27
138331075530,-5,-4,2,-31,16,-5,-7,-42
138331083036,-3,-3,4,21,-2,6,3,4
138331083036,-2,3,-7,-34,-2,-4,0,-7
138331097957,3,1,-7,-27,8,-3,-6,-32
138331097957,1,-2,-1,8,11,-7,1,-27
138331105460,-1,1,4,-20,0,1,-3,4
138331105460,-3,0,-6,-3,-1,-2,-7,-19
138331114449,-2,3,-14,-4,8,0,-5,-12
138331114449,4,1,-17,16,0,-3,1,4
138331120491,2,-3,-1,-17,1,-3,-3,-13
138331120491,4,3,3,33,-11,-2,0,12
138331135495,-1,0,3,36,-4,-2,-1,13
138331135495,-3,-6,14,-31,0,1,-3,-3
138331143026,-1,-4,11,-39,5,-1,-4,-14
138331143026,-3,-4,6,8,1,-2,-2,-4
138331158146,5,-2,2,7,-1,-2,-2,5
138331158146,-2,-3,-3,-25,-2,1,0,-2
138331165581,-1,1,-2,-21,-2,-2,-1,-6
138331165581,-2,-5,7,-27,-1,-4,-8,-12
138331174561,-3,-8,7,19,0,-6,1,2
138331174561,1,-3,-9,-14,1,-1,-1,3
138331180549,-4,-1,-3,-23,0,-4,1,-13
138331180549,0,1,-6,-3,2,-1,0,-4
138331195491,-3,-6,-1,10,-3,0,-3,-1
138331195491,2,-7,8,-22,2,-1,-7,-7
138331203064,0,1,0,-12,1,2,-3,-4
138331203064,-4,-6,-8,-14,-4,-2,3,-5
138331218063,3,0,-5,18,-4,1,4,0
138331218063,-5,0,19,-19,11,-1,-2,-12
138331225544,0,-8,13,-22,8,0,2,-8
138331225544,-3,0,13,-19,-5,-3,-5,-4
138331241194,-4,-6,7,0,0,-3,1,-6
138331241194,1,-5,8,-6,-3,-1,-1,-9
138331241989,2,0,4,-9,-1,-2,1,-7
138331241989,0,-6,-5,17,-1,0,1,5
138331255524,-2,5,-23,13,-7,-1,2,18
138331255524,2,0,-25,13,-4,2,-1,11
138331263022,-1,0,-22,18,-3,-1,-4,6
138331263022,3,3,-11,18,-3,0,1,1
138331278049,-3,-1,2,11,0,-1,0,1
138331278049,-4,3,10,-19,-7,-4,2,0
138331285560,-4,-3,5,-28,3,-3,-4,-11
138331285560,-2,-3,-7,3,-4,0,-6,0
138331301223,-3,-3,-2,1,0,-2,-5,-2
138331301223,4,1,0,-5,-1,-4,2,-4
138331302003,-5,-1,-2,-7,1,0,0,2
138331302003,-1,0,-7,-5,-3,0,-4,5
138331315587,1,1,0,11,-4,1,1,2
138331315587,1,-3,1,4,1,5,-4,-1
138331323029,-1,-1,9,-1,-2,-2,-3,0
138331323029,-1,-2,2,-3,-1,2,-4,-8
138331338059,-2,1,2,-6,1,-3,-1,-8
138331338059,-2,4,1,-4,-5,0,3,7
138331345524,1,2,-3,-3,-2,0,0,0
138331345524,3,-2,-1,1,0,4,-1,0
138331361205,0,3,-1,0,-2,-3,0,0
138331361205,-5,0,-3,3,2,0,-1,-2
138331361983,1,0,-10,1,-2,-4,1,3
138331361983,-1,-1,-2,5,-1,0,0,6
138331375591,1,3,-8,5,-2,5,0,-1
138331375591,-3,-2,-9,0,-3,-5,-4,1
138331383087,1,0,1,-2,-1,-2,-2,11
138331383087,0,2,7,-7,1,0,1,-1
138331398041,-4,-6,1,-7,0,-4,1,5
138331398041,4,1,-4,0,2,-4,-5,-3
138331405576,2,0,-10,11,-5,-3,-1,-47
138331405576,-5,-5,-2,10,0,-5,-3,2
138331421215,-1,3,-2,8,2,0,-2,6
138331421215,-6,1,-6,-1,0,1,2,12
138331421980,-1,-5,-1,-1,-1,1,1,16
138331421980,0,2,1,9,-3,2,0,3
138331435495,1,-4,-8,0,-3,-1,1,1
138331435495,0,-6,0,-7,4,-2,-4,-3
138331442951,-3,0,1,-15,1,2,-1,-1
138331442951,4,-2,13,0,-1,-1,2,-3
138331457976,3,0,9,-3,1,1,-3,-5
138331457976,0,2,-3,3,-8,0,0,-4
138331465475,-1,2,2,-2,-3,-2,-2,5
138331465475,1,0,-15,10,-7,-1,2,-1
138331481238,0,-2,39,28,-9,-5,-5,-3
138331481238,0,-3,32,24,-3,-5,-1,-1
138331482044,-4,2,16,10,2,0,-3,0
138331482044,3,1,24,14,5,-1,-3,1
138331495545,-1,-1,-23,-4,16,-2,1,0
138331495545,1,-1,-18,14,5,-1,0,-4
138331503042,-3,-1,20,48,-15,-2,1,3
138331503042,1,-2,-24,32,-3,-2,0,0
138331518116,-5,-5,-69,27,-7,1,0,-5
138331518116,0,-4,-52,2,8,1,3,3
138331525644,3,-4,-36,-38,21,2,0,0
138331525644,-2,-2,-8,-64,23,-2,0,-4
138331541175,-4,-3,18,-88,-3,-2,-4,1
138331541175,0,5,-9,-127,-27,1,-2,-3
138331541946,-7,-6,16,-76,-1,-5,-3,0
138331541946,-4,-1,12,32,19,1,1,1
138331555521,4,-5,3,109,62,-6,0,2
138331555521,0,-1,17,120,-36,-3,1,2
138331563022,2,-8,24,81,-38,1,0,-3
138331563022,-2,2,104,-3,-39,3,0,2
138331578037,-1,2,-46,-82,-33,4,-2,-1
138331578037,0,-3,115,77,4,4,0,-3
138331585553,-1,-1,-112,3,8,-2,1,2
138331585553,-3,-6,-119,-91,-6,-2,2,5
138331601163,4,1,14,-121,-4,-6,-2,8
138331601163,3,0,17,-63,11,-3,2,0
138331601954,1,4,56,-122,5,-2,0,-7
138331601954,-4,0,-20,-84,4,-7,-6,15
138331615542,-1,1,-45,118,-5,-5,0,3
138331615542,0,0,-128,89,-3,-4,0,21
138331623040,1,4,-23,127,5,-1,2,-13
138331623040,1,0,23,79,3,5,-1,-37
138331638108,-6,0,84,19,-1,7,-1,-49
138331638108,-1,1,81,-8,9,4,1,-51
138331645565,-6,-2,40,31,6,1,-4,-33
138331645565,2,0,73,79,3,1,-2,-23
138331661164,-1,-4,54,-34,-10,1,-5,34
138331661164,-5,-3,-107,-17,-3,2,0,68
138331661952,-3,-4,-18,-128,4,-3,-4,47
138331661952,-5,-9,-17,-128,0,-14,3,23
138331675518,2,-2,2,11,-4,2,0,-7
138331675518,4,-2,-17,67,3,6,2,-14
138331683015,-1,1,-28,116,-2,1,-1,7
138331683015,-4,1,-28,127,-10,-1,-3,0
138331698044,-1,-2,4,10,-5,-5,-1,5
138331698044,-2,-1,-14,-3,-1,-1,-1,28
138331705538,2,-1,-4,44,-11,-3,-7,-18
138331705538,-1,4,0,-52,-21,3,-1,-43
138331721220,-2,3,-4,8,-15,-4,2,-17
138331721220,-2,-4,13,-61,27,0,-3,-33
138331722017,-5,-1,6,-25,40,0,3,11
138331722017,-3,-5,7,-90,24,-3,-1,22
138331735540,-2,3,-1,-89,1,-3,-1,11
138331735540,-3,-1,33,-36,-12,0,-6,-21
138331743066,0,-3,10,-27,-15,-3,0,-21
138331743066,0,4,-7,6,-10,2,-5,-7
138331758069,1,-1,-12,-6,-8,-6,0,-21
138331758069,1,-1,-9,-35,-2,-7,-5,-34
138331765565,-2,1,-11,-23,0,-12,-4,-26
138331765565,-6,-4,-23,10,-5,0,-1,-10
138331781231,-1,-5,-22,1,6,-2,-11,-47
138331781231,-4,-3,20,33,3,3,10,98
138331782039,2,-1,3,-30,-6,-5,-7,-52
138331782039,0,4,-8,-24,-4,-16,-14,-100
138331795580,1,3,-18,-37,1,-15,-21,-120
138331795580,-1,4,-9,-88,-5,-23,-27,-128
138331803105,-4,3,-9,-58,-7,-11,-22,-110
138331803105,2,1,-19,-29,-3,-8,-13,-106
138331818040,-3,3,-24,-56,0,-19,-20,-128
138331818040,-2,5,-14,-75,-1,-15,-15,-128
138331825537,2,0,-4,-50,-3,-12,-16,-122
138331825537,1,6,-15,-38,2,-14,-15,-128
138331841297,-6,0,-6,-39,-3,-13,-16,-113
138331841297,-2,0,-1,-41,-4,-14,-18,-128
138331842015,2,-1,1,7,-4,-1,-2,33
138331842015,-1,-1,-7,6,5,-5,-4,-24
138331855622,-5,-3,-6,-3,-2,-6,-6,-64
138331855622,-3,-3,-3,-15,-5,-10,-7,-63
138331863094,-2,2,-7,-26,-5,-9,-8,-109
138331863094,-6,-1,-7,-3,-3,-1,-5,-48
138331878084,-3,0,-14,-16,-6,-6,-13,-97
138331878084,0,4,-13,-50,-4,-17,-22,-128
138331885506,0,0,9,30,-3,11,9,77
138331885506,1,0,-4,-36,-5,-14,-16,-91
138331901206,0,-1,8,33,0,10,8,100
138331901206,-3,-3,14,41,5,15,10,101
138331901991,-2,2,-1,-32,-4,-10,-15,-104
138331901991,-5,0,-17,-11,-7,-7,-12,-61
138331915554,1,-1,-7,21,-2,4,7,87
138331915554,0,0,1,21,2,7,8,66
138331923049,0,-2,3,-34,-2,-11,-11,-62
138331923049,0,-4,-9,27,2,4,4,97
138331938088,-2,-2,-9,-36,-3,-12,-11,-117
138331938088,-2,1,-6,-1,-3,-1,-5,11
138331945551,-4,-5,-11,4,1,0,4,55
138331945551,1,0,-10,0,-4,0,-4,48
138331960556,2,6,11,-5,-9,-4,-6,-30
138331960556,-2,1,39,-23,-16,-8,-10,-115
138331968664,-5,7,99,21,-6,3,-6,-128
138331968664,-1,3,59,15,-13,10,1,76
138331975571,-3,-3,-11,-49,44,6,5,125
138331975571,-1,-6,-67,-52,-4,-8,0,96
138331983118,1,-6,-85,23,-3,-13,-8,8
138331983118,7,-2,-44,54,-11,-3,2,-52
138331998079,0,2,-37,-74,-16,-21,-16,-128
138331998079,2,0,7,92,0,1,2,44
138332005538,-1,2,18,-40,-1,-2,3,35
138332005538,1,1,12,91,8,10,4,74
138332020555,1,0,-17,12,-8,9,3,22
138332020555,0,0,-94,49,-3,-1,-3,20
138332028740,-1,-1,-66,-68,-10,-9,-10,-51
138332028740,-2,-2,23,28,7,3,-3,-31
138332035612,4,1,97,-84,-8,1,4,-121
138332035612,0,-1,108,-21,0,7,3,-67
138332043058,-2,4,40,-106,3,-3,-5,-77
138332043058,0,0,0,-57,6,-8,-5,-25
138332058078,-4,2,-5,62,-1,12,-1,86
138332058078,-6,-3,-2,-89,2,0,-1,3
138332065568,1,-4,-14,53,1,3,-2,31
138332065568,2,1,1,31,-4,-2,1,10
138332080571,-2,-2,9,120,-4,6,5,55
138332080571,5,-2,-7,24,0,-5,-5,-42
138332088714,3,3,-33,12,10,-3,-4,13
138332088714,-3,-5,-32,-99,5,-13,-8,-37
138332103712,4,3,-28,59,-2,-7,2,18
138332103712,-2,1,-18,9,7,-8,-9,-35
138332104512,-3,0,-4,48,2,-5,5,24
138332104512,0,1,-2,-5,0,0,4,4
138332118087,-2,1,0,-55,1,-3,-3,-24
138332118087,-2,2,20,-100,2,-6,-6,-44
138332125680,4,0,25,-64,0,2,-3,2
138332125680,-2,-1,5,-128,9,-6,-6,-54
138332140596,1,0,-14,-57,7,-4,-2,-17
138332140596,0,-3,-22,-21,4,3,5,3
138332148749,0,0,-12,110,-7,4,-1,38
138332148749,-1,0,-7,89,-10,-2,-2,5
138332163755,-1,-1,3,91,-12,0,-1,22
138332163755,-2,0,5,63,-8,-3,0,12
138332164542,-4,-1,-3,3,-6,-1,3,13
138332164542,4,1,-8,-20,2,0,-3,-16
138332178053,-3,-2,-3,-48,4,-3,1,-6
138332178053,0,1,18,-56,4,0,-1,-12
138332185677,-6,-4,15,-29,2,-1,0,5
138332185677,-2,-1,14,-31,-1,0,-1,-5
138332200531,-1,-8,1,-6,2,-2,-4,-6
138332200531,-1,-1,1,10,-4,-1,1,-1
138332208742,1,-6,0,1,-2,-3,-3,9
138332208742,-1,1,-11,14,-2,0,0,-3
138332223734,-1,1,-22,20,-2,-2,-1,1
138332223734,-1,-7,-7,13,-7,4,-3,-5
138332224458,3,-4,7,-10,-1,-1,-3,5
138332224458,-2,2,-2,-15,-5,-7,3,-8
138332238041,0,1,6,-4,-1,-2,0,-1
138332238041,1,-2,5,-2,-4,-4,-3,-4
138332245620,3,-1,-2,-1,0,4,0,4
138332245620,0,-4,-1,-3,1,-3,-1,-4
138332260540,-2,-3,-4,-9,-6,0,-1,-5
138332260540,-1,-1,-2,8,0,-1,4,0
138332268774,0,2,3,-9,2,-2,1,-1
138332268774,2,-7,5,-5,0,-1,0,-7
138332283697,-1,-3,2,-6,-1,-4,-3,-2
138332283697,-2,-3,-7,-3,0,-6,-3,-4
138332284468,0,-1,-3,-1,1,-6,-3,-2
138332284468,-3,-5,-6,3,-1,1,-2,-1
138332298077,-2,0,1,-6,5,-2,1,-9
138332298077,-1,-5,6,-3,1,-3,-1,-3
138332305593,-5,1,2,-9,-4,-4,0,-1
138332305593,-2,0,-1,-10,2,-3,1,-5
138332320603,-1,1,2,-2,0,1,2,3
138332320603,-1,-2,-5,4,1,1,3,6
138332328817,-3,0,-11,-1,-3,3,-3,2
138332328817,-3,-4,-6,-3,-5,2,-5,-4
138332343761,-1,0,1,3,-3,5,-2,1
138332343761,-1,3,4,-2,-1,5,0,6
138332344478,-1,0,-1,2,0,-2,2,0
138332344478,0,4,-2,-1,1,0,3,1
138332358064,-3,3,6,1,-5,5,-1,7
138332358064,1,-3,-3,-8,2,-4,-2,1
138332365569,2,1,-4,8,-4,-1,4,6
138332365569,-6,2,6,-6,0,-2,-8,-4
138332380568,4,-6,-6,1,-1,-1,-1,0
138332380568,-1,-1,0,-2,5,-4,-2,-4
138332388777,-4,-2,-1,2,-2,1,1,5
138332388777,0,-3,0,-7,4,0,-1,-3
138332403760,-5,4,-4,8,-5,-1,0,3
138332403760,-3,-2,1,4,-1,-4,-10,-5
138332404513,-3,2,7,-6,-1,0,-2,-1
138332404513,-1,-2,4,0,3,-7,-2,-2
138332418076,-1,-2,-4,6,-4,-2,0,6
138332418076,3,2,-5,3,-2,4,1,-4
138332425637,0,2,-9,5,0,1,-3,-4
138332425637,2,-1,-2,6,-1,0,2,3
138332440553,1,-5,-1,0,-1,-4,-6,-5
138332440553,-4,-1,-8,-5,-1,-5,-1,-3
138332448843,-3,-2,-3,2,-3,0,1,3
138332448843,-4,2,-2,-1,-3,2,-4,2
138332463782,0,-3,4,-7,0,-9,-2,-10
138332463782,-1,-3,-2,8,0,-2,2,4
138332464528,-3,-4,7,-6,4,-5,-6,-8
138332464528,3,-2,0,-1,-4,-2,4,3
138332478076,1,0,-6,6,4,2,1,1
138332478076,2,3,0,-2,-4,0,2,0
138332485559,-3,-2,-7,5,0,-1,3,2
138332485559,4,0,-6,6,-3,-4,-1,0
138332500529,-2,-3,-2,1,1,1,-3,3
138332500529,-3,0,-1,0,-5,0,-3,-2
138332508803,2,-5,-4,1,2,2,-8,3
138332508803,-3,0,1,-2,-4,0,-1,-3
138332523764,-1,-1,-3,1,2,1,-1,-2
138332523764,0,0,0,-5,-2,-4,-3,3
138332524487,-3,-2,2,-2,-2,-1,-4,-3
138332524487,-3,2,-1,-4,2,-7,-2,-5
138332538010,3,-2,-2,-1,-3,1,-1,-1
138332538010,-2,-2,4,2,-1,5,-5,-1
138332545538,0,-2,0,-5,-1,1,-1,-4
138332545538,0,1,-3,2,2,2,0,0
138332560610,-5,-1,4,-3,-1,2,-2,-2
138332560610,1,-1,-1,3,0,-3,-3,2
138332568757,5,0,-5,2,-4,-1,0,2
138332568757,0,-1,2,6,1,-1,-1,-4
138332583684,-2,-4,0,-2,-2,-5,3,-5
138332583684,0,-2,-4,1,-4,2,0,4
138332584447,-3,-3,1,1,2,-4,2,-3
138332584447,-3,-3,-4,0,-2,0,1,-3
138332598023,1,-3,3,-1,-3,0,-1,-5
138332598023,-3,-4,0,-1,1,-3,-2,-9
138332605482,-2,-2,4,0,-3,-2,-2,-1
138332605482,-3,0,-1,-1,-4,1,1,0
138332620573,-4,-5,-7,1,-7,-2,1,4
138332620573,-3,-7,2,-2,-4,0,-1,-4
138332628651,1,-4,-1,3,-2,-1,1,-3
138332628651,-2,-3,-10,2,-3,-2,1,3
138332643765,-1,-1,-3,-9,2,-1,-6,-8
138332643765,-2,5,-3,-1,-6,-4,-2,2
138332644492,-5,-7,-2,-4,-5,-1,3,3
138332644492,2,2,0,-5,1,-2,-3,-2
138332659594,-4,-7,4,-11,3,-2,-1,-8
138332659594,0,3,-1,-2,-2,0,6,0
138332665505,-3,-1,3,-10,4,-1,-6,-11
138332665505,-6,-6,4,-2,3,-1,0,0
138332680565,-6,-5,-3,-1,3,0,-3,2
138332680565,-1,-3,1,-6,-1,-2,1,-7
138332688723,1,0,-1,-4,2,-1,-6,6
138332688723,-1,0,-7,1,-2,0,-3,1
138332703782,3,-3,3,-6,6,-2,-6,-5
138332703782,1,-3,-5,3,0,-2,2,0
138332704492,0,10,-3,-3,-4,1,4,4
138332704492,-2,-2,4,-4,-5,-3,-1,-9
138332718067,2,7,3,2,-5,0,4,3
138332718067,-2,1,0,-8,4,-1,-8,-4
138332725616,1,-2,-2,-1,-3,2,4,-4
138332725616,1,-3,3,-8,1,-1,-6,-3
138332740587,1,8,1,-3,-7,0,3,4
138332740587,-1,3,-3,0,0,0,5,3
138332748782,-7,-6,4,-3,-3,-3,-3,-11
138332748782,0,-3,5,-8,2,-2,-4,-4
138332763664,4,-3,0,0,0,-2,-3,5
138332763664,0,1,5,-1,-3,1,1,0
138332764537,1,-1,0,-1,2,1,-3,0
138332764537,-1,5,-7,-4,-4,-5,2,6
138332778111,-4,2,-2,9,-2,-2,-4,0
138332778111,-4,0,4,-3,-3,1,-4,-3
138332785592,-2,1,2,2,3,-3,-1,0
138332785592,3,3,-2,1,-1,-3,4,8
138332800596,-3,3,-2,8,-4,2,1,-2
138332800596,-2,-1,-8,2,-3,-5,1,1
138332808743,-2,0,-9,-3,-2,2,4,-2
138332808743,-2,-2,-4,1,-4,-3,-9,-2
138332823762,-6,-4,-2,3,-3,-4,3,-2
138332823762,0,-1,0,3,-2,-2,-3,1
138332824540,-5,0,3,-1,-2,-7,-3,-4
138332824540,1,-8,3,4,2,3,0,-2
138332838049,1,-6,0,-2,4,-3,-3,2
138332838049,1,0,-2,0,-1,-1,-3,-10
138332845595,1,3,-3,3,-2,-3,0,6
138332845595,1,2,-3,2,-1,1,-1,0
138332860580,-3,1,-5,-1,1,-3,-2,-4
138332860580,0,1,-7,5,0,-2,-4,1
138332868804,2,3,-3,0,-2,-2,0,2
138332868804,-9,-5,2,-1,-1,4,3,-1
138332883770,1,0,-3,-2,-4,0,1,-3
138332883770,3,-2,-1,-1,-6,3,1,2
138332884512,-4,0,-2,1,-5,-2,-3,-2
138332884512,0,3,1,-1,2,-2,-3,-4
138332898045,-2,-1,3,2,-1,0,-3,0
138332898045,-4,-9,-2,-7,6,-3,-1,2
138332905544,-1,-1,-4,2,-3,3,4,2
138332905544,0,-5,-4,-2,0,2,-3,-1
138332920502,-3,2,-3,0,5,1,-4,-3
138332920502,-1,4,1,-1,0,-1,-7,-4
138332928765,-1,-5,-10,-11,0,0,-3,2
138332928765,-2,-2,-7,-8,3,-1,3,-5
138332943071,1,1,-3,19,-1,-1,-2,4
138332943071,-4,-1,6,12,-5,5,6,1
138332951266,2,-4,3,8,0,-3,-3,-4
138332951266,-1,-4,1,2,1,3,-3,-2
138332958019,-2,0,-13,3,-3,1,-2,4
138332958019,-3,-1,-8,7,-4,0,3,2
138332965503,5,0,-5,3,-2,0,-4,-4
138332965503,-1,-1,0,-6,1,-8,-3,-1
138332980524,-5,0,-2,-2,-2,0,0,4
138332980524,-1,-3,-4,0,-2,-4,-2,0
138332988825,-1,0,-4,-3,-6,0,0,0
138332988825,0,0,-5,9,-4,-1,0,5
138333003078,0,-3,-2,-6,-4,-2,-3,-9
138333003078,1,-7,-2,-7,2,-2,-3,-3
138333011300,-3,-7,-1,3,0,4,6,0
138333011300,3,-1,-4,2,-1,-7,2,-1
138333018016,-5,-5,-5,-2,3,-4,4,-6
138333018016,1,1,1,-7,-3,0,-1,-1
138333025571,1,2,0,-3,3,-3,-4,-1
138333025571,-3,4,-1,0,-2,2,2,-4
138333040636,3,-2,-1,-7,1,-2,6,0
138333040636,-5,-2,0,-12,1,-2,-3,-2
138333048839,1,-3,2,3,-3,-4,6,-4
138333048839,-3,-3,3,-4,0,-3,-3,-6
138333063151,-2,-1,11,-11,3,1,2,-5
138333063151,-4,-5,10,1,2,-5,-7,4
138333071337,-3,2,-16,-6,1,-5,-3,1
138333071337,1,-2,-18,1,-3,-3,0,-1
138333078089,2,1,-5,-12,2,-3,-2,-4
138333078089,2,1,4,-8,0,-3,1,-5
138333085571,2,0,13,-6,-2,-2,1,2
138333085571,0,-2,4,-3,-1,0,-1,-3
138333100615,0,1,-3,-1,-4,-3,-2,0
138333100615,3,0,0,1,-2,-1,1,-2
138333108746,-4,-4,1,-1,1,0,-3,-3
138333108746,-1,2,-2,-1,0,2,-3,6
138333123051,3,-5,-4,5,1,1,-1,3
138333123051,-2,-2,-5,1,-3,-1,-1,-2
138333131238,-1,1,-3,3,0,1,0,-4
138333131238,-3,-4,2,-5,-1,-1,8,3
138333146243,0,1,7,-5,-3,-3,1,-2
138333146243,3,2,-8,-1,1,-3,1,-2
138333147001,0,-1,3,-1,-2,-1,-1,3
138333147001,0,0,-2,1,-3,2,-3,4
138333160530,0,0,-1,2,-5,2,-1,-4
138333160530,-1,1,-7,3,2,0,1,2
138333168742,0,2,-1,2,-5,-2,-2,5
138333168742,-3,1,2,2,0,-2,-2,-7
138333183105,2,-3,-2,3,-2,-1,-2,2
138333183105,0,1,-2,1,-5,1,-2,5
138333191244,-2,0,-2,7,-2,2,-3,2
138333191244,3,-2,-9,5,2,-1,1,3
138333206284,0,0,-3,-2,-1,2,-2,-1
138333206284,-4,-3,-3,3,0,-5,0,2
138333207006,-2,-4,1,-2,0,1,1,1
138333207006,-3,-1,3,-4,2,-5,-5,-6
138333220576,0,0,-1,6,-4,-4,3,3
138333220576,4,-4,-2,-2,-4,1,1,-1
138333228747,-2,-1,-2,2,2,-6,-6,-4
138333228747,1,-1,0,2,0,4,-3,-4
138333243071,2,-1,1,-2,-4,1,-2,0
138333243071,-3,6,-2,2,-1,0,1,-3
138333251293,1,4,1,-1,-2,-1,6,1
138333251293,-3,0,0,-4,-2,-4,-3,3
138333266208,1,0,-8,8,-1,1,-1,-8
138333266208,-1,2,-1,2,-3,3,1,0
138333266996,-3,0,2,-3,-6,1,-1,-4
138333266996,-1,2,-1,-1,-3,-1,-3,3
138333280567,-9,0,-2,5,0,0,1,-2
138333280567,1,1,-2,-1,2,-4,-4,-3
138333288792,-1,-6,0,-1,4,-4,-1,-1
138333288792,0,0,2,-2,-4,-1,-1,-2
138333303065,1,-5,0,-1,-4,-2,-1,5
138333303065,0,-4,4,-6,-4,2,1,2
138333311243,4,3,-5,5,-4,3,-3,2
138333311243,-2,-1,1,3,-3,-1,2,1
138333326207,-1,-2,-4,-2,1,1,-1,1
138333326207,0,-1,-2,7,-2,-3,3,3
138333326938,5,2,-6,-1,-7,0,3,3
138333326938,-1,-2,-4,5,0,2,3,1
138333340500,-2,3,0,-3,0,-4,-1,-3
138333340500,-4,-5,2,-5,0,-3,-2,-5
138333348740,-4,0,-4,-3,0,-2,2,0
138333348740,-2,-1,-4,2,0,2,-1,-3
138333363002,-1,1,-3,-4,4,-4,-2,3
138333363002,-1,-1,-2,2,-5,3,-2,0
138333371235,-4,-7,-2,-5,0,-1,3,-5
138333371235,-1,-1,3,-2,-2,-4,-4,0
138333386218,-2,-9,2,-10,2,-3,-3,-9
138333386218,-3,-5,-2,2,-2,-3,-2,-1
138333386969,0,1,-2,-1,2,1,-5,-1
138333386969,0,-4,-3,-1,0,1,-3,2
138333400582,-4,0,-7,0,1,-3,-2,-9
138333400582,-3,-3,-2,-2,5,-3,-9,-4
138333408741,0,-6,1,-4,3,-2,-6,-4
138333408741,3,-5,1,-2,-3,2,2,-1
138333423019,-2,-4,0,-3,-1,-7,-2,3
138333423019,-2,1,2,-7,-1,-2,-1,-1
138333431215,-3,-1,-3,-4,4,-2,0,-1
138333431215,3,0,3,-6,-5,-4,-2,1
138333446251,0,-2,-1,-1,1,-2,1,-1
138333446251,-3,-5,-3,-1,-4,-4,0,0
138333446994,-2,-8,5,-4,-2,-5,3,-3
138333446994,-3,-3,-1,-4,2,-2,-2,-6
138333460510,4,3,-1,-1,4,2,0,-1
138333460510,0,1,-2,-1,-2,1,3,2
138333468760,0,-1,-5,0,-1,-2,0,-6
138333468760,-2,0,3,-2,0,-5,-3,3
138333499377,4,1,6,-1,-4,-3,-1,-7
138333499377,0,1,1,-4,0,0,0,-1
138333500179,0,1,3,-4,-6,-1,3,6
138333500179,-1,-3,-3,3,1,4,2,0
138333506176,-3,-1,-3,-4,-2,1,-5,6
138333506176,-2,-1,-5,1,-1,2,-3,3
138333506975,-3,1,1,-3,-6,2,-1,9
138333506975,-2,0,-2,1,0,-2,2,-6
138333520599,-3,3,2,-1,-1,-1,-1,2
138333520599,-3,1,0,1,-2,2,2,-1
138333528731,3,0,-7,2,-3,1,-5,2
138333528731,-3,-6,0,-5,3,1,-4,-3
138333543064,1,-1,3,1,-3,-1,-1,3
138333543064,-1,-4,-2,-2,-1,-3,-1,0
138333551285,-4,5,2,0,-1,-2,-1,-3
138333551285,-4,0,4,1,-2,1,-3,-4
138333566200,0,1,-3,2,-2,3,-4,0
138333566200,3,1,-1,3,2,0,3,0
138333566963,0,2,-1,3,-1,3,1,0
138333566963,0,0,-4,0,-2,-4,3,5
138333580548,-5,-9,-4,4,2,-2,-5,-1
138333580548,0,-1,0,3,-5,-1,0,0
138333588764,0,0,0,4,4,-4,-4,-3
138333588764,-1,-3,-1,-1,-2,-5,-2,-4
138333603036,-2,-2,0,-1,-2,0,2,3
138333603036,0,-2,-7,2,0,4,0,1
138333611243,-2,-7,-2,-1,0,-1,0,-4
138333611243,1,1,-4,2,1,2,-7,2
138333626226,-1,2,-2,-3,0,-2,-4,2
138333626226,1,1,0,1,-6,0,-2,3
138333627046,1,-4,-2,-1,-6,3,0,-2
138333627046,-2,-4,-2,0,-3,1,3,4
138333640600,-3,0,-4,2,3,0,1,0
138333640600,-1,0,-3,1,2,-4,2,-2
138333648801,-2,1,-7,3,4,-5,0,-2
138333648801,-2,4,-4,5,-1,1,4,1
138333663025,-3,-5,-2,-2,-4,4,0,2
138333663025,-3,6,-4,2,-2,-1,1,-1
138333672115,-1,1,-2,-1,-4,0,-2,-2
138333672115,-1,-2,0,-4,2,-4,-4,-6
138333685554,1,0,-5,1,-1,0,2,-1
138333685554,-2,-3,-3,0,1,0,-2,2
138333694604,-2,-4,-3,-3,2,-1,-5,-5
138333694604,-1,-4,-2,-3,1,-2,-3,-3
138333700531,2,-2,1,-1,-5,-1,3,-1
138333700531,1,-5,2,-6,0,-2,-3,-9
138333709640,0,0,-1,3,0,-1,-5,2
138333709640,1,0,-1,-5,1,-4,-9,-6
138333723106,-4,-6,3,-6,4,-2,-6,0
138333723106,-1,-6,1,-4,-2,-6,0,1
138333732086,-3,-3,3,-6,-3,-4,6,6
138333732086,0,-4,0,1,-2,-2,0,7
138333745605,-3,3,-2,1,-2,-4,1,-1
138333745605,-1,-1,-3,1,-4,-1,-6,2
138333754587,-1,-6,3,-5,1,-3,-3,-8
138333754587,-2,3,-2,-2,-4,0,4,0
138333760611,1,4,-2,0,0,-3,-3,0
138333760611,-1,-4,5,-4,1,0,0,-2
138333769614,-1,5,-1,4,-3,-1,0,0
138333769614,1,-1,-4,-1,-2,4,-2,-6
138333783133,-5,-3,-1,-5,0,-4,5,-3
138333783133,2,2,-3,-1,-1,-4,-7,0
138333792029,-1,-7,3,-2,0,1,-2,1
138333792029,-5,0,-3,-2,2,-2,2,-1
138333805588,0,-3,2,-7,0,0,-1,-3
138333805588,-1,1,2,-5,-2,-1,0,0
138333814609,-1,-2,-3,2,3,2,-1,4
138333814609,-2,-1,2,4,-3,2,-4,2
138333820650,-2,-5,-2,1,-1,-6,-6,-9
138333820650,-2,0,0,-5,3,1,0,1
138333829567,-5,2,-1,1,-4,2,-3,0
138333829567,-7,-4,1,-3,3,-5,2,1
138333843098,-3,-2,2,-2,-1,1,0,5
138333843098,-6,-6,-4,0,-2,-2,0,-2
138333852047,2,1,-4,0,2,-7,2,6
138333852047,-2,2,1,-2,-1,-2,-4,-3
138333865643,-3,-3,-1,-1,-3,4,-1,1
138333865643,-2,-1,4,-3,1,-4,-6,-1
138333881268,-3,-1,1,2,-2,2,-1,2
138333881268,-1,3,-2,0,-2,-4,-1,2
138333882066,0,1,-1,3,-4,-2,3,1
138333882066,-1,1,1,0,4,-3,2,-2
138333889596,-3,-4,0,-4,-3,0,1,-5
138333889596,0,3,1,-2,-3,0,-5,1
138333903102,-1,5,-1,0,1,1,-2,1
138333903102,4,-3,-2,2,-1,-4,-1,2
138333912051,-2,0,4,-3,0,-3,-1,-1
138333912051,2,-4,-3,1,-6,0,0,7
138333925553,-1,-1,-3,2,-1,0,2,1
138333925553,0,-1,-5,1,0,2,2,1
138333934568,5,3,-4,3,-2,1,0,1
138333934568,-1,1,-4,-1,0,-5,2,1
138333940560,3,0,1,0,-2,4,0,-1
138333940560,-6,-4,-2,3,-4,-4,0,0
138333949549,1,-3,-6,2,-1,1,-6,0
138333949549,-1,0,-2,2,-2,3,0,0
138333963100,0,-5,-1,-1,0,-6,1,-4
138333963100,-1,4,0,-5,1,2,-7,-3
138333972095,0,2,-1,-2,0,-2,-3,-5
138333972095,-1,-6,3,-2,-1,-2,-3,-1
138333994423,-1,2,0,-4,-2,2,1,-1
138333994423,-3,-6,-1,2,0,-1,1,-6
138333996017,-1,0,-5,3,-4,-1,0,6
138333996017,0,0,0,1,2,1,-1,0
138334000529,-1,-3,-3,0,4,-3,-3,-1
138334000529,-3,1,-4,2,-4,-2,-1,2
138334009533,2,-1,-3,2,3,-1,1,-5
138334009533,1,-6,-2,-2,-3,3,0,-2
138334023045,-2,-3,-5,0,-2,1,-4,2
138334023045,-2,-3,-2,0,0,-1,2,-3
138334032127,-2,-6,0,-1,0,0,-5,2
138334032127,1,-2,-1,-3,-2,-4,0,-5
138334045624,0,2,-3,-1,-1,-1,-8,1
138334045624,0,-1,1,-2,-1,-2,0,1
138334054561,-4,1,-6,-1,-5,2,-1,-5
138334054561,2,3,-4,0,-2,-2,5,-5
138334069469,-8,-3,1,-3,1,-5,-3,-4
138334069469,-2,2,-1,-6,-1,-3,0,-5
138334071017,3,4,0,-1,2,-5,3,-2
138334071017,-6,-3,-1,-3,4,-1,-6,-2
138334083122,0,5,3,-2,-7,-1,1,-1
138334083122,3,-1,1,-5,-1,3,-4,5
138334092097,-3,-2,5,-6,-7,-1,-2,-1
138334092097,1,-3,-3,-4,2,-5,-4,-1
138334105649,3,-3,-1,-6,-2,0,-2,-1
138334105649,-2,-1,4,-5,-3,-3,-3,-3
138334114638,-1,-2,-3,-3,-1,-1,-2,0
138334114638,-5,-2,-1,0,1,-8,-2,0
138334129507,-2,-4,-2,-1,-1,-3,-3,1
138334129507,5,1,-2,-2,-2,0,3,-4
138334131099,0,2,-1,2,-3,0,-1,1
138334131099,0,0,-1,-8,1,-2,-6,-4
138334143108,0,2,-1,1,1,1,1,-2
138334143108,-3,-1,-6,-4,-1,-1,-3,-1
138334152124,-5,-5,3,-6,3,-5,-2,-4
138334152124,1,-4,3,-10,1,-3,-3,-2
138334165608,0,-1,0,-1,2,-3,-3,-5
138334165608,-4,0,0,0,1,-2,-5,3
138334174600,2,-5,4,-5,0,-2,-1,-3
138334174600,-3,-3,2,0,3,-1,-2,1
138334189449,3,1,0,-6,0,-1,0,0
138334189449,1,-1,-1,2,-4,2,-1,1
138334191039,-2,-2,-1,-1,0,2,-6,1
138334191039,-2,0,7,-2,-6,0,1,8
138334203130,-2,-6,0,-2,0,-5,3,-7
138334203130,0,-5,-3,3,-1,1,-2,1
138334212047,-2,1,-3,-2,-1,2,5,2
138334212047,1,-3,-1,-3,-4,4,2,2
138334225623,0,0,-3,-1,-2,-1,-2,1
138334225623,0,0,2,-4,1,-5,-4,-1
138334234598,2,1,-3,4,-2,-5,-1,5
138334234598,2,0,0,1,-3,6,-4,-3
138334249507,-4,-1,1,-1,6,-3,-3,-6
138334249507,3,-4,-3,-2,-4,1,1,2
138334251060,3,-3,-3,1,0,0,0,4
138334251060,-2,0,-3,4,-2,-1,-4,-3
138334271948,1,-2,-5,4,-6,2,-1,6
138334271948,-2,-3,1,3,-2,-2,0,2
138334273559,-3,-1,-1,-3,2,2,2,-1
138334273559,0,-1,-7,5,-4,-1,3,4
138334285641,-2,-2,5,-6,2,1,-1,-4
138334285641,0,1,-2,-2,0,0,0,-5
138334294593,-2,2,-2,2,-3,0,-1,1
138334294593,-2,3,-1,-1,2,-9,-2,-7
138334309451,4,3,-4,3,-5,4,-6,4
138334309451,-1,-5,-3,0,2,-3,1,2
138334311019,-1,-1,-2,-1,-2,-1,0,-5
138334311019,0,0,-2,3,1,3,2,5
138334323533,0,-1,-2,4,0,0,1,-1
138334323533,0,3,1,-2,-4,1,0,-3
138334332134,-2,-3,0,-2,0,-3,-8,-4
138334332134,4,-3,-8,2,-7,-1,-3,1
138334345583,-1,-1,-5,-2,-3,-3,-1,4
138334345583,-3,0,-3,4,-1,3,-1,-3
138334354613,2,-2,-1,0,-2,-2,-2,1
138334354613,-2,-2,2,-2,0,-4,-3,-7
138334369439,3,-2,3,0,-4,-5,-2,3
138334369439,-1,-1,1,0,-5,0,1,0
138334371026,2,0,1,-4,5,-2,-3,-3
138334371026,-3,1,-7,2,7,1,0,-12
138334383114,-3,-2,-6,7,3,-1,1,-1
138334383114,0,4,1,-2,-5,-1,4,3
138334392087,4,-1,1,-1,1,-1,3,0
138334392087,2,-1,2,1,-3,0,0,2
138334405619,-1,6,-1,-1,-3,3,-2,-4
138334405619,2,0,-6,2,2,-2,-1,1
138334414593,-2,-1,-4,3,-1,-3,1,2
138334414593,2,3,-7,3,-3,1,-2,4
138334429416,0,-4,-3,-4,-3,0,2,-3
138334429416,-1,-6,-1,0,1,-7,-4,-6
138334431029,-1,2,-2,3,-1,-1,-1,1
138334431029,-2,-2,-7,4,0,-2,4,1
138334443100,2,0,-6,7,1,-3,1,1
138334443100,-1,-1,0,-1,1,-4,-4,-1
138334452165,-3,1,-4,3,-2,0,-5,0
138334452165,-4,-2,-4,0,-3,-3,-1,2
138334465622,-6,-7,3,-5,3,-3,-1,-7
138334465622,3,1,-2,0,-2,-2,0,0
138334474632,-3,-2,0,-6,2,0,-2,-9
138334474632,1,2,3,-8,1,-9,-4,-2
138334489459,-1,0,-4,-1,1,1,-1,0
138334489459,-2,1,1,-2,-1,-2,-8,-1
138334491090,-3,1,-5,3,-4,6,3,1
138334491090,-3,-7,0,-9,4,-1,-6,-5
138334503112,5,-2,-1,-1,-4,1,-6,-2
138334503112,-6,-2,-3,-4,0,-7,-2,-1
138334512122,-7,-1,0,0,-2,-3,-3,-7
138334512122,-6,-5,1,-6,8,-2,-1,-9
138334525686,-3,-2,-1,1,-1,-2,1,2
138334525686,1,-3,1,-8,-1,0,2,-1
138334534627,0,-1,-5,-2,-1,-4,2,-5
138334534627,-1,4,3,-3,-1,1,1,4
138334549890,-4,1,-3,-5,0,-2,-1,-7
138334549890,1,0,-1,-1,3,-1,1,-2
138334551503,-1,-4,-1,-4,5,-5,-6,-2
138334551503,-2,-5,3,-3,-1,0,2,2
138334563056,0,-5,1,-2,2,-2,-2,2
138334563056,-2,3,-4,1,-1,0,0,2
138334572145,1,0,5,-9,1,-6,-1,-5
138334572145,0,5,1,2,-4,1,3,3
138334585593,-2,-2,1,-2,-4,-2,-1,-2
138334585593,0,0,2,-3,0,0,0,0
138334602119,2,2,5,1,-7,3,1,6
138334602119,2,0,-2,2,-5,5,-2,3
138334609468,-2,-1,-2,-1,3,-5,-1,5
138334609468,-6,-2,-4,-7,-7,4,1,0
138334611053,-2,5,-4,-4,-6,-6,0,2
138334611053,1,2,-1,2,-5,0,0,2
138334623184,3,1,-1,3,-1,2,-4,5
138334623184,0,-3,-1,-4,2,-2,-6,-7
138334632092,4,0,0,1,-6,4,5,5
138334632092,-3,0,-3,2,-5,1,3,-1
138334645591,1,-1,3,-8,-3,-2,1,-4
138334645591,0,-1,4,3,-3,2,-1,1
138334654632,-5,-5,0,-1,0,-4,-6,0
138334654632,3,-1,0,1,-1,0,-2,-3
138334669450,-3,2,-5,0,-5,2,6,1
138334669450,-2,0,0,4,1,-1,-3,2
138334671075,-6,-3,4,-9,3,-5,3,-7
138334671075,1,-1,2,4,1,-1,0,1
138334683168,-4,0,-1,-1,-1,-4,0,-5
138334683168,-2,3,-1,0,-1,0,-2,2
138334692097,-1,0,-6,3,-3,2,-4,-1
138334692097,1,1,-5,5,-2,-1,4,3
138334705671,-4,5,-1,-3,-2,1,2,4
138334705671,-3,0,4,-1,-1,-2,0,-1
138334714635,-2,-5,-1,4,-1,0,0,5
138334714635,0,5,-4,-2,-1,-6,-2,-6
138334729425,2,-3,-3,6,0,0,2,-3
138334729425,-3,-3,-2,2,-2,1,-2,-3
138334731064,3,-3,-4,1,0,-2,-6,3
138334731064,-8,-1,-2,0,3,1,0,1
138334743085,-2,-4,-1,-5,-3,-3,2,4
138334743085,-2,0,-5,0,7,-3,-6,-2
138334752116,-1,-2,6,0,-5,-3,1,2
138334752116,-7,-5,-1,-5,-1,3,-3,1
138334765679,-3,2,0,-1,1,3,-2,2
138334765679,5,-1,-4,-2,-4,1,1,-2
138334774653,-1,1,-6,-1,4,4,-3,-3
138334774653,4,4,-1,-4,-2,-2,-4,-2
138334789403,-1,3,-4,3,1,0,-1,-1
138334789403,-5,-3,1,0,-8,0,6,0
138334791042,0,6,-3,5,-2,-1,1,2
138334791042,-3,-1,-2,2,-2,0,1,0
138334803166,5,1,-5,6,-2,3,-4,4
138334803166,2,1,0,1,-3,-5,6,5
138334812053,0,-3,1,-2,-3,4,1,0
138334812053,-1,-2,-3,1,-5,-2,-2,2
138334825579,-2,5,-2,-2,-1,-1,3,-1
138334825579,4,-4,-8,0,1,-5,-6,-4
138334834679,-3,-3,-7,3,-2,1,3,2
138334834679,4,-5,-1,-3,5,-8,-1,-1
138334848806,0,-3,-2,1,-3,0,-3,-2
138334848806,-3,-3,-2,2,-1,1,0,2
138334855545,-1,-3,-1,3,-2,-3,-1,-3
138334855545,3,-1,-6,1,-1,0,-2,-3
138334863080,-5,-2,-4,1,-3,-3,-2,-1
138334863080,-2,1,-6,3,-1,0,2,2
138334879603,1,-3,-7,0,-1,-1,-1,-4
138334879603,-7,-1,0,-2,-2,-2,3,-2
138334885587,0,-6,1,-4,2,0,1,-7
138334885587,-1,1,2,-9,-1,-1,0,-3
138334894582,1,1,-2,-3,-6,-5,4,-1
138334894582,2,-3,-1,-1,0,2,-2,2
138334908825,-3,-2,-1,-6,3,-1,-5,-6
138334908825,5,0,2,-2,0,0,-5,-2
138334915617,0,-1,0,-4,-2,-3,-2,-2
138334915617,-3,-1,2,-8,4,0,0,-3
138334923042,-3,0,1,-1,-4,-2,2,-1
138334923042,0,1,-4,3,-3,-4,3,0
138334932112,0,0,-2,-2,3,-2,-7,-3
138334932112,0,0,-1,2,1,0,-5,-1
138334945586,-1,-1,1,1,-2,-1,-1,6
138334945586,-2,-2,1,-5,-1,0,0,1
138334954549,-1,-2,2,-6,-4,-1,1,6
138334954549,-7,-5,4,-5,2,-1,-7,-6
138334968763,3,-2,-3,-4,3,-4,1,-2
138334968763,1,1,-6,2,-5,3,-2,7
138334975565,-4,1,2,-3,4,0,-6,-1
138334975565,4,-1,1,-1,-6,1,-2,3
138334983066,5,0,1,-3,4,-3,-6,0
138334983066,-2,-6,0,-3,1,-1,-6,-3
138334992100,-3,-3,-2,-4,2,2,1,-6
138334992100,0,-1,-2,3,2,-6,1,3
138335005589,-1,-6,0,-2,0,0,0,0
138335005589,-2,-5,2,-5,1,-4,-7,-4
138335014617,-1,-1,0,2,-7,3,3,4
138335014617,-1,-1,-1,-1,0,0,3,-1
138335028822,-2,-4,2,-1,-4,4,-1,-4
138335028822,-2,2,-1,4,2,2,0,0
138335035597,-1,-7,0,-3,2,2,1,-2
138335035597,-3,1,0,1,-1,-4,0,4
138335051992,2,-3,-3,-3,-4,-3,3,-3
138335051992,-3,-2,-1,-3,-3,1,4,3
138335053590,5,3,-3,4,-7,2,-3,-1
138335053590,-2,0,-4,1,1,1,0,-2
138335065662,-4,-1,-1,-1,0,-5,-3,1
138335065662,-1,3,2,3,-2,-5,-2,-4
138335074549,-1,-1,1,-8,3,-8,-3,-3
138335074549,2,-3,-1,4,-3,3,-1,-2
138335088820,1,4,-5,2,-1,5,-3,4
138335088820,1,0,-1,2,-3,1,-1,6
138335095559,0,-4,-6,5,-1,-2,1,7
138335095559,1,-7,-7,4,-6,4,4,-1
138335111986,0,-6,-2,3,-1,-3,2,2
138335111986,-2,-1,-5,-1,0,-1,-2,-1
138335113582,1,3,2,0,-1,1,-6,3
138335113582,-1,-3,-6,0,0,-4,1,-1
138335125589,-1,-2,1,-1,-1,3,-3,-3
138335125589,-1,-3,-8,3,-3,2,2,3
138335134593,-3,-8,-1,0,-1,-5,-5,-3
138335134593,1,0,-5,2,1,-2,-4,-2
138335156994,-1,4,-4,2,-3,0,1,1
138335156994,-4,3,1,-2,-5,-4,2,2
138335158516,-1,-2,-1,1,-1,4,2,1
138335158516,-1,-2,-4,-2,0,-3,-6,0
138335172033,-1,-6,0,-4,0,-3,0,2
138335172033,-5,-3,-3,-2,3,0,-3,-3
138335173634,0,6,-2,-1,-4,-1,1,2
138335173634,-3,2,1,-1,-3,2,-7,2
138335185636,-4,0,-4,-1,3,-2,0,0
138335185636,1,-2,-4,0,1,-2,0,1
138335194656,-3,2,1,2,2,-6,3,5
138335194656,1,-2,3,-3,-1,-1,2,0
138335208827,-1,-3,3,-2,0,-5,-5,-4
138335208827,-2,-8,1,-5,0,-3,2,-1
138335215606,0,-1,0,4,-6,-2,-3,2
138335215606,-2,-1,-1,-4,0,-1,0,-4
138335232372,-5,-8,-2,-2,0,-2,-5,-2
138335232372,1,3,7,-5,-2,-1,-2,-5
138335238092,-3,-2,1,-1,1,3,-7,-5
138335238092,1,-9,0,-4,2,-2,-4,-3
138335245597,-4,-2,-1,-2,-2,-1,0,-5
138335245597,0,-1,-5,-2,-2,0,-1,4
138335254638,-3,4,-9,1,0,3,-2,-1
138335254638,-4,6,0,3,0,-4,-2,-3
138335268829,2,-2,0,1,-4,1,-1,3
138335268829,-6,-1,0,-5,-3,-2,0,-4
138335275592,-1,-2,-3,-4,3,-3,-2,-5
138335275592,-3,-2,0,-8,-1,-4,3,-1
138335292040,-3,2,4,-3,1,-5,-3,-4
138335292040,-1,-1,-5,2,1,-4,0,-1
138335293581,0,-3,1,-7,3,-4,-6,-3
138335293581,-5,-2,5,-5,-1,3,0,-5
138335305640,1,3,0,-1,0,-6,-4,1
138335305640,2,-1,2,-4,2,-1,-1,-2
138335314617,-3,-7,1,-4,-3,0,1,-4
138335314617,-2,-7,0,-2,0,-1,0,-3
138335328828,-4,-5,1,-9,4,0,-1,-3
138335328828,-1,-2,0,0,-1,-1,-4,-1
138335335681,-2,0,2,0,2,-3,1,-6
138335335681,4,-1,7,-5,-2,-1,2,3
138335352025,-4,-3,-1,-1,0,8,1,0
138335352025,-1,-2,0,-3,-1,-6,-1,-6
138335353592,1,2,-1,1,-1,1,-1,0
138335353592,-1,-2,0,1,-1,0,0,3
138335365648,1,2,-3,4,-2,2,3,3
138335365648,4,-1,0,2,3,-1,-2,2
138335374614,-3,1,1,-3,0,-1,2,-1
138335374614,-7,0,-3,-3,4,1,-4,0
138335388819,2,-4,-1,-4,-4,-4,-4,1
138335388819,0,-3,-2,3,-5,0,-6,-1
138335395622,-3,1,-2,2,-2,3,0,1
138335395622,6,2,-4,2,0,-7,0,-1
138335411990,-5,-2,0,-8,-1,2,2,0
138335411990,-3,-2,3,-5,2,-3,1,-4
138335413560,4,-6,0,-3,0,-2,0,-3
138335413560,-3,-2,-3,2,-4,3,-1,-5
138335434474,1,1,0,6,-3,0,-2,3
138335434474,1,-4,4,0,-6,6,-4,2
138335436095,-2,-4,1,-1,-2,0,1,0
138335436095,2,4,-3,2,4,-1,-1,-3
138335448849,2,-2,-3,2,1,-1,1,-1
138335448849,0,1,-7,2,1,-4,0,-3
138335455659,0,-1,-3,2,-3,-3,3,0
138335455659,3,-4,-5,5,-4,0,-1,5
138335472038,1,3,-5,2,-1,0,0,1
138335472038,-4,-4,-3,-1,3,0,0,0
138335473620,-2,-4,-1,-1,-4,0,2,0
138335473620,-3,1,-3,-1,-2,1,-3,-5
138335485562,-7,-6,-3,5,2,0,-3,1
138335485562,1,-3,0,2,1,2,-3,3
138335494559,2,-2,-3,3,-1,-1,0,5
138335494559,-6,1,-2,4,4,-1,-2,-2
138335508785,2,0,2,-2,-5,2,1,2
138335508785,-6,-1,2,-4,-3,3,0,-5
138335515673,-1,-2,-4,-1,5,-1,-1,1
138335515673,7,-2,-1,0,-5,-2,-3,-1
138335532036,-1,1,-3,1,-3,-2,0,-1
138335532036,2,4,-6,5,-3,2,-3,-1
138335533550,1,3,-1,4,-4,-3,4,3
138335533550,1,1,-3,-3,-2,-2,0,2
138335545653,4,-3,-3,4,1,-2,-3,-5
138335545653,-3,-3,-4,-2,-2,-3,2,2
138335554654,1,0,0,0,0,-4,-1,2
138335554654,0,-6,0,-4,-2,-2,0,-1
138335568864,-3,2,-3,0,-3,-2,4,-2
138335568864,4,7,1,-4,-5,-5,1,1
138335575654,-2,3,-8,8,-5,4,-2,4
138335575654,-4,-2,1,-4,-1,1,1,9
138335592065,0,-2,-2,0,1,-2,-4,-2
138335592065,-1,-2,-4,-1,-2,-1,1,1
138335593592,-4,0,-2,-5,-1,1,-1,-7
138335593592,3,-1,0,-5,-2,1,-1,1
138335605591,2,2,-3,-5,1,-4,-1,-5
138335605591,-9,-7,7,-5,4,-4,0,0
138335614668,2,-4,-6,2,1,0,-5,1
138335614668,0,6,-3,8,-5,0,3,5
138335628814,6,2,-6,-2,-4,-1,-2,2
138335628814,5,-2,-4,2,-3,1,5,0
138335635626,1,-1,2,2,-2,1,3,1
138335635626,-1,0,0,-5,-4,-4,2,-3
138335651045,-1,-4,-1,1,-3,0,-3,-2
138335651045,1,-1,-2,-2,-1,1,-3,-1
138335659612,-6,0,-5,4,-2,-2,-3,-4
138335659612,-3,2,-3,-2,1,3,-2,-1
138335665653,-7,-4,-3,-4,4,0,-3,-2
138335665653,1,1,2,-2,-1,2,-4,-2
138335674641,3,-5,6,-5,1,-3,-2,0
138335674641,0,-3,5,-4,-2,-3,-4,-4
138335688826,0,-2,5,-6,-1,0,4,-4
138335688826,-3,-2,-5,1,1,1,1,0
138335695565,0,-4,-7,2,-2,0,1,-2
138335695565,-3,-4,-10,3,-4,-3,0,2
138335711988,-2,-2,-11,0,-4,-2,0,1
138335711988,3,1,2,0,-1,-4,-1,1
138335713544,0,1,2,-1,-4,1,0,2
138335713544,0,-3,8,-6,3,0,-6,-2
138335725613,3,0,13,-4,1,0,-3,1
138335725613,3,1,-7,6,-7,3,0,-10
138335734667,-1,-6,-5,-3,2,-5,-6,4
138335734667,4,0,-10,5,-3,0,4,14
138335748839,2,2,-8,6,-2,-4,-1,14
138335748839,0,2,-11,0,-3,-1,-1,-1
138335755642,3,-2,5,-3,2,-3,-4,-1
138335755642,-2,-4,22,-3,8,1,3,-6
138335771354,1,0,16,-12,-2,4,1,-5
138335771354,-2,-1,5,-2,-2,1,0,4
138335778138,-3,3,-16,7,-7,0,2,5
138335778138,0,3,-18,4,-5,-2,0,-1
138335785656,2,-2,-7,9,0,-2,-3,2
138335785656,1,-3,-9,8,-1,-2,3,7
138335794628,0,0,-8,4,-4,-1,-1,5
138335794628,-3,-4,3,-4,-1,-3,-4,-3
138335808829,-4,4,1,4,0,2,1,3
138335808829,-5,-3,0,0,0,-1,-5,0
138335815571,-3,-3,5,-2,-3,-2,2,-1
138335815571,0,-2,-14,5,-1,0,2,-2
138335831296,-2,-3,-17,6,-4,2,-2,6
138335831296,2,-3,-9,5,1,-1,3,0
138335838128,2,0,-7,5,3,-1,1,2
138335838128,-2,2,-1,0,-2,-2,-1,-1
138335845633,-3,0,3,-4,-1,-4,3,-5
138335845633,-2,-3,1,2,0,3,2,4
138335854687,1,-4,3,-3,1,-1,-9,-3
138335854687,3,-1,-4,2,1,-4,0,-2
138335868815,1,-5,3,1,3,2,-1,-4
138335868815,2,2,-2,-2,-2,-1,-1,2
138335875614,-5,1,2,-2,0,-1,0,-6
138335875614,-4,-1,-6,2,-7,3,-4,1
138335891320,2,0,-3,1,-1,-6,-4,0
138335891320,-1,-3,-4,2,-2,-2,-5,-4
138335898118,-2,-4,-4,5,-2,0,0,6
138335898118,-5,0,8,-8,0,-4,-4,-6
138335905624,-2,0,2,-2,-2,-4,1,-5
138335905624,-5,-2,-8,1,1,0,-2,-1
138335914638,-1,6,-5,2,-1,-3,0,-4
138335914638,0,-8,-1,4,-4,2,5,4
138335928760,-7,-2,-3,-3,-5,-2,-1,-4
138335928760,3,0,9,-3,1,-2,-3,-3
138335935639,-4,-6,-2,-3,-6,3,3,1
138335935639,0,-2,-2,-2,-1,1,-2,1
138335951321,2,0,0,-4,3,-2,-3,0
138335951321,3,-2,-3,2,-2,1,7,1
138335958086,0,5,2,-5,-2,2,-1,0
138335958086,3,-2,-7,5,-3,0,2,1
138335974468,-4,-1,2,-5,0,-3,-4,-1
138335974468,-3,4,3,-2,1,-1,1,-6
138335976040,4,-3,0,-1,2,-4,-3,-2
138335976040,-2,-5,-6,0,0,-1,-3,-2
138335988795,1,-1,-4,4,-4,2,4,0
138335988795,4,1,-1,-1,-10,-4,-5,-1
138335995607,1,-3,7,-3,-4,-4,-1,-5
138335995607,-3,1,4,-7,0,-3,-3,-4
138336011341,-3,-4,1,-3,0,2,-3,-4
138336011341,-3,-7,1,-3,2,-3,2,-7
138336018109,0,0,-5,4,-1,0,-5,4
138336018109,-2,-1,-7,1,-1,-2,-2,1
138336034483,-2,0,-12,4,0,1,2,-1
138336034483,-4,0,-1,1,-1,-5,1,-4
138336036099,4,-1,-1,5,-3,0,0,-2
138336036099,-4,-1,7,-5,2,-6,-1,-4
138336048821,1,-4,8,-2,0,-1,0,-4
138336048821,-1,1,4,-5,-2,-2,0,-1
138336055616,-1,3,-4,-3,-1,3,-3,1
