timestamp,emg1,emg2,emg3,emg4,emg5,emg6,emg7,emg8
4035449652,-5,0,-3,0,1,0,3,4
4035449652,2,0,-2,0,-2,-2,-4,1
4035455173,-2,-3,-2,-9,-5,-3,2,-5
4035455173,2,5,1,-1,-4,-1,-6,-1
4035455960,-1,-2,-2,-1,-4,-1,-1,-2
4035455960,-2,0,4,3,4,3,3,0
4035457604,-1,0,2,1,-5,1,-5,-3
4035457604,-5,-2,-5,-6,5,0,2,0
4035468217,-1,3,0,-3,-3,0,-1,-3
4035468217,-2,1,0,-4,-2,-1,0,-1
4035479643,3,-3,-2,-8,2,-4,-6,-1
4035479643,0,-6,-1,-4,-5,-2,2,0
4035483219,1,4,-2,-5,2,-2,-4,-1
4035483219,-5,-3,-2,-10,-6,-5,-1,-4
4035506789,-3,1,-3,3,-2,-2,1,0
4035506789,0,0,-3,-5,-2,-3,-5,-5
4035509632,-3,-1,-2,-2,-1,1,2,-2
4035509632,1,1,2,1,-2,-2,-1,-2
4035514699,0,1,0,-2,-3,-4,1,0
4035514699,-2,-2,1,1,-1,5,7,-1
4035536839,-1,-2,0,4,0,-1,0,-1
4035536839,-2,-3,-1,-6,1,2,-2,-4
4035545095,-1,-2,-1,0,0,-1,0,0
4035545095,0,1,-2,-2,-6,-7,-3,-4
4035583948,4,-3,0,-2,-8,-2,0,-1
4035583948,1,-3,0,-5,0,1,-3,-1
4035584783,0,-3,-1,-3,-6,0,-2,-2
4035584783,0,0,0,1,-4,0,-4,2
4035585568,0,3,-6,2,4,1,1,-1
4035585568,1,-1,2,-3,-6,-3,3,-5
4035587959,1,-1,-2,1,0,1,4,-1
4035587959,-7,-2,0,2,3,1,1,-7
4035596178,0,-7,3,-1,-5,-5,-1,-3
4035596178,-1,-7,-5,-2,1,-4,-1,-3
4035603006,0,-3,0,-10,-7,-7,-3,-1
4035603006,-3,-5,-3,-7,-3,-1,-2,-5
4035610508,-6,2,-5,2,2,2,2,0
4035610508,-1,1,-1,7,7,1,3,2
4035625493,1,-3,5,4,4,1,-1,0
4035625493,-1,1,-2,3,-3,-3,1,1
4035633733,0,-1,-1,-2,-2,0,0,4
4035633733,-3,-3,-1,-1,-1,-1,1,-1
4035640536,0,2,-2,3,1,0,-3,0
4035640536,3,-1,0,-5,-3,-5,-4,0
4035656238,0,0,0,-3,-4,0,-2,-2
4035656238,-2,3,2,1,-7,-4,-6,-7
4035663007,2,0,5,0,-2,-3,-2,-1
4035663007,-7,1,0,1,4,2,0,1
4035686866,-5,3,5,-2,0,-5,1,-1
4035686866,0,0,3,0,-2,0,2,4
4035688468,-4,0,0,-6,-6,-2,-8,-2
4035688468,-1,-2,-1,-1,3,-4,2,-1
4035693691,3,-2,-2,-4,-4,-1,-4,-3
4035693691,1,5,1,3,-1,-1,-4,-3
4035700478,-7,-2,-2,-3,1,-3,1,0
4035700478,-5,-2,-2,-3,-3,-2,2,2
4035716175,-1,0,0,1,0,-3,-2,-1
4035716175,-2,-4,0,-3,-3,1,-2,4
4035722998,-1,-2,-2,-2,-2,1,-2,1
4035722998,-3,-3,-1,-3,0,3,-5,-5
4035730547,-5,-3,2,0,-1,-1,2,2
4035730547,-2,-2,-5,-4,1,-4,-3,-4
4035745473,-4,-3,-3,-4,-2,-1,-1,-1
4035745473,2,-2,2,-3,-2,-2,2,1
4035753696,1,3,5,-1,-6,-2,-1,-3
4035753696,-5,-5,-8,-8,-1,-2,0,-2
4035768037,-2,0,-6,-2,1,0,0,0
4035768037,-2,-3,-8,-7,-7,-2,2,1
4035776195,-1,-2,-6,-9,-4,-6,-5,-7
4035776195,4,-3,-3,-8,-2,-3,3,0
4035783004,1,-1,-4,-2,-4,4,-2,-2
4035783004,-2,-1,-4,-3,0,2,0,0
4035790482,-3,-1,-1,0,7,-2,-1,1
4035790482,-3,3,0,-1,-2,-3,-5,-3
4035805499,-1,1,-1,3,-3,-2,-1,0
4035805499,2,0,-2,-1,-3,-1,-4,-1
4035813735,0,-4,1,-1,-1,3,0,1
4035813735,-2,-3,-1,-8,-6,-1,-5,0
4035828000,-5,-1,2,1,1,-5,5,-1
4035828000,2,0,5,1,2,3,-4,-3
4035836212,-3,-7,-5,-1,6,-1,-1,1
4035836212,4,0,3,1,3,1,-2,3
4035843034,-2,4,-3,-2,-1,-5,-2,-3
4035843034,1,0,1,-1,3,-4,-1,-2
4035850541,-3,5,2,0,0,0,0,-3
4035850541,1,-4,-7,-4,0,5,-1,-2
4035865549,-2,1,-4,-2,-1,2,2,0
4035865549,-2,3,1,-2,-4,-2,-4,1
4035881266,1,-3,-5,1,1,0,-4,-1
4035881266,-2,1,-1,0,-3,-6,-3,1
4035888065,1,2,4,-2,1,-2,0,-7
4035888065,-1,-3,-1,2,0,1,0,2
4035896266,1,4,1,4,3,5,1,-1
4035896266,0,-1,0,-1,-3,-1,-3,0
4035903077,1,-4,-1,-1,1,-3,0,4
4035903077,0,-2,0,0,-1,-7,-6,-3
4035919514,0,-2,-5,-2,-1,1,-3,1
4035919514,3,-2,3,-2,-1,-1,1,-1
4035925516,-2,-2,-1,-2,0,-4,-10,0
4035925516,1,0,2,-3,-3,0,-2,-4
4035934562,1,-3,-1,-1,-1,0,2,-1
4035934562,-6,-2,-3,-2,-2,1,-4,1
4035956862,2,-1,0,-3,-7,3,2,-1
4035956862,0,2,-1,1,-1,-1,0,-1
4035958457,0,-5,-2,-4,-2,-4,-10,0
4035958457,0,0,-4,-3,-4,-1,2,0
4035962976,-2,-8,-3,-4,3,-3,0,2
4035962976,-3,-3,-4,-1,-3,-1,1,0
4035979480,0,-5,1,-3,-2,-2,-1,-2
4035979480,1,-2,-2,3,1,-1,0,-4
4035985538,4,-4,-2,5,0,4,1,1
4035985538,3,0,-5,1,2,-3,2,1
4035994503,1,2,-1,-1,-3,-1,-2,-3
4035994503,-2,6,3,-1,-2,-2,-2,2
4036008037,-2,-1,-3,4,0,0,-2,3
4036008037,0,-4,-1,-2,-2,1,-1,3
4036016986,-6,-5,-3,-6,-2,-3,1,1
4036016986,-4,-2,-1,3,3,-1,1,0
4036023010,0,3,-1,-2,-6,0,-1,0
4036023010,0,0,-5,-3,-1,-2,-1,4
4036047688,0,1,0,-3,1,1,-1,-4
4036047688,1,-2,0,1,-1,3,1,-1
4036048499,0,2,2,4,3,1,-1,-3
4036048499,-2,-2,-2,-3,0,-5,0,-4
4036054544,-4,-1,-2,3,-1,1,1,0
4036054544,2,0,-1,-3,1,-6,2,1
4036068020,2,-3,1,-6,-1,-1,0,-4
4036068020,2,-3,-4,-4,-7,-3,-1,-3
4036077080,0,-2,1,-1,-1,0,3,-3
4036077080,-3,1,-1,0,-4,-2,0,-3
4036083030,-6,-3,-2,-5,1,-3,-1,3
4036083030,3,2,0,-1,1,-5,-1,0
4036099515,1,0,-5,-6,-2,-3,-2,-1
4036099515,2,-1,-5,-1,-2,-2,-3,-6
4036105530,3,-1,-1,-1,2,-7,3,-3
4036105530,-5,0,-1,-3,-1,-2,-2,-3
4036114537,-2,0,2,-5,-4,-2,-2,1
4036114537,0,1,-1,1,2,7,-5,2
4036127997,0,-4,-3,-2,0,0,-1,-1
4036127997,-1,2,3,0,0,4,1,3
4036137065,-1,1,-1,-2,-2,-3,-4,-1
4036137065,-3,-3,1,-7,0,-2,1,-1
4036143023,-2,-2,-2,-4,-1,0,-5,-1
4036143023,-4,1,-1,-4,1,2,-6,-2
4036159506,-1,1,2,-1,-2,0,0,4
4036159506,-5,-6,-2,-8,-2,-4,-2,-2
4036165525,-3,6,-2,0,-5,-1,0,-5
4036165525,-4,-3,-3,0,-6,2,3,-2
4036174526,-2,1,-6,-4,0,-1,-3,1
4036174526,-1,-1,-3,-1,2,-1,-1,-3
4036188093,1,-2,0,-1,1,1,-4,1
4036188093,-3,-5,-3,-7,-8,-1,-2,-2
4036197082,2,-4,0,1,-3,-1,-1,1
4036197082,0,-2,-2,-2,0,2,4,2
4036210526,2,2,-4,-6,-5,-3,-5,-3
4036210526,1,-1,0,2,2,3,1,0
4036219495,0,2,0,5,1,2,-1,-2
4036219495,3,2,-2,0,2,-2,-3,0
4036225511,-3,2,0,-4,-1,2,3,-2
4036225511,1,-6,2,-2,0,-2,0,1
4036234510,0,0,1,0,2,-1,1,1
4036234510,-1,-1,3,4,-2,-2,-3,0
4036256918,-7,-5,-1,3,2,2,-2,0
4036256918,1,2,0,-1,-1,-2,3,-3
4036258477,-2,-3,-5,-5,-1,-3,-1,2
4036258477,1,0,0,-4,-10,0,-1,-1
4036263020,1,0,-3,-3,-4,1,-3,1
4036263020,-2,-4,1,0,5,2,-4,0
4036279544,2,0,2,5,-4,1,1,-2
4036279544,-1,-1,2,-1,1,-4,2,-1
4036285539,-1,0,4,2,-1,-2,-1,2
4036285539,-3,2,-5,-2,0,-2,0,1
4036294527,1,-2,-5,-4,-2,-1,0,2
4036294527,1,2,0,2,2,-1,-1,-3
4036308068,2,-1,1,-2,-1,-6,1,-2
4036308068,1,-1,6,7,1,-2,-1,0
4036325804,-3,-2,-1,0,0,1,-2,1
4036325804,-3,-3,-3,-4,-2,-5,-2,-2
4036326612,-1,3,0,-3,1,0,-1,3
4036326612,0,0,-4,-3,-2,-4,-4,0
4036339513,-4,-4,1,-6,-2,-3,0,-3
4036339513,-2,-3,0,-1,1,3,0,3
4036345547,2,0,0,2,1,-2,1,2
4036345547,-2,1,4,-1,-2,4,2,-4
4036362086,0,0,4,4,3,1,0,1
4036362086,-3,1,-4,5,3,-2,-1,1
4036368131,-3,-3,-5,-3,2,1,2,0
4036368131,1,3,3,2,0,3,-1,3
4036377090,0,-2,-1,-8,-6,3,-1,-4
4036377090,-6,-4,-4,-6,-1,-2,-4,-4
4036383030,-1,-2,1,0,-1,0,1,2
4036383030,-2,-2,-5,-2,-4,2,0,-2
4036399525,-3,-4,-5,-2,-1,-2,-1,-2
4036399525,2,-2,1,2,-3,0,4,0
4036405580,3,-4,-2,-4,-5,-2,1,-4
4036405580,-2,-4,-3,-1,0,-2,-1,1
4036414524,-4,6,2,2,2,3,3,-3
4036414524,4,-2,-3,-5,-3,0,3,-5
4036428150,-2,-1,-3,6,-1,-3,-1,-2
4036428150,1,-3,-1,-7,-7,-3,-2,0
4036437064,-1,-8,-2,-3,0,1,-3,-3
4036437064,-1,0,0,1,4,5,-1,-1
4036442996,-4,1,1,5,2,-1,0,-4
4036442996,1,-3,-2,0,0,3,-1,-2
4036459487,-3,4,-3,-6,-3,-4,-1,1
4036459487,-4,1,-1,0,-3,0,3,0
4036465528,-4,-1,-3,-6,-1,-2,-4,-3
4036465528,-3,-3,-3,2,3,1,0,1
4036474492,1,-3,4,3,5,2,2,-4
4036474492,-2,1,3,3,-5,-2,2,0
4036488023,-3,0,1,-1,-8,-1,-5,-5
4036488023,2,-5,-2,4,-1,-2,-3,-1
4036497061,0,3,0,2,-1,-3,-2,5
4036497061,-5,-1,-2,-3,-2,-1,-3,-1
4036503089,-4,-1,-2,-6,-4,-2,-4,-2
4036503089,-1,1,2,-3,4,-1,0,-2
4036519477,-2,0,-5,-6,-3,0,-1,-2
4036519477,-2,-4,1,-7,1,-4,-4,-1
4036525536,0,-1,-1,-2,3,1,0,1
4036525536,-3,3,-2,1,0,-3,-3,-2
4036534512,-6,-2,-7,-3,1,-2,-2,3
4036534512,4,-2,-4,-6,-1,-4,-2,5
4036556874,1,2,-2,-1,-2,0,2,2
4036556874,0,2,2,0,1,2,2,1
4036558498,-1,2,3,5,-1,0,1,-6
4036558498,-3,3,0,2,1,-1,-3,-5
4036570539,0,-3,-3,4,3,5,1,-2
4036570539,0,0,-3,-7,-1,-4,-2,-1
4036579520,7,2,0,0,-4,-4,-2,-3
4036579520,0,-1,2,2,1,3,-5,1
4036594366,-2,-3,0,3,-2,-1,2,-1
4036594366,-4,3,0,-3,-6,1,1,-3
4036595986,0,-4,1,5,5,0,-2,2
4036595986,0,0,-5,3,2,1,-2,0
4036616911,5,0,2,-2,1,2,1,-1
4036616911,-3,-3,-6,-4,0,1,1,-3
4036618489,2,-2,-2,3,6,-1,4,1
4036618489,4,2,-1,7,5,4,4,3
4036630486,-3,3,-1,3,6,3,-3,-3
4036630486,-1,-2,4,-7,-7,-7,0,0
4036639522,-1,2,2,1,-4,4,0,-3
4036639522,2,-2,0,0,-3,-3,-6,-3
4036654363,1,-1,0,-3,-3,-4,-2,-4
4036654363,3,-1,-1,3,6,0,-3,0
4036655969,-2,-4,0,-2,0,-1,-4,0
4036655969,-4,2,4,2,-2,-2,-1,1
4036668239,3,-3,-4,0,2,-2,-2,1
4036668239,0,1,3,0,0,-3,0,-2
4036677121,3,3,-4,4,5,1,1,-1
4036677121,0,0,-1,-1,3,5,4,-3
4036690629,0,-4,0,1,1,-2,0,-1
4036690629,-1,-4,-2,-3,0,3,-4,-2
4036699528,-5,1,-1,-7,-8,-2,0,0
4036699528,-1,2,4,-1,-1,-2,-2,1
4036714425,1,2,-1,-4,-4,-2,-1,-1
4036714425,-3,-1,-1,5,0,-3,-4,0
4036716022,2,-3,0,4,0,-4,0,2
4036716022,-2,-2,-5,-2,-7,-3,2,1
4036728033,1,0,2,0,-2,0,1,-1
4036728033,1,3,0,3,-1,-3,-1,-3
4036737116,-1,-4,-3,2,3,-2,2,-3
4036737116,-4,-2,-5,-5,-1,0,0,2
4036750604,-3,2,0,-4,1,-7,-2,0
4036750604,0,-2,-2,-3,-4,-2,-5,-4
4036759575,0,-1,-1,1,0,-3,4,1
4036759575,-3,2,2,-1,-3,-1,1,1
4036774443,-4,-2,0,3,1,-1,3,5
4036774443,3,1,1,3,5,-5,0,0
4036776086,1,-2,0,-4,-3,0,-4,-2
4036776086,1,-7,-2,1,0,-2,-2,-2
4036788043,-3,-1,-5,-11,-8,3,0,0
4036788043,2,-3,2,-4,-2,-2,0,1
4036797135,1,0,-1,0,-1,1,2,3
4036797135,3,2,2,-6,-6,-4,-2,-3
4036810595,-2,-2,-2,3,0,2,-6,0
4036810595,3,0,-6,-2,-1,-1,4,2
4036819563,-2,-1,-2,-2,0,-5,-5,-2
4036819563,2,0,5,2,2,-3,1,-1
4036834365,0,-1,-5,-1,1,0,4,-6
4036834365,-2,2,0,1,-1,2,0,3
4036835977,1,-1,5,-4,-8,-4,0,-2
4036835977,1,1,-4,0,3,-5,0,-6
4036848184,1,-2,3,4,2,-7,2,0
4036848184,0,-3,-2,1,-3,-3,-1,-5
4036856979,2,6,-2,5,4,1,-5,0
4036856979,2,-6,0,0,2,-2,-3,-3
4036870544,1,0,0,2,0,-7,-7,1
4036870544,-2,-3,-2,1,1,4,-2,1
4036879572,-3,1,-1,-5,-2,-6,2,-2
4036879572,-2,0,-6,-5,-6,0,0,-5
4036894424,-1,-4,-3,-3,-3,3,2,-9
4036894424,-2,-3,-1,-4,-4,-5,1,0
4036896088,-1,-2,0,-3,-5,5,-3,0
4036896088,2,-2,-3,2,3,1,-1,1
4036908140,-3,-4,1,-5,-1,0,-1,0
4036908140,-3,0,-2,1,-1,1,-1,2
4036917074,-4,-1,-2,1,-3,1,0,-3
4036917074,-4,-3,-4,3,3,-3,0,1
4036930588,-2,-1,-2,1,-1,0,-2,3
4036930588,-5,-7,-6,-1,4,3,0,-1
4036939531,-4,-1,-1,-5,-2,-5,3,-3
4036939531,-2,-3,3,3,-3,-2,-3,-2
4036961907,1,-1,3,-6,-2,-2,-6,-1
4036961907,-1,0,0,-1,-1,-2,-1,-3
4036963628,-1,-1,-2,0,2,-2,0,-1
4036963628,1,3,0,0,-2,-3,-2,0
4036968097,1,3,-5,-2,-5,0,1,-1
4036968097,-1,3,1,2,-2,2,0,-3
4036977089,1,0,0,-1,0,1,2,1
4036977089,-3,-2,-3,-4,3,0,-1,1
4036990529,1,-4,-4,-1,-2,1,-1,1
4036990529,-4,-6,4,-3,1,-3,-2,-2
4036999552,-1,-2,-3,-4,-3,-2,-3,4
4036999552,0,-2,0,0,2,-1,2,-5
4037014447,-1,-4,-5,-2,1,-2,-3,0
4037014447,-4,-1,-3,-5,-1,-5,-2,-4
4037016077,-1,1,0,-2,0,-4,-4,-3
4037016077,-1,-2,1,-6,-10,0,-3,2
4037028034,-4,1,-1,2,3,-4,1,-1
4037028034,4,-2,0,4,2,-3,-1,1
4037037067,-3,-3,1,-2,-2,-1,-2,-1
4037037067,-2,1,-2,-4,-4,-2,-1,-4
4037050522,-2,-3,2,-2,1,-1,4,-1
4037050522,-2,-2,-3,-8,-9,-2,-5,1
4037065521,-1,-2,-5,0,1,2,-3,-3
4037065521,1,3,1,0,2,4,-3,0
4037073716,0,1,1,-3,1,-3,-4,-1
4037073716,2,-1,2,-4,-1,-1,-2,-4
4037080548,-2,-6,-1,-5,-6,-2,-2,-1
4037080548,-2,-1,3,3,-1,-1,1,1
4037088055,-2,-9,-2,-3,2,2,4,-2
4037088055,-1,-1,0,-3,0,1,1,-1
4037097097,-2,-3,-4,1,-3,3,1,-4
4037097097,-3,-2,-4,0,0,-2,-2,-2
4037111659,-1,0,-3,0,-4,-3,-6,2
4037111659,-3,-2,-1,-5,-1,-3,-2,-4
4037119544,-1,-6,0,0,0,1,0,0
4037119544,2,-4,-2,1,-1,-2,1,-2
4037133762,-3,-1,2,-2,1,-1,0,-5
4037133762,-2,-1,-3,-3,-3,-2,2,-6
4037140583,5,4,3,3,-1,-3,-5,2
4037140583,-4,3,3,-5,-5,0,-1,0
4037156950,0,3,-1,-4,-4,2,-2,0
4037156950,1,-3,2,4,-1,0,-2,4
4037158507,1,0,-4,-4,1,-5,0,-1
4037158507,-4,0,0,-4,1,-1,-5,-4
4037170618,2,-4,3,0,-1,1,-2,-2
4037170618,1,-4,-6,-5,3,1,-2,4
4037179535,-2,0,0,1,3,0,-2,1
4037179535,-3,0,1,-2,-4,-2,-2,3
4037193756,2,-2,0,0,2,-1,-2,0
4037193756,-2,7,-1,-2,-7,-1,-4,-4
4037200617,3,-1,-2,0,2,0,-3,0
4037200617,-1,-2,-5,4,1,-1,2,-5
4037216958,-2,-1,0,-2,-6,-2,-1,-2
4037216958,-1,0,-3,-1,2,1,-4,-5
4037218543,5,0,-1,2,0,-1,3,-3
4037218543,-3,-1,-7,-3,-3,3,4,0
4037230615,-2,-4,-8,-5,-4,-2,-5,2
4037230615,2,-2,-2,-4,-4,0,0,0
4037239574,-2,-1,2,0,-3,2,1,-7
4037239574,0,-1,-2,-3,0,-1,-4,0
4037253813,-4,-4,-1,-4,-3,-3,-1,-5
4037253813,-6,-2,2,-2,-1,-2,1,-2
4037260557,-4,2,-6,-4,-2,0,-1,-3
4037260557,-2,-2,1,0,-6,-2,-1,-3
4037276881,-1,0,-3,-4,-3,-2,-1,-1
4037276881,2,-3,0,0,-5,-2,-4,1
4037278508,0,0,3,3,-6,-3,-3,1
4037278508,0,-3,-2,-5,-2,-2,0,4
4037290567,-3,1,1,-2,-7,1,3,-2
4037290567,2,-4,-2,2,0,3,3,4
4037299511,-2,2,-4,-3,0,1,2,-1
4037299511,0,-9,-5,-5,4,-2,-7,0
4037313727,3,0,-2,1,0,-1,1,2
4037313727,-1,-1,1,-3,0,2,-2,-5
4037320568,0,-2,2,-7,-3,-5,-6,0
4037320568,-1,0,-1,-4,-3,0,-3,-2
4037344403,-2,4,-3,-2,-1,-2,-4,-5
4037344403,-1,0,6,2,1,-4,-3,-1
4037346072,0,-6,0,5,2,4,3,0
4037346072,2,-1,-2,5,3,-6,0,1
4037350528,-2,2,-2,-1,2,-5,-2,1
4037350528,-2,0,-7,0,-2,-1,2,3
4037359552,-3,0,1,-4,0,-5,-3,-3
4037359552,4,-2,-1,-3,-2,-1,-1,1
4037373739,-3,-5,-1,-1,3,-1,-1,0
4037373739,1,-2,2,2,1,0,0,2
4037380509,4,0,-4,-4,-7,-4,0,0
4037380509,3,4,1,1,1,0,0,-4
4037396904,1,1,1,-1,-1,-5,-6,-2
4037396904,-3,-3,-1,-2,2,-1,4,-6
4037398488,-2,-5,-2,-5,-3,0,-4,2
4037398488,-1,1,5,2,0,-3,-1,-2
4037410569,-2,-6,1,-1,-6,-4,0,3
4037410569,-1,-1,-5,-4,-7,1,-2,-1
4037419515,-2,-1,0,2,0,2,3,-4
4037419515,-3,-1,-4,1,2,3,0,-2
4037433736,-2,-3,-1,-3,0,2,0,-3
4037433736,-2,-2,-3,-1,1,-5,-3,2
4037440578,-1,1,-2,-1,-1,-2,2,-6
4037440578,1,-2,0,5,-4,0,-1,0
4037456903,-3,2,0,-2,-5,3,-3,0
4037456903,2,-2,0,-3,-5,-6,-4,-1
4037458472,-2,-1,0,0,7,-4,2,-1
4037458472,-6,3,1,-4,-3,-3,3,-2
4037486941,5,-1,0,-6,-6,-1,3,-1
4037486941,-1,0,-4,-5,-5,1,1,3
4037488473,-3,-8,-5,-8,-2,-2,0,-1
4037488473,-2,-4,-5,-2,3,-1,-1,-5
4037493725,2,-2,-1,-1,0,1,-6,0
4037493725,-2,-1,2,-1,-4,0,1,-3
4037500565,-1,-1,-3,5,1,1,0,-2
4037500565,2,-3,0,-5,2,-2,0,1
4037516923,-3,-1,1,-4,-7,-2,0,-5
4037516923,-2,-3,-4,2,2,-2,-1,-2
4037518507,-1,-4,0,0,-3,-2,1,3
4037518507,1,-2,-1,-8,-6,-2,1,2
4037530583,-2,-4,-3,-6,0,-1,-1,-3
4037530583,2,-5,-4,-5,-4,-4,-3,-5
4037539658,-6,0,-2,-3,-1,2,2,-2
4037539658,-1,-1,0,-3,-1,2,-9,0
4037553822,-3,-3,-2,-3,2,3,-1,1
4037553822,-6,-1,0,-5,3,-3,3,-5
4037560581,2,-4,-1,-7,2,0,-5,-4
4037560581,-6,-5,-1,-3,0,-3,3,-3
4037576940,-4,0,-2,1,-2,0,3,-1
4037576940,2,0,-2,0,1,-2,0,-3
4037578539,3,1,3,0,-2,-3,3,2
4037578539,-4,1,-6,-8,-2,1,-1,-2
4037590584,1,-2,-3,-4,-2,-5,2,-1
4037590584,-4,4,-4,-7,-5,-1,-2,-1
4037599561,-7,-4,-4,-7,-2,-2,-1,-5
4037599561,-2,-2,-3,0,-7,0,-6,-1
4037613533,-5,-2,0,-4,-1,-8,0,0
4037613533,-1,-2,-1,-2,4,3,-3,-2
4037622089,0,0,-5,-6,-11,2,-7,1
4037622089,-3,-6,-2,-6,-4,-2,-4,-7
4037636860,-2,0,-3,4,7,1,1,-1
4037636860,1,-2,-1,2,-5,0,0,4
4037638518,-2,-1,4,3,-2,0,0,2
4037638518,-3,0,0,0,-4,-1,0,-1
4037650597,6,2,1,2,-6,0,4,-1
4037650597,0,0,-1,-6,-4,2,-3,0
4037659591,-2,1,4,2,-1,-7,-1,-1
4037659591,-3,-1,0,-3,-4,2,1,3
4037673778,0,1,-2,0,-1,2,-3,-4
4037673778,-5,-2,2,0,-2,-5,-2,-1
4037680549,-2,0,-2,-2,0,-2,-5,-6
4037680549,-3,-1,-4,-1,-4,-5,0,-7
4037696922,0,-6,-3,-7,-3,0,-5,-2
4037696922,0,-1,-4,0,4,3,2,3
4037698566,2,-4,-2,-3,-5,-3,-4,-2
4037698566,5,2,2,-2,-5,2,1,-6
4037711004,0,-2,-2,-2,-4,-2,-5,-2
4037711004,-3,-3,-3,-1,-2,-2,-2,1
4037719546,-3,-3,-6,-6,-2,-4,-3,2
4037719546,4,1,4,3,0,-1,0,-1
4037734119,3,-2,1,0,4,1,-4,-4
4037734119,2,6,4,4,6,-1,-2,3
4037742058,0,4,-2,1,0,-6,2,-5
4037742058,4,-4,0,-1,-2,0,1,-3
4037756893,-6,-2,0,-1,-8,1,-4,-1
4037756893,0,-4,1,-2,-4,-2,2,-4
4037758499,1,-4,0,0,-2,1,-2,4
4037758499,-3,1,-6,-3,1,-2,-3,0
4037770559,0,-1,5,2,-6,-4,5,3
4037770559,0,0,-5,-7,-6,-1,-3,1
4037779562,-2,-2,-4,1,-2,1,2,-1
4037779562,-1,4,-3,4,5,-1,1,2
4037793805,-3,-1,-4,-4,3,1,-1,2
4037793805,-3,0,-1,-4,-4,-2,-4,-6
4037800573,2,0,-2,-1,-4,-1,1,-3
4037800573,0,-2,1,0,-6,2,1,2
4037816962,-7,1,-2,-9,-4,-6,-4,-6
4037816962,-1,1,-1,-5,-7,1,-4,-2
4037818511,-2,-1,-1,-2,-4,-1,-3,-4
4037818511,1,-6,-1,1,4,0,-3,3
4037830549,-2,-1,-4,-3,1,1,2,-3
4037830549,2,-1,-2,-2,-1,2,0,0
4037839552,-1,-2,-1,5,5,3,2,3
4037839552,3,-2,-1,0,2,0,0,0
4037853737,3,0,-1,1,1,-3,-1,-1
4037853737,0,1,-3,1,0,-4,2,-1
4037860550,1,8,-1,4,-1,0,-3,-5
4037860550,-5,-5,-1,-9,-5,-4,-2,2
4037876951,2,1,-3,4,2,1,1,1
4037876951,-4,-1,0,-2,4,0,0,-6
4037878520,1,1,0,-6,-3,-5,-1,-3
4037878520,-3,2,-5,0,-4,-2,1,-3
4037890584,2,0,-1,0,-1,2,-2,4
4037890584,1,-2,1,-4,-6,-1,-3,0
4037899568,1,4,-1,-1,2,1,-2,1
4037899568,-1,2,2,-1,-2,0,-2,-6
4037913805,1,0,2,0,0,-1,-2,3
4037913805,0,-1,-2,0,-1,0,0,0
4037920603,0,-6,3,-2,-1,-2,3,0
4037920603,-2,-3,-4,-4,-3,-3,1,-3
4037936939,0,-7,-1,2,-2,1,-2,1
4037936939,-2,-2,2,1,-4,-1,-6,0
4037938549,-2,-7,-1,-4,-1,-5,-4,2
4037938549,-2,-1,1,2,0,1,2,-6
4037950543,0,-1,-1,-11,-7,-7,-2,-5
4037950543,-2,-2,0,3,0,1,2,2
4037959594,-5,-4,-3,-1,-2,4,0,3
4037959594,0,0,-3,-1,1,-4,-2,0
4037973784,0,0,-3,1,-1,1,3,-4
4037973784,1,-4,-8,1,2,-1,2,0
4037980592,0,-2,-2,-4,1,-3,0,-2
4037980592,0,-7,-7,-9,-7,1,2,0
4037996966,-6,-2,-4,-3,-6,-1,-6,-1
4037996966,0,-1,-2,-6,-5,2,-1,-4
4037998554,2,0,-2,1,-2,1,1,-2
4037998554,0,1,2,-7,1,1,-5,2
4038010618,1,-4,1,-3,-5,-2,-2,-8
4038010618,0,-1,-5,-2,0,-3,1,1
4038019576,-6,-2,-4,-1,-1,0,0,-1
4038019576,-2,1,1,-1,0,-6,-6,-1
4038033810,0,1,1,-3,-4,0,0,-1
4038033810,-2,1,5,2,1,-4,-6,-2
4038040595,-2,-5,2,-6,-7,-4,-2,-7
4038040595,-5,-2,-2,-4,0,-2,-3,-1
4038056279,0,1,-5,1,6,-4,-1,0
4038056279,-1,-3,-4,3,-3,2,2,1
4038063132,-1,-1,-2,2,7,2,2,4
4038063132,-2,1,2,-3,-4,3,-4,-5
4038070588,0,1,-2,-5,-1,0,-1,-3
4038070588,-1,0,5,3,5,0,2,-1
4038080207,3,1,1,1,-4,-1,2,-1
4038080207,3,-2,-1,4,3,-2,-4,0
4038093755,-2,-6,0,4,3,2,2,6
4038093755,-1,-4,-2,-3,2,2,0,0
4038100563,-3,1,-2,-3,0,-2,-4,-3
4038100563,0,2,0,-3,0,-7,-2,2
4038116316,0,4,-2,-3,-5,-2,2,-4
4038116316,0,-2,-6,-6,-3,-1,-3,-3
4038123095,-2,3,0,5,0,0,1,0
4038123095,-3,-1,-1,1,-4,-2,-1,2
4038130638,-3,1,1,3,4,1,-2,4
4038130638,3,1,3,-2,-8,-6,-4,-4
4038139570,-3,-1,-3,5,3,3,-4,0
4038139570,-4,-2,-1,-1,1,4,1,-1
4038153829,1,-2,0,2,5,0,4,-4
4038153829,1,0,0,-1,-2,-5,-8,-1
4038160534,0,2,-1,-4,2,0,-2,1
4038160534,1,-8,-2,2,0,-3,-1,-4
4038176241,-1,1,0,-5,-8,-4,0,0
4038176241,-5,2,1,-3,-2,1,0,1
4038183101,-1,-2,-3,-5,0,-3,-1,-4
4038183101,1,1,1,-6,-10,-4,-3,-1
4038199406,-4,-5,-5,-6,-1,0,-6,-4
4038199406,-1,0,-1,-1,0,-2,2,1
4038201081,2,0,-1,1,2,-1,-3,0
4038201081,-4,2,-1,-2,1,4,8,-4
4038213761,1,-3,-1,-2,0,1,-4,-3
4038213761,-2,0,-6,2,4,0,-2,-2
4038220506,1,-1,2,-6,-3,-3,-6,-1
4038220506,-2,0,0,-6,-7,-4,0,0
4038236281,1,3,0,-2,-4,-7,-6,-1
4038236281,0,-3,-1,0,-7,-1,1,-2
4038243174,-2,0,1,-2,-4,-2,1,-3
4038243174,3,-1,0,5,7,2,-2,4
4038259403,1,2,0,3,-1,-5,-2,1
4038259403,2,0,-2,-6,-3,3,1,-6
4038261036,-2,-6,-7,-5,-7,-1,-4,0
4038261036,0,3,-7,-1,-2,-2,-3,1
4038273843,-3,-1,0,0,0,1,-1,4
4038273843,2,-3,-4,-3,-5,-8,1,-3
4038280599,1,2,4,1,-3,3,1,-1
4038280599,3,3,-1,-5,-2,2,3,-6
4038304441,3,0,-2,4,-5,1,2,-6
4038304441,-6,0,-3,-2,-1,0,-4,0
4038306085,-2,-1,-3,-4,-6,-2,-2,-3
4038306085,-4,-7,-1,-3,-1,2,-1,2
4038319443,-9,-3,-1,-4,1,0,-2,0
4038319443,-3,-1,-1,3,0,0,-2,2
4038321087,3,-1,0,-5,-4,0,0,0
4038321087,-2,-6,-1,-1,4,-2,-3,0
4038333164,-3,-4,1,-2,-4,0,0,-5
4038333164,-1,0,-3,2,-2,2,0,3
4038342089,-4,-5,1,4,2,0,1,-4
4038342089,-1,2,1,1,-2,-3,-1,1
4038356319,-6,-4,1,-5,-2,-3,1,6
4038356319,-1,-2,2,-1,-1,0,-3,6
4038363152,-1,-2,-2,-2,2,2,1,1
4038363152,-4,0,-5,-5,-8,1,-2,0
4038379479,-2,-2,0,-10,-2,-1,-4,-3
4038379479,-2,-3,0,-13,-7,-4,-6,-6
4038381078,-6,-4,-2,0,-4,0,-1,3
4038381078,-3,-7,-1,-1,2,0,-2,2
4038401947,5,1,1,5,0,2,3,2
4038401947,2,-2,0,-8,-6,-7,1,-3
4038403500,2,2,1,1,1,2,-2,-2
4038403500,-1,3,3,-1,-3,-1,-2,3
4038416290,-1,-2,-4,-2,-4,1,0,-3
4038416290,-1,1,1,-1,1,2,-2,1
4038423110,0,2,0,2,-1,0,-1,-1
4038423110,-1,-1,-3,-6,-2,-2,-3,-5
4038439609,-2,-3,1,-4,-5,-5,-3,1
4038439609,-6,-3,-5,0,3,3,2,0
4038441066,3,-4,0,-4,-4,-5,1,2
4038441066,2,-1,-2,0,0,0,-2,3
4038453104,-5,-2,-8,1,4,1,0,-1
4038453104,-1,-3,3,0,-2,1,-6,-1
4038462078,-3,2,-1,-5,-5,-7,1,-2
4038462078,2,-2,-1,0,2,4,0,-5
4038476248,0,2,-4,-1,1,1,-5,-4
4038476248,-1,5,5,9,5,1,4,2
4038483099,-5,-4,-2,1,-2,1,2,-3
4038483099,1,4,0,2,-2,-6,-3,-2
4038499407,1,-2,-1,1,3,-1,-1,0
4038499407,0,-1,-3,1,7,-3,2,-1
4038501071,-2,-8,1,0,2,1,0,0
4038501071,0,-5,-1,0,-2,1,1,-4
4038513116,0,-1,-1,2,-6,0,-4,-2
4038513116,-4,-7,-4,-1,1,3,0,-2
4038522091,4,4,-4,-4,-2,-2,-1,-1
4038522091,-1,-4,2,2,-2,-1,0,-2
4038536226,5,-2,1,1,-1,-4,5,-1
4038536226,-4,2,2,3,4,-2,8,3
4038543082,-4,-1,-2,6,10,3,0,-1
4038543082,-6,-7,-1,-6,0,0,0,-1
4038559488,-2,-2,2,-4,-2,0,-2,-3
4038559488,0,-1,2,2,0,-6,1,-4
4038561087,2,-1,0,-2,1,-2,-1,-1
4038561087,0,0,-2,3,-4,-1,1,-1
4038573100,-2,1,-2,2,1,3,3,-2
4038573100,2,0,1,1,-3,-2,-2,2
4038582066,2,1,0,-3,-6,-4,-3,1
4038582066,-1,1,1,-1,0,0,-1,-1
4038596303,-3,-1,-6,-3,2,1,0,0
4038596303,0,-1,0,4,4,4,-2,3
4038603097,1,-3,-2,-2,2,2,0,1
4038603097,1,-2,-2,0,-3,0,4,0
4038619447,-2,0,4,1,3,1,1,-2
4038619447,-1,-1,0,-4,-4,-5,-5,1
4038621125,-1,0,-1,1,2,1,-1,-2
4038621125,-1,1,0,-1,1,-2,2,-1
4038633156,2,-5,0,1,-4,0,0,-2
4038633156,3,1,0,7,-2,4,5,-1
4038642126,0,0,2,-6,-8,-2,-4,-3
4038642126,-3,-7,-5,-1,3,-3,-2,0
4038656738,-4,2,-2,-1,-5,-2,-4,3
4038656738,-6,-2,-5,-5,-3,-3,-5,-1
4038664578,-3,3,2,-1,-6,-2,4,2
4038664578,-3,0,-2,-1,-2,2,0,-3
4038679431,-3,-5,0,-5,2,-3,-1,0
4038679431,2,-4,-7,-7,-9,-3,-1,-7
4038681095,-2,2,-3,-2,-1,2,-1,-3
4038681095,2,-3,-3,-1,0,0,-2,3
4038693173,3,1,1,4,-2,1,1,-1
4038693173,-1,0,1,3,2,-1,3,-1
4038702092,0,1,3,2,-6,1,-1,-2
4038702092,-1,0,-2,-3,-1,1,3,-1
4038716311,-4,-2,-3,-3,-3,-2,-4,1
4038716311,-1,1,-1,-3,-6,-2,-5,0
4038723109,-4,-6,-2,-1,0,-1,1,-3
4038723109,-6,-2,-2,-5,-4,-3,-3,0
4038739985,-1,0,2,-4,-2,-1,-2,1
4038739985,0,-4,2,-5,2,-4,-3,-6
4038741522,-1,-4,2,4,4,-2,-1,-2
4038741522,2,-4,2,2,-1,-3,1,0
4038753084,2,-1,-1,-1,7,-3,5,-2
4038753084,-4,-3,-2,-4,0,0,-5,-5
4038762086,2,0,-2,-1,2,-5,-4,-2
4038762086,0,2,-1,-3,1,-5,-1,0
4038776290,-4,-1,-2,0,-1,-1,2,1
4038776290,2,-1,1,0,2,2,1,-2
4038783139,0,-7,-1,-4,-5,-7,-2,1
4038783139,-2,0,0,-3,-6,-2,-3,-1
4038799464,1,-1,0,-1,-4,-2,2,-1
4038799464,-2,-1,0,-7,-7,-3,0,-1
4038801070,0,0,-2,-8,-8,-6,-4,-1
4038801070,-5,-1,5,2,1,-2,-4,-4
4038821978,0,-7,1,-8,-2,-5,-5,0
4038821978,-2,0,1,-4,1,-3,-2,0
4038823601,-3,-3,-2,3,3,-2,0,0
4038823601,-4,-2,2,-1,-4,-3,0,0
4038836320,-1,0,0,1,4,1,1,1
4038836320,0,-4,1,1,1,0,-2,-1
4038850607,-2,-1,-3,-1,3,0,3,-4
4038850607,-2,0,0,-5,-4,0,-5,-2
4038859404,2,2,0,0,-3,1,-2,0
4038859404,-1,1,-1,1,-2,0,1,0
4038861075,-3,1,0,1,1,2,3,1
4038861075,0,0,3,0,3,-1,-3,-2
4038873098,1,2,-2,-1,-1,0,-5,-4
4038873098,1,-6,-2,-1,1,1,0,1
4038882069,-2,-3,-3,0,-2,-2,-6,-2
4038882069,-3,-3,-4,-4,-2,-2,3,-3
4038896224,-2,-2,-2,-9,-4,-2,0,-2
4038896224,0,-4,0,-3,-3,-5,-7,2
4038910594,0,-4,-4,-2,5,2,-7,-3
4038910594,0,2,-4,0,-2,-1,0,0
4038926935,-1,3,1,1,-4,-3,-1,-2
4038926935,-1,1,0,1,-2,0,1,-5
4038928520,-4,-5,2,-5,-8,-3,1,1
4038928520,2,1,-1,-5,-4,-1,-1,-2
4038933079,-2,-4,-3,0,-4,2,-4,0
4038933079,0,-1,-4,1,-1,-3,0,-5
4038942070,1,-1,-5,4,-3,-2,-3,5
4038942070,-2,3,-2,1,-2,-4,-2,-1
4038956280,0,-5,-2,-2,5,0,1,1
4038956280,-1,0,-1,-3,-1,0,0,0
4038963090,2,0,-5,-4,1,2,-1,0
4038963090,1,-3,2,4,1,2,4,1
4038978775,1,1,0,1,-3,-2,0,0
4038978775,-3,-2,-2,-3,-4,-1,-8,0
4038985556,0,-1,-2,0,2,4,-6,-1
4038985556,3,-2,1,1,-3,0,-2,1
4039009465,-2,0,1,3,-1,0,-2,1
4039009465,-2,-5,0,-1,-3,-3,-1,4
4039011080,-3,-1,-2,-5,-4,-2,1,-2
4039011080,3,-2,-4,-2,2,-7,-2,-2
4039016303,-1,1,-2,2,-2,0,3,0
4039016303,3,3,1,-2,-10,-3,1,-1
4039023090,2,3,3,4,-1,-2,-2,0
4039023090,-2,0,-4,-1,3,1,-1,0
4039038821,-3,-5,1,-6,-4,-2,-2,-2
4039038821,3,2,-4,-1,5,1,2,-1
4039045590,3,-1,0,2,-5,4,3,0
4039045590,2,-2,-2,-4,-9,1,-1,2
4039061970,1,1,0,1,2,-3,-3,-2
4039061970,-1,2,0,4,1,1,1,-3
4039063602,0,4,-4,0,1,-5,-1,0
4039063602,-1,4,1,-1,-3,-2,0,1
4039076305,-1,-4,-3,-2,-5,0,0,-3
4039076305,-1,-4,-4,1,3,0,-1,-1
4039083125,3,-2,1,-4,-7,-6,0,-4
4039083125,-3,-1,-2,-3,4,-3,-1,-4
4039098779,0,1,1,-2,-8,-2,-5,-1
4039098779,-2,7,-1,7,3,1,3,-2
4039105617,0,-3,-1,-1,-4,-4,-1,4
4039105617,3,-4,0,-1,1,-1,-3,0
4039121948,0,-2,0,2,0,-2,4,-3
4039121948,-2,-3,-1,-7,2,0,-2,-2
4039123575,-4,3,1,-4,0,-3,-2,-3
4039123575,1,1,-1,-2,-2,-1,-2,2
4039136301,-2,-1,-2,0,0,-3,-3,1
4039136301,0,1,-1,-2,0,0,-3,-3
4039143124,0,-1,2,1,0,6,-2,-2
4039143124,-4,-5,-5,-7,0,2,3,0
4039159346,-1,-2,-8,-10,-2,-6,0,-2
4039159346,-1,6,1,-6,-6,1,-1,1
4039165652,-3,-3,1,-2,-2,-6,1,-2
4039165652,-2,0,-2,2,-3,1,-3,-1
4039181994,-1,0,1,0,-4,3,-3,-1
4039181994,-3,-5,-2,1,2,-4,-5,-4
4039183548,0,0,0,-1,-1,-4,-3,-2
4039183548,2,0,-2,-1,-1,-5,-4,1
4039196309,-1,0,-4,1,-3,-2,3,2
4039196309,-2,-1,-1,2,0,-6,0,-2
4039203127,2,-3,-1,2,-2,2,2,-2
4039203127,-6,-2,-1,-7,-3,-2,-9,-5
4039218781,-2,-3,1,-5,3,0,-1,3
4039218781,0,-1,-5,-1,-7,2,-2,-4
4039225581,-7,-1,-4,-3,-4,3,-1,-8
4039225581,1,-4,2,2,-7,0,2,1
4039241730,2,4,-1,2,4,-1,2,-2
4039241730,1,-3,-1,-6,-6,2,-3,3
4039248101,6,2,-1,1,0,-2,-3,1
4039248101,-2,-1,3,-3,-3,-5,-5,-6
4039256269,1,-2,-3,0,5,-1,-4,-1
4039256269,2,-6,-5,-1,2,2,1,-1
4039263097,-3,-3,-2,3,4,0,2,-3
4039263097,-1,-1,-1,6,4,4,-2,4
4039278746,0,-1,-3,2,3,5,-1,4
4039278746,-5,-7,3,-3,-2,0,4,3
4039285565,-2,-3,2,3,2,-1,-1,3
4039285565,-1,-6,-3,-5,-5,-4,-4,-2
4039301901,1,-5,1,-8,-5,-5,-6,-9
4039301901,-1,-1,-2,5,1,-1,-2,5
4039303516,-1,1,-5,-5,1,-1,-4,-4
4039303516,-3,-4,3,-4,-5,-1,2,-2
4039331920,-3,-5,0,-4,-3,-3,0,1
4039331920,3,3,5,1,-7,-4,-3,-1
4039333512,-1,2,0,2,1,0,2,2
4039333512,1,0,3,2,2,1,0,-5
4039338797,-1,-2,0,0,-5,-2,-3,-2
4039338797,0,2,-1,-4,3,-2,1,0
4039345560,-2,2,1,-6,0,-3,-3,-3
4039345560,0,4,1,3,3,-2,2,-1
4039361947,-1,1,3,1,-3,-1,4,-1
4039361947,1,-3,1,0,0,-2,1,3
4039363521,-3,-6,-3,-4,-1,0,0,-2
4039363521,0,-2,-10,-4,-4,2,-1,2
4039375607,0,1,-1,-3,-2,-4,-1,-1
4039375607,-9,-4,0,-5,-1,-5,-3,-4
4039384542,-2,2,1,4,1,1,0,3
4039384542,1,2,1,-3,-3,1,0,-4
4039398789,-5,0,-5,-2,-5,2,-1,-1
4039398789,-4,-3,-2,-3,-2,-1,-5,0
4039405607,-1,-6,-3,-4,0,-4,-7,-1
4039405607,-5,-4,0,-2,2,-3,-1,-2
4039422009,-1,0,3,-1,0,-3,-5,-3
4039422009,7,3,-2,2,0,1,1,-1
4039423627,-2,-2,4,-2,-2,0,-1,0
4039423627,0,-3,-1,0,2,-2,-4,-2
4039435668,-4,-1,-2,-4,-2,0,-2,-2
4039435668,-4,0,-2,0,2,0,5,-6
4039444629,0,-4,1,0,-1,-1,-3,-1
4039444629,-4,1,-3,0,-1,3,1,3
4039458794,-1,-2,2,6,6,2,-2,-1
4039458794,0,-5,1,-4,-3,0,-3,-4
4039465593,1,-4,0,3,-2,-1,2,-1
4039465593,1,1,0,0,2,-3,-2,-2
4039482003,0,-4,0,1,-1,-1,-2,-1
4039482003,3,-3,-1,5,2,-3,-3,2
4039483557,2,1,-2,-2,-4,-1,-1,-2
4039483557,-2,1,-1,-2,0,0,-6,1
4039495653,0,-1,-1,-4,-2,-3,-3,-4
4039495653,2,2,-1,-5,-4,-3,-1,-3
4039504585,-5,-3,-1,-4,-4,4,3,-1
4039504585,-2,-1,3,2,1,0,0,0
4039518832,-4,-2,-5,0,-1,2,1,4
4039518832,2,-6,-2,-5,-3,2,0,0
4039542598,-3,1,-2,-2,-3,-2,0,-1
4039542598,2,-2,-2,1,0,-3,-1,-2
4039543423,-1,1,3,-3,-5,-4,3,-4
4039543423,-3,-7,1,0,1,-2,-2,3
4039545061,-4,-5,0,-7,-4,2,-8,2
4039545061,2,-2,-1,2,1,2,5,-2
4039555628,-1,-1,1,-6,-2,3,0,-2
4039555628,-2,2,-4,-1,-4,-1,-3,-4
4039564591,0,-2,-2,-2,-2,-1,0,-2
4039564591,-2,-1,-6,-6,-5,-3,-2,3
4039579220,-1,-1,0,0,2,2,-2,2
4039579220,-2,-3,2,1,0,0,-1,-3
4039587096,-1,-3,-3,0,0,-4,-1,-1
4039587096,-3,0,-3,-5,-8,-2,1,-2
4039601268,-2,0,-2,0,-6,-2,0,-5
4039601268,0,1,-1,-2,-7,-1,3,-1
4039602119,-1,-4,0,0,-4,0,0,0
4039602119,-4,-1,-6,-3,-3,-2,-2,-4
4039623756,0,-1,2,2,0,-1,0,1
4039623756,-2,3,-1,4,2,4,1,3
4039624632,-3,5,-2,-2,1,-1,-2,-3
4039624632,-1,-2,3,-3,3,-4,-6,0
4039639580,-3,0,-2,-6,-8,-2,-5,1
4039639580,0,0,-1,-1,-3,-7,1,-1
4039645607,-2,-2,-5,-1,0,0,5,1
4039645607,1,-5,-1,1,1,3,-2,-3
4039661259,1,0,-1,2,0,-4,-1,-3
4039661259,-1,-3,-2,-2,-4,-3,-4,1
4039662121,0,-3,-3,-8,-5,-4,-1,-4
4039662121,2,2,4,-1,0,-3,-1,-1
4039683846,2,1,-3,5,4,0,3,4
4039683846,2,-6,-2,2,-3,1,1,2
4039684585,1,-5,-1,-2,4,-5,-4,0
4039684585,2,-2,-1,2,-1,-2,1,0
4039707770,-2,0,0,-2,1,-2,0,0
4039707770,-5,2,-2,-1,5,1,3,-1
4039708620,2,-2,-5,-3,-6,-4,-4,3
4039708620,4,-3,-1,1,-1,-2,1,3
4039721292,0,-1,-2,3,0,0,-1,-3
4039721292,2,-1,2,-1,1,2,-3,-2
4039722132,0,-2,-1,-4,-4,-2,1,-2
4039722132,-6,0,2,3,-3,-2,1,-1
4039743754,0,-1,-1,-1,0,2,0,1
4039743754,-1,-2,-6,-5,0,-3,-6,-4
4039744538,0,1,0,6,-1,0,-3,-2
4039744538,-3,-3,-5,-4,-2,1,-1,-3
4039759595,-3,0,0,-4,-8,-5,-1,-2
4039759595,-5,-2,-2,-4,-2,0,-2,1
4039765605,-3,3,5,3,5,-2,-2,-4
4039765605,1,-4,-3,-5,0,-4,-3,0
4039781261,3,-1,0,0,1,4,0,0
4039781261,0,0,2,0,0,-2,2,2
4039782066,-1,2,4,-5,-5,-4,-2,0
4039782066,0,0,0,-1,0,0,1,-2
4039803745,-1,-1,1,1,3,0,-4,-5
4039803745,-7,-1,2,1,1,4,-1,2
4039804515,-4,2,-2,-1,-2,-3,0,1
4039804515,0,0,0,0,2,-2,-3,-3
4039819573,-1,-3,-2,-1,-1,-3,-4,-2
4039819573,4,4,0,5,-1,0,-1,-2
4039825557,-6,0,2,-1,-4,-1,-5,2
4039825557,-1,-3,2,1,3,-2,3,1
4039842727,2,-3,-2,0,-2,-5,-1,0
4039842727,1,-2,1,1,3,-6,-4,-1
4039843570,-2,-3,-5,-5,0,2,-6,-3
4039843570,-7,4,-7,-1,-3,-2,-2,-2
4039863818,-5,1,-2,-2,-3,-1,-4,-2
4039863818,-1,-3,-2,-1,-2,-1,0,-1
4039864551,2,-3,3,4,3,-1,1,0
4039864551,-3,-4,1,-6,-6,-2,-3,-4
4039879616,0,0,0,2,1,-1,1,0
4039879616,1,3,-1,-4,-2,-1,-1,-4
4039885606,-5,-1,-2,1,3,0,0,1
4039885606,3,6,-2,-1,-4,-1,-1,0
4039901298,2,0,-2,-2,5,-2,-1,-3
4039901298,-1,-1,2,-3,-6,1,-5,5
4039902070,3,-2,2,1,2,0,1,-1
4039902070,2,-2,-4,-1,4,2,2,1
4039923944,-2,-3,0,1,-4,-1,-1,5
4039923944,-1,-2,-1,1,2,1,-2,1
4039924608,2,-5,-2,-5,-3,3,0,-1
4039924608,0,-2,3,-3,-9,-3,2,0
4039939751,-8,-4,2,-1,0,-1,-2,1
4039939751,-1,-3,0,0,-1,2,-2,-6
4039945773,0,0,-6,3,4,0,-1,0
4039945773,0,-1,0,4,-2,-1,-3,-1
4039960675,0,-3,-2,-4,-3,-2,-1,-2
4039960675,0,-3,1,4,4,-1,3,-3
4039968240,-2,3,-3,2,0,1,1,-4
4039968240,-5,0,-5,1,2,0,0,2
4039991461,4,0,-1,1,-1,-1,-2,0
4039991461,-6,0,1,-1,-5,-3,-4,-2
4039992086,0,1,-2,0,1,2,0,-5
4039992086,-1,-2,-2,3,6,1,-1,5
4039999654,-1,1,0,-5,-3,1,-4,3
4039999654,-2,0,-7,1,-2,-1,0,-1
4040005640,-2,2,-5,-3,-6,-2,0,-2
4040005640,0,-1,4,2,-3,-2,-6,-3
4040020723,-2,-2,-4,-4,1,4,1,-4
4040020723,6,-1,-1,-7,-4,-4,2,-1
4040036352,1,1,2,2,0,-2,-1,-1
4040036352,-5,-2,-6,-5,-5,-2,-1,-5
4040043877,-5,-1,-2,-3,2,-2,0,2
4040043877,1,-5,3,1,4,-1,-4,-1
4040044635,-3,-4,3,-5,-3,-1,3,2
4040044635,2,-1,-1,-4,-4,0,1,4
4040059747,0,-1,1,-1,0,-4,-1,-2
4040059747,-5,-1,-3,-3,-4,-1,-1,-2
4040065788,1,-6,-3,-3,-3,1,2,-1
4040065788,-1,-4,0,-1,2,-1,-1,-2
4040080833,-4,-1,-4,0,-4,2,2,-2
4040080833,-3,6,-4,0,-4,3,0,3
4040088138,2,2,0,-2,1,-2,-3,-2
4040088138,-2,-1,-3,-4,-2,2,-2,1
4040112501,2,-2,1,1,2,3,-3,-1
4040112501,-1,1,-6,-6,-2,-3,-7,-2
4040119468,-4,-4,2,-1,0,-1,-2,1
4040119468,-1,2,2,1,1,-2,-5,-3
4040121060,2,5,-1,1,-4,0,-1,-2
4040121060,-2,-4,4,1,-4,-5,-2,1
4040125619,0,-2,3,0,-2,1,-2,3
4040125619,-3,3,-4,-2,3,0,4,-2
4040140629,-2,-1,2,0,-2,-3,-2,6
4040140629,-1,4,5,3,-1,2,2,2
4040148128,0,-1,-5,4,1,2,-5,-2
4040148128,-2,-4,0,1,0,5,-3,-1
4040163744,0,3,-1,3,-2,0,2,0
4040163744,-2,1,-1,1,4,4,-4,0
4040164536,-4,2,-2,-1,5,-3,-1,-1
4040164536,-6,-3,-1,-1,-1,1,-1,-4
4040179621,6,-1,-3,1,-3,2,-1,-1
4040179621,-5,-1,4,5,5,-1,1,-3
4040185612,2,0,2,-5,-2,0,5,-3
4040185612,5,6,-3,0,2,-7,-3,3
4040200598,-5,-1,-2,1,4,-2,-1,2
4040200598,3,-4,-5,-1,-8,-1,5,-1
4040208108,-1,0,-4,-4,-4,-6,-5,-6
4040208108,-3,0,-5,-3,-3,0,1,-5
4040223761,-3,0,-4,-7,-5,-5,-6,-4
4040223761,2,1,-9,-6,3,-2,-1,-1
4040224567,-3,-4,0,-1,-3,1,1,1
4040224567,2,-2,3,-7,-6,2,-4,-4
4040239572,2,-4,2,4,-1,6,-2,-1
4040239572,-1,2,-3,-2,-1,-1,0,-1
4040245651,0,-4,-3,-5,-1,-2,2,2
4040245651,-3,-1,-2,-2,0,-5,0,1
4040260643,-4,-7,-6,-6,-1,0,3,-2
4040260643,-1,-2,1,-3,-3,-2,-5,-1
4040268137,-1,-3,-4,-1,2,1,-2,0
4040268137,2,2,-2,3,3,1,1,0
4040283760,-2,2,-2,-2,0,-7,3,-4
4040283760,-1,4,-5,0,0,0,-4,4
4040284548,-1,2,-1,-1,-3,-3,-3,-1
4040284548,0,-3,-3,-5,-6,3,-5,-2
4040299581,5,5,3,0,1,-1,-6,-3
4040299581,-1,-4,2,-5,-1,-4,-4,-2
4040305714,2,1,3,2,-3,3,-4,-2
4040305714,0,-2,0,1,0,-1,-4,-2
4040320677,-1,-1,-7,-1,-3,-3,-2,0
4040320677,-3,-5,1,-4,-1,4,0,-3
4040328294,-1,0,-3,-5,-2,-2,-3,-4
4040328294,3,-1,1,-5,-6,-3,3,-3
4040343878,-2,-2,-2,-6,-3,2,-1,2
4040343878,-4,1,-5,2,-1,-2,2,-3
4040344642,-2,-4,-1,5,-3,-4,1,-4
4040344642,0,3,2,3,3,4,0,1
4040359639,-1,0,2,-2,-4,-6,0,1
4040359639,3,2,2,0,-6,2,1,-1
4040365781,-1,-1,1,-2,-3,2,3,-2
4040365781,-5,-4,3,-5,0,-5,-1,-1
4040380731,-7,-7,-4,1,2,7,1,-3
4040380731,2,-2,-2,-5,-1,-2,-4,-6
4040388307,-1,2,1,-3,-2,-6,0,0
4040388307,-4,-1,-2,-1,2,-6,-1,3
4040403876,-4,0,2,-5,-7,-1,-4,0
4040403876,2,-4,-4,-2,1,-2,-1,4
4040404591,0,0,0,2,2,-4,-1,0
4040404591,-1,-1,-4,0,-2,-3,-2,-4
4040419642,1,-1,3,4,-1,-2,0,0
4040419642,-2,-1,-5,-2,-3,-1,-2,-1
4040425819,5,0,2,3,3,0,-4,3
4040425819,-3,-3,0,7,-1,-3,3,0
4040440788,-3,-1,-4,-3,-1,1,1,-2
4040440788,-1,-4,-5,-7,-7,-2,0,0
4040448216,-1,4,1,2,-2,3,0,-2
4040448216,2,0,-4,3,-1,5,-2,-2
4040464048,-1,1,-3,-3,-3,0,-1,-4
4040464048,0,4,6,-4,-2,-4,0,0
4040464723,-5,-6,-7,-4,-5,2,-1,-3
4040464723,2,2,0,2,1,-1,-1,0
4040487749,2,-4,-1,-1,0,-5,-2,-4
4040487749,2,-1,4,5,2,-5,-6,2
4040488577,-2,2,-1,-1,-2,-4,0,-1
4040488577,0,-5,3,0,-2,1,2,-2
4040502076,2,-4,2,-1,3,-2,-1,3
4040502076,-2,-2,-2,-1,-4,-1,5,-5
4040508089,1,-3,-6,2,-4,-1,3,2
4040508089,-3,-6,-6,-3,-1,-3,2,1
4040523766,0,0,1,5,2,-1,0,-1
4040523766,-3,-3,-1,6,7,1,3,-1
4040524529,-4,-2,0,2,-1,0,-1,0
4040524529,0,2,-7,-2,1,1,0,0
4040539591,3,4,2,4,0,-1,-4,2
4040539591,-4,0,-2,4,3,4,2,2
4040545562,-4,0,-1,-2,1,-1,0,3
4040545562,3,-2,-3,-2,-1,-4,3,-2
4040560588,-3,-3,-1,-5,0,-1,-3,0
4040560588,1,4,0,-2,-3,-2,-6,-2
4040568110,0,-1,-1,-6,-4,-4,0,-6
4040568110,-2,-1,6,5,0,-1,2,-4
4040583780,2,2,-1,2,-2,-2,-1,-1
4040583780,-1,-2,-3,0,-2,-1,-1,-1
4040584543,0,-2,3,-5,0,-2,-8,-1
4040584543,1,-4,-2,-6,-4,-3,1,-6
4040599607,-5,-2,-5,-5,-4,4,5,-9
4040599607,-4,-1,-3,-7,-2,-2,1,-2
4040605610,-3,2,-7,1,3,3,0,3
4040605610,-4,2,-3,-1,1,-2,-5,-3
4040620613,1,2,1,4,5,0,-4,3
4040620613,-4,-6,-4,-4,1,-2,3,-1
4040628091,-7,-1,-5,-5,2,-4,-1,-7
4040628091,0,-2,-1,-3,-3,3,-1,0
4040643778,-2,-1,-4,-8,-2,-3,-4,0
4040643778,-1,-1,3,-5,-9,1,-6,0
4040644573,3,-2,-1,0,-2,-2,-4,0
4040644573,-1,-1,0,0,-4,1,0,-3
4040659766,1,3,0,-7,-4,-5,1,-4
4040659766,1,1,-1,-1,-7,-3,-5,-2
4040665650,-4,-3,-4,-1,1,-3,0,1
4040665650,1,3,-2,2,0,-1,-7,2
4040680727,1,-5,1,-3,-3,2,2,0
4040680727,-1,-1,-1,-3,-2,0,-2,-3
4040688309,1,-3,-4,-4,-1,0,-3,-3
4040688309,-4,-5,-3,-7,1,0,-4,-1
4040703856,-2,-5,-1,1,6,-1,-2,1
4040703856,-1,0,-4,-2,0,-6,-2,-8
4040704588,1,-3,-3,0,-1,-3,3,-1
4040704588,-2,1,0,-2,1,0,0,-2
4040719660,-1,-1,-2,-3,-4,-2,-3,0
4040719660,-1,-2,0,5,3,-1,1,1
4040725754,-4,1,5,5,1,0,1,-2
4040725754,1,-1,0,0,-1,-4,2,1
4040740696,-1,3,-2,6,6,1,-1,-1
4040740696,1,-4,-2,-2,3,2,3,5
4040756520,-3,-1,-3,1,4,-1,0,0
4040756520,-6,0,2,-6,-3,-1,-5,1
4040763831,-1,-4,0,0,-1,-1,1,-4
4040763831,-3,1,0,1,4,3,-4,0
4040764665,-5,1,-4,1,2,0,0,-5
4040764665,-1,2,1,3,-2,3,0,-1
4040779680,-2,-2,-1,2,0,-5,1,-2
4040779680,2,-2,1,8,5,4,0,1
4040785680,5,-1,3,-2,-3,-2,0,0
4040785680,-1,0,-1,-1,-4,0,0,-4
4040800755,1,2,-2,-1,-4,-3,-6,-2
4040800755,0,-1,-2,0,-3,0,-2,-1
4040808243,-2,0,0,0,0,-1,-3,1
4040808243,0,-5,4,-1,1,-3,-2,2
4040823943,2,-1,-3,-2,-2,-2,-1,-3
4040823943,-3,0,-4,-5,-2,-3,-1,-3
4040824700,5,-1,0,-5,-6,-2,-3,-4
4040824700,1,-2,-3,-3,-2,1,-2,-3
4040839678,-6,-5,0,-6,1,1,-1,-4
4040839678,5,2,-1,3,5,1,5,-1
4040845701,-2,-2,3,1,-3,-1,1,2
4040845701,-5,0,-4,6,3,-5,-3,-7
4040860896,-6,-1,-5,-8,-4,-2,-6,-3
4040860896,-4,-1,3,-2,-6,-4,-3,2
4040868190,0,-1,2,-1,-3,3,-6,2
4040868190,5,3,1,-2,6,-1,-2,1
4040883269,-3,-1,3,1,-1,1,1,-1
4040883269,0,-1,3,5,2,-2,-2,-2
4040890783,-1,0,-4,0,-1,1,-1,-3
4040890783,-1,-1,0,-3,0,0,-4,1
4040914530,5,0,-3,0,0,1,-2,0
4040914530,-1,0,-1,1,2,-1,-3,-2
4040915451,5,1,1,6,0,2,2,-1
4040915451,-4,-4,-3,3,-2,0,3,-1
4040920758,0,-3,1,5,-2,5,3,-1
4040920758,0,-4,-4,0,-5,-3,-2,-3
4040928152,0,-2,-1,0,2,-3,-5,-1
4040928152,1,1,-1,-2,-2,-5,-3,-1
4040943157,2,-1,0,1,-3,0,-4,5
4040943157,1,3,1,-2,-2,2,1,-1
4040950774,2,-1,1,-3,-2,1,-1,1
4040950774,0,-3,1,1,-7,-2,-1,-2
4040959703,-2,-1,2,1,-9,-3,3,0
4040959703,2,0,1,1,4,-1,-3,2
4040965867,-2,-5,-1,-1,2,0,1,-3
4040965867,6,-1,-1,-1,-5,0,3,-2
4040980697,-3,-3,-4,-7,2,-5,-4,2
4040980697,-5,-3,-3,-6,-5,3,2,-3
4040996407,2,-1,-2,-5,-3,-3,0,2
4040996407,-2,-5,-1,-1,2,3,0,-1
4041003130,1,-1,0,2,4,-2,3,-6
4041003130,-6,-5,-2,-8,-4,-3,-3,1
4041010666,-1,2,-2,-2,-3,-2,-7,0
4041010666,-4,-3,0,-7,-7,-7,-4,-2
4041027860,0,1,-5,-4,-6,-5,-1,0
4041027860,-2,-3,-2,-5,3,-2,-2,-3
4041028603,1,-4,3,-4,-2,-5,-1,-2
4041028603,2,-3,-3,-5,-4,0,2,3
4041040762,-1,2,2,-4,-3,-4,0,-2
4041040762,-2,-1,-1,-1,-4,-1,-3,-4
4041048291,-9,-1,-2,-1,-3,-1,-5,-1
4041048291,-1,4,-3,-4,-1,-1,1,0
4041071289,2,-5,1,-2,3,-1,-3,1
4041071289,-2,-2,-4,-1,-4,-2,1,-3
4041072112,-1,-1,-1,-6,-4,-7,-3,1
4041072112,-1,-2,-6,-9,-3,-1,-3,-2
4041087860,-4,-1,-2,-4,-2,-1,1,-3
4041087860,-2,2,0,-3,0,0,2,4
4041088596,0,-1,-7,0,-3,0,2,0
4041088596,0,4,3,1,1,1,-4,0
4041100705,0,-1,2,1,3,0,-1,-2
4041100705,-1,-7,-4,-3,-3,-1,-1,-3
4041108295,-2,-2,-1,-1,2,0,-1,-3
4041108295,-3,1,-3,2,2,1,-1,2
4041123328,-4,-6,-4,-2,-1,0,-1,-1
4041123328,2,3,2,-2,0,3,0,-1
4041130709,-2,-1,0,5,6,0,-1,-4
4041130709,0,-3,-1,-3,-5,-1,-3,-8
4041146369,0,0,0,2,3,0,-5,-2
4041146369,-3,1,-3,-5,-1,1,-1,-1
4041147096,1,-3,-4,-9,-4,3,-3,0
4041147096,0,-5,0,-3,-1,-4,2,-3
4041160886,5,0,0,1,-1,-4,0,-3
4041160886,3,0,-6,1,3,0,-1,0
4041168212,-5,1,-2,5,0,0,3,-2
4041168212,-1,2,0,-1,0,0,3,1
4041183109,-2,0,-2,-8,-8,-3,2,-2
4041183109,-1,2,-1,2,-4,-5,-1,-5
4041190652,6,-3,0,-4,-7,-2,1,-6
4041190652,-2,-3,-2,-5,-4,1,0,-3
4041206331,-1,3,1,-2,1,3,-3,-4
4041206331,3,-2,0,1,1,4,-2,-2
4041207057,1,2,-3,-1,1,4,1,-2
4041207057,-4,2,-3,1,-2,-1,3,-2
4041220610,-3,1,-2,-1,1,-1,1,0
4041220610,1,-6,0,-1,2,-7,0,2
4041228146,-6,-2,-3,-11,-2,2,-4,-1
4041228146,2,-5,5,-5,0,2,5,2
4041243116,0,-7,-3,-14,-1,2,0,-3
4041243116,-4,4,1,3,-5,1,-1,-1
4041250609,4,8,4,23,-1,-1,-1,6
4041250609,3,5,-1,12,-4,-3,-3,-4
4041266307,1,2,3,13,-5,1,-5,-1
4041266307,-2,0,4,1,-3,-5,3,1
4041267064,1,-8,-3,-12,-5,0,-3,-5
4041267064,-1,-5,0,-3,0,-6,-3,1
4041282118,-5,1,-1,-4,-2,-2,4,3
4041282118,0,1,-6,-15,-8,-5,2,-5
4041288096,-4,1,1,0,-1,-4,-1,3
4041288096,0,0,-7,-2,2,-2,-5,2
4041303105,0,0,-4,-6,-4,0,0,-1
4041303105,3,1,0,7,-1,-3,-3,3
4041318820,-3,2,-4,4,2,4,3,-1
4041318820,1,-4,-2,-1,1,-1,0,1
4041326262,-3,-2,3,3,1,-1,-3,-3
4041326262,2,3,-3,5,1,1,-1,-4
4041327074,0,-3,-3,-5,-4,-1,-3,-4
4041327074,-5,1,0,0,-1,-1,-3,-3
4041340639,-3,-2,-6,0,-2,-2,0,2
4041340639,-6,-7,-2,-4,-3,0,1,0
4041348119,1,-2,-2,1,1,1,1,2
4041348119,-2,-4,-1,3,0,0,3,-3
4041363195,-1,1,-1,0,2,4,-1,3
4041363195,-2,-4,-5,-3,-3,-2,-2,-5
4041370693,3,2,-2,-5,-1,-1,3,3
4041370693,-2,-3,0,-3,-8,-1,-1,-3
4041386257,1,0,2,-3,-8,2,-3,1
4041386257,1,2,-1,-4,-5,-1,-1,-1
4041387071,-2,1,-2,-6,-2,-2,0,-2
4041387071,-2,0,-2,-1,0,-2,-1,-1
4041400614,3,-1,-5,-2,0,-7,-2,-5
4041400614,-3,-4,-4,-8,3,1,-4,2
4041408097,-3,-4,-1,-2,-3,-3,0,0
4041408097,3,2,-1,-8,1,-2,-2,0
4041424667,0,1,-5,-1,-1,-5,-3,-1
4041424667,-2,-8,2,-4,-4,-1,-2,-6
4041430653,-2,-1,0,1,1,-1,-5,-4
4041430653,-1,-3,1,3,2,3,1,3
4041446452,-2,-3,0,0,-2,1,4,1
4041446452,-5,-4,1,-5,1,0,3,-2
4041447162,1,1,0,-4,-2,-1,2,-5
4041447162,1,0,2,5,2,4,2,2
4041460893,3,1,-1,-1,2,-3,2,-1
4041460893,-1,-1,0,1,-2,1,-1,5
4041468357,-5,-6,1,2,-2,-3,1,-1
4041468357,-2,-6,-5,-6,-1,-1,-3,-3
4041483198,-1,-4,3,-2,1,-2,-2,-1
4041483198,0,4,1,1,0,-3,1,-4
4041490819,3,0,2,3,-1,-5,0,1
4041490819,2,2,-2,2,-1,-2,-1,0
4041506387,0,-1,1,-1,-3,3,-5,0
4041506387,1,2,0,2,2,0,1,-3
4041507160,3,1,0,2,3,-1,-2,3
4041507160,-3,2,2,3,1,0,-5,0
4041520736,-2,1,-2,2,5,0,-1,-1
4041520736,-2,1,-3,2,-3,2,4,3
4041536338,-1,-3,-5,-5,-3,3,5,-5
4041536338,0,0,-5,-2,0,-1,3,-2
4041543132,1,2,4,1,0,-2,-2,0
4041543132,5,1,-3,-2,-2,-1,-1,-2
4041550634,5,2,3,0,-3,-4,-1,0
4041550634,0,-1,3,1,-2,2,-1,-3
4041565663,-2,-3,-2,3,2,0,6,-3
4041565663,-2,-3,-3,-7,-3,-3,0,1
4041573979,-3,0,-4,-3,-4,0,1,1
4041573979,-2,1,0,0,0,2,-2,0
4041580750,0,0,-4,-2,-4,-2,2,-1
4041580750,3,-1,3,2,0,-5,-4,0
4041588313,-5,2,-6,-2,3,4,1,3
4041588313,-1,3,-4,0,-1,-3,1,-1
4041603203,-10,-4,0,-7,-5,-5,-2,-5
4041603203,0,0,3,0,-1,-1,-1,3
4041610748,4,-3,1,4,1,0,0,-2
4041610748,3,1,-3,-1,-1,-1,2,1
4041626397,-2,-3,-2,-1,-4,1,1,-1
4041626397,-1,-2,4,3,-3,-1,-2,-3
4041627174,-4,-1,-5,-4,0,-7,-4,-4
4041627174,1,1,-3,0,2,-6,1,-5
4041642123,-1,-1,-3,1,-6,-4,0,-1
4041642123,-1,2,-1,1,-2,-1,-8,-1
4041648133,-1,0,-1,-1,1,1,-5,0
4041648133,0,-5,-3,-1,0,-1,1,-2
4041663136,1,-1,-2,0,1,0,0,-2
4041663136,-1,-3,-3,3,1,-1,1,-1
4041670608,-2,-3,1,0,4,0,-3,0
4041670608,-3,3,0,0,-4,0,6,0
4041686274,2,-1,-1,6,9,-2,-2,3
4041686274,-6,-3,-2,1,1,1,-2,-2
4041687079,1,0,3,4,0,-3,2,-2
4041687079,-2,-2,3,-1,-2,-3,-2,-1
4041700660,-1,-6,2,2,1,1,-1,-3
4041700660,4,1,0,-3,-1,-2,2,-5
4041708155,1,1,-1,-3,-1,0,1,0
4041708155,0,-3,1,1,0,3,-1,0
4041723077,0,3,-3,-1,-1,-2,6,1
4041723077,0,3,-1,-2,1,-1,-3,3
4041730642,-4,-4,1,-3,-2,-1,-4,1
4041730642,-2,2,0,3,-1,1,-3,-4
4041754474,-1,-3,-2,-3,6,1,0,0
4041754474,1,-5,-1,-2,-4,-4,-1,-2
4041755246,-1,-4,2,-1,0,1,2,-3
4041755246,3,0,-3,-7,-5,-2,-1,0
4041760595,-6,-1,0,-3,-1,1,-2,0
4041760595,-2,0,-3,-6,-3,0,-1,-2
4041768151,1,0,-5,-4,-5,-1,-1,0
4041768151,-5,-5,3,-3,1,-2,-3,-1
4041784594,-1,1,0,0,-5,0,0,2
4041784594,-3,4,-4,-5,1,1,0,-1
4041790625,-1,4,-1,-1,-7,-1,-1,0
4041790625,-1,-6,0,0,0,-4,0,-1
4041805607,3,1,-3,-7,1,0,-1,-1
4041805607,-2,-3,4,-1,-4,0,1,2
4041813802,0,-4,-2,3,-1,-1,5,4
4041813802,-2,6,-1,2,-2,-1,-6,-1
4041820617,-3,-7,3,3,-1,-9,-4,0
4041820617,1,-6,-6,3,7,-5,2,1
4041828114,-1,-1,-3,-3,3,-4,-5,-3
4041828114,2,1,-1,2,-1,-5,0,-1
4041843102,0,-3,-2,-3,-1,5,-6,-7
4041843102,-2,-2,-2,0,-6,2,2,2
4041850623,-5,-1,-1,-3,-1,0,-4,-5
4041850623,0,-4,0,2,2,3,2,2
4041865633,4,1,0,2,-3,-2,0,-2
4041865633,-3,-4,-4,-3,1,-1,1,-5
4041873794,4,1,1,3,2,1,0,-1
4041873794,1,-3,-3,-2,-6,-1,3,-4
4041880628,-6,-1,-2,-5,-5,-1,-5,0
4041880628,2,0,1,4,3,2,1,2
4041888337,-3,-4,-1,1,1,0,0,1
4041888337,2,0,-1,-4,0,-3,0,-2
4041903283,0,-4,2,-2,-8,-2,2,-3
4041903283,1,-1,-2,-3,-6,-1,-4,0
4041910906,1,0,-5,2,0,0,6,-5
4041910906,-1,-2,0,4,0,2,1,5
4041934598,1,-1,-3,-1,3,-2,0,4
4041934598,-1,-4,-6,-3,11,-8,-7,-5
4041935313,0,6,6,3,-2,-3,-3,-1
4041935313,1,5,0,-9,-11,20,13,5
4041948859,3,4,-2,-43,-6,18,12,2
4041948859,0,-3,-2,10,8,15,5,3
4041949588,1,-1,4,19,-14,18,1,0
4041949588,1,-1,1,16,-7,-41,-7,-3
4041963214,-4,0,-6,22,-9,13,-7,-4
4041963214,-1,-6,-1,-14,-2,-27,-16,-3
4041970736,-1,-1,-2,-21,8,-64,-9,-2
4041970736,-3,-8,-3,18,1,41,-7,-3
4041994578,-1,-5,7,6,15,-18,-2,-3
4041994578,0,-8,1,0,1,2,9,0
4041995273,-2,-2,-4,0,-2,28,8,-2
4041995273,-2,-1,-1,-11,9,-5,-1,0
4042008822,5,8,-2,2,-9,-2,14,8
4042008822,-2,4,-6,-3,-7,14,30,0
4042009620,-1,-6,-3,-3,-9,17,16,-2
4042009620,0,-2,-1,-5,-5,60,-21,-6
4042023219,-4,-3,-5,-7,14,-26,-76,-7
4042023219,3,8,4,-20,-5,-107,-23,6
4042030856,0,5,-1,-9,-14,-7,24,3
4042030856,-3,-1,-6,-1,13,62,-7,-3
4042047163,-3,-11,-3,14,7,127,-5,-5
4042047163,0,-3,-1,-4,-3,-17,19,4
4042053805,1,0,0,-15,4,-102,-6,2
4042053805,-1,1,2,-14,1,-87,9,-1
4042068847,-1,2,-3,7,2,28,-3,-2
4042068847,-6,-6,-8,14,4,91,-10,-4
4042069577,-1,-4,-5,10,-4,49,3,-4
4042069577,3,2,1,-9,-8,-82,11,5
4042083129,1,5,0,-6,-4,-67,11,2
4042083129,-3,-5,-2,5,-7,22,-4,-5
4042090625,-4,-6,1,10,11,56,-18,-4
4042090625,-4,-4,0,7,2,15,-6,2
4042105627,-1,0,-2,7,-14,-53,26,-1
4042105627,-3,5,-2,4,2,-9,1,-3
4042113799,-6,-10,-3,-7,7,12,-11,1
4042113799,4,1,2,-10,0,25,3,-7
4042128797,-1,-1,-3,-6,-8,5,14,1
4042128797,-2,0,2,10,-9,13,2,-3
4042129595,-9,0,-1,-13,-5,-28,-13,-1
4042129595,-5,-7,-4,-4,-3,-10,0,0
4042151289,0,5,1,-4,-1,-5,0,-1
4042151289,0,1,-1,-3,-3,15,-12,-1
4042152081,-2,0,-2,0,1,14,0,3
4042152081,-2,-4,-5,-7,-6,-8,1,0
4042165655,1,-4,-5,-2,0,-20,3,-1
4042165655,0,-5,-1,-12,-1,0,1,-4
4042173805,0,-1,0,-1,4,9,0,1
4042173805,-7,-4,-3,-9,-6,4,1,0
4042188885,2,2,-4,4,0,3,-1,2
4042188885,-1,-1,0,9,-1,-10,-2,-1
4042189626,8,5,3,5,-2,-9,1,0
4042189626,-3,0,-4,-3,-4,7,-7,-3
4042203168,-6,-3,2,-5,-2,3,0,-1
4042203168,0,-4,1,-6,-7,1,2,-1
4042218869,-5,2,0,-6,-5,-3,2,2
4042218869,7,1,0,3,-2,-1,1,5
4042225633,-4,0,1,1,1,-1,4,-5
4042225633,2,2,-2,-2,-1,-1,-4,3
4042233825,0,-2,-3,0,-2,6,-3,-5
4042233825,-2,3,-1,5,3,-2,2,3
4042248808,-2,-6,-2,-6,-5,-8,0,-2
4042248808,-3,-2,3,-5,0,-3,-1,-2
4042249569,0,-5,-2,-6,-1,1,0,-3
4042249569,1,0,1,0,-2,0,-3,-5
4042263184,-3,-5,0,-4,2,0,1,-1
4042263184,-6,1,-5,-1,1,2,-2,-2
4042270799,-2,-5,-4,-4,-6,-7,-2,-6
4042270799,-11,-6,-2,9,1,2,1,-1
4042285839,-4,-3,-3,-4,0,-1,-2,-1
4042285839,-2,6,2,1,0,0,1,-1
4042293948,1,-1,-1,2,2,1,1,-1
4042293948,5,3,3,-11,-3,-8,-4,-2
4042309038,1,3,-2,-7,1,0,-2,-1
4042309038,1,-1,-2,-2,0,0,0,3
4042309595,-1,2,0,5,3,1,-6,0
4042309595,0,-2,1,-4,0,0,-4,-1
4042323266,0,-5,5,-6,-1,-5,-2,-5
4042323266,-4,1,2,-1,-1,0,-3,0
4042347174,2,0,-1,-2,-1,-4,3,1
4042347174,-3,-2,-1,-7,1,-1,6,-1
4042348637,-1,0,-2,0,-3,0,1,0
4042348637,-4,1,-2,1,-4,-4,-3,-3
4042354348,-6,-1,-3,1,0,1,0,1
4042354348,-6,-10,-2,2,2,-2,-4,-4
4042369058,-2,4,4,1,-1,-2,1,1
4042369058,2,-8,0,-1,-1,-4,1,1
4042369626,-1,1,-4,-1,1,0,-2,-2
4042369626,-2,4,-3,-3,-1,0,2,-5
4042383326,-1,-6,-1,-8,-3,3,-1,-1
4042383326,-1,-1,1,-1,-2,-1,-2,-4
4042390826,0,-4,1,1,-2,-2,-3,1
4042390826,1,7,1,4,-4,3,-2,-1
4042405801,1,-2,-5,5,2,-6,-2,-1
4042405801,-7,-3,-2,-8,-3,-1,-6,-2
4042413868,-4,-4,-2,-8,-2,2,-7,-1
4042413868,-4,1,0,4,-1,0,-1,1
4042428866,1,3,-2,6,2,7,5,3
4042428866,3,-3,4,-7,1,0,3,1
4042429591,1,2,0,1,0,0,0,0
4042429591,0,1,-1,-4,-5,1,-3,-2
4042443388,-2,4,-2,-6,1,-1,-10,-2
4042443388,-1,4,-3,0,1,-5,-4,-1
4042458883,-2,3,1,3,-4,-4,-2,2
4042458883,-4,-1,-3,0,-1,-3,-4,-1
4042465646,-1,-4,-2,2,0,-3,-5,2
4042465646,0,-3,-4,-3,-1,1,4,-1
4042473820,0,-4,-2,1,-2,4,5,-4
4042473820,4,-5,-3,3,0,11,5,-3
4042488790,-4,-7,0,-7,-9,5,1,0
4042488790,1,2,-5,2,1,4,1,3
4042489570,-4,-2,1,1,-1,-4,0,1
4042489570,-2,-2,4,-3,-1,-11,-9,0
4042504619,1,-4,-3,-5,-6,-5,-2,2
4042504619,-1,-7,-3,-9,-8,2,-2,-3
4042510602,2,2,-1,-1,-2,1,-2,-3
4042510602,-1,-5,-6,-1,2,-1,-2,1
4042525627,4,2,-3,-3,-3,-5,3,-2
4042525627,1,1,-2,-4,0,-9,0,4
4042533841,-1,-2,-6,-3,-2,1,-4,-2
4042533841,-1,-2,-4,-2,0,3,0,-1
4042548796,-1,1,-2,4,0,2,2,-1
4042548796,-7,-6,1,7,3,1,2,0
4042549577,-4,2,-2,-5,-1,-1,-2,-2
4042549577,1,-4,-5,-3,0,-7,-3,-1
4042563139,-1,-3,1,4,-3,0,3,3
4042563139,1,2,0,2,-3,5,-3,-8
4042571349,0,-1,-2,1,1,-2,0,1
4042571349,2,0,-5,-1,-7,0,-2,2
4042585829,2,-4,1,-4,-5,-7,-5,-1
4042585829,-2,-2,-3,-5,-2,-4,-7,-2
4042594070,1,2,7,0,-6,-1,0,3
4042594070,2,1,-1,-5,-5,0,1,-1
4042608843,-5,1,-2,-2,1,-1,0,-4
4042608843,2,-1,-1,-4,0,-8,1,0
4042609589,1,0,2,-4,-3,-2,-1,-3
4042609589,1,2,4,-3,-4,-5,3,-6
4042623282,-2,-4,-2,-7,-6,0,-5,-1
4042623282,0,1,-1,-4,-9,-1,-4,-4
4042631391,0,-1,-4,-2,1,-3,-3,-2
4042631391,-4,0,1,-1,4,-3,1,-2
4042645859,-2,2,0,-6,-3,0,-3,-3
4042645859,-4,0,-2,2,3,4,4,-3
4042653931,0,0,-2,-5,5,2,4,-1
4042653931,0,0,-2,3,0,-2,0,2
4042669043,-2,-6,0,1,1,-4,-1,1
4042669043,-1,-2,-3,-3,-3,2,0,0
4042669755,-6,-2,-4,-1,-3,-3,-5,-1
4042669755,2,4,-4,4,-2,9,5,-4
4042683275,-4,1,-2,-5,-1,-4,-2,-4
4042683275,0,1,6,1,-6,2,-2,-1
4042690814,-1,-4,-4,3,-7,2,0,-3
4042690814,-4,3,2,-2,-2,-4,0,-5
4042705681,1,1,-1,2,1,-2,1,-2
4042705681,1,2,-3,2,5,-2,2,-1
4042713934,-1,-1,-2,-4,0,1,-1,-1
4042713934,-8,-7,-1,-8,3,-3,-6,2
4042728998,-1,-2,-2,-1,2,-1,-5,2
4042728998,-3,1,1,-4,-2,-3,-3,-4
4042729666,3,0,-1,-1,-3,3,0,0
4042729666,1,-1,1,0,-1,4,3,0
4042743339,-3,-2,4,-1,-3,4,0,-3
4042743339,-3,0,-1,-4,-3,-4,1,-3
4042751539,-2,-2,-4,-3,-5,-5,-1,-1
4042751539,2,0,1,-3,-5,1,-4,-3
4042765684,1,0,-4,1,0,-1,0,0
4042765684,1,-4,1,1,1,-5,-1,4
4042774085,-3,-3,0,-3,1,-1,-2,-1
4042774085,0,-1,-4,-2,-1,-2,-1,5
4042788213,-2,0,-3,0,-1,0,2,-1
4042788213,-4,-2,-2,-3,-5,-4,-7,0
4042796389,-2,1,2,-3,2,-3,-1,0
4042796389,-3,-2,0,-2,-5,1,-1,-1
4042803167,0,-4,-1,-4,-5,4,1,-3
4042803167,-3,-3,-6,0,-2,3,-6,0
4042811329,0,1,-2,-5,-6,-9,-8,0
4042811329,2,1,1,2,4,-3,-4,1
4042825634,-3,6,-1,2,1,-2,3,-4
4042825634,-1,-2,-2,-3,-2,1,-1,-2
4042833871,2,-1,1,-2,-3,-1,-1,-1
4042833871,2,-1,-4,5,1,0,6,1
4042857015,1,2,-1,2,-4,-1,-3,-1
4042857015,-4,-4,-5,-9,-6,-3,-1,-1
4042857816,-4,0,2,-1,-4,2,-1,-1
4042857816,-8,-6,-1,-8,-1,-3,-3,-5
4042863145,2,0,-2,-1,-2,-2,-2,-1
4042863145,2,-2,-2,-1,-2,-6,2,1
4042871299,1,-6,1,-2,-1,3,-3,1
4042871299,-7,-4,-4,-7,-3,-5,-5,-1
4042885852,-6,-6,-1,-5,-3,-4,-1,0
4042885852,-1,-1,-2,-1,-2,0,-3,0
4042894075,-4,-4,-2,-3,2,-4,-3,-2
4042894075,1,2,-1,5,2,0,2,1
4042908341,-2,0,1,-4,1,-2,-2,-5
4042908341,-2,6,5,0,-4,1,3,-4
4042916564,-4,-5,-2,5,-1,1,-1,-1
4042916564,-3,-2,-1,-6,-6,-1,-6,1
4042931555,-5,-1,-4,-10,-1,-1,-2,0
4042931555,1,-6,-3,-6,-1,-2,-1,-2
4042932142,-1,-1,2,2,-7,0,2,-4
4042932142,-3,-2,-1,1,-1,-1,-3,-6
4042945756,0,-2,0,-3,1,3,-1,3
4042945756,-2,0,-2,0,2,0,-1,-2
4042953912,1,1,-5,-9,-3,5,-1,-1
4042953912,1,-4,0,-9,-4,-2,3,-2
4042968316,3,-2,1,-3,-7,-6,-3,1
4042968316,-6,0,-1,1,-3,-1,1,0
4042976539,-3,-2,-4,23,-3,-2,-3,-4
4042976539,0,0,0,-14,11,-2,-2,3
4042991497,-2,-3,-3,-2,4,3,0,-2
4042991497,2,-3,1,-8,5,-3,0,-1
4042992136,-1,-1,-2,4,-3,-3,4,0
4042992136,-4,0,-3,-6,-11,10,4,1
4043005684,-2,-5,1,4,1,9,9,2
4043005684,-1,-3,-4,-3,2,0,1,2
4043013876,-5,1,2,7,2,-4,-3,3
4043013876,-2,-4,2,8,4,-10,-8,2
4043028148,3,-3,-1,4,2,-11,-3,6
4043028148,1,-4,-1,8,1,0,-3,1
4043036335,0,0,-4,-9,1,4,-3,0
4043036335,1,0,-2,-3,-7,5,3,-2
4043051547,2,-1,0,3,-5,6,1,0
4043051547,1,-4,1,7,-7,5,-2,0
4043052195,2,0,2,-6,4,-11,-8,0
4043052195,-3,0,-4,5,5,-6,-5,-2
4043074581,-2,4,-4,5,1,1,-2,-3
4043074581,3,3,-2,0,1,9,-1,-1
4043075410,-2,-4,2,-8,8,4,-1,1
4043075410,-3,-1,1,7,1,0,4,1
4043088412,2,-2,-2,-2,-4,-2,-3,0
4043088412,1,1,3,-1,0,-9,-6,2
4043096166,1,-1,2,-2,4,-7,4,-3
4043096166,3,-1,3,1,5,-1,1,0
4043111564,-4,2,-4,3,0,6,3,0
4043111564,4,0,-3,2,0,1,-2,1
4043112259,1,0,-1,1,-2,-7,1,-5
4043112259,-4,1,-1,5,-2,0,-1,2
4043133579,-1,-6,-1,-8,1,-2,-6,-6
4043133579,-3,-2,-1,-7,-1,-7,-2,-4
4043141471,0,4,-1,-2,-3,-3,0,-2
4043141471,5,1,0,4,-1,0,-3,-2
4043148184,-3,-1,2,-4,0,-9,-10,1
4043148184,-5,0,-2,-2,1,-3,0,0
4043171246,1,-2,-4,-2,1,10,1,2
4043171246,0,-1,-4,0,-7,7,1,-2
4043181136,0,2,3,-2,-6,0,-2,-2
4043181136,-4,0,1,-1,-1,-6,2,0
4043181816,1,3,0,0,-1,-7,-5,3
4043181816,0,0,-2,3,0,-2,-5,-3
4043185637,1,0,-3,1,4,-4,-3,2
4043185637,-5,-1,-6,-3,3,-4,-3,-5
4043193894,-5,-5,-4,-2,-4,4,0,-1
4043193894,-5,-4,-5,-1,2,-2,-1,-2
4043208155,0,0,-1,0,0,2,4,0
4043208155,-1,-1,2,3,0,-4,-2,2
4043223864,4,-2,0,6,2,-3,1,4
4043223864,-1,-5,1,-8,-6,-4,-7,-6
4043232018,-3,0,-2,-2,-3,0,-2,-3
4043232018,1,-1,-5,-3,-5,1,-1,-1
4043232798,-4,-2,-5,-3,0,2,-3,-1
4043232798,-5,-2,-2,0,-3,4,2,-3
4043245694,1,1,1,0,-1,4,0,-2
4043245694,-4,0,-1,4,2,2,-3,-4
4043253669,-8,-1,-3,-10,-5,-1,1,-6
4043253669,-2,-2,-1,-6,-3,-7,-1,3
4043268145,-4,-4,-4,-4,1,-6,-1,-7
4043268145,4,-5,0,-3,-4,0,-6,0
4043277170,-2,0,0,-3,-2,5,-5,-2
4043277170,1,0,0,-4,0,-1,0,1
4043290712,3,0,0,-1,1,-1,-1,-1
4043290712,-1,0,-2,-2,0,-3,0,-3
4043299679,0,-3,-1,2,3,-4,-4,-1
4043299679,1,0,0,-4,0,-4,-3,-2
4043305665,-2,1,-4,-6,-6,-5,-4,-2
4043305665,0,-3,4,-6,-1,-2,2,-1
4043314691,-1,-5,-3,-3,-5,0,-1,2
4043314691,6,2,-2,1,-4,-1,-1,-3
4043328201,-1,2,-2,0,4,-2,0,1
4043328201,-2,1,-2,-3,-2,1,0,2
4043337138,-1,0,-3,-3,-3,0,2,0
4043337138,-1,-1,-5,-6,0,-1,-3,-2
4043359616,-2,-6,-4,-2,-4,2,-1,0
4043359616,-3,1,-2,1,0,-4,2,2
4043361143,1,-4,2,-2,-1,-9,-2,0
4043361143,0,-1,4,-2,4,-3,-3,-4
4043365719,-2,-1,4,-1,1,-4,-4,-2
4043365719,1,-3,0,2,1,0,-4,-1
4043382185,-1,0,5,1,4,-3,7,-2
4043382185,-2,-1,-2,-1,-3,-2,7,0
4043388181,-4,-2,-4,3,1,-4,1,4
4043388181,-1,-2,1,-2,-3,1,2,1
4043397185,-3,3,2,6,2,-5,-2,0
4043397185,1,-1,-1,4,3,2,-3,-1
4043410659,4,0,2,-5,-4,-2,-5,-3
4043410659,1,0,-3,-1,1,0,-2,-2
4043427823,0,-4,-5,-2,-1,3,-5,-2
4043427823,1,1,1,0,-3,-2,-2,1
4043428614,1,2,1,-2,-4,-6,-1,0
4043428614,-4,-2,1,-4,0,-1,-7,-2
4043434673,0,2,-2,-3,1,-2,1,1
4043434673,-2,-5,0,-1,-3,1,-3,-4
4043448220,2,-1,2,-3,-5,-1,-2,-5
4043448220,-2,0,0,-2,-6,-1,1,0
4043457177,-4,-1,0,-3,0,5,2,-1
4043457177,-4,1,-1,-1,-3,1,-1,1
4043470657,-5,1,7,-2,1,2,-3,1
4043470657,0,-6,-6,0,1,-1,3,0
4043479637,1,1,1,6,-5,-1,-4,4
4043479637,-3,1,2,0,7,4,3,3
4043485716,-2,-1,-5,-1,-4,3,-2,2
4043485716,-1,-2,3,-3,-2,1,-1,-3
4043494650,1,-1,0,-1,-2,0,1,-3
4043494650,0,4,0,2,0,-3,-2,2
4043508180,-3,-5,1,-1,0,0,4,-1
4043508180,-3,0,-7,4,-4,1,-3,1
4043517146,-2,-3,-2,-5,0,-2,-5,-1
4043517146,-4,-7,-2,-3,-1,-1,-4,-1
4043530681,-2,0,0,3,-1,0,-2,-1
4043530681,1,1,-2,7,-2,1,1,2
4043539650,-2,0,1,-2,1,-4,2,-1
4043539650,3,1,1,4,-1,5,-1,1
4043545718,-2,-3,-3,-2,-1,-1,5,0
4043545718,1,-2,2,-5,-1,-1,-2,-3
4043554636,-4,-3,-2,-2,-2,2,-3,2
4043554636,-6,-2,-3,-3,-1,-4,-4,-4
4043568203,-1,0,0,-7,-2,-2,-3,-2
4043568203,0,-3,0,-2,-5,2,-1,1
4043577159,-2,-3,-4,-3,-3,0,-1,-2
4043577159,-6,0,-4,1,-1,-2,3,6
4043590696,1,0,1,3,-4,-5,-8,0
4043590696,2,2,-3,-2,0,-5,-3,-2
4043599707,2,1,-2,0,4,-1,-3,0
4043599707,-2,-3,4,1,-1,-2,-1,-1
4043605712,-3,-4,1,0,-2,5,1,4
4043605712,0,-4,2,-2,2,0,-3,-2
4043614652,2,2,-3,2,-6,-3,-1,-1
4043614652,-1,-6,0,0,1,-6,-1,-3
4043628201,-3,-3,-3,-2,4,-2,1,1
4043628201,0,1,1,1,-1,0,-7,-3
4043637178,2,-2,0,-2,0,0,1,-3
4043637178,-8,-4,-1,-7,0,3,-3,0
4043650710,5,1,-3,-2,-3,-3,-2,1
4043650710,-1,4,1,6,1,-4,-7,0
4043659661,-3,4,2,-4,-4,-5,-3,3
4043659661,0,2,-6,-3,-5,-1,-3,-1
4043665690,-3,-7,0,-3,-2,-3,-3,-4
4043665690,-1,-2,-2,-3,5,7,5,-1
4043674641,2,-1,0,-2,-4,-1,-3,-1
4043674641,-1,-2,1,-6,-6,-5,-3,-2
4043688168,-2,2,0,6,4,-2,-2,2
4043688168,-1,1,-1,2,-2,-4,0,-3
4043697222,-3,-2,-8,-5,4,-1,0,-5
4043697222,2,3,1,-5,-6,-4,2,-2
4043710710,2,4,-3,-3,3,1,0,2
4043710710,-6,-6,-1,-8,-3,-3,0,-1
4043719666,2,-2,1,0,-2,1,6,0
4043719666,3,-5,-3,-5,-4,-3,-6,-3
4043725688,-5,1,-4,-1,-2,-3,3,-2
4043725688,-2,1,1,7,1,2,4,0
4043734719,-2,-2,-3,-1,0,-1,0,1
4043734719,0,3,-2,1,2,2,0,-7
4043748167,-2,-6,-2,-3,-1,-3,-2,0
4043748167,0,-3,-1,-5,-2,-2,-3,1
4043757162,0,-1,0,3,0,2,-2,3
4043757162,1,4,-2,2,-1,-1,0,4
4043779496,-3,3,2,2,4,-2,-1,-1
4043779496,-4,1,-3,-2,-1,-2,4,-3
4043781133,2,1,3,0,-2,2,-5,-1
4043781133,2,1,0,1,-3,0,1,-3
4043785695,-3,0,1,1,3,1,2,-1
4043785695,-5,-3,-7,3,2,6,2,2
4043794669,-4,2,-1,5,-2,-1,1,0
4043794669,1,-5,-2,-1,3,-3,1,4
4043808203,1,-6,-5,-6,-6,-5,0,-9
4043808203,2,-4,1,-3,-3,-3,-2,1
4043817151,-6,-3,-1,-5,0,2,0,1
4043817151,3,5,1,4,0,4,2,0
4043830669,-1,-2,-4,0,1,3,-1,-2
4043830669,5,-4,-8,0,0,-2,0,-3
4043847184,1,-3,1,-2,0,-12,-1,-1
4043847184,-3,-3,1,2,0,-1,5,-1
4043854586,2,-3,-2,-1,-4,3,-2,4
4043854586,1,2,1,2,-2,5,-2,1
4043856166,-4,-4,-6,0,3,-2,-5,-3
4043856166,-1,-1,0,0,2,-4,-2,4
4043868194,-5,-4,2,1,-2,-6,-4,-1
4043868194,-4,2,-1,-1,-1,0,0,3
4043877166,-2,-4,-4,-5,-2,2,2,2
4043877166,-4,0,-3,-9,-5,5,-1,1
4043891869,-4,-1,-4,-1,1,6,0,-6
4043891869,-1,0,-3,-5,-7,-9,0,-4
4043898198,2,-2,-2,2,-2,-1,0,-3
4043898198,-1,-4,-1,5,1,-4,-3,1
4043914572,1,-4,0,-2,3,-11,-1,-2
4043914572,-3,-9,-2,-8,-4,-4,-2,-3
4043916152,-1,-1,-1,-3,-4,-5,0,-5
4043916152,-4,1,-3,-2,8,1,0,-4
4043928213,-2,-1,-4,-2,5,5,1,1
4043928213,3,4,3,4,3,5,-3,-1
4043937157,-4,-3,2,-5,1,9,1,0
4043937157,3,-3,-2,-6,-5,3,-4,-3
4043951403,-4,1,0,-7,-4,-9,-6,-3
4043951403,-3,0,-3,-3,1,-22,0,0
4043958231,0,2,3,-7,-7,1,-6,-1
4043958231,-1,0,-1,2,-4,4,3,-2
