timestamp,emg1,emg2,emg3,emg4,emg5,emg6,emg7,emg8
62170917050,0,-2,1,0,5,2,0,-1
62170917050,0,-1,-2,-1,-14,-5,1,-1
62170931283,0,-2,-1,-2,21,7,1,1
62170931283,-1,-4,-2,-2,-12,-4,-3,0
62170938101,-2,-2,-1,1,-16,-11,-5,-4
62170938101,-1,2,1,1,12,2,0,-2
62170945610,-1,-1,-3,-3,-2,4,-2,0
62170945610,-1,1,1,0,5,-9,0,0
62170956401,-3,-2,-4,-1,-10,-2,-2,-1
62170956401,-1,0,-1,-1,4,10,-1,0
62170968137,-2,-2,-4,-3,-16,-12,-1,-1
62170968137,1,-1,-2,4,11,4,1,0
62170977053,1,1,0,0,5,-2,0,0
62170977053,-2,-1,-3,-2,35,9,2,1
62170991298,2,0,1,0,-26,0,0,-1
62170991298,-3,-2,0,-5,14,-9,-1,-2
62170998049,0,1,1,-3,-29,-1,1,0
62170998049,0,-4,-1,-3,14,6,2,-3
62171005639,-1,-2,-2,2,-11,-6,-1,-2
62171005639,-1,-2,-3,0,12,7,-3,-1
62171014591,1,0,-2,-2,10,2,-1,-1
62171014591,-2,-1,-4,1,-35,-7,-1,-2
62171028086,-2,-2,-3,-3,27,2,0,-1
62171028086,0,1,5,4,-22,-3,0,0
62171037081,-2,-2,-3,2,-1,-13,-3,-2
62171037081,-1,-1,2,0,0,1,-2,-1
62171050667,-2,-1,1,-2,1,-8,-2,-1
62171050667,-2,0,-5,1,-1,5,-1,1
62171059573,-1,1,0,-3,1,0,-2,0
62171059573,-1,-2,-3,-1,4,2,-1,-1
62171065621,-2,-3,-3,-1,-5,-11,-4,-2
62171065621,0,-3,-2,-2,5,-11,-2,-1
62171074601,-1,2,-2,4,-13,-1,1,-1
62171074601,-1,-2,-1,0,-9,-9,-3,-2
62171088092,0,-1,1,0,18,14,1,-1
62171088092,0,0,-2,-2,-25,-17,-3,-1
62171097078,-1,-2,-2,-7,29,14,0,0
62171097078,-1,1,1,1,21,-10,-1,2
62171135201,-1,-1,1,0,-28,5,0,-1
62171135201,-2,-3,-3,-2,-16,-6,-2,-4
62171137570,0,-4,0,0,9,1,1,1
62171137570,-1,-2,-1,-1,-6,-2,2,-2
62171148123,-1,-1,2,-4,13,-1,-1,0
62171148123,-1,0,0,4,7,-3,0,-3
62171157050,-2,-3,-2,-2,-17,3,-3,-3
62171157050,-1,1,1,0,2,4,-1,0
62171171305,1,2,1,-2,-5,-9,-1,-1
62171171305,0,0,1,-2,-11,-3,1,1
62171172035,-3,-4,-3,-4,27,3,-5,-5
62171172035,-1,-3,-4,-4,-16,-2,-1,1
62171187136,-1,-1,-2,2,-4,0,-1,-3
62171187136,-2,1,5,-3,-1,1,0,0
62171188640,-3,-1,1,-2,-1,-1,-1,1
62171188640,-1,0,-2,2,0,3,0,1
62171202149,-3,-3,-4,0,32,-1,0,2
62171202149,-1,-1,-1,-3,-34,7,2,2
62171203643,0,-1,0,-3,19,5,1,0
62171203643,-1,-1,3,-2,0,-4,2,-1
62171216445,5,4,4,3,5,1,2,1
62171216445,1,0,-1,-2,15,4,-3,-3
62171223201,4,5,5,2,-6,-4,0,1
62171223201,1,1,-2,4,2,7,-3,0
62171239509,0,1,1,2,-3,-6,0,0
62171239509,-1,1,0,6,0,3,0,-1
62171241066,-1,-1,-3,5,-11,-9,-2,0
62171241066,1,1,0,2,-8,-8,-1,-2
62171262098,-2,-2,-5,0,-13,3,2,-1
62171262098,-1,-2,0,-2,-2,4,-1,-2
62171263558,1,0,2,9,-1,0,2,0
62171263558,0,3,3,2,-7,-10,-3,0
62171276429,0,-1,-2,0,2,6,1,1
62171276429,-2,0,-2,6,13,1,-1,1
62171283263,-2,0,-1,1,10,2,1,-1
62171283263,0,0,1,-5,-3,7,1,1
62171299649,0,-2,-3,2,-14,-8,-5,-1
62171299649,0,-1,1,2,11,1,0,1
62171301112,1,-3,0,1,-8,-3,0,0
62171301112,-1,-4,-3,3,4,6,1,-1
62171321925,1,-1,0,2,-8,0,0,0
62171321925,1,0,0,-4,4,-10,0,0
62171323516,0,1,1,3,-12,-7,-1,1
62171323516,1,-3,-1,2,14,3,2,1
62171336247,-2,-3,-2,1,-19,3,0,0
62171336247,0,-2,-3,0,-2,4,1,-2
62171343112,0,-1,2,5,9,-2,-1,-2
62171343112,-2,1,-2,2,-3,-5,-3,-1
62171359511,0,-2,-2,-5,1,-6,-4,-4
62171359511,-3,-3,-5,-2,8,5,0,-2
62171361066,-1,-3,-3,3,-2,3,0,-1
62171361066,-2,-1,1,-3,-3,-7,-1,-1
62171381953,-1,-1,-1,-7,-16,-12,-1,0
62171381953,-2,-2,-3,-4,-3,-1,-2,-2
62171383534,-1,-4,-6,0,11,-2,-2,-1
62171383534,-1,0,0,1,2,17,-1,0
62171396312,-1,0,1,-5,3,-10,-2,0
62171396312,0,-1,0,-3,-34,-9,-2,0
62171403048,-1,2,0,0,-8,3,2,-1
62171403048,-1,-3,-5,2,22,10,1,-3
62171419413,-2,0,2,7,-1,-15,-4,-2
62171419413,-2,-2,-2,-7,7,0,-3,0
62171421015,-1,-2,-1,-14,-2,0,-1,0
62171421015,-1,-1,-1,-4,-1,1,0,0
62171441965,-2,0,-1,7,-15,-9,0,-1
62171441965,-2,0,-1,5,5,2,-1,-1
62171443545,-1,0,0,-4,-25,-9,-1,-1
62171443545,-2,-2,-3,-12,9,-5,-2,-1
62171456364,-2,0,2,-3,2,3,0,-1
62171456364,0,-1,-1,0,1,0,-3,-1
62171463250,-1,0,-1,1,10,1,0,-3
62171463250,-1,-1,-3,1,-13,-7,-3,-2
62171479606,-1,-1,-2,-5,4,2,0,0
62171479606,-3,-1,-4,-8,-4,-1,-2,-2
62171481014,-1,-1,-2,-14,6,-2,-5,-4
62171481014,1,-2,-2,-2,-13,-2,0,-2
62171502125,1,1,3,4,19,6,1,0
62171502125,-1,-3,-2,12,-17,-11,-2,0
62171503620,-2,-2,-3,3,21,9,-1,2
62171503620,-1,1,0,-5,-29,-17,-1,-1
62171524472,-2,0,-1,-5,12,9,1,-1
62171524472,-1,1,-3,-7,-1,-2,0,0
62171526086,-1,0,1,-4,-1,-1,-1,-3
62171526086,-2,-3,-2,0,18,3,-3,0
62171539559,2,0,7,3,-3,2,-2,-2
62171539559,1,-2,0,5,4,3,2,-1
62171541033,0,-2,-3,9,-16,-10,-3,0
62171541033,-2,-3,-3,-3,3,1,-2,-1
62171562151,-3,-3,-7,-3,-12,-6,-5,-2
62171562151,-1,0,1,-6,19,-1,0,-1
62171563541,-1,1,2,-7,-12,7,1,-1
62171563541,-2,-1,-1,-5,3,-3,0,-2
62171576316,-1,-2,-2,-6,-1,0,0,1
62171576316,-2,-1,-2,-3,-1,4,0,0
62171583107,-3,-1,-4,-4,3,4,1,1
62171583107,-1,0,-1,0,0,-13,0,-2
62171599447,0,-1,-1,-1,2,10,-1,-1
62171599447,-1,2,-2,-1,-6,-7,-3,0
62171601063,-1,-3,-1,5,4,4,0,-2
62171601063,1,-2,-5,8,17,-4,-2,-2
62171621964,1,3,2,6,-20,0,-1,-1
62171621964,1,-2,0,5,-2,-2,0,-2
62171623600,0,-2,3,3,0,-10,-1,-1
62171623600,-1,-1,2,-1,5,2,0,1
62171635607,-3,-4,-6,-2,-16,-6,1,-1
62171635607,-2,0,0,-9,2,5,0,-1
62171644595,-1,-1,-5,-12,-17,-3,-2,-1
62171644595,-1,-2,-1,-15,-1,2,-2,-2
62171667058,-1,-1,-1,-14,8,3,0,-1
62171667058,0,-4,-5,-8,-12,-4,-1,-2
62171668586,-1,2,3,-11,30,7,1,2
62171668586,0,-1,0,-7,-22,-5,0,0
62171681201,1,1,-1,-6,-4,-1,-1,-1
62171681201,-3,-2,-1,-10,4,-2,-3,-2
62171690224,0,0,-2,-10,2,-9,-2,-2
62171690224,0,0,3,-9,7,5,-1,2
62171691027,-3,-4,-3,-10,3,2,-1,0
62171691027,0,-2,0,-7,5,1,2,0
62171697208,-2,-2,-2,-10,2,-6,-3,-1
62171697208,-1,0,-2,-9,-30,4,0,2
62171711403,-1,-2,-3,-8,-1,-7,-3,0
62171711403,-1,-1,-3,-3,8,-5,-2,-1
62171718330,-1,-2,-1,-5,-17,-1,-2,-1
62171718330,-2,-2,-3,-4,5,4,0,-1
62171734733,0,-1,1,-3,10,6,1,0
62171734733,-1,-2,-3,2,-10,-5,-1,-1
62171736135,-1,-1,2,6,5,-6,-1,-2
62171736135,-1,-3,-4,5,-8,-3,-2,-2
62171748287,-3,0,-2,10,7,6,-1,-1
62171748287,-2,0,-2,4,3,-9,-2,-2
62171757142,-1,-2,-5,6,-14,2,0,-2
62171757142,0,1,3,9,1,-1,0,-1
62171771607,-2,-1,-3,7,-4,-11,-1,-3
62171771607,0,1,2,5,41,9,1,-1
62171778225,0,0,0,1,-45,-4,0,-1
62171778225,1,-2,-4,4,25,3,-1,-2
62171794719,-1,3,6,1,-13,-3,0,1
62171794719,-2,-2,-5,6,-2,-5,-2,-1
62171796108,0,-4,-1,1,16,6,0,-2
62171796108,-1,0,1,3,15,4,0,-1
62171808159,0,-3,-3,3,-18,-10,-1,-1
62171808159,-2,-2,-1,2,-1,9,-1,-1
62171824630,1,0,-1,4,6,-3,0,1
62171824630,-2,-3,-2,0,-11,-6,-2,-2
62171831318,0,-2,-2,2,34,8,0,-1
62171831318,-1,0,1,-1,-39,-1,0,1
62171838064,-2,0,2,-1,25,-1,0,-2
62171838064,-1,1,1,3,-18,-6,-1,0
62171854457,-2,-3,-3,2,-18,-6,-2,-2
62171854457,-1,-1,2,0,7,4,0,-2
62171856035,-3,1,-2,1,-4,2,-2,1
62171856035,0,-3,0,-1,7,-6,-2,-3
62171868122,-2,-1,-1,-2,10,10,0,-3
62171868122,-2,-1,-4,-4,-12,-1,-1,-1
62171877121,-3,-2,-5,3,-13,-11,-2,-2
62171877121,-2,0,2,-3,9,2,0,-1
62171891306,-1,-2,-4,-3,-12,-6,-2,-1
62171891306,0,2,0,1,1,2,-1,-1
62171898083,-1,1,0,-2,11,7,-1,-1
62171898083,-2,-1,0,-5,-25,-19,-3,-3
62171914515,-1,-1,-2,0,-5,6,0,0
62171914515,0,-3,1,-2,-3,-5,0,-1
62171916041,-2,0,-3,-2,-8,1,0,1
62171916041,0,0,1,2,22,10,-1,0
62171928183,-1,-1,0,1,11,-5,-1,-1
62171928183,1,0,2,-3,-26,-2,-1,0
62171943210,1,-1,2,-1,21,4,0,2
62171943210,-2,-2,-5,1,-11,-1,-3,0
62171951479,-1,-1,1,-5,11,2,-1,-1
62171951479,-1,-2,-3,0,17,1,-1,0
62171965847,-1,-2,2,-1,-19,-7,-3,-2
62171965847,1,0,2,-3,-8,-3,1,-1
62171974489,-1,-2,-9,-1,13,0,-1,1
62171974489,1,1,10,-2,-12,-2,1,1
62171976123,-1,-4,-7,0,2,4,0,-1
62171976123,-1,-2,2,3,2,-11,-2,-3
62171988134,-1,-3,-3,0,-21,7,0,-2
62171988134,-3,-1,2,-1,2,-12,-3,-3
62171997132,-1,-1,-3,-1,-11,-6,-2,-4
62171997132,-2,-2,-3,1,4,4,-2,1
62172019748,-1,-2,-4,-2,8,-1,-2,0
62172019748,-1,-2,-3,0,1,0,-1,0
62172021182,-2,-2,-1,0,7,-5,-3,0
62172021182,0,0,-3,0,-20,11,1,1
62172042021,0,3,7,-1,-34,-18,-3,-1
62172042021,-2,0,-5,1,-2,7,0,-2
62172043601,0,-3,-1,0,7,-11,-1,-1
62172043601,0,0,0,1,17,2,-1,0
62172048340,-1,0,-2,-1,1,-1,1,-1
62172048340,0,-2,-1,-1,-6,-2,-2,0
62172057101,-1,-1,-2,-1,-3,5,-1,-1
62172057101,-1,0,0,-1,-15,2,0,-1
62172071491,-2,-2,-2,-1,10,2,0,-2
62172071491,-3,-1,-6,1,-17,-16,0,-2
62172078230,1,-1,-3,-2,26,10,0,-2
62172078230,-2,-2,-3,-4,-9,-2,0,-3
62172094620,0,0,1,-1,-2,1,-2,0
62172094620,-2,-4,-11,2,13,3,-3,0
62172096097,0,-1,3,0,-20,-4,-1,0
62172096097,1,1,3,-1,5,2,0,0
62172108142,0,1,7,2,51,5,2,0
62172108142,-1,-3,-2,2,-45,-7,-2,-2
62172117230,-2,-3,-6,2,13,-2,-1,-1
62172117230,-1,-2,-6,-1,11,5,0,-1
62172131536,-2,-4,-4,-4,-19,-13,-4,-4
62172131536,2,0,-2,1,41,5,0,1
62172138273,-1,1,2,-5,-31,6,-1,-2
62172138273,0,0,7,2,-9,-5,0,0
62172154539,-1,0,-3,1,-5,1,0,0
62172154539,0,-1,0,-4,4,-3,-1,0
62172156065,-1,0,-4,0,9,6,4,1
62172156065,-1,0,1,-1,14,0,-4,-2
62172168090,-2,-5,-8,1,-15,-6,-7,-2
62172168090,-1,-1,-1,0,11,3,2,-1
62172177124,0,5,13,2,-32,-10,0,-1
62172177124,-3,-5,-9,-2,-11,1,-1,-2
62172213191,0,1,6,-1,-5,3,1,0
62172213191,-2,-3,-5,-5,11,0,-3,-1
62172228106,-3,-3,-4,0,13,8,0,-1
62172228106,-1,-1,0,0,-10,-18,-2,0
62172244546,-1,-2,-7,0,-42,-16,0,-2
62172244546,2,5,8,1,17,13,-4,-1
62172246042,0,-2,-3,-3,-10,-7,-1,-1
62172246042,-3,-8,-9,3,12,-2,-5,-4
62172251924,0,0,3,-6,17,6,2,2
62172251924,-2,0,-4,0,-71,-12,-1,-3
62172252740,1,2,4,-6,38,27,5,4
62172252740,-7,-6,-9,1,-21,-44,-10,-7
62172266261,0,0,1,1,15,3,-1,-1
62172266261,0,0,3,-6,-11,6,-1,0
62172267003,-1,-1,0,5,-4,-8,-3,-1
62172267003,0,0,-1,-6,7,14,4,1
62172280712,-1,-1,-4,-4,-10,-3,-2,-2
62172280712,-3,-3,-2,-2,16,0,-2,-2
62172289632,-1,-1,-5,-5,-13,-9,0,-1
62172289632,0,-1,3,-5,-1,3,-3,-1
62172304707,-4,-2,1,-2,17,11,-4,-3
62172304707,0,-1,-1,-5,-13,-5,3,1
62172306103,-2,0,4,2,28,2,-4,-1
62172306103,1,-1,-3,0,-29,4,0,1
62172318790,-1,-2,-4,4,-3,-15,-3,-2
62172318790,-2,-1,1,0,59,10,2,0
62172327155,-4,-2,-1,-1,-57,-13,-1,-2
62172327155,1,1,0,1,23,10,1,1
62172342074,0,-3,-2,-5,-1,0,-4,-1
62172342074,0,-1,0,1,-16,-11,-3,-2
62172343628,-1,-2,-5,-2,22,0,-1,2
62172343628,1,-1,3,-3,13,18,5,2
62172364473,0,0,0,6,-38,-18,-1,-1
62172364473,-1,0,3,3,30,3,0,0
62172366055,-2,-1,-1,-4,-18,-8,0,-1
62172366055,1,4,2,5,-8,4,2,0
62172378166,1,2,2,4,29,7,5,1
62172378166,1,-1,1,0,-16,-4,-1,-2
62172387209,5,1,-2,9,-25,-1,-1,-1
62172387209,1,1,2,2,9,-4,0,1
62172401987,-1,0,0,4,-5,-1,-1,1
62172401987,-3,-2,-6,6,20,10,-1,1
62172403610,0,0,3,3,0,-7,-1,0
62172403610,1,0,-3,2,-11,-1,1,1
62172424512,1,-2,-5,2,13,19,2,1
62172424512,0,-1,3,1,-37,-20,-1,1
62172426064,-1,-4,-9,4,42,23,1,-3
62172426064,0,2,4,-2,-26,-14,-2,-3
62172438846,1,-1,-1,-5,12,-4,1,2
62172438846,1,0,-3,8,-25,3,3,2
62172445678,-3,-3,-2,4,9,-5,-3,-2
62172445678,0,-1,-4,1,-1,5,1,-1
62172461962,1,-1,0,-6,-6,4,0,-1
62172461962,-1,0,4,-2,2,1,-1,0
62172463547,2,0,2,4,-12,-4,-2,-3
62172463547,-2,-3,-2,0,19,0,-1,-3
62172484518,0,-1,0,0,-15,-8,-3,-2
62172484518,0,-2,-2,-2,21,-1,-3,-3
62172486110,-2,-3,-4,-2,-18,-6,-2,-2
62172486110,-2,-4,-5,7,12,1,0,0
62172498856,-3,-5,-4,0,-5,-4,-2,-1
62172498856,1,2,6,-2,-12,-4,1,-1
62172505610,1,1,0,-10,19,-2,0,0
62172505610,-3,-2,-1,-1,3,7,-3,-2
62172522147,-2,-3,-6,6,6,3,1,-1
62172522147,-4,-5,-8,4,-10,-17,-3,-1
62172523559,-2,-1,-1,-6,-8,0,1,1
62172523559,-1,-3,-3,-10,-9,1,-2,0
62172544723,-2,-1,-2,-8,9,7,-1,-2
62172544723,0,0,2,2,-6,4,0,-1
62172546134,0,0,-1,6,2,-4,0,-1
62172546134,-3,3,0,2,3,-1,-1,0
62172558200,-4,-1,-3,-4,-9,6,-5,-3
62172558200,-1,-3,-2,-8,3,6,-3,-1
62172567169,-2,-3,-7,-8,-10,-12,-3,-1
62172567169,0,-2,1,-3,-7,-5,1,-1
62172582160,1,3,6,7,0,-6,1,0
62172582160,-3,-2,-3,3,21,6,-3,-2
62172583627,-1,-2,1,1,-5,4,-1,1
62172583627,1,0,-2,-6,0,-6,-1,-1
62172604508,-1,0,1,-6,3,1,-3,-4
62172604508,-1,0,-3,-11,-16,-10,-3,-1
62172606138,-2,0,-2,-3,1,1,-3,-2
62172606138,-1,0,-2,-1,-4,-5,1,-1
62172618143,0,0,-3,4,-2,-2,-1,0
62172618143,0,-2,0,-2,2,8,-3,-1
62172627204,-3,-3,-2,5,20,-4,0,-1
62172627204,-1,1,6,1,-32,-2,0,0
62172641998,-1,0,-1,-3,14,12,2,1
62172641998,-3,-2,-7,-5,-10,-15,-1,-2
62172643578,2,4,13,-5,7,5,-3,-1
62172643578,-1,-3,-8,-6,25,1,-2,-2
62172664523,0,0,0,-4,-9,-10,1,0
62172664523,-3,-3,-6,-3,5,-1,0,-2
62172666047,-3,-3,-4,-5,-20,0,-2,0
62172666047,0,-1,0,0,4,-1,1,1
62172678144,-2,-2,-2,-1,-21,-5,-2,-1
62172678144,0,0,1,3,8,1,0,-1
62172687068,0,-2,-3,3,-14,-4,-1,-1
62172687068,-2,-1,-2,2,6,1,0,-1
62172701991,1,-1,1,10,-5,-16,-2,0
62172701991,0,0,-1,8,-1,11,0,-1
62172703599,-2,-4,-2,2,8,-1,-1,-1
62172703599,-1,-1,0,5,-4,10,2,0
62172724625,-1,2,1,0,14,-8,-3,0
62172724625,-1,-1,-3,-2,-13,-7,-1,-2
62172726137,0,-2,-2,-4,-7,-1,1,-1
62172726137,-3,-3,-3,-9,11,0,0,-1
62172738221,-2,-1,-2,-7,-1,7,0,-1
62172738221,-1,0,-1,-10,6,-2,0,1
62172747103,-2,-1,-8,-9,6,3,-3,-2
62172747103,1,0,9,-6,-15,-1,0,0
62172762140,-2,-2,2,-6,-9,-14,-3,-2
62172762140,-3,-5,-15,-7,-2,-9,0,-2
62172763608,1,-1,2,-7,-8,2,1,-2
62172763608,-2,0,0,-10,16,2,-2,-1
62172784717,0,-1,-2,-12,-6,10,3,1
62172784717,1,3,8,-6,1,-6,1,2
62172786119,-2,-2,-11,-5,-10,-5,4,0
62172786119,1,0,-4,-6,0,-5,-4,-3
62172798280,0,-1,2,-10,11,5,-11,-4
62172798280,0,-3,-5,-6,-16,3,1,0
62172807190,0,1,4,-4,29,1,-4,0
62172807190,1,-1,-1,-5,-25,-2,5,1
62172822173,-2,-3,-3,-2,8,3,5,-1
62172822173,-1,-1,2,-6,36,15,-1,-1
62172823581,1,1,1,-1,-41,-10,2,2
62172823581,-3,0,2,-1,30,5,-12,-3
62172844780,-1,-2,-7,1,-15,-6,5,0
62172844780,-2,0,6,3,4,-3,0,-1
62172846143,-2,-2,-4,5,3,-3,-4,-2
62172846143,-1,-4,-6,4,-2,-8,-1,-3
62172858173,2,3,7,8,-2,0,-3,-3
62172858173,-3,-2,-4,14,-14,-6,-1,-2
62172867136,-4,-2,-1,11,4,-3,-2,-2
62172867136,-3,-5,-11,11,-1,5,2,-3
62172881356,-2,-2,-5,7,-13,-9,-6,-1
62172881356,0,0,3,3,3,4,10,2
62172888081,-5,-6,-13,0,-11,-3,-9,-3
62172888081,-1,2,9,2,-8,-4,-14,-5
62172904513,-2,0,6,-7,20,7,-8,-2
62172904513,-2,-3,-4,-5,-2,0,-8,-3
62172906068,-1,-2,-4,-8,-3,3,12,1
62172906068,-2,-4,-8,-15,-2,-5,10,2
62172927176,-3,-3,-4,-8,-3,2,0,-2
62172927176,0,-1,2,-13,22,-2,-8,-3
62172928602,1,1,8,-16,-18,3,0,3
62172928602,-1,-3,-4,-4,-13,-20,-1,-2
62172933885,-1,-2,-5,0,0,2,2,-2
62172933885,-4,-3,-5,6,-8,0,-2,-3
62172940710,-2,0,2,7,20,2,-5,-5
62172940710,-1,1,2,10,-3,-1,0,-2
62172957058,-3,-3,-6,9,-11,-2,-3,-1
62172957058,-1,-3,1,4,2,1,5,0
62172958556,1,0,1,-8,1,-1,3,1
62172958556,-3,-1,0,-14,2,0,-10,-2
62172970797,0,-2,-3,-13,-16,-3,-1,1
62172970797,-1,-2,-7,-6,-32,-10,2,-2
62172979656,1,3,4,1,29,4,-2,0
62172979656,1,0,4,-1,5,4,11,6
62172993881,-3,-2,-2,-1,3,-7,-36,-23
62172993881,0,1,1,-3,-12,0,-2,2
62173000864,-1,-4,-6,-1,-7,-3,10,2
62173000864,1,-3,-2,2,-6,-5,9,4
62173017208,-1,-2,-1,1,5,2,1,4
62173017208,0,-1,-3,0,-2,0,15,0
62173018667,0,2,19,1,-1,-5,0,3
62173018667,1,2,0,-3,3,-2,-34,-13
62173030728,-1,-1,-3,3,-12,-7,1,0
62173030728,-3,-1,-3,-3,3,1,-7,-2
62173039737,-2,-1,-7,-3,0,4,7,1
62173039737,-2,-3,-4,-5,-5,-3,12,2
62173053985,1,-2,-2,-1,-15,-4,-3,2
62173053985,2,1,7,-1,28,2,-2,0
62173060699,0,0,-2,-3,-6,0,2,-2
62173060699,0,1,7,1,-8,-1,-2,0
62173077167,-2,-4,-4,-5,36,6,5,-4
62173077167,0,0,-3,0,-30,-2,-6,4
62173078587,-1,-2,-2,-1,-2,-2,-5,-2
62173078587,-2,-4,-9,3,5,4,10,-3
62173090610,-2,1,6,-2,-7,-7,-14,-4
62173090610,-1,1,4,-6,-2,1,-2,-2
62173099641,0,-1,-4,-3,-2,0,0,1
62173099641,-1,-3,-6,-2,-6,3,6,1
62173128794,-1,-2,0,1,7,-2,13,0
62173128794,-3,-4,-7,-3,-12,-4,-8,0
62173137100,-3,-2,0,2,-6,-9,-9,-9
62173137100,0,2,5,-4,8,3,2,6
62173159633,0,-3,-3,-2,0,1,13,5
62173159633,0,1,1,-6,-6,-2,-9,-4
62173161147,-3,-3,-7,1,-8,-4,-19,-14
62173161147,0,-2,-4,1,-3,-3,-9,-4
62173175224,-2,0,-3,-4,-1,-2,1,4
62173175224,-1,-9,-20,1,-7,1,6,4
62173175987,2,5,32,-2,36,-1,-6,-5
62173175987,-1,1,2,2,-9,-2,-3,-1
62173176770,-2,-3,-7,-1,-9,-1,-5,-5
62173176770,-1,-2,-6,1,1,-2,0,-1
62173180676,-4,-5,-13,-1,-6,-3,-11,0
62173180676,1,2,14,2,38,0,7,-2
62173197188,2,2,3,-1,-22,9,24,16
62173197188,-2,-1,-3,1,-16,7,-7,-7
62173198641,-3,-3,-14,1,-10,-5,-11,-6
62173198641,-2,0,-5,-1,-8,-2,-1,4
62173210803,-1,-1,-1,-3,2,-10,3,-2
62173210803,0,2,4,-3,10,0,8,-2
62173219703,1,-1,-2,-1,-9,1,-16,4
62173219703,-3,-5,-9,0,-2,-1,2,-5
62173233906,-2,-2,3,-1,4,4,4,-3
62173233906,0,1,6,-2,3,-6,8,-1
62173240672,1,-1,-5,1,-2,2,7,5
62173240672,-2,-3,-3,1,-2,-2,-11,-5
62173257023,1,-3,-5,3,16,7,25,7
62173257023,-3,0,8,0,4,-10,-28,-8
62173258596,-1,-1,-1,0,-12,-3,-2,-1
62173258596,0,-2,-3,-1,-10,-2,1,4
62173270847,-2,-1,-3,-3,-7,2,-10,-8
62173270847,1,0,3,1,19,-1,9,3
62173279702,-1,0,-4,-1,-2,1,24,5
62173279702,-2,-1,-5,1,-9,-5,-52,-17
62173294057,0,0,3,3,-1,-5,27,5
62173294057,-1,-4,-10,2,12,-2,-10,-6
62173300780,0,-1,7,-2,5,2,-5,-2
62173300780,2,-1,-4,-4,-19,-1,25,4
62173340170,1,2,0,2,17,4,-4,2
62173340170,-4,-2,0,1,0,-8,-33,-14
62173342569,-2,-2,-5,-1,1,-3,21,2
62173342569,-3,-2,-3,-3,3,2,8,2
62173362013,2,0,1,-2,-11,-6,-27,-2
62173362013,-2,0,0,0,-1,3,23,4
62173363565,-5,-4,-9,-3,-5,-1,-4,-6
62173363565,-1,2,1,-2,6,-4,-5,3
62173384572,0,1,9,-3,6,3,0,-6
62173384572,1,2,-2,0,-9,-1,0,2
62173386117,2,1,-1,0,4,0,12,1
62173386117,-4,-4,-8,1,-6,2,-3,-1
62173406315,-4,-5,-9,-2,-3,-2,-5,-3
62173406315,2,-1,2,-2,4,-3,-3,-1
62173413836,0,2,1,-2,-11,-3,-6,-1
62173413836,2,1,7,1,11,3,10,2
62173436973,-1,0,2,-2,-11,-3,-14,-4
62173436973,-3,-4,-4,1,-10,-1,-4,-3
62173438564,-3,-2,-7,-1,-3,-2,3,-3
62173438564,-3,-3,-2,-1,3,-8,-27,-3
62173458176,-1,-1,-6,-5,-6,4,26,0
62173458176,1,1,6,-2,0,1,-10,6
62173467850,-2,-1,-2,-3,-3,-4,0,-2
62173467850,0,0,-1,-6,-5,-4,-1,-2
62173489717,2,-1,0,-2,4,1,38,7
62173489717,-1,-1,-6,-2,-3,3,-41,-6
62173491104,-1,-1,5,-3,5,-3,-24,-2
62173491104,0,0,0,-1,-2,1,51,10
62173505898,-1,1,1,-5,-4,-2,-58,-6
62173505898,-6,-3,-1,0,-1,-30,6,-12
62173507391,-4,-2,-3,-2,-2,-4,18,-6
62173507391,0,-2,-1,-1,1,1,-4,-1
62173508201,0,2,-2,4,0,10,21,7
62173508201,0,1,2,-4,7,9,20,4
62173512859,-2,-2,-1,-3,-14,-11,-18,-6
62173512859,0,0,0,-1,-7,-5,2,0
62173513538,-2,-5,-9,2,2,-3,11,-4
62173513538,2,1,6,-3,2,9,-3,-1
62173514280,1,2,5,2,17,3,1,3
62173514280,1,0,1,0,-13,1,-8,-4
62173518965,-2,-2,0,3,11,-6,-18,-6
62173518965,-2,-3,-6,-1,-7,4,4,0
62173519661,2,-3,-4,-2,1,8,8,4
62173519661,-1,-1,-3,3,2,-1,2,-3
62173533977,-3,-2,0,-2,-8,-13,-27,-7
62173533977,2,2,2,1,-2,2,32,7
62173540719,0,-2,-1,-6,2,7,2,0
62173540719,-5,-1,-5,-1,-2,-3,-11,-6
62173557036,-2,-2,-1,2,-3,-3,1,-3
62173557036,0,0,-2,0,-3,3,-5,-2
62173563165,-3,-2,-4,-1,-11,-1,22,1
62173563165,1,1,10,-2,11,0,-37,-1
62173579557,1,1,0,-2,-5,5,26,6
62173579557,1,0,1,-5,0,-3,23,1
62173581090,-3,-2,-5,2,2,-8,-13,-2
62173581090,0,-2,-5,-2,0,-3,13,-2
62173593838,0,1,1,0,-6,-1,-13,-2
62173593838,-1,-2,-5,-5,-2,3,1,-1
62173600633,0,-1,-4,-2,-12,-5,27,3
62173600633,-2,-1,0,-4,8,7,-40,-6
62173616374,0,-2,-5,-4,-8,-8,1,0
62173616374,-3,-4,-8,-1,-7,-10,-28,-6
62173630669,1,2,1,1,-5,-12,-10,-1
62173630669,-2,-1,-3,0,3,4,18,2
62173662577,-4,-3,-2,0,8,4,-6,-3
62173662577,0,-1,4,1,-7,-1,2,1
62173669704,1,-4,-3,2,4,5,-10,-2
62173669704,2,-1,3,0,9,3,16,1
62173684788,-5,-4,-4,-5,-5,-9,-14,-5
62173684788,-1,-3,-2,-3,1,-2,1,4
62173686130,-3,-2,2,-2,4,1,2,-2
62173686130,0,-1,-2,-1,-4,0,5,0
62173699016,-1,0,-1,-4,-1,-2,-7,-3
62173699016,-3,0,-1,-3,-9,-4,3,-3
62173705868,-1,2,3,-2,14,6,-18,-1
62173705868,-3,-2,-6,-4,-6,-4,4,0
62173722074,0,-1,2,1,-12,-3,-5,-1
62173722074,-1,-1,1,-1,3,-2,-3,-2
62173723575,0,0,1,1,-3,-3,16,3
62173723575,-2,-3,-1,-2,3,5,-11,-6
62173737234,-3,-1,0,-5,-7,-5,-1,-1
62173737234,-1,-2,-6,1,-1,3,4,-3
62173738718,-2,1,4,-3,-10,-5,-13,0
62173738718,0,-3,-7,1,-21,-4,6,0
62173751526,1,3,14,-6,41,5,1,-1
62173751526,0,-4,-4,-3,-27,0,-8,-3
62173759652,-3,-3,-7,-3,1,3,-2,-2
62173759652,0,-1,-5,2,5,-4,2,0
62173760320,-2,-2,-5,-1,-13,-4,0,0
62173760320,-2,-1,1,-6,18,1,3,-1
62173761104,-1,-5,-2,2,4,-1,-6,-4
62173761104,-2,1,4,-3,-18,-3,3,-1
62173773898,0,0,-1,2,6,3,-2,-1
62173773898,-2,-1,5,-2,3,-2,0,0
62173780805,-1,-3,-3,-5,-4,-2,-4,-2
62173780805,-3,-2,-2,-3,-5,-2,-4,-2
62173796521,-2,-3,-3,-2,-20,-5,-1,-3
62173796521,-1,0,0,-4,-2,0,2,2
62173803335,-1,0,0,2,27,12,-2,-1
62173803335,-1,-2,2,-4,10,-1,0,0
62173819662,-1,1,1,-3,-8,-8,-1,-1
62173819662,-1,-2,-3,2,16,15,3,-1
62173821129,-1,-4,-8,0,7,-6,0,1
62173821129,0,-2,-3,0,-5,0,3,-4
62173834084,-2,0,-4,3,-7,-2,2,-3
62173834084,1,0,3,0,0,-4,-1,-2
62173840749,1,0,5,-1,-34,-8,-5,-2
62173840749,-2,0,2,1,35,6,-3,-1
62173856401,-1,-1,0,-5,-6,5,-5,2
62173856401,-1,0,0,4,-20,-4,1,0
62173863169,-1,0,-3,-5,-8,-1,-8,-2
62173863169,0,0,0,-2,-38,-6,-1,2
62173879528,-1,-2,-5,0,25,-11,-5,-2
62173879528,0,-3,-3,2,36,23,-1,1
62173881120,1,2,2,-1,-27,-19,-1,1
62173881120,-2,-5,-6,2,-8,0,-2,-1
62173893137,-1,0,0,-1,19,15,2,0
62173893137,-2,-1,-1,-4,10,-4,-2,-2
62173909600,-1,-1,-3,4,3,5,-1,-1
62173909600,-3,-1,2,-1,-4,-17,-3,-2
62173916294,-1,-3,-7,0,-27,5,3,1
62173916294,0,-1,2,0,0,-15,0,-1
62173923151,-2,-1,-2,-1,-15,0,-4,0
62173923151,-2,-3,-2,-2,27,0,-1,-1
62173939565,-1,-4,-2,-1,8,12,1,-3
62173939565,0,-1,-5,-2,-28,-15,-3,-2
62173941103,0,-1,1,-3,20,9,0,-1
62173941103,1,1,-1,-4,-22,-8,1,0
62173953420,-1,-1,0,5,34,16,-1,-1
62173953420,-1,-1,0,-2,-2,-5,-3,1
62173962236,-1,0,-4,1,10,-1,0,-3
62173962236,-1,-3,-3,-5,-28,-11,-1,-1
62173976530,-1,-2,1,2,-34,-13,-3,-2
62173976530,1,2,2,-2,12,26,5,-1
62173983358,-2,-2,-2,-3,-21,-40,-5,-1
62173983358,-3,-2,-1,0,6,2,-1,-3
62173999558,-2,-2,-2,-3,-3,-5,0,-1
62173999558,-3,-4,-5,-3,-31,-26,-6,-1
62174001136,-1,0,-1,-4,30,32,4,-1
62174001136,0,1,-2,2,13,6,0,0
62174013184,0,1,3,-2,8,-5,2,1
62174013184,-1,-1,-1,1,-20,1,1,-1
62174022175,-1,-2,-3,1,0,5,-3,-3
62174022175,0,-1,1,2,-13,-12,-4,-1
62174036338,-2,-2,-3,-1,-29,5,-1,-2
62174036338,0,0,-2,-2,16,30,4,1
62174043542,-1,-3,-1,-2,-7,-27,-1,-1
62174043542,-2,-1,-3,-1,-28,1,0,-1
62174059563,1,0,2,0,20,-5,3,1
62174059563,-2,-1,3,-2,34,2,-3,-2
62174061099,-3,0,-2,1,-14,5,-2,0
62174061099,1,0,-3,-3,20,14,1,-1
62174073368,-1,-1,-5,-1,-22,-6,-1,-2
62174073368,-2,1,1,-1,17,-12,-3,1
62174082205,-1,-4,-2,1,-24,1,0,-1
62174082205,-1,0,1,-4,15,-4,-3,0
62174096311,-2,-1,2,-3,-4,-1,-3,-1
62174096311,-2,-2,-5,2,0,-4,-2,-2
62174103171,-1,0,1,-2,7,3,-1,-2
62174103171,-1,-1,-2,0,12,11,1,0
62174119560,0,1,0,-3,-32,-20,-2,-1
62174119560,-2,-2,-3,-1,2,0,-1,0
62174121118,-1,0,-1,-2,27,10,0,-2
62174121118,-2,-4,-2,0,28,3,-2,-3
62174165236,1,1,3,-4,-7,2,1,1
62174165236,-2,-3,-4,-1,-24,-12,-2,-3
62174170828,1,0,1,1,0,-6,-1,-2
62174170828,-2,-2,-1,-5,16,-1,-3,-3
62174178328,-1,0,-1,0,-5,12,-1,-1
62174178328,0,0,-2,0,-32,-17,0,0
62174187266,-2,-1,0,1,1,7,0,0
62174187266,0,-2,-3,-1,1,-9,-1,0
62174202569,-2,-5,-2,-2,-5,-7,-3,-1
62174202569,-2,-1,-2,0,3,8,2,4
62174208168,0,-1,0,-2,10,6,-1,-1
62174208168,1,-1,1,8,-8,4,2,1
62174217185,-3,1,0,-3,3,-1,2,1
62174217185,-1,2,4,1,-5,-5,0,0
62174218689,-1,2,1,-2,49,11,-1,-1
62174218689,2,3,4,-1,-44,-8,0,2
62174230713,2,1,-1,6,28,9,-1,-3
62174230713,3,1,0,4,1,2,-1,-2
62174239712,1,2,0,4,3,-4,-1,0
62174239712,0,1,2,2,-17,6,1,0
62174254721,1,-1,-1,3,9,-8,1,-1
62174254721,-1,-2,1,2,-2,0,-1,-1
62174255429,1,-1,2,8,10,3,0,0
62174255429,-3,0,-1,3,2,-6,0,-2
62174269000,-1,0,-1,2,-1,-1,-3,-1
62174269000,2,-1,0,-5,-5,-5,-2,-1
62174269655,0,1,2,2,13,9,3,2
62174269655,-1,-2,0,4,-17,-12,1,1
62174283317,1,0,-2,2,0,4,0,0
62174283317,0,-1,-2,9,17,6,1,-1
62174292211,0,-3,-4,-1,-14,-2,-1,-2
62174292211,0,1,1,-2,0,4,-1,-1
62174307031,3,-1,3,11,-12,-5,-1,0
62174307031,0,-1,-3,3,12,5,-1,-1
62174308619,1,-2,-1,0,-20,-11,-1,1
62174308619,-1,-2,-2,4,36,11,0,-1
62174329550,-1,-1,-2,-2,-7,-7,-2,0
62174329550,0,0,-1,-4,-7,-6,-1,0
62174331097,0,0,2,2,-18,3,-3,0
62174331097,1,-1,-2,3,-9,-19,0,2
62174343184,-1,-2,-6,2,20,11,1,-1
62174343184,0,-3,-3,-3,12,0,5,-1
62174352156,-1,-3,-6,5,-13,-7,3,-2
62174352156,-1,0,-6,1,17,8,1,-2
62174366985,-1,-1,-3,-6,17,3,-1,-4
62174366985,-5,-1,1,2,-26,-3,-1,-3
62174368586,-4,-4,-9,-1,-20,-8,0,-3
62174368586,-3,-1,6,3,22,5,-4,-3
62174389501,-3,-3,-4,-7,-12,-13,-1,-2
62174389501,-2,-1,-2,2,12,4,-4,-1
62174391107,-1,-2,2,-5,-10,0,-3,-1
62174391107,0,-1,-4,2,-9,-8,-3,-1
62174403186,-3,-1,3,-8,18,1,0,-1
62174403186,-1,1,2,-5,-10,7,0,-2
62174412123,0,2,0,0,2,-8,-1,-1
62174412123,-1,-2,-3,2,-1,12,0,-2
62174427002,-1,2,2,0,-6,-8,-2,-2
62174427002,-3,-1,-5,-5,13,1,0,0
62174428605,-1,0,-1,-6,-5,0,-2,-1
62174428605,0,-2,-2,-2,-6,-2,1,0
62174449712,-1,-1,-2,5,-5,-3,-2,1
62174449712,1,-2,-2,-1,-4,-3,-3,-1
62174451180,-1,-2,-2,-8,7,0,0,-1
62174451180,1,-3,4,-9,0,-1,1,0
62174463701,-1,-2,-3,4,-11,-1,1,-2
62174463701,-2,-1,-2,5,30,7,-2,-2
62174472274,-2,0,3,4,-43,-11,-1,-1
62174472274,0,0,0,-7,-12,-6,-3,-1
62174487202,-2,0,-1,-10,26,2,-1,1
62174487202,-1,-2,-3,-6,5,-2,-3,-2
62174488696,-1,-2,-3,-1,9,20,0,0
62174488696,-1,-1,-2,1,-12,-28,-3,-2
62174508792,-1,-4,-1,7,-22,-6,-3,-2
62174508792,-1,0,4,-4,0,-9,-3,-2
62174509688,0,1,0,-12,17,15,2,-1
62174509688,-3,-1,-4,-9,-4,-2,-2,-1
62174532130,-3,-1,-5,-3,0,1,-2,0
62174532130,-1,-2,-5,4,-34,-10,-3,0
62174532812,-1,-1,-2,7,12,3,-2,-3
62174532812,-1,0,0,5,6,7,-1,0
62174546536,0,1,4,-3,9,-1,1,-1
62174546536,0,0,-2,-2,-16,0,0,-1
62174547181,-2,-1,1,-10,16,-7,-3,0
62174547181,-1,-1,0,-8,-22,8,-1,0
62174569015,-3,-1,-3,-7,-12,-13,0,-1
62174569015,0,-2,0,-3,35,2,1,-2
62174569722,-1,-2,0,2,-27,-8,-3,-1
62174569722,-1,-1,-1,1,-1,0,-1,-2
62174599544,1,0,0,6,-9,4,0,2
62174599544,-1,0,-4,4,2,2,0,0
62174600380,-1,1,8,3,6,1,0,-1
62174600380,0,-2,-5,-1,-8,-13,-5,-1
62174606295,0,-2,0,0,3,14,-1,1
62174606295,-1,-2,-1,-2,-15,-12,0,-1
62174607095,-3,-3,-6,-6,14,2,-1,-1
62174607095,-2,2,1,-6,3,6,3,1
62174628815,-1,-3,-3,-7,10,3,0,0
62174628815,0,-1,0,-6,-25,-7,0,0
62174629583,-2,-1,1,-10,6,-5,-1,1
62174629583,-3,-1,-3,-5,-10,-10,-1,-2
62174652049,-2,-2,-2,0,7,6,-3,-4
62174652049,-2,-2,1,3,-5,5,-1,-1
62174652784,-3,-2,-4,10,-8,-5,-4,-3
62174652784,1,0,-2,10,16,5,0,1
62174666545,-1,1,0,15,-13,-8,-1,-1
62174666545,-2,0,-2,12,-1,-2,0,-2
62174667219,-1,0,-2,7,-6,4,0,0
62174667219,0,-1,-2,5,2,0,0,-1
62174689072,-1,-2,0,3,5,-4,-1,-2
62174689072,-3,0,-1,1,-14,2,-4,1
62174689643,-1,-2,-4,3,-4,-8,-1,0
62174689643,0,1,4,3,18,7,1,1
62174712182,1,0,2,1,-3,1,0,-1
62174712182,0,-2,-2,-3,9,-4,0,-1
62174712879,-1,-2,-4,0,2,0,-3,-1
62174712879,-3,-3,-6,1,-11,-3,-1,-2
62174726522,-1,0,1,-4,6,-5,-1,-3
62174726522,-1,-1,0,-1,-5,-1,-4,-3
62174727168,-2,0,-6,0,-2,-3,-5,-5
62174727168,-2,-4,-7,-1,-9,6,-2,-4
62174749007,-2,-2,-2,2,-9,-16,-1,0
62174749007,-3,-2,-1,-2,-2,-1,-1,-2
62174749616,-1,-4,-4,2,-14,-8,-2,-3
62174749616,-2,-2,2,4,15,1,-4,-3
62174772206,-4,-3,-6,3,-6,-4,-4,-4
62174772206,-2,1,7,2,-29,1,0,-1
62174772880,-2,-1,-2,3,8,-2,0,0
62174772880,-5,-4,-6,3,-25,-10,-9,-5
62174786447,-4,-2,-4,0,-5,0,-3,0
62174786447,-2,-1,-3,4,8,-6,-3,-4
62174787185,-1,-2,0,0,-4,2,-2,-1
62174787185,0,0,-1,-1,1,7,-1,0
62174808908,-3,-4,-3,-2,9,-1,-4,-1
62174808908,-1,-1,-3,-8,14,13,1,2
62174809638,-1,-1,1,-8,-46,-29,-1,1
62174809638,-1,-2,-1,-13,3,-4,4,2
62174831995,0,0,-1,-15,-7,3,3,1
62174831995,-2,2,1,-15,20,5,1,1
62174832776,-3,0,0,-17,7,5,1,1
62174832776,0,-1,5,-21,-4,-2,2,0
62174846330,-1,-2,-2,-18,12,3,1,-2
62174846330,2,0,0,-10,-52,-7,-1,0
62174847102,2,2,9,-4,27,11,-1,0
62174847102,2,2,2,3,-3,-1,0,0
62174861379,1,1,-1,11,4,2,0,0
62174861379,0,-1,-5,14,-8,-10,-3,-3
62174862099,0,-1,-4,10,-8,-4,-3,-1
62174862099,0,-1,3,15,9,-4,0,-1
62174877292,2,0,6,7,1,7,1,0
62174877292,-3,-3,-3,1,20,-1,-2,-3
62174883378,-1,1,0,-7,-2,3,-1,0
62174883378,0,-1,-2,-9,-7,1,0,-1
62174920816,-1,0,0,-4,-11,-6,-3,0
62174920816,0,-1,1,1,7,1,1,-1
62174929674,-3,-1,-5,-7,12,5,1,0
62174929674,-1,-1,0,-3,-6,-6,0,0
62174944638,-1,1,0,-3,-3,-2,-1,-1
62174944638,-2,-1,0,-2,9,1,-1,0
62174946202,0,-4,-4,-1,24,-5,-2,-1
62174946202,1,1,6,-1,-30,-3,-1,0
62174959628,-1,-1,-3,-2,21,14,0,-1
62174959628,0,-1,-3,-5,-13,-17,-3,0
62174961198,0,4,1,3,-37,-3,0,-1
62174961198,1,-3,-6,0,16,3,1,0
62174973274,4,2,8,2,29,8,-3,-2
62174973274,3,2,2,1,-12,1,3,2
62174982216,2,1,1,8,12,4,1,-1
62174982216,2,2,2,2,3,-6,-1,0
62174997208,-2,0,-5,4,-9,-7,0,0
62174997208,-2,-1,-5,1,1,10,-1,0
62174998675,-1,1,6,4,-2,-6,-2,-1
62174998675,1,3,0,8,-1,4,-1,-1
62175019559,0,1,3,4,3,-2,0,1
62175019559,1,1,-2,2,5,-3,0,-1
62175020259,0,-4,-3,-1,-8,2,-2,-2
62175020259,0,0,-2,3,-2,-4,-3,1
62175026329,0,-2,-1,-4,-1,1,-1,-2
62175026329,-1,-1,0,3,1,-4,0,0
62175027122,0,-2,0,0,1,-1,-2,-1
62175027122,-1,-1,-1,1,13,4,1,0
62175048898,-1,-1,-1,2,-28,-8,-3,0
62175048898,0,1,-2,-1,3,6,2,1
62175049623,-2,0,-1,-1,28,9,1,0
62175049623,-2,-2,-1,-1,-7,-5,0,-1
62175072034,0,-3,-4,-3,-8,-7,2,0
62175072034,1,0,5,-3,-21,0,0,-2
62175072775,2,2,1,3,-1,1,0,0
62175072775,-2,-1,-3,-3,-11,-4,0,0
62175086315,1,-2,-3,4,11,2,-1,-1
62175086315,0,-1,4,4,10,-5,-2,1
62175087094,-2,0,-6,-9,-9,1,2,-2
62175087094,-2,-1,1,-4,11,5,0,-3
62175108810,-1,0,-2,1,-4,-1,-4,-2
62175108810,2,0,2,-1,-3,-6,-2,-3
62175109627,1,-2,-3,2,-10,-5,-2,-1
62175109627,-2,-2,-4,1,13,7,0,-1
62175132227,-2,-3,-4,0,-16,-7,-1,-1
62175132227,-4,-3,-5,-6,-3,-1,-1,-2
62175132935,-3,-1,-3,-3,3,1,3,0
62175132935,-1,-2,-3,5,-7,-16,-4,0
62175146398,-3,-3,0,-3,8,9,-1,-1
62175146398,-2,-1,-3,-12,-2,-11,-3,-1
62175147156,-2,0,0,-4,-25,1,0,0
62175147156,-3,-3,-3,0,23,4,-3,-3
62175169030,-1,-1,0,4,-13,-9,-1,-1
62175169030,-2,-4,-7,-4,5,-1,1,0
62175169728,-2,0,-7,-7,10,-2,-4,-4
62175169728,4,4,8,-2,1,7,4,1
62175192197,-2,0,4,-1,3,1,-2,-1
62175192197,0,1,-3,2,-24,-9,-5,-1
62175192844,-1,-4,-5,-6,14,6,0,-1
62175192844,-3,-4,-7,-8,-13,-4,-2,-2
62175206556,-4,-5,-6,3,-5,-6,-1,-3
62175206556,2,3,8,3,23,11,2,1
62175207153,-1,1,3,2,-21,-2,-3,-1
62175207153,-1,-3,-3,-11,9,3,-4,-2
62175221531,0,-1,-1,-7,-7,0,2,0
62175221531,-2,-3,-5,5,-8,-3,-2,-2
62175222186,-2,0,3,11,18,-3,0,0
62175222186,-4,-1,-1,-2,4,4,-2,0
62175237226,-4,-1,-4,-6,-8,-1,0,-1
62175237226,-1,0,-3,-16,-1,1,0,-2
62175243332,-1,-6,-4,2,13,-5,-2,0
62175243332,-1,-6,-7,3,-36,-6,0,-1
62175258240,1,0,0,-3,18,5,-1,-1
62175258240,1,5,17,-1,7,5,0,0
62175265835,1,4,9,-4,5,5,0,-2
62175265835,-1,0,2,-1,11,-2,-1,0
62175281386,-1,-5,-7,0,-9,-3,-1,-3
62175281386,-3,-7,-18,3,17,1,-2,-4
62175282127,1,2,8,-2,-21,-8,-4,-1
62175282127,0,2,0,-1,-4,-5,2,-1
62175297197,0,2,0,-3,3,1,-3,1
62175297197,-2,-3,-8,-1,-13,-2,2,-2
62175303245,-1,-2,-3,1,10,-11,-5,0
62175303245,-2,-2,-3,-3,7,5,-1,-2
62175318206,1,1,9,-2,-29,-4,-2,1
62175318206,-3,-3,-6,-2,11,5,-2,-2
62175333941,-1,-3,-7,-2,-2,-3,1,0
62175333941,-2,-2,0,1,-12,-9,-1,-2
62175340673,-1,0,-1,-1,58,2,1,1
62175340673,-1,-3,-3,7,-56,1,0,0
62175348178,1,1,-2,0,14,5,0,-1
62175348178,1,1,4,-1,7,0,1,1
62175357121,0,3,3,-2,-7,-3,-2,-1
62175357121,-2,-1,2,-4,15,-2,-1,2
62175363193,-4,-6,-7,3,-12,-7,-2,-3
62175363193,0,-4,-10,-1,-14,-1,-2,-1
62175378350,1,0,4,1,2,5,0,0
62175378350,1,3,4,-1,8,-4,1,3
62175385884,-5,-2,-5,-1,-9,-2,1,0
62175385884,-1,0,1,-4,6,4,-2,-3
62175409265,0,-3,-10,-3,-14,-3,-1,-1
62175409265,-1,-1,-1,6,7,6,0,-1
62175417155,-1,-2,-7,-3,-8,-15,0,-1
62175417155,1,0,11,-1,13,4,2,1
62175418690,-2,1,4,-2,-26,-4,-2,-1
62175418690,-2,-1,-3,-1,9,0,-1,0
62175423166,-2,-4,-2,-1,7,5,2,0
62175423166,-1,0,-6,2,1,0,-2,1
62175438315,-1,-4,-7,-4,-4,-5,-1,-2
62175438315,0,-1,2,1,18,0,-3,-1
62175445858,0,0,2,-2,-29,-1,-4,-1
62175445858,0,0,-2,1,0,2,-1,0
62175469002,-2,-1,0,1,2,-5,-1,-1
62175469002,-1,-1,-3,-5,-5,-4,-2,-1
62175469701,0,-1,-1,1,11,3,1,-1
62175469701,-3,-1,-1,2,-13,-4,-3,-2
62175477174,0,1,3,1,2,2,-2,0
62175477174,0,-1,-2,-2,3,-6,-1,-2
62175483359,0,-1,-1,-1,0,4,-2,0
62175483359,-2,0,1,-2,9,3,0,0
62175506371,-2,0,-6,0,-28,-11,-1,-1
62175506371,-2,-2,0,2,-15,-9,-2,-2
62175507093,-1,0,0,-2,6,2,0,-1
62175507093,0,0,-2,-2,-9,1,-1,0
62175520882,-1,-2,-1,-3,14,-9,-6,-2
62175520882,1,-1,4,1,5,3,0,-2
62175528383,0,-1,-2,0,-13,-5,1,-2
62175528383,-3,-3,-5,-1,-4,-5,-2,-3
62175544397,-1,-4,-5,1,0,6,1,-2
62175544397,-1,-2,-2,-2,-3,0,-2,0
62175551597,0,2,4,1,10,-2,-2,0
62175551597,3,3,8,-1,11,3,0,-1
62175558232,0,1,1,0,-13,-6,-1,0
62175558232,-1,-5,-9,-1,-20,-1,-1,-2
62175565870,-3,-6,-7,0,-2,-2,-2,-1
62175565870,0,-3,-3,-2,1,-3,-2,-2
62175580887,2,1,2,-1,9,5,1,0
62175580887,2,1,0,4,6,6,-2,-2
62175588220,-1,1,2,0,-1,-4,-1,-1
62175588220,-2,0,-1,2,-1,1,-2,-1
62175612014,-1,-2,-3,-2,-5,-1,2,0
62175612014,-1,-1,-2,-4,7,4,0,-1
62175612775,0,-2,-3,0,1,-1,0,0
62175612775,-3,-1,0,-2,-12,-9,1,-1
62175618143,-1,-4,-4,3,8,9,5,0
62175618143,-2,-4,-2,3,3,-6,-3,-1
62175625693,-2,-4,-2,-1,-7,2,-2,-1
62175625693,-2,-3,-1,-1,-10,-6,-1,-1
62175640644,-2,-1,0,-4,13,6,0,-1
62175640644,2,2,8,1,23,-3,0,-1
62175648220,0,-2,-3,-1,6,7,0,-2
62175648220,0,-3,-7,0,-26,-4,0,-2
62175663808,1,-2,-4,3,-23,-13,-2,-2
62175663808,0,0,3,-3,-5,6,1,-2
62175664598,-2,-2,-1,-2,22,-18,-3,-2
62175664598,-1,-1,1,-2,8,3,-3,-2
62175678161,-2,-2,-4,0,-6,-3,-2,-2
62175678161,-2,0,0,-5,-15,-10,-1,0
62175685664,2,1,0,-2,-1,9,0,1
62175685664,-2,-1,-2,-1,3,1,-1,-1
62175700883,0,-1,-1,-2,10,4,-2,-1
62175700883,1,2,5,2,-7,-2,1,1
62175708236,-1,-1,-3,-3,5,-2,0,-1
62175708236,-1,-2,-3,0,-8,-1,0,-1
62175723898,-1,2,5,-1,3,5,0,-1
62175723898,-1,-2,-4,-2,11,0,-2,0
62175724630,-4,-2,0,-2,-16,-3,-1,-1
62175724630,-1,-2,-7,3,8,-5,-2,0
62175738368,-1,0,7,1,-1,1,-1,-3
62175738368,-2,0,-5,-2,-19,-4,0,-2
62175745743,0,-1,-2,5,9,0,-2,-1
62175745743,-2,0,-3,-4,3,-1,0,1
62175760879,1,-2,-3,-2,5,1,1,0
62175760879,-3,-4,-4,-4,2,-2,-2,-2
62175768370,2,3,8,-2,-11,-4,1,0
62175768370,1,-1,-1,-2,3,0,0,-2
62175784052,-1,-2,0,-1,9,3,-2,0
62175784052,0,0,-5,-3,6,-1,-1,-1
62175784706,-1,-3,-4,-2,-12,-1,-1,0
62175784706,0,1,4,1,-36,-5,-1,-2
62175798237,-1,-2,-3,3,2,-1,0,-2
62175798237,-1,-2,-4,-1,-15,0,0,-1
62175805770,-2,-3,-7,0,21,-2,-3,-3
62175805770,0,2,5,0,8,4,-2,0
62175820912,0,-1,-2,0,-16,-11,-3,-2
62175820912,-1,2,5,4,7,-5,-4,0
62175828390,1,2,1,-2,-11,8,1,-1
62175828390,1,-1,0,-1,-1,-5,-1,0
62175843757,-1,-2,-7,1,18,3,-1,-1
62175843757,-2,-7,-8,2,-15,-1,-1,-3
62175851561,-2,-4,-1,1,-6,9,0,0
62175851561,-2,-3,-8,1,10,-3,-4,-3
62175858340,-1,0,2,0,5,-4,-1,-1
62175858340,3,3,5,-1,-1,-6,0,1
62175865921,0,1,-1,4,8,10,0,2
62175865921,-2,-1,-2,-1,15,-11,0,0
62175880876,0,-4,-5,-1,-36,0,-1,-1
62175880876,-2,-3,-4,-2,12,1,-3,0
62175888355,-2,-1,0,-1,-9,-3,-3,0
62175888355,1,1,7,4,21,5,0,-1
62175903851,-1,1,2,-4,4,-6,0,1
62175903851,0,-1,-1,2,-10,8,1,0
62175904622,-3,-4,-4,-4,-14,-16,-2,-2
62175904622,-2,-2,-3,0,3,4,0,-2
62175918189,-1,-2,1,-2,1,0,0,-1
62175918189,-1,-1,-1,-2,-1,3,1,-2
62175925681,0,1,1,0,18,-4,-2,0
62175925681,-3,-5,-3,4,-23,-1,0,-1
62175940723,-2,-1,0,0,-2,4,-1,-2
62175940723,-1,-3,-10,-4,4,-3,-1,-1
62175948212,2,4,16,2,6,1,0,-1
62175948212,2,1,3,-5,15,7,2,0
62175963915,-1,1,0,0,-8,-9,0,-1
62175963915,-3,-1,-1,-1,-6,-3,-2,-3
62175964694,-1,-4,-4,-1,-5,-3,-1,-2
62175964694,-2,-4,-6,-4,0,2,-2,0
62175978163,-2,-2,-3,2,-7,0,0,-2
62175978163,1,1,3,-3,5,-5,0,0
62175985633,0,-2,-8,0,-11,-4,1,-1
62175985633,-1,-1,-1,0,15,9,1,-3
62176008875,-1,-2,-7,-1,-6,-8,-2,-3
62176008875,-2,0,1,0,-3,-3,-3,0
62176009631,1,-1,-1,-2,2,6,-1,0
62176009631,0,1,2,1,10,-1,-1,0
62176023915,-2,-1,0,0,-14,2,-2,0
62176023915,0,-5,-15,2,3,0,0,-2
62176024606,1,3,11,1,0,-2,1,1
62176024606,0,4,7,-5,-5,0,0,0
62176038406,0,-2,5,-1,8,4,-2,1
62176038406,-1,0,3,-2,7,6,-3,-4
62176045749,-1,-2,-15,-2,-23,-19,-3,-4
62176045749,-3,-5,-9,2,-8,-7,-4,-2
62176060885,0,-2,2,-2,5,1,-1,2
62176060885,-2,-3,-4,-2,-9,-1,0,0
62176068382,-2,-1,-3,-3,15,15,1,-1
62176068382,-1,-2,-3,-5,-23,-12,-2,-1
62176084050,1,2,3,1,7,-3,1,0
62176084050,0,-2,-2,4,-2,6,1,0
62176084750,0,-3,-2,1,24,-6,-3,-2
62176084750,-1,-1,-2,2,-18,4,1,0
62176098427,-1,-3,-6,-2,-7,-1,-2,-2
62176098427,-1,-1,5,-3,8,1,-1,1
62176105923,0,2,4,-1,-7,3,-2,1
62176105923,1,2,5,-1,2,0,-1,0
62176120810,-1,-1,-4,-3,8,3,-1,-3
62176120810,-1,1,3,1,-1,-7,-1,-1
62176128203,-3,-3,-7,1,-8,-1,-1,-1
62176128203,0,-2,1,-1,6,0,-1,-3
62176144034,-1,0,0,-1,-9,-12,-2,-1
62176144034,-2,-1,-4,-1,0,-3,0,0
62176144714,-2,-3,-2,-1,-8,-5,-1,-1
62176144714,0,1,-3,2,1,6,-3,-1
62176158195,0,0,2,-1,5,3,3,1
62176158195,0,-1,-1,2,-5,-2,-1,-2
62176165883,-1,0,1,-5,9,7,0,-1
62176165883,-1,-3,-3,-1,16,0,-1,-2
62176180848,-1,-4,-4,-3,-14,2,-3,-1
62176180848,-2,-3,-3,-2,-10,-12,-1,-2
62176188388,0,0,8,-3,3,4,2,0
62176188388,-1,-1,-4,1,-7,-6,-2,0
62176203408,0,3,4,0,21,4,-1,1
62176203408,0,2,3,-1,3,4,-1,0
62176211525,-1,-3,-5,-3,-8,2,-2,-3
62176211525,-1,-3,-1,-2,-1,-6,-2,-3
62176218442,-3,-2,-3,1,-1,0,-1,-1
62176218442,-1,-1,-2,1,6,2,-1,0
62176225782,-1,-1,-2,-7,-26,-12,-5,-1
62176225782,-1,-1,-2,2,4,-2,-2,-2
62176248882,-2,-2,-5,-1,-18,2,2,-2
62176248882,-1,-2,1,0,2,1,0,0
62176249648,-1,-2,0,-1,15,1,0,-1
62176249648,0,0,-2,-5,-12,0,-2,0
62176263844,-2,-2,-5,-3,-12,-17,-4,-4
62176263844,0,0,0,0,4,-1,-3,-2
62176264601,0,1,-3,0,-3,0,0,1
62176264601,-1,2,1,0,-1,3,-2,0
62176278234,-1,-3,-4,0,8,3,0,-1
62176278234,-1,1,1,1,-1,5,0,1
62176285710,-3,-2,-3,4,-14,-14,-1,-3
62176285710,1,-2,0,-4,1,6,-1,1
62176300709,-1,-3,-3,-4,5,0,-1,0
62176300709,-2,-2,-1,-4,-4,-4,-3,-3
62176308230,0,-1,-3,4,5,5,1,-1
62176308230,-2,-1,-1,-1,-12,-8,-1,-2
62176323210,1,-1,0,1,0,4,3,2
62176323210,0,-1,0,-2,12,0,1,-1
62176331450,-2,1,1,-3,-13,-8,-1,0
62176331450,-2,-2,-2,1,-22,-3,0,-1
62176338323,-3,-1,-3,-3,10,13,-2,-2
62176338323,3,1,0,-2,13,1,0,2
62176345848,-2,-4,-6,1,-2,-6,-2,-3
62176345848,-1,1,2,0,4,-2,2,0
62176360843,-1,0,-5,-1,-9,1,-2,-1
62176360843,-4,-3,-3,-3,2,2,1,-3
62176368406,3,3,2,1,-20,-3,0,1
62176368406,-2,-1,-4,-1,1,1,-3,-1
62176383364,0,-1,1,0,-2,-6,-2,0
62176383364,-1,-2,-1,1,-2,3,-2,1
62176391465,-3,-3,-5,-2,8,2,-1,-2
62176391465,0,1,1,-2,0,-4,0,0
62176398241,2,0,0,-7,32,4,2,-1
62176398241,-1,1,0,-1,-33,-9,0,-1
62176405889,-2,-1,0,-1,-6,0,-3,-2
62176405889,-2,-2,-4,-1,17,6,2,0
62176420878,-1,-2,-3,2,-13,-10,-2,-1
62176420878,-2,-1,3,1,9,-1,-2,-1
62176428377,-1,-2,-2,-1,0,0,0,0
62176428377,-1,2,3,1,14,5,0,-2
62176443285,-2,0,-1,-1,0,1,-2,-2
62176443285,-1,-2,-4,2,-21,-10,-1,-3
62176451556,-2,-2,-2,1,7,-1,-1,-1
62176451556,-3,-2,-3,-4,10,1,-2,-2
62176466575,-1,0,-1,-1,-8,-4,-2,-1
62176466575,0,-1,-3,-3,11,6,0,-1
62176467223,0,-1,1,-5,-3,1,-1,0
62176467223,-1,-1,-1,1,-13,-12,-2,1
62176482170,-1,1,3,-1,2,1,0,0
62176482170,-1,-3,-3,-2,-5,0,-2,0
62176488157,0,-2,2,4,-2,5,1,0
62176488157,0,0,0,-3,-5,-4,-2,0
62176503175,-1,-2,-3,2,-6,0,-1,-1
62176503175,0,4,2,-1,13,-5,-2,0
62176511414,-1,1,-3,-4,-21,-2,-1,-3
62176511414,0,1,-1,-1,-12,-5,1,0
62176526495,1,2,2,0,8,0,-1,1
62176526495,-2,-3,-4,-2,-4,-3,0,-2
62176527164,-1,0,0,3,27,-1,0,-1
62176527164,-2,-2,-3,-2,-18,3,1,-2
62176540772,0,-1,2,-4,2,1,-1,1
62176540772,-2,-3,-3,-2,8,0,2,-1
62176548332,1,-2,2,-2,-10,-2,-2,0
62176548332,-2,-9,-5,0,11,2,-1,-1
62176563381,0,-5,5,0,-6,2,-1,-2
62176563381,-2,-3,-3,1,-12,-3,-3,0
62176571617,-1,-4,-4,-4,5,2,-2,-2
62176571617,1,2,1,-1,12,2,-1,-1
62176586546,-2,-1,-6,-2,-15,-4,-1,-3
62176586546,-1,1,-2,-3,-13,1,0,1
62176587158,0,2,1,0,12,1,0,0
62176587158,-1,0,-2,1,-11,-2,-2,0
62176600833,-1,-1,0,-1,12,-1,-2,-1
62176600833,-2,-2,-4,-1,3,-1,0,-4
62176608266,-1,-3,-6,0,-43,-4,-1,-1
62176608266,0,3,6,1,5,1,1,1
62176623267,-1,1,-1,3,-7,0,-2,-3
62176623267,0,-1,0,-3,17,-4,-1,-1
62176631583,-2,-1,0,5,9,1,-2,0
62176631583,-2,-4,-4,-3,-7,0,-2,-1
62176646539,-1,0,-4,-1,-1,-4,0,-1
62176646539,0,-1,-1,0,-5,2,-1,0
62176647169,-1,-1,-2,-3,13,-5,-3,-2
62176647169,0,-1,-1,0,-13,4,-1,-1
62176660877,-1,-1,-2,1,20,1,0,0
62176660877,-1,1,1,1,-9,2,0,0
62176668246,0,12,0,1,-6,-4,-2,-1
62176668246,-1,4,-5,-1,8,-5,-1,-4
62176683385,-1,1,3,-3,14,-1,1,-1
62176683385,-1,-6,0,5,-32,-2,-2,-2
62176691812,1,-7,1,-3,9,-2,0,-2
62176691812,0,-6,0,-1,-4,-4,-1,-1
62176706476,-1,-8,-3,0,-1,3,-1,-1
62176706476,-2,-13,-1,-4,-6,-15,-3,0
62176707135,-1,-14,1,-3,5,7,0,0
62176707135,-1,-9,0,1,18,1,-3,-1
62176720876,-1,-5,-4,-2,-34,-4,-1,0
62176720876,-2,0,-4,-3,4,-1,-2,0
62176728420,-2,3,-1,1,-4,2,-2,-1
62176728420,0,6,0,-2,14,2,-1,1
62176743211,0,6,2,0,3,-6,-3,-2
62176743211,0,5,-5,-1,-3,2,0,-2
62176751633,-2,3,-1,0,-1,3,-1,-1
62176751633,-1,2,3,0,-9,-3,1,0
62176766617,-1,1,-3,1,2,3,0,0
62176766617,-1,2,0,-4,0,-3,-3,-2
62176767243,-1,-1,-8,-1,10,3,3,0
62176767243,1,2,2,-3,6,-7,-2,-1
62176780855,1,2,-1,2,-29,0,-2,-2
62176780855,-1,0,-1,0,33,-1,1,-3
62176788285,-2,0,-5,-1,-16,3,-1,-1
62176788285,-2,-2,-4,2,-10,-9,-1,-3
62176803256,-2,-1,1,-5,6,-6,1,-1
62176803256,-1,1,0,2,11,7,0,1
62176811381,0,2,-1,0,-8,-6,-3,-3
62176811381,-1,-4,-8,1,8,1,-1,-1
62176826390,-1,-1,0,0,-13,-5,-3,0
62176826390,3,4,8,-6,11,10,1,-1
62176827139,-2,0,-3,-1,-2,-7,-2,-1
62176827139,-1,-2,-4,-4,-16,-3,0,-2
62176840756,-2,-2,-1,0,6,1,-1,-1
62176840756,-3,-4,-7,-1,-7,-2,-2,-2
62176848235,1,-3,7,-3,13,-2,0,-1
62176848235,-1,-3,-7,-1,7,7,0,-1
62176863227,0,-2,5,2,-32,-10,-2,0
62176863227,-1,3,4,5,2,-7,1,-1
62176871440,-4,-6,-4,-2,-2,-9,-5,-3
62176871440,-4,-8,-32,-1,-1,-11,-7,0
62176886382,-2,-8,-14,-2,4,4,2,-1
62176886382,1,9,33,-2,0,4,-3,-1
62176887198,3,14,36,0,1,-3,3,2
62176887198,2,1,13,-2,1,7,4,1
62176900693,0,1,-11,-4,9,-3,-1,1
62176900693,-2,-9,-29,-5,-12,-3,-2,0
62176908188,-3,-7,-17,2,-1,3,-2,-2
62176908188,-1,2,1,1,-10,-2,-1,-2
62176923201,0,2,13,-1,7,4,1,1
62176923201,-2,0,2,4,-3,3,-1,0
62176931406,-1,-3,-8,-4,23,2,-2,0
62176931406,-1,-4,-5,-3,-29,-2,-2,-3
62176947021,0,0,-7,0,8,-4,-2,-2
62176947021,1,0,6,-2,-2,-3,0,-1
62176947728,-1,-2,-2,0,-13,-4,2,1
62176947728,-1,0,4,-6,32,9,0,-1
62176960833,-1,0,0,-2,-7,-6,0,-2
62176960833,-2,-2,0,1,1,-1,0,-1
62176968353,-3,-1,-11,-2,-4,0,0,-2
62176968353,0,3,16,4,-12,0,-1,0
62176983424,-2,-2,-5,-4,-6,-8,-1,-1
62176983424,-1,-3,-8,0,1,0,-4,-1
62176991374,-3,-1,-4,-4,-11,1,-3,-1
62176991374,-3,1,1,0,8,8,1,-1
62177006426,0,2,4,1,-5,-4,-3,-1
62177006426,2,1,0,1,-10,-11,-3,-1
62177007164,-1,0,4,-2,-7,-3,0,-1
62177007164,1,-3,-1,-3,3,-3,1,-1
62177020770,-2,-4,-7,-4,4,5,2,-1
62177020770,-2,-3,-8,1,-3,-1,0,0
62177028225,0,-2,-1,0,1,4,0,0
62177028225,-3,-2,0,1,-12,-8,-2,-2
62177052116,-2,-4,-2,-1,-5,-7,-2,-2
62177052116,1,1,3,0,-13,-10,0,-1
62177052909,0,1,0,-2,27,13,2,-1
62177052909,-1,-2,-2,-4,-15,-11,-3,-2
62177066472,-1,2,4,0,6,6,-1,-2
62177066472,-2,0,-6,-1,-5,2,1,-1
62177067161,0,-2,-1,2,-30,-4,-1,1
62177067161,-2,0,-1,-2,-6,0,-3,-2
62177080941,-1,-1,1,0,1,6,-1,0
62177080941,-3,-3,-5,-4,-2,2,-3,0
62177088446,-1,0,0,1,17,-3,-1,-1
62177088446,-1,2,0,0,2,2,0,1
62177103412,1,0,3,-1,-3,-8,0,1
62177103412,-2,-4,-4,-1,12,8,3,-2
62177111579,-2,-3,-2,-1,-5,-7,-3,-2
62177111579,-1,-2,2,-1,-1,-3,-1,-1
62177134529,-1,0,-2,-2,-5,-4,-1,-1
62177134529,0,-1,1,-1,14,5,0,0
62177135214,-2,-4,-3,-1,1,-1,-1,-1
62177135214,-1,-4,-2,-3,2,-2,-2,-1
62177142277,0,-2,-3,1,4,1,-2,-2
62177142277,1,1,6,-3,-2,-2,-1,-1
62177148326,0,-1,-1,-5,-5,-14,-3,-1
62177148326,-1,-1,2,-2,2,5,-1,-1
62177163369,-3,-5,-8,0,-21,-3,0,0
62177163369,-2,-2,1,-2,47,11,-1,-1
62177171444,0,3,-1,-1,-37,-8,-1,-1
62177171444,0,-1,-4,0,21,1,0,-2
62177186413,-1,-1,3,0,4,1,-2,-1
62177186413,0,-2,-7,-1,-25,-8,-2,-2
62177187128,0,0,-3,0,22,4,0,0
62177187128,0,3,3,2,-11,-3,2,0
62177200914,-2,1,1,-3,4,7,2,0
62177200914,0,-4,-3,-1,-1,0,-2,0
62177208290,0,-4,-1,2,0,2,-1,-1
62177208290,-1,-2,-3,1,-14,-5,-1,0
62177223273,-1,-1,0,-3,17,3,0,1
62177223273,-3,2,0,-2,-14,-6,-3,-1
62177231633,-2,-2,-2,-3,6,5,-1,-2
62177231633,0,-2,-2,2,9,-6,-4,-2
62177246383,-3,-5,-5,-1,-26,-2,-3,-2
62177246383,-2,-2,-5,-3,12,-5,-3,-2
62177253973,2,5,8,-6,-9,1,1,2
62177253973,0,0,2,-1,15,3,0,-1
62177260764,-1,2,0,0,-11,-4,1,0
62177260764,-3,-3,-7,-1,-6,1,-2,-2
62177268407,-3,-2,-6,1,5,2,0,-2
62177268407,-2,-3,-2,-3,0,-3,-3,-2
62177283455,1,1,5,0,1,-2,-1,-1
62177283455,-1,-2,-3,1,-10,-2,1,-2
62177291455,0,-4,-3,-1,2,3,0,0
62177291455,0,-3,3,-2,17,3,-1,1
62177305853,-2,-5,-3,1,-8,1,0,0
62177305853,0,-4,1,-5,0,1,0,-1
62177313874,-2,-4,-1,-5,7,2,0,-2
62177313874,0,-1,-1,2,-14,-5,-2,-2
62177320937,-1,1,1,-2,10,1,0,-2
62177320937,1,3,1,1,-11,-5,-2,-1
62177336459,-2,0,-3,-1,3,0,1,-1
62177336459,0,2,-3,-2,7,5,0,-2
62177343327,0,2,0,-2,3,-3,0,-2
62177343327,-2,3,-1,3,-7,-2,-1,1
62177359076,-3,0,-3,0,-3,0,-1,-3
62177359076,-3,0,1,-1,15,6,-1,0
62177374583,0,-1,-6,-4,-7,-13,-3,-1
62177374583,-2,0,0,-3,-8,1,1,0
62177375456,-3,-1,-2,-1,13,-4,-3,0
62177375456,0,2,3,-4,-25,0,-1,-2
62177380912,-2,2,-2,2,-4,6,0,0
62177380912,0,1,1,-1,2,-1,-2,0
62177388405,1,0,-4,3,-5,-3,-1,-2
62177388405,-3,-2,-4,2,9,-3,0,-3
62177403760,-2,1,-2,-2,7,2,-1,-1
62177403760,-1,1,0,-1,-16,-7,-3,0
62177411479,1,0,0,4,6,0,-1,1
62177411479,0,-1,-5,-4,-8,-2,1,1
62177425780,-2,-3,1,2,-2,-6,-1,0
62177425780,-1,-2,-1,0,-4,-1,0,-2
62177434016,-1,-2,0,1,-2,-1,-1,-1
62177434016,-1,0,-2,0,7,1,-1,-2
62177449025,0,-3,-2,-1,-2,2,-3,-1
62177449025,-2,-4,0,-2,3,-1,0,-1
62177449700,-2,-4,0,0,6,-2,-2,-2
62177449700,-2,-3,-2,2,-23,-2,-1,0
62177463229,0,2,4,-2,29,2,-1,-1
62177463229,1,3,1,-3,-16,-1,1,0
62177471658,-1,-3,-1,-1,-1,0,-1,-1
62177471658,1,-1,-1,1,1,-2,-2,0
62177485913,-1,-5,0,-2,9,4,0,-2
62177485913,-2,-4,-7,2,5,-5,0,-3
62177493918,-1,-1,-3,-4,-9,-3,-2,0
62177493918,-3,-3,-4,-5,-2,-2,1,-1
62177508926,-2,-3,-2,0,-37,-4,1,0
62177508926,-1,-4,0,0,18,5,-4,-2
62177509639,-1,-3,-2,-1,-19,-5,-1,0
62177509639,-1,-1,0,-3,13,4,1,-1
62177523376,1,0,0,0,2,1,0,0
62177523376,-1,0,-2,3,-6,-3,0,-1
62177531385,-1,0,-1,-3,2,0,-1,-1
62177531385,0,1,3,-2,-2,0,-1,1
62177545870,-1,-3,1,2,4,0,0,0
62177545870,-2,-4,-3,-3,10,1,0,-1
62177554153,-2,-2,-2,-2,-20,-1,0,-1
62177554153,-1,-2,-1,0,-5,-5,-2,-2
62177569098,0,-2,-2,-3,9,0,-2,-1
62177569098,1,-1,-1,2,-8,1,0,-1
62177569708,0,0,9,-3,7,-1,0,0
62177569708,-1,-4,-7,0,-14,-2,-1,-1
62177583302,-2,-3,-6,0,-1,-10,-2,-2
62177583302,-1,1,3,-4,14,7,-2,-2
62177599065,1,0,-2,-4,12,0,-1,-1
62177599065,1,-2,0,1,42,5,0,0
62177605927,0,-2,-4,-1,-49,-5,-1,-1
62177605927,-4,-4,-6,1,-10,-8,-2,-1
62177613965,2,1,7,-4,-1,-4,1,1
62177613965,-3,0,-2,0,-4,-1,-2,-1
62177629072,-3,0,0,-5,22,-1,-3,-1
62177629072,-3,-1,-3,-1,-6,-1,1,0
62177629745,-1,0,-4,-2,-4,0,1,-2
62177629745,1,0,0,-3,0,-4,0,0
62177652186,0,2,-1,-1,3,3,-2,0
62177652186,1,-1,-1,-5,-15,-3,-1,0
62177652942,-3,-5,-5,2,17,1,-3,-2
62177652942,-3,-2,1,-1,-21,-7,0,-3
62177665850,1,0,5,-2,10,2,2,0
62177665850,1,0,1,-5,7,0,2,-1
62177673914,-3,-1,-4,-1,4,4,-1,-2
62177673914,-2,-2,-5,-2,-20,-6,-4,-2
62177688954,-1,-2,1,-1,8,-2,-1,-1
62177688954,-1,-2,1,-1,2,0,0,0
62177689699,0,-1,-6,5,-18,0,0,1
62177689699,1,3,7,0,5,2,1,-1
62177703445,0,1,0,0,0,3,1,0
62177703445,-3,-3,-1,1,0,-6,0,-1
62177711645,-3,-3,-7,-3,-13,-4,-2,-2
62177711645,0,3,5,0,-2,1,-2,0
62177725856,1,-2,-2,1,29,2,-2,-2
62177725856,-1,0,-4,-3,-18,-1,-1,-2
62177733899,-1,-2,4,1,-10,-5,-1,-1
62177733899,-1,-4,-12,1,8,-2,-1,-2
62177749093,-1,4,7,1,-17,-4,1,-1
62177749093,-2,4,4,2,12,2,-1,0
62177749762,-2,-3,-7,-1,-8,-9,-1,-2
62177749762,-1,-2,-1,-1,9,-5,-1,0
62177763358,-3,-2,-7,0,-12,6,1,0
62177763358,-3,-1,-1,-2,-3,-2,-3,-2
62177779134,-1,1,2,3,-1,-2,-2,-1
62177779134,-2,-3,-5,2,-4,0,1,-3
62177785937,-4,-10,-10,-1,7,-1,-2,-1
62177785937,3,3,5,0,4,7,1,-1
62177794115,-2,-3,1,-4,-5,-9,0,-2
62177794115,-1,-7,-9,-1,-22,-8,-2,1
62177808928,-2,1,5,-1,7,-1,-3,-2
62177808928,0,6,3,1,4,4,-1,0
62177809647,0,4,3,3,9,6,1,0
62177809647,-1,2,0,-2,9,-3,1,0
62177823288,-1,-1,-4,-1,-28,2,4,0
62177823288,-1,-4,-7,2,18,0,0,-1
62177831380,-1,0,-3,-1,3,0,-1,0
62177831380,-2,-1,0,-1,-24,0,0,0
62177845935,1,0,0,-4,12,-1,-3,1
62177845935,-1,1,-1,-3,2,-2,-2,-2
62177854126,1,-2,-3,0,0,6,1,0
62177854126,1,0,0,4,3,1,-3,-3
62177869102,-1,0,-3,-4,-10,-5,-2,-3
62177869102,-4,-2,2,0,-9,-4,-1,-1
62177869784,-3,-4,-5,-3,24,6,0,-1
62177869784,-3,1,1,-6,-7,1,0,-1
62177883439,-1,-2,-2,3,3,-1,0,-2
62177883439,-2,-4,-2,0,-14,-8,-2,-2
62177891492,1,0,-1,0,-2,-2,-1,-1
62177891492,-1,2,1,-4,5,-2,-3,-1
62177914795,-1,-1,-1,-1,-1,-5,-2,-2
62177914795,1,-1,-1,0,-1,0,0,0
62177915399,-1,1,0,-1,-23,-6,-2,-1
62177915399,0,-2,1,1,3,0,0,0
62177928925,-1,1,1,-5,6,6,-1,0
62177928925,-1,-3,-4,-3,4,0,0,0
62177929724,0,-2,-1,-3,-3,0,-2,-4
62177929724,-1,1,-1,3,1,4,-1,-1
62177943310,0,2,4,-1,0,-5,-1,0
62177943310,0,-2,-3,2,0,1,-1,0
62177951584,-3,-4,-4,2,-6,-3,-1,-2
62177951584,-2,-5,-4,-4,-5,-2,0,-2
62177965939,0,0,7,0,12,2,-2,1
62177965939,2,1,4,1,7,4,0,2
62177974033,0,0,-1,-6,-6,-7,-2,0
62177974033,0,-2,-6,1,-5,2,0,-3
62177988916,-2,-2,-5,2,18,0,-2,0
62177988916,0,1,2,-3,-21,-13,-5,-2
62177989643,1,2,3,-1,-11,0,0,1
62177989643,-2,1,2,1,4,1,-1,-1
62178003341,0,-3,-5,-1,-11,-6,-1,-1
62178003341,-3,-5,-4,0,16,7,-2,-2
62178011660,0,-2,-3,1,4,2,0,0
62178011660,0,0,2,-2,-5,-9,-1,-2
62178025884,-2,0,-4,-1,-1,3,1,0
62178025884,-1,-3,-2,-3,3,1,1,-1
62178034212,0,-2,0,1,-11,-9,-1,0
62178034212,0,-4,0,-2,2,9,1,1
62178049158,0,-2,-2,-1,-6,-7,1,0
62178049158,-1,-3,-5,-4,3,-8,-1,-1
62178049797,1,5,10,-2,-6,2,-1,1
62178049797,0,1,1,2,3,2,1,1
62178063285,-2,-1,-3,-2,-2,0,-4,-2
62178063285,-4,-4,-4,4,-13,-3,-3,-3
62178071602,0,0,-2,-3,16,-1,-1,-2
62178071602,-3,1,0,-3,-4,-3,-1,0
62178085968,-1,-1,-2,1,1,4,-1,-2
62178085968,0,-2,-2,3,0,-3,1,-1
62178094005,-3,-4,-5,0,0,-1,-3,-1
62178094005,1,-3,0,0,1,4,-3,-1
62178109389,1,2,2,-3,-1,-5,-1,-2
62178109389,0,-1,-2,-3,-6,-1,0,-3
62178116504,0,-2,0,-2,36,-2,-1,-4
62178116504,-2,-2,-4,2,-41,1,-1,-1
62178123415,-1,-5,-4,-1,9,-4,-1,-2
62178123415,1,1,2,0,-1,4,2,2
62178131608,-1,0,1,-1,0,-4,1,0
62178131608,-1,0,-2,1,9,-6,-2,-1
62178145850,-1,0,-2,-2,0,2,-2,-1
62178145850,-3,-2,-2,-3,-8,-3,-1,0
62178154117,-2,-2,-3,3,3,3,-1,-2
62178154117,1,1,-1,-2,-3,-4,-2,-2
62178168316,-1,0,1,2,-6,-3,-1,0
62178168316,-3,-3,-4,-1,6,3,2,0
62178176423,-1,0,1,2,-9,-5,-4,1
62178176423,-2,-1,-3,0,17,-3,-3,0
62178183298,-1,-5,-6,-3,-26,0,-1,-2
62178183298,-3,2,1,-1,2,2,-1,-1
62178191496,-1,-1,-2,1,-2,2,0,0
62178191496,0,1,2,-3,0,-5,1,-1
62178205930,-1,2,2,1,16,6,0,-1
62178205930,-2,-1,-2,-1,-10,-6,-3,-3
62178214127,-2,-1,-3,-3,-8,3,-1,-2
62178214127,0,-2,-4,1,9,-4,-1,-1
62178228347,-3,-3,-1,1,0,-5,-3,-1
62178228347,1,0,3,1,13,-2,0,0
62178236585,0,0,0,-6,-30,7,1,0
62178236585,-1,0,2,-1,27,5,1,1
62178243369,-2,-2,-3,-1,-32,-2,0,0
62178243369,-1,-3,-4,-1,4,1,-3,-1
62178251618,0,-1,-2,-3,7,-2,-1,-3
62178251618,0,-2,1,-1,-1,4,1,-3
62178266017,-2,-2,0,1,3,-5,-1,-2
62178266017,-2,-1,-1,-3,-5,-4,-2,0
62178274780,-1,-1,0,-3,0,1,-2,-1
62178274780,1,2,5,-1,-1,1,-1,1
62178288416,0,0,-6,-1,11,-3,1,-1
62178288416,0,-3,-7,2,-24,-2,-3,-2
62178297380,-1,0,2,-2,-5,-6,-2,0
62178297380,-1,-2,0,-3,7,-1,0,0
62178303452,-1,0,2,-2,17,7,1,0
62178303452,-3,-2,-3,3,-25,-4,1,0
62178318485,-3,-2,-1,2,-3,0,-2,-1
62178318485,-1,-1,-3,1,-4,-5,-4,-1
62178325836,0,-2,0,-3,4,0,-2,0
62178325836,-1,-1,-2,-1,7,1,-1,1
62178334746,-3,-1,-1,-4,16,-1,-1,-1
62178334746,-1,-2,-3,2,-29,-5,-3,-1
62178348313,0,0,-2,4,-8,4,0,-1
62178348313,0,-1,3,-5,15,-3,-2,-2
62178357217,1,-1,3,-5,-13,-2,2,0
62178357217,0,-1,-1,-2,5,-3,0,0
62178371010,-1,-3,-6,-1,-3,-2,-3,-2
62178371010,-1,-1,-2,-1,-5,2,-3,-3
62178379794,1,0,-6,2,14,-1,-3,0
62178379794,-2,0,-3,-2,-11,0,-2,-3
62178385800,-1,-1,2,-2,-7,-2,-1,0
62178385800,1,2,2,-2,-20,-8,2,0
62178394800,-3,-3,-5,1,12,11,0,-2
62178394800,-1,-1,-3,-2,-13,-10,-2,-3
62178408309,1,-2,-1,3,9,-1,-1,-2
62178408309,1,1,3,-4,7,-3,-1,0
62178417242,-1,1,3,-3,-11,-5,-1,2
62178417242,-3,-1,-4,-2,1,5,0,0
62178431519,-3,-3,-3,-2,1,-2,0,0
62178431519,-3,-4,-5,0,3,2,-1,-2
62178438439,-1,-2,-3,0,8,-4,-3,0
62178438439,0,-1,-2,-3,-19,-3,-1,1
62178445852,1,4,12,-1,5,-3,0,1
62178445852,1,0,1,-2,42,6,0,-1
62178454723,0,-2,0,-1,-59,-5,-1,-2
62178454723,-4,-2,-4,0,4,0,-3,-1
62178468500,-2,-1,-7,-2,-10,0,-2,-2
62178468500,0,0,0,-2,6,-2,0,0
62178477301,-3,-2,0,0,25,2,0,-1
62178477301,-1,-2,-2,1,-6,-3,0,-3
62178490820,-2,-3,-3,2,-14,-4,1,-2
62178490820,0,-1,-1,1,12,9,1,-2
62178499758,0,0,-1,0,2,-10,-1,-3
62178499758,0,0,1,0,-1,-6,-2,-3
62178505813,-3,-1,-4,0,-12,1,-1,-1
62178505813,-3,-2,-2,-1,-5,4,-2,-1
62178514782,0,-1,-6,-3,-6,6,0,-3
62178514782,0,0,0,3,6,-2,0,1
62178528363,1,0,0,-2,18,-1,-2,1
62178528363,-2,-1,-2,2,-26,-6,-2,0
62178537381,-3,-2,-2,2,7,-1,0,-1
62178537381,-3,-4,-5,0,4,2,-1,-3
62178552113,-2,-2,4,-5,28,-6,0,-1
62178552113,0,2,4,-2,-38,6,-1,0
62178553791,0,0,-2,-2,21,-9,-2,0
62178553791,0,2,1,2,-1,3,-1,-1
62178565837,-1,1,-6,-1,-9,-4,0,-2
62178565837,-1,-1,-3,-3,12,-8,-2,-2
62178574773,-1,-1,2,-2,1,5,-1,1
62178574773,0,-2,-2,0,-17,2,1,0
62178588538,1,0,2,1,-1,2,-2,1
62178588538,-1,-2,-2,2,17,0,0,-1
62178597265,-2,-1,-5,2,-5,-5,-2,-1
62178597265,-3,0,0,2,-6,-5,1,-1
62178612255,2,2,5,2,-16,-2,-1,-1
62178612255,-3,-3,-6,-3,-7,-4,-1,-1
62178613744,1,2,4,-3,8,3,0,2
62178613744,-1,-2,-1,-2,9,7,1,-1
62178625770,-1,0,-3,1,7,-4,-2,-3
62178625770,-2,1,0,-1,-28,-5,0,-2
62178634880,-3,-3,-5,1,-17,0,-1,-3
62178634880,-2,-3,0,0,7,-2,-1,0
62178648331,0,-4,-1,-2,0,5,0,0
62178648331,1,0,0,2,14,-7,-2,2
62178657267,0,1,1,0,4,11,-1,-2
62178657267,0,0,0,1,-4,-12,0,0
62178670933,-4,-3,-6,-1,2,0,0,-1
62178670933,-1,-2,-1,1,3,0,-1,0
62178679777,-2,-3,-1,-1,-8,-4,-3,0
62178679777,0,0,3,-5,-3,0,-2,-1
62178685764,-1,0,-5,-3,-22,-5,0,0
62178685764,0,2,3,-4,-3,-3,-2,-1
62178694791,0,-1,0,1,-7,-3,1,-3
62178694791,0,-2,1,-4,24,7,-1,-2
62178708305,-2,-3,-4,-2,-7,-3,-2,-3
62178708305,-1,-2,-2,-4,-12,-3,-2,0
62178717294,0,-1,-4,-2,11,0,-1,0
62178717294,-2,-2,1,-5,-6,-3,-1,0
62178730996,-2,1,2,-4,-7,-5,-2,0
62178730996,-2,-2,-2,-2,7,5,0,-2
62178739839,0,-1,1,-3,7,-5,0,0
62178739839,-1,-2,-6,-3,2,5,-3,-3
62178745942,0,0,5,0,-24,2,-1,-1
62178745942,0,0,0,0,-22,-7,0,-1
62178754845,-1,-2,-4,0,-13,-6,-1,-3
62178754845,0,0,6,1,11,3,1,-1
62178768308,0,-3,-1,-2,22,0,-1,0
62178768308,-2,-2,-1,0,5,-2,-2,0
62178777276,0,-1,0,-7,-8,-4,-2,-1
62178777276,0,-2,-4,-3,0,-1,-1,0
62178791431,1,-1,1,3,3,2,-1,-1
62178791431,-2,0,-3,0,3,0,-2,-2
62178798198,-2,-1,-3,-1,-14,-7,-3,-1
62178798198,0,-3,-2,-1,-14,-2,-1,2
62178805733,0,-1,0,-1,16,5,0,-3
62178805733,0,-2,-1,-2,0,4,0,0
62178814730,-2,0,-2,0,11,6,1,1
62178814730,1,0,-1,-2,-16,-13,0,-2
62178828211,-1,-2,-3,0,-2,4,0,0
62178828211,1,0,0,-2,29,1,-1,-1
62178837224,1,-3,-1,-3,-28,-3,-1,-1
62178837224,-2,-1,-4,2,4,-2,-1,-2
62178850746,-2,-1,1,-5,-6,-8,-1,0
62178850746,2,3,6,-6,13,6,1,-2
62178859756,-1,-1,2,0,9,0,-2,-1
62178859756,-3,-1,-2,-3,-4,2,-1,0
62178865724,-4,-3,-7,-4,4,-5,-3,-3
62178865724,-5,-5,-6,4,-24,-7,-1,-2
62178874750,1,0,0,0,-16,-2,0,0
62178874750,2,0,4,-3,3,2,0,0
62178888300,0,-1,-1,1,2,-1,-1,-1
62178888300,-2,-2,-4,-6,-1,-11,-6,-2
62178897257,-1,-3,-3,2,10,0,2,-1
62178897257,-2,-2,-1,2,-5,1,0,-1
62178910865,-2,2,0,-2,1,2,-1,0
62178910865,-3,1,-2,2,-15,-1,-2,-1
62178919760,-2,-1,-1,0,11,2,-1,-1
62178919760,-2,-1,4,-2,-2,-3,-1,-1
62178925839,0,-2,-2,3,-8,1,1,2
62178925839,-2,-2,-2,1,-1,-3,0,-1
62178949157,-1,-2,-2,0,28,1,-3,-3
62178949157,-1,-1,-3,0,-27,1,0,-1
62178949827,0,-1,-2,-2,-13,1,0,-1
62178949827,1,0,1,-2,2,5,1,-1
62178957250,-1,0,-3,-2,-3,-4,-1,0
62178957250,-1,0,-2,-3,9,-1,-3,0
62178970924,-1,-2,-1,2,10,-2,-2,-1
62178970924,1,-2,0,2,-2,-2,-1,0
62178979713,-3,-2,-1,-2,4,1,2,0
62178979713,-1,-4,-3,0,-3,-4,0,-1
62178985782,-1,-2,-1,0,-12,-6,-1,-2
62178985782,-2,-2,-4,0,6,-8,-2,-1
62178994814,0,2,-1,2,20,6,1,0
62178994814,-1,2,7,-2,-24,-4,-4,0
62179008289,0,0,-3,0,-6,0,-1,-1
62179008289,-1,-2,-3,-2,3,6,2,-1
62179017329,-2,-3,-5,0,-2,-2,-1,-1
62179017329,-2,-2,-7,1,5,2,-1,-1
62179031550,0,0,5,-5,19,-9,-1,-1
62179031550,0,-1,1,1,-18,2,-3,-1
62179038504,0,-2,-3,-5,6,-5,-5,-2
62179038504,0,-1,1,-4,0,0,2,1
62179045947,-2,-1,-4,3,-8,-1,2,-1
62179045947,-2,-2,-1,-2,4,5,1,1
62179054761,1,2,8,-3,2,-3,0,2
62179054761,-2,-1,-2,2,1,3,-1,-2
62179068489,-1,-3,-2,-3,-5,2,-2,-1
62179068489,0,-3,-1,-3,8,2,1,-2
62179077208,-3,-3,-5,-3,-31,-14,-1,-3
62179077208,0,-1,0,-2,29,4,-1,-1
62179091564,-2,-1,-5,-3,-5,-4,0,-1
62179091564,1,1,1,0,-8,-3,0,0
62179098325,0,-3,1,2,5,4,-2,-1
62179098325,-2,2,4,-1,-13,-8,-2,-1
62179105931,1,0,-1,-2,5,5,-1,-1
62179105931,-2,0,-1,-4,19,1,-1,0
62179114764,-1,0,0,1,-29,7,2,0
62179114764,-4,-3,-8,-3,-24,-25,-4,-1
62179128428,1,-3,-2,0,-4,8,0,1
62179128428,-1,0,0,-1,28,1,0,1
62179137327,1,0,4,-5,-27,-6,-2,-2
62179137327,-1,-2,-4,-3,6,8,1,-1
62179151605,0,-1,1,-1,4,-9,-1,-1
62179151605,0,-3,-4,2,-14,4,0,-1
62179158286,-1,-3,-4,1,23,5,-2,0
62179158286,0,-3,0,-4,5,8,-1,-1
62179165928,-3,-2,0,1,-4,-1,-1,-2
62179165928,-1,1,1,-2,10,-4,0,0
62179174784,-1,0,-2,4,-19,-8,-1,-1
62179174784,-1,-4,-6,-2,22,1,-1,-3
62179197333,1,6,11,-2,-5,1,-1,-1
62179197333,-1,0,0,0,-30,-3,-1,-1
62179198782,-1,0,-3,-4,23,8,-1,-1
62179198782,-2,-3,-5,2,1,-3,0,0
62179211513,-3,-4,-7,-4,0,0,0,-4
62179211513,-3,-2,-2,-3,2,-1,0,0
62179218457,-1,-2,-4,0,0,-3,0,-2
62179218457,1,-1,1,0,4,6,0,0
62179225729,-1,-2,-3,2,-2,2,0,-1
62179225729,1,-1,0,-1,-17,-6,0,-2
62179234855,-1,-2,-2,-3,-4,3,-1,-1
62179234855,1,0,-1,1,14,3,-1,-2
62179248495,-2,-2,-5,-2,1,-4,-3,1
62179248495,-2,-2,-3,-1,-8,-3,-2,-2
62179257296,-2,-1,1,-1,27,8,0,-1
62179257296,2,2,2,3,-41,-15,-1,1
62179271513,0,2,0,0,-7,1,0,0
62179271513,1,0,1,-4,1,-5,-2,-1
62179285774,-4,-2,-7,1,-8,-5,-2,-3
62179285774,-3,-3,-2,-4,11,6,-1,-3
62179294588,0,-1,-2,0,32,2,-1,0
62179294588,-1,2,4,4,-54,-10,-2,1
62179296163,1,-2,-1,0,18,-1,1,0
62179296163,1,2,-3,-1,6,5,1,1
62179308267,-3,-1,1,-2,-5,-4,-2,-1
62179308267,-1,0,-3,2,22,3,0,-2
62179317247,1,-1,-3,-3,-15,-4,0,-1
62179317247,-2,-1,4,-4,-7,-4,-3,-3
62179331941,-3,-2,-3,-2,9,2,0,0
62179331941,0,-1,2,-3,12,0,-2,1
62179338250,-1,-3,-3,3,-20,-1,-1,1
62179338250,-1,-2,-2,-1,-7,-6,-1,-1
62179354824,-1,-2,-5,-2,-5,-6,-4,0
62179354824,-1,1,4,-4,14,6,1,-1
62179356304,0,-1,-2,-1,0,4,-1,-2
62179356304,-1,-2,-2,2,12,2,1,1
62179368405,-1,1,2,-2,-5,-10,0,-1
62179368405,0,0,-3,1,-30,-4,1,1
62179377249,0,0,2,-5,23,-2,-1,0
62179377249,-1,-1,-4,-4,22,1,-3,-2
62179391500,-1,-4,-6,1,-31,-5,-1,-3
62179391500,-1,0,1,-1,21,1,-2,-2
62179398456,0,0,0,-2,-20,-1,-1,0
62179398456,-1,-1,1,1,1,1,-1,0
62179414605,0,-2,-3,-1,7,5,-1,-1
62179414605,-2,-4,-3,1,9,4,-2,-2
62179416250,-2,-1,-2,-3,-23,-15,-4,1
62179416250,-3,0,0,0,-1,2,3,1
62179428480,0,1,5,-3,3,0,0,-2
62179428480,-2,-2,-5,0,-9,-4,1,-2
62179437295,-3,-2,-2,2,1,0,0,-3
62179437295,0,-2,-3,-3,-11,-1,-2,0
62179451708,-2,-3,-4,0,-7,-3,-2,-1
62179451708,-1,-2,-1,1,34,4,-4,-2
62179458316,3,4,6,-1,6,-1,2,2
62179458316,0,2,0,0,-35,-3,-3,-1
62179474701,1,-1,-1,0,-6,0,-1,0
62179474701,-3,-2,-5,-2,4,-2,-4,-3
62179476189,-1,-1,-1,0,8,4,-1,-3
62179476189,-1,-1,2,0,14,0,0,-1
62179488315,-2,-3,-2,-6,-5,1,-1,-2
62179488315,-1,-2,-3,-4,-7,-3,-1,1
62179504834,0,-3,0,1,1,-2,-2,-2
62179504834,0,-2,-3,-3,-6,-3,0,-1
62179511542,-3,-2,1,1,4,2,-2,-1
62179511542,0,-1,-1,-4,-8,-2,0,0
62179518451,-1,-2,-2,2,-7,1,-1,-2
62179518451,0,0,1,1,9,-2,-3,0
62179534796,1,0,0,-2,7,6,1,-1
62179534796,0,0,-2,-5,-10,-3,0,-2
62179536261,-1,-1,-3,-4,-10,0,-2,-1
62179536261,0,-1,-3,2,9,1,-1,-2
62179548471,-1,1,0,-1,-18,0,1,0
62179548471,-3,-1,-2,2,-3,-2,-1,0
62179557277,-3,0,-1,-3,-1,0,-1,-2
62179557277,-3,-1,-2,1,5,2,0,-1
62179571725,-1,-3,-2,-1,0,-7,-2,0
62179571725,-1,-3,-3,-5,22,0,-2,-1
62179578457,0,-1,6,0,-19,0,-1,1
62179578457,-1,-2,-4,-2,-6,-4,-2,-2
62179594838,-1,2,1,0,-3,-3,1,1
62179594838,-1,-2,-3,1,0,0,-2,-1
62179596236,-1,0,-6,2,15,4,-2,-1
62179596236,1,1,6,-2,2,5,3,0
62179608310,-1,0,0,3,8,-2,-1,0
62179608310,-1,0,-1,-1,-16,0,0,-1
62179617267,-1,-3,-3,-3,-5,-3,0,0
62179617267,0,-2,-2,0,-5,-1,-1,-2
62179631685,-1,-4,-2,3,8,1,-1,0
62179631685,0,0,-1,-3,0,0,-1,0
62179638439,-1,1,0,-3,6,0,-1,0
62179638439,0,-1,-2,-3,-5,-4,-1,-2
62179654759,-1,-1,-1,0,6,-2,-1,0
62179654759,-2,-2,1,-2,-4,-1,0,-3
62179656252,-3,-3,0,0,-6,-3,-1,0
62179656252,-2,-1,-1,3,6,-2,-3,2
62179668432,0,0,-1,0,-5,-1,0,1
62179668432,-1,-1,-2,4,-10,-2,-2,1
62179677231,0,0,-1,1,4,-1,0,-2
62179677231,-1,-1,-2,-1,-11,-5,-1,-1
62179691527,0,-2,-1,-2,8,1,-2,-3
62179691527,-2,0,-2,2,2,-2,0,-2
62179698375,-1,0,1,-4,7,-1,0,1
62179698375,-2,-1,-3,1,-19,-2,-2,-1
62179714832,-2,-1,-1,-2,-15,-5,-1,0
62179714832,0,-3,-5,2,15,-3,-3,0
62179716225,-2,-1,-6,-3,-2,1,0,-1
62179716225,0,0,1,-1,6,-1,-2,0
62179737371,1,1,-1,0,11,2,0,0
62179737371,-1,-2,0,2,-15,-3,0,-1
62179738749,1,1,2,1,17,-1,-1,-1
62179738749,-1,-3,-3,-8,-6,1,0,-2
62179751503,-2,-2,-4,2,-23,2,-1,-1
62179751503,-1,0,-2,0,5,-2,-2,-1
62179758307,-1,-1,-1,-1,-14,-3,-2,-1
62179758307,-1,-1,1,0,16,3,2,0
62179773741,0,1,1,-2,2,-2,-1,-1
62179773741,0,-2,1,1,-10,-3,-1,0
62179782284,0,-2,-1,3,11,1,0,-2
62179782284,0,0,1,-4,-3,-3,-1,0
62179788269,-1,-4,-5,-5,0,1,0,-1
62179788269,-1,-1,-1,-4,-4,0,0,-1
62179797298,1,-1,-1,3,-6,0,-1,1
62179797298,-3,-2,0,1,6,2,-3,-1
62179811435,-1,1,3,-1,19,-1,-2,-1
62179811435,-1,-1,-4,0,-29,-2,2,-2
62179818256,-2,-1,-2,-4,0,-5,-1,-2
62179818256,1,2,4,-2,-5,-1,2,2
62179834630,-2,-2,-7,1,6,-1,-3,1
62179834630,-4,0,-3,-2,1,-2,-1,1
62179836251,0,-1,-2,-2,7,1,-1,-2
62179836251,-1,-3,-2,2,-22,-4,-3,-2
62179857117,0,1,6,-1,0,2,-1,-1
62179857117,0,-2,-4,-5,17,6,0,-1
62179858745,-1,-1,0,0,6,5,-1,-1
62179858745,0,1,-3,-5,3,-8,-2,-2
62179871466,-1,-2,-3,0,-13,1,0,-1
62179871466,-2,-1,2,-2,-8,-3,-1,-1
62179878368,-1,-2,0,-1,2,-3,0,-2
62179878368,-3,-3,-5,-3,3,-1,-2,-2
62179894793,-3,-1,-1,0,-11,-6,-1,-2
62179894793,1,0,0,-2,11,4,-1,0
62179896253,1,3,2,-4,-5,-2,2,2
62179896253,0,-2,-2,3,7,3,0,-2
62179908377,-1,-3,-3,2,-14,-5,0,-2
62179908377,-1,0,4,-4,9,1,-3,-2
62179917374,1,1,3,-2,-3,-3,-1,2
62179917374,-2,1,-3,1,-3,-1,-1,-1
62179931585,1,-2,-1,-3,0,4,2,0
62179931585,-2,-2,-3,1,-4,-2,-2,-1
62179938454,-2,-4,-6,-1,-12,-3,0,-2
62179938454,-2,-2,-1,-2,-1,-3,0,-1
62179954803,1,2,2,2,36,1,-1,-2
62179954803,-1,-1,0,-3,-40,-5,-1,-1
62179956295,-1,-2,-4,1,-6,-3,-1,-1
62179956295,-1,-1,0,1,10,3,-1,0
62179968309,-2,1,0,-3,-3,2,-2,-1
62179968309,1,0,-6,-2,17,4,0,-2
62179977296,-1,1,8,0,-21,-9,-2,-1
62179977296,-1,-2,-1,2,10,3,0,-1
62179991595,0,-4,-2,-3,-13,-5,-2,-1
62179991595,-1,-1,-2,-2,11,-5,-1,-3
62179998434,-4,-5,-9,0,-3,2,-2,-3
62179998434,1,0,0,-2,-6,-3,-2,0
62180014806,-1,2,3,-3,-1,-3,-1,1
62180014806,0,1,0,1,-3,-4,2,1
62180016316,-1,-2,-6,-1,5,-1,-2,-3
62180016316,-2,-3,0,-6,3,2,0,-1
62180028466,-4,-2,-4,2,-9,-1,-2,-2
62180028466,1,-2,1,1,-9,-4,-1,1
62180037282,-3,-1,5,2,1,-1,1,1
62180037282,1,1,2,-1,-1,0,1,0
62180051666,0,0,-2,-2,2,-1,0,-1
62180051666,-3,-1,-1,4,2,-1,-1,-2
62180058379,-3,-3,-7,-4,-1,1,-2,-2
62180058379,-1,-2,-3,0,-13,-3,-1,-3
62180074093,-3,-3,-6,-1,4,-5,-2,-1
62180074093,3,2,6,0,-17,-2,1,2
62180080899,0,0,-3,-2,7,-3,1,-2
62180080899,-2,-2,-3,-1,2,1,0,-2
62180088251,-2,-2,3,-1,-4,4,0,-3
62180088251,-4,-2,-6,-4,17,5,0,-3
62180097303,-2,-1,0,2,-27,-13,-5,-1
62180097303,0,0,-3,-5,-2,-1,0,1
62180111810,-1,-2,0,0,4,1,-1,-1
62180111810,-1,-1,3,-5,-4,-2,0,-1
62180119765,0,-1,-1,1,4,3,0,-2
62180119765,-2,-1,1,0,-7,-4,-4,0
62180133982,1,1,-1,-3,12,-3,1,1
62180133982,0,-2,-1,2,-5,-2,0,1
62180140775,-1,-1,0,-1,-11,3,-2,1
62180140775,-1,-1,-8,0,2,-1,-1,-1
62180148294,0,-2,0,-2,0,1,-2,-1
62180148294,1,-1,-1,1,2,0,-1,-1
62180157313,0,-1,1,-2,11,3,-1,-2
62180157313,-2,-1,1,0,-3,0,0,-1
62180171544,0,1,6,-2,-2,-2,0,-1
62180171544,-1,-2,-4,-2,-3,-2,0,-2
62180178247,1,-2,-4,-1,-18,4,-1,-1
62180178247,0,1,1,2,9,-2,1,-2
62180194610,-2,-1,-5,-4,-22,-9,-2,0
62180194610,-2,-1,0,-2,18,4,-3,-3
62180200931,-1,0,-4,-1,-10,1,-1,-2
62180200931,-1,-2,-2,-1,-7,-2,-3,-3
62180208276,0,0,-1,1,-3,-1,-1,-2
62180208276,0,0,1,-1,4,-4,-1,1
62180217400,-3,0,-3,-2,3,-1,-4,-1
62180217400,-5,-2,0,-2,8,3,1,0
62180231725,0,-1,-1,2,3,1,0,0
62180231725,-1,-2,-2,-2,-3,3,-2,-1
62180238466,1,0,0,-4,3,-1,1,-1
62180238466,-1,-2,-4,-1,-3,-3,-1,0
62180254022,-3,-3,-4,-1,-5,2,-3,-2
62180254022,-1,-2,-1,-2,-3,5,0,0
62180260937,-2,0,3,-3,28,-3,-2,0
62180260937,-1,-3,-3,2,-22,-6,-1,-2
62180277261,-2,-3,-2,1,-10,-8,-4,-1
62180277261,-3,1,-2,1,10,0,1,-1
62180278766,-1,-1,-1,-3,-2,2,1,-1
62180278766,0,2,3,-5,8,3,-1,0
62180291253,2,1,2,3,1,-1,-1,1
62180291253,-2,-5,-4,-3,-12,-4,-1,-2
62180299844,-1,-1,-1,3,12,-1,0,2
62180299844,-1,-2,-6,-3,-8,-1,0,0
62180314176,1,-2,-3,-5,-4,1,-1,-2
62180314176,-1,0,-1,-1,2,-6,-4,-1
62180321059,-1,1,4,-3,-6,2,0,-1
62180321059,1,-3,-2,-2,1,-2,0,0
62180337191,-1,-4,-6,0,-4,-2,0,0
62180337191,0,2,3,-2,3,1,0,-1
62180338771,1,1,0,-2,-5,-1,-1,0
62180338771,-2,0,3,0,-1,-2,-2,-1
62180351747,-2,-2,-3,-4,20,4,-1,-1
62180351747,0,-2,-6,-3,-24,-3,0,2
62180358377,-2,-3,-5,0,0,0,-1,-1
62180358377,0,1,2,1,-7,-2,-1,-2
62180374064,-1,-1,-1,0,3,-1,1,1
62180374064,0,-2,-1,0,7,-4,0,-3
62180380949,0,-2,-2,3,-3,5,1,0
62180380949,0,0,-2,-2,3,-4,-1,0
62180397315,-3,-1,-3,-1,-8,-2,-2,-2
62180397315,-1,1,-1,1,-1,2,1,0
62180398779,-4,-2,-3,-1,1,-2,-2,-2
62180398779,1,1,0,-1,-5,0,-1,0
62180411630,-1,-1,1,0,5,1,0,0
62180411630,-1,0,0,0,-3,-1,0,1
62180418466,-3,-1,0,-1,11,-4,-2,-2
62180418466,-2,-3,-4,-1,-14,0,-2,-2
62180433963,-1,0,-1,3,-5,0,0,-3
62180433963,1,4,5,-1,0,2,-2,2
62180440808,1,-2,-3,-2,-3,-4,1,-1
62180440808,0,-3,0,2,27,0,-2,0
62180457170,-2,-4,-5,-1,-32,-4,-1,-3
62180457170,-2,-4,-4,4,1,-4,-3,-1
62180458780,-1,-2,2,-3,2,2,0,1
62180458780,-1,-1,1,0,-2,-7,-1,0
62180471513,-1,1,3,-4,3,-1,-3,-1
62180471513,-1,-2,-4,-5,-2,-1,-2,-1
62180478300,0,1,-2,-1,-6,-4,-3,-1
62180478300,0,0,-3,-2,2,3,0,0
62180493996,-1,-2,1,-1,7,1,1,-1
62180493996,0,-3,-4,-4,-19,1,0,-3
62180500814,0,-3,6,2,18,1,0,-1
62180500814,-2,-1,-2,-3,-19,3,0,-1
62180517169,-1,1,0,-1,1,-2,0,-1
62180517169,0,0,2,-2,9,0,0,0
62180518746,-1,-1,-4,-2,-10,-6,-1,-1
62180518746,-1,-1,0,0,9,2,-2,-1
62180530857,1,0,0,-1,12,-3,-2,0
62180530857,-3,-3,-6,0,-30,-1,-2,-2
62180539774,1,0,2,-1,5,0,-3,-3
62180539774,1,0,2,-2,-5,-3,1,0
62180554045,0,-2,-6,-1,6,2,-1,-1
62180554045,0,-2,-3,1,-17,-10,-1,-1
62180568319,-2,-2,-3,-1,11,0,1,0
62180568319,-1,-1,0,0,5,1,-1,0
62180577205,1,-1,0,1,-3,3,1,0
62180577205,-4,0,0,-1,5,-4,-1,-1
62180578767,-1,0,0,-3,-13,2,-1,-1
62180578767,-3,-2,-5,1,-5,-5,-1,-1
62180590778,-1,-1,2,1,-4,-4,-2,0
62180590778,0,1,4,-2,10,-3,-1,0
62180599812,0,-2,0,0,-3,-2,0,0
62180599812,-3,-2,-1,-1,3,2,-2,-3
62180614040,0,0,-3,-3,-6,0,-2,-2
62180614040,-2,-2,-3,1,23,1,-3,-3
62180620809,0,3,1,-1,-30,-1,-1,0
62180620809,-1,-2,0,-1,-18,-3,0,0
62180637180,-2,-3,-3,-2,9,1,-1,0
62180637180,-3,-2,-3,-1,3,-2,1,-1
62180638746,-1,-2,-3,-2,9,-3,0,-4
62180638746,1,1,0,-1,8,7,0,-3
62180650839,0,1,3,-2,-8,3,1,-1
62180650839,-2,0,-6,0,2,-14,-3,0
62180659753,-1,0,0,-1,12,5,-2,0
62180659753,-2,-2,3,-1,-15,-4,-1,1
62180674006,-2,-4,-5,-2,7,1,-1,-2
62180674006,1,-2,2,-3,10,0,-1,0
62180680791,0,0,-3,-1,-16,-2,1,0
62180680791,0,-1,0,0,11,2,-2,-2
62180697171,-2,-1,-3,2,-2,1,1,-2
62180697171,0,-3,-3,-2,-10,1,0,-1
62180698737,-4,-3,-4,2,24,-3,-2,-2
62180698737,-1,-2,-5,-3,-4,5,0,-1
62180710795,0,3,7,-4,9,-8,0,2
62180710795,-1,0,0,-1,-4,2,-1,0
62180719823,1,1,3,-2,-4,-5,-2,0
62180719823,-2,-1,-6,1,1,-2,-2,-2
62180733980,0,-1,3,1,-9,-9,-2,0
62180733980,1,-3,1,2,5,10,3,-2
62180740798,-1,-4,-3,0,-2,0,-2,0
62180740798,-1,-2,-1,0,14,-3,-2,-2
62180757168,-1,-1,-2,-5,-21,0,1,-2
62180757168,-1,2,-2,3,3,1,-1,0
62180758790,0,-1,-3,-1,-13,-3,-2,-2
62180758790,1,0,1,0,4,0,-2,0
62180770766,-2,-2,-2,0,-1,-3,-2,-2
62180770766,-2,-1,0,-1,13,2,-1,-2
62180779799,-1,0,-2,2,-3,2,0,-1
62180779799,0,-1,0,-1,1,-3,0,1
62180793995,-2,-2,-1,1,7,0,0,-2
62180793995,0,-2,-3,-1,-8,0,-2,-1
62180800788,-2,-4,-3,-1,-18,-11,-2,-2
62180800788,-2,-1,-2,4,9,3,-1,0
62180817623,0,0,0,-2,-16,-2,0,1
62180817623,-1,-2,-5,4,-7,-1,0,-2
62180823348,-4,-2,0,-2,7,2,0,-1
62180823348,4,4,0,-3,-12,-6,0,-2
62180830826,0,-3,-3,0,-19,-1,-3,1
62180830826,-2,-2,2,-5,12,-2,-3,0
62180839748,-1,-1,-2,-2,-4,2,-1,-1
62180839748,-4,-3,-3,2,5,2,-1,-2
62180854035,-2,-2,-3,2,20,-2,-1,0
62180854035,0,1,3,0,-32,-3,0,1
62180860834,-4,-5,-6,-2,2,-4,-1,-3
62180860834,0,-1,6,-4,13,-4,0,-1
62180877176,0,-1,-1,-4,-5,3,0,1
62180877176,-1,-3,-4,0,0,-3,-3,0
62180878719,-1,-1,-1,-4,10,1,0,-1
62180878719,-1,-1,-2,1,-15,-4,-4,0
62180890811,0,0,2,-1,7,1,-1,-2
62180890811,-2,-1,-1,-3,-1,0,0,-1
62180899809,-1,3,0,0,2,5,-2,-2
62180899809,-2,-1,-2,-1,-17,-6,-2,-1
62180914038,-1,-4,-6,-1,8,1,-3,-3
62180914038,-1,-2,-3,-2,-7,-5,0,-1
62180920813,0,-1,3,-2,3,-2,1,0
62180920813,-1,-1,-2,0,-25,-5,-1,0
62180937178,-1,0,-2,-2,2,-2,-1,-1
62180937178,0,1,2,-2,10,2,-1,0
62180938757,-1,-2,-2,0,5,-3,-3,0
62180938757,-1,2,2,-3,-7,-1,0,1
62180950800,0,-2,1,0,-6,-1,1,-1
62180950800,-1,-2,-2,-7,-2,0,-1,-3
62180959811,1,-3,-3,0,18,-1,-1,-1
62180959811,-3,-4,-6,-3,-13,0,-1,-1
62180973972,-1,-2,-4,-2,3,0,-4,-1
62180973972,-1,0,-4,0,7,2,0,-2
62180980790,-2,1,6,-1,-22,-1,-1,-2
62180980790,0,-2,0,-5,24,-4,1,-1
62180997137,1,0,-1,2,-5,-2,0,0
62180997137,-1,-1,-1,-1,-7,-1,-1,-1
62180998723,0,0,-4,0,7,3,-1,0
62180998723,-2,-1,-4,-1,-20,1,0,-1
62181010793,-1,1,3,-2,-3,-4,-1,1
62181010793,0,0,2,1,13,10,2,0
62181022036,-1,1,-1,2,-1,-1,-2,0
62181022036,-1,-2,-2,0,24,1,-1,0
62181033966,-2,-2,-1,2,-27,-1,-2,-2
62181033966,-2,-2,-3,1,-3,-3,-4,0
62181040841,2,-1,1,0,-5,-2,1,0
62181040841,-1,-2,-2,-3,2,-2,-2,-1
62181056550,-3,-1,-2,1,22,-1,0,-1
62181056550,1,-1,2,3,3,-3,0,0
62181063352,-2,-1,-1,-2,-7,0,-2,-1
62181063352,-2,-3,2,1,-7,-3,-3,0
62181070817,-1,-3,-3,1,-2,-3,1,0
62181070817,0,-2,-2,-2,-5,-1,0,-1
62181079753,-1,-3,-4,-3,-1,-4,1,-1
62181079753,1,-1,-1,0,43,6,0,-3
62181093994,0,-1,1,-2,-46,2,0,-2
62181093994,-1,1,-1,-2,6,-3,0,1
62181108333,-2,-2,-4,-1,-5,0,-2,-2
62181108333,-2,-1,0,-1,1,1,-1,-2
62181116517,-1,-1,0,-3,15,0,-1,-3
62181116517,-1,0,-2,0,-25,-2,-4,-2
62181123327,1,2,0,-2,24,0,-1,-1
62181123327,-1,-3,-4,-2,-19,0,-3,0
62181130865,-1,2,-5,4,26,2,-1,0
62181130865,-2,-2,0,-2,-35,-3,-2,0
62181139755,0,-1,1,1,-8,-5,-2,-1
62181139755,0,0,-3,1,15,-1,0,-1
62181154037,-1,0,0,-1,-3,-3,-2,0
62181154037,-1,-1,-2,-3,14,-3,-2,-2
62181160852,-1,-1,1,-1,-7,1,-1,0
62181160852,1,-1,-1,-4,-12,-3,0,-2
62181176506,-3,-5,-6,-2,0,-2,-4,-3
62181176506,1,0,7,0,23,1,1,0
62181183281,1,0,1,-3,-9,-2,2,0
62181183281,-2,-2,0,4,-11,-2,-3,-3
62181199665,1,0,0,2,5,-4,-1,0
62181199665,-3,-3,-7,-2,6,0,0,-2
62181201259,-2,-1,0,-1,0,-1,-1,-3
62181201259,1,-1,1,-1,32,2,0,0
62181213989,0,-1,-1,3,-32,-1,0,-2
62181213989,-1,-3,-4,-3,-4,-2,-2,-1
62181220810,1,-1,1,2,0,1,-1,1
62181220810,-1,0,1,2,-10,-3,0,0
62181236532,-1,-3,-1,-2,-2,0,0,-1
62181236532,-1,0,-5,3,4,-3,-2,-1
62181243272,-2,-2,-5,-1,-14,0,2,0
62181243272,0,-2,0,-2,8,-3,-5,0
62181259652,-2,0,1,1,-3,-2,-1,-2
62181259652,-2,-1,-1,0,12,3,0,-1
62181261233,-1,-2,-4,-2,-21,-4,-3,-3
62181261233,-1,-1,-2,3,16,3,2,0
62181274017,-1,-1,-1,-4,-14,-2,-2,0
62181274017,2,-1,2,-3,3,-2,0,-1
62181280860,-3,-3,0,1,12,1,0,-1
62181280860,-1,-1,-2,-4,-11,-4,1,-2
62181296534,-2,1,1,1,6,0,0,-2
62181296534,0,0,-2,1,4,-2,-2,0
62181303322,-1,0,0,0,-7,-1,-2,-1
62181303322,-1,-3,-2,0,-11,2,0,-1
62181320146,0,-5,0,0,18,2,0,-2
62181320146,-1,-2,0,2,-2,-2,-2,-1
62181321279,0,1,-2,0,14,-3,-2,0
62181321279,-1,0,-4,-2,-9,4,0,-1
62181334028,0,0,-2,0,-4,-2,1,-1
62181334028,-1,-3,2,-5,-1,-2,-1,0
62181340806,-2,-1,-2,-2,-7,-6,-1,-1
62181340806,-1,0,0,0,3,-3,0,-1
62181356575,2,3,-1,-5,7,3,1,1
62181356575,-2,-1,-2,0,-19,1,0,-1
62181363320,-1,-2,-3,-2,11,1,0,0
62181363320,-1,-2,-2,-6,-13,-2,-3,-2
62181379669,-1,-3,-2,3,45,-1,-1,0
62181379669,1,2,1,-2,-50,-3,0,-2
62181381245,-2,-3,-5,0,1,-3,-4,-1
62181381245,-1,-1,2,-1,-2,-2,-2,-1
62181393995,-3,-4,-5,0,4,2,-2,-3
62181393995,-1,-3,-1,-3,30,1,2,0
62181400857,3,0,5,0,-8,-1,1,0
62181400857,-1,2,2,1,-24,-3,3,1
62181416567,-2,-1,-3,1,10,1,2,0
62181416567,-2,0,-3,1,1,-1,-15,-4
62181423336,-2,-2,-3,-2,-5,-1,-1,-2
62181423336,1,-1,1,-1,-14,-4,-1,-1
62181440338,0,0,-1,-4,-1,0,7,1
62181440338,-1,0,1,1,-10,5,-2,0
62181441941,0,-2,-4,1,-7,-3,-1,-1
62181441941,-1,-1,0,0,8,-6,6,-1
62181453297,0,-3,-3,-2,-24,0,-13,-3
62181453297,0,-2,-2,-4,9,1,4,1
62181462321,-1,-1,2,0,5,4,-5,-1
62181462321,0,0,-4,-4,0,-6,-3,-3
62181476546,-3,-2,-5,3,8,-3,-3,-2
62181476546,0,1,1,-1,-14,-12,-3,-1
62181483317,2,2,6,1,1,2,3,2
62181483317,-2,-2,-2,-1,-1,-1,-3,-3
62181499678,0,-1,-2,-2,-6,-2,-2,1
62181499678,-3,-4,-10,2,16,-1,0,-4
62181501257,-3,-1,-1,-1,-22,-3,0,-2
62181501257,1,1,2,-1,-1,2,-3,0
62181513314,1,-2,-2,-1,-1,2,-1,-1
62181513314,-1,-2,-1,1,-2,-1,1,0
62181522316,0,-2,0,-2,-4,-4,0,0
62181522316,-1,-3,-4,1,19,7,-4,-3
62181536525,0,2,5,-1,-18,-9,0,1
62181536525,-2,-3,-4,3,5,2,3,0
62181543336,-2,-3,-4,3,2,-1,-1,-1
62181543336,-3,-2,-2,-4,-9,0,-4,-1
62181559646,0,0,1,3,-11,-2,0,-1
62181559646,-1,1,4,-4,5,3,0,-1
62181561172,-1,-4,-8,-4,3,1,-4,-1
62181561172,-2,-2,-2,0,-1,-2,0,0
62181573328,0,1,2,1,8,2,0,-3
62181573328,2,0,2,1,-18,-12,2,2
62181582297,-3,-2,-6,-2,8,9,-1,-5
62181582297,-2,1,2,-3,7,2,1,0
62181596541,-3,-2,-3,0,-9,-12,-7,-3
62181596541,-1,1,0,0,19,1,-3,-2
62181603281,1,-1,-3,-3,-22,0,3,0
62181603281,0,-1,2,0,-1,5,2,2
62181619723,0,-1,-2,1,-12,-5,-1,0
62181619723,-1,-2,-3,-1,-1,0,0,-1
62181621241,-1,-1,-2,-1,19,0,-2,-1
62181621241,-2,-3,-5,1,-6,-3,-2,-1
62181633372,-2,-2,-1,-1,-4,-1,1,-1
62181633372,-1,-3,3,-4,16,1,-2,-4
62181642292,-1,1,1,2,-4,-4,-1,0
62181642292,0,0,-2,2,-4,-4,-2,-1
62181656565,-2,0,-4,-1,-4,-3,0,-1
62181656565,-4,-3,-4,1,1,3,0,-1
62181663369,-1,1,6,-3,7,-3,-1,1
62181663369,1,1,1,-1,10,4,0,0
62181679683,1,-2,-3,-6,-15,-3,1,-1
62181679683,-1,-4,-7,-2,-5,2,0,-2
62181681226,0,2,4,-4,-11,-6,-2,-2
62181681226,-1,1,-2,2,5,-1,2,-1
62181693346,-1,0,1,-3,22,10,1,0
62181693346,-1,-2,1,0,-27,-4,0,1
62181702313,-4,-4,-5,-2,20,-5,-2,-3
62181702313,0,0,4,1,-29,-4,0,3
62181716536,-3,-1,-3,1,5,-1,-1,-1
62181716536,-1,-1,-3,-6,-4,1,-1,-1
62181730790,-1,-4,-5,2,-3,-1,-1,0
62181730790,0,0,-1,-2,19,0,-2,-1
62181739707,1,0,-2,-1,-25,-2,-1,0
62181739707,1,1,2,-1,2,-4,0,0
62181741272,0,-1,-5,-6,7,4,-1,0
62181741272,-1,-3,-2,2,6,-7,-3,-2
62181753390,-1,-1,-1,-5,4,-3,-2,-1
62181753390,-1,-3,-2,1,4,-4,0,-1
62181762929,-2,-2,0,-3,-15,-1,-1,-2
62181762929,1,-2,-1,-1,-12,1,-2,-1
62181776505,-1,0,1,-4,17,5,-1,1
62181776505,-1,2,0,0,-12,-9,-1,1
62181790830,-1,0,-1,0,3,2,1,0
62181790830,-1,-1,-3,0,-6,-4,-2,-1
62181799693,0,-1,-3,-1,-6,3,1,0
62181799693,-5,-2,-1,-4,9,3,-2,-3
62181801272,0,-2,0,-2,-6,-2,-1,0
62181801272,-2,-3,-6,-7,17,3,-2,-3
62181813351,-1,-1,4,-4,-12,-2,-3,0
62181813351,-1,-1,-1,0,8,4,0,0
62181822324,-1,-2,-1,1,-17,-5,-3,-1
62181822324,-2,0,-2,-4,4,1,0,-1
62181836563,-1,-1,-3,0,4,-3,-1,-1
62181836563,1,0,0,-2,0,2,-1,-1
62181843296,-2,0,0,-3,-9,-3,-1,-2
62181843296,-1,0,-2,-4,5,-1,-1,-1
62181859657,-1,0,-2,-3,1,-1,-1,0
62181859657,-1,-3,-1,-2,30,3,-2,0
62181861305,0,0,0,-1,-32,-8,-2,-1
62181861305,-2,-2,-1,-4,-3,0,-2,-2
62181873306,0,-1,-1,1,14,0,1,-1
62181873306,0,1,0,1,-17,1,-3,-3
62181882326,-2,1,0,1,0,-4,-1,1
62181882326,-2,-2,1,0,14,4,-3,-1
62181896551,0,-2,-1,1,-9,-3,-1,0
62181896551,0,-2,-3,1,-1,-6,-2,0
62181903306,0,-2,0,-1,9,1,-1,0
62181903306,-1,-1,1,3,-17,-2,0,0
62181919694,-2,-3,-3,3,-1,-1,0,-1
62181919694,-2,0,-1,-2,3,0,-3,1
62181921248,-2,-3,-6,-4,5,2,-1,-1
62181921248,-2,1,3,3,-7,-2,0,-1
62181933340,-1,-1,-3,2,19,1,-4,-3
62181933340,-1,0,2,-4,-22,-5,1,0
62181942279,2,1,2,0,5,-1,1,-2
62181942279,1,2,-1,0,27,0,-1,-1
62181956545,-1,-2,-3,1,-22,3,-1,0
62181956545,0,-1,-2,3,-24,-6,-1,-1
62181963312,-1,0,-3,0,16,3,-1,-1
62181963312,0,-2,-5,-1,-10,-3,-2,0
62181979028,-1,-1,0,2,3,-3,-1,0
62181979028,2,-1,3,-5,7,3,0,1
62181985843,-2,-2,1,2,-1,-4,-1,-1
62181985843,1,-1,-2,0,2,1,1,-1
62181993317,-1,-3,-3,-1,-2,3,-1,-1
62181993317,-1,-1,-2,-3,3,-1,-1,-1
62182002325,-2,0,-2,4,-5,-3,0,-1
62182002325,0,-2,0,-4,0,-3,-1,-1
62182016508,-2,0,-1,-2,-22,-4,-2,-3
62182016508,-2,-1,-5,0,-1,3,0,-2
62182023300,0,1,3,-3,-1,0,-2,0
62182023300,-1,-2,-3,2,-3,-3,-1,-1
62182039007,2,1,1,-6,1,-5,0,-2
62182039007,-1,0,-1,1,6,0,-2,-1
62182045826,-1,-2,-1,3,1,-3,1,0
62182045826,-3,-2,-2,-1,-10,0,-2,-2
62182053339,0,-3,-2,-3,3,1,1,0
62182053339,1,-2,1,1,16,-3,-1,-1
62182068335,-1,0,-2,-2,-17,4,0,0
62182068335,0,-1,-1,-3,-1,-4,-2,-1
62182077304,0,-2,-2,2,-1,-4,0,0
62182077304,-1,-2,-2,-2,4,0,0,-3
62182083351,-2,-1,-2,1,9,3,-3,-1
62182083351,0,-1,1,0,-14,-4,-1,-2
62182098316,-1,0,1,-1,10,1,-1,-1
62182098316,-2,-3,-1,1,-1,-2,-2,0
62182105860,-1,-2,0,0,7,2,-2,-1
62182105860,-2,0,-3,-4,-24,-8,-1,1
62182121535,-1,-2,1,-6,8,-1,-2,-2
62182121535,0,-1,-3,-2,-6,1,0,-2
62182122226,-3,-2,-5,-4,6,-5,-3,-2
62182122226,1,1,8,2,8,3,0,0
62182137288,0,-2,0,-2,-3,-2,0,-1
62182137288,0,2,-1,-3,-8,-4,-1,0
62182143369,1,-1,1,-3,0,5,-2,-1
62182143369,-1,-2,-5,-4,6,3,-2,-1
62182158314,-2,-2,0,0,0,-4,-2,-2
62182158314,-1,-2,-4,1,5,-2,-2,-1
62182165818,2,-1,2,-2,-10,-1,0,0
62182165818,-3,-1,-5,2,-27,0,-1,-2
62182181552,0,0,0,0,13,3,0,-1
62182181552,-2,0,-1,-3,-17,-3,0,1
62182182275,-1,-1,1,1,15,-5,0,-2
62182182275,-2,-3,-1,-2,8,0,1,-1
62182197345,0,-2,-3,-1,-15,-1,-3,-1
62182197345,1,0,0,0,8,2,-1,1
62182203316,0,-1,-1,-4,-4,0,-2,-2
62182203316,-1,0,-4,0,-5,-2,-1,-1
62182234646,-2,0,-2,-3,7,1,-2,0
62182234646,-2,-1,3,3,-5,-2,-1,0
62182235478,-2,0,-1,-2,2,2,-2,-3
62182235478,0,-1,-2,0,-2,-1,-1,-1
62182241567,-1,-2,0,-4,-4,-4,-1,-1
62182241567,-1,-1,0,-4,-1,0,-2,-2
62182242292,-1,-2,-3,-2,11,0,-2,1
62182242292,-3,-4,-4,2,-14,-4,0,-3
62182257331,-2,0,2,1,-2,-5,-2,1
62182257331,-1,-1,-2,-5,-7,-2,-1,1
62182263344,0,0,-2,3,-9,-6,0,0
62182263344,-1,2,7,-2,27,5,-2,-1
62182278340,-2,-4,-4,2,10,-1,-1,-1
62182278340,-2,-2,-2,3,-35,1,-1,-4
62182285833,-1,-1,-3,-2,10,-3,0,-2
62182285833,-2,-1,-2,-3,-8,1,2,-1
62182301525,0,-1,2,3,-7,0,0,-1
62182301525,-1,1,-2,-2,15,-1,-1,-2
62182302243,-3,-2,1,-1,-8,-1,0,0
62182302243,0,-1,-1,2,6,1,0,-1
62182317285,-2,-1,-1,2,-2,-2,-1,-1
62182317285,-1,-3,-3,2,15,-1,-2,-2
62182323565,1,0,3,3,-32,-3,0,0
62182323565,-1,-1,-1,-2,8,-2,-1,-1
62182338315,0,-1,-1,-5,-10,-1,-2,-1
62182338315,0,-2,-2,0,13,1,0,-2
62182345982,-3,-2,-1,0,11,2,1,-2
62182345982,-1,-1,-1,-6,-18,-11,-2,-1
62182361705,-2,0,-3,-1,3,3,1,-1
62182361705,1,1,1,-1,-2,-1,0,0
62182362346,-1,0,-3,-1,22,3,-1,0
62182362346,0,-1,-3,0,-15,3,0,1
62182377343,0,-1,-3,2,-17,-10,-3,0
62182377343,0,0,-1,-2,1,-1,0,-1
62182383477,-2,-2,-3,-5,7,0,-3,-2
62182383477,0,1,0,3,-10,-3,-2,0
62182398548,1,1,0,0,3,3,2,0
62182398548,-1,-3,-5,-3,-3,-1,-1,0
62182406086,2,0,-2,-2,0,-2,0,-1
62182406086,-2,-1,1,0,2,-2,-3,0
62182421747,-2,-4,-3,-5,-6,0,-1,-1
62182421747,-4,-1,-4,-1,-1,-3,0,-2
62182422342,0,1,3,-4,-9,1,-1,1
62182422342,-1,-3,-4,-3,8,1,-4,-3
62182437410,2,2,3,-1,-1,3,1,0
62182437410,-1,-3,-1,-1,2,-5,-2,-1
62182443362,-1,-2,-1,3,0,-1,1,0
62182443362,-1,-1,-2,-1,8,1,1,-3
62182458405,0,0,-1,-1,-19,-3,-3,-2
62182458405,-2,-2,-1,0,0,1,-1,-1
62182465939,-1,-1,1,-1,-27,-6,1,0
62182465939,-1,1,1,2,18,1,0,1
62182481746,-1,0,-6,-4,8,1,0,0
62182481746,0,0,0,-2,-6,-5,1,0
62182482362,-1,-2,2,-2,8,1,0,-2
62182482362,1,-2,0,0,-2,2,1,1
62182497327,-2,-2,-3,0,5,-1,0,-2
62182497327,0,1,6,-2,4,1,-3,0
62182503521,-1,0,-4,-1,-7,-4,-1,-1
62182503521,0,-2,0,3,-3,-1,-1,-1
62182518540,-2,0,1,1,10,-1,0,-1
62182518540,-2,-3,-3,0,-13,1,-2,-2
62182525897,-4,-3,-5,-1,-3,-4,-1,-3
62182525897,-1,0,0,-6,7,-5,-3,0
62182541569,-1,0,5,-3,19,3,-2,0
62182541569,-2,0,-2,-5,-44,0,0,0
62182542295,-1,0,-4,-3,11,2,-2,-1
62182542295,0,0,4,-4,-8,-2,-2,0
62182557841,-2,-2,-6,-1,1,-6,-2,-2
62182557841,-2,-2,-3,1,11,-1,-2,0
62182563446,-1,-1,-2,0,-19,-4,-1,-2
62182563446,-2,-2,-8,1,16,4,1,-2
62182578527,0,-1,0,2,4,3,-3,-2
62182578527,-1,2,1,-2,-15,-3,-1,-2
62182586058,-1,1,0,2,-4,0,-1,0
62182586058,0,-3,-1,1,3,-3,0,-1
62182601584,0,-3,0,-3,-9,-3,-1,0
62182601584,-1,-3,-2,-3,13,1,0,-2
62182602258,1,0,3,-3,14,1,-2,-1
62182602258,-2,-1,-2,-2,-15,-4,0,-2
62182617339,-1,-2,-1,-1,-11,-7,-1,0
62182617339,-1,-2,-2,0,8,1,-2,-1
62182623535,-1,1,5,2,21,5,0,1
62182623535,-2,-2,-3,1,-22,-2,-1,-1
62182638584,-1,-1,-4,-3,-13,-3,-2,-2
62182638584,1,-1,1,0,14,1,-1,0
62182645956,-1,-1,-2,0,-2,-1,0,0
62182645956,-1,0,-1,-2,12,-1,-1,-1
62182661708,-1,0,-1,5,4,0,-3,0
62182661708,2,3,4,-1,-14,-3,-1,1
62182662277,-1,-3,-6,6,1,-1,-2,-2
62182662277,1,1,2,2,0,-1,-3,-1
62182677363,0,0,2,-1,-2,0,0,-1
62182677363,1,0,-2,-2,1,-1,1,-1
62182683542,-1,-2,-3,-3,7,-3,-2,-1
62182683542,-3,-3,-4,-1,-12,-1,-2,-1
62182698371,0,0,-1,-1,2,1,1,-1
62182698371,1,0,0,1,2,-3,-1,0
62182705905,-1,-2,-2,-5,-11,-3,-2,-2
62182705905,-2,-2,-5,-1,-2,-2,-1,-2
62182721742,-2,0,-1,-3,2,5,0,-1
62182721742,0,1,4,-4,3,1,0,-1
62182722276,0,0,1,-2,-1,0,0,-1
62182722276,0,0,0,-2,6,-1,-2,0
62182737426,-1,-1,-1,3,2,1,0,-2
62182737426,-2,-4,-7,-2,-9,-2,-3,-3
62182743485,1,2,6,0,9,-1,0,1
62182743485,2,1,-1,1,-28,3,1,1
62182758396,-2,-1,-1,-4,2,0,-1,-2
62182758396,-4,-2,-9,1,-6,0,-2,-2
62182765855,-2,-2,-2,-2,-1,-3,0,-2
62182765855,-1,1,0,-2,-13,-4,-1,-1
62182789042,0,1,3,-4,-1,-4,-1,0
62182789042,-1,-3,-1,2,10,5,-1,-2
62182789752,0,-3,-3,-3,1,-1,-1,1
62182789752,-2,-2,1,-1,3,-2,0,-2
62182797336,-1,-2,-1,2,-11,-4,-2,0
62182797336,-2,0,2,2,13,3,2,0
62182803337,-2,-2,1,1,1,-2,-1,0
62182803337,1,-2,-2,2,2,0,0,0
62182818330,0,-2,-5,0,-5,-4,-2,-3
62182818330,-1,-2,1,1,-1,-2,0,-1
62182825855,-2,-3,-4,-4,5,0,-1,-3
62182825855,-2,-3,-2,1,-12,0,-1,-2
62182841604,1,-1,-1,0,5,1,-1,-1
62182841604,-1,-3,-1,-2,-3,-1,-1,-1
62182842310,-1,-1,-2,1,-1,-1,-1,-1
62182842310,-2,-2,-4,-5,4,0,0,-2
62182864204,0,-1,2,-1,1,0,1,-1
62182864204,1,2,2,-2,3,-9,-5,1
62182864830,0,0,-3,-3,-12,4,1,0
62182864830,-2,-2,-2,-1,-10,1,-2,-1
62182878592,-1,0,1,-1,1,0,-1,-1
62182878592,-1,-1,-4,-1,-2,2,-3,-3
62182886064,-1,-1,-1,3,3,-3,-2,-1
62182886064,1,0,3,-3,1,-5,0,1
62182901006,0,1,-1,-2,7,4,0,1
62182901006,-1,-3,-3,-3,-6,-6,-2,-1
62182908397,-2,-4,-2,3,-10,0,-1,-2
62182908397,-1,-1,-1,3,18,0,-1,-2
62182917399,0,-2,-1,-1,-16,-3,-2,0
62182917399,-1,0,0,1,0,1,1,0
62182923516,0,2,1,-2,-5,-1,-1,0
62182923516,0,-2,-1,1,4,-4,-1,0
62182938570,-1,0,-3,0,9,-2,-2,-1
62182938570,-1,-4,-5,-3,-1,-1,0,-1
62182946029,-1,-1,-3,1,-19,-4,-2,-1
62182946029,2,1,3,0,19,5,-1,0
62182961042,0,0,-3,0,-11,0,-1,-1
62182961042,-2,-1,1,-2,1,3,-1,-1
62182968546,-2,-2,-3,-4,0,-1,0,-1
62182968546,-1,-1,2,-3,9,3,1,-1
62182977369,-2,0,2,1,-4,-6,0,0
62182977369,0,-1,-3,-1,-4,-1,-1,-3
62182983555,0,1,0,1,3,-1,-3,-2
62182983555,-2,2,-1,-3,-1,-2,-3,0
62182998567,-1,-2,-3,1,-3,-2,-1,-2
62182998567,-2,-2,-1,-2,-2,-3,-2,0
62183005887,-3,-3,-1,-6,-6,0,0,1
62183005887,-2,-3,-3,-3,-2,-1,-2,-1
62183020829,-2,-1,-1,-1,0,-2,-2,0
62183020829,0,0,-1,1,-1,-2,-1,-2
62183028336,-1,0,-2,0,1,-3,-1,-1
62183028336,0,1,1,-5,-2,-1,0,-1
62183039508,-3,-2,-6,-1,3,4,-1,-3
62183039508,1,2,2,3,13,-3,-2,0
62183043561,0,0,-1,-1,-38,-13,-2,-2
62183043561,-1,-3,-2,0,6,-3,-2,0
62183058369,0,-3,-1,-1,5,3,-1,-1
62183058369,-2,-1,0,1,1,2,-1,-1
62183065837,-1,-1,-2,5,9,1,0,-2
62183065837,-2,-1,0,2,-16,-10,-4,-3
62183080865,-2,-2,-2,-1,-4,-2,-2,-3
62183080865,-1,-2,2,-2,0,2,0,0
62183088405,-1,-4,-2,-2,0,-3,-1,0
62183088405,-1,1,-1,1,4,4,0,0
62183103978,0,-1,-4,-4,-4,-5,-3,0
62183103978,-1,-2,-4,-1,-4,4,1,-2
62183104767,0,0,4,-4,32,2,1,0
62183104767,0,-3,-3,1,-28,-5,-1,-1
62183118528,0,0,1,0,2,0,-1,-1
62183118528,-1,-1,-6,-1,-9,-2,-1,-1
62183125869,-1,1,-1,1,3,2,-1,0
62183125869,-3,1,0,-1,4,-5,-2,-2
62183149174,-1,1,0,-1,4,0,1,-2
62183149174,-3,-2,-2,0,-5,-2,-1,-4
62183149869,0,-1,-2,1,4,7,-1,0
62183149869,0,-1,1,-2,-3,-8,0,0
62183164206,0,-2,-1,-4,-8,0,-1,-1
62183164206,-1,-4,-2,1,-24,0,-1,1
62183164792,-2,-2,0,-1,8,1,-1,0
62183164792,-2,-4,-3,-5,-12,-1,0,-1
62183194837,-1,-1,-1,3,-3,-5,-1,0
62183194837,0,3,4,-4,3,0,-1,0
62183195551,-2,-1,-3,0,3,-1,-2,-2
62183195551,0,1,-1,4,14,2,0,0
62183209072,-1,0,-3,-2,4,4,1,-2
62183209072,-2,-4,-8,1,-8,-2,1,-1
62183209824,0,0,6,-2,-4,0,-2,-4
62183209824,-1,0,-3,0,10,-5,0,-2
62183224168,-2,-2,0,-5,5,4,-1,-1
62183224168,-1,-1,2,0,-6,-5,-2,-1
62183224835,-2,-3,-6,-3,-2,-1,-1,-2
62183224835,1,1,-2,-3,-3,2,3,0
62183238530,-1,1,2,-1,-7,-3,-4,0
62183238530,-1,0,-2,-5,24,7,0,-1
62183245959,1,0,1,-5,-31,-3,-2,-1
62183245959,-2,-2,2,-2,30,5,-2,-1
62183260934,1,-1,-2,1,-28,-5,1,2
62183260934,-2,-1,0,0,17,-3,-1,0
62183268509,-1,-1,-3,-1,-4,-4,-1,0
62183268509,-2,-3,-5,-5,6,4,-2,-4
62183284178,2,1,1,1,7,2,-2,0
62183284178,1,-1,-1,-1,-13,-2,0,0
62183284842,2,1,0,-3,-6,-7,-4,1
62183284842,-2,-3,-5,1,-9,2,-2,-2
62183298539,-3,-5,-3,-1,6,-2,-1,-3
62183298539,-2,-2,-1,-2,2,-2,-1,0
62183305906,-2,-1,-3,-4,-4,4,1,-2
62183305906,0,0,-3,2,-14,3,-2,0
62183320836,-1,-1,-1,-3,9,0,0,-2
62183320836,0,-1,-2,0,0,-10,-1,-1
62183328350,-1,-3,-4,0,4,5,-2,0
62183328350,0,-2,-3,4,-18,-5,-1,0
62183344002,-1,-1,2,-3,8,3,1,-1
62183344002,1,0,-3,3,-10,-3,-1,0
62183344795,-1,-1,-2,-2,18,5,2,1
62183344795,0,1,2,0,-1,2,-2,0
62183358322,-2,0,-2,-1,-11,-5,0,0
62183358322,-2,-1,-1,-1,-1,-3,-1,-1
62183366048,-1,-3,0,6,-6,-6,-4,-2
62183366048,-1,0,-1,-3,-3,-4,-1,-2
62183381041,0,2,3,0,10,0,-2,-2
62183381041,-2,1,0,-1,-2,-2,0,-1
62183388500,-1,-1,-2,0,-24,1,1,-2
62183388500,-2,-2,-4,-1,2,0,-2,0
62183404112,-2,-5,-8,1,-14,2,-1,-2
62183404112,0,0,0,-2,4,-1,0,0
62183404820,-1,-3,-2,-1,-4,-5,-2,-2
62183404820,0,-1,5,-5,7,2,-1,-1
62183418545,0,1,0,0,12,0,-1,-2
62183418545,0,-2,-1,1,-4,7,0,0
62183425930,-2,-3,-4,-2,10,-8,-1,-1
62183425930,0,0,-1,-2,-12,-1,-1,-1
62183440964,-3,-1,0,-2,0,0,-1,-1
62183440964,-2,-1,-1,-2,-5,-4,-1,-2
62183448616,1,2,0,2,8,-5,-4,0
62183448616,-2,0,0,3,-5,-2,0,0
62183464252,0,0,0,-2,8,-2,0,0
62183464252,-1,-3,-5,-1,-6,8,-2,-1
62183464888,-1,1,0,0,-7,-3,0,-1
62183464888,-2,-3,-1,1,9,-3,-1,0
62183478360,-3,-2,-5,-1,-14,-6,-4,-3
62183478360,1,2,4,0,30,6,0,0
62183485991,0,1,6,-1,-15,0,-2,0
62183485991,-1,-1,-6,4,-1,0,1,-1
62183501164,-2,-1,1,-1,7,1,-2,0
62183501164,-1,0,-3,-1,2,-8,0,-3
62183508433,-1,0,1,1,14,6,1,-1
62183508433,0,-2,0,-1,-7,5,1,-2
62183524275,1,-3,-3,4,-18,-14,0,0
62183524275,-2,-2,1,-4,4,2,-3,-1
62183524872,-1,-2,-1,2,0,0,-2,-1
62183524872,-3,-1,-2,-1,-14,-5,-3,-1
62183538354,-2,-3,1,3,17,7,0,-1
62183538354,1,1,1,0,-7,-6,-1,1
62183545877,-1,0,0,-3,1,1,0,1
62183545877,-1,-1,0,-1,11,2,-1,-3
62183560895,0,-2,-3,0,-15,-3,0,1
62183560895,-1,-2,-2,0,-7,-5,-1,-1
62183568354,0,-1,-4,1,4,-3,-2,-1
62183568354,0,-1,-2,-1,-9,3,1,-1
62183583988,-1,-1,2,-3,-9,5,1,-2
62183583988,-2,-1,0,-2,-8,-6,-2,0
62183584741,-1,-1,-5,-1,10,2,0,-1
62183584741,0,2,1,-4,-3,-5,1,1
62183598326,0,1,-1,-3,-6,-1,-3,-1
62183598326,-1,-1,-3,0,0,3,-2,-2
62183613829,-2,0,-2,-2,-2,0,-2,-2
62183613829,-1,0,-1,-1,11,0,-2,0
62183622453,-2,-1,-2,-1,-2,-2,-2,-2
62183622453,0,-1,0,-1,-8,-10,0,-1
62183628505,-1,-3,-2,-2,-6,0,0,-3
62183628505,-1,-2,1,-3,-3,-4,0,-2
62183644045,0,-1,-2,-1,6,2,-2,0
62183644045,-3,-1,0,-2,-5,-3,-1,-1
62183644810,-1,-2,0,-1,-2,-2,-1,-1
62183644810,-1,1,4,-4,-2,-5,-3,-2
62183658406,0,-2,-3,4,14,1,-1,-1
62183658406,-2,-3,-3,0,-14,-2,0,-1
62183666002,0,-1,-4,3,-4,5,-1,-1
62183666002,-1,-2,0,3,-3,-2,1,0
62183681062,-1,1,-1,-3,5,-2,-1,-1
62183681062,-1,0,1,4,-4,-4,-1,-1
62183688576,-1,-1,3,-2,7,-3,1,0
62183688576,-1,-2,-2,0,4,3,0,-2
62183704169,-1,-1,-1,-2,-9,-4,-1,-2
62183704169,1,0,0,1,5,6,1,0
62183704889,-1,0,0,-4,-10,-6,-1,-2
62183704889,0,1,-3,-5,10,3,0,-2
62183718499,-1,-3,-1,-3,-6,-3,-1,1
62183718499,-2,-1,-2,-2,2,4,-2,0
62183725893,0,-1,-2,2,18,1,-1,1
62183725893,0,-1,-3,-2,-21,-1,-1,0
62183740876,-2,-1,0,-1,3,-1,2,-1
62183740876,-3,-2,1,1,-3,-3,-1,-1
62183748490,-2,0,-2,0,-4,-2,-2,0
62183748490,-4,-4,-3,0,7,1,-3,1
62183764149,-1,-2,3,2,1,1,-1,0
62183764149,1,-1,-1,-4,2,1,1,-1
62183764901,-2,-1,-1,-5,-8,-5,1,-1
62183764901,0,0,-2,-4,11,1,-1,0
62183786550,-1,-1,-3,0,-11,-2,-1,0
62183786550,-2,-2,-2,-3,5,3,-1,-2
62183787284,-1,0,3,-2,2,1,0,0
62183787284,0,0,1,-1,-13,-5,1,0
62183817198,-2,-3,-2,0,9,1,-2,-1
62183817198,0,-3,-4,-1,37,5,-3,-2
62183817944,-1,-4,-4,2,-55,-1,-1,-2
62183817944,-2,0,-1,1,9,0,-2,-1
62183824068,-2,1,-1,-1,-9,-4,-1,-1
62183824068,0,-1,0,-2,-2,-5,0,-1
62183824812,0,-1,2,-1,15,-2,-1,-1
62183824812,1,-1,2,3,4,3,-1,0
62183838371,-2,-1,-2,1,-2,-2,1,-1
62183838371,-2,-3,-3,-2,-7,-1,-2,-3
62183845932,-2,-1,-2,-1,-2,-3,-2,0
62183845932,-1,2,0,-1,-12,-7,-1,0
62183860829,1,0,-1,-1,7,-3,-1,-2
62183860829,-1,0,2,3,-4,-2,0,-1
62183868312,-2,-3,-2,-1,-9,-2,-3,-1
62183868312,-1,-3,-3,-1,4,2,-2,-1
62183883546,-1,0,-1,-5,3,3,-2,-2
62183883546,-3,-2,-2,-4,-17,0,-1,-3
62183899925,-2,-2,-6,-3,16,-7,-2,-2
62183899925,0,-1,-3,1,-13,-7,1,0
62183901357,0,-1,-3,2,-1,3,-1,0
62183901357,2,3,8,-2,-5,0,-2,1
62183905926,-1,-1,-5,-2,4,4,0,-2
62183905926,-2,-1,2,0,16,4,-1,0
62183921053,-1,-1,-2,-5,-11,-8,0,-3
62183921053,-1,-1,-4,0,11,-2,0,-2
62183928539,-1,1,0,-1,-15,-2,-2,-2
62183928539,0,0,1,0,17,0,0,0
62183943409,0,-1,-1,2,-26,1,1,0
62183943409,0,-2,-2,0,3,-1,-1,2
62183951730,0,0,1,-5,6,-3,-2,-3
62183951730,-2,-2,-3,-2,4,0,-2,-2
62183958473,-1,-3,-1,-3,14,4,1,0
62183958473,-1,-2,-3,-2,-9,1,-1,-1
62183966021,0,0,-2,1,-2,-3,-1,-2
62183966021,-1,0,-1,-6,-9,-3,-1,-1
62183981040,-1,0,0,1,3,-2,-1,-1
62183981040,-2,0,-3,1,-6,1,0,-2
62183988442,-1,-1,-2,0,3,1,-1,-2
62183988442,-1,-1,-1,-1,-1,-1,-1,-1
62184003372,-2,1,0,-6,-3,-3,0,0
62184003372,-2,-2,-3,-5,-1,-1,-1,0
62184011633,-2,-2,-1,0,1,1,-2,0
62184011633,0,-2,-1,0,-10,-6,-2,-1
62184026608,-1,0,0,4,3,-4,0,-1
62184026608,0,-3,-5,0,-5,-2,-1,-1
62184027296,0,0,3,-2,12,5,0,1
62184027296,0,-2,-1,-1,-15,-4,0,-1
62184041050,1,3,4,3,-10,2,0,1
62184041050,-4,-4,-10,-4,8,-1,0,-5
62184056568,1,3,6,0,-25,-6,-1,1
62184056568,-2,-3,-4,-1,11,5,0,1
62184063336,-2,-6,-4,-7,-13,-12,-2,-2
62184063336,-1,-1,-1,-1,-4,-4,0,0
62184071521,-1,-2,-4,0,-6,4,-1,-1
62184071521,-1,1,3,1,4,-1,-2,0
62184086540,-1,-1,-6,-2,-3,1,-1,-2
62184086540,0,1,3,-1,5,-1,-1,0
62184087303,-1,-2,0,-5,24,-1,1,-2
62184087303,-1,-2,-4,-1,-33,-1,0,-3
62184100826,-1,-1,1,0,12,1,-2,-2
62184100826,-1,-1,-1,-1,-7,1,-3,-1
62184108332,-1,-2,-1,-3,1,-4,2,1
62184108332,-1,-1,-3,1,12,2,-2,-1
62184123718,-1,-2,0,-1,-12,-2,-3,-3
62184123718,0,-1,2,1,-1,-3,0,0
62184131789,-3,-2,-2,2,-8,1,-1,-1
62184131789,-4,-3,-1,-1,9,4,-1,-1
62184146711,-1,0,1,0,1,-11,0,2
62184146711,3,2,2,4,-3,5,0,0
62184147360,0,-1,-3,1,14,3,1,-2
62184147360,0,1,1,0,-6,-3,1,-1
62184160948,0,-3,-3,1,7,-3,-5,-2
62184160948,-2,-2,-3,2,-8,-2,0,0
62184168493,1,0,1,-1,14,-7,-2,-1
62184168493,0,-1,-1,0,-8,-6,-2,-1
62184183517,-1,-2,-3,-2,-19,4,0,-2
62184183517,-2,-1,0,-4,-8,-6,-3,0
62184191671,-2,-1,-3,-3,6,-4,-4,-2
62184191671,-1,-2,-2,-1,9,-4,-1,-2
62184206721,1,1,-2,-3,2,0,0,0
62184206721,-1,-2,4,0,7,2,0,-4
62184207358,-1,-2,-3,-1,-13,4,-1,2
62184207358,0,3,4,0,12,1,-2,-1
62184220904,-2,-1,-4,-2,-2,6,0,-1
62184220904,-4,-4,-4,1,-7,-4,-3,-2
62184228442,0,2,2,-4,0,1,0,-1
62184228442,1,-2,-2,0,-11,-2,0,-1
62184243404,-1,0,1,2,16,6,-3,-2
62184243404,2,0,0,-3,-8,-2,0,1
62184251738,-4,-5,-4,0,4,1,0,-1
62184251738,0,-4,-2,-2,-11,-5,0,-1
62184266614,0,-2,-2,0,-7,2,-1,0
62184266614,-1,3,5,-1,9,-2,2,-2
62184267339,0,-1,-3,2,-5,-2,-1,-2
62184267339,2,1,-2,-1,4,0,-2,0
62184280889,-1,-1,-4,3,-11,-2,-2,0
62184280889,-1,-1,1,-1,1,-2,-2,-1
62184296603,-2,-2,-3,0,-5,-1,-1,-1
62184296603,-1,0,3,-1,0,-5,-2,-2
62184303372,-1,1,2,-3,-4,-5,1,1
62184303372,0,0,-1,-3,5,6,-1,0
62184311559,1,3,2,-2,-5,-9,0,-1
62184311559,-3,-4,-8,2,1,4,-1,-3
62184326515,-1,-2,0,-1,4,-3,-2,0
62184326515,-1,-1,-3,-1,-1,0,0,0
62184327300,-1,-3,-2,3,-6,6,4,2
62184327300,-1,1,1,-4,15,-2,-4,-1
62184340868,-2,-3,-3,0,-16,0,-1,0
62184340868,-3,-3,-3,0,4,-1,-2,-1
62184348379,-1,-1,-3,-2,-5,0,2,2
62184348379,0,-1,-1,0,-3,2,1,-1
62184363401,0,-2,-1,-1,14,1,1,-3
62184363401,0,-2,-4,-1,-6,-7,-3,0
62184371489,0,-2,-1,-4,6,6,-1,-3
62184371489,-2,0,-1,0,-4,-1,0,0
62184386717,-1,-2,-1,-2,4,-2,0,0
62184386717,0,-2,-3,2,-10,-2,1,-3
62184387389,-1,-1,-1,0,7,-6,-4,-2
62184387389,-1,-2,-3,2,18,6,-1,-1
62184401052,0,3,3,-4,3,3,-1,-2
62184401052,-1,-1,-2,4,-7,1,1,0
62184408394,-1,-1,-1,-2,-10,-14,-2,-1
62184408394,-1,-3,-8,0,-7,-2,-1,-1
62184432294,-1,-4,-3,-1,6,-1,-1,0
62184432294,-1,0,0,-5,-6,0,1,0
62184433029,-1,2,-1,-1,19,7,-1,-1
62184433029,0,1,-1,-2,-10,0,-1,0
62184446726,-3,-1,-1,0,8,3,-1,0
62184446726,0,-1,-1,2,-5,-2,3,0
62184447413,-2,-4,-4,3,-14,-5,-4,-3
62184447413,1,0,5,-1,2,-2,0,0
62184460908,-2,-3,-6,-3,-12,2,0,-1
62184460908,-1,0,6,-2,15,1,-3,-3
62184468527,0,1,3,-5,-8,2,1,1
62184468527,0,-1,-4,1,-8,-14,-3,-1
62184483619,0,-1,1,-2,2,-4,-2,-1
62184483619,-3,-3,-7,-7,-20,-3,-3,-1
62184491636,0,0,-4,-2,5,1,0,-3
62184491636,-1,1,6,-7,-1,5,0,-1
62184506572,1,1,-2,-1,-9,-6,-2,-1
62184506572,-2,-2,-3,0,2,1,-1,-1
62184507318,0,-1,2,-3,8,2,-4,0
62184507318,-2,-3,-5,0,-9,-3,0,-1
62184521065,-1,-3,0,-2,2,0,0,-1
62184521065,0,-1,1,0,3,-2,-1,-1
62184528417,-3,-4,-4,-1,5,4,-1,0
62184528417,0,0,-1,5,-13,-5,-3,-2
62184543388,-2,0,3,-1,-2,-2,-2,-1
62184543388,1,0,0,1,-2,1,2,0
62184551591,-2,-2,0,-1,-3,2,-1,-1
62184551591,-1,-3,-3,-4,7,0,0,0
62184566501,0,-4,-3,-1,-8,-4,0,-2
62184566501,-1,-2,-2,-1,29,3,-2,-1
62184567289,-1,0,4,-1,-38,-8,0,0
62184567289,-2,-1,-1,2,1,1,-2,0
62184580983,1,1,1,-2,1,2,0,1
62184580983,-1,-3,-3,-3,-5,-6,-1,-1
62184588388,1,-1,-1,5,11,4,-1,-2
62184588388,-1,-1,-1,-5,-6,5,1,0
62184603409,0,-2,-5,6,4,-8,-1,0
62184603409,-2,0,0,-1,19,-2,-1,-2
62184611535,-1,0,2,4,-40,-1,0,1
62184611535,0,-1,-1,-2,-2,1,0,-2
62184626594,-2,-1,-2,4,10,5,-1,-1
62184626594,-1,-2,-4,3,0,-1,-1,0
62184627311,0,0,-2,-2,4,-6,-3,-1
62184627311,0,0,0,-2,-14,-7,-2,-1
62184641082,0,-2,-1,1,13,5,-2,-1
62184641082,1,0,-1,-2,-11,-1,-2,1
62184648599,-1,-5,-4,-3,32,6,-5,-1
62184648599,0,-3,1,0,-34,-7,1,-1
62184672420,-2,-1,0,0,2,-3,0,-2
62184672420,-1,1,3,-2,-12,1,2,0
62184673022,0,-1,-1,1,12,2,2,-1
62184673022,-1,-1,-2,-1,12,-1,-5,-2
62184686703,-1,0,-2,-5,3,3,1,1
62184686703,-2,-1,-3,-1,-7,-6,-1,-1
62184687359,-2,-2,-5,-3,-10,-5,2,-2
62184687359,1,-1,-2,0,13,0,0,0
62184701003,-1,0,2,1,-10,-2,2,0
62184701003,-1,-1,1,0,17,3,0,0
62184708452,-1,-2,-2,1,5,-1,-1,1
62184708452,-2,-1,-1,-1,-3,-1,1,-2
62184723598,0,-3,-3,0,3,-2,-1,-1
62184723598,-2,-1,0,2,-16,-3,0,-2
62184731782,-4,-1,-4,-5,0,-1,0,-3
62184731782,-1,0,-2,0,14,2,2,-1
62184746546,-2,-1,2,0,0,-2,0,-1
62184746546,0,1,2,0,-3,0,-1,1
62184747311,1,-1,1,3,-5,1,-2,-2
62184747311,-1,0,-2,-1,9,3,-3,-1
62184760983,-1,-2,0,-2,-2,-4,-3,-2
62184760983,-1,-1,-2,0,-31,-4,-2,-2
62184768528,-1,-1,-2,-3,3,-1,-2,0
62184768528,-1,1,2,1,0,-1,-1,-2
62184783561,1,1,1,2,1,1,-2,-2
62184783561,-2,-3,-4,-2,-2,-4,-4,0
62184791782,-2,0,1,-1,-4,-3,0,-1
62184791782,-3,-1,-2,-7,1,-1,-1,-3
62184814688,-2,-1,-3,-1,-5,-3,0,0
62184814688,-1,-2,-2,-1,6,-1,-2,-2
62184815473,-1,-1,1,-4,-5,-4,-3,0
62184815473,-1,-1,0,0,1,0,-1,0
62184820852,-2,-1,-2,-4,0,-1,0,1
62184820852,-2,-2,-3,1,-1,-4,-2,-2
62184828381,-1,-1,-1,-1,1,-1,1,0
62184828381,0,-4,-2,2,0,1,-1,-2
62184843386,-1,0,-4,2,-8,-1,0,1
62184843386,0,0,-3,-7,5,3,1,-1
62184851593,0,0,-1,1,-6,-2,0,-3
62184851593,-1,-1,-2,0,7,7,1,1
62184865892,1,1,4,4,15,3,-2,-1
62184865892,-1,-1,1,0,-14,-5,-2,0
62184874578,-1,1,-1,3,-3,-3,0,0
62184874578,-2,0,-1,-2,5,0,0,-1
62184882426,-1,-1,-3,-3,-7,-2,-3,-2
62184882426,-2,-1,0,3,7,1,0,-1
62184888603,-1,-2,-1,0,-1,-2,-1,1
62184888603,-2,-1,-4,0,-8,-3,-3,-2
62184903565,-1,-2,1,-3,2,2,1,-1
62184903565,-1,-1,-3,2,-2,-2,-1,0
62184911654,0,-3,0,0,-6,-4,-3,-1
62184911654,-2,0,-2,1,24,3,-1,0
62184925995,-2,1,1,-1,-16,-5,-1,0
62184925995,-2,-2,-4,-1,-3,-2,-1,-2
62184934255,0,0,-3,-1,28,4,-1,-1
62184934255,0,0,2,-1,-41,-6,-2,-1
62184940909,0,-1,-2,2,7,2,0,-2
62184940909,0,-1,0,-2,-2,-1,0,0
62184948571,0,-2,-4,1,-16,-5,-1,-3
62184948571,0,-3,-2,3,4,-6,1,-1
62184963546,-3,-2,-2,-1,-6,-2,-2,-3
62184963546,1,0,1,1,7,1,1,1
62184971804,-3,-2,-4,-3,9,4,-2,-1
62184971804,-2,-4,-2,-3,-1,-3,-2,-1
62184986063,-2,-2,-2,-1,-4,1,1,-2
62184986063,0,1,0,-1,-11,-15,-2,0
62184994067,-1,1,-1,-7,-3,3,0,-2
62184994067,-1,-1,-3,-2,-5,-4,-1,-2
62185009047,1,-2,-1,0,10,3,-1,0
62185009047,-1,-4,-3,1,-3,1,-3,-1
62185009780,-1,-1,1,4,5,-1,0,-1
62185009780,-1,-1,-1,0,-19,0,1,0
62185023554,-1,-1,-1,-3,-2,-10,-1,1
62185023554,-2,1,2,0,-6,0,0,-2
62185031780,0,-2,-5,0,-24,-1,-1,0
62185031780,0,-1,0,-2,33,3,2,-2
62185046029,1,2,-2,0,-18,-4,-1,0
62185046029,0,-2,-2,-6,9,1,-2,-2
62185054136,-2,-1,-6,-2,2,0,-1,-2
62185054136,-1,0,2,3,-4,-2,-3,-1
62185069061,-2,-3,-5,-3,-1,0,-1,-1
62185069061,-2,-1,0,-2,-1,-1,0,-1
62185069826,0,0,2,-4,-17,-1,-1,-1
62185069826,-1,-2,-2,-1,-1,0,-2,0
62185092227,0,-1,-2,2,8,-6,-3,-1
62185092227,-1,-3,-3,-5,2,2,0,0
62185093023,-2,0,-1,3,-6,0,0,-1
62185093023,-4,0,-2,-1,-6,-3,-2,-1
62185105885,-1,0,1,-4,4,3,-1,0
62185105885,-1,-1,-3,0,4,2,0,-3
62185114039,0,-1,2,-1,1,-7,0,-2
62185114039,0,0,-3,1,-3,0,0,-1
62185129077,0,-1,0,3,7,-2,0,-2
62185129077,4,5,7,-2,-9,-1,2,3
62185129947,-1,-4,-1,-3,22,1,-3,-3
62185129947,0,-1,4,-5,-30,3,1,-1
62185143396,0,-3,-5,-1,-20,-1,-1,-2
62185143396,-2,-3,-6,2,-13,-6,-7,-2
62185151767,2,1,6,3,27,2,2,0
62185151767,1,-2,-3,-2,-5,0,-1,0
62185166133,-2,-3,0,1,1,0,0,-3
62185166133,0,-1,-1,4,-2,3,-1,-1
62185174236,0,-1,-3,0,0,-3,-2,1
62185174236,-1,-2,-2,-1,13,-1,0,0
62185189289,-3,-1,1,-5,-6,-3,0,-1
62185189289,-1,-4,-2,3,9,0,1,-1
62185189893,-1,-1,-2,-1,-8,1,1,0
62185189893,0,-2,-2,-1,4,-6,-4,0
62185203601,-1,0,0,-6,1,1,0,1
62185203601,-2,-3,-1,-4,2,-2,-2,-3
62185211753,-2,-1,-4,1,-2,-2,-1,-2
62185211753,0,4,3,-3,-1,1,-1,-1
62185225972,1,3,2,3,4,-1,-1,0
62185225972,-1,-2,0,-4,3,1,-2,0
62185234309,-2,-3,-3,-1,-14,-4,-2,-2
62185234309,-3,-1,-1,-2,8,0,-2,-1
62185249049,-1,-1,-1,-4,3,3,-3,0
62185249049,0,1,-2,-1,-1,-2,1,2
62185249803,-1,-2,-1,-1,-2,1,-1,1
62185249803,-3,-2,-3,2,1,-2,0,-2
62185263461,1,0,2,-1,-3,-1,0,0
62185263461,0,1,2,-1,1,3,-1,-2
62185271760,-1,-1,0,-3,-3,0,0,-1
62185271760,-2,-1,-1,-3,-1,-4,-1,-1
62185286584,-2,-2,-2,1,6,1,0,0
62185286584,-2,-4,-4,-5,-2,-2,0,-2
62185294270,1,1,0,-1,-4,1,-1,-2
62185294270,0,0,-3,-3,0,2,1,0
62185309098,-2,-1,-2,0,-3,-2,-2,-1
62185309098,-1,-1,-2,-1,-1,-1,-3,-1
62185309808,-1,-2,1,1,0,0,0,0
62185309808,-3,-2,-4,0,2,0,-3,-1
62185323564,-2,-2,-3,-1,-6,-4,0,-2
62185323564,-1,1,0,-5,-2,-2,-1,-1
62185331795,-2,-2,0,-2,4,-1,-1,-1
62185331795,-1,-1,0,0,2,-3,0,0
62185345905,-2,-4,-5,3,-5,-2,1,-1
62185345905,0,-1,1,2,5,1,0,-1
62185354069,-3,-1,-5,1,6,-3,-1,-2
62185354069,2,2,6,-1,-10,0,1,-1
62185369015,2,1,-3,0,-6,0,-1,-1
62185369015,-2,0,-4,2,-2,-2,1,0
62185369801,-2,1,2,2,-1,2,2,-1
62185369801,-1,-1,-2,-1,3,-5,-5,-2
62185383374,-1,-1,-1,0,-7,-6,0,0
62185383374,-1,-3,-2,-2,4,1,-2,-1
62185391602,-1,1,-4,-3,-8,-6,-2,-2
62185391602,-1,-1,-1,-2,0,1,1,0
62185405866,0,-1,2,-5,2,3,0,-1
62185405866,-1,-1,-4,-2,-4,-6,1,-1
62185414088,-3,-2,1,-2,0,3,-2,-2
62185414088,0,0,3,-2,1,-1,2,-1
62185429127,0,-2,-6,-3,-2,-1,-2,0
62185429127,-3,-3,-5,2,2,1,0,-1
62185429923,1,1,3,-4,-5,-4,-1,0
62185429923,-2,0,-3,3,-4,0,0,-1
62185443398,-1,1,3,2,7,1,0,-1
62185443398,-2,-1,-3,-2,-3,0,-2,-3
62185451708,-1,-4,-7,-1,-2,-3,-1,0
62185451708,-1,-1,4,-1,-6,-9,-4,-1
62185466075,-1,-2,0,-4,16,5,0,1
62185466075,0,-1,0,-2,-27,-3,-2,0
62185474338,-1,0,1,4,6,1,0,-1
62185474338,-1,-3,-7,-1,-5,-1,0,0
62185489196,0,-1,3,2,-1,-2,-1,0
62185489196,-1,-2,1,1,13,2,1,-2
62185489948,3,0,2,1,1,4,1,1
62185489948,-2,-3,-5,-1,-8,-8,-2,-1
62185503449,0,1,0,-1,0,2,-1,0
62185503449,-1,-3,-4,0,2,0,0,0
62185511570,0,-1,-3,-2,-8,0,-2,0
62185511570,-1,1,2,1,14,4,1,0
62185525990,0,3,4,-3,-5,-4,0,0
62185525990,-2,-1,0,3,-6,0,0,2
62185534250,-2,-3,-4,-4,-4,-1,-2,-1
62185534250,-1,-4,-4,0,-6,0,-2,-2
62185549277,-4,-5,-4,2,-1,-1,0,-3
62185549277,2,3,1,0,8,2,1,-1
62185549920,-1,1,3,-3,16,-1,-1,0
62185549920,-2,-3,-2,-3,-18,0,-2,-2
62185564887,-3,-3,-6,-2,-9,-3,-1,-2
62185564887,0,0,8,0,13,-2,-1,-2
62185571660,0,2,0,-4,-8,-6,-2,0
62185571660,-1,-2,-2,-2,10,4,0,0
62185585888,0,0,-2,-1,1,-3,-3,-2
62185585888,-3,-3,-5,1,-6,0,-2,-2
62185594121,2,-2,0,-1,-2,-4,-1,-1
62185594121,-1,1,1,2,4,3,-1,1
62185609526,0,-1,-2,1,-1,-1,-2,-1
62185609526,1,-1,-1,-6,-6,-5,-1,0
62185610309,0,0,1,4,-6,-2,-1,-2
62185610309,-1,-2,-5,-2,-7,0,1,-2
62185623388,-1,0,3,1,10,-1,-1,-1
62185623388,-1,2,-1,-2,5,1,-2,1
62185631572,-2,-1,-2,-5,-14,-1,0,-1
62185631572,0,0,-2,4,-6,-1,0,-2
62185645890,-1,-1,-3,-5,-4,-3,-2,-3
62185645890,-2,-2,0,2,7,1,-1,-2
62185654098,-3,-4,-3,1,4,1,-1,-1
62185654098,1,0,-1,-5,3,0,0,-1
62185669044,0,-1,-2,0,-6,-2,1,1
62185669044,0,0,-1,-2,-4,-4,-1,-2
62185669790,-1,0,-3,1,-3,3,0,0
62185669790,-2,0,0,-2,1,-2,-3,-1
62185683371,-1,0,-1,-1,-3,1,-1,0
62185683371,-1,-1,-3,1,-2,-3,-1,0
62185691597,-3,-1,-2,0,2,-4,-1,0
62185691597,-1,-1,-1,-1,-1,-5,-1,-1
62185714785,0,-3,-3,-2,-2,-2,-2,-2
62185714785,-1,-3,-4,0,-2,-1,0,0
62185715530,2,-3,2,-1,4,3,-1,-2
62185715530,-1,-3,-1,-1,-1,0,-1,0
62185729084,-2,-3,-5,-2,-10,-3,-1,-2
62185729084,0,-1,1,0,4,2,0,-1
62185729843,0,2,3,6,16,4,-2,-3
62185729843,0,0,1,0,-4,-2,-1,-1
62185743384,1,0,2,1,-10,0,1,1
62185743384,-4,-3,-6,0,-4,-4,-2,-2
62185751606,-2,-3,-6,0,-17,-6,-2,2
62185751606,-1,0,0,2,5,1,0,-1
62185765960,0,2,-1,1,11,0,-1,-1
62185765960,1,1,5,-3,16,-4,1,-1
62185774260,-1,-3,-6,-1,-37,-3,-1,-2
62185774260,-1,-3,-6,-4,4,2,0,-2
62185788519,-3,0,4,0,-7,-1,-1,-1
62185788519,0,-1,-3,0,6,-1,-1,0
62185796753,-1,-1,0,0,9,-2,-2,-3
62185796753,-1,1,1,-1,-7,-1,-1,-2
62185803616,-1,-2,-5,-2,3,0,-1,-2
62185803616,-1,-1,-3,0,5,7,0,-1
62185811628,-2,-2,0,0,-17,-4,-1,0
62185811628,-1,0,-1,-3,-4,-2,1,0
62185826119,-1,-1,-3,-4,2,-1,-2,-1
62185826119,1,3,3,-2,6,4,-1,0
62185834267,1,-3,-5,-1,-7,-8,0,-1
62185834267,0,-1,0,3,5,0,-2,-1
62185848526,0,-1,1,-4,5,-1,0,1
62185848526,-1,-3,-3,1,-28,-5,-1,-2
62185856851,-2,-1,-1,-2,8,2,-1,-2
62185856851,-2,-2,-1,-4,1,-5,-3,0
62185863716,-2,-2,-4,0,7,1,-2,-3
62185863716,2,1,6,-1,4,-1,-2,-1
62185878477,-2,1,-1,-4,-5,0,0,1
62185878477,0,-2,-2,-1,-5,-5,-1,-3
62185886121,-1,-1,-2,0,10,3,-2,0
62185886121,-3,-2,-3,-2,-26,-3,-2,-1
62185894932,0,-2,0,-1,21,1,1,0
62185894932,0,1,0,-2,2,2,1,0
62185908522,0,-2,0,0,-4,-5,0,2
62185908522,1,-1,4,-1,5,-4,-1,-3
62185917446,-2,0,1,-1,-2,-3,-2,-1
62185917446,-2,0,-5,3,-8,-5,-1,-1
62185939826,-3,-5,-7,1,-2,0,-1,-2
62185939826,0,0,4,1,-7,-4,-1,-1
62185941397,1,-1,4,-5,9,0,-1,-1
62185941397,1,0,0,2,-4,4,1,1
62185945885,-1,0,1,-1,-6,-1,-2,-2
62185945885,-2,-4,-8,1,-5,-5,-1,-3
62185960895,-2,-2,-4,2,-2,-2,0,-2
62185960895,-2,-2,1,-3,9,1,-2,-2
62185968448,-2,-1,1,-1,-4,-1,-2,0
62185968448,-2,-1,-5,-4,-19,3,0,1
62185977355,0,0,2,-3,7,-1,1,1
62185977355,-2,-1,-2,4,-2,-1,-3,-2
62185990913,-2,-1,-2,2,-3,-3,-1,-2
62185990913,-2,0,0,0,8,-4,-1,-1
62185999907,-1,1,0,-3,-4,4,-2,-1
62185999907,0,0,-1,1,16,3,0,1
62186005934,0,0,6,1,-17,-7,-1,-1
62186005934,0,-1,2,-2,-4,-5,-2,1
62186014864,-3,-1,-1,0,10,1,0,-1
62186014864,-2,0,-4,2,-5,-4,-3,-1
62186028385,-1,-2,-4,-7,6,2,1,-2
62186028385,-1,1,-2,-2,-1,-1,-2,1
62186037467,-1,0,2,-2,17,0,-3,-1
62186037467,-1,-3,-1,-6,-23,-10,-1,-2
62186051072,-3,-1,-3,2,7,-2,-3,-2
62186051072,-2,0,-2,1,-2,1,-1,-1
62186059939,3,1,0,3,-31,-4,0,1
62186059939,-1,-1,-2,-4,17,6,0,0
62186066131,-1,0,0,-1,-9,1,-1,0
62186066131,-3,-3,-2,-5,14,1,0,-3
62186074883,-2,-3,-3,2,1,-4,-3,-3
62186074883,0,-1,-1,0,-12,-3,0,0
62186088528,2,3,2,0,1,-1,-2,0
62186088528,-1,-2,-3,-2,2,-1,-2,-1
62186097419,0,-3,-5,3,-2,1,0,0
62186097419,-1,-1,0,1,-4,-3,-3,-2
62186110886,-2,-1,-3,-2,34,12,2,0
62186110886,-1,-4,-6,0,-34,-9,-2,-2
62186120026,-2,-1,-1,-3,-1,-4,0,-3
62186120026,0,1,0,2,-8,-10,-2,-3
62186125983,0,0,-1,-2,1,2,1,-2
62186125983,1,1,3,-2,9,1,-2,1
62186135009,-1,-3,-4,-4,-7,-3,-3,-2
62186135009,-1,-4,-3,-3,5,4,-1,-3
62186148451,-1,-2,-1,2,-15,-9,-2,-1
62186148451,0,0,2,1,4,6,-1,-1
62186157541,-1,0,2,-2,6,4,0,1
62186157541,-2,1,2,-3,46,5,0,1
62186171053,-2,-3,-1,2,-60,-14,-2,-3
62186171053,-3,-1,-4,2,6,-5,-3,-2
62186179933,-1,0,-1,2,-3,-2,0,0
62186179933,-1,-1,-1,-3,6,7,-1,1
62186185963,-2,-3,-2,-3,12,-2,-1,-1
62186185963,-1,0,0,0,1,2,1,0
62186194901,0,-2,-3,-2,-2,2,-3,-2
62186194901,0,-1,-1,1,-7,0,-1,-1
62186208390,-1,-1,-3,0,-2,0,0,1
62186208390,-1,-1,-2,-2,4,-3,1,0
62186217392,-2,1,2,-3,-1,-3,1,-2
62186217392,1,0,10,-4,-3,-4,1,1
62186232271,-1,-1,-2,-1,-7,-1,-1,-1
62186232271,-2,-3,-2,-2,2,2,0,-2
62186233844,-2,-2,-8,5,-4,1,-2,0
62186233844,0,-2,-1,0,10,1,-3,-1
62186245936,-1,1,1,1,-17,-4,-2,-1
62186245936,-1,-2,-1,-3,9,0,1,-1
62186254900,-2,-3,-2,-2,-1,-6,-1,0
62186254900,-1,-1,-2,1,-10,-4,1,-1
62186268448,0,-2,-1,-5,11,7,0,-1
62186268448,-1,-3,-4,0,-4,0,-1,-1
62186277392,-2,-1,1,-6,-3,1,-1,-1
62186277392,-1,-2,-1,2,4,-4,-1,-2
62186292079,0,-2,-1,0,-20,0,-1,-2
62186292079,0,0,0,-2,-2,0,0,-1
62186299995,0,0,-2,-4,1,-4,-1,0
62186299995,-1,-2,-3,-3,8,-6,-1,-1
62186306135,-1,-2,0,2,-9,-1,0,1
62186306135,-1,0,0,1,0,-1,-1,-1
62186314936,-1,-1,0,-2,3,-2,-3,-2
62186314936,-2,-2,-5,-4,-6,3,-2,0
62186328548,-1,-2,-1,2,15,-3,-1,-2
62186328548,1,-1,-1,1,-7,-4,0,-1
62186337399,-2,-2,-4,5,-7,2,-1,-2
62186337399,0,-2,-3,0,-3,3,2,0
62186352425,-1,-1,3,2,16,2,0,1
62186352425,-1,-2,0,-3,-4,2,-1,-2
62186353884,-1,-1,0,-3,-2,-3,-1,-1
62186353884,-1,0,0,4,-14,-5,-2,-3
62186374876,-3,0,-3,-2,1,-6,-2,0
62186374876,-1,-2,-3,5,1,-1,-1,-3
62186376348,0,2,5,5,11,0,1,-1
62186376348,-1,0,-3,1,-21,-1,-1,-1
62186397294,0,0,-1,-3,-4,-2,-2,-1
62186397294,-3,-1,-2,-6,6,4,-2,-1
62186398875,-2,-2,-5,0,12,-2,-1,-1
62186398875,-1,-1,0,-4,-16,1,-1,-1
62186411072,-2,-2,-3,-1,0,-6,-2,-2
62186411072,0,-1,1,0,-6,-4,2,1
62186420018,-2,-1,-1,-1,-2,-1,0,0
62186420018,-3,-1,-3,-3,3,-2,-2,-2
62186425995,-3,-1,-1,-2,13,3,1,-1
62186425995,-1,0,0,3,-9,1,0,-1
62186435025,1,-1,1,-2,23,3,-1,-2
62186435025,0,-2,-1,-2,-27,-7,-1,-1
62186448501,-1,-1,-1,0,0,0,-1,0
62186448501,-1,-1,-2,-2,3,0,-2,-1
62186457442,-1,-3,-2,0,-9,-4,-1,0
62186457442,0,-1,-1,1,7,1,-1,-1
62186479761,0,-1,2,-4,4,-1,-1,0
62186479761,-1,-2,-1,0,0,-2,0,-2
62186481355,0,-1,-1,0,-7,2,0,1
62186481355,0,-1,1,-1,-2,-2,-2,-2
62186485850,2,0,0,-5,5,0,0,-1
62186485850,-1,0,0,-4,22,-3,-1,-3
62186494895,1,-1,-3,-3,-39,-3,-1,0
62186494895,-2,-2,-2,2,10,0,-1,1
62186508401,0,0,-4,2,1,4,-1,-1
62186508401,0,-3,-2,-2,3,1,0,0
62186517395,-2,-2,-4,-1,7,-2,-1,-2
62186517395,0,-1,2,-5,17,-3,0,0
62186530945,-1,0,-1,0,-18,1,0,-2
62186530945,-1,0,-3,3,-15,-4,-1,-1
62186539875,-2,0,-3,-3,1,3,-2,-2
62186539875,-1,0,-4,2,3,1,-3,-1
62186545891,-2,1,8,1,12,-8,-3,-1
62186545891,0,1,0,0,-10,2,-1,2
62186554895,0,0,-2,-3,-9,-2,0,-2
62186554895,-1,-4,-4,0,9,1,-3,-3
62186568453,-2,-5,-5,-1,1,1,1,-2
62186568453,0,-1,1,0,3,-3,-2,0
62186577367,0,-2,0,-4,-16,-7,-2,-1
62186577367,1,2,4,1,7,-5,0,1
62186591060,1,-1,2,-3,20,2,1,1
62186591060,-3,-3,-3,-3,-22,0,-3,-2
62186599964,-3,0,-3,0,7,2,-1,-2
62186599964,-2,-4,-2,2,-12,0,0,-1
62186606132,-1,-2,-6,4,14,-1,0,0
62186606132,0,1,0,-1,-4,3,1,-1
62186614897,1,2,5,-1,-7,-4,-4,1
62186614897,-1,0,-1,-2,1,-2,-1,-1
62186628630,0,0,-1,-2,-9,-1,0,-2
62186628630,0,-2,-3,-2,11,-4,-2,-1
62186637440,-3,-3,-5,2,-3,-1,-1,-1
62186637440,1,1,0,2,3,6,0,1
62186651114,1,0,-5,-3,10,1,-3,-1
62186651114,-1,2,5,-2,-22,-5,-4,0
62186659916,0,-1,-1,-2,18,-3,0,-2
62186659916,-1,0,-2,-3,-28,-3,0,-1
62186666178,-2,-3,-4,1,-1,3,-3,-1
62186666178,-3,-4,-5,-4,1,-1,-2,0
62186674937,0,0,2,0,3,0,-1,2
62186674937,-2,-2,1,-3,12,2,1,-2
62186688604,-1,-2,-3,-3,-9,-1,-1,-3
62186688604,0,2,3,-1,6,-5,1,-2
62186697397,-2,-2,-3,1,-6,-3,-1,-1
62186697397,-3,-2,-3,-1,-3,-1,0,-1
62186711697,-2,1,-3,-5,-14,-2,-1,0
62186711697,-2,-3,-3,-3,12,-6,-3,-1
62186718577,-1,-2,-3,-5,7,3,1,-2
62186718577,-2,-2,-3,-1,-21,-9,-6,-4
62186725957,-1,-1,-3,-3,-4,-2,-1,-3
62186725957,-2,-1,-4,0,-2,5,1,1
62186734931,0,1,-4,-2,1,-3,0,-1
62186734931,-2,-2,-1,-3,0,1,-3,-1
62186748553,-1,-1,-1,0,-7,-5,-2,-3
62186748553,1,1,-1,1,-6,9,2,1
62186757393,-2,1,10,-3,-9,-5,-1,-1
62186757393,0,2,7,-3,-4,-1,0,1
62186771713,-3,-4,-2,1,22,2,-1,0
62186771713,-1,-5,-12,2,-24,-2,-1,-3
62186778400,0,-2,-6,-2,4,3,0,-1
62186778400,-1,2,13,0,-1,-2,2,-1
62186785888,-1,0,-4,-1,-5,-3,0,-1
62186785888,-1,-3,-7,-3,6,-2,-2,-2
62186794871,-1,-1,3,-1,-2,1,-2,-2
62186794871,0,-1,-5,-3,1,-4,-3,-2
62186808435,0,-2,-8,0,-5,0,-1,-1
62186808435,-1,0,10,3,3,-4,-1,0
62186817477,-2,-4,-9,-3,-1,-5,-2,-1
62186817477,-2,-3,-4,-1,-5,7,3,-2
62186831614,2,1,4,1,-6,-1,1,0
62186831614,1,-1,-5,0,-2,-4,-1,-2
62186838411,0,-1,3,3,11,3,1,-1
62186838411,0,0,-3,-1,2,3,0,-2
62186845987,-1,-2,-1,-1,-6,3,1,0
62186845987,-1,2,4,0,1,-7,-3,-2
62186855008,2,2,3,-2,8,2,-1,0
62186855008,1,-2,-6,-1,-1,2,0,-1
62186868553,-3,-2,1,-2,-5,-2,-2,-2
62186868553,-2,-2,0,2,-1,-2,-2,-2
62186877522,-3,-1,-2,2,16,1,-1,-1
62186877522,0,1,-2,1,-23,-1,-1,1
62186891726,0,0,2,-1,10,-1,-2,0
62186891726,-2,0,1,-2,0,-2,0,0
62186898639,-1,-3,-3,5,-25,-2,-2,-1
62186898639,-2,-1,-5,-2,16,4,-1,0
62186914872,-2,0,3,-2,-8,-4,-2,-2
62186914872,-2,-1,0,-5,2,1,-1,-4
62186916423,0,-2,-2,-1,-3,-3,0,-1
62186916423,0,-1,-1,-3,6,-3,-1,0
62186928464,-2,0,1,-3,-6,2,-2,-1
62186928464,-1,-1,-2,-2,5,2,0,0
62186937459,-3,-3,-4,0,3,3,-1,-3
62186937459,-2,-3,1,2,-13,-7,-2,-2
62186952122,-1,-2,1,4,12,1,-2,-2
62186952122,1,-1,0,-3,6,3,0,1
62186958421,-1,-1,0,-2,-11,-10,-5,2
62186958421,-3,-3,-7,-1,12,-2,-1,-2
62186974809,-1,-2,0,1,-8,-2,0,-1
62186974809,-1,-2,0,1,1,1,0,-1
62186976398,-1,-1,1,2,-1,1,1,0
62186976398,0,-1,-1,1,-8,-4,-1,1
62186988497,0,0,2,-1,-2,-2,-3,1
62186988497,0,-1,-5,-1,-2,-1,1,-1
62186997576,-2,-3,-6,-1,-6,0,0,-1
62186997576,-1,-2,0,-1,11,-1,-1,-1
62187011640,-2,2,2,-1,-6,4,3,1
62187011640,1,0,1,-2,-17,-9,-3,1
62187018442,-2,-2,-2,-3,2,0,-1,-2
62187018442,-2,-2,-5,0,21,4,-2,-2
62187034791,-4,-1,-2,-3,-21,-4,-2,0
62187034791,-1,-1,1,-1,-2,-3,-1,1
62187036401,-1,0,3,-5,-12,0,2,2
62187036401,-2,-3,-3,0,0,-1,0,0
62187048462,-1,-3,-3,-1,2,-5,-2,-3
62187048462,-2,-2,-3,-4,13,5,1,-2
62187057394,0,-2,-4,-1,-3,-3,-2,-3
62187057394,1,-1,3,4,-7,0,-2,-2
62187071608,1,-2,-1,0,2,-1,-1,-1
62187071608,0,-3,-1,-2,-6,-1,-3,-1
62187078380,1,0,0,-3,9,2,-1,-2
62187078380,-2,1,-3,-3,-7,-2,1,1
62187094781,-1,-1,0,-3,-4,-6,-1,0
62187094781,-2,-1,-2,-1,1,-1,0,-2
62187096361,-1,-2,-1,-2,1,1,0,2
62187096361,0,-2,-1,-3,9,-1,-1,-2
62187108464,-1,0,-3,-1,-7,0,0,-1
62187108464,-1,-3,-1,0,5,-2,-1,-2
62187117472,-1,-1,0,-1,-2,-1,-1,-1
62187117472,-1,2,0,-1,-6,-3,-1,-3
62187131692,0,-1,-2,1,9,0,-2,-3
62187131692,0,0,0,-1,-5,0,-2,-1
62187138468,-1,0,0,0,-6,0,-1,0
62187138468,-2,-2,-1,-5,0,-2,0,0
62187154891,-1,-2,-2,4,1,1,1,-2
62187154891,-1,0,-1,1,-6,-3,-1,-2
62187156375,-2,1,1,1,3,0,-1,-2
62187156375,0,-2,-4,0,-6,-2,-2,0
62187168508,-2,0,3,1,-4,-11,-2,-1
62187168508,0,-2,0,-2,1,2,0,0
62187177456,-2,-2,-3,1,4,-4,-1,0
62187177456,1,0,-1,0,1,4,1,-1
62187191651,-1,-1,-2,-3,-2,3,0,-2
62187191651,0,-1,-1,1,-4,-6,-1,0
62187198464,0,0,-2,0,5,3,0,-1
62187198464,-1,0,3,3,-10,-2,-1,1
62187214758,0,0,-3,-2,4,1,-2,-1
62187214758,-3,-1,-2,0,-1,-1,0,-1
62187216352,0,0,-2,-3,7,-1,-1,-2
62187216352,0,1,-3,-3,-24,-3,-1,-1
62187228409,0,0,-2,0,-2,0,-2,-1
62187228409,-2,0,0,2,9,1,1,-1
62187237524,0,-2,-1,1,-3,-1,-2,-2
62187237524,-1,-3,-1,-1,10,-4,0,-3
62187251712,-2,-1,-1,0,3,0,-2,-1
62187251712,1,-1,-1,3,-11,-2,0,-1
62187258486,-2,-3,-3,2,5,1,-1,-1
62187258486,0,-1,0,2,-1,-1,-3,0
62187274822,0,0,1,-6,-8,-3,-2,-1
62187274822,-2,-1,-1,-4,1,-1,-1,-1
62187276414,-1,1,-2,1,-8,-1,0,-1
62187276414,-3,-2,-1,-4,0,-4,0,-1
62187288425,-2,-2,-2,-1,5,1,1,-1
62187288425,0,0,-1,1,14,1,-3,-1
62187297392,0,-3,-2,-3,-13,-3,-1,-1
62187297392,-1,0,-2,-3,-4,1,-1,0
62187311641,0,-3,-4,-3,7,-1,1,-2
62187311641,0,-1,2,2,-6,0,-1,-1
62187318428,-2,-3,0,-3,1,0,-2,-2
62187318428,-2,-2,-1,-3,-5,-1,-1,0
62187334793,1,4,4,1,10,3,0,2
62187334793,0,-2,-3,-3,1,0,0,1
62187336391,-1,1,1,0,-4,-2,-2,1
62187336391,-2,-4,-7,0,6,-2,-1,-2
62187348443,0,0,3,2,-11,-4,-1,0
62187348443,-2,-2,-4,-6,-7,-1,-2,-2
62187357403,1,2,2,-1,13,-1,-2,1
62187357403,-1,0,-1,-3,-20,0,1,0
62187372305,-3,-2,-4,0,-9,-3,0,-2
62187372305,0,1,-1,1,-1,2,-1,0
62187378517,-2,-2,-1,-5,-4,-2,0,-1
62187378517,1,-1,-1,1,16,1,-1,-2
62187394999,0,-1,-2,-1,2,0,-3,1
62187394999,0,-2,-1,0,-3,-2,0,1
62187396452,0,-2,-4,-3,-1,-2,-2,-1
62187396452,0,0,1,-1,0,-2,-1,0
62187408555,0,-3,-2,-3,-2,1,-1,-1
62187408555,-1,-2,2,1,0,-1,0,-3
62187417564,-1,-1,-1,1,-2,-1,2,-1
62187417564,0,-2,0,1,-1,0,-2,0
62187431803,1,-1,0,-4,-3,-3,-1,-2
62187431803,-1,-1,-1,-2,-1,0,-1,0
62187438653,-1,-4,-3,2,0,1,-2,-2
62187438653,0,-1,-1,-1,-3,-2,-1,1
62187454900,0,-4,-2,-2,3,-2,0,0
62187454900,-2,-1,1,-3,-4,-5,-3,-1
62187456414,-2,1,-2,-1,2,-2,-2,0
62187456414,-3,-1,-4,0,7,-4,-1,-1
62187468643,0,0,0,0,0,1,1,1
62187468643,-3,-1,-4,-2,-13,-3,-1,-2
62187477418,0,2,4,3,-2,1,1,-1
62187477418,-1,-3,-2,-2,0,1,1,-3
62187498899,-4,-1,-6,-3,4,1,0,-2
62187498899,0,-3,-5,1,-2,0,-1,0
62187507479,-1,-3,-3,-3,20,4,-1,0
62187507479,2,2,2,-3,-20,0,-2,1
62187514154,-2,-2,-4,-1,-8,-3,-1,-1
62187514154,-1,-2,-1,-1,5,1,-1,-2
62187520942,-2,-1,-3,-1,-6,-3,0,-2
62187520942,-2,-4,-4,-1,19,-1,-2,-1
62187528428,0,0,3,3,-19,-7,-2,0
62187528428,-1,-2,-1,-1,2,0,-2,0
62187537368,-1,0,0,-1,2,3,0,-1
62187537368,-3,-1,-5,-2,13,2,-1,-1
62187551633,-1,-3,-5,-1,-23,-1,-2,0
62187551633,-2,1,1,-2,0,-1,-2,-2
62187558414,-2,-2,-2,-2,-4,-4,-2,-1
62187558414,-3,0,1,-2,-1,0,-1,-1
62187574795,1,0,0,-2,18,2,1,0
62187574795,1,0,-2,5,-3,-3,0,-1
62187576419,-1,-3,-1,-1,-14,-5,-1,-1
62187576419,0,-1,-1,-1,-1,0,-2,-1
62187588412,-1,-3,-4,-1,11,-1,-1,-1
62187588412,-2,0,-3,0,4,1,0,-1
62187597540,0,0,2,1,-13,-5,0,0
62187597540,1,-1,0,-2,-10,-3,1,-1
62187611646,-1,-2,3,1,5,1,-1,0
62187611646,0,0,-2,-3,6,2,0,-3
62187618601,-4,-3,-7,1,17,2,-3,-2
62187618601,1,1,3,2,-22,-3,0,-1
62187634195,0,2,-1,-1,-27,0,0,0
62187634195,-1,-2,-2,0,6,-2,-1,-2
62187641119,0,-1,-3,0,-9,-2,-3,-2
62187641119,-2,-2,-3,-2,12,-2,0,-2
62187648606,3,1,4,-4,7,0,0,1
62187648606,1,0,1,0,-7,0,-1,-2
62187657450,-1,-1,-1,1,-3,-3,1,-1
62187657450,-3,-3,-5,-2,-1,-1,-2,-2
62187671820,-1,-1,-1,-5,3,-1,-2,-2
62187671820,-2,0,1,2,-3,-4,0,0
62187678602,-1,-3,-5,-4,-4,-1,0,-1
62187678602,0,-4,-7,3,0,0,-1,0
62187694130,-1,4,11,-3,15,-1,-2,1
62187694130,-2,-2,-2,-3,-13,-2,1,-1
62187701158,1,-1,2,-3,-12,0,-1,0
62187701158,-1,2,10,2,0,-3,0,0
62187708713,-1,-1,-4,-2,8,0,-1,-2
62187708713,-2,-2,0,2,10,-1,-2,-1
62187717506,-1,-2,-6,0,-10,-2,-2,0
62187717506,0,-1,-4,-3,0,1,0,-2
62187731817,-1,-3,-10,-2,3,2,0,-2
62187731817,1,0,4,-3,-3,-2,-1,0
62187738643,0,1,5,-2,-2,-3,0,0
62187738643,0,1,-2,-1,4,0,-2,-2
62187754300,-5,-2,-7,-1,-7,-3,-2,-2
62187754300,-1,-3,-7,-2,8,1,0,-1
62187760981,-2,-1,-3,3,-11,-3,-1,1
62187760981,-1,2,9,0,9,3,-1,0
62187768440,-3,-5,-9,-1,-6,0,0,0
62187768440,-1,1,-3,0,-2,2,-1,2
62187784934,2,3,7,-7,1,-2,0,-2
62187784934,0,-1,0,-1,-4,-1,-2,-2
62187791643,0,-1,3,2,-1,-3,-2,-3
62187791643,-2,-2,-6,-4,14,1,0,-2
62187798428,0,-2,0,0,11,4,-1,0
62187798428,1,-3,-3,1,-37,-5,0,2
62187814292,-1,0,3,0,6,-3,-1,-2
62187814292,0,-2,1,-3,-6,-2,1,0
62187821146,-4,0,-5,-5,7,0,-2,-3
62187821146,-3,-4,-5,-2,3,-3,0,-1
62187837536,-1,-5,-5,-2,-3,-2,-2,-2
62187837536,4,4,11,-3,-2,-5,0,1
62187838956,1,-1,0,-1,0,0,-1,1
62187838956,-1,1,0,-6,4,3,-1,0
62187851817,-2,-3,-7,-1,-1,-1,-1,-3
62187851817,-1,-3,-3,-3,-4,-2,-3,-1
62187858544,2,0,-2,0,-3,-1,1,1
62187858544,1,-1,4,0,10,0,0,-1
62187874071,-1,4,9,2,-2,0,1,-1
62187874071,-3,-1,-2,-3,-6,1,-1,-2
62187882530,-2,0,-5,-1,-1,1,-1,-2
62187882530,-1,-3,-5,-3,14,-6,0,1
62187897460,-1,-1,0,4,-9,1,0,-1
62187897460,-2,-1,-3,0,-2,1,-3,-2
62187898940,-1,1,4,1,-5,-1,-2,-2
62187898940,-1,-1,-5,4,2,-1,-1,-1
62187911720,1,0,1,0,8,0,-1,1
62187911720,1,-1,0,-2,-8,1,1,-1
62187918591,0,-3,-2,1,4,-1,0,-2
62187918591,-3,-2,-6,1,0,-1,-3,-3
62187934230,-4,-2,-4,2,-7,-4,-2,-1
62187934230,2,0,7,3,6,-1,0,3
62187941181,-3,-1,0,-1,0,-3,0,0
62187941181,-1,2,5,-1,-2,-2,-1,0
62187957881,-1,-4,-7,-4,2,1,-1,0
62187957881,0,-2,-2,-1,-2,-2,-2,-2
62187963650,0,1,0,-3,-7,-3,-1,-3
62187963650,-1,-1,-2,-3,-10,2,1,0
62187971809,-2,-1,1,-4,13,-1,-1,-2
62187971809,0,2,4,-6,-18,2,-1,-1
62187978584,-2,0,0,2,-1,-4,-3,-2
62187978584,-1,1,-6,-1,-8,-1,-1,-2
62187995374,0,-1,2,-3,1,1,-1,1
62187995374,-1,-3,-4,4,0,-6,-2,-1
62188002255,-2,-4,-8,1,-1,3,0,0
62188002255,-1,-1,-1,-3,-1,-2,-2,-1
62188017302,1,0,0,0,3,0,0,0
62188017302,0,-1,-4,0,-5,1,-1,-1
62188018869,-2,-5,-3,0,6,0,-2,-1
62188018869,-2,0,1,-5,7,-2,-2,-1
62188031698,0,2,4,1,-15,-1,-1,-1
62188031698,-2,0,-2,0,-4,-6,-2,-2
62188038421,0,-1,-1,-5,15,3,0,-1
62188038421,-2,-1,-4,4,-4,-2,-2,-3
62188054162,0,-1,-3,-1,-3,-2,0,1
62188054162,-2,-3,-3,-1,-2,-2,1,-2
62188060900,-2,-2,-3,0,-9,-4,1,0
62188060900,0,0,2,-2,3,2,0,0
62188077294,2,2,3,-1,15,2,-1,0
62188077294,-1,-3,-2,-1,-14,-3,-1,1
62188078888,0,0,-1,2,-3,1,-2,0
62188078888,-2,-2,-2,-3,-3,-1,-1,-1
62188090966,-3,-3,-6,1,-7,-1,-2,-4
62188090966,-3,-2,-4,-1,11,-1,0,0
62188099991,2,3,6,-2,0,-2,1,1
62188099991,-2,-2,-1,2,-9,-2,0,0
62188114309,-2,-1,-2,-3,-1,-2,-1,-3
62188114309,-2,-3,-4,1,2,2,-1,-2
62188121114,-3,-4,-4,-1,-6,1,-2,-2
62188121114,1,0,8,1,5,0,-1,0
62188137945,-1,-1,-3,-4,-7,-2,0,0
62188137945,-2,1,-1,-3,6,2,-2,-2
62188143586,-1,0,-6,-3,-6,-4,-2,1
62188143586,-1,1,-3,0,2,-2,1,0
62188151166,-1,-2,0,1,-6,-3,0,0
62188151166,0,-1,0,2,-15,-2,-2,1
62188159939,0,-1,0,-1,33,8,-1,-3
62188159939,1,-3,-4,-2,-31,-3,-1,-1
62188174328,-2,-1,-3,3,8,2,-2,0
62188174328,0,1,5,-3,1,-6,-1,0
62188181137,0,-1,2,-3,1,2,1,-1
62188181137,-3,-1,-1,0,11,-2,-1,-2
62188197472,-3,-4,-5,2,-12,-1,-2,-3
62188197472,1,-1,0,-1,15,6,0,1
62188198954,-1,-1,2,0,-9,-2,-3,0
62188198954,-1,-2,1,-1,14,5,0,-2
62188211003,1,0,0,-2,-8,-8,0,-1
62188211003,0,0,-1,-4,-17,1,-1,-2
62188220081,-1,-2,-6,-1,-4,-3,-1,-2
62188220081,-1,0,4,-4,-2,-4,-2,-1
62188234280,-3,-2,-3,0,5,-1,-1,-2
62188234280,1,-2,-4,-2,4,-2,-1,-1
62188241145,-1,-2,-3,2,-14,-5,-1,-1
62188241145,0,0,-1,2,17,2,0,0
62188257317,-1,0,3,-2,13,-2,-2,-1
62188257317,-2,-2,-2,5,-23,-1,-1,0
62188258920,-1,-3,-5,1,-8,0,-1,-3
62188258920,0,-1,-6,-1,8,-2,-2,1
62188270980,-2,-1,2,-2,15,-3,-3,-1
62188270980,-3,-4,-5,1,0,3,0,-3
62188279927,0,1,9,0,5,-2,0,0
62188279927,-2,0,-2,-3,-13,-3,-1,-2
62188294107,-1,-1,-4,0,-1,0,0,0
62188294107,-1,0,-5,0,3,-4,-2,-2
62188300903,-2,-1,-2,0,-5,1,-2,1
62188300903,-3,-1,-1,1,-1,-1,-3,-1
62188317262,1,-1,-2,2,-5,2,0,0
62188317262,0,-2,2,-2,-3,-2,1,-1
62188318874,1,1,2,-1,5,1,1,-1
62188318874,0,-1,-1,-1,-16,-4,-1,-2
62188331017,-3,-2,-3,1,-4,-3,-1,0
62188331017,-1,0,1,-1,11,2,-3,-3
62188340006,0,1,0,-2,-17,-3,0,1
62188340006,-2,-2,-4,1,-8,2,-2,0
62188354261,-1,1,-2,-2,2,-1,-1,-1
62188354261,-3,-3,-1,3,3,-5,-3,-2
62188361014,0,0,-4,-4,14,11,1,-2
62188361014,0,0,0,-1,-2,-9,0,0
62188377352,1,2,2,-1,-16,2,0,0
62188377352,-1,-1,-2,-3,5,0,1,-1
62188378954,-3,-4,-1,-3,-10,-10,-1,-1
62188378954,0,-2,-2,-1,-4,2,-1,-1
62188391105,-2,-3,-5,1,0,-1,-2,-2
62188391105,-1,0,1,-2,-2,-3,0,1
62188399954,-2,0,0,-2,12,-1,0,0
62188399954,-2,-2,-3,0,-15,3,0,-1
62188414339,0,-2,2,-1,-5,-5,-2,0
62188414339,-1,-2,-4,-3,-2,3,-2,-2
62188421111,-3,-3,1,1,6,-4,-2,0
62188421111,0,1,-1,-1,11,3,-2,0
62188437489,-2,0,1,-4,-25,-11,0,-1
62188437489,0,-2,-2,0,1,3,2,2
62188438935,0,-1,-5,2,-13,-8,-3,-1
62188438935,-1,-2,0,-3,11,1,1,-3
62188451134,-2,-2,-1,-4,-2,2,-3,-2
62188451134,-1,2,5,2,14,-1,0,0
62188459972,1,0,-4,0,-9,0,-2,-1
62188459972,-1,-1,1,-3,-13,-1,-3,0
62188474374,1,0,2,-4,5,1,-1,0
62188474374,-2,-2,-2,2,-9,-5,-1,-2
62188481176,-2,-1,1,-2,9,4,-1,-2
62188481176,-2,-1,-3,-3,4,-3,-1,-2
62188497354,0,-3,-3,-2,-5,1,0,-1
62188497354,0,2,-2,-3,10,-5,0,0
62188498922,0,-1,5,-1,-24,-2,0,0
62188498922,-3,-2,0,-5,-1,-5,0,-2
62188510946,-2,-1,-3,2,2,4,-1,-2
62188510946,-1,-4,-5,2,5,5,0,0
62188519950,-2,-2,-6,2,-7,-7,-3,-2
62188519950,-1,1,2,-5,14,1,-1,0
62188534148,-1,-1,3,-1,-24,-3,-2,2
62188534148,-1,1,2,-4,3,0,-2,-1
62188540937,-1,-1,-2,2,4,4,0,-1
62188540937,-1,-1,-3,-1,4,1,-2,0
62188557287,-2,0,-2,2,10,-2,0,-1
62188557287,0,0,-1,-2,-2,1,-1,-1
62188558917,0,-1,1,-4,-6,-2,-1,0
62188558917,-1,-2,-1,5,5,-1,-2,0
62188570965,0,0,-1,-1,5,3,3,-1
62188570965,-2,-3,-1,-1,-18,-5,-2,0
62188579933,-1,-4,-4,1,13,1,1,-2
62188579933,-1,-1,-1,5,12,1,-2,-1
62188594189,0,-1,-2,-3,-29,-8,-3,0
62188594189,0,-1,0,0,4,-5,-2,0
62188601004,-2,1,2,2,-3,-3,-2,-1
62188601004,1,0,0,-6,-20,2,1,0
62188617325,-2,0,-2,2,17,6,0,-1
62188617325,0,0,-2,-2,-9,-2,-1,-1
62188623644,-1,-3,-1,-5,6,-1,0,-2
62188623644,0,-3,-3,-2,-1,-4,-2,-2
62188631009,1,-2,1,-3,11,4,-1,1
62188631009,0,-2,1,-1,-10,-8,-3,0
62188640100,-1,0,2,-2,-1,0,1,0
62188640100,-2,0,1,0,21,5,-2,-3
62188654366,-2,-4,-2,-3,-23,-4,-3,-3
62188654366,-2,-3,-4,-1,10,1,-3,-2
62188660963,0,2,2,3,-14,-8,-3,-1
62188660963,-2,-2,-3,0,-2,0,1,-1
62188676720,-2,0,-4,2,19,5,-2,-1
62188676720,1,1,3,1,-3,4,-1,-1
62188683639,0,-2,-5,-3,-6,-1,0,-1
62188683639,0,-2,-3,3,-1,-8,0,2
62188691156,-1,0,2,3,-6,-6,-1,-1
62188691156,-2,-2,-5,-3,-2,2,0,-2
62188699971,0,-3,-4,-1,-12,-8,-2,-1
62188699971,0,-2,-2,-3,-2,0,-2,-3
62188714379,-2,-2,-6,0,-6,-1,0,-1
62188714379,0,-2,0,-5,4,1,0,1
62188721182,-1,0,-3,-4,-20,1,0,0
62188721182,-2,-3,-1,-4,-3,-4,-1,-2
62188736661,0,-1,-3,4,-3,-1,-1,-2
62188736661,-2,-1,2,-2,6,-4,2,-1
62188743438,0,1,2,3,8,6,0,0
62188743438,1,2,-2,6,-6,-1,-1,0
62188759847,-1,0,0,-3,19,3,1,-2
62188759847,-1,1,-2,-1,-8,0,-3,1
62188761401,-2,-6,-7,-1,5,-2,0,-2
62188761401,0,1,4,-2,-10,0,-1,0
62188774144,0,0,2,-1,9,4,1,-1
62188774144,0,0,-1,1,-2,-9,-2,-2
62188780946,-2,-3,2,-1,4,-3,-2,-2
62188780946,-3,-1,-4,0,-2,0,-1,-1
62188796643,-2,-3,-1,-2,-20,-3,-2,-1
62188796643,-1,-2,-2,-3,14,6,-1,-1
62188803706,0,0,0,-1,-1,3,-2,0
62188803706,-2,1,1,1,-6,-16,-1,1
62188819958,0,-3,-3,2,6,1,-1,-2
62188819958,0,-3,-3,3,-14,-6,-1,-1
62188821447,-1,-1,1,-3,12,5,0,0
62188821447,-2,-1,-4,-1,15,3,-1,-1
62188834363,0,1,4,-3,-10,-2,-2,0
62188834363,-1,-3,0,4,18,1,0,-2
62188841211,-1,-2,-3,-1,-16,-3,-2,1
62188841211,1,-2,-1,0,3,0,1,0
62188856726,-1,-1,-2,-2,-18,-3,-3,-1
62188856726,0,0,0,0,-11,1,0,1
62188863540,-1,0,3,0,14,1,0,-1
62188863540,-2,-2,-2,0,-3,-1,-1,-2
62188879867,0,0,-2,-2,16,-1,-1,0
62188879867,-3,-2,-3,-3,-3,-2,0,0
62188881402,-2,1,-4,-4,-12,-1,-2,-2
62188881402,-1,1,0,-6,-3,-2,-1,0
62188894616,0,-1,-2,1,-3,-10,-2,0
62188894616,0,-1,-3,1,16,10,-1,-1
62188900909,0,-2,-4,-2,-7,-6,0,-1
62188900909,-1,-2,-1,-2,-6,3,-1,-2
62188916794,-2,-2,0,-4,-9,-4,-1,1
62188916794,0,0,-1,-1,-8,-6,1,-3
62188923738,-1,2,0,-2,10,-1,-3,1
62188923738,-1,-1,-1,-2,-11,-2,-3,-1
62188940009,1,-2,-2,-1,0,0,0,0
62188940009,-1,-1,-1,1,24,8,-1,-2
62188941469,-2,-3,-4,-4,-11,-1,-1,-4
62188941469,1,1,4,0,-19,-3,1,1
62188954396,1,-2,0,-2,9,-1,0,-4
62188954396,-1,0,1,0,-1,5,-1,-2
62188960975,-2,-2,-6,2,23,-4,-3,-1
62188960975,0,-2,-1,-1,-18,-2,-2,-3
62188976760,0,-1,0,-2,11,0,0,1
62188976760,-1,-3,-2,-4,-7,-7,-1,-1
62188983754,-1,0,-3,2,-7,1,0,-1
62188983754,-1,-2,-5,2,4,-3,0,-2
62188999957,-2,1,-3,-3,3,4,-1,0
62188999957,-1,-1,-1,1,-16,-3,-2,-1
62189001483,0,-2,-1,3,32,3,0,0
62189001483,2,-2,2,0,-27,-8,-2,-1
62189014186,-3,-1,-2,0,18,5,-4,-2
62189014186,2,2,5,-8,-18,-4,0,1
62189028530,-1,-1,-1,1,-18,-2,1,-2
62189028530,-2,-1,-5,-1,19,5,0,-2
62189036631,0,-3,-1,1,-9,-6,-2,-2
62189036631,-2,-3,-1,-1,1,-2,-4,-1
