timestamp,emg1,emg2,emg3,emg4,emg5,emg6,emg7,emg8
41896326779,-13,8,-7,7,-11,-4,5,-22
41896326779,61,32,20,84,-26,0,7,46
41896327529,32,-2,18,48,-42,-14,-16,39
41896327529,-72,-8,-25,-91,30,0,-15,-74
41896328329,17,10,-5,26,16,2,1,-3
41896328329,-8,-4,-9,-15,17,-1,-2,-18
41896331233,-24,-6,-12,-37,44,0,-9,-29
41896331233,13,2,-1,6,40,-1,-5,-3
41896338963,1,-2,4,-5,27,-6,-8,3
41896338963,-5,-4,1,-11,10,-7,-18,9
41896346996,41,15,9,58,-29,0,9,32
41896346996,29,5,16,50,-64,0,8,47
41896353291,27,0,13,38,-78,-4,-5,47
41896353291,28,0,10,50,-67,-5,13,21
41896368432,-3,-1,-1,12,-19,-8,0,-11
41896368432,25,5,6,32,1,-11,3,21
41896376908,-26,-11,-12,-41,70,-11,-9,-34
41896376908,-55,1,-25,-66,124,-12,-11,-104
41896384701,-64,-3,-36,-105,127,-7,-1,-91
41896384701,-89,-9,-51,-117,124,-6,3,-125
41896398999,-114,-8,-66,-128,122,7,5,-125
41896398999,-126,-18,-74,-128,126,7,9,-123
41896406828,-121,-8,-69,-128,127,12,7,-128
41896406828,-49,4,-42,-87,124,10,11,-103
41896447393,9,7,-15,-1,4,13,14,-25
41896447393,24,8,7,3,-102,8,11,30
41896448273,75,11,27,66,-117,5,15,91
41896448273,111,6,52,120,-128,6,8,127
41896451211,127,9,65,127,-128,5,2,127
41896451211,112,5,64,127,-114,2,-1,124
41896452045,103,7,60,120,-128,0,0,119
41896452045,82,10,50,125,-122,-3,7,125
41896458792,68,-5,42,94,-128,-4,-3,113
41896458792,56,6,31,81,-118,-2,5,94
41896465522,21,-10,24,34,-120,-1,-14,76
41896465522,25,-5,14,36,-116,-1,-7,51
41896473203,-14,4,5,16,-93,-3,-7,-27
41896473203,2,2,7,11,-84,-4,7,31
41896496322,-18,-2,-7,-14,-27,-6,-8,-20
41896496322,-23,-1,5,-26,-9,-4,-11,-42
41896497036,-14,-2,-4,-7,3,0,-1,-6
41896497036,-10,1,-10,-12,30,5,-3,-28
41896512018,0,10,-12,5,45,4,5,-27
41896512018,-13,4,-20,-27,46,-2,19,-26
41896518877,-15,-7,-5,-31,16,-6,-25,-21
41896518877,-10,1,-10,-15,37,1,-5,-29
41896525706,23,-1,-5,12,13,2,-6,19
41896525706,-6,2,-10,-10,28,-2,0,-18
41896533276,19,-2,3,24,4,-1,6,-4
41896533276,17,5,-11,26,38,-3,5,-12
41896548011,-12,2,-6,-2,39,2,-64,-38
41896548011,-12,-4,0,-38,34,-2,-48,-16
41896555635,3,12,1,9,28,-6,50,-16
41896555635,31,-6,2,35,-5,3,48,24
41896564635,22,2,-3,33,16,1,25,3
41896564635,-10,-5,-17,-29,49,-2,-28,-33
41896578813,23,6,-14,23,43,1,-18,29
41896578813,10,-2,0,14,11,2,-21,-11
41896585621,18,14,1,35,-9,-1,31,-10
41896585621,52,0,7,67,-37,-1,20,63
41896593194,20,6,3,20,-23,-1,2,18
41896593194,48,14,1,45,-18,0,-6,66
41896608277,-8,-3,2,30,-18,-1,3,-43
41896608277,32,7,-1,49,-35,4,15,20
41896615784,53,15,2,62,-25,1,-7,49
41896615784,6,-21,0,-10,0,-7,-17,19
41896624627,16,6,2,-9,6,-2,1,21
41896624627,31,-11,-2,32,-12,2,-1,25
41896638495,28,-1,-11,31,-15,1,2,35
41896638495,6,-9,-3,10,-3,-5,-10,-8
41896647098,22,-14,-2,-1,-22,-2,1,28
41896647098,24,-1,2,24,-35,3,-3,28
41896653167,-6,-15,9,-31,-23,2,-29,14
41896653167,19,-15,4,2,-29,3,-23,25
41896668227,2,-25,6,-15,-20,1,-34,21
41896668227,-19,37,12,-41,-32,9,-78,7
41896675622,56,28,-2,48,-41,11,-72,51
41896675622,81,6,6,84,-58,16,-37,65
41896684593,70,14,6,44,-83,15,-34,83
41896684593,92,-49,38,85,-73,0,-9,100
41896698870,92,-3,50,101,-3,12,-9,58
41896698870,120,-17,66,125,-42,-10,77,98
41896705787,127,62,120,127,41,-87,91,70
41896705787,-24,-109,-78,-34,-23,-16,-80,-4
41896713226,-6,90,72,7,105,-4,99,-45
41896713226,-65,-90,-94,-65,-43,23,-128,-17
41896728220,83,84,91,98,-27,31,94,57
41896728220,-59,-34,-48,-55,22,-8,20,-78
41896735681,85,30,58,78,-128,4,7,104
41896735681,-117,-22,-61,-119,26,16,4,-122
41896750716,-23,-79,-54,-40,-128,-9,-84,73
41896750716,-73,5,-23,-64,66,17,56,-113
41896758909,40,-76,-39,63,-46,-9,-72,95
41896758909,-87,11,2,-79,32,-16,85,-116
41896765680,87,77,72,86,-59,50,19,101
41896765680,-76,-66,-73,-69,-1,-49,-58,-91
41896773155,16,69,51,10,49,72,104,-54
41896773155,127,98,127,127,-54,7,79,127
41896796388,-128,-128,-128,-128,-23,-42,-22,-128
41896796388,127,127,127,127,-110,62,127,127
41896797080,-59,-18,-53,-60,10,-45,-121,-49
41896797080,-51,21,-35,-47,127,16,-126,-107
41896819449,-98,-52,-35,-95,127,-3,-122,-122
41896819449,-103,-126,-63,-98,124,-30,84,-104
41896820149,-128,-128,-105,-128,107,-45,37,-128
41896820149,86,124,21,101,24,54,127,96
41896825705,12,-101,-13,0,-74,-29,-35,40
41896825705,106,0,55,114,-114,-2,92,126
41896833194,65,97,13,99,-44,66,121,73
41896833194,91,56,51,87,-123,22,4,112
41896848111,-72,-34,-51,-65,53,-42,-24,-93
41896848111,-25,76,-1,-25,81,30,-114,-91
41896855646,-38,-128,-8,-95,-63,-93,-128,-20
41896855646,54,-99,7,72,-58,-69,-106,97
41896870621,-44,-109,-54,-89,-41,-103,-116,-54
41896870621,-87,-118,-87,-95,18,-128,-128,-77
41896878945,-128,17,-105,-128,86,16,94,-128
41896878945,15,64,63,27,31,73,78,23
41896885744,127,114,127,127,-107,101,96,127
41896885744,14,-66,-40,-47,-78,-69,-95,4
41896893213,-55,-120,-97,-75,28,-124,-128,-61
41896893213,-128,-51,-78,-128,117,-23,32,-128
41896908246,58,127,78,77,93,127,127,50
41896908246,127,127,127,127,-65,110,100,127
41896915858,127,-88,27,125,-128,-67,-107,127
41896915858,-66,-128,-128,-128,-95,-128,-128,-112
41896930711,-120,-128,-128,-128,-26,-128,-128,-128
41896930711,-123,-106,-128,-128,-38,-114,-124,-128
41896938776,-58,-110,-92,-92,-87,-106,-104,-74
41896938776,-91,-128,-123,-128,-55,-128,-128,-106
41896945587,-68,-123,-128,-128,-46,-128,-119,-95
41896945587,-67,-128,-120,-103,-50,-128,-128,-67
41896953083,-4,-101,-102,-104,-57,-100,-109,16
41896953083,112,-21,86,96,-83,-49,-75,121
41896968228,110,88,100,118,-44,17,87,113
41896968228,127,127,127,127,-3,119,127,127
41896975784,-85,-58,-62,-76,-42,-29,-48,-93
41896975784,35,94,81,50,26,84,96,33
41896990734,28,-16,9,26,49,-40,-61,43
41896990734,40,-48,-11,37,34,-52,-74,43
41896998954,48,57,75,64,25,34,70,38
41896998954,94,13,28,97,99,6,19,98
41897005628,65,81,72,72,81,75,61,60
41897005628,-21,47,11,-23,-9,44,3,-16
41897013115,50,109,127,27,8,96,72,7
41897013115,9,36,31,2,16,33,58,7
41897028230,58,28,43,51,75,28,41,68
41897028230,-11,-65,-20,-17,12,-66,-83,25
41897035678,-67,-76,-60,-50,-104,-85,-97,34
41897035678,-97,-104,-87,-101,-96,-79,-107,-94
41897050599,-128,-91,-128,-128,-124,-61,-66,-119
41897050599,-88,-31,-47,-86,-91,-18,3,-63
41897058885,-15,-16,-21,-11,-41,-21,-13,-1
41897058885,-82,-92,-86,-89,-77,-84,-71,-59
41897065724,-10,-94,-51,-9,0,-77,-98,11
41897065724,4,-12,-10,4,9,-44,-46,-2
41897089572,51,48,61,54,32,51,22,43
41897089572,-50,-48,-55,-52,-10,7,-8,-20
41897090974,-12,-29,-11,21,42,7,-5,15
41897090974,81,88,87,78,78,90,103,70
41897095778,-6,-3,-4,8,-1,35,59,-1
41897095778,65,17,64,68,51,-15,-45,77
41897110846,10,56,17,-39,-32,5,38,-31
41897110846,-62,-40,-65,-71,-53,-49,-51,-47
41897126898,25,42,25,9,40,-1,11,43
41897126898,-70,-32,-72,-74,-71,-8,19,-71
41897128501,-36,-73,-25,-6,-21,-37,-46,-1
41897128501,67,41,62,58,13,38,46,26
41897141435,-14,43,-10,-13,-47,30,24,-48
41897141435,-58,-31,-43,-63,-42,-34,-5,-47
41897148217,-31,-32,-15,-13,-21,-15,30,5
41897148217,11,7,22,20,22,-9,-29,40
41897155598,102,36,82,127,53,17,-18,121
41897155598,127,81,96,127,57,40,35,102
41897170807,103,89,69,103,18,59,27,70
41897170807,93,63,25,98,-6,37,13,62
41897178758,50,39,24,49,-17,13,-21,63
41897178758,8,-11,13,12,-23,-32,-36,2
41897185837,-106,-95,-63,-107,-28,-63,-53,-108
41897185837,-64,21,-49,-59,7,29,10,-91
41897201277,119,99,88,120,7,58,22,105
41897201277,-107,-111,-92,-98,0,-80,-19,-61
41897208253,51,74,36,26,14,66,36,29
41897208253,-77,-128,-57,-92,-17,-107,-35,-24
41897215804,53,52,65,57,13,66,53,25
41897215804,-128,-93,-125,-128,9,-40,-6,-128
41897230857,114,68,80,116,-38,9,-20,104
41897230857,68,73,69,65,-11,80,46,66
41897238788,24,97,70,17,31,70,45,-98
41897238788,-6,123,54,-6,46,113,52,-19
41897245758,-128,-63,-128,-128,43,14,17,-128
41897245758,-128,-126,-128,-128,23,-17,-8,-128
41897261249,-128,-128,-128,-128,17,-75,-7,-128
41897261249,-89,-93,-97,-99,24,-64,-25,-107
41897268213,-128,-128,-128,-128,-7,-128,-91,-128
41897268213,-128,-121,-128,-128,-34,-128,-118,-101
41897275763,42,-81,-20,40,-28,-91,-83,52
41897275763,120,105,105,114,-15,93,37,124
41897290732,19,94,48,7,-1,103,69,-21
41897290732,-37,-46,-33,-38,-10,-58,-65,-49
41897298978,14,51,29,5,13,69,65,21
41897298978,-103,-99,-117,-107,-24,-73,-41,-84
41897305629,127,127,127,127,22,98,82,127
41897305629,-71,-70,-48,-73,-9,-47,-53,-81
41897321291,20,-128,-6,5,-7,-52,54,33
41897321291,6,127,11,6,-16,-46,-29,-8
41897328166,20,58,18,57,-39,-74,-15,104
41897328166,22,127,5,-12,-31,23,-70,-16
41897335655,-51,-69,-49,-19,3,28,-49,-40
41897335655,36,-83,52,47,-4,78,-104,39
41897350639,-72,-128,-95,-81,-8,-46,-23,-84
41897350639,9,-1,13,16,-17,-80,80,40
41897358936,-56,45,-21,-90,-66,-49,43,-127
41897358936,27,-1,11,11,14,57,83,39
41897365806,-40,-87,-79,-12,-10,40,-128,-11
41897365806,15,18,14,30,9,6,33,98
41897381439,-128,-85,-128,-128,-76,-42,-35,-128
41897381439,22,14,12,29,15,-28,58,27
41897388207,76,94,76,54,56,9,105,3
41897388207,106,113,111,104,51,107,96,74
41897395722,56,124,65,62,38,-7,-31,71
41897395722,127,115,120,122,-14,-7,6,127
41897410704,-101,-101,-75,-110,-53,-40,-64,-57
41897410704,-98,-101,-101,-116,16,28,13,-128
41897418874,90,94,98,85,13,7,22,85
41897418874,-90,-97,-96,-83,3,-41,-37,-93
41897433269,96,33,71,95,-43,-15,-6,105
41897433269,106,92,101,114,-13,60,67,89
41897441501,-126,-110,-128,-121,21,-28,-42,-81
41897441501,-62,-88,-74,-84,-32,-25,-47,11
41897448245,43,67,51,34,-28,8,10,34
41897448245,76,63,80,92,-16,13,29,19
41897463931,-60,69,-39,-58,24,34,45,-87
41897463931,-68,-84,-73,-58,-23,-12,-38,-55
41897470640,18,14,26,8,3,1,32,-14
41897470640,-60,-97,-71,-52,1,-22,-47,-41
41897478929,79,-24,39,89,-32,-11,-36,122
41897478929,82,89,77,80,9,17,68,27
41897485677,-85,-23,-82,-101,35,-12,29,-72
41897485677,-56,-56,-54,-61,-7,0,-23,-76
41897501325,-128,55,-105,-128,47,-17,5,-128
41897501325,105,-72,83,113,-60,-5,-10,127
41897508231,-27,60,-26,-21,50,27,25,-92
41897508231,-14,-19,-35,-42,-42,-12,-44,69
41897515752,73,-3,72,75,-33,-7,22,96
41897515752,-58,94,-35,-60,26,16,21,-76
41897530790,-102,-48,-90,-114,-19,-22,-74,-62
41897530790,43,-95,-13,53,-35,-15,-32,52
41897538737,127,-33,94,127,-71,-21,-58,127
41897538737,127,127,127,127,-8,41,100,127
41897545782,68,6,82,99,43,2,55,-17
41897545782,-118,16,-55,-123,92,7,34,-103
41897561432,-74,-70,-69,-70,36,-4,-38,-91
41897561432,-128,-128,-128,-128,0,-12,-78,-90
41897568311,65,-34,44,59,-84,-15,-27,107
41897568311,127,102,127,127,-10,18,65,59
41897575830,-92,-30,-81,-86,33,7,0,-112
41897575830,49,-8,39,62,-74,-47,-4,37
41897590665,9,3,27,19,-24,-12,37,-8
41897590665,94,8,40,80,-127,15,-25,126
41897598951,-63,37,-2,-51,-39,14,46,-63
41897598951,15,-57,-26,27,-104,5,-38,53
41897605613,119,21,103,107,-128,27,34,127
41897605613,104,69,105,108,-86,34,127,91
41897621165,119,27,61,120,-11,44,115,56
41897621165,35,-57,-2,10,55,52,127,-37
41897629650,-128,-22,-128,-106,115,109,-81,-127
41897629650,-128,-128,-128,-128,108,88,-118,-128
41897635743,-79,-23,-85,-83,49,-47,-128,-34
41897635743,-114,55,-88,-96,105,-105,-106,-128
41897650720,-128,-112,-128,-128,125,-128,4,-128
41897650720,-128,-57,-128,-128,127,-80,81,-128
41897659655,-86,0,-94,-85,110,13,127,-64
41897659655,-51,0,-33,-79,127,76,127,-36
41897665726,1,31,15,-35,100,62,91,63
41897665726,106,58,96,100,-92,37,32,127
41897682093,127,29,127,127,-118,20,44,127
41897682093,126,54,127,127,-128,7,-8,102
41897688288,107,-13,54,114,-128,9,-48,127
41897688288,127,31,86,127,-100,-19,-36,127
41897704672,39,-24,5,41,-128,-14,-14,127
41897704672,-118,-72,-101,-116,-73,8,-61,-77
41897710734,117,86,117,116,-121,-20,22,116
41897710734,-94,-74,-97,-100,-50,-18,-83,-53
41897719617,113,13,94,108,-101,-9,-36,106
41897719617,-16,44,6,3,30,-1,14,-37
41897733173,-56,-94,-74,-76,-43,-3,-63,-42
41897733173,83,53,61,84,11,-19,40,47
41897742110,-128,-35,-96,-128,81,0,-43,-128
41897742110,53,12,33,64,43,0,2,18
41897748220,-27,1,-21,-3,105,-9,15,-106
41897748220,-108,-56,-54,-113,59,5,-46,-87
41897771363,79,6,35,124,-5,-5,7,46
41897771363,-15,24,16,-10,15,-5,24,-37
41897772111,7,-40,-21,14,-60,6,-29,37
41897772111,-9,40,7,9,13,-7,18,-24
41897779707,47,30,19,48,-4,-4,26,44
41897779707,27,-15,-7,16,-54,3,-37,58
41897793156,-66,3,-10,-83,18,-2,-4,-32
41897793156,81,27,27,98,-44,-1,21,75
41897802112,-26,3,-8,-34,28,1,-3,-49
41897802112,60,8,16,73,-25,6,-18,43
41897808169,-31,-29,-5,-63,32,-7,3,-23
41897808169,72,3,18,77,-35,-1,-7,66
41897832794,-31,-11,-16,-45,-6,-4,-13,-14
41897832794,70,24,6,70,-25,7,-10,80
41897833637,-40,11,8,-40,-8,-8,-9,-24
41897833637,6,-6,-8,45,8,5,-2,-57
41897839708,-29,-28,2,-60,44,1,-15,-26
41897839708,-4,-20,6,-48,1,1,20,26
41897853129,48,23,-4,70,5,0,25,-3
41897853129,3,-3,-4,-13,-30,-1,-24,21
41897862108,78,-3,2,87,-85,-5,-32,96
41897862108,77,-20,13,93,-67,13,-43,58
41897868284,118,6,-16,118,-39,7,15,62
41897868284,26,59,-2,39,-19,4,17,35
41897884750,18,34,-1,71,-10,5,42,-5
41897884750,-93,-37,2,-96,-4,94,-14,-69
41897890714,-20,13,-5,5,7,-18,3,-14
41897890714,-78,-52,7,-115,33,25,-68,-47
41897899666,-29,54,3,-48,54,-107,34,-56
41897899666,68,-54,-12,79,-41,-59,16,91
41897913037,59,-33,6,44,-3,-31,11,31
41897913037,23,-7,2,38,-31,17,73,54
41897928899,52,-36,-9,29,4,33,27,49
41897928899,-59,-12,-4,10,-70,33,15,73
41897929621,22,0,5,14,-101,4,-17,73
41897929621,-57,-51,10,-80,-113,3,-86,16
41897944635,-68,-88,24,-83,-65,3,-128,-31
41897944635,-22,-43,-1,-19,-33,-20,12,-31
41897950745,31,-33,-29,58,-27,11,45,75
41897950745,-48,12,39,76,-83,20,126,81
41897959649,82,64,24,95,-97,27,116,51
41897959649,-61,37,42,-57,85,29,-91,-98
41897973227,-117,-65,7,-111,-27,12,-64,15
41897973227,-37,43,-7,0,127,41,-128,-122
41897982156,-75,13,-1,32,-67,-78,-114,-17
41897982156,-43,-45,15,-92,-104,18,-30,-98
41897995825,-58,31,15,-15,-128,-16,15,-88
41897995825,-35,-52,-5,-69,-14,2,-49,-117
41898004662,-62,-54,3,-47,88,16,-97,-86
41898004662,-104,-33,-2,-85,122,14,-121,-112
41898010679,-101,-69,0,-91,127,50,-128,-128
41898010679,-16,-8,-18,-17,98,-89,-45,-39
41898019638,-10,11,-43,-54,124,22,-26,-65
41898019638,38,7,-41,-31,119,-91,117,-50
41898033197,123,81,-41,83,-61,9,26,97
41898033197,116,127,-35,107,-106,21,127,122
41898042099,94,48,3,113,-128,45,120,127
41898042099,127,82,13,127,-128,3,124,127
41898055789,126,30,36,127,-124,5,115,123
41898055789,35,-97,32,-69,-121,-22,-42,88
41898064653,105,-12,26,82,-128,-11,-6,117
41898064653,127,65,24,127,-128,-5,14,127
41898079640,-81,-84,14,-80,-4,-23,9,-90
41898079640,106,84,2,123,-17,-3,68,87
41898081030,-1,26,-10,72,127,35,50,-17
41898081030,-100,-38,-60,-74,126,2,-74,-81
41898093092,13,7,-12,-9,-33,-18,-128,80
41898093092,-40,-84,-29,-102,-14,-27,-128,-27
41898102154,-125,-128,-114,-128,77,-1,-128,-106
41898102154,-59,-12,-57,-63,83,1,-37,-71
41898115785,37,65,69,61,81,20,91,1
41898115785,19,-25,-15,-3,-55,-14,-69,24
41898141703,56,86,106,63,30,23,125,18
41898141703,-52,-72,-88,-74,-50,-45,-124,-16
41898142431,49,85,70,68,40,20,77,24
41898142431,-67,-39,-39,-44,127,3,56,-88
41898145649,-14,-83,-72,-75,-97,-22,-110,12
41898145649,88,95,118,117,-42,19,98,75
41898153203,-84,-56,-57,-86,94,2,2,-101
41898153203,46,7,-18,62,-79,-17,-57,51
41898162118,-11,54,81,17,12,25,79,-26
41898162118,-76,-98,-77,-103,-2,-20,-46,-64
41898175835,84,39,2,60,-128,-14,-115,107
41898175835,80,116,127,83,22,30,92,57
41898184611,-54,9,21,-38,120,16,86,-80
41898184611,-56,-54,-58,-59,19,-21,10,-48
41898199580,-15,-64,-76,-31,-33,-7,82,10
41898199580,24,-10,-17,19,-61,-6,-15,19
41898201051,127,118,118,127,-128,15,64,127
41898201051,-51,20,10,-35,100,13,-16,-79
41898213258,61,4,14,57,-91,-12,-128,61
41898213258,51,66,82,61,64,17,-22,10
41898222092,-104,-120,-128,-128,78,-23,-108,-106
41898222092,-13,-67,-62,0,-90,-19,2,67
41898235693,88,94,88,95,5,10,-25,97
41898235693,-92,-75,-82,-104,73,-2,12,-118
41898250625,-31,-75,-67,-30,-98,-21,-10,42
41898250625,127,124,127,127,-31,14,6,109
41898259435,-125,-90,-93,-128,112,1,108,-128
41898259435,40,43,32,63,-21,3,-22,62
41898261056,-94,-98,-90,-128,29,-9,-85,-102
41898261056,118,90,125,127,-116,19,42,124
41898273159,-118,-114,-128,-107,61,-32,-106,-71
41898273159,-96,-90,-88,-99,97,-3,-6,-106
41898282117,-128,-128,-128,-128,26,-18,25,6
41898282117,125,117,109,127,17,20,-11,127
41898288077,-103,-79,-75,-103,107,2,-17,-125
41898288077,9,20,31,-18,34,-4,22,-75
41898311226,17,-5,-6,11,-97,-7,-29,49
41898311226,-8,8,6,-34,103,15,23,-87
41898312002,-44,-66,-71,-27,-68,-21,0,21
41898312002,51,67,60,47,37,10,-8,31
41898327068,-59,-62,-64,-56,-55,-24,-29,-33
41898327068,38,54,53,17,23,19,4,-30
41898333060,-44,-61,-56,-58,-84,-28,-24,8
41898333060,82,84,101,90,22,34,3,54
41898342061,-25,-12,-9,-39,127,-1,-47,-90
41898342061,-122,-128,-128,-128,-26,-63,-45,-21
41898348062,127,127,127,126,-31,58,32,104
41898348062,0,18,28,-2,26,46,64,6
41898364608,-42,7,25,-35,52,7,9,-72
41898364608,-128,-128,-128,-128,-7,-75,-14,-113
41898370581,4,-13,-21,-3,-86,-67,-54,34
41898370581,40,49,38,57,-93,37,58,49
41898379622,-2,52,61,-2,57,41,53,-45
41898379622,-110,-122,-123,-123,-22,-85,-47,-88
41898393265,112,127,127,110,-5,91,61,81
41898393265,-79,-128,-128,-78,-52,-108,-77,61
41898402082,-16,-68,-88,-38,-67,-115,-114,90
41898402082,127,127,127,127,-19,86,17,127
41898408246,-128,-128,-128,-128,-41,-74,-47,-90
41898408246,-7,15,25,22,28,79,24,-4
41898424626,114,127,19,108,1,58,110,47
41898424626,80,-118,57,107,-24,-11,-25,115
41898430787,92,127,85,101,24,49,17,98
41898430787,-45,-85,-34,-46,10,63,-3,-87
41898439644,61,-26,49,81,-10,48,-128,88
41898439644,32,-15,43,38,79,-23,-45,-2
41898462078,33,-14,38,34,74,1,100,7
41898462078,43,-24,-2,-24,-53,-1,-8,2
41898463622,41,51,53,43,-23,123,-45,37
41898463622,-126,-48,-128,-128,-128,127,-76,-128
41898468269,-116,-94,-113,-113,-15,-42,-37,-128
41898468269,-128,-93,-128,-128,74,-128,13,-128
41898484709,5,-31,-7,1,99,-74,77,-28
41898484709,84,125,127,82,123,-11,-8,75
41898490697,47,36,49,29,20,-51,13,18
41898490697,-73,-43,-48,-57,5,-8,40,-70
41898499636,127,127,127,127,-44,9,17,125
41898499636,-111,-54,-128,-112,1,-42,6,-87
41898513105,46,-66,24,45,32,16,-13,86
41898513105,127,9,122,127,-41,-16,31,124
41898522146,127,-15,120,127,-67,-27,-29,127
41898522146,74,11,84,118,9,10,69,50
41898528183,13,-18,-7,-18,51,17,-41,-54
41898528183,104,127,69,118,25,37,-59,126
41898544659,89,100,87,93,-52,6,9,79
41898544659,127,127,127,127,-45,61,79,127
41898559505,-76,-37,-45,-72,5,29,14,-88
41898559505,-57,-95,-25,-67,-128,-51,-21,100
41898561056,25,-70,-3,50,-114,-20,-21,72
41898561056,121,-34,92,116,-128,-6,2,119
41898573159,127,127,127,127,-75,44,43,127
41898573159,-96,6,-70,-88,45,-15,14,-94
41898582151,-127,-99,-77,-128,63,6,-3,-126
41898582151,11,-7,-24,16,32,-87,-17,16
41898588255,111,56,32,127,32,-24,22,56
41898588255,-39,24,-12,-45,80,10,-8,-60
41898604620,102,85,21,94,-42,6,16,98
41898604620,-59,26,-43,-42,51,15,26,-101
41898610598,-7,-47,22,-26,-92,6,-56,76
41898610598,86,46,33,99,0,-6,14,22
41898619623,-66,-80,-11,-90,-20,7,-16,-36
41898619623,45,51,-5,67,-2,5,24,8
41898633329,-68,-59,3,-79,-8,-8,-23,-4
41898633329,93,57,34,127,-7,11,0,58
41898642124,-98,-46,-20,-106,1,-11,-11,-93
41898642124,106,64,25,93,-50,3,17,112
41898655734,-121,-67,-38,-111,40,-2,-23,-128
41898655734,121,23,52,121,-102,9,-9,127
41898664619,-54,24,-20,-53,46,-10,16,-82
41898664619,67,1,18,67,-59,-3,4,84
41898670804,-88,-6,-18,-88,9,8,6,-52
41898670804,86,22,46,88,-128,-1,16,117
41898679623,127,71,62,127,-121,-7,76,127
41898679623,24,-9,23,45,-127,17,70,92
41898693203,127,34,66,127,-128,23,127,127
41898693203,94,0,49,122,-14,34,120,122
41898702071,76,4,30,101,44,52,86,101
41898702071,-114,-42,-39,-128,114,50,-94,-117
41898715803,-67,-10,-52,-59,92,7,-122,-77
41898715803,-128,-83,-110,-128,113,-88,-128,-128
41898724675,-108,-17,-110,-110,119,-123,-120,-118
41898724675,-128,-38,-114,-128,127,-114,-26,-128
41898739561,-87,9,-69,-85,127,-48,65,-114
41898739561,-70,-38,-55,-71,118,27,106,-79
41898741042,3,30,-17,-13,50,53,127,-24
41898741042,63,47,18,55,-62,61,104,80
41898753167,127,35,66,127,-125,48,47,127
41898753167,103,34,62,109,-128,35,22,124
41898762203,122,26,73,127,-128,12,-7,127
41898762203,77,-20,50,100,-112,4,-13,101
41898775841,105,50,51,127,-127,-11,-15,127
41898775841,13,-2,30,32,-128,-3,-41,98
41898784669,46,14,22,77,-127,-3,-23,79
41898784669,65,19,6,73,-121,-7,-12,74
41898790792,9,-12,4,1,-83,-9,-26,42
41898790792,32,12,-1,39,-52,-5,-23,14
41898799703,8,2,-4,18,-36,-3,-55,-50
41898799703,-1,5,-14,-3,17,-11,-16,-26
41898813137,38,13,1,49,12,0,-15,-1
41898813137,-41,-18,-5,-66,31,0,-5,-34
41898822125,1,6,-2,2,13,5,24,-40
41898822125,-41,-27,-8,-58,57,1,3,-70
41898835666,-1,-2,-2,-27,60,-2,-12,-34
41898835666,-64,-25,-10,-106,109,1,-41,-93
41898844665,23,4,-9,2,61,3,10,-8
41898844665,2,-9,-8,-17,34,9,-3,-4
41898850858,41,7,-2,33,10,12,7,43
41898850858,43,6,-3,51,-54,-2,-4,49
41898867119,-6,-13,7,-10,-51,-12,-15,36
41898867119,-12,-16,-2,-17,-24,-6,-23,-2
41898873185,-4,-11,0,-14,-24,-3,-32,23
41898873185,-29,-18,1,-38,-48,2,-42,20
41898882092,18,7,1,8,-15,0,-26,15
41898882092,-76,-14,8,-49,18,-5,-20,-96
41898895857,-37,-13,-3,-74,24,-4,-22,-4
41898895857,-25,-19,3,-49,1,1,-20,-13
41898904742,-43,-21,-4,-75,7,8,-17,-9
41898904742,-77,-44,5,-123,4,5,-33,-18
41898910747,-61,-30,9,-85,1,1,-31,-35
41898910747,-42,-33,4,-62,-23,5,-36,-9
41898919664,-102,-57,9,-128,-17,2,-53,-28
41898919664,-98,-40,7,-112,59,14,-26,-68
41898933301,-112,-38,10,-115,103,-11,-24,-108
41898933301,-126,-33,12,-128,68,14,-29,-115
41898942118,-121,-87,24,-123,32,-8,-12,-91
41898942118,96,-11,81,103,-117,15,-19,118
41898955677,52,-79,-69,39,66,70,-17,-12
41898955677,-70,-110,-112,-69,-19,44,-86,-37
41898964659,110,114,76,105,-31,-95,91,59
41898964659,-128,-87,-52,-128,4,-57,5,-107
41898970805,-33,-27,-19,-34,-58,21,-31,55
41898970805,54,4,-12,57,-113,27,0,117
41898985708,46,54,99,43,10,37,83,6
41898985708,45,-15,-62,82,-100,34,-99,116
41898993114,-13,76,47,-3,-128,-11,40,-18
41898993114,-60,-65,-91,-37,58,-25,-73,-41
41899002082,31,58,7,13,-19,16,40,45
41899002082,-88,-26,-30,-105,127,-15,53,-114
41899016210,-48,-84,-38,-80,126,-32,-96,-98
41899016210,74,107,52,89,36,-10,-75,58
41899024640,-118,-128,-32,-107,45,5,-82,-85
41899024640,-2,-14,-5,-2,10,6,22,-13
41899030804,-128,38,30,-121,-10,24,-72,-128
41899030804,-34,92,38,-29,-12,4,-42,-28
41899045756,-116,-105,-17,-106,-100,-4,-128,-96
41899045756,85,70,-15,77,-121,6,85,87
41899053126,10,-24,-9,0,-9,-24,83,-9
41899053126,126,127,-19,126,53,2,127,89
41899062179,18,24,-61,7,69,-8,-54,43
41899062179,-80,-83,24,-109,87,-36,-90,-79
41899075758,107,-4,9,93,-11,-35,-37,114
41899075758,-128,-128,36,-128,127,-73,-96,-128
41899084613,-4,-80,-30,1,89,-31,-108,-3
41899084613,-40,-107,0,-78,20,-45,-104,17
41899090732,-35,39,-13,4,-2,20,55,-5
41899090732,-104,-122,25,-114,-121,-48,4,-92
41899105649,47,-16,5,50,-120,10,23,81
41899105649,-99,-79,30,-97,-67,-55,5,-101
41899113260,100,-22,40,86,-119,-49,-56,126
41899113260,-116,-125,-4,-114,45,-28,-61,-128
41899122161,-49,66,-22,-38,116,35,14,-128
41899122161,113,112,37,107,-22,19,-80,102
41899135710,-120,-105,-77,-107,117,-28,-47,-127
41899135710,127,89,99,125,-25,44,111,127
41899144659,-103,-128,-121,-128,57,-108,-128,-80
41899144659,77,127,63,80,121,111,127,27
41899150649,-66,-128,-68,-98,-20,-101,-128,-52
41899150649,51,105,70,41,50,63,96,25
41899173888,-96,-71,-94,-87,47,-31,-48,-85
41899173888,55,5,33,42,-28,-32,-26,45
41899174654,36,109,123,56,65,80,114,24
41899174654,-122,-122,-112,-128,79,-64,-78,-121
41899182078,79,53,-4,73,-57,-28,-36,80
41899182078,-17,67,81,24,48,60,66,-50
41899195786,12,-89,-91,-43,-68,-80,-102,61
41899195786,-72,-121,-128,-78,-128,-127,-128,-54
41899204716,127,69,115,127,-128,31,66,127
41899204716,-128,-79,-98,-128,-101,-23,-38,-128
41899210804,127,127,127,127,52,101,112,100
41899210804,127,93,94,127,88,66,88,127
41899227184,-26,-128,-106,-36,46,-100,-125,-3
41899227184,-57,-110,-104,-47,-58,-70,-65,-60
41899233237,-124,-58,-55,-118,-120,-20,-24,-128
41899233237,-17,-20,-24,-31,-81,7,-15,-33
41899242157,68,127,127,83,116,127,127,56
41899242157,127,13,9,121,127,-20,-62,127
41899255683,10,-98,-87,27,7,-76,-113,29
41899255683,-127,-128,-128,-128,-117,-77,-111,-98
41899264624,-128,-31,-30,-128,-128,19,33,-128
41899264624,-50,7,-15,-52,-37,33,54,-62
41899279015,-41,32,17,-49,-18,17,43,-31
41899279015,86,112,127,46,2,56,46,28
41899285801,-40,26,12,-33,-28,27,21,-32
41899285801,-66,-57,-76,-85,-72,-40,-58,-62
41899301202,-37,-35,-43,-13,-8,6,-3,-85
41899301202,-48,-67,-63,-48,-72,-51,-41,-43
41899309726,-61,-74,-71,-38,-27,-48,-33,16
41899309726,30,-21,7,25,53,-35,-48,51
41899315862,85,71,75,88,95,14,19,127
41899315862,125,119,124,127,122,80,44,127
41899324637,11,40,40,0,21,30,-6,12
41899324637,-23,-31,-35,-16,-22,-17,-14,-36
41899338902,7,-43,-41,27,20,-17,-12,22
41899338902,23,-5,-3,28,20,-1,-14,48
41899345716,-9,11,4,-26,-20,8,-4,-35
41899345716,-34,-23,-15,-36,-32,-29,-1,-18
41899362005,33,68,74,21,2,3,-5,-12
41899362005,23,64,53,18,-33,16,27,-61
41899363626,-38,-47,-39,-36,-50,-31,60,-61
41899363626,63,43,62,62,55,-2,-3,61
41899375799,19,54,58,-45,-14,20,-31,-23
41899375799,-34,-26,-44,-26,-38,-29,17,-37
41899384654,55,38,35,52,53,-3,-38,19
41899384654,-64,4,-19,-72,-44,5,17,-48
41899407170,-92,-77,-94,-77,-77,-49,-24,-83
41899407170,35,-17,-1,35,22,-24,-2,66
41899408620,98,67,68,116,36,31,15,68
41899408620,59,73,74,43,9,44,0,65
41899422101,99,61,75,116,20,31,22,94
41899422101,44,29,47,41,35,1,6,110
41899423631,-70,-96,-102,-67,17,-44,-3,-33
41899423631,-30,-6,-11,-24,24,31,-15,-108
41899435695,98,95,94,104,14,46,33,101
41899435695,-117,-124,-122,-114,-5,-57,-3,-102
41899444624,105,94,99,107,27,46,7,127
41899444624,-103,-85,-58,-103,27,-4,9,-92
41899459010,-24,-62,-70,-26,-31,-55,-6,26
41899459010,60,92,88,60,-31,90,-4,50
41899465668,-117,-70,-63,-124,26,-5,-22,-99
41899465668,-61,-86,-90,-63,-2,-79,-45,-54
41899482623,46,-6,-14,66,-26,1,29,42
41899482623,104,78,73,111,-8,44,20,125
41899484052,-32,64,75,-34,21,45,2,-62
41899484052,-53,-52,-49,-54,21,-9,-10,-53
41899495872,-112,-128,-128,-110,-20,-96,-42,-37
41899495872,80,78,70,76,0,76,11,90
41899504599,29,115,118,47,6,79,27,-69
41899504599,-69,-69,-76,-64,23,8,24,-77
41899518851,-128,-121,-123,-128,-9,-90,-36,-128
41899518851,38,15,-3,50,-35,-58,-30,44
41899525877,103,-126,-59,127,-22,-75,-86,127
41899525877,76,-24,10,84,-81,-62,57,115
41899542110,107,-106,122,111,-103,68,117,79
41899542110,7,-105,2,-14,99,48,-35,-29
41899543609,19,-59,10,42,85,29,101,50
41899543609,127,1,127,127,127,68,-115,127
41899555674,93,-12,99,116,127,-5,-79,100
41899555674,28,5,63,40,58,-33,-64,64
41899572131,68,8,12,98,-65,-88,-14,7
41899572131,-71,-53,-74,-69,-108,41,-31,-63
41899578941,-128,-25,-103,-128,-125,122,-60,-128
41899578941,-128,-118,-128,-128,-105,-16,14,-128
41899585694,-128,-102,-128,-128,98,-75,37,-128
41899585694,70,100,60,82,99,13,87,60
41899602032,-39,30,-31,-42,127,-30,-13,-95
41899602032,19,55,16,29,86,10,-21,-40
41899603629,43,53,40,33,1,60,9,72
41899603629,11,112,17,-30,-15,6,0,-23
41899615781,-77,6,-69,-82,45,7,16,-112
41899615781,71,15,71,76,-1,-3,24,71
41899624687,-102,-71,-92,-128,26,-12,-25,-114
41899624687,-99,-79,-105,-96,-9,-62,-19,-71
41899638979,-71,-39,-38,-66,-66,-46,-17,49
41899638979,-128,-128,-123,-128,-117,-95,-16,27
41899645750,97,-56,51,114,-128,-50,-55,127
41899645750,127,18,105,127,-93,-14,-31,127
41899662193,123,8,68,127,-41,-33,-15,117
41899662193,91,-67,28,93,-45,-55,1,79
41899663598,109,-5,65,105,-112,-17,-34,127
41899663598,105,-55,45,119,-53,37,43,116
41899675819,16,110,34,16,-42,-29,-59,36
41899675819,11,38,-3,22,-62,-36,-49,75
41899684630,78,51,9,77,-52,-2,-13,95
41899684630,127,42,27,127,-37,35,53,127
41899698957,53,74,17,54,50,52,62,-36
41899698957,-122,-110,-45,-117,36,-52,-45,-128
41899705799,61,-7,-10,65,-39,-17,-19,72
41899705799,71,41,-1,76,-8,13,7,87
41899722187,-49,-1,4,-48,22,6,31,-26
41899722187,29,33,-13,27,-43,-12,-9,48
41899723624,27,37,-16,25,14,26,47,-2
41899723624,-115,-38,-1,-110,6,-57,-80,-93
41899735825,29,-21,21,2,-45,-42,-62,68
41899735825,57,-22,1,73,-45,-19,-33,58
41899744707,81,5,-3,73,-39,16,-8,106
41899744707,-55,39,-19,-43,58,21,32,-73
41899758975,-102,-101,5,-92,12,-63,-71,-106
41899758975,-80,-54,5,-123,-8,-51,-69,-22
41899765801,62,3,-3,51,-36,-5,-30,92
41899765801,105,48,-23,102,-21,8,26,84
41899789486,68,40,4,100,19,41,69,10
41899789486,-70,112,-6,-70,78,41,73,-108
41899791089,-128,-33,-14,-128,96,12,28,-128
41899791089,-119,-43,-9,-123,79,-2,23,-128
41899795686,20,60,3,31,43,36,67,-38
41899795686,51,43,-25,84,77,65,102,-70
41899804641,48,54,-30,46,47,35,56,-16
41899804641,109,56,-7,116,-51,-5,-19,121
41899818927,-30,-83,19,-50,-42,-37,-83,50
41899818927,-94,-41,-6,-92,65,6,18,-111
41899825791,4,66,-7,20,-8,8,66,-4
41899825791,72,-14,38,74,-98,5,88,78
41899841937,127,86,68,127,-128,71,127,127
41899841937,127,15,78,127,-128,2,127,127
41899848195,44,-14,76,49,1,22,109,-37
41899848195,-49,-27,46,0,53,84,27,-70
41899855770,-86,16,-55,-77,83,31,-83,-98
41899855770,-42,-54,-47,-7,97,91,-117,-36
41899864630,-110,59,-43,-111,73,-85,-128,-41
41899864630,-122,-40,-75,-122,71,-128,-128,-114
41899879036,-119,-73,-68,-125,127,-128,-27,-127
41899879036,-118,14,-84,-122,126,-79,101,-128
41899885720,-125,-38,-78,-128,122,9,117,-128
41899885720,-121,-63,-43,-128,127,42,110,-128
41899901507,-78,27,-18,-98,127,85,113,-107
41899901507,37,0,-1,-2,8,45,22,77
41899908235,83,-30,15,84,-93,41,-6,93
41899908235,76,37,29,80,-116,-5,-28,113
41899915812,127,12,38,127,-128,-26,-13,127
41899915812,122,29,38,127,-127,-21,-3,112
41899924655,-1,-29,37,17,-117,-16,-37,57
41899924655,-35,-5,24,-27,-89,-2,-48,18
41899938876,127,88,10,127,-107,29,24,127
41899938876,4,19,13,7,-40,8,12,-37
41899945798,-70,-52,4,-65,-57,-11,-62,-26
41899945798,67,47,-5,103,-40,-11,5,36
41899961494,71,19,5,92,-18,-3,19,39
41899961494,36,-7,1,40,-54,-4,-33,46
41899968214,93,62,-16,127,-8,8,19,21
41899968214,-34,3,0,-57,46,-15,-4,-42
41899984661,37,9,-3,65,-2,4,4,29
41899984661,39,23,-7,40,-1,4,-1,15
41899986089,23,1,-12,8,43,-3,-24,-3
41899986089,46,10,-6,50,2,1,2,38
41899998966,15,-2,-1,27,-6,5,-5,8
41899998966,-11,-4,-8,-41,36,11,-14,-23
41900005782,-18,-39,-1,-37,11,1,-25,-6
41900005782,45,8,-6,46,-14,-6,24,24
41900021428,-23,-30,4,-52,-20,11,-22,8
41900021428,-16,-30,6,-11,-45,1,-38,9
41900028339,7,-13,2,3,-24,-7,-34,8
41900028339,8,-20,-2,-17,-8,-1,-28,32
41900044538,-44,-41,6,-68,-13,10,-30,-15
41900044538,8,-3,4,2,-14,-1,-17,17
41900046079,5,-21,-8,-14,-13,-3,-9,4
41900046079,1,-9,-3,-3,-2,3,-7,5
41900058122,-11,-37,4,-38,-24,11,-61,15
41900058122,-30,-44,5,-76,-35,2,-46,6
41900067226,-26,-19,5,-50,-21,5,13,0
41900067226,-76,-29,6,-104,13,3,-39,-39
41900081548,-61,-31,1,-102,51,7,-17,-57
41900081548,-73,-47,3,-99,69,9,-47,-90
41900088165,-120,-33,9,-128,55,-2,-27,-87
41900088165,-122,-44,17,-127,-8,-9,-30,-59
41900104632,-43,-50,21,-72,-89,12,-69,40
41900104632,119,-8,-2,124,-128,8,-11,127
41900106176,118,17,-3,114,-128,-15,76,127
41900106176,114,89,-4,127,-44,-26,66,58
41900118319,119,99,-7,127,-50,22,69,96
41900118319,-79,-72,44,-76,85,65,-75,-87
41900127228,-123,-128,20,-128,47,53,-128,-97
41900127228,-109,-124,-68,-128,39,38,-128,-73
41900141513,-123,-121,-64,-123,43,40,-103,-72
41900141513,-35,-86,-78,-53,-4,50,-102,38
41900148326,18,-117,8,16,-74,20,-36,82
41900148326,7,34,33,-42,-60,18,6,-5
41900164679,100,-17,74,122,12,14,-52,105
41900164679,127,127,97,127,-41,-46,98,111
41900166153,-128,90,-101,-128,59,-23,-4,-128
41900166153,80,109,42,105,-128,-12,114,127
41900178357,-77,-107,-62,-82,-40,-21,-66,-81
41900178357,-122,-82,-114,-128,-7,-13,-118,-128
41900187184,-68,-111,-77,-71,-67,-40,-114,-52
41900187184,10,-21,5,-8,49,17,-128,-41
41900201497,-118,51,-72,-121,107,-22,-97,-114
41900201497,-74,-41,12,-22,115,24,31,-49
41900208295,35,43,3,14,72,29,-88,12
41900208295,-92,-128,-92,-128,-6,0,-128,-35
41900224698,110,54,94,99,-108,-4,92,118
41900224698,-20,-36,-46,-43,-71,-8,109,-14
41900226165,112,127,79,127,77,4,127,18
41900226165,-128,-35,-38,-128,127,2,73,-128
41900238271,21,93,33,-26,121,-7,43,-103
41900238271,109,127,92,107,13,16,118,90
41900247131,102,93,111,94,-76,5,4,90
41900247131,127,-2,67,127,-97,-8,-98,127
41900261481,-126,-128,-94,-128,-103,-44,-105,-32
41900261481,-108,-99,-128,-110,24,-37,-106,-128
41900268269,24,-51,9,25,-97,16,57,87
41900268269,122,127,119,127,-46,56,102,82
41900284686,125,127,118,127,-33,67,127,80
41900284686,127,127,127,127,-54,52,100,127
41900286100,49,-49,12,36,-38,-29,-65,104
41900286100,-108,-128,-118,-105,26,-42,-98,-99
41900298266,-112,-128,-115,-106,54,-39,-99,-105
41900298266,-128,-128,-128,-128,39,-56,-128,-128
41900313230,-128,-128,-128,-128,91,-9,-78,-128
41900313230,-75,16,-22,-95,79,6,103,-114
41900321416,-90,22,-6,-120,101,22,48,-128
41900321416,-85,37,-15,-93,61,-2,4,-125
41900328274,-112,38,10,-128,116,18,53,-128
41900328274,81,82,89,90,50,41,89,67
41900344542,92,-12,-2,95,-61,-11,-37,109
41900344542,-51,-67,-62,-58,43,-44,-43,-57
41900346096,49,84,77,78,50,30,77,14
41900346096,-53,-128,-128,-92,-17,-61,-128,-20
41900358147,-89,-55,-57,-81,77,-11,-5,-99
41900358147,127,99,107,127,-111,27,50,127
41900367193,-128,-128,-128,-128,72,-63,-128,-128
41900367193,120,127,127,127,-9,74,127,88
41900389675,-85,-95,-91,-87,13,-50,-96,-72
41900389675,63,69,65,74,-11,28,33,53
41900391144,-81,2,-28,-81,90,9,23,-88
41900391144,77,19,22,55,-72,-23,-26,78
41900404670,-101,10,2,-89,88,30,58,-96
41900404670,20,-45,-51,-15,-43,-50,-51,42
41900406116,-35,0,-11,-33,80,-24,-1,-75
41900406116,57,-81,-77,60,-100,-35,-115,60
41900418987,102,54,64,125,-83,71,-81,96
41900418987,121,70,120,127,-100,53,117,94
41900425718,127,-13,39,115,-128,25,29,127
41900425718,-55,-21,-7,-32,10,-14,-114,-98
41900433339,45,-62,-50,34,-70,-90,-63,60
41900433339,-52,63,43,-1,103,6,38,-97
41900456464,123,68,52,115,8,-43,-9,105
41900456464,40,48,36,65,127,-17,16,33
41900457157,127,127,127,127,42,44,110,127
41900457157,47,-66,-66,19,14,-43,-122,64
41900464629,-4,105,104,35,103,54,116,-70
41900464629,-6,-85,-86,-52,-62,-25,-81,21
41900487146,13,96,105,43,10,41,113,-5
41900487146,39,-87,-93,21,-91,-43,-79,89
41900488621,-71,-98,-99,-75,-32,-22,-57,-76
41900488621,-31,73,89,-9,36,5,-89,-78
41900493240,-128,-51,-5,-128,47,0,51,-128
41900493240,-128,-87,-86,-128,110,2,76,-128
41900508295,-57,-72,-88,-69,13,-5,-77,-43
41900508295,-58,68,73,-16,109,5,109,-77
41900515833,110,118,117,106,44,-9,48,71
41900515833,127,127,127,127,-27,24,58,119
41900524721,127,127,127,127,-66,14,16,127
41900524721,79,98,92,71,20,8,18,87
41900538898,107,34,3,127,7,3,-95,127
41900538898,-50,-105,-117,-72,33,-30,-128,16
41900545704,-89,-88,-85,-99,85,2,-18,-89
41900545704,-75,-13,31,-128,112,10,90,-128
41900562094,95,94,104,85,39,16,71,65
41900562094,59,37,16,75,28,-26,-9,58
41900568316,-49,-30,-26,-44,52,-28,-10,-53
41900568316,83,72,71,92,-40,52,62,113
41900575647,-128,-128,-128,-128,-40,-80,-80,-117
41900575647,96,127,127,105,-4,91,92,18
41900584766,-67,-75,-65,-73,-36,-40,-53,-49
41900584766,74,44,34,75,-94,27,26,75
41900607149,-84,-92,-91,-96,-58,-38,-62,-90
41900607149,72,108,105,83,-54,86,88,65
41900608583,-65,-64,-59,-65,-128,-85,-77,-46
41900608583,-51,19,27,-81,-3,65,110,-102
41900621490,103,-45,9,104,-95,-35,42,113
41900621490,-128,-103,-105,-103,-54,-105,88,-81
41900636140,127,127,127,127,-12,90,-7,127
41900636140,-25,-91,-107,-11,41,-102,-37,29
41900644548,33,121,42,42,65,69,25,61
41900644548,55,-128,-40,4,119,55,-17,11
41900646083,70,59,46,89,3,-3,-58,75
41900646083,-65,-89,-70,-26,-20,-73,-128,-5
41900658972,-84,-54,-44,-19,-42,-79,-6,25
41900658972,-119,-23,-6,-106,-112,-59,56,-103
41900665709,-106,-85,-103,-111,-123,6,120,-111
41900665709,-20,-19,-29,-41,71,8,11,-67
41900681919,84,127,105,47,112,53,-16,26
41900681919,-21,-28,-71,24,127,-57,-121,33
41900688365,123,106,127,118,94,90,47,114
41900688365,-123,-88,-105,-128,19,41,57,-128
41900695863,103,18,72,122,-39,12,39,121
41900695863,-100,78,-38,-115,11,36,15,-128
41900704676,24,-28,13,27,-13,-58,-38,53
41900704676,37,6,21,9,20,2,33,4
41900719024,13,-1,15,19,27,-26,-45,29
41900719024,126,108,127,127,58,85,47,119
41900725766,-53,-14,-52,-77,15,2,72,-76
41900725766,54,-41,44,56,-71,-30,-62,121
41900741389,29,39,37,18,-54,91,63,14
41900741389,-126,-80,-98,-128,-38,-33,-41,-127
41900748294,61,29,89,78,-56,-15,-22,127
41900748294,66,69,53,79,-56,44,8,92
41900755691,26,37,-9,29,-2,43,31,-30
41900755691,-12,3,-22,-8,7,-11,9,-15
41900764695,-43,-67,-40,-53,8,-50,-16,-17
41900764695,49,-22,25,62,-26,-43,-37,82
41900778987,106,86,70,100,-10,55,37,111
41900778987,87,119,22,78,42,82,32,-13
41900785803,-101,-38,-74,-103,50,-16,3,-128
41900785803,-108,-89,-35,-107,-14,-78,-43,-43
41900801560,36,-55,13,38,-40,-47,-27,40
41900801560,104,41,24,99,-30,36,1,127
41900808158,127,127,58,127,11,108,79,127
41900808158,-63,58,-9,-53,29,33,47,-86
41900815793,-128,-128,-78,-128,-8,-112,-75,-128
41900815793,50,-71,23,62,-55,-72,-68,97
41900824665,127,109,61,127,-36,55,31,127
41900824665,80,108,-28,112,33,88,57,4
41900839002,-128,-116,-46,-128,13,-86,-53,-128
41900839002,-82,-93,24,-90,-23,-91,-63,-29
41900853242,-12,23,42,-3,5,-20,-7,-9
41900853242,116,40,-21,126,-54,-21,-22,127
41900861573,119,125,-38,126,-15,89,56,127
41900861573,67,75,10,92,12,41,16,25
41900868240,-72,10,-1,-86,40,25,14,-96
41900868240,-128,-97,6,-128,12,-62,-49,-128
41900883973,-74,-82,8,-113,-24,-60,-41,-28
41900883973,58,-18,7,67,-52,-34,-31,127
41900890800,120,32,-16,117,-42,33,9,119
41900890800,127,27,-24,127,-38,44,26,127
41900899060,127,44,-22,127,-27,92,67,127
41900899060,72,-43,-20,66,-40,21,10,68
41900913203,118,50,-3,121,-16,52,22,116
41900913203,-23,65,10,-42,27,30,15,-61
41900921457,66,59,-25,99,4,37,17,46
41900921457,-128,-5,21,-128,47,-35,-26,-128
41900928358,-110,-67,33,-128,-34,-86,-55,-64
41900928358,42,-11,-3,50,-58,-24,-5,112
41900935825,67,-15,-27,72,-44,4,-12,74
41900935825,56,69,-15,94,39,47,18,27
41900950767,2,41,1,-1,65,25,9,-89
41900950767,-105,-29,4,-113,28,-14,6,-103
41900958996,-38,-21,-4,-33,4,-22,-8,-25
41900958996,121,12,-20,116,-34,33,5,127
41900965691,49,15,-8,75,18,14,10,10
41900965691,-75,-19,11,-71,47,6,27,-83
41900981468,33,-23,-12,51,-25,-8,17,40
41900981468,55,16,-12,53,-13,18,-15,57
41900988225,-28,-4,3,-45,24,2,-15,-56
41900988225,-1,-4,-2,-15,-33,-9,-28,39
41900995795,44,15,-6,49,-33,8,3,43
41900995795,35,25,-9,55,-4,10,21,20
41901010854,21,30,-1,15,10,16,6,2
41901010854,-55,-18,14,-50,39,-3,-11,-72
41901019014,-87,-6,9,-108,-11,-28,-36,-55
41901019014,85,17,-16,69,-63,7,3,93
41901025736,62,-9,-4,91,-21,9,5,53
41901025736,25,-7,5,13,-99,0,16,76
41901049708,87,21,-12,96,-21,28,18,75
41901049708,-53,-8,12,-61,43,4,-2,-94
41901051168,-88,-43,18,-87,-10,-28,-10,-47
41901051168,127,50,-29,127,-41,14,-4,127
41901055747,-122,-5,16,-128,61,-5,-9,-128
41901055747,45,4,-10,65,-63,-6,18,92
41901070741,32,19,-8,31,-14,-1,8,30
41901070741,93,33,-18,107,2,24,35,62
41901079013,17,-5,-6,21,-32,12,20,41
41901079013,-53,0,12,-74,48,10,-4,-89
41901085729,64,-3,-5,93,-39,2,9,84
41901085729,58,6,-14,68,-16,14,-11,78
41901101438,35,28,-12,44,47,-4,1,-1
41901101438,-63,5,2,-93,54,-29,34,-92
41901108275,46,16,-11,44,-17,6,-17,57
41901108275,11,5,-6,10,11,19,13,5
41901115699,46,39,-8,47,2,3,-19,17
41901115699,-3,-15,-3,-14,2,-76,-22,-3
41901130827,-2,-10,-4,-14,7,-33,3,-6
41901130827,22,12,-9,34,22,3,-26,9
41901163543,-3,1,1,6,-28,17,10,15
41901163543,38,5,-6,63,-51,20,-23,73
41901165022,27,2,-7,32,-16,10,0,20
41901165022,21,6,-9,13,29,-2,-30,-3
41901165806,28,7,-14,23,36,11,12,10
41901165806,11,0,-6,3,34,9,8,-5
41901169660,26,7,-4,32,-21,-9,0,48
41901169660,18,-4,2,33,-88,1,21,75
41901175797,18,6,-1,23,-30,1,2,22
41901175797,-6,-6,-3,0,-11,6,14,6
41901192177,-20,-14,0,-28,11,-2,5,-10
41901192177,38,8,-12,56,-3,-52,5,42
41901198940,1,0,-5,-4,10,-24,17,-9
41901198940,9,-4,4,23,-37,-9,5,40
41901205698,58,7,-9,87,-63,8,-2,80
41901205698,3,2,3,14,-40,15,-9,21
41901221509,-5,-2,1,7,-37,12,-1,23
41901221509,-15,-4,-1,-11,-11,9,0,-18
41901236354,10,11,-3,10,6,-7,-9,0
41901236354,9,-3,-4,6,15,4,6,4
41901237131,12,-11,-7,4,19,12,10,-2
41901237131,18,8,-2,26,-15,15,1,23
41901252211,-3,-1,0,0,-6,-4,-4,7
41901252211,4,8,-3,3,17,3,-6,-11
41901267866,14,2,-4,28,6,1,-10,22
41901267866,-4,-4,-3,-9,20,-9,-6,-10
41901268670,8,-3,-3,12,-2,-3,-9,3
41901268670,3,-3,5,-4,-24,10,-3,16
41901282114,7,6,0,18,-19,0,0,17
41901282114,-1,14,8,13,-27,-4,-8,12
41901295710,29,3,2,51,-27,-6,3,36
41901295710,26,8,9,52,-12,8,0,17
41901304605,-4,-14,37,23,-22,1,-3,15
41901304605,48,28,11,90,17,3,-2,43
41901310811,-72,-25,-81,-83,72,3,-9,-67
41901310811,-31,-4,-41,-36,13,-1,-9,-55
41901327848,94,29,28,107,-14,-5,-3,67
41901327848,-98,-78,-68,-105,-23,0,-22,-50
41901328646,91,50,113,97,-21,-2,2,76
41901328646,-81,-49,-102,-78,-9,-1,-3,-41
41901342209,99,49,108,100,-60,-4,10,105
41901342209,-112,-61,-104,-120,64,-3,-11,-128
41901355777,102,3,54,102,-114,5,-7,127
41901355777,77,35,102,92,54,-1,10,12
41901364752,-128,-76,-128,-128,37,-3,-8,-116
41901364752,127,68,127,127,-95,3,4,127
41901370704,-90,-22,-36,-95,113,-6,-6,-128
41901370704,-9,-32,-44,-26,-97,8,-12,68
41901387834,80,67,97,68,0,-2,7,55
41901387834,-94,-23,-69,-110,82,-1,2,-109
41901388587,70,4,46,89,-128,2,-2,127
41901388587,70,61,112,87,90,-8,8,-19
41901409006,-128,-84,-128,-128,32,-2,-5,-114
41901409006,127,77,127,127,-66,5,8,127
41901409697,-112,-24,-85,-114,98,-3,6,-128
41901409697,52,-6,9,55,-98,10,-1,111
41901423166,35,24,62,44,67,-7,3,-35
41901423166,-52,-66,-79,-64,-62,3,-1,12
41901430696,99,76,110,106,6,-2,10,66
41901430696,-108,-87,-117,-121,19,-1,-2,-89
41901462749,125,78,121,123,-62,3,2,122
41901462749,-105,-59,-101,-107,47,-3,-2,-108
41901463498,101,50,91,108,-69,2,-2,104
41901463498,-79,-51,-77,-83,7,-1,-14,-67
41901465103,69,48,65,77,-1,1,-3,43
41901465103,-19,-46,-27,-26,-54,3,-6,36
41901468352,27,33,14,43,25,-4,-4,-11
41901468352,14,-8,11,15,-62,2,-9,59
41901484728,0,27,-10,3,53,-5,4,-48
41901484728,40,3,33,40,-55,5,-16,63
41901490820,-80,-26,-66,-96,48,-4,5,-94
41901490820,127,74,111,127,-61,4,9,122
41901506504,-115,-62,-91,-128,34,1,-5,-96
41901506504,120,87,91,127,-8,-3,12,73
41901507227,-100,-73,-65,-107,-29,2,-7,-30
41901507227,43,45,39,56,34,-7,8,-2
41901522936,-58,-47,-48,-73,-24,4,-11,-16
41901522936,63,51,42,78,-3,-2,-2,20
41901528189,-32,-36,-22,-56,-37,1,-11,3
41901528189,-1,15,1,-12,23,0,3,-27
41901551474,19,2,0,25,-35,3,0,34
41901551474,-13,1,2,-16,18,-7,2,-12
41901552160,3,-6,-3,-5,-2,-1,-7,10
41901552160,-14,1,1,-34,16,-1,-6,-18
41901573953,36,13,3,64,-38,4,8,43
41901573953,5,4,13,7,4,3,-2,3
41901574701,-20,-10,-17,-19,5,0,0,-16
41901574701,22,14,18,26,5,1,-5,12
41901588942,-17,-16,-6,-21,-23,-1,-5,10
41901588942,-3,-1,4,-4,0,-3,2,-6
41901589749,27,1,11,40,-41,-1,-1,34
41901589749,-37,-21,-2,-54,14,-1,-5,-32
41901604702,-2,-3,-2,-1,-7,-3,-8,1
41901604702,-15,-5,-2,-19,4,-1,2,-7
41901610734,-2,-3,-4,-1,-4,-3,-4,7
41901610734,11,4,10,19,-7,-5,3,9
41901633944,-29,-20,-13,-35,-5,-4,-6,-21
41901633944,-6,-5,7,-8,-1,-2,2,-5
41901634663,8,-6,-1,13,-15,-1,-9,7
41901634663,-5,-8,-1,-11,6,-2,3,-8
41901648974,-20,-28,-4,-33,-3,1,-2,-2
41901648974,-13,-9,0,-22,9,2,-5,-15
41901649668,12,0,3,13,-8,3,3,18
41901649668,-8,4,-2,-12,8,1,-10,-9
41901663296,3,-1,-4,3,0,1,3,2
41901663296,-4,-4,4,-6,-4,-2,-3,-3
41901670817,-18,-5,-6,-25,16,-3,1,-18
41901670817,6,-5,4,9,-13,2,2,20
41901686423,-17,-11,-2,-17,-2,-1,-10,-10
41901686423,-6,4,-4,-7,-2,-2,-2,-3
41901687164,-4,-7,-1,-4,3,-4,4,-5
41901687164,7,2,1,10,3,-2,7,2
41901702172,13,-3,4,20,-11,3,-2,22
41901702172,16,2,5,21,-21,0,-4,18
41901708326,-4,-5,-1,-2,-9,-4,-3,-6
41901708326,8,-6,6,17,-18,0,1,14
41901723208,13,6,0,10,-6,2,-1,7
41901723208,9,4,-1,13,9,-2,0,2
41901730928,11,11,0,32,-2,4,1,14
41901730928,10,10,2,17,-5,-2,7,7
41901747841,16,12,-1,35,-11,-2,2,14
41901747841,4,0,2,13,-3,-1,0,1
41901748632,1,-23,-3,-3,9,-3,-6,2
41901748632,5,4,1,11,5,-1,5,-1
41901779010,-3,-1,-1,2,6,2,6,-4
41901779010,8,-2,3,19,-8,2,-5,12
41901779876,-11,-8,0,-10,-14,0,-3,1
41901779876,3,-2,6,11,-19,1,-10,16
41901783302,-1,-4,-2,-4,-4,-1,1,5
41901783302,11,5,0,15,0,3,-4,3
41901790811,-6,-7,2,-8,-8,3,-1,2
41901790811,2,1,-1,13,-9,4,-5,9
41901805633,13,4,1,17,-15,1,-4,16
41901805633,-4,-4,-3,-3,-5,-3,3,5
41901813385,4,4,3,10,-4,3,-4,3
41901813385,7,-4,1,12,-9,-6,-1,12
41901822190,1,-8,1,9,-17,1,-7,15
41901822190,9,5,0,19,-8,3,-1,6
41901828325,14,2,5,20,-11,-1,3,13
41901828325,7,3,0,16,-12,0,-2,16
41901851472,3,-1,2,12,-13,-5,-5,9
41901851472,-2,-14,4,-11,-11,0,-5,8
41901852124,8,5,2,12,-8,-1,-1,19
41901852124,17,7,1,23,-1,2,3,12
41901865793,10,7,0,15,-4,-5,-2,7
41901865793,3,-4,-2,10,-9,-1,3,7
41901881532,2,3,-2,13,-7,2,-2,9
41901881532,-1,-6,-5,-9,-8,3,-7,3
41901888875,10,-5,1,12,-14,1,4,21
41901888875,7,-9,0,4,-14,-4,-14,14
41901889655,11,-4,1,18,-19,1,1,15
41901889655,-1,-17,-1,-7,-3,-3,5,-1
41901903185,2,-6,-2,8,-12,-2,-5,9
41901903185,-4,-15,-2,-10,-9,4,1,1
41901910718,4,-2,-1,6,-7,-5,-4,9
41901910718,6,-7,1,9,-16,0,-6,12
41901925855,-1,-9,-4,-5,-4,5,0,2
41901925855,6,-5,-2,9,-12,-1,1,11
41901933321,11,8,0,19,-9,1,2,7
41901933321,-8,-8,1,-12,-8,-3,-4,7
41901949036,-1,-9,0,-10,-11,3,-9,6
41901949036,14,5,0,21,-7,-3,-1,16
41901949653,7,-12,-3,-7,-13,2,-1,7
41901949653,2,-7,3,-6,-9,-1,-3,5
41901963351,2,-8,1,-4,-18,-3,-1,14
41901963351,-20,-15,5,-35,-1,-3,-5,-5
41901970851,2,-5,2,-1,-10,-3,-5,2
41901970851,6,-6,-3,5,-11,-1,-6,9
41901985902,-8,-17,2,-16,-5,3,-6,0
41901985902,-4,-7,-1,-8,-5,-3,-2,0
41901993329,6,-5,3,2,-14,2,0,15
41901993329,-6,-12,-1,-8,-8,-5,-3,4
41902008898,-6,-9,2,-15,-2,0,-4,-4
41902008898,7,0,0,5,-11,5,-4,11
41902009699,-3,-12,-3,-9,-7,2,-1,4
41902009699,2,0,-2,4,-3,2,1,2
41902023229,0,-10,-2,-3,-5,-5,1,2
41902023229,-11,-11,-4,-18,-5,-1,-3,0
41902030694,-10,-8,-3,-8,-1,1,-6,-3
41902030694,-6,-12,3,-18,-10,1,-4,-1
41902053820,-7,0,1,-12,4,-1,0,-8
41902053820,-17,-8,0,-30,3,-2,-1,-16
41902054613,2,-4,1,2,-8,-2,-4,7
41902054613,-4,-6,1,-3,-2,0,-5,-2
41902078519,8,3,-2,8,-5,-1,-2,9
41902078519,-6,-9,2,-15,-4,-4,-4,-2
41902079386,-18,-16,1,-26,3,-4,-6,-8
41902079386,-11,-8,-3,-17,1,3,-2,-8
41902083333,-7,-3,-1,-7,2,5,0,-7
41902083333,-5,-5,-2,-13,-1,-2,-2,-6
41902090708,6,4,-2,16,-5,0,-2,1
41902090708,-11,-5,0,-14,5,2,-4,-7
41902105776,-2,-5,-3,-4,-9,-4,-6,0
41902105776,0,-7,3,1,-7,-2,-5,1
41902113254,-17,-14,-3,-25,-3,-1,-6,-7
41902113254,18,4,1,25,-11,1,-1,19
41902128969,9,3,-1,14,-7,-1,-1,12
41902128969,-11,-15,0,-14,5,1,3,-7
41902129661,-5,1,-4,-4,9,0,1,-5
41902129661,7,3,0,13,-2,-2,-1,2
41902143228,1,-1,4,10,-4,0,-4,5
41902143228,2,1,-7,12,-1,0,3,5
41902158860,20,7,0,25,-11,1,0,21
41902158860,4,-6,2,4,-13,-3,-5,14
41902165923,6,3,-1,14,-3,-3,1,8
41902165923,-1,-3,-2,5,-7,1,1,4
41902173379,15,4,3,15,-7,0,2,7
41902173379,6,2,-1,14,-12,-1,-1,9
41902190288,14,-3,0,17,-11,-3,-1,17
41902190288,-5,6,-2,11,5,2,-1,-11
41902191077,5,-4,-2,1,-7,0,-1,7
41902191077,-5,1,-2,0,1,-4,1,-5
41902203199,2,2,-2,4,-3,2,-4,4
41902203199,16,4,-1,19,-7,1,-2,16
41902210908,-1,-5,-1,2,-11,1,-4,6
41902210908,2,1,0,8,-2,4,0,-1
41902225869,2,-5,-5,0,-8,1,-6,8
41902225869,4,2,-5,5,-1,-2,-7,2
41902233321,3,5,-1,16,-3,-5,2,5
41902233321,4,-2,-4,2,-9,-1,-2,10
41902249013,-4,-8,2,-8,-13,-1,1,3
41902249013,15,4,2,20,-7,1,-1,12
41902249684,12,-6,-3,13,-10,1,-3,11
41902249684,8,-4,-2,11,-5,-2,2,8
41902263390,6,-2,0,4,-7,-2,-3,4
41902263390,8,-6,2,15,-10,-4,1,14
41902270723,0,-4,2,4,-5,-1,-1,9
41902270723,7,-1,0,6,-3,1,-7,7
41902285753,-2,-3,-2,-6,-5,0,1,3
41902285753,12,7,3,19,-13,-4,1,15
41902293310,6,-4,-1,3,-12,3,-1,10
41902293310,0,-6,0,-3,-10,-1,-2,6
41902317049,-2,-10,1,-10,-4,0,-6,0
41902317049,14,3,-4,23,-17,0,-1,21
41902317787,3,-9,-1,2,-15,3,-4,10
41902317787,4,-8,2,0,-12,2,-6,11
41902323202,9,-1,-1,10,-11,-1,-5,7
41902323202,1,-6,-1,-3,-8,1,-4,7
41902330841,9,-3,-1,7,-5,-4,2,8
41902330841,19,3,-6,19,-8,2,5,14
41902345903,10,-6,0,8,-11,-1,1,12
41902345903,9,-3,3,2,-7,1,-3,10
41902353303,4,-6,-1,1,-8,-3,-7,7
41902353303,-10,-7,0,-20,-2,1,-3,-5
41902368876,-9,-8,2,-11,-9,-2,-3,5
41902368876,5,-5,-5,1,-4,-5,-3,7
41902369651,-5,-12,-1,-11,-6,-4,-8,1
41902369651,3,-6,0,4,-10,0,0,8
41902383198,-5,-14,1,-15,-7,-1,-2,3
41902383198,-6,-12,3,-14,-10,-1,-4,5
41902390826,-11,-8,-1,-18,-6,2,0,-1
41902390826,-5,-9,0,-4,-3,0,0,-6
41902405659,-1,-1,2,2,-1,1,-1,-2
41902405659,2,-7,1,-8,-12,2,-3,4
41902413341,-4,-3,4,-3,-6,-1,-2,-4
41902413341,-4,-5,-1,2,-11,-5,-3,11
41902429056,1,-1,0,5,-3,-2,4,6
41902429056,5,-4,-4,-2,-15,2,-7,14
41902429728,2,-2,-4,5,-1,2,0,-1
41902429728,-4,-10,0,-12,-1,0,0,1
41902443327,-6,-8,0,-11,-3,-3,-3,-2
41902443327,1,3,-4,1,-1,-5,-1,2
41902450924,-7,-7,-1,-3,-4,-3,-3,3
41902450924,5,-5,-1,4,-11,1,-2,7
41902467295,-13,-8,-4,-12,3,-2,-4,-12
41902467295,-11,-15,1,-24,1,0,-3,-12
41902473216,-8,-4,0,-12,1,0,-5,-3
41902473216,-3,-4,-2,0,-3,-6,-3,2
41902489000,3,3,-1,2,-2,-5,0,5
41902489000,-20,-19,0,-29,-2,0,-6,-8
41902489635,7,5,-1,13,-5,-4,-2,5
41902489635,-4,-3,-3,-4,-6,1,-4,2
41902503272,10,4,-1,18,-2,1,0,14
41902503272,2,1,-2,14,0,-5,4,1
41902510725,9,3,0,8,-7,2,6,10
41902510725,8,3,-3,11,-4,0,-1,6
41902525854,5,-2,0,10,-8,2,1,6
41902525854,3,6,-1,12,-3,0,-2,8
41902533320,-2,-4,2,-8,-5,-1,-4,-1
41902533320,8,5,-1,11,-4,-5,1,5
41902549057,6,1,-3,4,-4,2,2,-2
41902549057,-6,-1,3,-6,3,2,-3,-9
41902549608,8,0,-4,7,-1,-3,2,2
41902549608,7,6,-1,8,-3,1,-6,5
41902563372,11,3,0,15,-5,2,-3,10
41902563372,4,0,-5,6,-4,-2,4,6
41902570807,4,-9,-1,5,-6,-2,-2,5
41902570807,-2,-5,-1,-3,-5,-1,-4,4
41902585810,-3,-8,0,0,-4,-2,-4,4
41902585810,4,1,-2,11,-5,-3,-1,5
41902593175,5,1,-2,9,-7,0,-6,7
41902593175,9,3,-2,15,-5,-1,3,9
41902609010,4,-4,-2,4,-4,1,-3,7
41902609010,14,9,-3,19,-5,-4,2,9
41902609771,5,-4,1,4,-11,-1,-2,4
41902609771,5,-8,-2,3,-5,3,-2,4
41902623314,13,0,-2,10,-13,1,0,16
41902623314,4,-3,0,7,-13,2,-1,12
41902630817,2,-3,1,3,0,1,1,7
41902630817,-5,-8,3,-9,-6,-6,-1,-2
41902645842,-1,-9,-1,-6,-9,0,1,1
41902645842,5,0,-2,12,-8,2,-3,6
41902653235,4,-1,-2,5,-7,0,-7,11
41902653235,0,-7,-3,0,-7,1,0,6
41902669004,-5,-2,1,-11,-7,-4,-5,4
41902669004,4,-5,2,-2,-6,3,0,3
41902669690,-2,-5,0,-6,-7,-3,-2,3
41902669690,4,6,-2,6,-5,-1,0,5
41902683429,1,-6,0,-6,-7,-3,-4,3
41902683429,5,-4,-1,-1,-9,1,-7,6
41902690837,7,-2,-1,10,-9,1,-3,10
41902690837,-2,-6,4,-5,-4,2,-3,3
41902705838,4,-2,-7,5,-4,-6,-5,4
41902705838,13,0,-1,21,-14,-1,-3,14
41902713391,-5,-9,-1,-5,-6,2,-1,3
41902713391,-3,-3,0,-8,-2,-3,-6,-3
41902728922,5,0,-3,4,-6,2,-3,1
41902728922,6,-3,-2,11,-13,1,0,14
41902729653,-7,-3,0,-7,-1,-1,-6,-4
41902729653,5,-4,-1,3,-10,1,-5,12
41902743332,-7,-12,0,-14,-7,-4,-3,4
41902743332,-4,-14,0,-11,-6,0,-1,4
41902750711,1,-8,-1,-3,-8,0,-1,4
41902750711,2,-5,-3,-1,-5,-2,4,3
41902765782,-9,-5,3,-9,4,2,1,-6
41902765782,1,0,2,-4,-5,-1,-5,3
41902773275,11,1,0,13,-11,1,1,11
41902773275,-5,-5,3,-9,-7,4,-1,-4
41902788336,4,-2,-2,9,-8,0,-3,6
41902788336,-10,-6,-2,-13,-3,2,-4,2
41902796562,-4,-4,-2,-5,2,-1,0,-4
41902796562,2,0,-1,6,-6,-3,-3,8
41902803332,13,1,1,22,-9,0,0,11
41902803332,-3,-2,-2,-3,-2,-4,1,1
41902810791,6,-1,-4,7,-5,-3,-3,9
41902810791,5,-4,-4,10,-8,4,-4,10
41902825899,6,8,-4,10,1,1,3,1
41902825899,1,-9,0,-10,-9,1,-2,4
41902841573,9,0,2,17,-6,2,1,11
41902841573,5,7,1,13,2,-4,-1,0
41902848343,2,-6,0,-5,-13,0,-5,9
41902848343,-5,-3,1,-4,1,-4,2,-2
41902856565,-6,-7,-5,-6,-2,-3,1,-2
41902856565,-6,-9,3,-13,-4,1,-3,-2
41902879964,-3,-6,-2,-4,-3,-1,1,2
41902879964,2,-1,0,13,-6,-2,-1,11
41902880750,1,-8,2,-10,-9,-1,-4,4
41902880750,4,-6,-2,-2,-6,2,-2,7
41902887236,7,1,2,11,-7,2,1,6
41902887236,-7,-8,-1,-11,-3,1,0,-3
41902901583,10,1,-3,14,-12,-3,1,13
41902901583,5,0,-2,2,-10,-6,-6,11
41902908333,-4,-13,-1,-13,-9,-2,-6,3
41902908333,0,-6,2,-2,-5,-2,-3,1
41902916600,8,2,-4,10,-9,0,0,8
41902916600,5,4,0,10,-5,-1,0,9
41902931448,10,4,0,11,-9,-2,0,10
41902931448,6,-4,-3,-4,-6,-5,-6,4
41902932170,6,-5,3,2,-4,-1,-6,1
41902932170,5,-10,0,-2,-8,1,0,5
41902945873,7,0,-3,11,-4,1,-3,7
41902945873,-6,-3,-4,-6,0,2,0,-3
41902953331,-4,-3,2,-7,0,-4,-5,1
41902953331,1,-4,-1,5,-4,0,-6,6
41902968350,-4,-1,0,1,-3,1,-1,2
41902968350,5,0,1,7,-6,4,-1,6
41902976544,4,-4,-2,7,-14,1,-2,11
41902976544,6,-1,0,12,-11,0,-3,9
41902991501,-9,-11,0,-15,-5,2,-7,-2
41902991501,3,-2,-3,4,-6,1,-3,7
41902992230,-13,-8,1,-16,3,2,-4,-5
41902992230,-2,-1,-2,-2,0,-3,0,-5
41903005715,-1,-4,0,-7,-10,1,-3,6
41903005715,8,-9,1,6,-10,-2,-6,11
41903013178,0,-5,2,-5,-8,4,-4,4
41903013178,-13,-19,1,-17,-7,-3,-3,-3
41903028164,7,-3,1,8,-7,2,-2,6
41903028164,1,-5,-3,4,-6,2,1,6
41903036079,-2,3,-1,-1,-4,-2,2,3
41903036079,-3,-3,-4,-1,-8,0,-4,0
41903051526,-2,-1,-1,2,-3,1,-3,2
41903051526,5,-5,4,-1,-9,1,-3,4
41903052239,7,-1,-4,17,-8,3,0,10
41903052239,-2,-4,2,-5,-7,4,-1,6
41903065859,-9,-9,-1,-14,1,-4,-3,-6
41903065859,4,0,-3,4,-11,-2,0,9
41903073219,-2,-5,1,-3,-9,0,-1,2
41903073219,-2,-13,-3,-12,-5,-2,0,1
41903088155,10,-1,-1,15,-11,-2,2,12
41903088155,0,-1,0,0,-6,1,-3,0
41903096332,6,-2,1,4,-6,-1,-4,10
41903096332,2,-2,0,2,-3,-5,3,4
41903111597,-5,-8,1,-9,-2,-1,-4,4
41903111597,8,3,-3,16,-9,1,-2,14
41903112150,2,-1,-4,4,-5,0,-1,5
41903112150,7,-7,0,3,-11,-1,-1,7
41903125676,1,-3,-2,-2,-7,-1,-2,5
41903125676,-1,-8,-1,-4,-7,-1,-5,7
41903133158,-3,-7,2,-10,-2,-5,1,-2
41903133158,-4,-7,3,-10,-4,1,-3,-6
41903148405,6,1,0,7,-8,-2,6,5
41903148405,1,-6,-4,0,-2,1,-1,4
41903156562,-7,-12,4,-12,-5,-3,-4,-5
41903156562,0,-4,-3,-3,-2,0,-4,0
41903179664,6,0,-4,9,-2,-2,-3,5
41903179664,6,0,0,8,-2,-1,0,4
41903180380,-5,-5,1,-2,-1,2,-2,2
41903180380,10,4,-1,14,-11,3,-3,11
41903185840,9,2,1,11,-8,-1,-3,11
41903185840,-5,-5,2,-7,-9,-2,0,6
41903193307,13,-2,-3,13,-14,2,-7,16
41903193307,5,0,-2,12,-5,1,-1,9
41903208216,1,-8,2,-3,-7,5,2,6
41903208216,-13,-10,2,-18,-1,-1,-3,-9
41903216555,4,-2,-4,4,1,5,-5,1
41903216555,-3,-4,-3,-7,6,-4,-6,-1
41903231492,2,-5,-1,-1,-12,-2,-7,2
41903231492,5,3,-1,9,-8,0,-4,8
41903232217,0,-3,1,-3,-7,-1,-4,1
41903232217,14,1,-1,19,-11,-5,-1,16
41903245842,-1,-7,-1,-1,-5,5,-2,5
41903245842,3,-3,-4,3,-3,-1,-3,7
41903253237,5,0,0,11,-5,-1,3,9
41903253237,8,4,-3,14,-5,-3,0,8
41903268138,-4,0,1,-2,-2,-4,-2,3
41903268138,3,3,-2,4,0,4,0,-2
41903276412,6,6,1,13,-3,-4,6,6
41903276412,10,7,-1,19,-5,1,-2,10
41903291333,2,-3,-2,1,-5,-1,-1,0
41903291333,3,-1,-1,5,-12,-1,0,4
41903292078,-2,-6,-5,-6,3,0,-1,-3
41903292078,0,2,2,-2,4,-1,2,0
41903305689,0,-8,-3,-9,10,-4,-8,-4
41903305689,7,5,-2,10,-2,-3,2,6
41903313156,6,0,-4,11,-7,-5,3,5
41903313156,2,-7,1,5,-9,3,2,5
41903328220,-3,-7,1,0,-7,2,0,-1
41903328220,6,0,-1,3,-11,-7,-3,3
41903336380,5,-3,-1,1,-10,-3,0,5
41903336380,1,-11,-2,3,-8,1,-1,6
41903351315,-4,-6,1,-5,-8,-4,2,9
41903351315,0,-6,-1,-7,-6,-1,-2,2
41903352094,-5,-7,2,-7,-2,1,-6,2
41903352094,0,-6,-2,-4,-7,-1,-6,2
41903365653,6,5,-1,7,-6,1,1,5
41903365653,-3,-4,0,-2,1,-4,-2,-2
41903373318,0,-2,1,-3,-9,3,-4,5
41903373318,-5,-2,2,-5,-1,-1,-3,-3
41903388172,14,3,-3,18,-12,-1,-4,14
41903388172,4,-4,1,4,-5,-3,2,7
41903396312,9,-1,-4,12,-10,1,3,8
41903396312,9,-2,1,9,-7,-3,1,6
41903411340,13,2,-3,18,-10,1,-1,13
41903411340,1,1,0,5,-5,0,1,6
41903412205,1,2,3,-1,0,-3,3,0
41903412205,-11,-9,3,-19,-2,1,-9,-5
41903425661,-6,-5,-1,-13,-3,0,-2,-5
41903425661,11,0,-1,17,-5,2,0,8
41903433170,-3,-3,-2,-6,-4,-4,-1,5
41903433170,10,1,-2,8,-13,-4,2,12
41903448185,6,1,-4,7,-7,-1,0,7
41903448185,4,-1,-5,3,-1,-1,-5,3
41903456338,2,-4,0,6,-13,3,0,7
41903456338,7,-2,1,3,-4,-2,-2,6
41903471359,-6,-5,3,-9,-3,1,1,-3
41903471359,1,-2,-1,2,1,3,-1,-1
41903472118,6,-1,1,6,2,2,-10,3
41903472118,-6,-4,-3,-6,-5,-2,1,0
41903485615,-7,-5,4,-13,-4,-3,-5,1
41903485615,-1,-4,0,2,-10,-1,1,8
41903493249,3,1,-2,6,-4,-2,0,2
41903493249,-6,-7,1,-12,0,0,2,-4
