timestamp,emg1,emg2,emg3,emg4,emg5,emg6,emg7,emg8
450348542300,-8,-3,-4,-6,-6,-3,-3,-3
450348542300,-1,3,2,3,4,6,7,2
450348546859,1,1,2,-3,-6,-1,-9,-5
450348546859,-3,-3,-1,-4,-3,-6,-5,-8
450348547649,4,-7,-3,5,3,0,1,4
450348547649,4,-8,1,-1,-2,0,-2,0
450348553725,-7,-4,-5,0,4,-4,-4,0
450348553725,0,0,-1,1,1,0,-1,-2
450348562190,-4,0,-5,1,1,2,3,-1
450348562190,-4,1,-1,-5,-5,-6,-4,-6
450348569436,-2,-2,0,-2,-5,-3,1,1
450348569436,3,4,0,2,2,3,3,4
450348575807,-6,-2,1,-1,-5,2,-5,-8
450348575807,-2,0,-1,-1,-3,-5,-4,-6
450348590873,1,2,1,4,2,3,9,3
450348590873,-4,2,4,0,-1,-4,-1,-1
450348609549,3,1,2,-2,-5,0,-6,-4
450348609549,-1,5,-3,1,3,5,1,-2
450348611204,-3,0,-3,-9,-2,-3,-5,1
450348611204,-4,-8,-1,-7,-5,-7,-5,-5
450348622358,1,0,-1,1,8,-3,1,-1
450348622358,-3,-4,2,1,-6,-10,1,2
450348629819,3,-16,-4,-1,-3,-3,2,2
450348629819,1,-8,-8,3,-7,0,3,6
450348676606,-1,5,-1,-1,-3,-7,-3,-8
450348676606,-3,6,0,-1,-2,-5,-6,-5
450348677381,-2,0,4,-1,0,2,2,2
450348677381,0,3,-1,0,-7,-5,1,0
450348678230,-1,-11,-4,-1,-3,-1,-3,2
450348678230,1,-7,-3,-3,-5,-3,8,0
450348681320,5,-1,-1,-4,-4,-6,2,0
450348681320,-6,7,1,-4,-2,-7,-11,-8
450348688150,-4,4,1,-2,0,-1,-2,0
450348688150,0,4,2,-3,-1,4,0,1
450348695617,-7,-5,-4,-1,-1,-1,-4,-5
450348695617,-1,-10,-1,-2,2,-1,-2,-4
450348710747,1,0,4,-1,-3,0,2,0
450348710747,-5,-3,-3,-3,-4,-5,-3,-1
450348718791,-4,4,-1,-3,-6,-2,-1,-7
450348718791,3,5,-4,2,-1,8,-2,-2
450348725588,0,6,2,2,2,4,-1,-2
450348725588,0,4,-8,-1,-2,-2,-3,-1
450348733186,1,-2,4,-2,-2,0,-2,4
450348733186,-4,1,-2,-5,-1,-2,0,-1
450348748139,-1,-1,0,-6,-1,0,0,-1
450348748139,-5,-10,1,7,8,-4,-2,-1
450348755588,3,0,-4,-5,-4,-5,-2,-5
450348755588,-2,-8,0,-3,-4,-5,-1,1
450348764682,-4,-2,-4,-4,-4,-1,-3,-1
450348764682,0,0,1,-3,1,2,3,-2
450348778763,-3,-6,0,-4,5,2,-2,-1
450348778763,1,-6,-8,1,0,2,-2,1
450348785534,-9,-3,-3,-2,-1,-6,3,-2
450348785534,-3,0,3,1,1,4,1,5
450348793034,-4,0,-1,1,-2,0,-2,-6
450348793034,-1,-1,2,2,-3,6,-2,3
450348808070,5,-7,-3,-1,1,-2,1,0
450348808070,-1,0,-3,-6,-9,-4,-4,-3
450348815602,-2,1,1,2,1,4,1,-2
450348815602,0,5,6,0,-2,3,4,-2
450348824615,-1,3,-5,-4,2,6,-3,-1
450348824615,3,-9,2,-3,-4,-7,1,-2
450348846964,-1,-6,-2,-3,-2,-3,4,3
450348846964,-6,-7,-3,-4,-9,-6,-6,-2
450348848540,3,0,1,4,-6,-2,1,0
450348848540,1,4,-1,1,0,1,-3,-4
450348853088,1,2,-2,3,1,6,0,0
450348853088,-6,0,-3,-4,3,-3,-1,0
450348868152,-5,0,-3,-2,1,0,-5,-1
450348868152,-3,-1,-4,3,3,4,1,3
450348875682,2,-2,-1,-3,2,-3,-7,-2
450348875682,6,1,2,1,0,1,1,2
450348884732,-2,-6,-1,2,-1,-4,-1,4
450348884732,0,0,0,-7,-2,6,1,-5
450348898865,-2,-2,-7,4,6,-2,0,0
450348898865,-2,4,-2,1,-2,0,0,-1
450348905611,1,1,2,-1,2,2,-4,-5
450348905611,1,-5,-2,3,-1,0,4,2
450348913156,1,1,-2,-2,-2,-2,-1,-1
450348913156,-5,-7,-5,-3,3,-1,7,-6
450348936256,-2,-7,-2,-3,2,-3,0,0
450348936256,0,-3,-1,-3,1,2,-2,-5
450348937081,-7,2,-5,-3,-2,-2,-2,-2
450348937081,2,-4,-1,-4,-2,-5,-4,-2
450348944696,0,0,0,2,-2,-4,2,3
450348944696,-1,-2,-1,-1,-2,-3,1,1
450348958797,-1,-2,-1,-7,-4,0,-4,0
450348958797,-2,0,-1,-1,0,3,3,0
450348965608,-3,-4,3,-4,-6,-3,-5,-3
450348965608,0,3,3,-4,-4,3,-2,0
450348973103,-1,0,3,1,-3,-1,-1,1
450348973103,-1,3,-2,-2,5,4,0,-4
450348988089,0,-2,0,-3,-7,1,2,3
450348988089,-5,1,-3,-1,1,-1,-1,0
450348995596,-4,-4,3,1,1,-7,-2,-1
450348995596,2,-5,0,1,0,-2,-3,-1
450349004620,0,-1,-2,3,5,-2,2,0
450349004620,-4,-7,-6,-2,-1,-4,-3,-3
450349018825,-3,2,-2,0,4,2,3,-1
450349018825,-1,1,-3,2,-2,-4,-2,1
450349025674,2,2,2,-4,-4,-2,-2,-5
450349025674,0,-2,5,-3,-3,3,-4,-2
450349041318,0,-11,-4,1,-3,3,-2,2
450349041318,-4,1,2,-1,1,-2,-2,2
450349048121,-1,1,-1,0,-1,-2,-1,0
450349048121,-1,2,1,1,-1,-1,1,-5
450349055529,2,7,1,0,-5,-3,-4,0
450349055529,1,-3,-2,-6,-5,-3,-6,2
450349064649,0,-1,2,-5,-2,-1,8,0
450349064649,1,3,3,-6,-5,1,-6,-1
450349078782,-4,-7,2,-3,-4,3,-2,-1
450349078782,3,1,3,-5,-6,-1,2,0
450349085529,-1,-3,-4,-1,2,-3,5,-1
450349085529,-3,-2,0,1,2,2,-2,2
450349109542,0,2,-4,-2,-1,-1,-1,-1
450349109542,-1,3,-1,-3,-5,-1,-6,-2
450349111080,-4,-5,-8,-9,-8,-2,-5,-8
450349111080,-2,-1,-4,-2,3,1,1,-4
450349115693,-4,2,-6,-3,-2,-2,-1,2
450349115693,-3,-1,-1,-1,6,0,1,-1
450349124588,1,2,-4,-5,-1,1,-5,-3
450349124588,-1,-3,-7,-5,-7,-10,-3,0
450349138776,0,0,1,0,-7,1,-5,0
450349138776,-5,-6,-2,-4,-5,0,1,-1
450349145647,-6,-5,-1,2,3,2,-2,-3
450349145647,-1,-8,-2,0,7,-3,1,1
450349161274,1,-5,0,5,7,3,2,-3
450349161274,-3,-2,-2,1,1,-1,-4,-4
450349168089,2,-1,2,-1,-2,6,-6,3
450349168089,-3,-2,0,-2,-5,0,-3,0
450349175535,0,0,2,-2,-1,-4,0,-3
450349175535,-3,-3,-3,-3,5,0,0,-2
450349184600,1,3,-6,-2,-1,-1,-4,-3
450349184600,-2,3,1,-2,-3,-2,0,-1
450349198754,-1,2,-2,-4,-1,-3,4,-1
450349198754,2,-4,1,2,-6,0,0,-2
450349205637,-4,1,3,5,4,-1,0,1
450349205637,-2,5,-5,-2,-1,-5,-2,-2
450349221245,-4,-8,-2,0,3,2,-2,-4
450349221245,1,1,-1,-4,0,-2,-3,1
450349228039,0,-1,-1,2,2,0,-5,-3
450349228039,1,1,2,4,4,1,2,-1
450349235543,3,1,-5,-1,-1,-2,0,0
450349235543,0,-3,-3,1,3,-3,1,-1
450349244606,-3,-3,-2,-6,-1,0,-4,1
450349244606,-2,-2,-1,-3,-2,-1,-3,-3
450349258780,1,-2,1,-5,0,-4,-4,0
450349258780,0,4,1,-1,-2,0,-3,4
450349265530,1,2,1,-1,-8,-3,3,-1
450349265530,-2,-7,-5,1,5,-1,2,6
450349281249,-1,-3,2,-1,-7,-5,-1,1
450349281249,0,0,-3,4,1,4,2,1
450349288082,0,0,-1,0,0,-2,-1,1
450349288082,0,-2,-4,-7,-3,0,-3,0
450349295590,-1,-2,-4,-3,-5,-4,-6,1
450349295590,2,-2,3,-3,-1,0,2,0
450349310530,-1,2,-2,-1,3,3,5,3
450349310530,-4,3,2,1,-7,0,-3,-2
450349326914,-3,-1,-1,-4,4,-4,2,-2
450349326914,-4,0,-4,-3,-2,2,-3,-4
450349328597,-4,-2,-2,-1,7,3,-1,-2
450349328597,1,1,2,-1,2,-2,-1,4
450349341333,-2,2,3,-3,0,1,-1,-5
450349341333,-2,-4,1,-3,-2,2,-1,-1
450349348114,-2,-8,-1,0,-2,-5,-5,-2
450349348114,0,-7,-3,1,-5,5,2,-3
450349355614,-5,-5,-5,-3,-4,-2,0,4
450349355614,-4,-5,-1,-2,1,-4,-1,-3
450349370626,-3,-3,-2,-6,-7,0,-1,0
450349370626,3,-1,0,0,-4,-3,-6,-1
450349387009,1,-1,1,-4,-2,-4,-2,1
450349387009,-1,0,1,-4,-2,-4,2,1
450349388631,-5,-6,-2,-4,-2,3,-2,2
450349388631,-3,1,-1,-3,0,-1,-4,-5
450349401852,-4,0,-1,0,0,4,1,-2
450349401852,0,3,-3,-1,-2,-3,2,-1
450349408070,2,-2,2,2,-3,-2,-6,-8
450349408070,-2,-8,3,-1,2,-1,-2,0
450349415596,0,-2,-6,-1,-2,-1,-4,0
450349415596,-1,-1,-1,-2,-3,-5,-4,-3
450349430609,4,0,1,5,1,1,-2,1
450349430609,-5,-1,-2,-1,2,0,-3,2
450349438829,-2,0,-1,1,0,1,0,-1
450349438829,-4,-3,-2,-4,-5,-1,-4,-2
450349445564,-2,2,-5,0,0,2,5,4
450349445564,1,-2,0,0,-3,4,0,-1
450349461351,-1,4,0,-5,-6,-2,-2,-1
450349461351,3,-1,1,0,2,-3,-3,0
450349468142,-1,0,4,-5,-6,-3,2,-2
450349468142,-2,-3,-5,-4,2,0,-1,-4
450349475643,-2,0,-1,2,4,4,-5,2
450349475643,-5,-2,-1,-3,-4,4,-1,0
450349490648,-2,3,-4,-5,-3,-2,-7,-3
450349490648,-1,-3,2,-7,1,-4,1,5
450349498832,2,-2,0,0,-4,-2,-2,-1
450349498832,-2,0,-1,-2,1,1,0,-3
450349505716,-2,-1,-1,-3,-1,5,1,4
450349505716,-4,-1,-2,-3,-4,0,-5,-4
450349529500,-3,-2,2,-2,2,-3,-2,1
450349529500,1,-3,-7,-3,-2,0,0,7
450349531052,1,-4,-1,-3,-6,-6,0,-3
450349531052,4,-2,-2,-1,0,0,0,0
450349535586,-1,-4,-3,-4,-4,-1,0,-3
450349535586,-1,-4,2,0,1,-3,-1,-1
450349550551,0,0,1,-7,-3,-3,-1,-3
450349550551,0,2,-5,-2,-2,-1,7,-3
450349558789,0,-3,3,-3,-3,-4,0,-3
450349558789,-3,7,0,-2,-1,-3,-4,0
450349565639,2,-4,-2,3,2,-2,3,-1
450349565639,-3,1,-1,-7,0,-3,-2,2
450349581378,0,3,-3,0,-4,0,0,4
450349581378,2,-5,3,-1,-4,-5,2,-1
450349588131,-2,-2,-3,2,2,-3,3,-3
450349588131,0,-5,-1,0,-3,-3,-2,-2
450349595670,-4,0,-3,1,6,0,-3,-2
450349595670,-2,-3,0,-3,-2,-2,2,0
450349610615,3,1,-3,-1,-1,-1,-2,-1
450349610615,0,-4,-2,-7,-5,-2,-6,0
450349618761,2,4,-3,-3,-1,1,2,-2
450349618761,1,0,5,0,-5,-1,-7,-1
450349625602,0,0,0,-3,1,2,1,-2
450349625602,0,1,-3,-3,-5,-4,-1,-5
450349640590,4,-3,-2,0,-4,1,0,-2
450349640590,-1,-2,-2,0,5,2,-3,-2
450349649591,-3,-3,0,1,-1,3,1,1
450349649591,0,1,4,-2,-3,0,-2,-1
450349663761,-2,-1,-2,-2,0,2,-1,-2
450349663761,-2,0,-2,-4,5,-3,3,-3
450349670522,-1,-1,0,1,-2,2,-2,-1
450349670522,-2,-1,1,2,-1,-1,0,-1
450349686964,-2,-5,3,-3,-4,-1,-1,-1
450349686964,0,-3,-2,-2,-5,1,2,-3
450349688605,-2,1,-3,-2,0,-4,-1,1
450349688605,-1,-6,0,0,0,-3,1,-5
450349701299,-4,2,0,1,5,1,-3,1
450349701299,3,-2,-6,-1,-4,2,2,0
450349708061,-4,-4,-5,-3,-4,-3,-1,0
450349708061,-2,-2,-1,1,-3,5,3,-1
450349723741,-2,-4,0,-3,-2,-5,2,2
450349723741,-3,-2,-3,-4,-4,2,3,-2
450349730644,-4,-4,0,-7,3,2,-3,2
450349730644,0,-5,0,-6,-3,-4,-2,0
450349746894,-1,-2,0,-5,-5,-4,-3,-2
450349746894,-5,4,-1,1,1,-2,-1,-3
450349748489,1,4,2,2,-5,-2,2,1
450349748489,-2,-4,-5,-2,4,1,-1,1
450349760633,-4,-3,-5,-4,3,2,6,3
450349760633,0,-1,-1,3,-1,-2,-8,-3
450349769593,1,-2,-1,-1,-3,2,2,-1
450349769593,4,3,3,-1,1,0,3,3
450349783763,-1,-3,-1,0,-7,-3,1,-2
450349783763,-4,-2,1,-7,-7,-2,-1,-1
450349790641,-1,-2,-2,0,-1,-1,-7,-3
450349790641,-5,0,-3,-2,-3,1,-3,1
450349807059,-3,4,-3,-4,-1,-2,-5,-5
450349807059,0,-4,2,3,-5,2,1,1
450349808662,0,-5,2,-1,2,-3,1,-1
450349808662,0,-1,-1,1,0,2,-2,-3
450349820708,0,-6,0,0,0,3,-2,-2
450349820708,-1,2,-3,2,2,-3,1,-1
450349829647,-2,-2,0,3,3,1,0,-4
450349829647,-1,-1,1,-1,-3,1,-1,0
450349843811,4,-6,1,5,1,1,-2,0
450349843811,1,0,-2,2,6,8,-1,0
450349850612,0,2,-1,-7,-1,0,-4,5
450349850612,-3,-3,-2,-3,-3,-5,-2,2
450349866963,-1,-5,-3,-4,-5,-1,0,-1
450349866963,1,-3,1,-4,-2,-4,-2,5
450349868544,0,0,-2,-3,2,-2,-1,-1
450349868544,0,-1,0,-1,1,-3,-4,-2
450349880748,-1,1,-3,2,10,2,1,1
450349880748,-1,-4,-2,0,0,2,4,2
450349889720,2,0,-2,2,1,1,1,2
450349889720,1,0,0,-1,-4,-3,-3,-2
450349911982,-4,2,4,-2,-2,-4,1,-1
450349911982,3,-2,1,-1,-2,-3,-5,-1
450349913651,-1,4,-1,0,-2,1,-2,-6
450349913651,-1,3,0,0,2,-2,2,2
450349927005,1,-1,-2,-2,-1,-3,-2,-1
450349927005,-3,1,-4,-1,3,0,-2,-2
450349928676,0,-2,-2,-1,-3,0,-3,1
450349928676,-2,-2,-1,2,-8,-2,-1,0
450349940704,-1,2,-1,-1,1,1,-2,-3
450349940704,0,-3,0,-4,-3,0,-2,-2
450349949649,0,-3,2,2,3,-4,1,1
450349949649,1,2,-4,-3,-2,-4,5,0
450349963788,2,3,2,-2,-5,2,3,-1
450349963788,0,-2,0,-7,-6,4,-5,0
450349970603,1,4,1,-2,-5,-3,-5,-2
450349970603,-1,-4,-7,-2,0,1,-3,-4
450349986980,2,2,-2,-4,-5,-8,-4,-5
450349986980,3,0,-1,-1,0,-3,5,-1
450349988626,-5,-2,4,2,-1,3,2,0
450349988626,-2,2,-4,3,1,0,0,-4
450350000543,3,-3,-3,2,-2,2,-1,3
450350000543,3,3,2,-1,-1,-4,3,-3
450350009587,1,-1,-3,-3,0,-5,0,-2
450350009587,2,3,4,-1,-1,0,0,-4
450350023788,-4,-5,-1,0,-2,-1,-1,-1
450350023788,0,-1,1,-3,-4,-2,0,1
450350030645,-3,-3,0,-3,-5,0,0,-2
450350030645,-1,1,2,-1,-1,2,-6,2
450350046925,0,3,0,-3,-4,0,1,-2
450350046925,1,2,0,2,5,-5,-3,-5
450350048587,-1,-1,-4,-3,-3,-2,-2,1
450350048587,7,3,3,4,-2,-2,-2,1
450350068673,-1,-6,1,3,3,1,-3,-2
450350068673,-2,0,4,-4,-6,-6,0,-1
450350069494,3,-2,0,1,0,-2,-3,1
450350069494,-2,-11,-6,-7,-2,1,0,-6
450350084596,-1,-2,-1,-2,1,-3,-2,0
450350084596,-2,-2,-4,1,-3,2,-3,-1
450350090607,4,3,-1,-1,-4,-7,-3,-3
450350090607,-2,-2,-1,-4,-4,-4,-3,-5
450350106224,-1,-6,-3,-3,1,1,1,0
450350106224,-4,-4,-4,-3,-1,-1,-1,-3
450350107005,-2,-7,-5,-1,0,0,1,-2
450350107005,0,0,-3,-3,0,0,-1,0
450350128764,-2,-6,-5,-6,-4,-2,-1,-5
450350128764,-1,-6,-3,-3,2,-3,-4,-1
450350129598,-2,-4,-4,-2,-8,1,1,-5
450350129598,1,-3,-2,-3,-1,0,-1,3
450350144595,-1,0,-2,-2,-1,0,-1,-1
450350144595,1,1,1,0,0,3,-1,3
450350150619,0,3,-1,-5,-2,-1,-2,-3
450350150619,-2,-1,-1,-4,-4,-1,-3,3
450350166179,-1,5,3,-2,-4,-5,-2,-6
450350166179,-1,-1,0,0,3,-1,2,-2
450350167003,-3,-4,0,-4,-1,-1,3,-1
450350167003,-2,-5,-1,1,0,-4,1,-4
450350188751,3,-3,4,-4,2,1,2,-2
450350188751,0,1,1,2,3,2,1,1
450350189590,0,1,6,3,-3,1,-6,0
450350189590,-4,-3,-1,-3,-2,-4,-2,0
450350204595,-2,2,-4,-3,-5,-1,-6,-2
450350204595,-4,-4,-2,0,-1,4,0,-2
450350210603,-2,2,-2,-4,0,-3,2,-5
450350210603,3,-4,-1,1,-3,0,-2,-2
450350226248,-1,-4,3,-3,-5,-2,-5,0
450350226248,-3,-4,0,-1,-5,-4,-2,-3
450350227041,-2,-4,-3,-4,-3,-3,-2,-3
450350227041,-4,-1,-2,-4,1,-3,3,-4
450350248761,-4,-7,-6,-7,-3,-4,-1,0
450350248761,2,2,-5,-5,-5,0,-4,-2
450350249628,-3,-2,-4,1,-1,-1,-2,1
450350249628,-2,0,-1,-2,-3,-5,0,-2
450350264633,1,-5,-4,-2,3,-3,-1,-3
450350264633,-6,-4,-4,-2,-3,-1,2,-3
450350270642,-2,-9,0,-1,3,-3,2,2
450350270642,7,0,0,-3,0,-1,-3,1
450350285661,-3,0,-4,3,0,1,3,2
450350285661,0,8,0,-1,2,-2,-2,-1
450350293115,1,7,1,1,4,5,1,-2
450350293115,-3,-1,-2,2,3,-1,-3,1
450350308801,0,6,-3,0,-1,-1,3,0
450350308801,-1,2,4,3,4,-1,-2,0
450350309589,3,-3,-2,-3,0,1,0,4
450350309589,-5,-3,1,2,1,2,-1,-1
450350324605,-3,2,-2,-2,3,-2,-3,-1
450350324605,0,-7,-3,-1,0,3,3,1
450350330646,-5,4,0,0,-1,4,-5,0
450350330646,-1,1,-2,-2,3,-3,-1,-5
450350345626,3,-2,-1,3,0,0,-4,2
450350345626,-3,-9,-2,-2,-5,-1,0,-2
450350353085,1,-4,-5,-1,-1,-4,2,-1
450350353085,-4,1,-3,-4,-1,1,-4,3
450350368702,-3,3,-3,-5,-3,-5,-6,0
450350368702,3,3,-1,1,2,-3,-8,-1
450350369557,0,-2,4,3,-2,-1,-3,-1
450350369557,1,-1,0,-2,-5,-1,-1,-1
450350384636,3,-2,3,-2,0,-2,2,0
450350384636,-2,-2,0,0,2,2,-2,-2
450350390660,-2,-2,3,0,-4,-5,-2,-4
450350390660,3,3,2,0,2,1,-1,-3
450350405666,-4,-3,0,3,3,3,5,3
450350405666,3,-4,0,2,1,-3,3,0
450350413076,-3,-3,-5,-4,-2,0,-2,1
450350413076,-6,-1,0,-1,1,3,4,-4
450350428715,-1,-6,-9,-6,0,0,-2,-1
450350428715,0,1,-7,-8,-4,-5,0,-1
450350429600,-1,-2,-4,-6,-1,-3,-6,0
450350429600,-2,-2,0,1,-1,5,-3,3
450350444592,1,-3,3,-1,-4,1,-3,-2
450350444592,2,1,2,-5,-9,0,-1,1
450350450639,1,4,0,3,-2,-2,3,1
450350450639,0,-3,-1,-3,-4,-2,6,-1
450350473748,1,6,3,0,-1,-3,-2,-2
450350473748,-3,-6,-3,-4,-6,-1,-4,0
450350474512,1,2,-3,-6,1,3,1,2
450350474512,-1,-3,-1,-1,-1,-3,-1,-2
450350488719,-3,-1,-3,-3,0,0,-1,-2
450350488719,-5,2,1,-5,-2,-3,-1,0
450350489498,-4,-5,-1,-2,1,-2,2,-2
450350489498,2,2,-4,-4,-6,2,2,-1
450350504594,2,-4,-2,-3,-7,4,2,2
450350504594,-1,-6,-1,-9,-6,-3,-1,-5
450350510548,-2,-3,-1,1,6,0,0,-1
450350510548,-1,-7,-2,-2,1,-1,2,1
450350525622,3,7,5,4,0,-1,0,1
450350525622,-3,3,-3,-1,0,-3,-4,0
450350533118,1,-2,-2,2,-5,-7,-5,-2
450350533118,-2,-2,-1,2,1,-9,3,2
450350548765,-5,-3,-1,-1,-2,0,4,-3
450350548765,2,-1,-3,2,-2,-7,-5,-3
450350549636,4,1,-7,-7,-4,1,0,-3
450350549636,1,-5,-1,-3,-5,0,-5,0
450350564603,-5,2,0,2,2,-3,-5,-4
450350564603,-2,-2,-2,0,0,1,4,4
450350570620,-1,-3,1,0,1,-3,-2,-1
450350570620,3,-2,-2,0,0,2,-5,0
450350585647,0,-3,-2,-5,1,-6,-1,-1
450350585647,-2,-6,0,3,3,2,-2,-2
450350593102,1,2,1,-2,-4,-7,-3,-2
450350593102,-1,1,-2,-1,-5,-2,-3,0
450350608790,-2,1,-4,1,-2,0,-4,-6
450350608790,-2,0,-6,4,3,2,4,1
450350609606,-7,-10,-2,1,-1,0,3,1
450350609606,-1,7,0,2,-1,-4,-2,-2
450350624625,-4,-5,5,-5,1,-5,-1,-2
450350624625,2,3,-2,2,3,-3,-2,-7
450350630646,1,6,-3,1,3,4,-1,0
450350630646,-1,-3,4,-4,5,2,-1,-3
450350645625,-1,-5,-3,-2,-2,0,-3,0
450350645625,-2,1,0,-1,0,2,-3,2
450350653149,-2,-5,1,-2,0,2,1,-1
450350653149,-2,1,1,1,4,-3,0,-3
450350668807,-3,4,-2,-5,-5,2,-1,3
450350668807,5,-3,1,-1,0,2,1,-1
450350669657,2,2,-2,-5,-5,-2,-5,-2
450350669657,0,5,1,-3,-4,-3,-4,-1
450350684602,3,-1,-3,1,3,1,0,-1
450350684602,2,-1,4,0,-3,-4,-2,0
450350690672,-3,1,0,-1,-8,-4,-3,-1
450350690672,-4,0,0,4,0,-1,2,-2
450350705639,1,-4,-3,-1,-1,-1,-1,1
450350705639,-3,0,0,-3,0,-6,-6,0
450350713111,0,0,2,0,0,0,-4,0
450350713111,-4,-2,0,-1,-7,-5,-2,2
450350728749,-3,4,0,-3,-4,-3,3,0
450350728749,2,-3,-1,2,6,2,-3,0
450350729546,-1,-3,-6,2,3,4,3,3
450350729546,-1,-3,-5,1,2,5,-2,-4
450350744588,0,-4,1,-4,3,-4,-1,3
450350744588,0,1,-3,-2,-4,0,-2,0
450350750642,-2,1,1,1,7,-2,1,-1
450350750642,1,-2,-4,0,1,-1,3,0
450350765625,-2,-3,-2,-2,-1,-4,-4,0
450350765625,-5,3,1,-2,-5,-1,-4,-1
450350773068,1,-4,0,2,1,-1,1,0
450350773068,1,-2,-3,-4,-5,2,-3,2
450350788755,-4,-1,1,2,1,3,0,-2
450350788755,-2,-1,-2,-6,2,1,-2,-4
450350789608,-1,-4,3,0,-3,-1,2,-1
450350789608,-2,-1,4,-5,0,-2,-6,-2
450350804594,0,2,-2,2,0,-2,3,3
450350804594,-3,-3,-1,2,-5,-2,-3,-3
450350810610,-5,-2,-3,-6,-4,-3,-1,-4
450350810610,0,-2,-3,-5,-1,-3,2,1
450350825629,-2,0,0,3,-2,0,-5,-4
450350825629,-5,-1,-3,-10,-10,-8,-1,-2
450350833060,-1,0,2,-1,-2,0,-4,0
450350833060,2,-1,1,1,-2,1,-2,-2
450350848736,-2,-3,-3,-4,-2,-4,1,2
450350848736,1,-3,1,-8,-4,-2,-5,-1
450350849599,-2,0,-4,-3,-5,-3,-1,-3
450350849599,-1,-1,0,-3,-1,-2,-6,-1
450350864603,4,1,-1,0,0,-3,-4,-4
450350864603,-4,-5,-4,-3,-1,-3,1,-2
450350870623,-5,-1,-1,-4,-2,2,-3,0
450350870623,1,-5,0,-4,-2,-2,5,0
450350885610,-2,2,0,0,-1,-2,-2,-4
450350885610,-5,-1,-5,-3,2,3,1,2
450350893137,4,0,-6,-5,1,-7,-2,-4
450350893137,-4,-2,-7,1,-2,-3,-1,-4
450350908777,-1,0,-4,-5,-7,-1,-3,-2
450350908777,-1,-1,-2,0,0,0,1,1
450350909597,3,-1,0,-1,-6,-3,3,1
450350909597,-3,-5,-3,-3,1,-1,-5,1
450350924592,-8,-5,2,2,-2,-2,3,-1
450350924592,-3,0,0,-2,2,-5,-7,-3
450350930617,1,3,-1,-3,1,-1,2,-3
450350930617,3,-1,-1,-5,-4,-6,-4,-1
450350945644,0,-5,-5,-4,-3,2,1,0
450350945644,-1,1,2,2,-4,1,0,1
450350953107,-3,3,-1,4,4,2,-2,-3
450350953107,-3,1,-1,1,0,-1,4,-1
450350968795,-1,-2,-1,-5,-4,2,-4,-2
450350968795,2,-6,-3,-4,-2,-2,4,1
450350969624,-5,0,-2,2,5,-1,3,-4
450350969624,-3,-1,-4,0,0,-1,-2,-4
450350984633,2,2,0,-2,-2,-2,-4,-1
450350984633,3,-3,-2,1,0,5,-4,-1
450350990639,-1,-2,-3,-2,-7,-4,-4,-4
450350990639,-4,3,3,4,-4,3,3,0
450351005637,-1,6,-2,-2,-1,-4,-3,1
450351005637,-5,-3,-3,-5,-2,-6,0,-1
450351013115,4,-4,-1,-1,2,0,-4,-6
450351013115,-1,2,-6,-5,-2,-2,-4,2
450351028733,-2,-5,-3,-6,-7,2,-1,-3
450351028733,2,3,-4,3,3,1,2,-2
450351029586,1,4,-3,0,-9,0,-7,2
450351029586,-3,4,4,-2,-1,-3,1,0
450351044590,0,2,3,2,4,0,-2,-5
450351044590,-3,0,-6,-4,-6,-3,-3,-2
450351050646,-4,-9,-5,-8,-6,-4,-5,2
450351050646,6,-2,1,0,-3,-1,-1,-4
450351065655,0,-5,-1,-4,-1,-3,3,3
450351065655,2,0,7,1,-1,-1,-3,-1
450351073075,-3,2,3,1,2,2,1,-1
450351073075,-2,-1,1,-7,-3,-3,-2,-3
450351088769,1,-1,2,1,-3,3,0,-1
450351088769,2,1,3,-2,3,0,-1,-4
450351089606,-1,-2,1,-2,-3,-2,-5,-1
450351089606,1,-3,-2,0,1,0,-1,-1
450351104623,-3,-3,2,-1,-5,0,1,1
450351104623,-5,5,2,3,-3,-3,-1,0
450351110591,1,0,1,-2,-1,-2,1,-6
450351110591,-1,-5,-4,-2,-1,0,-2,1
450351125636,1,-2,0,1,0,-5,-3,0
450351125636,-4,-5,2,-1,-1,-3,3,1
450351133125,-3,-3,-5,-2,1,1,4,-3
450351133125,-1,5,-3,-2,-1,1,2,-2
450351148777,0,-1,-7,-3,3,0,2,-5
450351148777,0,4,0,0,0,0,1,-3
450351149653,0,-1,-2,0,0,0,-1,2
450351149653,-7,-1,-1,-5,-4,0,-4,0
450351164628,0,-8,-3,1,3,1,0,1
450351164628,0,-4,-4,-5,-1,0,-1,-3
450351170655,1,1,1,1,-3,-1,0,0
450351170655,-5,-1,-2,0,4,-4,-4,-1
450351185647,5,0,-1,2,-1,-1,-1,-5
450351185647,1,3,-1,-1,-4,-1,-5,-1
450351193092,2,2,0,-5,-3,1,3,-1
450351193092,-1,-7,-1,-4,-7,-2,-5,2
450351208127,-3,-1,3,-4,-3,-2,-2,-2
450351208127,-5,-2,-1,-5,-2,0,0,-3
450351215611,-2,-2,-2,-2,-3,-4,-2,2
450351215611,1,2,-3,4,3,-1,4,-3
450351224595,-3,0,-5,-6,0,3,-1,-1
450351224595,-3,-4,-4,-2,1,-2,1,-3
450351230612,-3,1,1,-2,-1,-4,-3,0
450351230612,0,-4,-4,-4,0,3,-1,1
450351245609,0,-3,-5,0,0,-5,-2,0
450351245609,1,0,0,1,-2,0,2,4
450351253067,0,5,0,2,2,5,0,-1
450351253067,1,0,1,0,1,2,2,-3
450351268116,-2,0,2,2,-1,-1,2,-4
450351268116,2,-1,2,5,-1,2,-4,1
450351275598,2,1,0,-1,-2,1,-1,3
450351275598,-1,0,5,4,0,-3,-3,-1
450351291260,0,2,0,-4,-4,1,1,3
450351291260,0,-3,-2,-1,0,1,-1,1
450351292086,-3,-7,-1,-5,-6,-5,-2,-3
450351292086,-1,-1,-6,-2,-2,-2,0,-2
450351305626,6,0,0,-3,-9,0,-3,4
450351305626,-7,-2,-1,-1,-1,-2,0,-3
450351313084,-4,-1,-3,-1,6,0,-1,1
450351313084,-2,-2,-2,1,-3,0,0,-3
450351329593,-3,-5,-3,-7,-1,-2,-1,-4
450351329593,-1,-3,0,-2,-2,-7,-4,-3
450351335621,0,0,-3,-1,-3,-1,3,-2
450351335621,-7,3,3,4,0,-1,1,0
450351351268,-3,-2,-1,5,6,-1,-1,1
450351351268,0,0,-4,-2,1,-1,-2,-4
450351352092,2,-1,0,1,1,-2,-6,-3
450351352092,4,-1,2,0,0,-5,-4,-2
450351373777,-4,-1,-3,-6,-6,-2,-6,0
450351373777,0,-2,-5,-4,-4,-1,-3,-1
450351374590,0,0,0,-4,-2,-1,-7,-2
450351374590,2,2,0,-5,-5,2,-1,-4
450351388202,-2,1,1,0,2,1,-2,-6
450351388202,2,-1,2,-1,2,-5,0,1
450351395690,-4,-8,-3,-3,0,-1,-3,-3
450351395690,-1,3,-2,2,3,0,-4,3
450351411344,2,2,-3,0,-2,3,2,0
450351411344,5,-2,-4,-1,0,-5,-1,-1
450351412115,1,2,1,-4,-5,-2,-5,0
450351412115,-3,-1,0,-3,-3,-2,-5,1
450351425725,-1,2,1,-5,-1,-7,-5,-2
450351425725,-2,2,1,-1,0,3,1,-3
450351433218,0,2,-1,2,-3,-1,0,-1
450351433218,-1,-7,-2,1,0,0,1,-5
450351448121,2,4,2,2,-3,0,-3,-2
450351448121,1,1,0,4,-2,5,5,0
450351455684,-2,-4,-6,-1,4,-4,3,-1
450351455684,-3,0,-1,-9,-6,-3,1,-4
450351471260,-5,0,3,-1,-1,-2,-1,0
450351471260,0,0,-5,-1,-2,0,2,-3
450351472066,-2,0,2,0,-1,3,0,4
450351472066,6,4,-3,1,2,0,4,2
450351485684,-2,-4,4,4,8,-3,4,7
450351485684,0,2,-2,-1,-1,1,0,2
450351493212,-1,-4,-3,4,2,-1,1,0
450351493212,6,-1,-2,2,0,4,-2,0
450351508141,1,-2,-2,-3,0,2,3,-1
450351508141,-2,3,0,4,2,-1,0,3
450351515692,2,2,0,-2,-4,0,-3,0
450351515692,-3,3,2,-1,-5,-7,0,0
450351531291,3,1,-6,1,-3,4,-1,-1
450351531291,-6,-2,0,-1,2,-1,-3,0
450351532064,-1,-1,6,-1,0,-5,-2,-8
450351532064,3,-5,-3,1,-5,-2,-3,4
450351545600,0,2,-1,-1,0,-4,-1,1
450351545600,-2,-1,3,-1,-2,0,0,-1
450351553061,2,1,-2,2,1,0,-1,-4
450351553061,-3,-1,-2,1,4,-1,0,2
450351568073,-2,-3,-3,-4,-4,-1,2,-3
450351568073,-1,-1,-5,-6,-3,-3,-5,3
450351575635,-1,-2,-3,-5,-6,-8,-3,-1
450351575635,-4,-3,-2,-4,3,-1,-4,-3
450351591253,-1,1,1,2,-2,-2,-4,0
450351591253,1,4,-1,-4,-5,-6,3,0
450351592034,-2,-1,-4,4,5,0,2,-1
450351592034,-1,1,1,-4,-5,1,3,1
450351607099,-2,-3,-3,-2,-2,-2,3,-2
450351607099,-2,-2,-1,-3,0,-3,1,-4
450351613073,2,5,-1,0,-3,-1,1,-2
450351613073,-1,-1,0,-1,6,0,0,1
450351628091,0,0,2,-3,4,1,3,-5
450351628091,-3,0,3,-2,-2,-2,-12,-3
450351635620,-3,0,-1,-2,1,3,4,1
450351635620,-2,1,1,-4,-4,-1,-6,-4
450351651253,-2,-2,-1,-1,-3,-7,-4,-2
450351651253,0,0,-3,2,5,-4,2,-4
450351652083,-2,-2,-5,-6,-3,2,0,0
450351652083,-6,-6,-2,4,0,1,6,-3
450351665595,0,-4,-2,-2,1,-2,-4,3
450351665595,3,-3,-2,-2,-5,3,2,2
450351673119,1,2,6,2,-2,-2,-3,3
450351673119,-1,-1,-1,-2,-5,-7,-3,-5
450351688138,-1,-5,0,-1,-3,-3,-2,-1
450351688138,-4,-6,-1,-5,-2,-1,-3,-3
450351695625,2,-3,-6,-1,-2,-4,0,4
450351695625,-1,-2,-3,-5,-6,-5,0,-2
450351711348,-3,-1,-1,-3,-1,1,-2,0
450351711348,4,0,3,3,-4,-1,-3,0
450351712171,-1,1,-3,0,-1,1,-3,-4
450351712171,0,2,2,0,0,-1,-1,0
450351725696,-2,-1,-2,-3,2,-1,-2,-1
450351725696,-2,-2,-5,-2,-1,1,0,-1
450351733160,1,-2,-2,-3,-4,-2,-1,0
450351733160,3,-1,1,-4,-3,2,-2,2
450351748182,-1,0,-2,-1,0,-3,1,-1
450351748182,4,5,5,3,2,1,3,-2
450351755685,-1,-1,1,-2,0,0,-2,-2
450351755685,-2,1,-3,-5,-4,2,-2,1
450351771366,1,-1,-1,-4,-4,-2,-1,0
450351771366,-2,-2,0,-4,0,-2,-3,-5
450351772156,-4,-3,3,-6,-6,1,-2,2
450351772156,-2,1,-2,-3,-5,-4,-1,-2
450351785680,2,0,3,0,-2,-2,-5,-1
450351785680,-4,-2,-4,-3,0,-4,0,-2
450351793215,-2,1,-3,-3,2,-3,0,-3
450351793215,1,-3,-2,2,2,2,2,-3
450351808130,-2,2,1,-5,-8,-1,1,3
450351808130,-3,-4,4,-3,1,-3,-3,0
450351815760,1,-7,1,0,0,2,0,2
450351815760,-2,-2,-3,-5,0,-6,-2,0
450351831341,-4,-1,-8,-7,-10,-4,-6,-4
450351831341,0,-3,-4,-8,-6,-3,2,3
450351832152,-2,1,1,-1,-4,1,1,-2
450351832152,3,-1,-4,-2,-4,-1,-1,-1
450351845686,5,-6,-1,-4,-4,-3,-2,-5
450351845686,0,-1,4,-3,-4,0,-6,-2
450351853161,-3,-4,1,-6,-1,-3,-1,-1
450351853161,-1,3,1,-2,-4,-4,-2,-1
450351868217,1,1,-1,4,3,2,2,1
450351868217,1,0,-3,-2,-2,-1,-1,-2
450351875678,2,0,1,-1,-2,-1,-2,-3
450351875678,-5,0,6,0,-1,0,-2,-1
450351891308,-1,4,1,0,-3,1,0,-1
450351891308,-1,5,5,2,-4,-3,-2,2
450351892153,-5,-4,-5,-4,0,1,-3,0
450351892153,0,-5,-4,2,3,-5,-3,0
450351905649,-4,-4,-1,5,1,0,3,2
450351905649,6,2,1,3,3,0,-2,0
450351913209,-1,6,-1,2,0,-4,-1,1
450351913209,0,-5,0,1,3,-1,5,1
450351928253,-1,3,4,-3,-3,-2,-2,-3
450351928253,-3,-6,-4,-1,0,-1,-2,0
450351935740,-3,-3,2,-3,-4,0,-1,2
450351935740,-3,0,0,0,3,-5,-1,1
450351951385,-1,-2,0,-5,-3,-1,-5,-5
450351951385,-4,1,-1,3,-1,3,-3,-1
450351952067,-1,-3,0,-3,2,0,-2,0
450351952067,3,3,-1,0,-1,0,-1,-4
450351965626,2,1,1,0,-1,-2,-1,-3
450351965626,-5,-3,0,-4,0,-2,-1,-2
450351973298,-3,0,0,0,-8,1,1,-6
450351973298,-2,-3,-6,-5,-2,-2,2,-2
450351988194,-1,0,0,-4,-2,5,2,3
450351988194,-3,-1,-7,-5,-5,-1,-4,0
450351995604,2,0,-1,5,-2,0,0,-4
450351995604,-1,-1,1,-4,-5,3,-1,-2
450352011364,-4,-5,-3,-1,-1,0,5,0
450352011364,-3,3,-5,-3,-3,-5,-2,1
450352012099,1,1,5,1,-5,-1,-2,-2
450352012099,2,7,3,0,3,0,-1,-7
450352025720,-1,-6,-5,-3,4,-4,-5,0
450352025720,2,-6,-4,1,1,-3,-4,-3
450352033206,-4,-1,-2,0,2,5,0,0
450352033206,4,-5,-3,1,0,0,-1,-1
450352048198,-2,0,2,1,-2,-1,0,0
450352048198,-2,0,-1,3,2,-3,7,-2
450352055731,3,0,1,1,2,-2,-5,-1
450352055731,-4,-5,-1,3,-1,0,-1,0
450352071292,-3,-3,-6,0,1,4,-1,0
450352071292,-1,-3,4,0,-2,5,1,-4
450352072085,0,1,-4,0,-5,-7,2,1
450352072085,1,5,0,-1,-6,2,2,0
450352085684,0,3,-1,-1,1,-2,0,1
450352085684,-3,0,-2,0,-2,3,1,-1
450352093138,3,3,0,-1,0,-3,1,-1
450352093138,0,-4,-2,2,6,3,-5,1
450352108150,1,-3,1,3,-5,-4,-3,-1
450352108150,-3,-2,2,-2,2,1,-3,-4
450352115655,-4,-4,-2,-5,-3,-1,-6,2
450352115655,-4,0,-4,-6,-11,3,-5,0
450352130680,-1,1,-4,-3,-3,-2,-2,1
450352130680,-1,-3,-6,-5,-6,1,1,-6
450352138806,-1,-5,-3,-2,-3,-1,-1,-3
450352138806,1,-1,6,1,1,0,-1,1
450352145598,-1,-8,1,-2,-1,0,-3,0
450352145598,2,1,0,1,2,-2,-2,4
450352153068,5,0,-3,0,5,3,1,2
450352153068,-4,0,-4,-3,-1,-2,0,0
450352168139,-1,5,0,2,0,-1,-1,-2
450352168139,-2,-2,0,-1,-2,-3,-2,4
450352175642,-2,0,-2,2,6,-1,-3,-5
450352175642,2,-3,2,-1,-2,2,-3,1
450352190623,1,-2,1,1,0,-2,0,0
450352190623,0,-2,0,-5,-4,-2,-3,-5
450352198845,-4,-4,0,-4,-3,2,-1,-1
450352198845,-1,-2,0,-1,3,0,-3,2
450352213814,-1,1,-1,-4,-3,1,-2,0
450352213814,-1,4,0,4,4,7,0,0
450352214595,-3,0,1,-3,-5,-4,3,-1
450352214595,0,-5,-2,-2,3,-3,0,-2
450352228169,-2,-4,3,-2,1,1,-2,-1
450352228169,1,-3,-2,-1,-1,0,-1,-1
450352235682,-4,0,-1,3,4,1,-1,4
450352235682,0,4,0,3,-4,2,6,-2
450352250679,0,-1,-7,4,-1,-2,0,3
450352250679,1,-4,-1,-4,-2,-2,1,0
450352258861,-2,2,-4,-2,-2,1,0,-1
450352258861,0,1,-2,-2,-3,-2,3,-6
450352273867,1,6,3,-1,0,0,-2,-1
450352273867,3,0,0,-1,-3,-1,1,-1
450352274684,1,-4,0,-3,-1,-4,-1,3
450352274684,-9,1,0,-7,-4,-6,-3,-1
450352288215,-3,-1,1,2,1,2,-3,-5
450352288215,-2,4,1,-6,-4,1,0,-3
450352295693,-1,4,1,-4,-4,-2,1,-4
450352295693,1,-3,-3,-3,-2,-3,-1,-3
450352310752,1,0,4,-2,-4,-4,-1,0
450352310752,-1,-2,-1,0,-3,-3,0,2
450352318897,0,-6,-3,-2,-1,0,-3,0
450352318897,0,0,0,-1,-1,2,-4,0
450352333891,-3,-3,0,-1,0,6,3,-8
450352333891,-1,-2,-3,-1,-2,0,-1,0
450352334659,3,0,2,-1,-4,-1,2,-2
450352334659,1,-3,-1,-2,-1,0,-2,-5
450352348299,-3,3,0,2,-4,-1,6,1
450352348299,-3,-1,-3,-5,-9,-6,-4,-3
450352355744,3,-1,-1,4,2,1,1,-6
450352355744,-2,-2,-2,-2,-2,1,-1,2
450352370650,-1,-4,-7,-1,0,-6,-3,1
450352370650,-4,1,1,-1,3,-9,0,0
450352378881,-2,-3,-5,-4,-6,-6,-3,1
450352378881,1,-1,-4,2,-3,1,-1,-3
450352393922,-4,-4,-4,-7,-8,2,2,-3
450352393922,2,-1,-3,1,-1,1,-3,-2
450352394678,-2,-4,0,-1,1,-1,-7,-2
450352394678,-3,-2,-4,0,-6,-4,-2,2
450352408216,2,-2,-5,-5,0,-5,-3,1
450352408216,0,0,-1,-2,-3,0,-4,2
450352415650,1,6,-2,2,-1,3,1,-3
450352415650,-6,-1,0,-4,-2,2,-6,3
450352430627,1,0,-2,2,9,-3,-4,-3
450352430627,0,4,-3,0,4,-1,2,-4
450352438807,-1,-1,-1,1,0,-4,1,1
450352438807,4,-3,2,-1,-5,-3,-5,-3
450352453747,0,-2,-6,-6,-9,-2,-3,-2
450352453747,-1,-2,-1,-2,0,-5,-2,-2
450352454587,-2,-1,0,-1,-2,-2,2,1
450352454587,0,3,3,-2,-5,-2,2,-2
450352468096,1,2,-2,-4,-5,0,-1,-3
450352468096,-2,-4,-2,-4,-6,0,0,-2
450352475593,-5,-3,0,-8,-4,-6,-4,-2
450352475593,2,-2,2,3,1,-3,-3,-4
450352490597,-2,-3,0,-1,-1,2,3,2
450352490597,-6,-3,-3,2,1,1,3,5
450352498831,-4,-5,-5,-1,0,-6,-7,-3
450352498831,-1,-6,-6,-1,4,0,4,-2
450352513774,2,1,-5,0,-1,0,-4,-4
450352513774,0,-2,2,0,-1,0,-2,-3
450352514594,0,1,-3,-3,-6,1,0,1
450352514594,-3,-1,1,-7,-2,-1,1,3
450352528143,-5,-1,-3,-11,-3,-3,1,-3
450352528143,2,-2,0,-3,-1,0,-4,-6
450352536272,1,6,-3,-7,-7,-3,-5,1
450352536272,-5,2,-1,-6,-2,-3,-4,2
450352550613,-3,-6,-4,-4,-6,-5,-6,2
450352550613,-4,-6,-2,-4,2,0,0,1
450352558874,1,1,1,1,2,-1,5,-4
450352558874,0,1,-2,1,2,0,1,2
450352573767,1,1,1,4,2,-2,-1,-1
450352573767,2,-4,-2,-3,-2,-4,-4,-2
450352574603,-4,-4,-2,-2,-2,-3,-2,-1
450352574603,-1,5,-3,2,1,1,3,-5
450352588115,-1,-3,5,-3,-2,0,-5,-6
450352588115,1,0,-4,2,0,0,-2,2
450352596454,-2,-3,-2,-3,3,0,-2,-3
450352596454,-2,-1,0,0,0,1,-1,2
450352610713,-6,-4,-2,-2,-4,-4,-6,-1
450352610713,1,-1,-4,-7,-3,-5,1,0
450352618920,2,-4,-6,-7,-4,-1,-4,1
450352618920,-2,-6,0,-4,2,1,1,-1
450352642075,1,1,-4,4,3,-3,1,1
450352642075,0,4,4,3,-4,0,-5,-4
450352642883,-3,1,-2,4,6,-3,2,-1
450352642883,-1,-4,-3,-1,0,0,-1,-3
450352648242,0,-2,-2,2,0,0,5,1
450352648242,4,3,-3,-3,-5,1,-1,-4
450352656052,2,-3,1,2,1,0,2,-3
450352656052,-1,5,2,-4,-5,-6,-5,-3
450352670600,2,-1,2,0,-1,1,3,-2
450352670600,0,-7,0,-4,-2,-1,0,-1
450352679620,-1,4,0,0,-2,2,0,-2
450352679620,-3,-1,-5,-5,-1,-6,-2,-3
450352693872,6,1,1,3,-2,0,-4,-3
450352693872,-3,1,3,2,6,3,0,0
450352694687,-1,0,4,0,-6,2,0,-2
450352694687,3,-3,-3,2,1,-2,0,1
450352708186,-1,-6,-4,-4,1,0,2,1
450352708186,2,-2,-2,1,-2,3,-1,0
450352716385,-2,-6,1,-1,2,-3,-2,0
450352716385,-1,3,3,-1,-4,-5,-5,0
450352730683,-2,2,0,-1,1,-1,-5,-1
450352730683,4,0,-2,0,-2,-3,1,3
450352738901,-1,-3,-1,-3,1,0,2,1
450352738901,-3,-5,-2,-3,-4,1,2,-1
450352753925,-3,4,0,0,-1,2,0,3
450352753925,-2,-1,1,-1,5,-4,-1,1
450352754623,1,2,-4,-2,-5,0,2,2
450352754623,3,0,1,-1,-5,-1,-3,-1
450352768129,-2,-2,2,-3,-5,-1,-4,2
450352768129,0,-3,-2,-4,-5,1,-1,-2
450352776477,-2,-5,-8,0,-1,2,-4,-2
450352776477,-2,-2,-2,-1,1,-5,-2,1
450352790663,3,-3,-2,-4,-4,-1,2,-4
450352790663,-3,-5,2,0,-1,-6,-2,-4
450352798824,-5,2,3,-1,0,-4,-1,-2
450352798824,-2,-1,-1,3,4,1,2,4
450352813794,-10,-3,-5,0,-1,-1,5,-2
450352813794,-1,1,-5,2,0,-1,-2,-4
450352814597,5,-4,-1,-1,2,-2,0,1
450352814597,-3,0,2,-1,0,-2,1,-3
450352828149,2,-1,2,3,7,-1,0,5
450352828149,0,-1,-3,-3,-2,-4,-2,0
450352836314,-4,-4,-2,-3,-2,0,2,-3
450352836314,2,-6,-6,-5,-4,-2,-6,-2
450352850638,-2,-3,0,-4,0,-4,-4,-2
450352850638,0,0,0,-2,2,-2,2,0
450352858785,-2,1,2,1,-1,4,-5,0
450352858785,1,-2,-4,2,0,-2,-1,-5
450352881993,-4,0,-3,0,0,-2,-4,3
450352881993,-2,-1,-4,-2,0,-2,-1,-2
450352882787,2,-4,2,0,-1,-4,1,-1
450352882787,-3,-4,3,2,1,2,3,-1
450352888121,4,-1,-3,-3,-3,-4,-5,-5
450352888121,-6,-6,-1,-2,-4,-2,-1,-4
450352896340,0,3,-6,-3,0,-1,1,1
450352896340,0,-3,-1,-6,-1,1,-1,0
450352910629,1,1,-1,-5,-8,1,-2,-3
450352910629,-2,-1,2,-3,-4,-3,-5,-1
450352918829,1,-1,-2,0,0,-5,-5,-7
450352918829,0,-1,-1,-2,-4,0,-2,2
450352933750,-6,-3,-3,-8,0,-2,-1,-4
450352933750,1,0,-2,-2,1,0,-2,0
450352934582,-3,1,-3,-7,-2,0,-3,-4
450352934582,-2,3,-2,0,1,-3,-6,-4
450352948126,-2,-7,1,-5,-6,-2,-2,-7
450352948126,-2,1,0,-3,-1,2,-2,0
450352956416,-4,-6,-3,1,-3,-2,3,1
450352956416,-2,1,-4,-3,-3,-1,0,0
450352970718,0,-2,-3,-2,-5,1,-1,-1
450352970718,-3,1,-2,-2,-3,-2,1,0
450352978935,-2,-6,-1,-7,-4,-3,-1,-1
450352978935,0,2,-2,4,4,1,0,-3
450352993860,0,3,-1,-2,0,1,3,-1
450352993860,-3,-2,-1,-4,-2,-2,0,0
450352994637,0,0,0,-5,-5,-7,-7,-2
450352994637,1,-5,0,-2,-6,-1,2,0
450353008230,12,1,4,1,-5,-2,-3,-2
450353008230,-3,-2,-1,2,-2,0,1,-1
450353016407,1,0,5,7,3,8,0,0
450353016407,4,3,-2,2,-4,-4,2,0
450353030748,-3,0,-5,3,1,-3,-2,1
450353030748,2,-3,-1,-1,0,0,4,-4
450353038951,0,0,2,-3,-3,-7,-2,2
450353038951,-3,-4,-6,-3,-4,0,1,-3
450353053880,-4,2,-2,2,-1,-1,1,0
450353053880,-1,1,0,-2,-5,0,-1,3
450353054705,-5,-2,-7,-2,2,0,-4,-3
450353054705,1,-4,-1,-6,-3,4,-4,-5
450353068184,-3,6,8,2,1,-2,0,-2
450353068184,3,-3,-2,0,-3,-3,2,3
450353075679,5,2,-4,-4,-1,0,5,1
450353075679,-3,-1,0,-5,0,-1,-1,5
450353090700,-3,-1,-6,-3,-5,7,-2,1
450353090700,3,6,-2,-2,3,-3,-5,-5
450353098916,-2,0,-1,2,-2,3,0,-2
450353098916,-3,-5,-4,1,3,1,0,-1
450353113220,1,-7,-2,-4,-1,-1,1,-2
450353113220,-4,0,0,-2,-4,3,-2,-1
450353121413,-3,-4,2,-3,-3,-1,-3,3
450353121413,0,-1,3,-1,1,-1,-3,1
450353128157,-3,0,-3,-3,0,-4,1,-3
450353128157,-5,-4,-3,-3,3,0,-1,0
450353135659,-4,1,1,0,-2,1,2,-5
450353135659,-2,-1,-5,-2,-4,-2,1,-1
450353150643,-2,-5,0,-4,-3,-1,-1,-1
450353150643,0,-3,-1,-1,-1,0,-3,5
450353158821,-1,-3,3,2,-5,-1,-5,-5
450353158821,3,0,3,6,8,0,1,1
450353173091,2,-1,-6,-3,0,1,-2,-2
450353173091,0,0,1,-5,-7,-1,1,-3
450353181381,2,6,-4,3,1,3,-2,4
450353181381,-1,2,2,-2,-3,-4,-3,0
450353196263,0,1,-1,-5,-4,-2,-2,-2
450353196263,-4,-3,2,-2,-3,-2,-1,-2
450353197067,-2,-1,1,-5,-6,-4,-1,-3
450353197067,-1,-4,0,-2,-6,-1,5,-1
450353219482,0,1,0,3,0,5,1,-2
450353219482,1,-2,0,-1,-2,-4,-6,-1
450353220260,-2,6,1,-2,-4,-4,-1,-6
450353220260,-2,4,-4,-4,-6,0,-2,3
450353233270,-4,-5,0,-4,-1,0,2,-4
450353233270,-4,2,3,3,1,2,-5,-4
450353241356,1,-5,-2,-4,-2,0,-3,0
450353241356,-2,-5,-1,-3,0,-2,-2,-2
450353256442,-2,-5,1,6,10,-3,-3,6
450353256442,-2,-6,0,-2,-6,-4,1,-1
450353257131,-4,-6,-5,-6,3,-4,-4,6
450353257131,-2,-2,-3,2,-4,-3,-1,-4
450353270785,-1,-3,0,2,3,-2,3,-2
450353270785,2,1,0,0,0,-2,2,1
450353278925,-2,-3,-6,-3,-3,1,-2,-2
450353278925,0,-3,-2,-8,-3,-1,-1,-3
450353293259,-1,3,0,-4,-2,2,-6,4
450353293259,0,-4,-3,-5,-2,-5,0,-2
450353301449,-1,-5,1,-1,-4,-2,-3,-1
450353301449,0,0,2,0,-3,2,1,-2
450353316160,-4,1,3,1,4,3,3,0
450353316160,-1,3,-3,1,1,0,2,-4
450353323977,0,1,3,5,5,3,6,-4
450353323977,-2,0,0,-1,-2,-1,-2,-2
450353330750,0,-1,-5,-7,-7,-10,-2,-3
450353330750,-3,-2,0,-2,-3,1,-2,-2
450353346419,-1,-1,-1,0,-2,1,-1,-3
450353346419,1,-1,7,3,4,1,-7,0
450353353196,-1,0,0,-1,-2,-3,-2,0
450353353196,0,0,-2,7,6,4,-1,4
450353361470,-3,-1,0,1,1,-3,2,3
450353361470,-1,3,-4,-10,-2,1,-1,2
450353377119,-1,1,-1,3,0,-4,3,-1
450353377119,4,-2,-1,0,-2,-7,-4,0
450353377877,2,0,3,-7,-6,-3,-5,-2
450353377877,-1,-8,-4,-2,-2,0,2,-3
450353390679,2,1,0,-2,-3,2,-2,2
450353390679,-1,1,2,-2,-1,2,2,2
450353398913,-1,6,-2,2,-1,0,0,-2
450353398913,-2,5,3,2,7,2,2,0
450353413233,-3,0,-3,-3,-8,-2,-6,-4
450353413233,-2,0,-2,1,3,0,1,-6
450353421440,2,-9,1,-4,2,-3,-3,1
450353421440,-3,-2,-1,-1,-4,-3,3,-1
450353437090,-2,-1,-3,0,1,-1,1,-2
450353437090,-2,0,7,0,-1,2,-4,1
450353437808,-2,3,1,-1,0,0,5,1
450353437808,2,-2,-1,0,1,-5,0,0
450353450804,-1,-4,0,1,2,2,-1,1
450353450804,-3,-1,-2,-1,-1,-2,-3,-5
450353458865,-1,-3,-4,4,3,2,3,4
450353458865,2,-3,-2,0,1,-3,-3,-1
450353473149,1,1,2,-1,1,-4,-2,1
450353473149,-3,-1,-11,-5,-3,0,0,-1
450353481369,-2,4,1,0,-5,-2,-3,0
450353481369,0,5,1,0,-5,-3,-3,-3
450353497021,0,4,-1,-2,0,-2,-1,0
450353497021,-1,-4,1,-4,-2,-4,4,-1
450353497817,-2,-3,-4,-1,-1,-4,-7,-3
450353497817,-5,-2,-5,-1,-2,-3,2,-6
450353510619,4,-2,0,0,-2,-9,-5,0
450353510619,-2,-1,0,-4,-2,-4,-3,-5
450353518886,5,0,-1,-6,1,-2,-3,1
450353518886,-4,-5,-5,0,-1,-5,-4,-4
450353533212,-4,-4,-1,-7,0,0,2,-6
450353533212,4,2,-4,0,0,-1,-2,0
450353542187,2,-1,1,0,-2,3,1,0
450353542187,2,-3,-5,-6,-5,2,-2,1
450353555749,1,0,0,-1,4,-2,4,0
450353555749,1,3,0,-7,-6,1,0,-1
450353564766,-2,0,3,1,-6,-3,0,-3
450353564766,-1,1,-1,-1,0,-1,-2,2
450353570676,1,-1,0,1,-5,3,-1,1
450353570676,-1,-2,-2,2,-1,-1,1,-2
450353579667,-4,-5,-5,-2,-1,2,6,-3
450353579667,-3,-3,0,-2,-1,3,-1,0
450353593219,-4,-4,0,1,-3,-1,-3,-1
450353593219,-1,-2,-3,4,0,1,2,3
450353602153,-1,3,-3,0,1,-2,0,1
450353602153,-3,-4,2,1,3,-2,2,1
450353615734,-3,1,-3,1,-2,2,0,-5
450353615734,-5,-2,-4,-2,-5,-6,-1,3
450353624697,-6,-2,-3,-1,4,-2,-2,1
450353624697,1,0,-2,-5,-1,-6,-2,-5
450353630712,-3,-2,-1,-4,1,-1,-1,1
450353630712,0,-3,0,-1,-2,-2,1,2
450353639746,-1,-3,-2,1,-3,-2,0,-2
450353639746,-7,1,2,-1,1,-2,0,-1
450353653253,2,-1,-4,-6,-6,-8,4,-2
450353653253,0,1,2,3,0,0,1,2
450353662184,0,-4,-3,2,5,1,0,-5
450353662184,2,-5,0,-3,-1,-3,-2,0
450353675787,-5,-9,-1,-3,-1,-4,-3,1
450353675787,2,0,-4,-1,-2,0,-3,-4
450353684703,1,1,1,-5,-3,-4,0,-1
450353684703,-2,-8,0,-5,-2,2,0,1
450353690736,1,-5,0,-1,-5,-1,-2,0
450353690736,-6,-2,0,-3,-1,-1,-8,0
450353699752,2,2,0,0,0,2,0,0
450353699752,3,3,0,3,3,-1,1,1
450353713201,-1,2,0,0,-2,3,4,0
450353713201,-1,-2,0,-2,0,0,1,-3
450353729661,-4,3,-2,2,1,4,2,-2
450353729661,-1,4,0,-1,-1,3,1,-5
450353735621,-1,-2,4,1,4,-3,-2,-1
450353735621,1,-5,-2,-4,1,-2,-2,-3
450353752810,-1,-4,-1,0,5,-1,-3,4
450353752810,3,-1,-8,0,-2,-3,3,1
450353753614,-3,0,-3,-1,-6,5,0,1
450353753614,0,6,2,2,-2,2,-2,-4
450353759655,2,-7,3,4,-3,1,4,1
450353759655,-3,-2,5,-3,-3,-2,0,1
450353773126,0,3,-3,-1,4,1,2,0
450353773126,-2,-4,-4,-4,0,2,5,1
450353782163,1,-3,-1,1,-1,-4,-1,2
450353782163,-1,1,-1,-5,-2,0,-5,4
450353804502,-3,1,-1,-1,-1,2,2,-4
450353804502,0,1,-5,-1,4,-1,1,-2
450353806083,-4,-2,3,-1,-5,-1,-5,-3
450353806083,-2,-2,-3,2,-7,3,1,1
450353810656,4,3,5,2,-1,-3,-7,-3
450353810656,1,-5,-4,-1,-2,-2,-5,-1
450353819665,-2,1,-3,-9,-3,0,-1,-2
450353819665,-2,0,-2,2,1,-2,-2,-3
450353833285,-4,-2,0,-5,-7,-3,-2,-2
450353833285,1,-2,-2,1,-3,0,1,0
450353842151,2,-1,5,0,-3,-2,-3,-3
450353842151,-1,-1,3,2,3,-1,-6,-1
450353855772,1,-2,-5,-6,-2,-3,-4,2
450353855772,-2,5,2,-1,2,-2,-2,0
450353864705,-5,1,-5,-6,-8,2,-2,-1
450353864705,5,-1,2,5,1,0,-2,-1
450353870781,1,-4,1,-1,0,-1,-2,-3
450353870781,-2,-2,2,-7,-3,-4,1,-2
450353879737,-3,-1,-6,-1,0,-6,-2,-2
450353879737,0,-1,-1,0,1,1,-1,0
450353893274,1,-3,5,7,4,-2,5,2
450353893274,-3,1,0,4,-3,2,-2,1
450353902132,-3,-1,1,5,7,3,4,0
450353902132,-3,1,-3,-1,-1,-5,-1,-1
450353915784,-3,1,-6,-5,-5,-3,-4,-3
450353915784,-1,-5,1,-6,-1,-2,1,1
450353924754,-1,-3,1,-6,-8,-2,-4,-1
450353924754,0,-7,-4,-3,-2,-3,-2,-6
450353930738,-2,-2,-1,0,2,2,1,-2
450353930738,0,-2,-4,1,-5,3,0,3
450353939717,1,-5,-2,-1,2,2,-5,-2
450353939717,0,3,-6,-5,-3,-1,-1,-2
450353953237,-2,3,2,3,1,-5,-6,-2
450353953237,1,1,2,1,2,-2,0,-4
450353962254,3,1,-2,-3,-6,-4,-2,-2
450353962254,-5,-3,-3,-2,2,-3,0,-1
450353975727,3,-5,-1,3,2,3,3,0
450353975727,-2,-3,4,-6,-1,-1,-3,-3
450353984727,1,-3,-3,-2,0,-2,-1,0
450353984727,-1,-4,-2,-5,-3,0,1,0
450353990771,-2,-4,-5,-4,-3,-3,0,-9
450353990771,1,-4,-4,0,0,-5,1,4
450353999669,-5,0,0,-4,-4,2,7,-2
450353999669,-1,0,-3,-4,-2,-5,-1,-1
450354013225,2,-1,-7,-3,-2,-2,-5,0
450354013225,-5,-1,-2,-2,-5,-4,-1,-2
450354022257,-4,-1,-3,-4,3,1,0,0
450354022257,3,-1,1,6,3,1,-3,0
450354035710,-11,-1,-2,-5,0,-1,0,0
450354035710,0,-2,-1,-7,-3,2,-5,-6
450354044724,-1,-4,-1,-1,4,-4,0,-2
450354044724,-4,3,-1,-10,-2,1,-1,-5
450354059627,4,2,1,1,2,3,1,5
450354059627,0,-2,-1,0,4,1,0,-1
450354061234,0,-2,4,2,0,-3,-1,0
450354061234,2,2,0,5,1,4,4,-4
450354073255,2,-1,0,-3,-4,2,0,1
450354073255,-3,-4,-2,-3,-1,-2,2,-3
450354082189,3,3,3,2,-1,-4,-1,0
450354082189,-2,0,-1,3,4,-1,-5,3
450354096444,-5,-4,-4,-5,-6,-3,1,0
450354096444,-1,-3,1,2,4,-3,-1,4
450354103111,-5,-1,-9,0,5,-5,2,1
450354103111,-4,-1,1,-2,1,-2,1,0
450354119591,-5,-6,-4,-3,2,-1,-4,-1
450354119591,-2,-2,-3,0,0,-1,0,-3
450354121123,3,3,-2,-3,-2,-1,-3,-1
450354121123,-1,2,1,0,-1,1,2,4
450354133228,0,-1,-2,-4,-3,-3,-7,-3
450354133228,-3,-4,-2,0,0,0,0,0
450354142192,0,0,-6,-6,-3,-1,-5,5
450354142192,-3,-1,2,-4,-8,3,0,-3
450354156358,-2,0,4,0,-5,6,-4,0
450354156358,0,5,-2,1,0,4,0,-1
450354163145,-6,0,0,-3,-7,-2,-1,-6
450354163145,0,-7,0,2,6,-2,2,-2
450354179551,1,0,-1,-1,4,-4,2,-4
450354179551,1,2,1,-5,-2,-6,-6,-4
450354181154,4,1,0,-2,3,0,3,0
450354181154,-1,-2,0,-6,-12,-2,-7,-2
450354193174,1,-2,0,-1,-1,-2,-2,1
450354193174,-3,-7,-3,-2,-5,0,-2,-3
450354202180,-2,-5,-2,0,-5,-4,0,-3
450354202180,4,-1,-4,1,-1,0,-3,0
450354215722,1,-4,-1,-2,2,-2,-1,1
450354215722,-2,-5,-2,-4,-5,0,2,2
450354224638,-2,-4,-2,-3,-1,-2,-1,3
450354224638,-3,0,1,0,4,-4,1,4
450354239480,0,-1,-2,-1,-1,-1,2,1
450354239480,1,10,-2,-4,-4,-2,-4,-2
450354241109,0,-5,-1,0,4,4,1,0
450354241109,4,-3,-7,2,4,-5,-2,-4
450354253199,-2,1,-6,-6,0,3,5,-2
450354253199,1,-2,0,-3,-3,-4,0,3
450354262114,-3,-4,-3,-2,-1,-5,-7,-2
450354262114,-2,0,2,-2,-5,-1,-2,-2
450354275707,-2,1,-5,-2,-1,-3,-1,-5
450354275707,-3,-1,2,-1,-7,-3,-4,-3
450354284780,-1,2,-2,1,-6,6,-3,0
450354284780,-1,-2,-3,-5,-4,-2,-2,-3
450354299628,2,-1,2,-1,-2,-2,1,-3
450354299628,-1,-4,0,2,2,3,3,0
450354301165,-1,3,-3,1,3,-2,-1,-2
450354301165,-6,0,-2,-5,-1,3,-1,-2
450354313296,-3,0,-1,-3,-5,-1,-4,-5
450354313296,2,3,-4,-3,4,0,1,1
450354322267,1,-6,-2,2,-1,-1,0,-3
450354322267,-4,-3,-3,-7,-7,-3,0,1
450354335733,0,-2,1,2,0,-1,-1,-1
450354335733,-4,-3,0,-1,1,-1,-6,1
450354344732,-1,1,3,-1,-3,-1,-1,1
450354344732,1,-4,0,-3,1,-2,-4,-5
450354359590,-3,-1,-2,-1,-5,-4,2,0
450354359590,0,-2,-1,-3,-5,1,0,-3
450354361197,1,-6,-5,-2,1,-3,-5,-3
450354361197,-1,-7,0,0,-3,-4,6,-2
450354382148,0,-5,-1,-3,0,-1,-1,3
450354382148,-4,-3,0,2,4,-1,-6,-3
450354383768,0,-1,3,2,5,-1,-2,-3
450354383768,3,4,-1,4,4,0,-2,5
450354396434,2,4,0,-2,-4,-1,-3,-2
450354396434,0,3,-1,3,-2,1,4,1
450354403270,2,1,6,1,-5,6,4,2
450354403270,-1,3,1,1,0,4,-2,-2
450354419593,-3,-4,-1,-3,1,-2,-4,-1
450354419593,2,0,-2,-1,-1,0,1,2
450354421128,-1,0,-3,1,0,-4,2,0
450354421128,0,-2,0,-1,5,-1,2,-1
450354433297,2,5,2,2,-3,-4,0,2
450354433297,0,-7,-5,-4,-1,-5,0,1
450354442187,-1,-2,-4,-4,1,-1,-1,-3
450354442187,-1,3,-2,0,0,3,1,1
450354455696,-2,-1,1,2,5,-2,-3,-1
450354455696,-1,1,0,3,1,-1,-5,3
450354464736,-1,2,1,-4,-5,1,-3,-7
450354464736,3,-6,-3,-1,-3,-1,-2,-3
450354479563,0,-3,0,-1,3,2,2,5
450354479563,6,-2,1,0,0,-4,-1,-1
450354481147,-4,1,-4,-3,0,-1,-7,1
450354481147,0,1,-2,0,-3,-4,-1,-5
450354493186,0,-3,-4,-7,-2,2,1,-4
450354493186,-3,-3,2,0,0,-4,0,-5
450354502313,-2,-3,-1,5,2,-1,2,1
450354502313,2,-5,-5,-6,-2,-2,-1,1
450354516435,-1,1,-3,0,-1,0,0,-3
450354516435,3,-1,-1,-8,-9,-3,-6,-3
450354523200,0,1,4,-4,-3,-2,0,4
450354523200,-5,-8,-3,1,-1,-2,-1,-2
450354539516,3,-1,-6,-4,3,-2,-8,0
450354539516,-6,-2,-10,3,6,1,1,-1
450354541133,1,3,1,2,-2,-1,1,-3
450354541133,0,-4,2,4,0,0,-1,0
450354553187,6,-2,2,-1,0,-1,-1,6
450354553187,3,4,-1,2,1,3,2,-3
450354562156,-2,-4,-2,-3,-3,-2,3,0
450354562156,-3,3,3,-4,-1,3,5,2
450354576350,-5,-4,3,4,-3,3,4,2
450354576350,-3,-4,-2,-2,-2,0,0,5
450354583148,1,-6,-2,-1,4,2,-1,0
450354583148,-1,5,2,1,3,-3,-3,-5
450354599488,0,3,-2,1,1,-3,3,-2
450354599488,3,2,6,1,-3,1,1,-1
450354601123,5,1,-2,-4,1,-2,2,0
450354601123,-2,-5,-4,0,2,-3,-5,3
450354613148,1,1,-4,-4,-2,-2,0,-3
450354613148,-3,-1,1,1,1,-1,0,-1
450354622190,-1,1,-3,0,1,-3,-3,-1
450354622190,-4,1,-3,-3,-2,-3,0,1
450354635661,-1,4,0,-2,-2,1,-1,-1
450354635661,1,-1,-1,-1,1,-1,1,-2
450354652172,-4,-3,-1,-2,-2,4,3,2
450354652172,3,4,0,4,-7,8,1,-2
450354659549,-3,0,1,-2,-2,-5,-3,1
450354659549,1,-3,-7,-3,-2,-5,-1,-2
450354661135,-1,0,5,5,0,-3,-3,3
450354661135,-2,-1,-3,-2,1,2,-3,-1
450354673256,-3,-3,-2,-2,-6,-3,0,-3
450354673256,3,2,2,-7,-4,-5,-3,1
450354682270,1,0,0,3,-1,-3,-3,-5
450354682270,3,-1,-4,-4,-4,-2,4,3
450354695791,-2,0,4,1,-4,0,-3,0
450354695791,-4,-4,-2,-1,-1,1,3,-4
450354704775,2,4,-3,-4,-7,-2,-2,-6
450354704775,-2,-5,-2,-3,1,-2,-5,-1
450354719583,-6,-4,1,-3,0,3,-3,-5
450354719583,-2,-3,-5,1,5,1,2,0
450354721203,-4,-1,-3,-3,0,2,5,2
450354721203,-2,-2,2,2,-2,-6,-3,-2
450354733236,2,-1,-5,-1,2,-3,-4,0
450354733236,-1,-2,0,-5,-4,4,-1,0
450354742236,-2,-1,-5,-5,-5,1,-2,-3
450354742236,-2,-2,-3,-2,0,-7,1,-1
450354755736,-4,-2,-1,-4,-4,-4,1,-6
450354755736,-3,-1,-1,-3,-4,1,3,-1
450354764787,-1,-3,-3,-8,-1,-1,-3,-3
450354764787,4,-3,4,0,-3,-4,-2,-2
450354779645,1,-6,-1,4,2,-1,0,2
450354779645,-6,-1,0,1,2,-1,-3,-2
450354781246,-1,-1,-3,1,0,1,2,0
450354781246,1,2,-2,0,1,2,-1,3
450354793279,-4,-3,0,-3,1,2,0,-2
450354793279,-3,-4,-7,-5,-7,1,0,0
450354802187,-2,-1,2,1,6,-1,0,-1
450354802187,-8,1,4,2,5,1,2,1
450354815788,-2,-3,-1,-1,-3,-2,-5,1
450354815788,1,-3,-1,-1,0,0,-3,0
450354824729,-1,-1,-2,0,3,-4,-4,-2
450354824729,2,-1,-1,-3,-6,-1,-3,-1
450354839548,1,-3,-3,2,2,-2,-1,0
450354839548,-2,-3,1,-5,0,-6,-2,2
450354841149,2,-6,2,-1,-3,-2,-3,-3
450354841149,1,-2,1,0,-4,4,-2,-4
450354853255,1,2,0,-3,2,2,4,0
450354853255,0,-1,-3,2,-1,3,-1,4
450354862205,-1,0,-1,-2,-1,-1,2,1
450354862205,-3,3,1,-1,-2,-2,-1,-3
450354875710,2,2,4,2,1,-1,-2,4
450354875710,0,0,4,-2,0,-2,0,-3
450354884741,-5,0,1,-1,0,0,0,3
450354884741,1,-1,-7,-1,4,-5,-5,-4
450354899588,-1,1,-5,0,-2,-2,-4,-4
450354899588,-1,1,-2,2,-3,0,0,-8
450354901171,0,-3,0,1,-4,2,-2,0
450354901171,-16,0,-4,-4,1,2,1,1
450354913166,-3,-6,-5,-11,-13,-2,-2,0
450354913166,0,2,-3,-1,-3,-3,-1,-3
450354922173,-3,-4,-3,-8,-4,-8,-1,-1
450354922173,4,1,0,-6,0,2,-1,0
450354935667,-2,1,-1,4,2,-3,-1,-4
450354935667,0,2,-1,-3,-1,-3,-3,-2
450354944730,-4,-5,-5,1,2,-1,2,-2
450354944730,1,-3,0,-3,-2,1,1,-1
450354959344,-4,-5,-3,-2,3,-2,2,4
450354959344,4,-3,4,-2,-1,-3,-4,-5
450354965765,2,2,-3,3,3,0,-2,2
450354965765,0,1,0,0,-6,-3,-5,-6
450354973258,1,5,-1,1,4,4,4,0
450354973258,-3,-4,-5,-5,-7,-1,-1,-1
450354982226,1,-1,-2,-3,-5,1,-3,-4
450354982226,3,0,5,-3,-1,2,-3,1
450354995775,1,2,1,0,-4,0,-4,-7
450354995775,-3,-2,2,1,-2,0,-6,-1
450355010767,-5,-7,5,-2,-2,-5,-3,0
450355010767,0,-3,0,-2,-1,1,2,2
450355018942,0,-3,1,-1,2,3,-3,-5
450355018942,4,0,-3,-3,0,2,2,1
450355025746,3,8,-4,2,2,3,2,-2
450355025746,-2,-5,-4,-3,1,-8,-2,0
450355033278,4,-5,0,-2,-4,-5,-5,-4
450355033278,-1,-4,2,-1,3,-4,0,0
450355042245,-2,1,2,-1,-6,-4,-4,-2
450355042245,2,5,-6,-1,-2,-1,-4,-5
450355055750,1,2,-4,-4,-6,-4,1,0
450355055750,1,2,0,-3,-7,-3,-3,-1
450355064747,1,-3,-1,-3,2,3,1,0
450355064747,3,0,3,-1,-3,1,0,-1
450355078942,-1,-4,2,1,4,0,-1,-2
450355078942,2,4,-1,1,-3,-5,-5,2
450355085787,1,-5,-9,0,-3,-2,-1,1
450355085787,2,-4,-1,2,-1,-3,-1,-1
450355102016,0,-3,-4,-1,-1,-3,2,0
450355102016,-5,-6,-5,-6,3,-4,-3,-4
450355103670,-1,-2,2,-4,-3,-3,-1,1
450355103670,-3,5,-5,-7,1,0,-2,-1
450355115759,-2,-8,-1,-8,-5,-2,-4,-3
450355115759,-4,3,2,-2,2,2,5,-2
450355124656,-1,-3,-1,-4,-7,-6,-4,-1
450355124656,0,-8,-2,-2,1,-3,3,-2
450355138938,-1,-4,-1,-3,-3,-4,4,-1
450355138938,1,-8,-1,2,-1,2,0,0
450355145680,3,3,0,-3,-2,1,-1,-3
450355145680,2,-3,3,3,-2,2,-1,1
450355162029,-2,6,-1,-5,-2,3,-2,-2
450355162029,-1,5,-2,-3,-1,0,-7,-6
450355163657,-1,7,-4,-2,-6,-3,-1,-4
450355163657,-5,-3,-3,-7,-11,-3,-3,-3
450355175658,-2,-2,-2,-4,-2,-2,1,-2
450355175658,-2,-6,1,0,1,-4,-1,3
450355184699,-5,-3,-1,1,6,-1,-2,-4
450355184699,2,1,5,-4,2,-1,2,0
450355198871,-1,5,-1,2,-2,4,1,-2
450355198871,3,8,0,0,-1,1,-3,-3
450355205646,-3,3,-4,-4,-3,-4,-5,1
450355205646,2,1,-1,1,1,-1,-4,-1
450355222007,-2,1,2,-2,-9,-4,-2,0
450355222007,-6,-3,-4,-1,1,-2,-1,-2
450355223639,1,2,5,3,-4,4,2,1
450355223639,-4,3,0,1,-3,-4,0,3
450355236366,2,-3,-2,2,3,-1,0,2
450355236366,-2,-3,-5,2,-3,-1,0,4
450355243117,1,-7,-2,0,-1,-2,1,-1
450355243117,-5,-4,-3,-5,1,-1,-1,0
450355258835,0,-1,1,-2,-2,2,0,1
450355258835,0,3,-11,0,3,1,0,-1
450355265681,-3,-3,0,-4,3,-4,-5,2
450355265681,-2,0,4,4,-2,-2,2,2
450355282180,-2,-6,-3,0,2,-4,0,-2
450355282180,-5,-1,2,-3,-10,1,0,-2
450355283700,-1,1,-2,3,-4,4,0,1
450355283700,-2,-12,-3,-4,2,-5,2,-7
450355295717,0,-2,0,3,-4,0,0,5
450355295717,1,0,9,-3,-5,-4,1,-2
450355304782,0,3,0,-5,-3,5,-3,-3
450355304782,2,2,-7,-3,-2,-8,-4,-4
450355318942,-4,-3,-2,-3,4,-2,0,1
450355318942,0,-13,-5,-1,5,1,2,-1
450355325716,0,0,2,3,-1,-1,1,0
450355325716,1,5,2,-6,2,5,-2,-3
450355342191,2,4,0,-4,-4,-4,0,1
450355342191,1,-4,0,-1,-1,-2,-1,2
450355343653,-3,-8,-2,4,4,-1,-2,-1
450355343653,-2,-9,-5,-1,4,2,2,1
450355355822,-1,9,-1,-4,-5,-1,-4,0
450355355822,0,6,0,-6,-5,-3,-4,-1
450355364727,2,-4,0,-7,-7,-2,3,-3
450355364727,-6,0,-1,0,-2,-2,2,1
450355378890,-1,-5,0,3,2,6,-1,-1
450355378890,2,3,-2,-2,-1,0,0,2
450355385781,-1,4,-1,3,1,-2,3,0
450355385781,-5,1,4,1,-4,-3,-5,-2
450355402060,0,4,-2,-6,-2,-3,0,-1
450355402060,-2,-4,1,0,-2,-2,-3,-5
450355403652,-2,3,1,0,4,0,1,1
450355403652,1,-5,-1,-3,-7,4,0,-2
450355415731,1,2,6,6,1,-4,-5,-1
450355415731,-2,2,3,-6,-1,0,1,-2
450355424779,1,-2,-4,-7,-1,-2,-5,0
450355424779,4,3,-1,-5,-6,-5,-5,-1
450355438970,-4,-6,-5,0,5,1,-4,-6
450355438970,4,1,-4,1,1,-1,-1,5
450355445765,1,-4,3,1,-1,-5,1,-4
450355445765,3,-1,1,-1,-6,3,2,-1
450355462087,-1,-6,0,-4,-3,-5,-4,0
450355462087,0,0,3,-1,-4,-2,-4,1
450355463708,0,3,2,-1,0,4,-1,-1
450355463708,0,3,1,3,5,-4,-4,-1
450355475746,-1,-1,-2,-5,1,0,-1,1
450355475746,-3,-3,-5,5,2,1,-3,-2
450355484695,0,-6,3,0,-3,1,2,-1
450355484695,0,-2,0,-4,-6,-2,-1,3
450355498873,-3,-3,-2,-1,-4,1,1,-4
450355498873,-1,-5,4,1,1,-5,3,-3
450355505646,1,0,0,-1,2,-1,-1,-2
450355505646,-1,-4,-4,3,-4,-1,2,-1
450355522068,-3,0,0,-7,-5,-4,1,0
450355522068,1,-2,1,-2,2,-3,-2,-2
450355523640,1,-8,-4,-2,1,-3,-3,-4
450355523640,-1,-4,-3,-1,2,-2,-1,-2
450355535780,4,5,0,3,1,4,1,-1
450355535780,3,5,1,5,0,3,3,3
450355544814,-3,4,0,-3,-4,-2,-1,-3
450355544814,-4,1,-1,1,3,-4,-5,-1
450355559621,2,-9,1,1,-2,0,0,4
450355559621,-2,-4,-3,-3,-2,0,-8,-4
450355565718,-1,6,0,-1,-1,-1,2,0
450355565718,-3,-2,-2,-1,5,-3,4,-1
450355582107,1,1,-1,-2,-2,-1,-6,-2
450355582107,-3,-3,-2,1,-3,-2,-5,1
450355583709,-2,-7,-1,-1,3,-2,-3,1
450355583709,1,-2,5,-4,-4,2,0,3
450355595773,-5,6,0,-7,2,1,-5,-2
450355595773,3,8,0,0,2,1,6,-3
450355604775,-2,2,-4,3,-4,-1,-4,-1
450355604775,2,6,-3,-2,3,0,-2,-1
450355618935,0,-7,2,5,-7,-1,2,-5
450355618935,1,-5,4,3,-1,-3,2,-3
450355625761,-2,-2,-3,-9,-3,-4,-4,0
450355625761,-2,-3,1,2,2,2,3,-2
450355642091,1,9,-3,-3,5,4,-2,3
450355642091,0,0,1,1,-6,2,1,0
450355643674,3,4,-3,-4,-1,0,-3,-1
450355643674,-1,-1,5,-8,-9,-7,3,1
450355655754,-1,-7,-3,3,-1,-4,6,3
450355655754,-1,-5,1,-5,-1,-2,-3,-4
450355664762,-3,-5,-8,-2,5,-2,2,1
450355664762,2,7,-1,3,-1,2,-3,4
450355678993,1,7,-1,-4,2,9,-3,0
450355678993,-6,7,1,-8,-8,-1,-3,-8
450355685729,1,5,2,1,-4,4,-2,0
450355685729,-3,1,-2,0,-2,-8,1,-2
450355702111,-1,-8,-2,0,-5,-9,0,-2
450355702111,-3,-9,1,-1,-2,-3,-3,0
450355703680,2,-8,1,-1,-3,-1,1,-8
450355703680,5,1,-8,-2,-2,2,1,-2
450355715678,-1,3,2,-1,-8,-3,-6,-4
450355715678,2,8,-8,0,4,3,-1,-1
450355724683,-6,2,-1,-4,-8,-4,-2,-4
450355724683,-5,2,1,0,0,4,-6,-1
450355738894,-1,-9,1,1,-6,-6,2,-7
450355738894,-1,-2,1,-3,-1,1,3,1
450355745656,0,3,7,0,1,-1,-3,1
450355745656,-2,-3,-2,-6,-3,-1,-5,-2
450355762079,-3,4,-1,-5,2,1,2,-2
450355762079,-6,1,-4,-2,1,-1,-4,2
450355763625,0,2,-2,-3,-4,2,-4,-3
450355763625,-3,-2,-2,2,2,2,-2,0
450355775733,-5,-8,-4,-4,-8,-1,-4,3
450355775733,1,-5,-1,-1,3,-9,-1,-4
450355784695,-1,1,-1,0,7,2,-2,1
450355784695,-1,-8,0,0,-2,-2,-2,-1
450355798966,0,2,-5,-4,-8,-2,-4,1
450355798966,-1,6,4,-2,-10,1,-1,1
450355805721,-6,3,-6,-6,-4,-3,2,1
450355805721,5,0,0,-1,-1,0,-4,-1
450355822187,1,0,1,2,2,5,1,-3
450355822187,-7,-4,-1,-4,-7,2,-2,-3
450355823807,-2,-2,3,-3,-3,-2,-1,-1
450355823807,-4,-5,0,-4,0,-1,1,-1
450355835813,-1,-1,-6,-2,2,0,2,2
450355835813,4,2,-3,1,-3,-3,-2,1
450355844785,-2,-8,1,2,3,-1,0,-5
450355844785,-1,3,-5,3,-2,0,-2,-6
450355858872,-6,-2,-1,-2,-1,0,-2,-4
450355858872,-2,-10,-6,-6,0,-2,-3,-1
450355865781,-2,-9,-2,-2,-3,-9,0,-3
450355865781,1,-8,1,2,-1,0,-1,1
450355882179,8,3,5,-1,-4,4,1,-2
450355882179,-1,12,-6,-1,-4,3,-1,3
450355883723,2,1,4,-3,-4,0,-5,-7
450355883723,0,2,0,-2,-3,-1,2,0
450355904717,-3,1,-1,1,2,-5,0,6
450355904717,2,-6,3,-2,8,2,1,-3
450355906233,1,-2,-1,-1,1,-1,-7,3
450355906233,-2,-1,-2,-5,-6,-6,0,-7
450355918957,0,-1,2,0,2,0,3,-1
450355918957,-5,1,-2,-2,4,0,2,-3
450355925755,-1,0,-4,-1,0,2,0,-1
450355925755,-2,4,-6,-1,0,-3,-4,3
450355941495,-1,0,-6,2,0,-5,-2,-3
450355941495,5,-8,-2,-6,-6,-3,1,-1
450355948286,-2,-1,-1,-2,-5,-5,2,1
450355948286,0,-1,0,-5,1,4,3,2
450355955791,-5,-5,-3,-6,-2,1,-1,-3
450355955791,-1,4,2,4,0,2,-2,-2
450355964815,1,7,-3,1,2,2,5,3
450355964815,-2,-1,-2,-6,0,1,3,-3
450355978964,5,3,3,1,3,0,0,0
450355978964,-1,3,4,-2,-2,-3,-2,0
450355985725,1,-1,-2,0,-2,1,0,3
450355985725,-3,-2,-3,0,3,-5,1,-3
450356001438,-3,-6,-5,-3,3,-5,-5,-1
450356001438,-1,-3,-5,-1,-3,0,-1,0
450356008184,-7,0,-4,0,1,2,-5,0
450356008184,1,0,2,1,-5,-1,1,-1
450356024545,-1,0,-1,0,1,-2,-1,2
450356024545,-2,-5,1,-1,7,1,3,5
450356026159,2,-2,-1,0,1,1,3,-2
450356026159,-3,-2,-1,-1,3,0,2,-3
450356038898,-3,-1,0,-7,-4,1,1,0
450356038898,0,-3,1,-1,-10,-4,1,0
450356045747,0,-6,-3,-3,-4,0,-2,3
450356045747,6,0,2,-2,-2,1,-2,4
450356061484,-2,2,0,-1,-1,4,4,-3
450356061484,0,-1,-5,-4,0,-2,0,-5
450356068293,-2,-1,3,-4,-5,-6,-2,-4
450356068293,-8,-9,3,2,3,2,-6,3
450356084731,-1,-2,0,-1,-2,-1,-2,-2
450356084731,-3,2,-2,-2,-6,-2,-4,-5
450356086226,0,-4,-4,0,3,3,4,2
450356086226,2,2,0,1,0,1,-4,-3
450356099036,-4,0,-1,-2,-3,-1,0,-5
450356099036,-1,-3,-2,4,5,-5,1,2
450356105767,6,0,5,0,-2,-4,-4,-5
450356105767,-3,-2,-3,1,-2,-1,2,-1
450356121468,-1,-3,-3,-3,2,-1,-2,1
450356121468,4,-4,-1,0,-2,7,0,3
450356128254,-3,-5,-2,-4,-4,-2,-6,0
450356128254,-3,0,-1,-5,-5,-1,-6,-3
450356144376,1,1,0,-6,-7,-5,-1,1
450356144376,-1,-5,-4,-4,-5,-3,0,-5
450356152304,0,0,-2,-5,2,-8,-1,-1
450356152304,-3,0,1,-1,-1,0,-3,-3
450356158962,-2,-1,-2,-5,0,-7,0,-3
450356158962,-1,4,-2,-4,-2,2,-3,-1
450356165730,1,0,1,3,-3,-3,-1,-1
450356165730,-2,-7,-4,0,-1,-3,4,2
450356181457,-1,-8,-7,-2,-1,4,1,-1
450356181457,-4,-3,-2,0,-1,1,2,1
450356188263,0,3,-1,1,2,-2,2,-4
450356188263,0,-2,-4,-3,-5,-8,0,0
450356204612,-5,0,4,0,-4,-1,-1,0
450356204612,-4,0,-7,-3,0,-3,-3,-4
450356206208,-4,-4,-2,0,1,7,0,1
450356206208,-1,3,3,2,-2,-2,-3,-4
450356227168,3,-6,-2,6,0,2,0,2
450356227168,-3,0,0,-4,-7,1,-2,0
450356228735,-2,3,-2,-6,-1,-1,-3,-3
450356228735,0,3,-8,0,-3,-2,1,-1
450356241470,2,1,-1,0,-1,-1,-3,-2
450356241470,-1,-2,0,-5,0,-2,1,0
450356248206,-3,-8,-5,0,-6,1,6,-3
450356248206,0,-5,-1,-2,0,-1,-6,-1
450356264620,5,-4,2,1,-1,1,-1,0
450356264620,0,-5,-2,0,-2,-4,-2,1
450356266153,-1,2,4,-2,-1,-2,-3,0
450356266153,-1,0,-2,-5,1,3,2,-3
450356278227,0,-2,-2,-1,0,-4,-3,-2
450356278227,2,-3,2,5,0,-2,5,3
450356287185,5,-3,-1,4,6,-1,-1,0
450356287185,-2,1,-1,0,-2,-2,-1,2
450356301379,-1,6,0,-1,-2,0,-2,-3
450356301379,-2,-1,1,-3,-3,0,-2,-2
450356308154,1,1,1,-2,-6,-5,1,-1
450356308154,-3,0,-3,-4,-4,1,2,0
450356324573,-1,2,1,0,-3,1,1,2
450356324573,4,1,2,-4,6,-4,0,-4
450356326138,-2,0,-4,-3,-1,-2,-2,1
450356326138,2,1,-1,-3,-3,0,2,-1
450356338247,-4,-6,1,4,2,-2,-4,3
450356338247,-3,-3,2,-2,0,-3,0,1
450356347269,-2,-4,0,-1,-5,1,-3,4
450356347269,-1,0,-4,-1,-1,7,5,3
450356361542,-2,5,0,-4,-4,-3,-1,1
450356361542,0,1,-8,-3,-8,-2,-8,-1
450356368296,0,-3,-5,-2,-4,-6,-4,0
450356368296,-2,-5,1,6,2,1,0,2
450356392160,2,-4,-2,0,-1,-4,0,-2
450356392160,-1,5,-1,0,0,3,-2,0
450356393767,-6,-3,1,1,6,4,1,1
450356393767,-2,4,-2,-9,-3,-1,-4,-1
450356398342,-2,-8,-5,-7,-1,-2,-2,-2
450356398342,2,8,7,3,0,-3,2,1
450356407236,-4,-4,-1,2,-6,1,-1,1
450356407236,0,-2,-2,-1,1,-4,-3,-1
450356421514,-4,-9,1,-6,-1,-2,-3,-3
450356421514,0,-3,-5,-5,-2,-2,-5,-1
450356428306,1,4,0,0,0,1,1,-1
450356428306,-3,0,2,4,-3,3,1,0
450356444610,3,12,-4,-5,-4,-1,2,-4
450356444610,2,-7,-3,-3,-2,0,2,0
450356446172,0,-6,-2,-2,-3,-3,-2,-6
450356446172,2,-5,3,5,0,-5,0,-4
450356458320,-3,0,-1,-2,0,4,-3,3
450356458320,-1,1,1,0,0,1,-3,0
450356467337,-1,-1,-1,-1,-3,1,-2,3
450356467337,1,-3,-1,-5,-1,1,-3,-3
450356481530,-1,-3,-2,-1,1,4,0,-5
450356481530,-2,-4,-3,-4,1,-1,-2,0
450356488284,3,-3,1,-2,-2,1,-3,-1
450356488284,1,0,1,-2,-3,-8,2,-2
450356504687,0,0,2,2,1,1,0,2
450356504687,-2,-1,3,2,1,2,2,0
450356506215,0,1,-5,0,0,4,0,1
450356506215,1,4,-1,0,-3,1,-6,2
450356518271,-3,-3,-3,4,1,0,1,-1
450356518271,3,-2,3,-1,-3,-3,-2,-1
450356527347,-2,-1,0,-4,-3,-6,-5,0
450356527347,1,-4,0,-4,-4,-2,-5,-2
450356541497,0,3,-5,-4,-5,-4,-2,-7
450356541497,3,-1,-1,2,-1,-6,-1,-6
450356548263,2,3,-2,2,-2,-2,1,0
450356548263,-1,1,-6,-1,6,-3,-4,0
450356564641,1,1,-2,0,2,-2,-1,1
450356564641,-4,-3,-1,-4,-3,-3,1,-4
450356566215,-5,-3,-3,1,1,-1,-1,-2
450356566215,-4,-7,-4,0,2,-2,0,-5
450356578337,-3,2,-5,-3,-2,-2,0,0
450356578337,-2,1,-6,-4,-1,1,-2,2
450356602084,0,1,1,-3,-7,-2,0,-2
450356602084,-4,-3,0,-4,2,4,3,1
450356602862,0,0,-1,-2,-7,0,-3,-3
450356602862,-3,-4,0,-5,-1,-2,2,-3
450356608284,1,0,-1,-1,0,0,0,-6
450356608284,0,5,7,2,-5,1,0,-3
450356624679,-3,-2,1,-3,-4,-2,2,-3
450356624679,3,0,-4,1,0,4,-4,1
450356626241,-1,-4,-3,-7,6,-6,-1,-5
450356626241,-3,-7,-2,-4,-2,-3,-4,-2
450356638174,-1,-1,0,0,-1,1,-2,1
450356638174,-4,1,-4,-7,-6,-1,-1,2
450356647262,3,-1,-1,1,-4,-1,0,-2
450356647262,1,0,-4,3,-2,-4,1,6
450356661594,-2,-6,0,-4,0,-1,2,-2
450356661594,5,-4,3,2,2,-2,0,1
450356668326,-7,-5,-1,2,-1,2,1,4
450356668326,-7,-6,-5,-5,-2,1,3,-5
450356684670,0,-3,0,-2,-1,0,-2,2
450356684670,-5,-1,4,1,4,2,0,-2
450356686205,1,2,-2,-1,-2,0,6,-2
450356686205,0,3,-2,-3,0,-1,-2,-3
450356698312,-3,-8,1,-3,5,-5,-3,1
450356698312,-2,-6,-2,-3,-5,1,-1,-4
450356707226,-2,-4,1,-3,-4,-2,-6,-2
450356707226,2,-1,1,-4,-3,-4,-3,0
450356721430,3,5,0,-4,-3,-1,2,-5
450356721430,-1,1,0,3,-4,-3,-1,-4
450356728239,-2,0,-5,-3,0,-3,-4,-4
450356728239,1,0,-1,-3,-1,-1,1,-1
450356744619,-1,-2,0,4,0,0,-1,3
450356744619,-1,-2,-1,-3,2,-3,-2,-4
450356746212,3,2,4,2,-5,2,0,4
450356746212,3,-2,1,6,2,3,4,-1
450356758256,-1,0,-7,-4,-2,-1,-6,1
450356758256,2,0,1,2,-2,-2,-7,1
450356773247,0,-4,-4,-2,2,-1,-4,0
450356773247,-1,-1,-1,-6,-8,-5,-8,-4
450356781439,1,-2,-2,-1,2,-2,0,-2
450356781439,-3,0,-1,-2,0,0,1,3
450356788228,2,5,4,2,-4,-1,-2,0
450356788228,-1,-2,-2,1,5,0,2,-1
450356804705,-3,-5,-2,3,3,-3,1,-2
450356804705,0,0,-3,-6,-2,-4,-3,-1
450356806281,-6,-5,0,0,5,-1,-1,-1
450356806281,1,-4,-3,-2,-4,-3,-1,2
450356818216,2,4,5,-1,-4,-1,0,1
450356818216,1,-1,0,-2,-3,1,4,-2
450356827291,4,-1,-3,-3,-7,-1,3,-4
450356827291,1,4,3,-5,-8,-3,-4,-1
450356841529,0,0,-3,-1,-8,-1,-1,3
450356841529,-4,-4,-2,3,0,-3,-1,0
450356848353,1,1,-1,-2,1,-1,-3,0
450356848353,1,-7,0,2,4,-1,2,-2
450356864682,0,1,-2,-5,-3,-2,3,-3
450356864682,-2,0,-3,-1,-1,0,2,-1
450356866197,0,1,-5,1,3,-5,-3,-1
450356866197,0,0,-4,2,0,-1,-5,2
450356878802,1,-1,3,-4,-2,1,-5,-4
450356878802,-1,-2,-1,2,-3,-1,-4,-3
450356887310,-2,-3,0,-2,0,1,3,2
450356887310,-1,0,-7,-2,1,1,1,-4
450356901415,-2,0,3,0,-2,0,2,0
450356901415,3,-2,1,-1,4,-5,-1,0
450356908323,3,-5,-4,2,-3,-2,-4,-2
450356908323,-2,-1,-2,-6,-4,-5,-6,1
450356924039,0,-3,1,-5,-4,-3,-2,-1
450356924039,-3,-1,1,1,1,4,2,0
450356930819,-2,-4,2,-2,-3,0,0,2
450356930819,2,3,-1,-4,-9,-1,3,-1
450356947208,3,4,0,-1,0,-7,-2,-1
450356947208,2,3,-3,-1,-2,-2,-3,4
450356948775,-2,-2,-2,1,-1,-3,-1,-5
450356948775,-2,-3,-2,-1,0,-1,-2,0
450356961482,-4,-3,0,1,-5,0,1,-1
450356961482,2,1,-1,-2,0,0,-2,-2
450356968323,-1,-2,0,3,4,-4,-1,0
450356968323,0,0,5,1,-1,0,3,-2
450356983991,-1,-1,-3,-3,-1,-1,-4,0
450356983991,-3,-6,-4,-4,-5,-1,-2,-3
450356990783,-1,5,-3,-3,-5,0,1,-3
450356990783,-2,-5,4,-2,-3,3,0,-1
450357007070,0,-6,1,1,0,0,0,1
450357007070,-1,0,1,-2,3,4,2,-4
450357008725,-3,-5,-1,-7,-3,-3,0,-1
450357008725,5,-2,-3,1,-1,-3,0,1
450357022216,-3,0,-6,-5,-5,-3,-3,-2
450357022216,0,0,-2,-1,-7,0,-2,0
450357028240,4,3,1,0,2,4,-1,-4
450357028240,-1,-2,-3,1,-3,0,-4,1
450357043163,3,-7,-1,-3,-3,-3,0,-2
450357043163,-2,-7,-4,0,-6,-2,1,2
450357050659,-4,-4,-2,-3,-4,-1,1,-3
450357050659,-2,3,1,2,4,2,-1,0
450357066374,-2,4,1,1,-1,1,1,-1
450357066374,4,5,3,-5,-7,-4,-1,-4
450357067158,-2,-7,-2,-6,-8,-7,-4,-3
450357067158,-1,-5,-1,-5,1,0,-1,-3
450357082214,0,-1,0,3,-3,1,0,-3
450357082214,0,-2,-5,0,0,-1,0,-1
450357088175,4,0,-2,-4,-6,-3,-3,2
450357088175,-3,0,-1,0,-5,-6,1,-4
450357103213,-3,-2,1,0,4,5,0,1
450357103213,0,2,1,-1,-4,-5,-5,-2
450357110698,-2,3,-3,-3,-1,0,-4,0
450357110698,-2,-5,-2,-2,-11,-4,-5,-7
450357126420,-1,-2,-1,-3,-3,-1,-5,-2
450357126420,0,-6,1,-1,6,1,2,-1
450357127196,-2,0,-4,1,2,0,-1,-3
450357127196,0,0,1,-1,2,-1,-1,7
450357142250,-1,2,-3,3,1,1,3,2
450357142250,-3,-4,-3,-2,-4,-4,-3,0
450357148250,2,-2,-2,-1,1,0,-3,-1
450357148250,-1,0,-5,-1,6,3,-4,-4
450357163227,2,-1,-1,-5,-4,-9,-3,-4
450357163227,-4,-3,-1,-3,0,0,-5,2
450357170704,5,3,-3,4,-3,1,2,-3
450357170704,-1,2,1,-5,-8,-4,0,0
450357186381,0,2,-3,1,1,1,0,0
450357186381,0,-1,3,-3,2,-1,0,-6
450357187191,-8,-6,-3,-1,3,0,1,1
450357187191,-1,-4,-3,-2,-2,-7,-2,-3
450357202238,-4,0,0,-2,-3,-1,-5,-2
450357202238,0,-1,-1,1,-5,-3,-1,3
450357208244,-1,-2,1,-5,2,-4,-1,-1
450357208244,-2,-4,-2,1,-1,0,0,5
450357223321,-2,-6,-6,-3,-2,-4,-3,-2
450357223321,1,3,-1,-4,-1,-2,0,-5
450357230807,-3,-7,1,-5,-1,-7,0,-3
450357230807,-4,1,-1,0,4,-4,0,-7
450357246530,-1,-1,0,-1,1,-1,-4,0
450357246530,1,2,-1,-3,-3,1,-4,-3
450357247240,-2,4,0,-5,-5,1,-3,-1
450357247240,2,2,-3,-4,-8,-3,1,-1
450357262261,3,1,-2,1,0,-4,-1,0
450357262261,-3,1,-2,-1,-2,-6,-4,-2
450357268350,-3,-1,1,1,-7,2,-1,1
450357268350,1,1,2,-1,-3,1,0,3
450357283307,-1,-3,0,-4,-2,-2,-4,-3
450357283307,0,-9,-4,-1,-5,-4,2,-3
450357290809,3,-1,0,0,0,-5,0,-2
450357290809,-1,0,-3,-5,4,2,-1,0
450357306477,1,0,-1,-2,-4,-1,3,1
450357306477,-2,4,-1,1,-3,5,3,0
450357307185,-6,1,1,-2,-6,2,-1,1
450357307185,-7,-4,-2,0,-1,-4,-3,0
450357322309,1,-4,-1,1,4,4,3,-1
450357322309,-2,-3,-5,-4,1,-2,2,1
450357328317,-2,1,0,1,-5,-2,2,4
450357328317,0,-1,-3,-2,-1,-2,2,-3
450357343285,-5,1,-2,-1,-5,-4,-2,0
450357343285,-1,0,0,-2,-1,0,-1,-4
450357350824,-2,-1,-1,-2,-1,4,0,-5
450357350824,1,-4,1,5,-5,-1,-2,-1
450357366432,1,-3,2,-1,-3,-4,-3,-2
450357366432,1,1,0,3,0,-4,2,-1
450357367191,1,-5,2,-1,-5,-2,-1,-2
450357367191,2,0,1,-4,1,-1,0,0
450357382329,-7,0,1,-1,-1,3,-3,-5
450357382329,-2,0,-2,2,-2,-4,0,-2
450357388284,1,3,0,0,5,-1,-8,-6
450357388284,1,-1,3,-2,-6,-1,-6,-2
450357404713,0,3,-1,-2,-1,1,-2,6
450357404713,1,-4,4,-6,-6,-3,-1,0
450357410694,-2,-3,-1,3,1,-2,1,3
450357410694,-7,-9,-2,-10,-6,-3,3,-2
450357426346,-2,-3,-5,-7,0,-3,-1,-5
450357426346,-4,6,0,2,4,3,-4,3
450357427178,-3,0,-3,2,-1,1,-1,-2
450357427178,1,0,0,-3,0,5,1,-2
450357442212,-1,-3,-4,-2,-3,-3,-1,2
450357442212,-3,-8,-9,-2,1,1,-4,-6
450357448218,-2,-4,-7,-5,-8,-1,0,0
450357448218,2,1,-2,0,6,-2,2,0
450357463211,-2,4,-4,-8,-7,-3,0,-6
450357463211,-4,-2,-3,-2,-4,-2,-3,-5
450357470698,0,0,-1,-4,4,-2,-3,-5
450357470698,-3,2,0,-2,-1,2,-1,-1
450357486370,-2,-7,-4,-2,5,2,1,5
450357486370,2,-2,2,-4,-2,0,-3,2
450357487158,0,-2,-1,0,-1,-2,7,1
450357487158,2,-2,3,-3,-4,-6,-5,0
450357502216,1,3,0,3,2,-4,1,-3
450357502216,2,-4,2,-4,-7,3,2,-1
450357508344,-3,2,-4,-1,-1,0,-1,1
450357508344,-3,3,-2,-4,-1,-1,-2,1
450357523367,-1,4,2,2,-3,0,-1,-2
450357523367,0,1,1,-4,-3,-3,2,-1
450357530741,-2,-3,1,-1,-2,0,-2,3
450357530741,2,-1,2,3,-6,-2,-5,-1
450357546519,1,-3,0,2,1,3,1,-2
450357546519,-9,-1,-7,-4,0,-4,2,3
450357547236,-2,-3,0,-4,-2,-1,-4,0
450357547236,0,2,-4,-3,3,1,1,-4
450357562346,0,0,0,-2,-2,-2,0,0
450357562346,4,4,-1,-1,0,0,-2,-4
450357568359,0,1,3,-1,1,1,1,1
450357568359,-3,-5,-1,0,-2,1,1,1
450357583248,1,1,2,-3,-5,-3,-5,-2
450357583248,1,2,-1,2,1,0,0,1
450357590808,3,6,-1,-1,2,-1,-1,-1
450357590808,1,2,-3,2,2,2,1,5
450357606488,0,-2,-2,2,2,1,0,-1
450357606488,-1,-2,-2,-4,-1,-2,-1,1
450357607322,0,1,-4,-4,-7,-2,-4,2
450357607322,0,4,-5,-6,-5,-6,-2,1
450357622359,-2,-5,3,1,-3,0,3,3
450357622359,-3,-4,1,-4,-5,-6,0,-1
450357628348,3,0,-3,-2,-1,-2,0,-5
450357628348,-4,-8,-5,0,-1,2,0,-4
450357643303,2,6,-2,-4,2,0,-4,3
450357643303,2,-2,-2,-2,0,-1,-2,0
450357650874,-4,1,-3,-3,-6,-2,0,-6
450357650874,-2,-2,0,-3,-5,-3,5,-5
450357666475,-2,-3,-2,1,-2,-6,-2,3
450357666475,-3,-1,-1,-1,-3,-3,-5,-4
450357667270,1,-5,-6,-4,1,-2,-2,6
450357667270,-1,-1,0,-1,-6,0,-5,-3
450357682338,-3,0,-6,-9,-10,4,-5,-2
450357682338,2,1,-6,-3,-4,-3,-2,-1
450357688365,-2,-4,1,0,-2,0,0,-4
450357688365,-2,-4,-1,-6,-5,-4,-6,-2
450357703234,-1,0,-1,-4,-4,-1,3,0
450357703234,2,1,1,0,0,2,-2,3
450357710771,-4,-1,-2,1,-1,-2,-2,-5
450357710771,-1,3,4,0,2,1,-3,-4
450357726395,-3,2,-6,-7,-1,-3,-3,-7
450357726395,0,-3,-2,-4,-5,-5,-3,-1
450357727168,-4,-5,3,3,-7,-6,-2,-1
450357727168,-3,-10,-6,-1,1,-2,0,-3
450357742215,0,-1,-2,-3,2,-1,-1,-6
450357742215,-6,2,-5,1,5,1,2,-2
450357748188,3,0,-1,-7,1,0,-1,4
450357748188,-3,1,-1,-1,-1,1,3,1
450357763358,-2,-2,1,4,0,1,4,4
450357763358,-3,-8,-3,-1,-6,-2,0,-3
450357770789,0,-3,1,-9,-4,-3,1,-4
450357770789,-4,-3,-3,-2,0,-1,-3,1
450357786502,-2,-3,-1,-1,-1,-2,1,2
450357786502,3,5,-3,-5,-5,0,-7,-1
450357787284,1,3,1,3,-2,2,0,-5
450357787284,1,3,3,-4,-4,-2,-6,-1
450357802314,0,-4,-1,-1,-6,0,-6,-2
450357802314,-1,-6,-2,3,-6,-3,0,-1
450357808282,3,-7,-1,-8,-2,1,6,-2
450357808282,-3,4,3,2,3,2,-1,1
450357823311,-1,3,-4,-3,-7,2,4,-5
450357823311,-4,0,-2,-5,-2,1,-1,-1
450357830849,2,8,-3,-2,0,0,2,-2
450357830849,5,-2,-2,0,0,5,2,1
450357845844,-1,-4,-4,-1,2,-5,-3,-6
450357845844,-2,-2,-2,1,5,-1,1,1
450357853322,0,4,-2,2,-2,-3,-5,1
450357853322,2,-3,1,1,-6,-6,1,-6
450357862944,1,1,1,0,-2,0,0,1
450357862944,0,0,-1,2,5,7,3,3
450357868375,-5,-1,-2,-5,-2,1,-5,2
450357868375,0,5,-5,-1,-4,0,0,2
450357883321,0,-4,-3,-3,-1,-2,0,1
450357883321,0,-2,10,2,-3,-2,-2,-2
450357890829,-1,-6,-2,-2,-1,0,-1,-1
450357890829,3,2,1,2,2,-3,0,-2
450357905720,0,0,1,-3,1,-1,3,-7
450357905720,0,2,-3,-3,4,0,-2,0
450357913251,0,1,0,5,3,5,-2,0
450357913251,2,-2,-1,-1,1,-4,2,-2
450357929004,-5,-3,-1,-7,-1,-1,-4,1
450357929004,3,-3,4,2,7,-1,0,-3
450357929765,-3,0,-1,1,0,-2,-3,-5
450357929765,-3,-1,-1,-2,3,-2,1,-3
450357943331,-1,0,-5,-2,1,-3,-1,0
450357943331,-4,-1,1,-1,-3,-4,-1,-1
450357950859,0,-6,-5,-7,-2,-5,0,-2
450357950859,-4,-1,-2,-5,1,-2,-4,0
450357965798,3,-2,-4,-3,-1,0,-1,-2
450357965798,-1,-4,-3,1,2,-2,2,-5
450357973280,-2,-3,-1,1,3,-2,-5,-2
450357973280,-1,-5,-2,-4,-5,1,0,-1
450357990474,-3,-2,3,3,4,3,-2,-3
450357990474,0,-5,-1,-3,-8,1,-2,1
450357991224,4,3,0,-2,-2,-5,-2,-3
450357991224,2,-3,1,-2,-3,2,3,0
450358003267,-2,-5,4,3,-7,-2,-1,-3
450358003267,0,1,-1,-3,-2,2,4,0
450358010752,-6,0,-3,1,3,-1,2,1
450358010752,-1,-3,-3,-1,-1,-1,-1,-6
450358025698,0,2,-5,-3,-2,-4,0,-1
450358025698,-2,2,-2,0,0,2,-5,-1
450358033274,5,-1,-1,0,-1,-3,2,4
450358033274,-4,-5,-4,-3,1,-6,-6,1
450358048891,-3,-7,-2,-2,-2,-3,-4,0
450358048891,-6,-5,-6,-8,-4,-2,3,-3
450358049671,-3,-6,-2,-3,-3,-2,2,-2
450358049671,-2,0,-3,-7,-9,1,-2,1
450358071369,-2,-1,-1,-6,-1,-2,-5,-7
450358071369,0,1,0,-4,-7,-5,-4,-1
450358072163,-2,-6,0,-1,2,1,0,-1
450358072163,0,-1,0,-3,-2,-2,0,-2
450358085763,2,-2,-4,-3,1,-1,-2,2
450358085763,-4,1,-2,0,0,0,2,-3
450358093211,1,-1,6,-3,-7,-2,-1,-3
450358093211,0,-6,-5,0,3,6,-7,-2
450358108883,-3,-1,-1,4,-2,3,2,-1
450358108883,-1,-1,-4,-5,-2,3,-1,-7
450358109692,-3,-4,-1,-1,-6,0,-4,-2
450358109692,-5,-2,1,-3,0,-4,-1,0
450358131380,0,0,7,-3,-4,-4,1,-1
450358131380,-3,-4,-4,-2,1,-4,-7,-3
450358132170,-4,-2,-1,-2,1,-6,0,-2
450358132170,2,3,0,-4,1,-4,1,-1
450358145870,3,-3,-2,-2,0,-1,-1,4
450358145870,0,-5,-1,1,4,-1,0,1
450358153312,-2,-7,0,-9,-4,2,-4,-4
450358153312,1,-4,3,1,-4,1,1,-1
450358169027,0,-2,1,-4,-1,1,3,-3
450358169027,-1,5,1,-5,-6,-5,-2,-1
450358169759,1,-1,-5,-3,-4,2,-6,2
450358169759,2,1,1,-1,5,0,-2,0
450358183408,2,4,-2,-5,-5,-1,0,2
450358183408,0,-2,2,-2,-6,-1,-1,0
450358190867,1,-1,-1,6,2,1,-3,3
450358190867,3,2,-2,4,3,-3,-3,1
450358205885,1,-3,-4,-4,-4,-1,-2,0
450358205885,10,1,0,0,0,-3,-4,1
450358213335,-2,-1,-2,6,0,2,3,-4
450358213335,-2,1,0,2,-1,3,5,-1
450358229011,0,1,0,0,3,1,-2,1
450358229011,-3,-2,3,3,4,0,2,-2
450358229711,1,1,-6,-7,-5,-6,-4,1
450358229711,-2,-4,-2,-8,-8,0,-4,3
450358243349,-1,-2,6,2,1,-2,0,1
450358243349,1,-1,-6,-7,-6,-7,-4,-2
450358250806,2,4,7,-2,0,-1,5,-3
450358250806,-3,0,0,3,3,1,3,1
450358267295,0,1,3,-5,-8,-5,1,0
450358267295,0,0,-2,5,1,3,3,1
450358273293,-6,-3,0,1,5,3,0,2
450358273293,0,-1,1,0,0,-3,-2,-5
450358288947,-4,-2,-1,-6,-3,-4,-6,-2
450358288947,-3,-6,0,3,2,-1,2,-2
450358289709,3,5,-2,-5,-3,-2,1,-2
450358289709,1,2,1,5,0,5,0,2
450358303273,-1,-2,2,5,3,3,0,-5
450358303273,-3,-1,-1,-3,-1,0,4,-4
450358318945,5,0,1,1,-5,-3,-4,-2
450358318945,-2,-2,2,-2,-4,-7,-6,-6
450358325777,0,-2,3,-1,0,2,-1,2
450358325777,4,-3,-2,-2,-4,-3,-7,1
450358333261,-1,-1,0,0,0,0,-2,-1
450358333261,-3,1,-4,-3,-4,-1,1,3
450358348898,-4,-2,-7,3,-1,3,-2,1
450358348898,-2,4,1,1,-1,0,-1,-1
450358349683,-1,-2,0,-5,-3,-4,-2,0
450358349683,-1,0,-3,-3,-3,0,2,-2
450358363261,0,1,0,-2,-3,-4,1,-2
450358363261,-4,-2,-1,1,3,0,1,-6
450358370746,-1,-3,-4,-3,2,1,2,-1
450358370746,-2,-4,0,-3,-9,1,-2,-3
450358385752,2,-4,-4,-1,-5,-3,0,1
450358385752,1,1,2,-3,4,-1,-3,-2
450358393241,-3,0,-2,-3,-4,-4,2,-3
450358393241,1,0,-4,1,-1,-4,-9,-4
450358408886,-1,-3,-3,1,-4,3,2,-6
450358408886,-3,-5,-1,-5,-6,0,0,0
450358409663,-2,-3,1,3,3,-2,1,2
450358409663,0,-1,-4,-1,5,1,1,3
450358423330,-3,1,-2,1,2,0,1,-1
450358423330,-1,1,-2,-3,-3,0,-1,-3
450358430907,-4,2,-5,3,-1,2,2,-5
450358430907,2,-2,-2,-2,-4,-3,-1,-6
450358445874,-6,1,-3,-5,-4,-3,-3,2
450358445874,0,-2,-4,1,0,0,-2,4
450358453331,0,-1,-1,-10,-2,-6,-6,0
450358453331,-3,2,-2,-5,2,-2,-3,-2
450358469026,3,0,-5,2,1,-4,-2,-4
450358469026,-5,-4,1,-7,-6,-1,3,4
450358469768,-2,-2,-3,1,2,0,-1,-2
450358469768,-5,-1,-1,-3,-2,-5,-3,0
450358483370,4,0,0,-4,3,-3,-7,-3
450358483370,6,1,1,4,-4,-1,3,5
450358490856,1,-1,-4,0,2,2,-5,-3
450358490856,1,-4,-1,-5,3,-3,-1,0
450358505787,1,4,0,-1,-1,-2,2,0
450358505787,-5,-3,-1,1,5,1,-1,2
450358513381,1,-1,-3,-4,-2,-2,-3,1
450358513381,-3,-1,1,-3,-6,-6,-2,0
450358528969,-1,-3,-7,-1,3,-3,-1,2
450358528969,0,3,-3,-8,-9,-3,-3,1
450358529752,-1,4,-1,2,3,-5,2,4
450358529752,1,-4,-3,-4,-4,-2,1,-3
450358543310,2,-3,-1,-2,1,-1,-3,-1
450358543310,3,2,0,-4,0,-2,1,-4
450358550812,2,-4,-2,1,1,2,-2,4
450358550812,3,2,-1,1,0,1,2,4
450358565865,-3,0,-3,-1,-1,1,-1,2
450358565865,-3,-2,-2,-2,4,1,-1,2
450358573312,0,-1,-2,-2,-7,-2,-3,-1
450358573312,-2,0,-2,1,2,-1,3,-1
450358588989,0,2,0,1,-1,-5,-1,-4
450358588989,-2,-3,-2,-3,-1,-2,-4,-6
450358589757,-1,0,2,-1,-1,1,1,-2
450358589757,0,2,0,-1,-5,2,-2,-2
450358603290,-4,-4,-4,-5,-4,-1,0,0
450358603290,-1,-3,-2,-1,1,-4,1,0
450358610873,-3,-4,-4,0,0,-2,3,2
450358610873,2,-4,0,0,0,-3,-1,0
450358625782,-4,0,-3,-10,-4,0,0,-5
450358625782,3,2,-2,2,2,-4,-5,-4
450358633366,-1,1,-6,-1,-3,2,0,1
450358633366,-1,-1,-4,-1,2,2,-1,2
450358648936,1,1,-1,5,-1,0,5,3
450358648936,-3,-1,3,5,0,0,1,0
450358649725,2,0,2,-2,0,-2,1,-6
450358649725,-3,1,0,1,0,2,1,0
450358663260,2,-2,2,1,2,-2,-8,0
450358663260,3,4,-2,2,-2,2,0,-1
450358670770,-2,-2,5,1,3,-1,4,2
450358670770,-4,0,-1,1,3,1,0,0
450358685772,1,-5,3,-2,-2,-3,-3,-3
450358685772,-1,-4,-7,-3,-2,-3,-1,1
450358693261,1,-1,1,-1,-2,0,-2,3
450358693261,1,2,-5,-2,-2,-8,-2,-2
450358708974,-1,-2,4,-1,2,0,0,4
450358708974,5,1,-3,-2,-2,-2,-2,-2
450358709761,-2,0,0,-1,-3,-1,-6,-5
450358709761,1,-1,-2,-1,1,1,0,1
450358723408,-4,1,-4,0,3,0,-3,-1
450358723408,-7,-1,-1,0,-6,-1,3,0
450358730848,-4,-4,-1,-6,1,0,-2,-3
450358730848,0,0,2,0,2,4,-2,0
450358745849,-6,-3,-4,-1,0,-1,0,-2
450358745849,3,-1,1,-1,-2,-2,-5,2
450358753344,1,3,0,0,0,-1,-2,0
450358753344,2,1,-4,0,-2,-3,6,-5
450358768355,-1,-2,-2,-3,1,-1,1,-4
450358768355,1,1,0,0,0,3,-2,-1
450358776532,-5,0,-3,-1,-7,-6,-1,-3
450358776532,-4,-1,-3,-6,4,3,-1,1
450358783335,-3,-1,1,2,0,0,3,-1
450358783335,0,-3,-5,0,0,4,4,-1
450358790842,4,-1,0,-2,2,0,-2,-3
450358790842,1,0,3,2,-1,-4,-1,0
450358805834,1,4,0,3,-2,-2,2,5
450358805834,-3,-7,-6,-1,0,-3,-3,-4
450358813377,0,1,1,0,-3,-3,0,-2
450358813377,2,-2,3,-2,-3,-4,1,-3
450358828336,3,3,1,-2,-6,-3,-1,0
450358828336,-4,3,4,-3,-5,-2,-4,-2
450358836504,-1,-2,0,-5,-7,-2,1,0
450358836504,-1,-5,1,-4,-4,-4,-6,1
450358851513,-2,-2,-3,-8,-8,-6,-4,-6
450358851513,1,0,1,2,-3,-3,-1,-1
450358852325,-1,-4,-6,-1,-1,1,-4,0
450358852325,-1,-5,-1,-4,-4,1,-3,1
450358865884,0,-2,-4,-1,1,1,0,1
450358865884,-2,4,0,1,-5,0,1,1
450358873406,0,0,1,-1,1,1,0,-1
450358873406,-1,2,-4,-3,-3,-1,-3,-3
450358888291,1,1,0,3,2,3,4,-1
450358888291,-3,0,0,0,-1,-2,-5,1
450358896474,0,-4,-3,-2,0,-3,1,-1
450358896474,-3,-5,-4,-2,-2,-2,6,-3
450358911436,-2,0,-1,-4,3,-3,0,0
450358911436,-3,0,-3,1,2,-1,0,0
450358912239,4,-1,-5,-2,0,2,-3,0
450358912239,-2,-2,-3,0,-2,-2,-2,-2
450358925716,-6,-4,-4,-4,-4,1,-9,-1
450358925716,2,-1,-6,-4,1,-5,0,-4
450358933217,-4,-2,-4,-4,-2,-1,6,0
450358933217,-3,3,4,0,1,-2,-2,2
450358948222,0,1,2,3,7,-4,-2,-2
450358948222,-5,-6,-2,-4,-2,3,-2,0
450358956481,-3,0,5,6,3,-1,1,2
450358956481,-2,-5,3,1,2,0,1,-1
450358971410,0,-2,-1,-1,-4,-2,3,1
450358971410,-1,-4,-1,-6,1,-3,4,0
450358972189,3,1,-3,-1,2,-2,2,-2
450358972189,-3,0,-3,-8,-4,-2,-6,-1
450358985798,-6,-3,-1,-5,-4,-1,-2,-3
450358985798,1,2,1,-1,-1,1,-4,-3
450358993337,-4,-3,-3,2,-3,1,-1,-2
450358993337,-3,1,-2,-5,-6,-3,-1,-5
450359008339,-2,-1,1,-5,-1,-2,2,-3
450359008339,0,-2,-3,-2,-3,0,-1,-1
450359016540,1,1,1,-4,-6,-6,-2,1
450359016540,1,-3,-2,1,4,2,2,4
450359031489,1,-2,-3,1,1,5,-1,-1
450359031489,-3,-5,-2,-2,0,-6,0,-4
450359032281,1,-3,-2,5,-1,3,-3,1
450359032281,-1,-2,-3,-2,-2,1,-2,-3
450359045874,0,-1,1,-6,-4,0,1,-5
450359045874,4,1,-3,2,2,0,1,1
450359053318,-2,-5,-5,-7,-5,-2,-1,1
450359053318,1,0,2,0,-1,-4,-4,-1
450359077270,2,-3,-4,0,-1,-4,4,2
450359077270,0,-3,4,0,1,-4,1,-3
450359077981,-1,-1,2,-2,-3,-3,-1,-3
450359077981,-1,-3,-3,-1,-2,-1,3,7
450359099684,1,-2,-1,-2,-3,-1,0,-1
450359099684,-2,-3,1,-4,1,-1,-6,-1
450359100467,-2,-1,2,-3,2,1,-2,-2
450359100467,2,-3,-4,-2,0,-1,-1,-5
450359105757,1,0,-1,4,0,4,-5,3
450359105757,-4,0,-1,-4,-5,-8,-4,-2
450359113395,1,2,0,1,-1,-1,-2,-3
450359113395,0,-1,0,2,-3,0,-4,1
450359129883,-5,1,-3,-10,-6,-3,3,-1
450359129883,-1,3,0,1,1,2,3,3
450359136540,-4,-5,1,-3,-5,1,-2,-1
450359136540,2,-1,4,-2,-3,-3,2,2
450359151510,2,-4,-2,-3,-5,1,-4,-3
450359151510,-3,-4,-4,-1,-5,1,0,-2
450359152251,0,-1,-4,-6,-2,-1,-4,-1
450359152251,0,4,-4,-2,-1,0,-3,-6
450359165832,1,0,0,0,-3,1,-8,0
450359165832,6,-6,3,-3,-3,1,-4,-5
450359173327,1,5,6,0,-4,0,-2,-2
450359173327,3,-5,-3,-2,1,-6,0,-2
450359188278,-1,-2,-3,0,-1,-3,-3,1
450359188278,-1,0,3,7,4,-2,6,2
450359196435,0,0,-2,-3,-3,-7,-1,1
450359196435,-4,3,0,-5,-4,-2,2,-3
450359211426,0,-1,-1,-4,0,0,-1,-2
450359211426,3,0,-4,-7,-3,1,-6,2
450359212249,-2,-5,-6,-3,-6,-3,0,-4
450359212249,-3,-8,-2,2,0,1,5,1
450359225929,-4,-6,-2,-2,4,-1,3,3
450359225929,-3,-3,0,1,0,-2,-4,2
450359233377,-2,-2,-6,-3,-2,-3,3,-1
450359233377,0,-5,0,-2,1,0,-1,2
450359248298,-2,-1,-2,-1,-4,5,3,1
450359248298,-2,-3,-3,0,-2,-1,0,-5
450359256538,0,0,2,2,2,-4,0,3
450359256538,-2,2,-3,-1,-2,-1,2,0
450359271454,-1,-2,1,-4,-3,-6,-1,5
450359271454,-1,2,-8,-3,-5,-1,-4,1
450359272241,3,5,0,-3,-3,3,-3,-1
450359272241,-4,-4,-3,-4,-1,5,-1,-3
450359285818,1,0,6,1,0,-2,0,-1
450359285818,1,-3,0,-2,-1,-4,3,-1
450359293351,-5,-1,-3,-3,-4,-1,-5,-2
450359293351,4,-1,-3,-4,1,0,-2,4
450359308328,3,-1,-4,-6,-6,-4,1,3
450359308328,-3,-3,-1,-2,-1,1,2,-4
450359316538,-1,-4,3,-4,1,3,1,-5
450359316538,0,0,-4,-2,0,0,-1,1
450359331545,-1,-2,-6,0,0,-2,3,-7
450359331545,-4,0,3,-9,-2,-4,-4,1
450359332232,-2,1,-2,4,8,1,2,6
450359332232,-2,-2,1,-1,-5,-3,-2,-4
450359345846,-2,1,-6,-1,1,-3,-4,-3
450359345846,-3,1,0,2,4,3,2,-3
450359353381,2,1,-1,2,1,-2,-4,-4
450359353381,-2,-2,2,0,3,-3,-2,-1
450359368319,-2,2,2,7,1,1,-6,-1
450359368319,0,2,4,-1,-3,0,-1,1
450359376466,-4,1,-3,0,-1,0,4,2
450359376466,1,0,0,2,-1,-3,-4,-2
450359391516,-1,-5,-1,-6,-5,-2,-1,-4
450359391516,1,-1,-5,-7,-6,-1,1,-4
450359392346,3,-2,-2,-2,-1,1,5,0
450359392346,-3,-2,-2,-1,-6,2,-3,1
450359405857,4,5,0,3,1,2,2,1
450359405857,2,1,-1,-4,-5,-1,-2,2
450359413371,-2,-4,-4,-5,-3,0,-4,-3
450359413371,-2,-2,-2,-5,-2,-2,1,-3
450359428360,2,2,0,-2,-2,-3,-1,1
450359428360,-1,0,-3,-1,1,-2,-1,-5
450359436544,-2,1,1,-2,1,3,0,-3
450359436544,-6,3,-1,0,1,-1,-8,-1
450359451509,1,-2,-1,3,3,-1,-3,2
450359451509,2,1,-1,1,-1,-1,-2,3
450359452303,-2,3,-1,4,-2,-5,0,1
450359452303,2,2,4,2,-2,1,1,-5
450359465894,3,-1,0,0,-1,-3,-2,-6
450359465894,-4,-1,-6,1,-1,5,2,2
450359473398,1,1,-2,2,5,2,-2,1
450359473398,4,-2,-2,2,2,-2,3,2
450359488312,-5,0,0,-5,-6,-2,0,-1
450359488312,0,4,-1,1,6,-4,-2,-2
450359496575,-1,-2,-3,-1,-7,2,-5,-1
450359496575,-1,-2,-1,-4,-4,-2,-6,-4
450359511537,-1,0,4,0,1,-4,2,1
450359511537,-1,-7,-4,3,-2,5,-2,-1
450359512329,-2,-2,1,-5,-4,-6,0,-3
450359512329,-1,3,-2,-1,0,-3,-2,0
450359525806,0,0,-3,-1,3,3,-4,-7
450359525806,-5,1,2,-7,-6,-3,-3,-1
450359533337,-2,1,0,2,0,-1,1,-2
450359533337,3,2,1,2,3,0,2,-2
450359548407,-2,1,-2,-5,-6,-2,0,-4
450359548407,0,-5,1,2,-1,-4,-2,2
450359556564,-1,-3,3,-1,-3,-3,0,4
450359556564,-6,-2,0,-5,-3,1,4,3
450359571464,-5,-5,-1,-2,2,0,-2,-2
450359571464,-2,-5,1,-1,-1,-2,-3,-7
450359572207,-2,-3,0,-2,-9,-4,-5,0
450359572207,-2,-8,-3,-2,-1,-3,-1,-1
450359585768,0,-4,0,-7,-7,-3,-1,-2
450359585768,1,2,-2,-5,-2,3,-3,-5
450359593237,0,-4,-1,1,1,3,0,-1
450359593237,-1,4,-5,-1,-5,2,1,-2
450359608270,-2,2,0,1,-2,-4,-3,1
450359608270,0,-1,-4,0,1,-7,0,0
450359616511,1,-2,-2,-5,-2,-5,-5,-6
450359616511,0,-4,1,-3,-1,-4,-5,-3
450359631423,-1,-3,-1,-2,1,-2,2,-1
450359631423,-1,4,1,3,-1,-3,0,1
450359632217,0,-3,0,5,1,-3,-2,-3
450359632217,1,0,-2,-2,-3,4,0,3
450359645762,0,-4,-2,3,1,2,-5,1
450359645762,0,2,-1,0,-2,-1,-3,1
450359653305,-1,-4,0,-4,-4,2,0,2
450359653305,0,-1,4,-2,-1,-3,0,-1
450359668408,0,0,-2,4,-6,3,-2,-1
450359668408,-1,4,-1,3,2,3,7,1
450359676514,0,1,1,-1,0,2,-3,2
450359676514,-1,-2,-2,1,-1,1,-1,-3
450359691529,4,-6,3,3,3,2,-1,0
450359691529,1,-2,-1,-2,-2,-6,-1,-3
450359692311,-1,0,-2,-3,-3,-6,0,1
450359692311,-1,2,1,-2,2,-2,1,-1
450359707360,-5,0,2,-5,3,-2,-1,1
450359707360,-7,-8,-4,0,0,2,5,0
450359713344,-1,-6,-3,0,2,2,-1,-4
450359713344,-4,-3,-4,-4,-3,2,2,5
450359728362,-6,-4,-1,4,0,-2,-1,-2
450359728362,-3,-4,-3,-3,-1,4,-2,3
450359744051,0,4,-1,1,-1,1,0,-6
450359744051,2,2,-6,0,0,1,1,1
450359750907,3,4,-3,6,4,1,4,-1
450359750907,0,0,-1,-4,3,-1,-4,3
450359759058,-1,-3,-5,-2,-2,1,1,-1
450359759058,-2,-4,3,0,-1,-2,-1,0
450359765836,-3,-4,-6,-3,-6,2,2,0
450359765836,0,4,3,0,4,2,-3,-4
450359773359,-2,1,0,5,0,2,1,4
450359773359,-3,4,1,4,2,-2,2,-2
450359788359,-4,-1,-1,-3,-2,3,-2,4
450359788359,-1,1,-1,1,4,-2,1,-1
450359796486,-3,0,0,-2,1,-4,-5,1
450359796486,-3,-7,-5,-3,-2,-1,0,0
450359810855,2,3,3,-2,-6,1,1,-1
450359810855,-3,0,-1,-2,-6,-1,-2,-6
450359819057,-3,-5,-4,-3,-2,2,1,-1
450359819057,3,-2,3,0,-2,-1,-1,-5
450359834039,-2,4,-1,-6,1,-4,-4,-2
450359834039,-2,-2,3,-8,-4,-3,-3,1
450359834803,-1,-2,-1,-2,-1,-4,-1,-1
450359834803,-6,-6,0,-3,0,-1,-4,0
450359848360,-2,1,-6,-1,-2,-1,-2,1
450359848360,2,2,3,3,-3,-3,0,-1
450359856560,-1,-3,-4,-1,2,4,-7,2
450359856560,1,1,-1,-6,-2,-1,2,-3
450359870897,2,0,-1,-4,-2,-2,-2,1
450359870897,-1,-1,-1,0,0,-1,0,-5
450359879110,-2,-3,0,-2,2,0,-5,2
450359879110,2,3,-2,2,1,0,-3,-6
450359894003,0,0,-4,0,-2,0,1,-4
450359894003,1,-5,-2,-4,-8,3,1,0
450359894765,-3,3,4,-7,-2,-4,-3,-3
450359894765,0,0,-4,-4,-2,-1,-4,-1
450359908333,-1,0,-2,-3,2,-4,-1,-4
450359908333,1,-3,-6,1,-1,-1,-1,-2
450359916592,7,0,0,0,-2,-1,4,-5
450359916592,0,-2,-1,-3,-4,0,-5,-3
450359930805,0,-3,3,0,0,-1,-1,-1
450359930805,-1,-2,-5,-5,-1,-8,-4,-2
450359939058,-2,-6,-3,-4,-3,0,-1,-1
450359939058,1,1,-3,0,-1,-5,0,-1
450359954020,-2,-7,-6,-2,1,-5,-2,1
450359954020,-2,-7,-2,2,-2,1,-2,-3
450359954803,0,1,-2,-2,0,-3,0,-2
450359954803,-7,-8,-4,-6,-8,-2,-4,-3
450359968384,-3,-5,1,-2,-7,-1,2,0
450359968384,-3,0,-2,-3,-3,-1,0,1
450359976525,0,2,2,1,-2,-6,-1,-4
450359976525,1,1,0,5,2,0,1,-2
450359990814,-4,-1,-3,-4,0,-5,-4,-2
450359990814,3,-2,1,-2,0,2,-3,0
450359998993,-1,-2,-2,4,0,0,-4,-3
450359998993,0,-2,2,-1,-4,-2,1,-2
450360013924,-2,-1,2,-8,-2,1,-2,-2
450360013924,2,3,0,5,1,6,3,2
450360014694,0,0,-2,1,-2,2,1,3
450360014694,-4,-2,1,4,3,3,-2,-3
450360028243,7,-2,-1,-2,-2,0,-3,-2
450360028243,-3,-1,0,-5,1,-3,-2,7
450360036479,0,0,0,2,-1,-6,3,-6
450360036479,1,2,0,-4,-2,0,-1,2
450360050900,-1,-5,0,4,-3,1,0,-3
450360050900,-3,2,-2,0,-1,-1,-1,-1
450360059090,-2,-2,-3,-2,-1,-4,-5,-2
450360059090,-2,-2,-5,-2,0,-3,-1,-1
450360074075,5,2,-2,2,2,-4,0,0
450360074075,0,-1,0,-2,-3,-3,2,0
450360074828,1,-2,-2,-4,-3,2,-5,-4
450360074828,-1,3,2,-1,-5,-6,-5,-4
450360088334,-3,4,1,0,-4,0,-3,-3
450360088334,-5,-2,-4,-1,-3,-1,-2,-3
450360096524,2,-1,4,-2,-2,-2,2,0
450360096524,4,1,-2,-1,2,-1,4,-1
450360110846,-4,-5,-1,-5,-1,2,-3,-2
450360110846,1,3,3,-4,-3,-3,0,-1
450360119068,1,1,0,2,-3,1,0,5
450360119068,2,5,4,6,-2,8,-2,0
450360134000,-3,0,-5,-4,-3,-6,1,-3
450360134000,-4,-4,-3,-4,-3,-1,-5,-1
450360134782,0,-2,-2,0,0,0,-2,2
450360134782,-2,-4,2,-3,-3,-2,3,4
450360148441,-2,-1,-1,-1,0,0,1,-1
450360148441,2,-7,-1,-1,4,2,-4,1
450360156567,-1,3,-3,-2,4,-3,-1,-4
450360156567,-1,-4,-1,-1,-1,0,1,2
450360170841,-1,-1,1,-6,-8,-4,-4,0
450360170841,-1,-1,0,-2,3,-4,1,-1
450360179112,1,2,-2,-2,1,-2,2,0
450360179112,-1,1,-5,-6,-5,-5,-5,1
450360194081,1,-2,2,-1,-1,1,1,1
450360194081,0,0,5,3,-3,-1,2,-1
450360194793,-2,-3,-3,-4,-1,-3,1,-2
450360194793,-2,1,-5,3,1,3,-2,-1
450360208326,-5,-4,-2,-3,2,1,-4,2
450360208326,-1,-1,-3,-5,-3,-2,-5,-3
450360216534,-2,-3,5,-3,-4,-2,-1,-1
450360216534,-3,-8,-6,-7,0,-1,-1,1
450360230915,2,-6,-9,1,1,-1,-1,-2
450360230915,-3,0,1,-5,-2,-5,-6,-6
450360238979,-4,7,1,0,0,5,-1,-5
450360238979,-1,1,4,-7,-1,-1,-6,-4
450360262281,1,8,2,1,3,3,-2,0
450360262281,5,10,0,2,-2,0,0,0
450360262998,-4,-2,-1,-3,-3,0,5,7
450360262998,0,-1,-5,-6,-5,-3,0,0
450360268316,-4,-7,-3,-8,-5,-5,-3,0
450360268316,-3,-16,-8,-6,-3,-11,-2,-4
450360276526,-2,-10,-5,-3,-3,-7,-3,-4
450360276526,2,-3,-2,-2,2,1,-1,-1
450360290793,-3,-4,-1,-2,-2,3,4,3
450360290793,-3,1,-3,0,-2,3,3,-1
450360299012,-1,-2,0,-6,-4,-1,-6,-3
450360299012,4,3,6,4,-2,-2,-2,-1
450360313905,-2,4,4,4,-3,0,2,1
450360313905,-1,-1,3,1,-9,-1,-2,1
450360314717,1,-5,0,-1,-2,-1,1,1
450360314717,0,-6,-2,3,-4,-5,-1,-3
450360328253,2,-6,0,1,-1,1,1,-2
450360328253,-3,-7,-5,-3,3,1,-1,-1
450360336484,-1,-2,-3,-1,2,-5,0,0
450360336484,-2,-4,-4,-6,5,1,-1,0
450360350786,1,-1,-4,1,-2,-2,-3,-5
450360350786,-2,6,-4,0,-1,3,-3,-2
450360358987,0,-1,2,2,-5,2,0,-3
450360358987,-2,-2,4,-2,-6,2,-5,-1
450360373956,-1,-4,-1,2,1,-3,0,1
450360373956,2,-3,-1,-2,-2,2,3,0
450360374771,0,1,-4,0,2,1,-1,1
450360374771,-2,4,1,-1,1,-2,1,-7
450360388299,0,1,-5,-5,5,3,2,3
450360388299,3,-1,-2,0,-1,-1,-1,0
450360396524,0,-3,-6,-3,-6,-3,3,0
450360396524,2,-5,-2,-3,-7,-5,1,0
450360410820,3,-8,-1,-2,-4,-6,-4,-3
450360410820,1,-4,-1,-4,-4,-7,-2,-1
450360418964,1,-1,0,4,1,0,3,-3
450360418964,-4,1,2,-1,-1,-3,-2,0
450360434059,-1,12,2,-3,-4,5,-1,0
450360434059,6,6,5,1,0,3,1,-2
450360434866,-2,-2,1,-2,-6,3,-4,3
450360434866,-3,-8,-4,3,12,-3,-1,4
450360448392,-1,-8,-2,-6,1,-9,-1,-3
450360448392,0,-3,-2,-4,1,-5,2,-3
450360456536,-5,-5,-1,-4,-1,-5,0,0
450360456536,0,-5,-5,0,3,-2,-6,-2
450360470918,0,-2,-7,2,-2,-1,0,-1
450360470918,-7,0,1,-1,-4,0,-5,2
450360479115,3,4,0,-2,0,0,0,0
450360479115,6,3,4,-1,-3,-2,0,0
450360494033,-5,0,6,-1,-8,-5,-2,-2
450360494033,2,-4,1,-3,-3,0,-2,-1
450360494788,-1,1,1,0,-1,-5,-3,-3
450360494788,-3,0,4,-6,-2,4,-4,0
450360508381,-7,0,0,-7,-5,2,-9,-5
450360508381,-1,-3,-1,-10,3,-2,-1,-2
450360516531,0,-2,-2,2,2,3,-2,-1
450360516531,-1,-7,-6,-4,-1,1,-2,1
450360530889,-1,-4,-4,-4,0,-4,-5,1
450360530889,-2,1,0,6,-1,1,0,-3
450360539812,-1,-3,-4,-4,0,0,-6,-6
450360539812,-9,-4,0,-5,-4,-4,-1,-4
450360553368,4,0,4,-1,4,4,-1,-2
450360553368,-2,3,2,0,-3,-2,-1,0
450360562423,-3,3,4,3,-4,0,-3,1
450360562423,2,0,0,4,-5,-2,5,-1
450360568381,1,-1,-1,0,-1,-2,1,0
450360568381,2,-5,-1,1,1,-2,-1,2
450360577315,4,-6,-4,-4,1,-1,-1,0
450360577315,-2,-1,-1,-6,-6,-5,0,-1
450360590887,-2,-5,2,4,1,2,0,1
450360590887,-4,-6,-5,-2,1,-2,0,0
450360599892,-2,-9,-4,-6,-5,1,1,1
450360599892,2,0,-4,1,1,2,0,-1
450360613327,-3,2,4,-4,1,-3,3,0
450360613327,-2,3,-1,-4,-1,-3,4,-3
450360622316,-3,3,2,-5,-3,0,5,1
450360622316,1,3,-3,1,4,3,2,-1
450360628273,0,1,-3,-2,-4,6,-5,2
450360628273,-1,-1,1,4,-1,5,1,0
450360637264,1,7,6,3,4,-1,5,-8
450360637264,0,3,2,1,-3,-4,-2,3
450360650773,1,-3,-2,-1,0,-2,-1,-2
450360650773,0,-3,1,-4,-3,-5,0,-2
450360659816,-3,0,-2,-4,-11,-2,-4,-2
450360659816,-4,-3,-1,-2,0,3,-3,4
450360673282,1,-1,-8,0,4,0,0,-2
450360673282,-3,-4,-4,-3,-7,-5,-8,1
450360682334,0,-1,1,4,1,-5,2,-1
450360682334,-3,-7,-2,-2,-2,-2,2,-5
450360688289,-1,1,-3,1,-5,-3,4,4
450360688289,-2,0,-1,-4,-4,5,-3,-1
450360703315,2,-4,-1,-3,-1,1,-1,-2
450360703315,-1,0,1,-1,1,-4,-2,0
450360710805,-3,1,-4,-5,-4,-2,-1,-5
450360710805,-1,12,0,-1,-4,-4,-3,1
450360719793,4,6,0,-5,-9,0,-5,-1
450360719793,0,-2,2,-3,-8,-6,0,1
450360733300,-4,-11,-2,-1,-1,-6,-7,1
450360733300,1,-6,1,1,-6,-6,1,1
450360742332,-2,2,-1,0,5,2,-4,1
450360742332,-1,7,0,3,2,2,2,-1
450360757174,2,12,-3,2,3,5,-1,-2
450360757174,-3,-9,-4,0,3,6,0,-5
450360758788,-4,-11,-10,-3,-10,-8,-3,-1
450360758788,-1,-3,-3,-4,2,-7,-4,-3
450360770865,3,-27,4,3,-11,-2,0,-3
450360770865,-4,20,9,-10,15,-1,4,0
450360779826,1,11,4,-3,5,12,1,2
450360779826,-1,8,-4,-1,-14,2,-4,-4
450360793264,0,7,-12,5,-8,-3,-5,2
450360793264,-2,-35,-5,-2,-12,-14,-2,-2
450360802281,7,2,9,5,0,-4,3,6
450360802281,-5,-16,6,-3,-2,6,2,-3
450360817176,-6,0,-10,-8,6,1,-2,-3
450360817176,-4,-5,-6,7,5,-1,0,-4
450360818765,-3,1,0,-10,14,5,-4,-1
450360818765,-2,12,-5,-8,-12,5,-3,-3
450360830874,-3,21,6,-1,-7,9,-3,-2
450360830874,6,7,4,-10,-5,3,-4,5
450360839869,2,-10,2,-4,-6,-13,0,-1
450360839869,-3,-24,-2,1,0,-15,-4,-3
450360853412,-1,-9,1,2,-8,-8,-1,-3
450360853412,7,10,0,-2,7,9,0,-1
450360862368,-2,7,0,-4,-3,3,-5,1
450360862368,2,11,-8,-6,7,11,0,2
450360877270,-5,1,-6,-6,3,8,2,-3
450360877270,-1,9,-9,3,2,1,-5,-2
450360878827,1,4,1,-5,0,-2,-3,-3
450360878827,8,3,10,3,2,-4,-1,7
450360890858,3,-18,3,2,-13,-4,5,0
450360890858,2,-11,-1,5,-10,-8,-2,1
450360899936,-6,-5,-6,1,1,-8,-6,1
450360899936,-5,2,-1,-4,-1,-1,-3,-2
450360913395,-2,14,1,-3,13,2,-3,-2
450360913395,-4,2,-2,-3,-3,10,-2,-7
450360922347,-3,-5,-7,-1,-8,-4,-2,-5
450360922347,3,-4,-4,-2,-6,-4,-2,-5
450360937209,-3,-15,4,-1,0,-6,-1,1
450360937209,5,-3,1,3,-4,-3,6,2
450360938771,-3,-6,-1,1,-1,-2,0,0
450360938771,-1,3,-7,-4,-2,-5,1,-2
450360950921,-1,5,-2,1,0,1,1,4
450360950921,-2,8,-3,0,1,3,3,1
450360959843,-3,2,1,3,2,7,-3,2
450360959843,-2,-2,0,-3,3,-5,0,-2
450360973420,-3,-2,2,-3,9,-6,2,-3
450360973420,-1,-7,-1,-3,1,-4,-2,1
450360982353,-1,-10,-1,4,-6,-3,3,1
450360982353,0,6,3,0,-3,0,-1,2
450360997182,1,8,-8,0,0,-1,-2,-2
450360997182,-6,-6,0,-2,-4,1,-7,-4
450360998787,0,-2,0,0,-4,2,1,-1
450360998787,0,-2,6,3,3,-1,5,3
450361010815,-5,0,4,-6,-6,-7,-2,-4
450361010815,-3,3,-5,-4,1,-4,-3,-1
450361019826,-2,-10,-12,-2,-1,-5,-4,-4
450361019826,-2,-30,-20,2,-5,-6,-3,-2
450361033290,1,-3,14,-7,9,5,2,2
450361033290,4,31,7,-7,-1,13,-2,8
450361042332,-11,36,0,2,4,17,-3,-7
450361042332,-2,20,-9,1,-5,9,-7,-5
450361057168,0,-19,-6,-2,-16,-24,0,-1
450361057168,0,-34,6,1,-4,-26,2,4
450361058771,5,-25,-1,1,-5,-9,2,-2
450361058771,-7,-3,-2,3,-3,6,-4,-5
450361070853,1,-14,-16,-5,7,-5,-6,4
450361070853,-5,-11,-10,-4,9,-7,2,-6
450361079801,-2,-3,-9,-3,-1,1,0,0
450361079801,-4,19,-1,2,1,17,1,-4
450361093314,-1,20,12,-1,-3,15,0,0
450361093314,2,3,4,-8,-3,-8,-1,0
450361102303,-1,-23,5,-2,-5,-19,3,-2
450361102303,-7,-21,3,-2,-6,-8,-9,2
450361117148,-2,14,10,4,-7,1,-4,-1
450361117148,2,41,9,-3,-7,14,-1,3
450361118743,6,24,4,-7,-5,10,3,0
450361118743,1,0,-3,-3,1,3,2,4
450361130848,-2,-11,-16,2,3,4,-2,-3
450361130848,-3,-7,-10,-1,7,-6,-5,-9
450361139822,-3,-1,2,-4,8,-6,1,1
450361139822,3,4,1,-6,4,-10,4,0
450361153323,-1,-17,-4,1,-7,-4,0,-4
450361153323,-8,-21,-10,-2,-6,-1,-3,-2
450361162357,-4,-2,0,-10,0,-8,-4,4
450361162357,-1,5,4,6,10,7,2,-3
450361177189,-4,7,0,3,1,8,0,1
450361177189,1,-4,-2,-1,-8,-1,1,-2
450361178815,5,-5,1,-2,-9,-6,-1,-1
450361178815,-3,-17,1,-1,-1,-15,2,9
450361190820,3,-10,-6,-8,-6,-3,-1,0
450361190820,-2,-8,-8,1,1,-6,0,-1
450361199832,-2,-5,-4,-1,12,2,-2,-3
450361199832,5,2,-3,-2,3,0,2,-1
450361213389,3,18,-6,1,-3,-1,-1,-3
450361213389,-4,4,-3,0,-12,1,-4,-3
450361222328,-4,-3,1,2,-9,0,-1,-5
450361222328,-1,-4,5,2,9,-9,-2,-6
450361244725,-5,-17,3,-6,10,-5,-1,0
450361244725,-4,-22,-3,-3,1,-3,-8,-3
450361246279,-4,-1,-1,0,-3,1,-4,0
450361246279,-3,3,0,-7,-9,-1,1,-1
450361250838,1,19,5,-3,-5,-1,0,4
450361250838,-1,15,2,0,-6,8,-5,-2
450361259868,0,-5,-6,2,3,4,-1,-2
450361259868,5,0,4,-3,-1,1,-6,-1
450361273336,-5,-1,4,-4,3,-10,2,-2
450361273336,0,5,1,-3,-6,0,4,-4
450361282350,-3,13,-3,1,0,5,-1,-1
450361282350,-2,13,0,-3,0,5,0,-3
450361297204,1,-1,-1,1,3,-1,-2,-1
450361297204,-1,2,-2,-4,11,3,0,0
450361298797,-1,-2,-4,-1,2,5,4,1
450361298797,-2,3,-2,-6,-8,-2,-2,0
450361310849,0,-1,4,-2,2,-1,-1,-1
450361310849,-1,-7,1,1,-5,-12,5,4
450361319853,-3,-5,-5,2,-12,-2,-2,1
450361319853,-8,-15,-6,-4,-12,-4,1,2
450361333353,6,1,-2,-2,-7,-1,-2,-5
450361333353,4,-7,2,2,5,-2,1,0
450361342308,2,5,3,-1,-5,-3,-4,0
450361342308,-5,6,1,2,-4,-5,-5,-3
450361356488,-1,5,-8,-3,-2,-7,-2,2
450361356488,-4,-10,11,0,-14,-9,5,-2
450361363325,6,8,-5,-1,20,-16,4,3
450361363325,-5,-23,-12,-8,2,-3,-7,-7
450361370851,1,-1,-2,0,-2,-1,1,-6
450361370851,-5,7,0,-8,-3,3,-6,-4
450361379811,-4,-20,10,-6,-11,-2,-4,-1
450361379811,1,21,-3,7,-6,-2,2,4
450361393351,-5,-33,-6,2,0,-2,1,1
450361393351,6,-2,-19,1,3,-5,-3,-1
450361402292,0,-2,-1,-1,-10,-3,-1,-4
450361402292,6,-6,-4,-7,4,9,-10,-4
450361417182,1,16,4,0,-8,9,-3,-5
450361417182,-5,16,3,3,-3,8,1,3
450361418782,2,5,-1,-12,-3,-1,-6,4
450361418782,-1,-3,2,-2,1,3,3,-1
450361430814,0,1,-1,-3,1,0,1,-4
450361430814,-2,-4,-3,-4,1,-2,-1,-1
450361447314,-4,8,-3,-3,3,5,0,0
450361447314,2,8,7,2,0,-5,0,4
450361453347,-3,-7,-3,-6,1,-4,-6,-1
450361453347,-3,-11,-9,-1,-4,3,-3,-1
450361462321,-3,-11,-6,2,-6,0,-8,-8
450361462321,3,-6,-2,-6,0,-2,-4,-4
450361484715,-3,-1,2,-1,-3,-3,-1,-2
450361484715,1,-4,-2,-8,0,-8,-5,-1
450361486270,1,3,0,0,-3,-6,-2,-4
450361486270,-1,-6,-4,3,3,-5,2,1
450361490804,-4,-5,-6,-7,-4,-5,-4,-2
450361490804,-1,-2,-1,5,-1,3,-2,-4
450361499829,-6,-5,-2,1,1,6,-4,-2
450361499829,-3,-3,2,0,1,-4,4,-1
450361513388,1,4,5,2,-8,-1,-1,-3
450361513388,-4,-7,-1,2,6,-2,1,2
450361522335,-2,-7,-5,-5,-4,-7,0,0
450361522335,-3,-13,-7,3,-1,-2,-1,1
450361537153,-1,2,-2,-4,5,1,-1,-2
450361537153,3,7,-3,-1,3,9,0,-1
450361538785,-3,10,-8,1,1,-1,0,0
450361538785,1,5,-1,-4,-7,0,-4,-3
450361550836,-1,1,2,0,-9,-2,0,1
450361550836,1,-12,0,-3,4,-10,-4,-3
450361559796,0,-8,3,6,5,0,-6,1
450361559796,-1,3,5,2,0,-5,1,1
450361573329,-1,1,2,-4,4,1,1,4
450361573329,3,13,-5,1,-2,3,-2,-1
450361582397,-3,14,-1,0,-4,4,-3,-2
450361582397,-1,9,-1,0,8,6,-4,1
450361597219,1,-4,-4,-3,2,-3,-5,0
450361597219,-4,-11,4,-4,-4,-4,0,-4
450361598778,-3,-7,2,-3,1,-3,0,-1
450361598778,-2,-1,-6,-4,-4,-1,1,-4
450361619690,2,10,1,2,-1,6,1,2
450361619690,-2,16,-1,5,2,2,-1,3
450361621279,-2,-2,-4,-7,-4,2,-6,-2
450361621279,-1,-7,0,-5,-5,-4,-3,-3
450361633336,-5,-9,-1,-3,0,-5,-4,-3
450361633336,1,-14,-1,-4,-7,-6,-2,0
450361642297,-2,-13,0,1,-1,-7,4,2
450361642297,-4,-4,2,7,3,-3,-1,1
450361656500,-4,-8,-10,4,0,-6,2,2
450361656500,-4,4,-4,1,3,-2,5,-1
450361663345,2,5,-1,2,9,2,-1,1
450361663345,2,4,0,-2,-5,0,0,1
450361670864,-2,-3,-1,0,-10,-4,-1,-1
450361670864,-3,-4,5,0,-3,-2,1,-4
450361679817,1,-5,-5,-4,-13,-3,5,1
450361679817,-2,-9,2,-3,-1,7,-1,-7
450361693314,-3,-6,-6,-2,8,5,-1,0
450361693314,-2,-5,3,-7,-9,0,-4,-3
450361702307,-3,-2,1,0,7,4,1,1
450361702307,4,8,-2,-4,0,4,-2,0
450361716582,1,5,5,-3,1,0,-2,-5
450361716582,1,0,-1,-3,1,-1,-3,-2
450361723345,5,-3,2,-4,0,-8,-3,-2
450361723345,1,4,2,0,-4,-2,-3,4
450361739764,2,5,1,-3,-5,1,4,-2
450361739764,-2,12,-2,0,0,1,-1,1
450361741340,0,7,3,-2,-5,6,-4,1
450361741340,1,-1,-6,0,-2,-3,0,2
450361753326,2,19,3,-5,19,-6,-4,0
450361753326,-4,25,-8,0,-36,-3,2,0
450361762346,-7,5,-8,7,21,-3,0,-4
450361762346,-5,15,-1,-5,-7,-3,3,-1
450361776564,1,12,1,-2,4,-13,1,-4
450361776564,-4,2,2,-9,2,5,0,-4
450361783318,1,-18,-1,3,-10,-7,-3,-4
450361783318,2,2,-1,6,-1,5,0,1
450361799677,-2,-29,-9,-2,-2,4,3,2
450361799677,3,-2,-4,4,6,-12,-5,3
450361801256,-8,-10,1,0,-5,3,-2,-3
450361801256,-1,-16,-7,-6,5,-4,-10,-1
450361813377,-1,0,4,-7,-13,1,-3,-3
450361813377,7,-7,2,-6,2,-4,-1,1
450361822296,-1,0,1,-1,-12,8,-1,-1
450361822296,-5,2,-2,-5,-8,-6,-8,1
450361836565,-2,-5,-2,3,-11,-1,-5,3
450361836565,-3,-6,-5,0,7,-4,-2,2
450361843361,-1,14,-4,-5,0,-9,3,-4
450361843361,-3,-5,0,0,-3,-4,3,-3
450361859751,-2,-16,-8,1,1,0,-3,1
450361859751,-5,-25,0,-7,-5,-2,0,-2
450361861332,1,-14,-3,-1,1,3,-2,3
450361861332,-3,-7,-4,-6,7,0,-4,-4
450361873348,-4,-1,4,-1,5,5,-8,1
450361873348,1,2,3,-4,6,1,-2,-3
450361882343,2,6,2,-7,3,-6,-3,0
450361882343,-2,8,-1,-1,-4,-6,1,-5
450361896542,0,1,-3,2,-8,1,1,2
450361896542,3,-8,-12,7,-7,1,6,-1
450361903394,1,-2,0,-4,-11,-6,3,1
450361903394,4,-7,-3,0,-4,-3,1,2
450361919437,4,10,6,5,-5,-1,1,-3
450361919437,-2,1,4,-3,-3,0,-2,-2
450361925790,-1,-1,1,-5,-1,4,-5,-6
450361925790,-5,-1,5,-4,8,9,-1,-2
450361933319,-6,3,2,-5,0,4,-2,-4
450361933319,-10,5,4,-11,6,11,-3,-9
450361942324,-2,19,-2,0,5,10,-3,-7
450361942324,-5,16,1,-3,4,-8,-3,-1
450361956552,3,8,-7,-7,-6,-3,1,-4
450361956552,4,-12,-10,4,5,-3,-2,1
450361963347,2,-14,-11,-4,-6,-5,2,-2
450361963347,-1,-18,-6,3,2,-3,5,-1
450361979677,0,-17,-10,9,-28,-9,0,1
450361979677,4,-7,-5,5,-4,-2,1,3
450361981270,1,4,3,2,-3,-5,-2,6
450361981270,7,8,1,-8,1,1,1,3
450361993364,-3,6,8,-3,7,-1,-1,-5
450361993364,0,-6,4,5,-23,-1,-7,-3
450362002304,-4,-17,-8,9,-5,-2,-3,-1
450362002304,3,-19,4,0,4,-1,8,1
450362016565,-2,-9,-3,0,14,-2,4,5
450362016565,1,10,-4,-1,5,9,2,-2
450362023369,-3,8,-6,-8,2,-3,-3,-10
450362023369,-2,9,1,-2,-3,-2,-5,-3
450362039741,-3,5,-3,-6,-1,2,-5,-1
450362039741,-2,-7,-12,-2,8,1,-6,5
450362041334,5,0,-14,10,-10,-6,4,1
450362041334,4,-41,10,-26,5,6,4,-2
450362053357,4,-23,16,-17,-34,25,4,-4
450362053357,-7,55,27,-27,27,28,-7,-4
450362062329,-3,83,17,2,-5,-11,-10,0
450362062329,2,37,-10,11,17,0,-15,-5
450362076511,-12,13,-11,14,-22,-35,2,1
450362076511,18,-47,-2,18,-33,-40,10,9
450362083344,0,-32,14,-5,0,-14,11,4
450362083344,0,-17,-10,4,-17,6,-1,3
450362099719,1,4,-22,-7,47,-2,-8,-10
450362099719,-9,-32,-17,-16,4,10,-6,-5
450362101318,2,16,-17,3,7,-6,-5,4
450362101318,-7,14,0,-3,-19,17,2,-5
450362113378,2,11,8,2,-10,9,-9,2
450362113378,-4,14,15,-3,-1,0,-4,-4
450362122323,-5,-71,7,-12,3,-5,-2,0
450362122323,-6,-23,-2,3,-6,-8,-4,-7
450362136542,-1,-3,11,0,0,5,-12,1
450362136542,6,49,10,-1,-7,0,0,3
450362143366,4,49,6,-12,3,17,1,-1
450362143366,2,-2,-11,5,-7,-2,5,5
450362159737,-4,-16,-21,-1,4,-5,-1,-5
450362159737,-2,-17,-12,7,-6,-12,-4,-3
450362161292,8,-11,7,5,3,0,2,0
450362161292,1,8,12,-2,5,-9,7,-1
450362173342,7,-16,-12,-5,-16,-7,9,5
450362173342,-10,-30,-27,18,-8,1,3,-3
450362182278,-11,-34,-25,4,12,5,-2,-8
450362182278,-12,-11,11,-12,13,0,-6,-4
450362196562,-6,2,24,-15,11,-5,-12,-8
450362196562,-10,7,17,-4,2,6,-12,-8
450362203340,-6,2,8,-3,-2,-10,-11,-6
450362203340,-1,1,13,18,-31,-4,-8,-2
450362219711,-7,-1,4,11,0,3,4,2
450362219711,8,-5,-14,-5,-6,-13,10,5
450362221287,10,-15,-22,-1,4,-1,7,9
450362221287,3,12,-8,-6,7,-7,8,6
450362233356,12,10,2,-5,7,6,4,4
450362233356,7,15,13,0,5,-2,6,3
450362242346,3,25,4,-5,-3,15,1,0
450362242346,-3,-9,-5,-7,3,-9,2,9
450362264778,-4,5,-7,8,-22,6,2,2
450362264778,-11,-7,-2,17,-38,-8,-14,-6
450362266378,-22,-25,6,7,-4,7,-4,-11
450362266378,-9,-15,4,-12,5,-1,-6,-8
450362279735,-8,-19,-12,-2,18,-11,-7,-5
450362279735,-9,18,-9,-13,31,7,3,-4
450362281299,9,-42,-11,-7,-2,-5,-13,-3
450362281299,-5,-17,-13,1,15,25,-4,-5
450362293382,0,-16,-12,-8,12,6,0,7
450362293382,14,16,-6,5,-14,-8,9,4
450362302329,3,22,2,3,-29,-12,6,3
450362302329,12,11,2,7,-13,7,2,7
450362316512,14,0,31,3,-15,-19,5,2
450362316512,4,6,26,-10,0,1,-4,4
450362323300,-8,24,30,-1,0,8,-2,3
450362323300,3,17,9,12,-22,5,-4,-6
450362347207,-9,3,-5,-4,-6,2,0,-1
450362347207,-10,-13,-15,-8,10,4,-3,-6
450362348810,-5,-8,-31,-8,19,-21,6,-1
450362348810,-10,-12,-30,-6,19,-20,2,-3
450362353326,-5,-35,-20,2,17,4,-1,-4
450362353326,-8,-33,-11,-9,13,-1,4,-1
450362362350,3,-17,5,-5,4,8,-4,-1
450362362350,-1,7,-4,-4,-2,-6,-2,3
450362376534,-1,24,-2,-1,-5,9,-4,0
450362376534,0,1,19,-3,-4,2,-7,3
450362383343,2,43,19,2,-25,11,-6,0
450362383343,0,32,21,-3,-6,-1,-2,-5
450362399696,-4,34,13,6,-20,-13,2,4
450362399696,1,12,4,5,-5,-7,0,7
450362401314,-3,-16,4,2,-6,-2,4,4
450362401314,6,-4,-3,-3,2,0,2,3
450362413314,3,-6,-7,-11,13,8,3,-6
450362413314,-3,-2,-17,-7,5,3,-9,-3
450362422337,-3,-2,-9,-2,8,2,-5,-1
450362422337,-5,-15,-11,-2,-2,0,0,2
450362436515,-3,-17,-2,-6,5,-12,-2,0
450362436515,-6,-16,-2,0,-2,-5,0,-1
450362443329,1,-18,-1,-4,5,-5,-3,-3
450362443329,-7,-5,0,-4,-2,-4,-4,-4
450362467333,0,-2,4,2,-10,6,-4,-1
450362467333,0,21,0,3,0,6,-1,-3
450362468848,4,10,-2,7,-6,1,3,8
450362468848,2,4,5,-3,-12,-3,-2,1
450362473458,3,6,1,2,-2,-7,-3,1
450362473458,-1,-9,-1,0,-16,-1,1,-1
450362482450,-4,-2,5,1,4,-5,-1,-4
450362482450,4,-1,-2,-1,-3,1,-1,4
450362496646,3,7,1,4,4,2,2,-2
450362496646,3,-1,-5,-3,2,-3,-1,-5
450362503430,-5,0,-2,-3,8,0,1,-3
450362503430,-4,-6,-6,2,10,-1,1,-4
450362519800,-5,-10,-10,-1,5,-1,1,-3
450362519800,-3,-24,-1,3,9,-5,-2,0
450362521350,2,-15,-6,3,0,-2,3,3
450362521350,-5,-9,-3,1,-2,-9,-2,1
450362533411,0,-6,-6,-3,-7,2,1,-2
450362533411,4,-4,0,2,-2,-1,-1,-1
450362542410,-1,3,5,0,-5,-2,0,-2
450362542410,1,9,7,0,-2,-1,-4,-3
450362556623,3,2,8,3,-3,-6,-2,-3
450362556623,7,7,0,1,4,-2,-3,1
450362570897,2,5,3,-2,-4,-2,-5,-3
450362570897,3,1,5,0,-7,0,-3,-3
450362579082,-1,5,0,-2,-6,0,-1,-3
450362579082,-2,-2,1,-3,-1,-2,-1,-1
450362585912,0,-2,-5,-9,-4,-1,-3,-7
450362585912,-7,-7,-4,-5,-2,-5,-3,-1
450362593492,-8,-9,-6,-6,1,4,-2,5
450362593492,-3,-2,-6,-3,2,-1,0,1
450362602475,-4,-6,-7,-3,-3,-1,-4,2
450362602475,2,-1,1,2,0,0,-3,-2
450362616615,0,2,-3,-3,3,2,-4,2
450362616615,2,-1,1,4,4,-1,1,0
450362623338,4,1,-3,2,1,-2,1,2
450362623338,1,3,0,1,1,0,-4,1
450362639031,2,5,0,4,-1,-2,2,-1
450362639031,3,9,4,-2,-6,-1,-2,2
450362645837,3,7,5,1,-6,5,1,2
450362645837,0,7,-1,-1,-1,-2,1,-3
450362653386,-4,-3,-1,-6,-1,-6,-3,-2
450362653386,-4,-5,-1,-3,-4,-5,-4,-1
450362662313,-1,-10,-2,-4,-7,-4,-3,-1
450362662313,-4,-10,-4,-3,-2,-4,3,4
450362676514,-4,-5,-2,-2,-1,4,0,-3
450362676514,0,-2,-2,1,-1,0,-2,-1
450362683362,-5,-3,-5,0,-1,-2,-2,-3
450362683362,1,-8,1,-6,2,1,-2,0
450362699026,0,-8,16,-9,-4,-1,0,-2
450362699026,4,-28,-2,-16,26,-3,5,-3
450362705858,-4,9,3,-7,-20,11,-4,-3
450362705858,2,3,-7,-5,15,-9,-4,5
450362722210,-1,12,-2,-7,-18,-1,-2,-2
450362722210,4,23,-13,-3,-5,1,-6,0
450362723842,-9,2,-2,-4,-2,-1,-2,-8
450362723842,1,-5,-5,-6,-5,-3,-2,1
450362736584,-1,-3,-1,4,-4,-2,7,1
450362736584,-8,-18,4,4,1,6,7,7
450362743493,6,3,-4,3,3,-1,0,5
450362743493,-7,-1,-4,8,-8,5,2,-5
450362759074,-1,-4,-2,-1,15,-1,-2,-3
450362759074,-5,-2,2,0,-13,-3,-1,-5
450362765955,3,-10,-1,1,7,0,-4,0
450362765955,2,-6,4,2,-3,6,1,-2
450362782257,6,1,-1,3,10,-1,-5,1
450362782257,-3,1,4,-4,3,0,2,-1
450362783898,3,8,-1,-4,2,2,0,-3
450362783898,-4,8,-3,-3,4,-1,-3,-7
450362796630,-5,7,-4,-1,-8,1,-4,-1
450362796630,0,12,-4,2,-9,-1,-1,5
450362803386,2,-6,1,11,-4,-7,6,4
450362803386,2,-7,-3,-3,-15,-7,-1,0
450362819049,-2,-14,-2,0,-2,-8,-2,-2
450362819049,-5,-11,-1,-3,-1,-6,-2,2
450362825938,-1,-8,1,-8,3,-4,1,0
450362825938,-1,-5,1,-6,-4,3,-2,-2
450362842238,4,-2,-10,-4,-5,1,2,1
450362842238,3,4,-4,-3,-7,1,1,-1
450362843886,-3,-4,-3,1,-2,-2,-6,2
450362843886,2,-1,6,-1,-3,-6,-4,-3
450362857353,1,-4,1,-10,6,-6,-5,-4
450362857353,2,1,1,-2,1,-5,-3,-6
450362863445,1,7,2,-7,3,3,4,-1
450362863445,-5,5,-1,-4,-5,2,-2,-3
450362879128,0,4,-7,5,-3,8,-1,-1
450362879128,-3,0,-2,-1,-6,4,-1,-3
450362885948,-3,-4,-7,-2,2,4,2,-2
450362885948,-3,-7,-3,-1,0,-8,2,0
450362902257,-8,-5,-3,-1,0,-4,0,-3
450362902257,1,-13,0,0,-4,-7,-6,-1
450362903905,1,-9,3,-4,1,-7,-3,-2
450362903905,-1,2,-2,4,6,1,1,3
450362916568,5,8,2,-1,0,-1,2,4
450362916568,-1,2,-3,0,-7,-1,1,-5
450362923382,0,-5,-4,1,-5,-1,0,4
450362923382,3,4,2,-2,-3,4,-1,1
450362939115,3,-9,7,3,-1,-8,0,-2
450362939115,-4,3,5,0,2,-2,-1,0
450362945967,0,3,0,0,-6,-1,-1,-1
450362945967,1,2,-3,0,6,8,2,-4
450362962268,-1,2,-4,-10,-4,0,-8,-3
450362962268,-3,2,-1,-4,3,-4,-1,-5
450362963802,-6,-4,-2,3,12,-1,-6,-4
450362963802,1,-17,-7,-3,-2,-7,-2,-1
450362984779,-2,-11,0,2,2,-3,-2,-2
450362984779,-2,-6,-1,-1,4,-2,-2,-1
450362986305,-1,3,1,0,3,-4,-3,-1
450362986305,5,2,3,0,1,-1,-1,0
450362999066,1,2,-2,1,-4,0,1,2
450362999066,-1,3,-3,1,-9,4,0,-1
450363005834,7,0,-1,-4,-13,1,4,-4
450363005834,2,3,-2,-1,-7,0,1,5
450363022193,0,3,-2,0,-6,-1,-1,-4
450363022193,3,5,2,2,-3,-2,-1,0
450363023794,-3,-3,-2,-4,-4,-3,-3,-2
450363023794,-3,0,5,-1,-2,-3,0,-6
450363035897,-6,0,-2,-5,0,5,4,-4
450363035897,-6,-4,-4,-6,-3,-1,-2,-6
450363044915,-3,-10,-4,-5,0,-1,-7,-2
450363044915,-7,-11,-3,-5,-4,-6,-2,-1
450363059141,-4,-4,-1,-1,2,-3,-2,1
450363059141,0,0,3,5,2,0,-1,0
450363065893,-2,4,1,-2,11,-2,0,0
450363065893,0,0,-1,-5,-2,-2,0,-6
450363082373,3,4,-4,0,-3,1,-1,1
450363082373,1,1,-7,-4,-3,5,2,1
450363083890,1,-2,-3,0,0,3,-1,1
450363083890,3,10,-1,2,-2,1,-3,1
450363095874,1,2,8,3,-1,1,-3,-1
450363095874,4,0,5,-4,-5,-3,-4,0
450363112445,0,3,1,2,-6,-2,-1,-3
450363112445,2,-3,1,0,-3,-7,-1,-5
450363119178,1,-3,-3,-6,-1,-5,-2,0
450363119178,1,-6,-3,1,1,2,-2,4
450363125965,-4,-10,-7,-7,-3,-3,0,-2
450363125965,-3,-10,-6,-5,-1,-4,-4,-4
450363142260,-6,-7,-4,-11,-3,-6,-3,-5
450363142260,0,3,1,0,3,-2,-3,-3
450363143884,4,0,-3,3,2,-5,1,0
450363143884,-2,-5,-7,-2,4,-2,-2,4
450363155976,1,1,-1,0,-2,-1,0,-1
450363155976,-5,1,-5,0,-4,0,0,2
450363164913,1,1,3,1,-8,1,-1,-1
450363164913,-2,-7,-1,0,-4,-1,0,0
450363187279,3,-2,5,2,0,-2,-1,1
450363187279,4,-7,2,0,-1,0,0,-4
450363188828,-4,2,1,0,-2,-4,-3,1
450363188828,-1,5,-1,1,3,-4,5,-5
450363202242,0,0,2,3,0,7,-5,1
450363202242,-1,2,2,-6,0,-3,3,1
450363203855,-1,-7,4,-12,0,-5,-4,-1
450363203855,2,13,7,-6,-5,-3,-1,1
450363224790,3,-2,-2,-4,11,-5,4,0
450363224790,0,-1,-3,-5,1,0,-4,2
450363226361,-4,4,-4,-5,0,4,-5,-1
450363226361,-8,-4,-2,-4,-3,4,-2,2
450363239095,0,14,-3,4,6,4,3,4
450363239095,-3,6,-3,0,-8,-4,0,0
450363245910,-2,0,-3,-1,1,-6,-4,-4
450363245910,0,-9,-4,-1,-5,-6,0,-3
450363262282,-1,-9,-4,0,-9,-4,-3,-2
450363262282,-2,-11,-1,-2,-2,-3,-1,-4
450363263873,1,9,0,1,-7,2,2,0
450363263873,-1,2,1,-2,3,5,-3,-1
450363275810,-3,-5,-5,-4,-3,-1,1,5
450363275810,3,-1,-2,-4,1,-1,-2,-5
450363290829,-1,-4,2,-4,0,2,0,-5
450363290829,-2,2,2,-3,-5,0,-3,-2
450363299065,-1,-2,-1,-3,2,-1,-1,0
450363299065,-4,-2,-3,-3,-4,-6,0,-1
450363313340,-4,2,-6,2,0,-7,2,1
450363313340,-4,0,-7,-1,8,1,0,-4
450363322209,-4,-4,-4,-6,-2,-1,0,-1
450363322209,2,0,0,0,4,2,1,3
450363323825,0,-11,-3,-3,-10,-7,-10,-2
450363323825,-4,-11,-2,-2,-2,-4,1,-1
450363335866,3,-12,-2,-2,-9,-7,-1,0
450363335866,0,-11,4,1,0,-3,-1,-3
450363344828,1,3,0,-2,-6,10,-2,-3
450363344828,3,16,-1,2,-4,0,-6,0
450363359039,-3,12,2,-4,-5,4,-7,-8
450363359039,-1,-2,1,-3,3,1,1,0
450363365909,-3,-7,-1,1,-1,3,2,8
450363365909,1,-15,1,-7,1,-1,3,-1
450363382215,-2,-7,0,-1,5,-3,-1,-2
450363382215,-6,2,-7,-3,3,-2,-7,-4
450363383782,-1,-4,-2,0,4,-3,-3,-1
450363383782,-3,-8,-6,-1,-3,-5,2,-3
450363395864,-6,-3,1,-7,-5,0,0,-2
450363395864,0,-3,5,-9,-6,4,-5,-3
450363404863,-6,-2,5,-7,-2,-1,-2,-5
450363404863,-2,-7,-4,-1,-3,-1,-2,2
450363419112,0,-2,2,4,-5,0,0,-1
450363419112,-1,0,-1,4,-4,-2,1,0
450363425942,6,4,3,0,-3,-4,-3,-1
450363425942,0,3,1,3,0,-5,-3,-3
450363442340,4,0,0,-1,-1,-6,2,3
450363442340,-1,-3,0,1,4,-2,-2,6
450363443907,2,-3,-4,-4,4,-1,3,-7
450363443907,-5,2,0,-2,4,5,-2,-2
450363456390,0,1,-4,-4,2,2,0,-1
450363456390,-4,4,-3,-1,-5,-2,-2,-1
450363464932,-4,-5,0,-1,-1,-2,0,-2
450363464932,-2,-6,3,-4,6,-3,-4,6
450363479128,-5,-12,-1,1,-10,-2,-7,0
450363479128,-2,-1,2,-9,2,-2,1,-6
450363485948,2,-2,0,-2,3,-12,7,2
450363485948,4,10,1,-4,0,5,-1,-2
450363501577,-2,14,-3,0,6,9,0,-2
450363501577,2,3,-7,4,-7,5,-4,1
450363508520,-3,14,-5,4,4,3,3,0
450363508520,3,1,-3,-3,-1,-3,4,-2
450363515976,-1,3,-1,-2,2,-10,-2,1
450363515976,3,-8,0,5,-1,2,2,-2
450363524900,1,-11,-4,-1,-4,0,3,-3
450363524900,-2,-4,-7,0,1,-3,1,2
450363539097,-2,-2,0,0,3,3,1,-3
450363539097,-6,-1,-3,-2,-1,0,0,-1
450363545965,-4,-5,-5,1,-3,1,-4,-2
450363545965,-1,2,-2,1,-3,3,-5,2
450363561585,0,-5,-4,-1,1,-4,4,2
450363561585,-3,-7,-4,-2,5,-5,-2,1
450363568429,1,1,3,1,3,7,0,-5
450363568429,-2,-5,-2,-1,-3,-1,1,-5
450363575893,1,1,0,3,3,2,5,-1
450363575893,0,6,-1,4,2,3,1,-4
450363590853,-4,-2,-9,-4,-3,0,-4,0
450363590853,3,2,2,2,-2,-1,-2,-1
450363599154,-2,0,2,0,-1,-3,0,-1
450363599154,4,-4,0,-3,-1,-3,-2,-3
450363605879,-2,-2,1,-1,-3,-4,-2,-4
450363605879,1,-1,-2,3,0,5,0,1
450363621537,-1,-1,-5,0,-11,-2,-6,-4
450363621537,2,4,-3,3,-3,-4,3,1
450363628410,2,5,4,1,-3,-3,-3,0
450363628410,-2,-5,1,2,0,0,-2,0
450363644757,-1,-2,0,7,2,-1,-2,1
450363644757,-1,-1,1,-6,4,-6,-2,-2
450363646367,-3,-6,1,-4,-1,0,-4,3
450363646367,-3,1,-5,-8,1,-3,-2,-1
450363659161,3,5,0,-1,0,1,-4,2
450363659161,-1,6,-2,-2,-3,1,-4,0
450363665931,1,2,-5,-2,0,1,2,-1
450363665931,-2,-3,-1,0,-3,-5,-1,0
450363681760,-7,-4,-2,-5,-4,-2,-4,-3
450363681760,0,6,-6,4,-2,-1,0,-1
450363688467,-3,-3,1,3,-7,4,-3,0
450363688467,-2,-3,-7,-3,-3,-5,2,-6
450363704801,5,-4,-5,4,0,-9,-1,-2
450363704801,-3,-6,-3,0,3,0,6,1
450363706330,-5,-3,-3,1,-1,-3,2,0
450363706330,0,-3,-5,0,-1,0,-2,-3
450363719137,-4,-3,0,-5,-1,1,-6,-3
450363719137,0,-5,-3,-8,-7,-1,-6,0
450363725949,-2,-3,2,-4,-2,-4,-1,0
450363725949,-3,1,-2,-1,-6,-5,0,1
450363741658,-3,7,-6,0,1,-3,0,-4
450363741658,-3,-5,1,-1,0,-2,-4,1
450363748474,2,-6,-2,-3,-2,0,-3,-2
450363748474,5,1,3,-2,-5,0,-4,3
450363764759,-1,-6,-2,-5,-1,-1,-3,-1
450363764759,-1,7,0,2,-2,-2,2,3
450363766368,-3,4,0,2,6,-3,5,-3
450363766368,-1,3,0,-1,-1,2,-5,-2
450363779108,-1,-2,-2,-2,2,3,2,4
450363779108,2,-3,-3,-2,-1,0,-3,0
450363786001,3,7,0,-4,-1,-4,-3,2
450363786001,-3,-5,-4,-3,-1,-2,-3,-5
450363801741,-2,-8,-4,-4,2,-5,3,-4
450363801741,-6,-1,2,-5,-3,3,1,-1
450363808459,-3,-6,-10,-5,-3,-1,-2,3
450363808459,0,-1,-1,-5,-5,-3,0,-5
450363824844,-4,-4,-2,-4,3,2,-3,-1
450363824844,-2,-3,-6,0,9,1,1,2
450363826387,-2,3,2,1,-2,-3,-3,1
450363826387,-3,-5,-1,-4,-5,1,3,-2
450363839177,1,1,-4,-2,-5,1,6,4
450363839177,4,-7,-4,-7,-10,-6,-5,-2
450363845899,-1,-3,2,-5,-8,3,1,-1
450363845899,1,4,4,1,-2,3,-2,-1
450363861698,1,9,4,3,-2,3,2,1
450363861698,-2,0,-6,-1,-2,3,1,2
450363868371,0,2,5,0,4,-4,-2,2
450363868371,1,-2,2,-2,-3,-4,-1,2
450363884709,-1,-3,-1,-1,3,-3,-3,0
450363884709,0,0,1,1,2,-4,1,-3
450363886284,-2,-4,-6,0,-6,-1,1,0
450363886284,-1,-8,-3,-2,-2,-1,2,-2
450363898369,-3,-3,4,-3,0,1,-3,1
450363898369,-1,1,3,-1,-3,-3,-1,1
450363907344,-5,-2,-6,-4,-2,1,-4,-1
450363907344,1,-2,0,-1,-1,-1,1,0
450363921562,3,5,-4,-2,-3,-2,-4,-8
450363921562,1,-3,-1,-1,0,1,1,0
450363928367,2,-3,0,-1,-2,-3,2,-4
450363928367,3,3,-2,-1,-2,1,-1,1
450363944761,-2,-2,2,-2,-6,1,-3,2
450363944761,-3,2,2,2,2,0,-5,1
450363946343,-4,1,-2,-3,6,-2,-5,0
450363946343,-5,-2,-1,-3,-1,0,0,-2
450363958374,-1,-1,-3,-1,0,-2,3,-3
450363958374,-5,-7,-2,-5,-3,-2,1,-1
450363967399,-1,-5,-1,0,-3,1,-1,1
450363967399,-5,-3,-3,2,4,0,0,2
450363981624,5,3,-2,2,-3,-1,-2,2
450363981624,2,-1,1,-2,-5,-1,-5,-2
450363988422,2,1,3,-11,-8,-4,-4,-6
450363988422,3,5,-1,1,2,-2,-1,2
450364004755,-4,-1,2,-2,-2,3,0,-4
450364004755,-1,-2,-5,1,-1,-4,0,2
450364006267,1,-1,0,5,7,0,-1,0
450364006267,2,-3,-6,-2,-8,-2,-3,2
450364018389,-6,-5,0,-2,-4,-8,-2,-1
450364018389,0,-1,2,-1,-2,-1,-1,-1
450364027339,-4,0,0,0,0,-1,1,-2
450364027339,-4,2,0,-5,-4,1,0,0
450364042338,5,-4,-4,-2,2,0,3,-1
450364042338,-1,1,2,-2,-3,2,-2,-2
450364048389,-3,3,-4,-4,-3,-3,2,-1
450364048389,-6,-2,0,4,1,-4,0,-2
450364064124,-3,-1,-5,-7,-4,1,-3,-2
450364064124,4,1,-1,-2,1,-1,2,-3
450364064813,5,-3,-2,-2,-7,-3,-6,-5
450364064813,-4,0,0,-2,-3,-4,-2,-1
450364102914,0,2,-2,-3,-4,-2,-3,0
450364102914,-5,-4,0,-1,-1,-3,-1,-1
450364103721,-5,-4,-6,-2,0,-1,-3,-6
450364103721,-1,-2,4,-4,1,1,-6,-2
450364105302,1,0,3,0,1,1,-1,-1
450364105302,-1,-1,3,0,-4,1,-1,-1
450364108407,1,5,-5,-5,-10,0,5,2
450364108407,0,-2,1,-5,-3,-6,4,2
450364124111,-4,1,-3,-2,-3,4,-3,-3
450364124111,2,-3,0,1,2,-1,1,-3
450364124861,-2,-1,1,-2,0,-1,-2,-2
450364124861,0,3,1,-1,-4,-4,-4,0
450364146642,-1,0,0,-3,-1,-3,0,1
450364146642,1,1,-1,1,1,0,2,2
450364147406,-3,-1,-1,0,1,-2,1,-3
450364147406,0,-3,-8,-2,-2,1,-1,-1
450364170628,-5,0,4,3,-1,-1,-3,0
450364170628,-5,6,-1,-5,0,1,-1,-4
450364171415,-2,-4,-1,2,-1,-4,-4,2
450364171415,-1,-2,-6,2,9,3,4,-1
450364184160,1,-5,-1,-6,2,-2,-1,-3
450364184160,-1,1,-6,5,3,3,-2,-1
450364184887,4,-1,4,4,-2,2,0,1
450364184887,-6,-2,-5,6,2,2,1,-5
450364206636,-2,1,1,4,3,-3,2,0
450364206636,-4,0,0,-2,2,-4,2,2
450364207353,3,3,2,1,2,-1,-2,-2
450364207353,4,2,-1,-1,-4,0,1,0
450364222478,0,1,-2,2,1,-1,1,-4
450364222478,-1,-6,-5,-5,-11,-1,-5,2
450364228464,-6,-2,-5,-1,-4,-1,-4,0
450364228464,2,-1,0,-2,-1,-1,1,1
450364244168,0,-5,3,4,2,-2,3,4
450364244168,-4,-3,-4,-2,-2,-5,-1,0
450364244894,5,1,1,-8,-4,-8,-2,-6
450364244894,0,2,3,-4,-2,1,-2,-1
450364266357,-2,0,-8,-2,-8,-5,-3,-1
450364266357,0,-3,0,-3,-1,-4,0,-7
450364273467,-2,-4,-5,-4,2,1,-1,0
450364273467,2,-4,1,-4,-2,-8,0,-4
450364282447,1,-4,0,-3,-6,-1,-4,-2
450364282447,-2,4,-1,-4,-2,-1,-2,-2
450364288459,-2,0,-1,-7,-9,0,-1,-2
450364288459,1,1,-6,1,-4,-2,-4,-1
450364304154,-4,5,0,-1,-4,0,3,0
450364304154,-1,-4,-4,-4,-1,-6,-2,-3
450364304879,-3,-2,0,-2,3,-5,1,1
450364304879,-4,-1,-2,0,0,4,-2,-2
450364326681,1,-3,-2,-9,-4,1,0,-3
450364326681,3,-3,-1,0,1,2,-1,3
450364327380,-2,-2,3,-4,-4,0,2,3
450364327380,2,-2,2,-2,-3,-5,-5,-1
450364342439,2,-1,1,-3,-1,1,-5,0
450364342439,0,9,-1,7,0,0,7,1
450364348508,-2,5,-5,-4,5,2,1,1
450364348508,-4,0,-1,-2,0,-1,-2,-4
450364364160,-4,1,-3,2,6,1,1,-1
450364364160,1,-4,0,4,-4,-3,-1,0
450364364875,0,0,-2,6,0,2,3,-3
450364364875,-1,1,2,-7,-5,1,-1,-2
450364386686,-4,-3,1,0,0,-4,-2,0
450364386686,2,-3,-3,-2,3,3,-1,-3
450364387413,1,-3,-1,2,2,0,-3,-2
450364387413,3,-4,-2,2,-4,-2,1,1
450364402422,-2,1,-7,-1,-2,0,-3,1
450364402422,-2,-4,-2,-6,-5,0,0,2
450364408460,-4,-6,-2,3,4,0,1,3
450364408460,-5,0,2,-5,-1,-4,-3,-4
450364424132,4,1,1,-5,-5,-2,-1,3
450364424132,0,5,-2,-2,-5,-4,-6,-2
450364424889,0,0,2,-1,0,0,-2,-1
450364424889,-1,1,-1,3,-1,1,-2,0
450364446665,-3,2,1,-3,-4,-2,-3,-6
450364446665,1,-4,-4,-2,-4,-1,0,-4
450364447296,-1,1,-2,5,0,0,-1,0
450364447296,-2,-4,-2,-2,-4,-4,-1,0
450364462477,-1,-5,-2,1,-5,1,0,0
450364462477,-7,-7,-2,-2,0,-5,-7,-1
450364468415,-2,-5,-4,-5,-8,-2,-4,-3
450364468415,-5,1,-2,-1,7,-4,-2,-4
450364483446,-6,1,-3,-3,1,-1,-4,0
450364483446,-3,4,2,-6,3,-2,-2,0
450364490992,1,2,-2,-4,-2,-1,-3,-1
450364490992,0,0,-1,-6,-6,-5,-1,-1
450364506685,-1,0,-1,-6,-9,-5,-2,-1
450364506685,-1,-5,2,1,4,0,-4,-4
450364507379,2,-5,1,-2,-1,-4,-1,3
450364507379,-3,-6,-5,-3,-1,-2,2,2
450364522426,0,-5,2,-1,4,-5,1,-4
450364522426,-2,1,-3,-2,-4,1,0,-3
450364528516,-1,0,1,-2,-4,0,-1,-4
450364528516,-3,-2,-3,-1,-1,2,-1,-3
450364543443,-1,0,0,0,-5,-2,-1,-2
450364543443,0,3,-2,3,-2,4,-1,0
450364550901,0,1,2,1,3,-1,-5,0
450364550901,-3,-2,4,-4,-3,-2,-1,0
450364566544,-1,-7,-3,-1,0,0,1,2
450364566544,-2,-3,4,0,5,-4,0,0
450364567371,-3,-1,0,0,-7,-3,-1,1
450364567371,0,3,-5,-2,-2,-2,-6,3
450364582366,3,0,1,1,2,-2,-5,1
450364582366,1,5,3,-5,-2,-1,-4,-3
450364588448,-2,1,-4,-3,-3,-1,0,-1
450364588448,-4,-2,3,-4,2,4,-1,1
450364604924,-2,-2,-5,-1,4,2,-1,-7
450364604924,0,0,-3,-2,-1,-2,-2,-2
450364610862,0,4,-2,-3,-3,-1,1,-3
450364610862,1,0,-1,5,-5,6,4,-1
450364626633,2,0,3,-2,-5,-1,-1,-4
450364626633,-4,0,-1,3,-6,2,-1,2
450364627383,2,2,1,-2,-1,-5,-4,-1
450364627383,2,3,-3,0,-1,-6,-8,-3
450364642342,2,-3,-2,1,-3,2,5,5
450364642342,6,2,-2,-2,-6,0,1,2
450364648382,-6,-5,-3,-1,2,-5,1,-1
450364648382,1,-1,1,5,-1,3,1,0
450364663357,-2,-3,-1,0,1,2,-4,-4
450364663357,-5,-1,3,-3,-1,-6,-5,-4
450364670976,2,-5,0,-7,-5,-3,-1,1
450364670976,-4,1,-1,0,2,-2,1,-2
450364686554,4,1,-3,-3,-1,-1,-2,0
450364686554,-6,8,2,-4,-2,-1,0,0
450364687317,-3,-1,3,-4,5,-2,-2,-1
450364687317,-3,-1,-5,-6,0,-3,-4,-4
450364702370,-2,-1,-5,-1,-1,-7,0,-3
450364702370,0,-8,1,-1,1,0,5,0
450364708404,0,-1,-3,1,0,0,-2,-1
450364708404,-1,1,-2,-7,-5,0,-3,-2
450364723439,-5,-1,2,-1,4,-1,-3,-3
450364723439,2,-4,0,-2,-2,2,1,-2
450364730940,-3,4,-4,0,-6,-2,-6,0
450364730940,1,-4,-3,2,3,-2,-1,-2
450364748081,1,4,3,4,1,-8,-2,1
450364748081,-3,-3,-3,1,-2,-4,-4,-3
450364748902,2,-3,1,-1,0,1,-2,-2
450364748902,-4,-1,1,-2,-7,-5,-3,-1
450364762378,0,-3,-5,-7,-6,-1,-1,2
450364762378,2,-2,-1,-4,2,1,-2,-1
450364768486,-3,-2,-4,1,1,1,2,-2
450364768486,1,1,2,2,9,-3,-5,-3
450364783439,-3,2,-1,0,0,1,0,-3
450364783439,-1,0,-5,-1,2,-5,1,0
450364791047,-2,0,0,-6,-8,-4,-2,-1
450364791047,0,6,1,6,-2,-2,1,3
450364806608,0,3,-1,1,-8,-3,-5,-1
450364806608,-3,0,-3,0,-2,-3,-3,-1
450364807373,1,-2,0,-3,1,-4,-2,0
450364807373,3,-6,-1,-2,-6,-1,0,1
450364822425,-2,0,-3,-7,-4,-1,-3,3
450364822425,-2,-2,-8,-9,-7,-1,1,-1
450364828382,-1,0,-1,3,0,0,-4,0
450364828382,4,2,0,-4,-5,0,-4,1
450364843433,1,-3,-4,0,0,-3,1,-3
450364843433,-2,-3,-1,-4,-6,-3,-6,0
450364850973,0,1,-1,1,0,4,3,1
450364850973,4,-3,-4,1,0,-5,-1,-5
450364866610,-4,-2,-1,-3,4,-2,-1,-2
450364866610,-2,-1,2,2,0,-1,-5,-6
450364867449,-1,5,-2,0,-2,-3,2,0
450364867449,-6,7,-1,-5,2,4,0,-2
450364882454,0,4,4,-2,1,2,-1,-1
450364882454,-1,-1,4,0,2,-1,-3,2
450364888436,-1,2,-1,0,0,-1,-2,-1
450364888436,-2,-5,1,-5,-2,-5,-1,-3
450364903461,-1,-1,-2,0,-2,-5,-1,0
450364903461,1,2,2,0,-1,0,-1,-1
450364910955,2,-2,2,-1,-3,-5,0,-2
450364910955,2,-1,-3,0,3,3,0,-1
450364926682,-1,-5,-7,-4,-8,1,-1,-3
450364926682,-2,-2,3,4,2,-2,1,-5
450364927440,-2,-5,-4,-3,-2,-1,1,-2
450364927440,0,-7,-3,-1,4,-3,-1,0
450364942513,0,-2,2,-5,3,0,-3,3
450364942513,1,1,-1,1,-2,-3,-2,2
450364948504,0,5,-4,0,-2,1,1,-2
450364948504,0,6,2,1,-5,0,-1,-1
450364963457,-2,1,3,4,1,2,0,-3
450364963457,3,2,1,-2,-2,-1,0,1
450364979218,-2,-2,0,0,0,0,-4,-4
450364979218,3,-6,-1,0,-3,-2,3,-2
450364986595,-4,-6,2,-1,-2,-4,-3,3
450364986595,-4,-4,-7,-1,2,2,2,2
450364987395,2,-8,-4,0,0,1,1,-1
450364987395,-3,-4,-4,-7,-5,-4,0,-2
450365002456,-2,-9,-5,-1,1,4,2,1
450365002456,-3,-3,-2,-1,3,1,1,-1
450365008396,-6,2,0,-5,-3,-3,-4,-4
450365008396,1,2,1,-3,-6,-1,-2,0
450365031641,0,4,-4,-3,1,0,3,-3
450365031641,0,0,0,3,-6,2,-1,0
450365032419,-3,2,2,0,-4,0,-2,-2
450365032419,-4,2,2,1,2,-1,-6,0
450365046662,0,3,-1,-4,0,-2,0,1
450365046662,-2,-5,-2,-7,-2,-4,-3,-2
450365047391,-3,-3,-3,0,3,4,-2,0
450365047391,0,-2,-4,-1,-5,-3,-1,-1
450365062380,-2,1,2,2,2,5,-3,2
450365062380,1,-4,0,0,2,-3,0,-2
450365068353,1,-3,1,-5,-4,-2,-8,0
450365068353,-3,-5,-3,0,4,-3,0,-4
450365083366,-2,-2,-2,0,-4,-5,1,-1
450365083366,4,1,-2,-2,-6,-4,4,-2
450365090880,1,2,2,-1,1,-3,0,-1
450365090880,-3,1,-3,-4,-1,3,-2,0
450365106612,1,1,-1,-1,2,2,-1,-2
450365106612,-2,0,0,-2,-4,0,-2,0
450365107343,0,-1,1,-1,-3,-2,-1,1
450365107343,-3,-4,-1,2,0,0,-2,-1
450365122388,-4,-2,1,-4,-1,-2,1,0
450365122388,1,2,-5,-2,2,-1,-6,-4
450365128373,2,-5,-2,-3,2,-2,1,1
450365128373,-2,-1,-1,-7,-5,0,-2,-1
450365143437,0,-3,-3,-5,-13,-1,-2,-3
450365143437,-2,0,-3,-7,-1,-1,0,-3
450365150924,-3,-4,-3,5,-5,-5,-3,-5
450365150924,2,-4,1,-3,-1,-2,4,3
450365166620,-2,-4,-4,2,4,-3,-1,-3
450365166620,-3,1,-2,-1,-4,-5,2,-4
450365167355,-3,-2,-3,-5,-1,2,0,0
450365167355,-3,8,-3,0,-3,0,1,0
450365182407,-2,4,2,-1,-2,2,1,2
450365182407,-2,1,2,-1,-5,1,2,3
450365196750,3,-2,-3,-3,2,3,2,0
450365196750,3,3,3,3,2,-1,-4,3
450365203492,-6,6,69,96,46,-10,-22,-9
450365203492,3,-3,-16,-17,-3,5,6,0
450365210978,4,-1,-74,-103,-48,4,13,3
450365210978,-7,8,-44,-72,-43,1,4,-2
450365226688,3,-15,-34,-59,-31,-11,6,-1
450365226688,4,-9,3,7,-2,-5,9,6
450365227434,2,-3,26,31,21,-11,-6,-9
450365227434,3,-24,0,9,1,-16,-8,-5
450365242500,2,4,-22,-14,-4,0,1,0
450365242500,-7,8,13,13,-1,0,-7,-4
450365248450,4,2,8,11,0,6,0,7
450365248450,-1,14,9,16,9,10,-9,1
450365263485,-2,6,1,0,-2,-2,-4,-2
450365263485,-4,-9,-4,-19,8,-3,-2,1
450365271013,-4,-5,15,-45,0,-10,-4,-3
450365271013,-1,-13,15,-109,1,-6,-6,-5
450365287282,-32,-39,31,-128,5,-25,-37,-32
450365287282,48,77,-39,-91,-19,59,58,44
450365288060,19,47,-19,35,9,32,32,20
450365288060,6,6,-15,127,11,17,16,5
450365302500,5,-8,-32,55,-9,-5,1,-4
450365302500,-14,-22,16,94,14,-32,-26,-25
450365308514,-11,-10,22,112,17,-30,-20,-12
450365308514,-7,-5,-6,-25,-3,-3,5,1
450365323479,4,-24,-19,-23,-22,8,8,9
450365323479,-2,-37,-11,85,-21,-6,-10,-8
450365330987,7,2,1,82,-4,5,-4,1
450365330987,-8,22,14,86,4,-4,-8,-10
450365346628,1,50,8,-92,-7,9,6,2
450365346628,-2,10,17,55,7,-5,-8,-2
450365347368,-3,-19,11,-120,-9,-12,-6,-4
450365347368,1,-11,7,116,4,6,-2,1
450365362427,4,6,-13,72,-1,14,10,4
450365362427,-8,9,-5,-10,8,-1,-5,-7
450365368482,-6,-2,-4,10,0,0,0,-4
450365368482,3,-10,-6,-13,6,-1,3,6
450365383455,5,-4,-5,-40,1,6,4,6
450365383455,-14,-11,-3,-73,-2,-13,-6,-5
450365391005,-8,-10,2,87,7,-11,0,-3
450365391005,10,-27,-4,8,-3,-9,1,2
450365405920,-4,-8,-3,28,-6,5,1,1
450365405920,0,9,3,-22,4,9,-6,-2
450365413463,-4,28,2,-74,-6,8,-5,-7
450365413463,-2,19,2,-100,-1,3,4,1
450365422486,9,-12,-5,-13,-3,4,7,9
450365422486,1,-16,-4,46,3,-6,-2,-1
450365428490,0,0,-1,22,8,0,-1,-2
450365428490,-3,7,7,-27,5,-8,-3,2
450365443484,2,8,4,10,-5,1,7,5
450365443484,0,-3,-3,-48,-6,1,-2,4
450365450987,-4,-5,-10,-40,-3,2,-2,-1
450365450987,-2,7,3,3,-3,0,-2,-4
450365465982,0,8,5,18,-5,2,-3,-4
450365465982,-5,-8,8,0,-1,-1,2,-5
450365473488,-3,-11,4,43,-1,-2,-2,6
450365473488,-8,-3,2,-15,-9,-3,-2,-4
450365482506,0,7,-8,-25,1,-1,4,1
450365482506,-7,-6,1,16,11,0,-5,-1
450365488486,-2,-2,-5,-15,-7,4,0,-3
450365488486,-1,-3,-6,-61,-5,4,1,2
450365503505,4,3,-1,17,4,-6,0,-4
450365503505,-3,-6,-3,40,2,-2,0,2
450365510945,-2,-15,2,-9,0,-5,0,-1
450365510945,-5,13,0,-9,1,0,-1,-7
450365525957,3,12,0,-10,-2,-2,-1,-2
450365525957,5,12,2,-5,-4,-2,-1,-1
450365533466,3,-1,1,-25,-12,1,-3,0
450365533466,0,-13,-4,-17,-3,-7,1,1
450365549131,-4,-11,-3,12,5,-8,2,1
450365549131,0,-12,0,-38,-1,-9,-5,-6
450365549880,-4,-14,0,-16,2,-5,-2,-1
450365549880,3,-9,-5,-4,-5,-3,-7,-2
450365563521,0,7,-5,55,-6,-1,-4,0
450365563521,0,9,3,-66,-6,5,-5,1
450365571025,-6,4,-1,-51,0,-1,-4,-5
450365571025,-3,1,1,-47,-1,-1,-2,-1
450365586008,2,-8,3,9,3,5,-5,0
450365586008,0,1,3,-10,-5,-4,-3,-3
450365593522,1,2,2,11,8,-3,-5,-5
450365593522,-3,-1,-1,-59,-7,-1,-2,-3
450365609178,0,-7,-1,-37,7,-1,1,3
450365609178,-2,-15,1,35,0,-2,3,-1
450365609900,-2,-11,-6,-6,1,-1,0,3
450365609900,2,-9,-1,-7,-1,-1,1,-3
450365623455,-4,-10,-6,-8,1,-2,6,-5
450365623455,-4,3,-2,3,2,4,-5,-2
450365630954,-5,6,-1,34,1,3,-5,-1
450365630954,0,4,-1,27,2,-5,-1,1
450365645991,-2,7,0,-9,-1,6,1,0
450365645991,-6,2,2,64,-3,-3,0,-3
450365653464,0,1,3,9,-1,4,-5,-3
450365653464,2,-1,3,12,0,4,-3,-2
450365669145,1,2,-2,20,-3,4,-8,-3
450365669145,1,-5,-2,-58,-6,-1,4,2
450365669877,1,1,1,-56,-2,-8,1,-3
450365669877,-2,2,-6,-66,7,-6,4,-1
450365683475,3,3,-1,-74,0,-6,1,3
450365683475,0,-1,-7,27,1,1,-2,-1
450365690984,1,-1,-2,27,1,1,5,-1
450365690984,1,-8,3,48,-2,2,2,0
450365706009,-4,-6,-3,2,-5,3,3,0
450365706009,-5,-6,0,-21,-11,-8,-3,-3
450365713473,-3,-8,0,12,-2,-3,0,-4
450365713473,0,-7,1,61,0,2,-5,1
450365729043,-2,0,-2,16,5,2,1,-4
450365729043,-1,6,0,-128,5,-4,-1,-3
450365729843,2,-10,-8,-77,0,1,5,-2
450365729843,-2,-5,-1,75,5,9,3,3
450365743369,-1,3,1,66,1,3,-3,4
450365743369,6,9,8,84,-16,0,-2,2
450365750871,6,18,6,5,17,-5,0,3
450365750871,-5,9,-3,-10,-5,14,0,-4
450365765933,2,-15,-2,11,-2,-2,-6,-2
450365765933,-3,13,-2,-26,1,-6,-4,-4
450365773436,-4,9,6,59,4,-5,-5,0
450365773436,-9,18,7,43,4,3,-7,-2
450365789080,-6,-11,-6,-7,3,1,-2,-6
450365789080,5,-25,-12,1,-3,1,4,-1
450365789876,-3,-22,-9,31,-1,-7,1,3
450365789876,-1,-13,-7,16,2,-5,1,2
450365803425,1,5,5,22,-4,-7,7,-3
450365803425,0,9,-1,7,-5,2,4,-3
450365810971,5,10,0,4,-13,10,5,2
450365810971,2,13,2,-10,1,-1,3,-2
450365825932,1,16,8,-13,-3,-1,-7,2
450365825932,2,6,5,21,2,0,-1,-3
450365833444,-2,-5,2,62,6,10,0,1
450365833444,8,-10,-1,-49,-1,-10,3,3
450365849095,3,-8,-7,-20,8,-7,2,-2
450365849095,-8,-19,-8,-55,4,0,-4,-3
450365849857,-8,-5,3,-58,-11,2,-4,-1
450365849857,-3,-3,-2,-27,-4,-6,-3,-1
450365863490,-6,3,-5,-60,-4,-6,-4,-4
450365863490,-3,-8,-3,-15,0,4,0,0
450365871006,-3,-4,-1,16,-9,-4,-2,-4
450365871006,1,9,-8,-54,-8,-5,1,1
450365885987,-2,-8,-1,-56,3,9,-3,-4
450365885987,-7,-9,-6,26,7,-4,-6,-2
450365893491,1,-23,-3,16,-2,3,0,-4
450365893491,-4,-11,-3,4,6,-10,0,-1
450365909153,1,19,7,72,-5,3,0,2
450365909153,-2,26,4,11,7,3,2,4
450365909967,0,19,3,-37,3,-2,-7,-4
450365909967,-3,1,-1,-5,-1,5,-3,0
450365923514,-2,-12,-6,25,3,2,3,-2
450365923514,-2,-8,2,24,2,-12,-3,-4
450365931043,-6,6,-2,-2,2,-7,2,-1
450365931043,1,-1,1,13,-4,-2,3,0
450365945993,-2,-14,-3,-82,-10,-2,1,-1
450365945993,2,-6,-6,-59,0,6,1,-2
450365953500,-6,-7,-4,-50,-1,-1,-3,-3
450365953500,-4,-4,2,-55,-4,-4,-2,-6
450365969164,-5,-3,-1,-29,-1,-1,0,6
450365969164,3,-3,1,-35,-4,0,0,2
450365969933,5,3,-3,-14,-9,5,3,1
450365969933,1,-4,1,-45,-2,1,-6,-8
450365983522,-6,3,-3,-40,-7,-8,-4,-4
450365983522,-3,-1,-2,-30,4,-5,-9,-3
450365990975,-1,0,-1,3,2,-8,0,0
450365990975,4,-5,0,26,6,0,-2,1
450366006032,7,-5,0,-15,5,0,0,-5
450366006032,0,-8,-3,-2,4,-2,-3,-2
450366013536,-5,-9,-2,-88,-5,-2,-4,2
450366013536,0,-3,-4,-20,7,1,-3,-2
450366029219,-2,4,-1,26,3,4,-1,0
450366029219,-6,3,1,-29,-11,3,4,1
450366029971,-2,-2,1,-36,-2,-5,-2,-1
450366029971,-11,-10,-4,-79,-9,1,-1,-3
450366043498,-2,-8,-1,-51,-6,-1,-4,-2
450366043498,1,-1,4,20,-5,1,1,1
450366051069,3,0,1,31,2,-2,-4,0
450366051069,-2,1,7,38,-2,-3,-1,-1
450366065998,-2,0,0,-1,4,-1,0,-2
450366065998,0,-7,-1,-38,0,-3,-3,-2
450366073559,0,-4,-4,15,1,4,-1,-2
450366073559,2,-6,-3,5,1,0,-1,-1
450366089132,-3,-1,0,21,-1,-4,2,-2
450366089132,1,2,-4,-10,-2,1,-3,-2
450366089892,6,2,0,-2,1,-4,1,-2
450366089892,2,6,2,-7,-2,-1,-4,0
450366103431,4,6,2,59,-3,-2,-6,1
450366103431,0,-5,0,-2,-5,-4,-4,-7
450366110988,-2,-2,-1,10,-4,-3,-6,-7
450366110988,-4,1,2,0,-4,-1,4,-1
450366126060,-2,-6,-5,-7,1,2,-2,-4
450366126060,-2,-2,-9,42,5,-4,1,-1
450366141693,0,-7,-4,-4,-1,-3,2,-4
450366141693,1,-6,-5,63,-1,-4,0,0
450366149168,-1,0,-2,-5,2,-5,5,-3
450366149168,-2,-2,0,-34,0,-3,-6,0
450366149933,-5,5,-1,-15,-4,-1,-1,0
450366149933,0,3,5,-20,-4,-2,-7,-1
450366163539,-3,4,-4,-37,-4,0,-3,-2
450366163539,0,-1,2,-6,-5,4,0,-6
450366171036,-2,7,8,-73,-9,4,1,-1
450366171036,4,-3,0,-67,14,0,-4,-7
450366186043,-1,-11,0,29,-6,-6,0,-1
450366186043,0,-6,1,33,2,-10,-1,5
450366193505,-5,-6,-3,-39,1,-7,-5,-2
450366193505,1,6,-11,42,-3,4,0,3
450366209048,2,2,-2,39,-2,1,1,0
450366209048,3,0,-7,-23,2,3,1,0
450366209883,3,2,-2,16,-2,-7,6,-3
450366209883,3,-4,-3,49,-5,-11,1,-5
450366223450,-1,10,1,-37,4,-4,-8,0
450366223450,0,9,2,-29,-7,0,-1,1
450366230885,3,-8,-3,50,1,2,-2,3
450366230885,-2,-3,-3,7,1,-2,1,-1
450366245884,2,2,-2,-38,1,-4,-1,-2
450366245884,-3,-3,-4,23,3,4,-2,0
450366253393,2,-1,-5,18,4,1,-2,-1
450366253393,-2,3,-1,-27,-3,-1,-1,0
450366269086,-2,-9,-3,-14,-4,-8,4,-1
450366269086,-2,-8,-3,26,3,-8,-2,-4
450366269866,0,-7,-2,-9,1,4,-3,1
450366269866,1,-9,1,-18,0,4,3,0
450366284921,1,-2,1,13,-5,3,6,2
450366284921,2,3,-1,2,-2,1,-2,-4
450366290918,1,4,2,-13,-5,-5,6,3
