timestamp,emg1,emg2,emg3,emg4,emg5,emg6,emg7,emg8
41618721910,-1,-2,-2,-2,-1,-9,-8,0
41618721910,1,-1,-1,-3,-1,-1,-1,3
41618723564,-2,-1,-1,-3,-2,0,-2,-3
41618723564,0,-1,-2,0,0,2,1,1
41618726991,-1,-1,0,0,0,0,2,0
41618726991,-2,-1,-4,-3,-1,-1,-2,-2
41618729846,0,-1,0,0,-1,-2,-2,1
41618729846,-2,0,0,0,0,-4,-3,-2
41618733407,0,0,-2,2,1,2,1,0
41618733407,-1,-1,0,0,-1,0,-1,0
41618744889,-1,1,-2,-1,-3,-3,0,0
41618744889,0,-2,0,-3,-1,-4,-2,-2
41618757767,2,-2,-2,-1,0,2,-1,-1
41618757767,-2,0,1,0,4,4,1,-3
41618763451,-1,-2,-2,0,-2,3,-1,2
41618763451,0,-1,-1,0,-3,-16,-3,-2
41618772174,-1,-2,-1,-3,-3,-1,-1,-1
41618772174,0,-1,-1,-3,-3,-3,0,-2
41618787196,-1,-3,-1,0,3,5,2,-2
41618787196,-1,-1,-1,-1,1,10,-1,0
41618793557,-1,-1,0,-2,-4,-5,-1,3
41618793557,-2,-2,-1,0,-4,-14,-3,1
41618832235,2,0,0,-1,1,1,0,1
41618832235,-2,-2,1,-1,0,0,-2,2
41618840274,1,-2,1,-1,5,3,-1,0
41618840274,0,0,-1,-1,-5,0,-1,-2
41618841094,-1,-1,-1,-1,-2,-1,-1,1
41618841094,1,-1,-2,-1,-3,-3,-1,-3
41618842667,-3,-2,0,-1,0,-2,0,-2
41618842667,-1,0,0,-1,0,-2,-3,-2
41618853291,-2,-1,-2,-1,-2,-1,-2,-2
41618853291,-1,1,-2,-1,-1,-1,0,0
41618862194,-2,-1,0,-1,-4,-1,-1,0
41618862194,-1,0,0,0,0,0,0,1
41618868268,-1,-2,1,-1,0,0,-1,-2
41618868268,1,0,-2,-1,0,0,-2,-1
41618883255,-2,-2,-1,-1,-2,-1,-1,-1
41618883255,-1,0,0,-1,-2,-2,0,0
41618890761,-1,1,0,0,-1,-1,1,0
41618890761,-2,-1,0,0,-1,0,-1,-1
41618899715,1,-1,-1,-1,-2,-1,0,1
41618899715,-2,-3,-1,-1,0,0,0,-2
41618913316,-2,-1,-2,-1,-1,-1,-1,-2
41618913316,2,-1,-2,0,0,-1,-1,1
41618922215,-3,-1,-3,-1,-2,-2,0,-2
41618922215,0,-1,-1,-2,0,0,1,0
41618928242,-4,1,-1,0,-1,0,0,1
41618928242,4,-1,0,-2,-2,-1,-1,1
41618943288,1,-3,-2,0,0,0,-2,2
41618943288,-7,-2,-3,-1,-1,-1,-1,1
41618950758,-3,-3,-1,-1,0,-1,-2,-3
41618950758,-4,-3,-1,0,-1,-1,-1,2
41618959788,0,1,-1,-2,-1,-2,-2,-1
41618959788,-1,-1,0,2,-1,0,-2,-2
41618973252,0,-2,-1,-3,-3,0,-1,-1
41618973252,-2,-1,-1,-2,-1,-2,-2,-3
41618982255,-2,-1,1,-1,0,-1,0,-4
41618982255,0,-1,-1,0,0,-1,-2,1
41618988237,0,-1,0,-1,-1,-2,0,0
41618988237,0,-1,-2,-1,-2,0,1,-3
41619003262,-2,-2,-2,-1,-2,2,0,0
41619003262,1,-2,-1,-2,-2,-4,-4,-4
41619010773,2,-2,-1,1,-3,0,-1,0
41619010773,-3,0,0,0,0,-4,-3,-3
41619019745,0,-2,-2,1,-4,-2,-1,0
41619019745,1,0,-1,0,2,0,-1,-1
41619033280,-1,-2,-2,-2,1,-2,0,-2
41619033280,-2,-1,0,-1,-2,-1,0,-2
41619042252,1,2,-1,-1,-1,-3,-3,-1
41619042252,-1,-2,-1,-1,0,-1,0,-2
41619048274,-1,0,-1,-2,0,-4,-2,-3
41619048274,0,-1,-2,-2,0,2,-2,-1
41619063258,-6,-1,-2,-2,-2,-3,-1,-2
41619063258,6,-2,-2,-1,-3,0,0,-3
41619070769,-1,-2,-1,0,1,-6,-3,-1
41619070769,0,-3,0,1,0,0,0,0
41619079714,1,-1,0,-1,1,1,-1,0
41619079714,-4,-2,0,-1,-2,0,0,-1
41619093261,-3,-2,-2,-1,-2,0,-1,0
41619093261,-1,0,0,1,0,-5,-5,-2
41619102254,2,-2,0,-1,-1,-1,-1,-3
41619102254,-1,1,-1,-1,0,-2,1,1
41619108262,0,1,-1,0,-5,-1,0,-2
41619108262,-4,-3,-3,-5,6,5,2,-2
41619123328,1,1,-1,2,-7,-7,-3,0
41619123328,-1,-1,-1,-1,-3,1,0,-4
41619130818,1,-1,0,2,-1,-8,-5,0
41619130818,0,-2,-3,-4,-1,-1,0,4
41619147367,-3,-1,-3,-2,3,2,-1,-2
41619147367,1,1,3,0,-2,-2,-1,-1
41619153366,-1,0,-1,-1,1,3,2,-1
41619153366,0,-1,1,1,1,0,-1,-1
41619162328,0,-1,-2,-1,0,0,-2,-1
41619162328,-4,-2,-2,0,0,-2,-2,0
41619168286,-1,-2,-3,-2,0,2,0,-2
41619168286,2,0,0,0,-2,-1,1,0
41619184765,0,-1,1,0,-4,0,-1,0
41619184765,-2,-1,-2,-2,0,-2,-4,-1
41619190875,-1,-1,1,0,1,-1,-1,-1
41619190875,-3,-1,-2,-1,-5,-2,0,-2
41619199730,-3,-2,0,0,2,0,1,1
41619199730,0,-2,0,-1,0,-1,-2,1
41619213385,-3,-3,-1,-2,0,2,0,3
41619213385,-1,0,0,0,1,1,0,-5
41619222379,-3,-2,0,-2,-3,-4,-1,2
41619222379,-2,-2,-2,-1,0,-1,-1,-1
41619228289,0,-1,-2,0,-2,0,-2,-1
41619228289,-3,-2,0,-1,-3,1,0,0
41619244784,-1,0,-3,-2,1,1,-2,-4
41619244784,0,-1,-1,-2,0,0,-2,0
41619250787,0,-1,-1,-2,2,3,0,1
41619250787,-3,-3,-4,3,-9,-7,-2,-2
41619265781,2,1,3,1,-8,-5,-2,-1
41619265781,-2,-5,0,6,26,9,0,-2
41619273395,2,5,-2,-9,-15,-7,-2,-2
41619273395,-1,-1,-2,-1,4,5,2,0
41619282338,-1,-2,0,-2,0,-3,-4,-1
41619282338,-2,1,-1,-5,2,1,1,0
41619288368,0,-2,1,-1,6,2,0,-1
41619288368,-1,1,-1,1,2,-3,-1,-1
41619304837,-1,-2,-3,-1,3,13,1,0
41619304837,-3,-1,-2,-3,-6,-12,-1,-2
41619310837,-1,-2,0,0,2,2,-2,-2
41619310837,0,-1,-1,-4,-7,-13,-2,0
41619325766,-3,-1,0,1,3,5,1,-4
41619325766,0,-1,-1,-1,-8,-2,-1,-1
41619333321,-1,-2,-4,1,-3,1,-1,1
41619333321,-4,-1,1,1,2,1,-3,1
41619342318,0,-2,-2,-1,-5,-5,1,0
41619342318,1,-1,-2,-1,-6,-1,-2,-3
41619348305,0,-2,-3,0,1,2,2,-4
41619348305,0,0,-1,-2,0,-1,-1,1
41619364826,-1,-1,-2,-2,-1,-3,-1,-4
41619364826,1,-2,-2,-1,-5,-3,-2,1
41619370904,-2,-1,-1,1,-2,1,-2,-1
41619370904,1,0,-1,-4,-2,-1,0,0
41619385747,0,0,-2,-1,-3,-3,-1,-2
41619385747,-1,-2,-1,1,-2,1,-2,-2
41619393329,1,-2,-1,-1,-2,-5,-1,1
41619393329,0,0,1,1,1,11,0,-2
41619402248,1,0,-2,-1,0,-8,-1,0
41619402248,-1,-1,-1,-2,-4,0,-1,0
41619408382,0,-2,-1,0,4,-17,-1,-1
41619408382,-2,-2,-4,-1,-12,-11,-5,-3
41619424789,-2,-2,1,-1,1,3,-2,-1
41619424789,-3,-2,0,-2,-2,2,0,-1
41619430794,-1,0,-1,-2,0,4,-1,-1
41619430794,-3,0,-1,-1,4,1,0,0
41619445859,8,-1,-1,-1,-3,-4,0,-3
41619445859,-2,-2,-1,-1,0,-2,0,-2
41619453301,0,0,0,0,-7,-4,-2,-3
41619453301,0,-1,0,0,0,-1,0,0
41619462363,-3,-2,-4,-1,0,1,0,0
41619462363,0,-1,-5,-2,5,1,1,1
41619468293,2,1,5,1,-1,2,0,-2
41619468293,0,-4,-4,-2,-2,1,-2,-2
41619484799,-2,1,0,-2,-2,-5,-1,-1
41619484799,-2,-1,-1,2,-11,-9,-3,-3
41619490823,-2,-2,-2,-1,6,13,0,3
41619490823,0,0,0,-3,-10,-27,-3,0
41619505839,-6,-2,0,1,7,-8,-1,-3
41619505839,-2,1,2,0,2,10,0,-1
41619513347,-3,-1,-4,-2,-2,-2,0,-2
41619513347,-3,-2,-1,0,0,11,-4,-2
41619522312,8,2,0,-1,-3,4,1,0
41619522312,-1,0,2,0,-3,2,1,-1
41619535844,-1,0,1,-2,1,6,1,0
41619535844,1,-1,-1,-2,3,0,-1,-2
41619544832,-4,-1,-2,-1,-3,-4,-1,1
41619544832,2,0,0,0,-2,3,-1,-1
41619550895,2,-2,-2,0,0,-6,-2,-2
41619550895,-1,-3,-4,1,0,9,1,-1
41619565883,-2,1,10,-1,-3,-8,-3,-1
41619565883,1,-2,-1,-1,-2,-3,0,0
41619573424,-3,-2,-3,-1,-2,-7,-2,-2
41619573424,2,1,1,1,-1,0,3,0
41619582255,-3,-2,-5,0,-1,15,-1,-1
41619582255,0,-2,-2,-3,-5,-17,-5,0
41619595807,0,2,1,-1,1,7,1,-1
41619595807,0,0,0,-1,4,-7,-4,-3
41619604707,-1,-2,-4,-1,-6,-15,-7,0
41619604707,-2,-2,-1,-1,-1,0,-2,-1
41619610733,-1,-4,-1,-1,-2,6,1,-2
41619610733,-2,0,-1,0,1,9,3,1
41619625693,2,0,-2,-1,2,4,-1,-4
41619625693,0,-1,0,0,0,-12,-1,0
41619633267,-1,-2,-3,-1,-5,-9,-2,-1
41619633267,1,-1,-1,-1,1,9,1,-2
41619642254,0,1,-3,0,2,3,1,0
41619642254,-2,-1,6,-3,-9,-8,-2,-2
41619655787,2,-1,2,-1,0,3,0,-2
41619655787,-2,-3,-1,-1,-1,-8,-3,-3
41619664752,-6,-4,-7,-1,-10,-3,0,-3
41619664752,-2,0,-1,0,4,6,0,1
41619670742,-2,-2,-3,-1,-1,-8,-1,0
41619670742,0,0,-2,-2,-4,-1,0,0
41619686035,0,-2,1,-1,5,8,-1,1
41619686035,2,-1,-2,0,0,-7,-1,-1
41619693281,-8,-1,-1,-2,-8,-5,-4,-1
41619693281,10,-1,-2,0,8,2,0,-1
41619702269,-3,-4,-5,-6,1,0,-2,-2
41619702269,1,3,0,1,-9,-4,-3,2
41619715754,-1,0,0,1,4,-7,-1,0
41619715754,-2,0,-1,1,-2,0,-1,-2
41619724745,-1,-1,1,-3,2,5,2,-1
41619724745,-1,-3,-3,0,7,-6,1,-5
41619730751,-1,-2,0,-2,-3,-3,-2,0
41619730751,-1,-1,-1,-2,-5,0,-1,-1
41619745860,-1,-1,-2,-1,-2,-6,-1,-1
41619745860,-1,0,-1,0,2,11,0,0
41619753350,0,-1,-3,-1,-2,1,2,-2
41619753350,-1,-1,0,-2,0,-6,-3,0
41619762294,0,-1,0,-1,1,1,0,0
41619762294,-1,-1,0,0,-1,1,-1,-1
41619775843,0,0,0,-1,-1,-1,-1,-3
41619775843,-3,0,-1,-1,-2,-1,-3,0
41619784857,0,0,0,1,-2,-3,0,2
41619784857,-1,-1,-3,-3,0,3,-3,-1
41619790761,4,1,0,-1,1,-1,2,2
41619790761,-4,-3,-3,-3,-2,2,1,-6
41619805879,4,0,0,0,3,-4,-3,0
41619805879,-9,-4,-3,-2,-2,1,1,1
41619813371,8,-2,-2,0,0,0,-2,-2
41619813371,-2,-2,0,0,-2,-2,0,1
41619828360,0,-3,0,-1,-2,0,2,-2
41619828360,1,-1,-1,-1,0,2,-1,0
41619835784,-2,0,-2,1,-1,-1,-2,-1
41619835784,-1,-1,-1,-1,0,-2,-1,1
41619851387,-2,-2,-2,-2,-1,-3,-5,-1
41619851387,-2,-1,0,0,0,0,-1,-1
41619852164,-5,-2,-2,-1,0,1,0,0
41619852164,0,1,0,-1,0,-5,-2,-1
41619865819,-2,-2,-1,1,2,0,1,0
41619865819,1,-1,-4,-5,-11,-4,-5,-4
41619873347,-5,-1,-1,-1,-2,-4,-2,0
41619873347,-1,-1,-2,-2,3,2,-1,0
41619888371,-3,0,0,1,-9,-5,-1,0
41619888371,0,0,-2,-3,8,5,3,2
41619895798,0,-2,0,2,-7,-5,-3,-2
41619895798,-1,-1,-2,-1,-3,-2,-1,1
41619911539,-1,-1,-2,-1,-1,0,-2,-2
41619911539,-1,-2,0,0,3,3,-2,-1
41619912322,1,1,-1,-2,-9,-6,-2,0
41619912322,-2,-1,-1,1,0,-1,0,1
41619925881,-4,-2,-1,-2,-3,-2,-2,-2
41619925881,0,0,-1,1,-3,1,1,-3
41619933298,-2,-2,-2,-2,2,0,-2,-2
41619933298,0,0,-4,0,-2,-2,1,-1
41619948297,-1,0,-2,0,0,1,1,-2
41619948297,0,1,-1,-1,2,-1,-1,-2
41619956422,1,-1,-1,-2,1,3,2,2
41619956422,3,1,0,-2,-2,-2,-1,4
41619971445,-5,-1,0,-1,-2,-2,0,-1
41619971445,-1,-2,-2,0,2,-2,-2,-2
41619972237,-1,-1,-1,0,-1,-1,-1,-2
41619972237,1,-1,0,-2,-3,-2,-1,-2
41619985869,0,-2,-1,-1,3,1,-2,1
41619985869,-2,-3,-2,-2,-6,-5,-3,-2
41619993305,0,0,-1,-3,-3,-3,-3,0
41619993305,-3,-4,-2,0,-1,-1,0,-1
41620008263,1,1,0,-1,1,1,0,-1
41620008263,-1,-2,-2,-1,2,-2,0,-1
41620016463,0,-5,0,0,2,2,0,0
41620016463,-3,-2,-1,-1,1,-1,-2,-1
41620031397,0,-1,-2,-3,-1,0,1,0
41620031397,-1,0,1,-1,-2,-1,0,0
41620032158,0,-2,-1,0,-3,-1,-1,-1
41620032158,-1,-1,-2,-1,-1,0,0,-3
41620047309,-2,-2,-1,0,-1,-2,0,0
41620047309,1,-1,-1,-3,-5,-1,-4,-2
41620053436,0,0,0,0,3,-2,-3,-3
41620053436,-2,0,2,1,-1,1,2,-1
41620068353,-2,-4,-4,-2,-2,-2,2,-2
41620068353,6,-1,-1,2,-17,-13,-4,4
41620076575,-12,-1,1,-2,3,2,3,-3
41620076575,-1,-1,-1,-1,-3,-1,-1,-2
41620091479,0,1,-2,0,-2,-2,-1,0
41620091479,-1,-3,0,-1,5,7,2,-2
41620092274,2,-1,-3,-1,-3,-3,-1,0
41620092274,-3,0,-2,-1,-1,-3,-2,0
41620105843,1,0,2,2,7,1,1,-1
41620105843,-1,-1,0,-1,3,3,0,-2
41620113387,2,-2,-1,0,1,-1,-1,-1
41620113387,-2,-5,0,-1,0,0,-1,-2
41620128370,2,-1,1,0,-4,-1,-4,0
41620128370,-2,0,-1,2,1,0,-1,-1
41620136580,-1,0,-2,-2,-3,-1,0,-2
41620136580,1,-1,-1,-1,0,0,-1,0
41620151494,0,-1,-3,-2,-1,0,0,-1
41620151494,-3,-2,0,-3,1,-1,0,0
41620152259,-1,-3,-3,1,1,-1,-2,-3
41620152259,-3,-3,-1,-2,-4,-1,-4,-2
41620165857,1,0,-1,0,-2,-4,-1,-4
41620165857,-2,0,1,-2,1,3,0,-1
41620173384,0,-1,-2,-2,-2,0,2,1
41620173384,0,-2,-2,-1,-1,-2,-2,0
41620188349,-2,-1,-1,-2,-5,-3,-4,-1
41620188349,-2,-2,-1,1,-1,-1,1,-1
41620196488,-3,-1,-2,-1,1,0,-2,-1
41620196488,-2,-1,0,3,-3,-1,-3,0
41620211526,-1,-2,-1,-2,1,0,-2,0
41620211526,-1,0,0,-1,0,-2,0,0
41620212291,0,1,-1,0,-1,0,-1,-1
41620212291,-1,0,-1,-1,1,-1,1,-1
41620225758,-1,-2,0,-2,-2,1,-1,-1
41620225758,0,-1,-3,0,4,2,-1,-1
41620233341,0,-2,0,-2,-6,1,1,0
41620233341,0,-3,-2,0,1,-8,-4,-4
41620248310,1,-2,1,0,-1,-2,-2,3
41620248310,-3,0,0,1,4,3,-1,-3
41620256445,0,0,-3,0,-3,-2,-1,0
41620256445,0,-2,-2,-2,-1,-2,1,0
41620271435,0,-2,-1,-3,-5,0,-2,-4
41620271435,-1,0,-2,-1,0,-2,-3,0
41620272224,0,0,0,-1,1,0,0,1
41620272224,1,1,0,-1,-2,-1,-1,-2
41620285758,-2,-1,-1,-1,0,0,1,1
41620285758,0,-2,-1,-1,-1,-1,-1,-2
41620293327,0,-3,-1,0,0,1,-1,-1
41620293327,0,-1,-1,-2,-2,-4,-4,-1
41620308299,-2,-3,-1,0,0,1,-1,-2
41620308299,-1,-2,-2,-1,-2,-2,-1,0
41620316455,-1,0,0,-1,-1,0,-1,0
41620316455,0,0,0,-1,-1,1,-1,0
41620330773,-2,0,-2,-2,-4,-1,-2,3
41620330773,-4,-2,-3,-4,-3,-2,-2,-6
41620339057,-2,-1,0,-1,0,-3,-3,0
41620339057,0,1,-1,0,-1,2,0,-1
41620345898,0,-1,-2,2,3,-1,0,-2
41620345898,-1,-1,-2,-1,-2,3,0,0
41620353416,-3,-1,0,0,-2,-1,-2,-4
41620353416,-3,-1,0,-2,-1,-1,2,3
41620368262,-1,-3,0,-1,-1,-3,-3,-1
41620368262,-1,-2,-3,1,5,1,1,-1
41620376488,3,-1,-1,-2,1,3,0,1
41620376488,-2,0,-1,-1,-3,-5,-5,-2
41620391530,-2,-2,-2,-2,4,2,2,-1
41620391530,2,0,-2,-4,-9,-5,-3,-2
41620392264,-3,-3,-1,-2,3,2,1,-1
41620392264,0,-2,-5,-2,4,6,2,1
41620405852,1,3,2,0,2,-3,-3,0
41620405852,-2,0,0,0,3,-3,0,-5
41620413318,-1,-2,-3,-2,-1,-5,-2,-1
41620413318,0,-1,-3,-2,-2,1,0,-1
41620428361,-2,-2,-3,-2,-2,-3,1,-2
41620428361,-2,-4,-3,-1,-3,0,0,0
41620436563,1,-2,0,-2,-3,-2,-2,-3
41620436563,-1,-1,-1,0,1,2,-1,-1
41620451528,-3,-3,-3,-2,-4,-3,-2,-2
41620451528,1,1,0,1,-2,1,-1,1
41620452339,0,-2,-1,0,2,-3,-2,0
41620452339,-2,-3,-2,-4,-4,-4,-1,-1
41620465835,0,-1,-1,0,-1,1,0,0
41620465835,0,1,1,-1,-1,1,0,0
41620473362,-1,-1,-3,0,-5,-1,-1,-1
41620473362,-2,-1,1,1,3,1,0,0
41620488373,-2,2,-2,-1,-1,-5,-3,-2
41620488373,-1,-2,-2,-2,0,-1,-3,0
41620496574,1,-3,0,0,-1,1,-2,2
41620496574,-1,-1,0,-3,0,-1,3,2
41620510858,1,-1,-2,0,-1,2,1,-3
41620510858,-2,0,-1,-1,-1,-2,0,2
41620519036,-1,0,-1,0,-5,-3,-1,-4
41620519036,-2,-2,0,0,-1,-6,-5,-2
41620525861,-1,-1,0,-2,-1,-2,-1,1
41620525861,0,-2,1,-1,-2,-2,0,-1
41620541607,-2,-1,-2,-2,-2,1,1,-1
41620541607,0,-2,-2,-1,-5,-1,-2,-4
41620548372,1,0,1,0,0,-1,1,1
41620548372,-2,-4,-1,-1,-1,-2,-2,-1
41620556543,-3,-2,-1,-2,3,2,2,-1
41620556543,-1,-1,-1,-2,-3,-5,-3,0
41620579669,-1,-1,-1,-1,-3,0,-2,-1
41620579669,0,-1,-1,0,2,2,1,1
41620580450,-1,1,0,0,-1,0,-1,0
41620580450,-1,-1,-1,-1,-3,-2,-2,-3
41620585827,1,-2,-2,-2,-1,1,1,-1
41620585827,-2,-1,-2,-1,-4,-2,1,1
41620593366,-4,-3,-2,0,-1,-2,-3,-7
41620593366,-2,-3,-1,0,0,1,2,3
41620608379,-1,-1,0,-1,-3,-2,-2,-1
41620608379,1,0,-1,-2,-3,-3,-3,-1
41620616542,0,0,0,-1,0,-1,1,0
41620616542,0,-1,-1,-3,0,1,-1,-2
41620630846,-2,-3,-1,1,6,2,-2,-1
41620630846,-3,-1,-2,-3,-5,-1,-2,0
41620639053,0,1,-2,-3,-2,0,-1,1
41620639053,-1,-1,0,0,-3,1,1,-1
41620645908,-1,0,-1,-2,-1,0,-1,-2
41620645908,1,-2,-2,0,1,0,0,-2
41620653374,-2,0,-2,0,-2,-5,-2,-1
41620653374,-1,0,-1,0,2,2,1,1
41620668336,-4,-2,0,-4,-7,-4,-2,-2
41620668336,0,1,1,-1,0,-2,-2,-1
41620676601,2,-1,0,-1,2,-3,0,0
41620676601,0,-2,0,2,2,-1,-1,-3
41620690895,-1,-1,-3,-1,-3,0,-2,2
41620690895,-1,1,-3,-2,-4,0,2,0
41620699104,-1,-2,-2,0,2,-1,-2,-1
41620699104,0,-1,-3,-1,-1,-3,-1,-2
41620714040,0,1,-2,0,-4,-1,0,-1
41620714040,0,-2,0,-2,-2,-3,-3,-2
41620714759,0,-2,0,-1,0,1,0,-2
41620714759,-1,-3,0,-2,-2,-1,-1,2
41620728314,-2,-1,-2,0,-1,-1,0,-2
41620728314,0,-1,1,-1,2,0,-4,-1
41620736511,-2,0,-2,-1,-6,-2,-1,0
41620736511,1,0,0,0,-3,-3,-3,-3
41620750894,-1,-1,-1,-3,-1,-3,-2,-1
41620750894,-2,-1,0,-1,-2,-3,0,0
41620759051,0,-2,1,0,1,1,-3,-1
41620759051,-2,-2,-2,-1,-3,-1,-2,-1
41620774016,1,0,0,0,-1,1,0,1
41620774016,-4,-2,-3,0,-2,-3,-4,-5
41620774758,-1,-2,-1,-1,0,0,-2,-3
41620774758,-1,-3,-1,-1,2,3,1,1
41620788390,0,0,0,2,-4,-5,-1,0
41620788390,-1,0,0,1,-2,-4,-3,1
41620796554,-1,0,-1,-1,-3,1,0,1
41620796554,1,1,-1,-2,2,-6,-4,0
41620810863,-3,-5,-5,-2,-1,2,-1,-2
41620810863,-2,0,0,-2,1,2,1,0
41620819021,-1,1,-2,0,0,2,-1,-1
41620819021,0,0,0,-2,-2,0,3,0
41620834071,0,-1,-1,-1,0,0,-1,-3
41620834071,-1,-2,-3,-1,1,0,-1,-2
41620834858,-1,-3,-1,0,-2,0,1,-1
41620834858,-4,0,-1,-2,-3,-2,-2,-8
41620848341,-2,-1,0,-2,2,1,-1,6
41620848341,-1,0,0,0,-1,-2,-1,-2
41620856573,0,0,1,1,0,-2,0,-1
41620856573,0,-2,-2,1,-2,-2,0,1
41620870854,-2,0,-1,-3,-3,1,0,-5
41620870854,1,-2,-2,-1,-3,-6,-3,-1
41620879079,-1,-1,-1,-1,1,1,0,1
41620879079,-2,1,-2,-1,-3,-2,-1,-1
41620894055,1,1,0,0,2,2,-2,-2
41620894055,1,1,0,0,1,-3,-1,0
41620894835,1,0,0,-1,-2,-5,-1,0
41620894835,1,-3,-1,0,2,1,1,1
41620908333,-2,-3,-2,-1,-2,-4,0,-2
41620908333,1,1,0,0,-1,1,2,-2
41620916459,-1,-4,-4,1,-2,-2,-2,-2
41620916459,-3,0,-2,-2,-1,1,-2,2
41620930818,0,-2,-4,-3,5,-1,1,2
41620930818,-3,-3,-2,-4,1,4,2,-1
41620938958,-3,0,0,-2,-4,-6,-3,-1
41620938958,0,-2,-1,-1,-2,3,0,-1
41620953955,-3,-2,-1,-1,-2,0,-2,-6
41620953955,0,-2,-1,0,-1,1,0,-1
41620954735,0,1,-1,-3,-1,-2,-2,-1
41620954735,1,-1,0,-1,0,-2,-4,-1
41620968302,-1,-1,-2,-1,-1,-4,-3,-1
41620968302,1,-2,-3,2,-1,0,-1,0
41620976486,0,-2,0,0,1,0,1,-1
41620976486,0,-1,-2,0,0,-2,-2,-1
41620990837,0,-1,1,-2,1,-2,0,1
41620990837,-2,-1,0,-2,-2,1,-2,-2
41620998943,-1,-1,-1,-2,-1,1,0,1
41620998943,-3,-1,-3,0,0,-1,2,-3
41621013960,1,-1,-1,1,-2,1,-2,3
41621013960,-1,-1,-2,-1,-1,0,-2,-2
41621014707,-1,0,-1,-3,-3,-3,0,-1
41621014707,-2,-1,0,-1,-2,9,1,-1
41621028275,0,0,3,2,5,0,1,-3
41621028275,-3,-4,-4,-5,-5,-6,-4,-1
41621036429,-1,-2,-2,-2,1,1,-2,-1
41621036429,-3,-2,-1,-1,-3,-4,-1,-1
41621050791,1,3,1,1,3,2,1,1
41621050791,0,2,2,0,0,-1,-2,2
41621058952,-1,1,-2,-1,2,2,2,-1
41621058952,-1,-3,-1,-1,-1,0,-2,-1
41621073961,-3,-1,-1,-2,-6,-6,0,-2
41621073961,-1,-2,-2,-1,-3,-1,-6,-2
41621074738,1,-1,0,-1,-2,1,1,1
41621074738,0,-2,1,-1,0,-1,2,2
41621088398,-1,-2,-3,-1,-3,-1,-5,-3
41621088398,-1,-1,-1,-1,4,3,0,-1
41621096523,-1,-1,-1,1,-2,-2,-5,-2
41621096523,1,-2,0,-1,-1,-2,5,0
41621110900,-3,-2,-1,0,-2,-2,-2,-4
41621110900,-1,0,-2,0,-1,-2,2,-2
41621119108,-3,-2,-3,-1,-3,-1,-2,-2
41621119108,0,0,-1,-1,-1,-3,-4,-1
41621134072,-2,1,-2,-1,-1,2,1,1
41621134072,0,-2,1,-2,-5,-6,-1,0
41621134809,-1,-3,0,-2,-4,-2,1,-2
41621134809,1,0,-2,-2,-2,-6,-2,-2
41621148372,0,-1,-2,0,-1,-1,0,-1
41621148372,-3,0,-2,-2,-1,1,1,0
41621156585,-1,-2,-1,-1,0,4,2,-1
41621156585,-2,-2,-2,1,-1,-5,-7,-3
41621170835,-1,-2,-1,0,-2,2,-1,-3
41621170835,0,-1,-1,2,-2,-3,-1,0
41621179035,1,-2,-1,-2,0,-3,1,-1
41621179035,-2,0,-1,1,1,7,1,1
41621194042,-1,-2,-2,-1,-2,-6,-2,-2
41621194042,0,-4,-1,-2,1,-2,-3,-1
41621194798,-1,-1,0,-2,-1,-1,0,0
41621194798,0,0,-1,-2,-1,-3,-3,-3
41621208395,1,1,-2,-1,-2,0,1,2
41621208395,-2,-1,-1,-1,0,5,0,0
41621216506,-1,0,-1,0,-1,-7,-2,-2
41621216506,-3,-1,-2,-3,-1,11,0,0
41621230846,-2,-1,-2,-1,1,-7,-1,-1
41621230846,-2,-2,-2,0,1,-2,1,0
41621239061,-2,-2,-3,1,-3,0,-1,1
41621239061,-2,-2,-3,-4,3,1,-2,-1
41621254045,1,-2,0,-1,-4,-12,-3,-2
41621254045,-3,-3,-1,1,-4,-6,-1,-1
41621254820,-3,-2,0,0,0,4,-1,-1
41621254820,1,0,-1,-2,-2,1,1,-1
41621268391,-2,-2,0,-2,1,8,-2,-1
41621268391,1,-1,0,-1,1,0,-1,0
41621276591,-3,-3,-6,-2,-1,-3,-2,-2
41621276591,1,8,13,0,0,-5,-1,2
41621290885,1,-2,-1,-1,0,0,0,-1
41621290885,0,-1,-4,-2,-2,0,0,-1
41621299097,-1,-3,-3,1,-1,-2,-3,0
41621299097,-1,1,-3,-6,-1,-2,-1,-1
41621314004,-2,-3,-1,0,-2,2,0,0
41621314004,0,5,5,-2,-1,1,0,0
41621314803,-1,-2,-3,-5,-2,-3,-4,-2
41621314803,-2,-7,-8,2,-1,-2,0,-2
41621329879,-3,-9,-31,-3,-1,1,0,1
41621329879,0,5,20,-1,-1,-3,-3,-4
41621335787,1,7,15,-3,-3,1,2,3
41621335787,-2,2,0,-2,-2,-4,-3,-3
41621350894,-2,1,2,-1,-2,0,0,-2
41621350894,-1,-9,-18,0,2,-1,0,-2
41621359051,1,0,-2,-1,0,-3,-1,-4
41621359051,0,-4,-2,1,-1,-2,1,3
41621374096,-2,-2,-4,-2,-2,2,-2,-1
41621374096,0,4,5,-1,-2,-3,-2,0
41621374837,-1,-2,-3,-1,0,6,0,0
41621374837,-1,0,-2,-5,3,-12,-2,-1
41621388459,-1,-4,-9,0,-1,-4,-3,0
41621388459,-5,-11,-3,0,-1,0,0,-2
41621395936,1,3,-7,-8,4,6,2,2
41621395936,1,10,36,8,-6,-1,-3,-4
41621410874,0,6,20,1,3,-2,2,1
41621410874,-1,-3,-16,-4,-6,0,-1,-2
41621419052,-4,-11,-13,-5,-8,-3,2,1
41621419052,1,2,-8,-4,-24,1,0,-1
41621433286,1,1,5,4,30,0,0,0
41621433286,-1,-2,0,1,-3,2,0,-1
41621441485,-2,-3,-12,-1,0,-9,-1,-1
41621441485,-3,-7,-21,-4,0,-1,-3,0
41621448310,-1,-3,25,-2,-14,0,-1,-3
41621448310,0,-1,-9,-5,3,-1,-1,1
41621464039,-1,0,1,0,0,-2,-2,0
41621464039,-4,-6,0,2,13,2,1,-1
41621470787,-6,-2,-6,0,-12,0,-3,-4
41621470787,-2,1,-5,-3,12,-6,-2,-2
41621478984,0,-1,16,1,-7,-2,-1,-2
41621478984,-2,2,-6,-1,2,2,-5,-3
41621493380,0,4,-4,-2,-5,-9,-1,-1
41621493380,-7,-5,1,0,-4,-1,0,-1
41621501516,0,9,7,3,-1,5,1,2
41621501516,-6,-4,-3,0,10,-10,-4,-4
41621508310,3,0,3,-2,-2,8,-1,-1
41621508310,0,-5,2,1,1,2,0,4
41621515796,3,-1,-5,1,-4,-1,-4,0
41621515796,3,-7,-6,-5,0,1,1,0
41621530794,0,-2,-10,0,4,1,4,1
41621530794,4,9,27,-1,-9,2,0,-1
41621539019,-9,-9,-17,-1,1,-7,-7,-6
41621539019,3,5,27,-1,-22,-4,0,1
41621553294,2,5,-3,3,8,-2,-3,-2
41621553294,2,-2,-7,0,-3,6,2,1
41621561480,0,-4,-3,-1,-2,-5,1,2
41621561480,2,6,0,2,11,3,3,2
41621568249,-6,-6,-5,-5,-23,0,-2,-1
41621568249,1,-3,-4,1,17,2,0,-2
41621575760,4,3,6,-2,2,10,3,5
41621575760,-1,-13,-19,-5,-4,-13,1,2
41621590790,1,8,9,0,-4,6,1,0
41621590790,-3,1,-7,-1,1,-4,-1,-4
41621599036,-8,-14,-8,-6,-27,-8,-2,-6
41621599036,4,8,4,4,14,12,4,3
41621613367,-2,0,-3,-4,-10,-10,-2,-2
41621613367,1,-16,-14,-9,-15,-4,2,3
41621621616,14,12,5,-3,-36,-4,-5,3
41621621616,0,0,-2,9,58,4,-1,-2
41621636498,-1,-5,-4,-3,3,3,-2,-2
41621636498,-4,-2,-3,1,-2,-2,1,-1
41621637321,-2,-3,1,-2,4,-10,-1,-2
41621637321,-7,-6,-6,-4,-23,6,-5,-5
41621650861,5,-2,-22,1,9,-10,-2,2
41621650861,-1,6,27,-3,-10,3,2,2
41621659022,-2,2,-3,3,17,-2,-6,-5
41621659022,-3,1,7,-1,-9,-4,-1,-2
41621673390,-5,-13,-13,-6,5,8,7,2
41621673390,-2,0,-10,-6,-21,-3,-6,-4
41621681611,-2,1,6,4,15,4,1,-2
41621681611,-8,-10,-13,-5,-9,7,0,-3
41621696526,-8,2,4,-3,-6,-17,-9,-3
41621696526,5,-7,-10,-4,7,-7,-9,-5
41621697252,7,4,6,10,30,2,6,5
41621697252,2,0,-4,0,-9,-3,1,1
41621710862,-9,-6,6,1,-9,-4,-7,-8
41621710862,-8,-3,-3,6,31,8,2,1
41621719076,2,8,6,0,-4,-7,-8,-5
41621719076,1,2,0,-2,-3,-2,-2,-1
41621733310,-1,-6,-3,-3,-7,-5,1,1
41621733310,1,-5,-5,-1,-7,8,2,4
41621741514,-6,-19,-15,-5,-2,-1,3,2
41621741514,10,9,4,-2,-8,-1,3,7
41621756549,12,13,7,0,-1,-1,0,3
41621756549,-2,-5,-6,-2,-3,-4,2,0
41621757300,-9,2,-14,-2,9,1,-3,-8
41621757300,-4,-2,23,-2,-13,-5,-4,-5
41621770768,1,-12,-8,-3,2,4,1,1
41621770768,-6,7,3,2,-3,-2,-1,-3
41621778949,5,8,6,-1,2,3,-1,1
41621778949,-3,-8,-11,-2,3,-1,-3,0
41621793491,-1,4,4,-1,3,4,-2,-3
41621793491,-3,-8,-3,0,-6,-5,3,1
41621801594,9,15,14,3,0,-1,1,2
41621801594,-7,1,-2,2,-6,-1,-4,-9
41621816588,-3,-3,4,1,11,-4,-3,-4
41621816588,-1,1,-3,2,-5,1,-4,-1
41621817375,-7,-11,-4,-7,-4,2,1,-2
41621817375,-2,-6,-7,-2,-6,-4,-2,-1
41621830942,1,-5,-3,-1,-2,5,5,6
41621830942,6,9,-9,1,2,-7,-4,-1
41621839080,-2,3,13,-4,-4,5,2,0
41621839080,-3,-7,-7,-2,0,-5,-1,0
41621853432,6,2,5,1,0,-2,0,2
41621853432,-3,5,5,1,2,0,-2,-4
41621861548,-14,-29,-23,-11,-13,-10,-7,-5
41621861548,-9,8,-12,-1,4,-4,-13,-19
41621876575,6,1,14,-2,-9,6,5,5
41621876575,-2,13,11,4,-2,-4,-4,-4
41621877357,1,4,-1,0,1,0,-2,1
41621877357,0,-13,-11,-8,-7,-7,-1,2
41621890888,-9,-6,-10,-2,-7,-7,-5,-3
41621890888,1,0,1,-3,-8,-1,-1,-3
41621899903,-5,-8,-1,-2,-7,0,1,0
41621899903,2,-1,0,2,0,8,2,4
41621913499,-2,4,2,0,3,1,-1,-3
41621913499,4,-4,0,-1,4,-4,0,2
41621922317,-2,2,2,-1,-4,-1,-2,-3
41621922317,2,-5,-3,-4,-2,-3,0,-1
41621935848,4,7,2,2,-1,0,-3,1
41621935848,-2,1,2,2,6,2,0,-3
41621944827,-2,-5,-7,-1,0,3,-2,-2
41621944827,-3,-3,0,0,-4,-1,0,-2
41621950903,-1,-8,-8,-2,2,3,4,4
41621950903,-2,11,9,4,10,-3,-4,-3
41621959770,-3,1,7,1,-5,-2,0,-1
41621959770,-3,-3,0,-2,4,1,2,-1
41621973284,-5,-4,-6,-2,-3,-7,-6,-6
41621973284,-2,-8,-5,-2,4,6,3,6
41621982372,1,2,1,-1,1,-8,-1,0
41621982372,0,0,-1,-1,3,0,0,0
41621996276,-8,0,5,0,-6,-2,-4,-7
41621996276,0,-3,-5,-6,-8,-1,-2,-1
41622012959,2,3,3,2,5,6,1,-2
41622012959,5,-6,-5,-1,-5,-2,2,6
41622013821,-12,4,5,2,2,-3,-7,-12
41622013821,-4,1,3,0,-2,-5,-3,-3
41622025775,-1,-1,-2,-1,1,1,2,2
41622025775,10,7,1,2,-1,3,0,3
41622033300,0,3,-1,-1,-6,0,2,1
41622033300,-1,-12,-9,-5,-10,-3,-2,-1
41622042339,-2,1,-2,-2,1,-2,0,-2
41622042339,-4,-4,-3,-2,-1,-8,-3,-5
41622055860,1,-3,-4,-2,0,-2,-1,3
41622055860,3,0,1,0,-1,-1,-1,2
41622073010,1,-2,-3,-1,-5,-3,-2,0
41622073010,-1,0,3,1,7,7,0,-1
41622073797,-1,-2,-2,-1,1,-2,2,-1
41622073797,-4,-6,-3,-3,-4,4,1,1
41622079814,-2,1,-2,-3,-2,0,-3,-3
41622079814,-1,2,2,0,-2,-3,-4,-4
41622093461,2,-1,-2,1,9,2,1,1
41622093461,1,1,-4,-4,-9,-5,-6,-6
41622102370,2,-1,-3,-3,0,-4,-2,3
41622102370,-11,-16,-9,-5,-8,-7,0,-1
41622115944,7,11,2,3,5,8,4,5
41622115944,0,-4,-3,-2,-7,-3,1,-1
41622124809,-1,0,0,2,4,2,-4,-3
41622124809,1,1,-2,-1,4,-6,0,2
41622130936,-1,-9,-6,-4,-7,-1,0,-5
41622130936,-5,0,-1,-2,-4,-3,-1,-4
41622139892,-2,-4,-6,0,2,6,4,-1
41622139892,3,4,9,0,-1,-2,-2,2
41622153471,-2,-6,-6,-3,-1,2,-1,0
41622153471,5,13,10,1,1,-1,1,4
41622162464,-3,-3,-3,-1,4,1,-3,-1
41622162464,-1,4,0,-1,0,6,1,-1
41622175915,1,-1,0,-3,-3,0,-3,-3
41622175915,-2,-8,-6,-1,4,0,2,2
41622184922,1,2,1,-1,-3,-6,0,1
41622184922,-2,1,0,0,-12,-8,-4,-3
41622190834,-3,-3,-5,-3,-2,6,-2,-2
41622190834,-3,-4,-5,-4,-3,-8,-1,1
41622199793,-6,0,5,-3,-3,-1,-1,-6
41622199793,-4,-3,-5,-6,-12,-3,-3,-1
41622213531,2,5,6,4,7,-3,0,-1
41622213531,1,1,0,3,5,1,0,-2
41622222390,-1,-4,-6,-3,-7,1,-2,-2
41622222390,3,7,5,3,6,1,1,-2
41622235892,-5,-4,-10,-4,-1,-5,-2,4
41622235892,1,-1,4,0,1,1,0,0
41622244856,3,1,1,0,-1,0,0,1
41622244856,0,-6,-4,-2,2,4,2,3
41622250847,2,6,4,2,5,-4,-4,-3
41622250847,2,-4,-5,-1,-1,-4,-4,-2
41622259866,-3,-5,-1,1,4,-3,-1,1
41622259866,3,4,2,1,5,1,-1,0
41622273424,-5,-7,-3,-4,-8,0,-1,-2
41622273424,-2,0,-1,-3,-9,-7,-5,-1
41622282445,2,5,4,2,7,-1,-4,-4
41622282445,-4,-4,-1,0,2,-1,1,2
41622295883,-5,2,6,2,0,-3,-4,-4
41622295883,-2,0,1,2,3,6,1,-5
41622304842,-5,-7,-7,-3,-4,-6,-1,-2
41622304842,-7,-6,-4,-4,-2,-4,-5,-6
41622310790,0,4,6,4,9,1,0,0
41622310790,-3,-4,-1,-4,-7,2,0,-1
41622319830,-3,0,-3,0,6,2,2,-2
41622319830,1,-4,1,0,0,1,2,4
41622333377,4,1,-2,-3,-8,-2,1,1
41622333377,1,-4,-5,0,2,2,0,1
41622342349,-3,0,-1,-3,-6,2,0,1
41622342349,-1,-5,-4,1,-3,-3,2,2
41622355813,0,-3,-6,-5,-3,2,0,0
41622355813,-2,-3,-4,-2,1,1,1,1
41622364801,1,2,5,1,-5,-3,-5,-2
41622364801,-2,0,-4,0,-1,0,0,-5
41622370782,0,-1,1,-1,-2,-4,0,1
41622370782,-8,-4,-3,-2,1,1,0,-5
41622379810,1,-4,-2,-2,-4,-1,1,2
41622379810,-3,0,0,-1,-7,-6,-5,-1
41622393285,-2,-2,-3,-1,-4,-3,-1,-2
41622393285,5,3,1,-1,-2,-4,0,0
41622402361,2,-5,-1,2,10,-3,1,4
41622402361,2,3,2,-1,-6,0,3,0
41622415974,0,5,5,1,-3,-1,0,0
41622415974,0,-1,-2,-3,0,-3,-2,1
41622424832,0,-4,2,-1,-6,-2,0,-3
41622424832,1,-2,-6,-7,-1,2,-1,-1
41622430888,-2,-4,1,0,0,2,-1,-3
41622430888,0,-1,1,2,3,-1,1,5
41622440529,0,1,-1,1,-2,2,1,1
41622440529,0,0,-2,2,4,3,-1,1
41622453439,1,0,-3,-3,-2,0,0,-2
41622453439,-2,5,4,1,-1,-2,-5,-6
41622462490,-3,-4,-5,-3,-4,-2,0,-2
41622462490,-1,-3,0,-1,-1,-1,0,1
41622475902,-3,-1,-2,-1,-2,0,-2,-3
41622475902,2,2,2,2,4,1,3,1
41622484863,-4,1,-4,-2,-4,-3,-1,-3
41622484863,2,3,1,-1,-2,-3,-2,0
41622490954,-5,-6,-3,-1,0,-1,-2,-1
41622490954,-1,-4,-3,-1,-3,2,-1,-2
41622499834,0,3,1,-2,-3,-6,-4,-5
41622499834,-4,-3,-4,-2,-5,-6,-7,-2
41622513514,1,-2,-3,-1,1,1,-1,2
41622513514,-5,-5,-7,-2,-4,-7,2,-2
41622522367,-2,1,1,0,-2,5,0,-2
41622522367,-1,-3,-5,-2,2,1,2,2
41622536573,1,-4,-6,-4,-2,-4,-1,-1
41622536573,-3,-7,-7,-6,-9,0,-2,-3
41622543396,1,-1,5,0,-4,-9,-1,0
41622543396,-4,2,2,1,3,1,-1,-3
41622550916,-2,0,1,1,4,0,-1,-1
41622550916,1,-1,-6,-2,1,0,1,0
41622559915,0,-5,-6,-3,2,2,0,0
41622559915,-2,-1,3,1,2,4,1,-2
41622573412,0,-2,-3,-3,-3,-7,-3,0
41622573412,-1,-2,-1,0,0,2,-1,-2
41622582482,3,1,1,-2,-2,0,-1,-1
41622582482,-1,3,3,3,0,1,-2,-2
41622596493,0,1,1,2,-1,-1,-1,-1
41622596493,-2,0,2,0,-1,-1,-3,-2
41622603438,-2,-6,-12,-2,-5,-4,-2,4
41622603438,-1,0,6,-1,0,1,0,-1
41622619702,2,3,-1,0,0,1,0,-2
41622619702,-1,2,1,2,7,1,-1,0
41622621342,0,-2,-1,1,1,-3,0,-2
41622621342,0,-3,-5,-2,-2,-1,-1,-3
41622633355,-3,-5,-4,-3,-6,3,-1,-2
41622633355,-1,1,3,-2,2,-4,-1,1
41622642378,-4,-3,-4,-4,-2,6,0,-2
41622642378,0,2,-2,0,0,-5,2,2
41622656528,-3,1,1,-2,-2,-1,-1,-2
41622656528,-1,-4,0,-1,-8,1,-1,0
41622663376,-3,-1,-2,-1,-1,-1,2,-3
41622663376,1,-1,-2,-1,1,-1,-1,0
41622679683,3,-2,-2,-4,-10,-6,-2,-2
41622679683,2,1,-1,-1,4,-5,-2,0
41622681270,-1,4,7,3,5,5,-1,-1
41622681270,-2,-3,-1,-1,-3,2,0,-1
41622693367,-3,-6,-4,-2,-3,-4,-3,-3
41622693367,0,0,-5,-2,-8,-2,-2,1
41622702332,0,2,5,2,3,-2,0,2
41622702332,-1,0,-2,0,4,-1,-2,-2
41622716628,2,-1,-3,0,2,-1,-1,1
41622716628,-4,-3,1,-1,-4,-1,-1,-6
41622723525,-1,0,-3,-3,-4,-1,0,0
41622723525,-2,3,3,1,0,-1,-2,-1
41622739750,-4,-3,-2,0,1,1,0,0
41622739750,2,0,-1,2,9,3,2,-1
41622741303,-2,2,1,-1,-4,-5,-5,-2
41622741303,0,-1,-2,-1,-3,-3,-2,1
41622753429,-5,-2,-4,-3,-4,-2,1,-4
41622753429,-2,0,0,2,2,1,0,-1
41622762452,-3,-6,-6,-2,-1,-1,2,1
41622762452,-1,-5,-2,-2,-2,0,-2,-1
41622776603,0,-4,2,1,1,4,3,2
41622776603,2,1,-1,-2,-2,-4,-1,2
41622783471,2,-1,-2,-1,-2,0,-1,0
41622783471,-2,-4,-7,-6,-4,-6,-4,0
41622799808,0,-1,-5,0,1,2,-1,1
41622799808,-1,5,11,-1,1,6,0,0
41622801397,2,-2,-1,-1,-3,-3,-2,0
41622801397,1,1,1,-1,0,-2,1,-3
41622813384,-3,-3,-2,1,0,-1,-1,0
41622813384,-3,-6,-11,-5,-4,-4,-4,-1
41622822414,-3,-1,-2,0,0,1,-1,-5
41622822414,-6,-3,-1,0,-1,0,-3,-5
41622836580,-4,-1,-3,-1,3,-1,2,-1
41622836580,-1,-4,-1,-2,-1,0,1,0
41622843413,0,-1,-3,-3,-4,-2,-2,1
41622843413,3,0,7,1,-2,-1,-1,-1
41622859751,2,0,-1,-1,3,3,0,1
41622859751,0,1,6,2,-2,-4,-3,-1
41622861300,-1,-1,-9,-5,-3,0,0,-1
41622861300,-1,1,0,1,1,5,3,1
41622873450,-1,0,0,-1,-2,-11,-4,0
41622873450,-2,-3,-3,-3,-2,-2,2,-3
41622882443,-2,0,4,0,0,-2,-1,2
41622882443,0,-1,-6,-3,-2,-1,0,2
41622896631,0,4,4,0,-2,-1,-1,-1
41622896631,-2,-3,-5,-2,-2,-4,-2,-1
41622903460,-3,0,1,1,0,2,1,-6
41622903460,1,-1,-3,-2,-2,1,-2,-1
41622919752,-1,-2,-2,-2,-3,-1,-2,-3
41622919752,-1,2,0,2,1,0,0,-1
41622921348,0,0,1,0,-2,-2,-2,-1
41622921348,-2,-1,-1,-1,-1,-1,-1,-1
41622933294,0,-1,-1,1,0,-1,0,1
41622933294,-2,-2,-1,-2,-4,-1,-1,-1
41622942354,-1,2,3,0,-1,-3,-2,0
41622942354,-1,-4,-5,-3,-3,-3,0,0
41622956492,3,-3,-4,-1,-1,-1,1,-1
41622956492,-1,-2,2,-3,-3,-4,-4,-4
41622963296,-1,-2,-3,-1,0,-3,-3,-2
41622963296,1,-3,0,3,2,-2,-1,1
41622979668,2,-1,0,-2,-2,2,0,3
41622979668,2,2,-3,-1,-2,1,1,4
41622981252,0,3,5,3,5,2,-1,-3
41622981252,-2,-2,-5,-3,-3,-1,-1,-4
41622993423,-4,-2,-3,0,0,-4,-2,-2
41622993423,-2,-2,-1,-2,1,1,0,-2
41623002352,0,-2,-1,-2,-2,-2,1,-2
41623002352,-1,-1,-2,-2,-2,3,0,-1
41623016535,-2,-3,-4,-3,0,4,-2,-4
41623016535,1,1,1,0,-4,-2,1,4
41623023383,0,-2,-1,-3,1,-4,0,1
41623023383,-3,2,2,3,4,-1,-1,-1
41623039725,1,-1,3,-3,-1,-4,-1,1
41623039725,-4,-7,-3,0,-1,0,0,-3
41623041339,-1,-5,-5,-2,-2,3,0,-1
41623041339,0,2,-3,-1,-1,-2,-2,-1
41623053302,-1,3,4,2,-1,2,1,0
41623053302,-3,-3,-7,-2,-2,0,-2,-3
41623062349,0,-1,1,-2,0,-1,-1,0
41623062349,0,-2,2,-1,-3,-4,-5,3
41623076647,-7,0,2,2,4,0,-2,-4
41623076647,1,0,-2,-3,-4,-4,0,-1
41623083479,-1,-2,-1,-1,1,1,3,1
41623083479,-3,-1,1,1,0,1,-2,-4
41623099808,-2,0,0,-2,-5,-4,-3,-4
41623099808,0,-1,-1,-3,-1,-2,0,2
41623101289,-1,-2,-2,-2,-3,1,-2,-2
41623101289,-4,0,-2,-3,0,-5,-1,-2
41623113378,0,-1,1,2,-1,-4,-2,0
41623113378,-3,-1,-3,-1,1,-1,-2,-2
41623122415,-4,-2,-1,-1,-3,4,0,-1
41623122415,0,-2,-1,-1,-2,-1,0,1
41623136596,1,0,-1,0,-3,-1,-1,0
41623136596,-1,-1,0,1,2,-1,-1,0
41623143503,0,-2,-8,-2,-2,0,0,1
41623143503,0,-3,7,-1,-3,1,-1,-2
41623159776,-1,-3,-1,-2,-1,-1,-1,0
41623159776,0,1,-1,1,0,-1,0,-4
41623161499,-1,-1,-3,-1,-2,-4,-5,-2
41623161499,-3,-1,-2,0,1,-5,0,0
41623173486,-6,-2,-3,0,-2,1,-1,-3
41623173486,-5,-7,-5,-3,0,4,-1,1
41623182377,-6,-4,-3,-2,-4,-1,-2,-5
41623182377,2,-2,-4,-2,3,-1,1,2
41623196638,-1,-1,1,0,0,-4,2,0
41623196638,2,1,-1,-2,-2,-2,-2,-1
41623203420,-2,-2,-3,-2,-3,-1,-2,-1
41623203420,-2,-4,-3,1,-4,3,0,-1
41623219691,2,-1,-8,-5,0,3,0,1
41623219691,-1,0,4,1,-2,-4,-2,-3
41623221353,1,0,0,-1,1,-3,0,3
41623221353,1,2,1,1,-2,-1,0,0
41623233406,0,-2,-4,-3,-2,0,-2,-2
41623233406,-3,-1,-2,-1,-3,-1,-1,-1
41623242336,1,1,0,1,-2,-6,-2,-1
41623242336,-3,-3,-4,-1,0,-2,-1,-3
41623256515,-1,-2,0,-2,-3,0,0,3
41623256515,-1,0,-2,-2,0,2,-6,-3
41623263393,-1,-3,-2,2,2,0,0,1
41623263393,-1,-1,-6,-5,-2,-2,-2,-4
41623279795,0,-1,3,0,-1,-1,1,5
41623279795,-5,-1,-3,-1,1,0,-2,-1
41623281351,1,-1,-1,-1,-1,-2,-2,0
41623281351,1,1,-1,1,-1,2,-1,-2
41623293385,-3,-3,-2,0,5,-3,-2,-3
41623293385,-2,-3,-2,-2,-2,-1,1,1
41623302339,-2,-1,1,-1,-1,0,1,-3
41623302339,-1,-2,-1,-1,-3,-2,-2,1
41623316544,-1,-3,1,1,-1,-2,-2,-6
41623316544,2,2,0,0,1,-1,0,0
41623323410,-2,0,0,-3,-4,0,-2,0
41623323410,0,-1,1,0,-1,-2,1,0
41623339160,-2,-2,-4,-2,-5,-7,-5,-6
41623339160,1,-2,2,0,-1,0,0,0
41623345952,-1,1,4,0,0,0,-2,-1
41623345952,-1,-4,-4,-3,-2,1,-1,0
41623353476,0,-1,0,-2,-3,1,0,-1
41623353476,2,0,-3,1,-1,-4,1,0
41623362422,-4,-1,-3,-1,2,-2,1,1
41623362422,4,1,1,0,0,1,-1,-1
41623376609,-2,2,0,1,2,1,0,1
41623376609,-1,-2,-2,-2,-1,-1,0,-1
41623383408,1,-2,-1,-1,-1,-2,0,3
41623383408,-1,-2,-3,-2,-3,-6,-2,0
41623399124,-2,0,0,-1,-3,2,0,-1
41623399124,-2,-2,-4,0,0,1,-2,-2
41623405828,5,2,4,0,-2,2,0,-1
41623405828,-1,-2,-2,-3,-2,-2,-2,0
41623413467,1,2,1,-1,-1,-8,1,1
41623413467,-1,0,0,-3,-1,3,0,-1
41623422440,-4,-1,-1,-1,0,0,-1,-4
41623422440,1,-1,0,1,-2,1,0,-1
41623436677,-3,-1,0,-1,-1,0,1,-2
41623436677,0,-1,2,-1,1,-5,-2,-3
41623443444,1,-2,-2,0,1,0,-2,-1
41623443444,-1,1,-1,-1,-1,-2,-1,-1
41623459122,-4,-3,0,-2,-5,-3,-3,-2
41623459122,0,-2,-1,0,-1,1,1,3
41623465953,-1,2,-2,-1,-3,-3,0,-6
41623465953,-3,-4,0,-1,1,-2,-1,-1
41623473514,1,-2,-3,-1,-1,3,-1,-1
41623473514,0,-4,-2,-1,-1,-1,-1,-1
41623482441,1,1,9,0,-2,-1,0,1
41623482441,-1,-2,-5,-3,-2,-1,-2,-1
41623496611,2,0,-3,0,0,-3,0,0
41623496611,1,0,1,0,0,0,1,-1
41623503465,-1,-1,-3,0,2,-2,0,0
41623503465,-2,1,0,1,1,1,1,-2
41623519634,1,1,-2,-1,-1,-3,-1,0
41623519634,-3,-1,0,-1,-2,-2,-2,-2
41623525958,1,-3,-8,-5,-2,3,-1,0
41623525958,1,3,5,1,0,-1,0,-1
41623542306,2,-1,-2,-2,1,2,0,2
41623542306,-7,-4,-2,-2,-4,-5,-2,-4
41623543860,-1,-3,2,1,1,-1,-1,-3
41623543860,-1,-3,-2,-2,-2,-1,0,-1
41623556634,-2,-2,-3,-2,0,-6,-4,-3
41623556634,-1,-4,-3,-1,1,-1,0,-1
41623563516,0,-3,-4,-1,0,0,3,5
41623563516,-5,-2,-3,-2,-1,2,-1,-4
41623579151,-2,-1,3,-1,0,-3,0,0
41623579151,-1,-1,-3,0,-3,-1,-2,-3
41623585861,-2,0,3,0,-1,0,-2,-1
41623585861,-2,-1,-1,0,0,-2,-2,-2
41623602226,-1,-3,-1,-3,0,4,1,-1
41623602226,2,2,2,-1,1,0,-2,1
41623603827,-1,-2,-4,-2,-2,-3,-2,-2
41623603827,2,1,2,1,-4,-3,1,1
41623616528,-2,-1,1,1,0,-1,-3,-2
41623616528,-3,-3,1,3,0,-2,-1,-1
41623623390,-4,-5,-7,-5,-3,-1,-2,0
41623623390,-2,1,2,-1,1,-5,-3,-2
41623639053,0,-1,0,1,-2,0,-1,2
41623639053,-2,0,0,-4,0,-2,0,-2
41623645891,-7,-2,-1,-2,-2,-2,-2,-4
41623645891,0,-4,-6,-5,-4,-1,0,1
41623662177,-1,-1,-2,0,-2,-1,0,0
41623662177,-1,1,-1,-2,0,-2,-1,1
41623663766,0,0,-2,0,0,1,-1,-2
41623663766,0,-1,-1,-1,-1,-3,-1,-1
41623676598,-3,-2,-2,-1,-4,-3,-2,-2
41623676598,1,-2,-2,-2,-1,2,1,-1
41623683505,-2,-1,-2,1,-1,-1,0,0
41623683505,-2,-2,-2,-1,-1,3,-1,-1
41623699176,0,-3,-2,-3,-3,-10,-1,-1
41623699176,-1,1,-1,-1,0,1,-1,0
41623705948,0,2,3,-1,-1,-2,-1,-2
41623705948,0,0,0,0,-1,4,-2,1
41623722310,-1,-1,0,-4,3,7,0,1
41623722310,-2,-2,-4,-4,-2,-6,-2,-5
41623723914,-3,2,2,2,0,-1,0,-3
41623723914,-3,-3,-4,-5,-1,-8,-5,-2
41623736600,2,1,0,1,2,1,-1,0
41623736600,1,-1,-1,1,0,0,0,4
41623743429,1,1,-2,0,0,-1,-2,-3
41623743429,-1,-1,3,-1,-2,0,-1,-2
41623759157,-3,-1,-2,0,-2,2,2,0
41623759157,-1,-3,-2,-2,-2,0,-1,-1
41623765964,-2,-3,-5,-5,-3,-6,-2,0
41623765964,0,-1,-4,-1,-1,-1,2,-2
41623782231,-1,-1,0,0,0,2,0,-2
41623782231,0,-1,-1,0,-1,0,-2,0
41623783837,1,-3,-2,-3,-1,1,-2,-1
41623783837,-1,0,-2,-2,1,-1,-2,0
41623796612,-3,-1,1,-1,-2,-4,-1,-5
41623796612,-2,0,-2,-2,1,2,1,-2
41623803437,-2,-1,-1,1,-1,-1,-1,-2
41623803437,-1,-5,-4,-2,-4,-3,-2,-1
41623819135,-1,0,-1,-1,0,0,-1,0
41623819135,-1,-2,-5,-3,-4,-6,-2,-3
41623825913,0,2,2,1,0,2,-1,1
41623825913,-3,-1,1,2,-1,2,1,0
41623842251,-1,-3,-5,0,-1,1,0,-2
41623842251,0,-1,1,0,-2,-6,-3,0
41623843921,-3,-3,-5,0,0,-1,-2,-3
41623843921,-2,-4,-1,0,0,-1,-1,2
41623855950,0,0,2,-1,-2,-5,-2,-2
41623855950,0,0,-3,0,-1,4,1,0
41623864881,0,-2,3,0,-3,-2,-1,-1
41623864881,1,2,0,0,0,-2,-2,0
41623879112,-1,-1,-1,-3,-1,-2,0,0
41623879112,-2,-2,0,-1,2,-1,-2,-1
41623885831,-1,-2,-5,-4,-3,-2,1,1
41623885831,1,-1,-5,-1,0,5,3,0
41623902202,-1,-2,-3,-1,-2,-2,-3,-1
41623902202,0,-2,4,0,-1,-1,0,-1
41623903803,1,-3,-2,0,0,3,1,1
41623903803,2,1,3,-1,1,-4,0,-2
41623916517,-2,1,-5,-2,1,2,1,-2
41623916517,-2,-2,-2,-2,-2,2,-2,-1
41623923377,-1,0,-1,-2,-2,0,-1,1
41623923377,-1,-2,-1,-1,-2,-6,-3,0
41623939087,0,-1,-4,-3,-1,1,-1,-2
41623939087,-2,2,0,1,0,0,0,0
41623945837,0,0,2,1,0,-3,-2,-2
41623945837,-1,-1,-1,1,-1,0,1,0
41623962242,-3,-3,1,0,-1,0,-2,-1
41623962242,-2,-1,-1,-2,-3,-6,-1,-1
41623963813,-1,-1,-1,-2,-2,0,-2,-3
41623963813,-2,-2,-5,-3,0,-3,-1,-3
41623976615,1,1,5,3,0,3,-1,1
41623976615,-1,-3,-3,-4,-3,-3,-1,-2
41623983365,-2,-2,-6,1,2,-1,-2,1
41623983365,-2,2,8,0,0,-1,-2,-5
41623999067,-2,-3,-4,-2,-1,-4,1,1
41623999067,-1,0,0,1,-1,-2,-3,-4
41624005933,-2,-2,-1,-2,-2,-1,0,0
41624005933,-2,-1,-4,-2,-2,3,0,-2
41624022285,-2,-2,-4,-1,-1,0,-1,-2
41624022285,2,3,2,0,1,0,1,-1
41624023883,2,-1,-1,-2,-2,-4,-3,-1
41624023883,-2,-2,-2,-2,0,1,0,3
41624035937,-1,1,1,-1,-1,-3,-2,-1
41624035937,-1,-3,-3,0,-1,-2,-1,1
41624044892,-1,-2,0,-1,-2,-2,-1,-3
41624044892,-2,-2,-2,0,-2,2,-1,-2
41624059118,-2,-2,-3,-3,-3,-2,0,-3
41624059118,-2,-6,-3,-5,-4,2,3,4
41624065985,5,9,6,4,1,-4,0,1
41624065985,-1,0,2,1,0,-2,-2,-3
41624082327,1,-4,0,-1,-1,1,-1,1
41624082327,0,-2,-1,-2,-1,0,0,-1
41624083837,-1,-3,-2,-3,-2,3,-1,-3
41624083837,0,-1,-4,-2,-3,0,0,1
41624095888,-1,0,2,0,1,-3,-1,-1
41624095888,0,1,0,1,0,-2,-2,-1
41624104965,-4,-3,-2,-2,-1,-1,1,-1
41624104965,-1,0,-1,-1,0,-3,0,-2
41624119154,-3,-3,-9,-3,-4,1,-3,-2
41624119154,-2,-2,1,-2,-3,1,-1,-1
41624125971,1,3,7,2,3,-3,0,1
41624125971,-1,-1,0,-1,0,4,0,0
41624142251,-2,-1,3,0,1,-5,-1,-1
41624142251,-3,-2,-6,-1,-1,-4,0,-2
41624143881,-1,-4,-4,-1,-2,3,-2,0
41624143881,-2,-2,-2,-2,-1,-1,0,-2
41624155944,0,2,-2,0,-2,-1,0,0
41624155944,0,-1,-2,-1,0,0,-1,-2
41624164884,-1,1,2,0,-1,-2,-2,0
41624164884,-1,-2,-2,0,-1,-3,-1,-3
41624179086,-2,-1,0,-1,-2,1,1,-1
41624179086,-2,0,0,-1,1,-2,1,0
41624185934,-3,-4,-3,-3,-4,-3,-2,-2
41624185934,0,-1,0,-1,0,-1,-2,-1
41624202257,1,0,2,0,2,-1,-1,-2
41624202257,1,1,1,-2,0,0,-3,-1
41624203889,-1,-2,-2,-1,-1,-1,1,-1
41624203889,-3,1,-4,-3,-1,-3,-1,-1
41624215899,1,-2,-5,0,-1,-1,-3,-1
41624215899,0,0,4,-1,0,-2,-2,0
41624224894,-2,0,3,2,-1,3,0,-1
41624224894,-3,-4,-4,-3,-1,-1,0,-1
41624239210,-1,4,0,0,-1,1,1,0
41624239210,0,-5,-4,1,0,1,-2,0
41624245888,-1,-1,-3,-2,-1,-3,-1,-1
41624245888,-2,-2,3,2,-2,-4,0,-1
41624261648,-1,-3,4,0,-2,0,-1,0
41624261648,-1,0,-9,-5,-2,-3,-1,-2
41624268467,-1,-4,-3,-3,-3,-1,-3,-1
41624268467,0,1,6,2,0,-2,0,1
41624275891,0,-2,-3,-2,1,-2,-1,-1
41624275891,0,0,0,0,1,1,-1,0
41624284937,-3,-3,-3,-2,-2,-2,-1,-2
41624284937,-1,-1,-2,-4,0,-3,-3,-2
41624299154,-1,2,3,-2,-1,0,1,-2
41624299154,-3,1,-1,2,1,3,-2,-3
41624305913,-1,-2,-5,-1,0,-6,-3,2
41624305913,-2,-1,-2,-1,0,2,1,-2
41624329816,-2,-3,-3,-1,-1,-3,-1,0
41624329816,-1,-4,-6,0,-1,2,1,-1
41624331391,0,-1,5,0,0,1,-1,-2
41624331391,0,2,4,3,0,-3,-2,-1
41624335979,-1,0,-4,-6,1,0,0,0
41624335979,-1,-2,1,0,-2,0,-2,-2
41624344912,-3,-4,-7,-2,-2,-1,-2,-1
41624344912,-2,-2,-1,0,-1,-3,-2,0
41624359103,-1,0,0,0,-1,-1,-2,-1
41624359103,-2,-2,-1,-1,0,-1,-1,-1
41624366000,0,2,2,1,0,0,-1,-1
41624366000,0,-2,-4,-3,0,2,-1,-1
41624381653,0,-4,-4,0,-1,-1,-1,-2
41624381653,-1,-1,0,2,-3,-6,1,-3
41624388420,-1,0,-7,-7,-4,0,-1,-3
41624388420,0,0,5,-1,-1,1,-1,0
41624395820,0,-2,-3,-1,-2,-2,-3,-1
41624395820,-1,-4,-7,-2,1,0,-1,-2
41624404812,2,7,16,2,0,-2,1,0
41624404812,1,-2,-2,-1,-2,0,-1,-1
41624419103,0,-1,-1,0,-2,-1,0,0
41624419103,0,-4,-5,-2,-2,-3,-2,1
41624425918,-1,-5,-11,-4,-2,1,0,-2
41624425918,-2,-2,-3,-1,-2,-9,-4,-2
41624442037,-1,-1,5,3,-1,6,0,0
41624442037,-2,-1,-3,-6,-2,-3,1,-1
41624448364,-1,-4,-4,-2,0,0,-1,1
41624448364,-1,-3,3,0,4,3,1,0
41624464731,-2,-3,-3,-2,-6,-8,-4,-2
41624464731,-2,-5,-6,0,-3,0,-2,-1
41624466337,0,2,9,-1,-1,-5,0,-1
41624466337,0,-1,-11,-2,1,1,2,0
41624479020,-2,0,9,2,0,3,1,-1
41624479020,0,1,-1,-2,0,-3,-1,1
41624485832,-3,-5,-11,0,1,-2,0,-2
41624485832,-2,-4,-12,-5,-4,1,0,-2
41624501560,1,8,21,2,1,10,1,0
41624501560,-2,-1,-1,1,-1,-6,0,-2
41624508425,-1,-3,-3,0,-2,-7,-3,-1
41624508425,0,6,11,-1,2,-1,-1,1
41624524828,-2,-9,-25,-2,-3,2,-2,-2
41624524828,-1,6,28,0,2,1,-1,1
41624526411,0,5,-13,-3,1,2,0,1
41624526411,-1,-4,-2,-2,-4,2,-2,-2
41624539118,-1,-2,4,-3,2,-10,-2,-1
41624539118,-2,-3,-9,-1,0,7,1,0
41624545991,0,-3,-3,0,-3,-7,-2,-2
41624545991,-1,-1,-4,-2,-2,10,-1,-2
41624561732,-1,-3,-7,-2,3,5,1,0
41624561732,0,1,-3,-2,-5,-14,-4,-2
41624568382,-1,-1,7,0,-5,-12,-2,0
41624568382,-2,-2,-1,0,-2,-2,-1,-1
41624584825,-1,-2,1,-2,6,13,-1,-3
41624584825,1,1,-5,2,0,-6,0,0
41624586441,0,1,2,0,5,-2,2,-2
41624586441,-1,-1,-5,3,-9,0,2,-1
41624599162,-3,-4,-12,-8,-4,-10,-4,-3
41624599162,2,8,38,8,6,-2,-1,-1
41624605951,-2,-7,-18,-3,-3,21,-1,-2
41624605951,-1,-3,0,-3,0,-16,0,-3
41624621558,2,3,10,5,-1,16,3,4
41624621558,-1,-2,-13,-10,-13,-3,-1,-1
41624628446,1,-2,9,2,5,-7,-4,2
41624628446,1,-3,-9,-1,3,1,-2,-2
41624644792,-2,-1,-7,-4,-4,-3,-1,0
41624644792,-1,-2,-1,0,2,6,2,-2
41624646382,-5,-7,-4,-4,-10,-5,-3,-4
41624646382,0,-1,-6,1,-2,4,-2,1
41624659112,1,0,1,-3,-3,-15,-4,-1
41624659112,1,1,7,4,8,6,1,0
41624665944,0,-3,-7,-7,-6,1,1,-2
41624665944,0,2,7,2,1,7,-2,0
41624681648,0,0,0,2,-3,-21,-3,-1
41624681648,-2,-4,-11,-5,3,-1,-1,-2
41624688431,-3,0,0,3,-1,2,-2,-1
41624688431,-2,1,3,-1,0,-3,0,0
41624704757,-1,-2,0,3,2,11,1,-2
41624704757,-2,-3,-13,-8,-3,3,-1,-1
41624706345,0,1,11,4,0,-25,0,1
41624706345,0,-3,-6,-5,-7,6,-2,-2
41624719068,1,-2,-2,-2,-4,-7,-3,-4
41624719068,-2,-3,-1,2,-3,-4,-3,-2
41624725857,0,0,-1,-1,6,15,1,-1
41624725857,1,1,1,1,3,-2,-1,2
41624741549,-3,-3,1,-3,-3,-8,0,-1
41624741549,1,7,10,0,-3,4,1,-1
41624748377,-1,-3,-3,-2,-6,4,-1,-1
41624748377,-2,-3,-4,-3,2,-4,-3,-2
41624764764,0,-1,-6,-1,0,2,0,-3
41624764764,-1,-2,7,1,-1,3,0,0
41624766365,1,3,3,1,8,-2,1,1
41624766365,-3,-2,-2,0,-12,1,-5,-3
41624779094,-2,-1,-2,0,1,2,-3,0
41624779094,-3,-5,-10,-5,-6,-5,2,0
41624785908,1,-3,0,1,1,7,1,-2
41624785908,1,2,4,-3,3,-1,2,1
41624801598,-1,1,-4,0,-2,-5,-1,1
41624801598,-3,-1,-4,0,-1,-4,-4,-2
41624808350,0,-2,1,0,1,11,3,2
41624808350,0,-1,-1,-1,0,-8,-1,-2
41624824876,0,-3,-6,-2,-3,2,-1,-2
41624824876,1,1,9,0,-9,-9,-2,-1
41624826342,-1,-2,-7,-2,0,-3,-3,-2
41624826342,2,2,5,-1,0,3,0,0
41624839137,1,-1,0,1,2,2,0,0
41624839137,-1,-1,-6,-3,-8,0,-2,1
41624845973,-1,0,0,-1,2,-1,-3,-2
41624845973,0,-1,-3,-2,-2,-8,1,1
41624862074,-4,-7,-5,-3,-4,-10,-3,-3
41624862074,0,2,5,3,5,6,1,-1
41624869883,1,1,4,0,-4,-1,-2,-1
41624869883,-3,-1,-1,1,2,-3,0,-2
41624884858,0,0,1,-1,0,8,-1,0
41624884858,0,-4,-8,-2,0,3,-4,-1
41624886407,-1,0,-2,-2,-7,-26,-3,-2
41624886407,1,-3,-3,-2,-3,-6,-3,-2
41624899159,-1,0,0,0,-2,-2,2,1
41624899159,-1,-2,1,-3,1,5,-3,-1
41624906003,-1,1,-1,-1,2,6,0,-1
41624906003,-1,-2,-4,-3,-5,-4,-4,0
41624921586,-1,0,7,-1,-3,-8,-4,-3
41624921586,1,0,0,2,-2,-2,8,2
41624928501,-2,-3,-5,-3,0,4,-1,0
41624928501,-2,-1,-7,-2,1,0,0,-1
41624944879,0,1,1,1,0,4,0,0
41624944879,-2,-7,-6,-3,2,-3,-4,-3
41624946370,-1,0,-2,-3,-2,-1,-1,-2
41624946370,0,2,5,1,-1,-3,-1,-2
41624958486,0,-1,-1,-2,4,6,0,0
41624958486,-1,-3,-4,-1,-2,-1,-5,-2
41624967471,-3,-3,-3,-3,-8,-12,-5,-2
41624967471,-1,0,4,3,4,3,-1,-1
41624981667,0,1,1,-4,0,-3,-1,-1
41624981667,0,-3,-7,1,0,2,-1,-3
41624988487,0,1,1,1,3,6,4,0
41624988487,-1,1,5,-3,-13,-16,-6,-3
41625004773,0,-2,-2,-2,2,-3,-1,-2
41625004773,-2,0,-3,-3,-2,0,0,-1
41625006395,-2,-3,-3,-1,0,-7,-2,-1
41625006395,-2,-3,-1,-1,2,-2,1,1
41625018410,-1,-2,-2,-2,-5,1,-1,0
41625018410,-1,-1,-1,0,-1,-5,-1,-1
41625027335,-1,1,4,1,2,5,0,0
41625027335,-2,-3,-2,-3,3,5,-1,0
41625041548,-2,-1,0,-2,-1,-7,-1,-1
41625041548,-2,-2,-4,-5,3,-3,-2,-2
41625048384,-1,1,5,1,-3,2,-1,-2
41625048384,0,0,-2,-1,-1,1,1,-2
41625064747,-1,-1,-1,-1,-4,-2,-2,-2
41625064747,0,-2,-3,0,-1,-3,0,-1
41625066365,-1,-1,-1,0,-1,-4,-1,-1
41625066365,-1,-2,0,-3,-4,0,-2,-2
41625078421,-2,-2,0,1,-1,2,-1,-2
41625078421,-1,0,1,0,-1,-2,-2,0
41625087370,0,-2,-1,-2,-3,-1,-2,-1
41625087370,0,1,4,3,2,7,3,0
41625101588,-2,0,-4,-2,-1,0,0,-2
41625101588,-1,-2,-1,1,-4,-8,-4,-4
41625108350,0,-1,0,-1,2,3,-2,-1
41625108350,-3,-2,-5,-2,0,-1,-3,-1
41625125214,1,-1,-1,-1,-1,-3,0,2
41625125214,0,-1,1,-2,3,3,-1,-1
41625126794,-3,-4,-5,-2,-3,-4,0,-1
41625126794,-1,-1,-1,-1,-1,14,3,1
41625138407,-1,0,0,1,2,-16,-3,-1
41625138407,0,0,-2,-2,0,-3,-3,0
41625147336,2,-2,-2,-2,1,2,0,0
41625147336,-1,-1,0,2,7,2,0,-1
41625161558,-1,1,1,-2,-8,-4,-2,1
41625161558,-2,-2,-1,0,-1,-8,-3,-3
41625168518,-1,-1,0,1,-1,2,-3,1
41625168518,1,0,-3,-2,-2,-2,1,-3
41625184811,-2,-2,-2,-1,1,12,0,3
41625184811,-1,-2,0,0,-3,-10,0,-2
41625186423,-1,0,-1,-3,0,-1,-1,-1
41625186423,-2,-3,-4,-1,-1,-6,-5,-1
41625198445,-1,-1,0,-1,-3,1,0,-3
41625198445,-1,0,-1,-2,-1,4,-1,-1
41625207427,-2,-1,-1,0,-3,2,-1,-2
41625207427,-1,0,-3,-3,-1,-1,-1,-1
41625221686,1,0,-2,-2,-1,3,-1,-2
41625221686,-1,-2,-3,-1,1,-6,-3,2
41625228473,0,1,-1,-1,-2,2,0,0
41625228473,-1,-2,-2,-1,0,-1,-2,0
41625244228,0,-2,0,-1,0,1,-1,-1
41625244228,0,-1,0,0,0,3,1,-2
41625250908,-1,-2,-1,-2,-3,-4,-1,1
41625250908,0,-1,-2,-3,-1,-4,-1,-2
41625258484,-1,-1,-2,-3,4,-1,0,-1
41625258484,-3,-1,-2,-2,-3,0,-1,1
41625267407,-2,-1,1,-1,0,5,0,-3
41625267407,0,0,-2,1,-1,-3,-1,0
41625281693,-2,-2,0,0,-4,-17,-2,-1
41625281693,-1,0,-1,0,0,8,0,1
41625288487,-1,-1,0,1,-1,-6,-4,0
41625288487,-2,-3,-2,-3,0,2,-1,-1
41625304094,-2,-1,-1,-2,-1,-2,0,-2
41625304094,0,-1,-2,-2,-3,-2,-1,-1
41625310961,0,0,0,-2,0,0,-1,0
41625310961,-1,0,-1,-1,-3,-2,-1,-1
41625318459,-1,-2,-1,-1,-1,1,-1,-2
41625318459,-2,-2,-1,0,-2,0,-1,-1
41625327454,1,-2,-3,-3,0,-2,-2,-2
41625327454,-3,-3,-1,-2,-7,-9,-2,-2
41625341613,-1,-2,-2,-2,-2,3,0,-1
41625341613,-5,-6,-2,-2,1,3,-2,-4
41625348384,3,3,0,-2,-5,-12,-1,1
41625348384,0,-2,0,2,0,5,1,-1
41625364076,-1,-1,-1,-1,0,6,-1,-1
41625364076,1,0,0,-1,-3,-20,-2,-1
41625370873,-2,-1,-1,-1,0,6,0,-1
41625370873,-1,-2,-1,-1,0,-4,1,0
41625378355,-4,-2,-1,-1,-1,3,0,-3
41625378355,1,0,-2,-2,-1,-3,-1,-1
41625387387,-2,-1,-1,-1,-1,0,-1,-3
41625387387,0,0,-2,0,-1,-2,0,1
41625401592,-1,-2,-1,0,-2,-6,-1,-1
41625401592,-2,0,0,0,1,6,1,1
41625408389,-2,-2,-3,-1,-1,-4,0,-1
41625408389,-1,-1,-3,-2,-1,0,-1,-2
41625424058,0,1,-1,-1,1,-3,-2,0
41625424058,-3,-1,-1,-1,-2,0,-2,-2
41625431000,-1,-1,-1,-2,0,-1,-2,-1
41625431000,0,-2,0,0,0,1,-1,0
41625447195,-1,-4,-2,0,-1,-2,0,0
41625447195,-3,1,0,-1,-1,8,4,-1
41625448812,-3,-3,-3,-1,-3,-8,-3,-1
41625448812,-2,-1,-2,-3,0,-4,-4,-1
41625461614,1,1,1,-1,-2,-3,-1,-1
41625461614,1,-2,-2,-2,-2,1,0,0
41625468467,-1,-2,-1,1,0,4,0,-1
41625468467,-2,0,-2,0,-2,-3,0,-2
41625484207,0,-3,-1,0,0,-3,0,0
41625484207,-1,-1,3,-1,-1,5,-1,0
41625491003,-1,-2,-1,-2,-4,0,1,-1
41625491003,0,-2,-2,0,-2,-3,-2,-1
41625507319,-3,-1,-1,-1,1,1,1,0
41625507319,0,1,-1,-1,0,19,3,1
41625508915,0,-2,-2,-1,-3,-36,-7,-1
41625508915,0,1,0,-4,-2,-4,0,-1
41625521706,-2,-1,0,-3,-4,3,-2,-2
41625521706,-1,-2,-2,-2,-1,0,2,2
41625528437,-2,-3,1,0,-3,4,-1,-1
41625528437,-1,-1,-1,-3,-2,1,-1,-1
41625544128,-3,-2,-2,-1,0,-5,-2,-1
41625544128,0,-3,-3,-2,-2,-4,-2,-2
41625550897,1,-2,-1,4,-1,11,3,0
41625550897,0,-3,-3,-5,-2,-7,-2,0
41625567385,1,4,9,-2,-1,4,-1,-2
41625567385,-2,1,3,1,2,-6,-2,-1
41625568826,-1,0,-3,-1,2,12,4,0
41625568826,-1,-3,-3,0,-3,-10,-4,-3
41625581622,-1,-3,-7,2,-1,0,0,0
41625581622,0,-3,-5,-4,-2,1,-4,-1
41625588527,-1,-2,-1,0,1,-1,-1,-2
41625588527,-2,4,8,4,0,10,2,0
41625604143,-2,-4,-8,7,0,-10,-5,-3
41625604143,0,1,5,-10,-3,-5,-2,0
41625610892,1,-1,-2,0,1,0,0,-1
41625610892,-2,-2,-3,-1,1,6,0,-1
41625627281,-2,-2,-1,-1,-2,3,-2,-1
41625627281,0,-4,-4,3,0,-3,0,-2
41625628887,-2,1,4,-2,-2,1,-2,-1
41625628887,1,-1,1,-1,-1,-5,0,0
41625641655,-2,-2,-3,0,-3,-3,-1,0
41625641655,-1,-2,-5,0,2,2,1,-2
41625648482,-1,0,-1,-3,-4,-3,-2,0
41625648482,-1,-1,-2,1,-8,-1,2,-1
41625664072,0,0,0,-3,0,-3,-3,0
41625664072,-1,-2,-4,1,-2,-6,-4,-1
41625670972,-3,1,-2,-1,1,1,2,-2
41625670972,-3,-3,-1,-1,-1,-5,-2,-1
41625687303,-2,-4,-5,-4,-1,9,2,-5
41625687303,1,0,0,2,-2,-9,-1,1
41625688853,2,2,3,1,0,-1,0,1
41625688853,-2,-3,-6,-1,2,1,-2,-1
41625702401,0,0,4,0,2,17,3,0
41625702401,-4,-2,-5,-4,-10,-23,-5,-2
41625708485,-1,-1,-3,-2,-2,5,-2,-7
41625708485,-1,0,0,-2,1,0,-3,5
41625723479,2,0,-2,-1,1,-3,4,1
41625723479,-1,-1,-1,2,-3,8,2,-4
41625731015,-1,-3,-3,-4,-1,-3,-4,1
41625731015,3,1,-2,1,2,-2,-1,6
41625746607,-2,-1,-1,-6,-2,-5,-3,-4
41625746607,0,0,1,6,5,1,2,4
41625747436,-2,1,3,-4,-13,1,2,-4
41625747436,-2,-5,-3,-7,-4,3,-1,-5
41625762395,0,0,-4,-1,0,-2,-1,1
41625762395,-2,-2,-1,-4,-2,-1,-2,-2
41625768409,-2,0,-2,5,6,0,-1,0
41625768409,0,2,3,-2,1,0,1,-2
41625783472,-1,0,2,8,8,-2,0,1
41625783472,0,2,10,18,11,5,1,-2
41625790958,-1,-7,-9,-15,-23,-10,-6,-1
41625790958,-1,-5,-5,-6,-7,-1,-1,-3
41625806639,-2,-3,-3,-7,-9,-5,-3,-3
41625806639,1,2,4,8,14,4,-1,2
41625807396,0,-1,0,4,3,2,1,1
41625807396,-2,-1,-4,3,5,-2,-2,-4
41625822401,-2,-3,-3,-6,-5,-5,-3,-1
41625822401,-1,0,-1,-3,-4,5,1,-1
41625828474,-2,-2,-2,5,3,0,0,1
41625828474,-3,-3,-1,-7,-5,-5,-3,-4
41625843418,-1,-3,-8,2,4,0,-3,0
41625843418,-1,-5,-7,-15,-6,4,1,-2
41625850942,-2,1,0,5,10,-3,-1,0
41625850942,-2,-2,0,5,-2,2,0,-4
41625866635,2,3,1,-7,-12,-8,-1,1
41625866635,-2,0,-1,2,-2,-3,-2,-7
41625867473,-2,-3,0,7,14,8,0,-1
41625867473,-31,-9,-6,-11,-9,-6,-8,-83
41625882451,8,-1,-1,-9,-4,-2,-2,64
41625882451,25,9,2,5,6,-1,4,16
41625888496,-18,0,11,40,26,10,1,-62
41625888496,31,4,-1,-10,-43,-11,0,119
41625911682,7,-1,1,9,9,-6,0,-48
41625911682,-14,-11,-14,-16,-10,-6,-4,20
41625912422,2,3,1,-23,8,7,0,-14
41625912422,-13,-1,2,11,19,-4,-3,-27
41625926672,-8,2,2,-6,-13,-5,-5,10
41625926672,20,3,-1,12,0,12,3,36
41625927436,1,-1,-1,-22,-1,7,3,-6
41625927436,-6,-1,-1,19,-1,-9,0,-9
41625942446,-5,-1,1,3,-6,-10,-5,-14
41625942446,-14,-4,-5,-25,3,-5,-7,-33
41625948453,-3,-3,-9,6,-22,-19,-6,21
41625948453,-18,2,16,-8,9,20,0,-87
41625963499,21,4,9,28,21,-8,4,78
41625963499,1,-2,-5,-6,-14,4,-2,-11
41625970952,6,-3,-2,4,4,-3,4,20
41625970952,-5,0,-1,11,21,10,3,4
41625986627,-5,-6,-6,-26,-36,-17,3,-11
41625986627,-3,-2,3,-1,7,5,-1,-1
41625987434,-5,3,-5,-18,-9,-14,-7,-15
41625987434,8,7,14,58,26,32,5,-5
41626002416,-3,-3,-5,-14,-2,-7,1,8
41626002416,12,5,-4,-10,-14,-7,10,47
41626008505,2,-4,-3,6,2,26,6,-11
41626008505,-2,0,1,-32,-13,-66,-49,-7
41626023510,-8,-1,-5,-1,20,58,10,-14
41626023510,-6,-12,-19,7,-7,-36,-4,-29
41626030970,-6,-2,-9,-9,5,1,8,-1
41626030970,12,11,36,-5,-8,39,25,33
41626046673,-1,1,-1,15,-20,-55,-39,-19
41626046673,-14,-7,-5,-16,-2,-1,-10,-22
41626047435,3,3,5,1,9,-20,-5,11
41626047435,9,-13,-59,-17,-9,34,26,33
41626069123,2,5,22,17,10,-31,-15,-18
41626069123,-3,8,40,11,-12,26,18,-10
41626069952,3,-6,-15,-14,-16,1,0,17
41626069952,4,-1,1,-16,5,-4,-1,-1
41626085009,-8,3,27,21,11,3,1,-20
41626085009,-10,-9,-38,-19,-10,8,4,-1
41626091012,5,5,17,10,7,-12,-14,10
41626091012,1,-5,-19,1,0,-16,-5,5
41626106652,-11,-8,-17,-14,-2,13,-1,-16
41626106652,-5,4,14,5,4,11,4,-13
41626107430,12,-1,0,9,-3,22,4,19
41626107430,-10,-5,-10,-7,-1,-32,-9,-5
41626129164,12,0,7,-6,-1,1,4,51
41626129164,10,4,9,-1,-1,12,0,-7
41626129883,0,8,5,6,3,30,11,-2
41626129883,-5,-6,-12,-8,-10,-27,5,1
41626144985,-8,-5,-2,-16,-16,-32,-24,-37
41626144985,-6,-4,1,24,12,16,-2,-1
41626150963,-6,-13,-37,-9,-19,-62,-25,0
41626150963,10,30,110,1,-1,1,-3,1
41626166008,1,5,-15,3,18,45,26,-10
41626166008,-5,-7,-22,-8,1,-41,-16,-1
41626173594,-4,-14,-44,12,-2,-9,-11,-1
41626173594,-2,3,18,-17,-5,44,15,3
41626189212,-5,-14,-32,-23,-6,-41,-11,-11
41626189212,-1,17,65,13,-8,1,-12,-1
41626189939,0,-6,-14,-8,0,17,12,2
41626189939,-1,-11,-39,-2,-6,3,-11,-1
41626203449,1,-1,3,6,4,66,35,4
41626203449,-5,-11,-26,-1,-4,-16,-9,-3
41626210996,-6,1,12,-16,-5,-43,-23,-10
41626210996,4,-2,0,4,0,44,31,12
41626227489,-3,2,3,7,-6,-21,-23,-15
41626227489,-15,-1,-4,5,33,43,12,-6
41626233564,17,6,19,-14,-46,-41,-1,31
41626233564,0,-19,-61,0,6,-32,-30,-4
41626242399,-1,9,48,8,9,19,37,12
41626242399,1,-3,3,4,-9,-86,-27,-11
41626248433,-6,-4,-18,-23,12,8,-4,-15
41626248433,-4,-5,-2,26,-2,5,1,-2
41626263402,-5,4,-12,-21,-10,-60,-35,-22
41626263402,1,-8,-7,8,2,80,24,6
41626270928,1,-3,-61,-27,1,-37,-14,4
41626270928,4,19,76,28,-6,-9,-5,-4
41626285924,-8,-17,-62,-13,13,27,6,-5
41626285924,5,7,28,25,0,-2,2,5
41626293414,-7,0,1,1,-3,25,-2,-10
41626293414,-4,-7,-38,-5,13,-44,-17,-4
41626302373,7,3,19,9,15,105,45,17
41626302373,4,0,-21,-21,-36,-19,-2,6
41626308397,-2,7,47,21,23,19,9,-6
41626308397,4,-1,-19,-21,-19,-7,-5,-5
41626323425,-3,0,7,17,7,-18,-14,-7
41626323425,0,-8,-37,-17,6,43,18,7
41626330874,-4,-4,7,18,-3,33,31,2
41626330874,0,8,32,3,1,-56,-25,2
41626345876,0,2,-17,-8,-5,40,-3,-2
41626345876,-2,-8,-3,-15,-4,-43,-18,-6
41626353345,-1,5,-1,8,0,18,6,0
41626353345,-2,-2,13,6,12,33,13,2
41626369095,-5,-11,-22,-11,-21,-62,-24,-12
41626369095,0,8,-11,3,4,-4,-12,-3
41626369858,-3,-5,6,26,-4,13,17,-1
41626369858,2,11,41,-28,-9,-1,0,4
41626383490,-5,-7,-27,-7,3,-32,-17,-5
41626383490,5,2,-6,9,4,45,24,9
41626390988,3,8,45,5,-3,-27,-25,-8
41626390988,-1,-11,-32,4,5,35,25,6
41626405998,-8,-2,-10,-7,-1,38,20,5
41626405998,5,-2,-14,-4,7,-50,-25,-9
41626413576,-6,-9,15,-13,-8,1,-2,-5
41626413576,-2,0,42,15,2,12,13,3
41626429151,7,10,5,15,5,30,10,3
41626429151,-13,-13,-47,-40,-15,-86,-28,-9
41626430002,2,6,19,10,19,21,-1,-4
41626430002,3,7,21,14,4,8,2,3
41626443485,-1,-10,-3,-10,-14,5,14,3
41626443485,-4,-2,-13,-4,-8,-27,-9,-6
41626451023,-2,1,37,26,-9,4,-9,-4
41626451023,-2,-5,-58,-32,3,5,11,0
41626467400,4,6,40,2,2,-18,-15,2
41626467400,3,8,32,4,8,15,12,6
41626473505,-9,-12,-19,-10,3,5,-3,-5
41626473505,-6,-10,-63,-21,0,43,2,-5
41626489111,3,-2,15,7,-15,16,-5,-2
41626489111,-5,-7,-7,6,2,14,4,-9
41626489913,7,13,19,-19,1,18,13,13
41626489913,-3,-8,4,15,-6,-10,-10,-6
41626503425,-2,-5,-27,-22,-8,-12,-7,-5
41626503425,-8,-7,-14,-2,3,5,-2,-9
41626510981,3,-5,-22,12,-1,-5,5,7
41626510981,4,7,19,-13,15,47,17,2
41626525977,4,8,15,11,1,-43,-12,-1
41626525977,1,0,10,0,-9,25,6,2
41626533554,-5,-14,-44,-13,-6,-18,-10,-8
41626533554,1,6,2,-6,0,-30,-9,1
41626549167,0,-1,-8,7,5,7,5,0
41626549167,-5,4,48,0,-11,-3,-15,-6
41626549946,3,-1,-14,1,10,18,8,4
41626549946,-4,-12,-33,3,-7,7,9,-3
41626563408,-4,9,55,16,-14,-88,-42,-5
41626563408,-6,-5,-13,-5,1,25,8,6
41626570927,8,3,5,-10,-6,29,9,-2
41626570927,-6,-10,-24,8,5,-30,-14,-4
41626585882,-3,-6,-35,-15,-3,-23,-13,-7
41626585882,-3,-10,-39,-19,1,21,15,2
41626593369,0,16,69,23,-4,-12,-1,-1
41626593369,-1,3,38,12,-7,-9,-5,-1
41626609107,2,1,-1,9,8,19,11,3
41626609107,1,-2,-19,-7,1,-12,-9,0
41626609856,-2,-2,-8,-7,9,13,-1,-3
41626609856,6,5,-10,-3,-18,-34,-13,1
41626624897,-2,1,15,2,-3,21,12,2
41626624897,0,4,14,3,4,1,3,-2
41626631013,-4,-11,-29,-14,-19,-34,-9,-4
41626631013,-2,-6,-15,14,-4,-5,-3,-1
41626645995,0,5,-11,-18,1,-6,2,-1
41626645995,3,4,3,-3,5,14,-4,-1
41626653519,2,12,64,13,1,-9,9,5
41626653519,-2,-5,-20,7,5,3,-13,-4
41626669164,-4,-10,-22,-7,-9,50,20,0
41626669164,11,-1,1,2,7,-20,-6,-2
41626669891,-3,-4,-18,-5,-8,-5,2,-1
41626669891,-3,-5,-2,-8,-1,-4,2,-1
41626684914,-2,-1,0,2,9,-23,-7,-1
41626684914,-1,4,10,4,-7,18,-4,0
41626690988,-5,-9,-12,0,1,-6,-12,-9
41626690988,-1,-8,-58,-41,-18,-33,1,2
41626705970,7,14,85,26,6,22,5,3
41626705970,-8,-13,-38,9,-10,-23,-12,-21
41626713515,1,2,-9,3,5,8,6,15
41626713515,3,17,46,-18,-6,16,0,-2
41626729196,-5,-17,-73,-13,4,-9,-4,-2
41626729196,8,24,78,23,3,-9,1,8
41626729937,-4,-10,-40,-3,-3,23,9,-6
41626729937,1,6,22,3,6,-14,-12,-3
41626744926,2,-4,-13,3,3,17,10,4
41626744926,-3,-2,12,-7,-20,-11,1,-1
41626751033,-5,-9,-41,-16,-4,-2,-9,-3
41626751033,-3,-2,15,16,13,8,3,1
41626766023,1,1,1,-11,-4,-1,1,-2
41626766023,2,0,-10,10,13,9,7,8
41626773532,-7,4,15,-14,-9,7,-6,1
41626773532,3,-12,-25,-3,-12,-8,-2,-6
41626789112,-8,2,35,13,2,-12,-4,-20
41626789112,1,-5,-14,3,0,9,4,12
41626789891,-2,-5,-15,-33,-2,-18,-7,-3
41626789891,1,8,45,16,6,-6,-3,2
41626804921,-2,-8,-31,-8,-4,3,-5,-1
41626804921,-4,-2,2,8,-3,13,2,-2
41626810930,3,-4,-12,-18,5,-24,-9,-3
41626810930,-7,-11,-46,-7,5,33,13,-1
41626825909,3,4,32,16,-10,-16,-4,1
41626825909,2,4,3,-10,8,1,4,6
41626833451,0,-1,-6,5,-1,18,-1,-4
41626833451,1,-2,1,-5,-9,-39,-6,0
41626849062,-5,-4,-4,-1,-3,15,2,2
41626849062,0,3,13,5,9,6,3,-2
41626849825,2,0,-35,-3,1,-8,2,2
41626849825,9,9,69,22,-8,8,-1,0
41626864904,-3,-10,-40,6,0,-7,4,0
41626864904,-4,-5,-5,-52,-14,-12,-5,-2
41626870913,2,5,21,14,5,-21,-1,-13
41626870913,-5,-10,-31,0,4,18,3,8
41626885898,1,2,-7,0,4,18,6,3
41626885898,0,-8,-20,-1,-3,-3,-1,-2
41626893537,-7,2,31,12,-2,0,-4,-8
41626893537,-11,-3,-26,-13,4,-15,-6,-37
41626909131,-1,-3,2,-4,-8,8,5,24
41626909131,15,5,0,4,3,-11,2,36
41626909964,12,1,0,-1,4,12,1,22
41626909964,-9,2,14,12,-5,-5,-4,-17
41626924942,6,2,-1,-10,2,1,-2,9
41626924942,-9,-6,2,4,-1,-13,-10,-19
41626930988,3,2,-13,-1,-3,1,5,1
41626930988,-9,-5,-11,-5,0,12,0,-6
41626946019,-4,11,28,-7,2,-23,-5,-9
41626946019,9,-1,-1,19,9,40,17,30
41626953464,-2,-3,-11,-17,-3,-13,-9,-12
41626953464,0,-4,-11,-2,-1,6,1,9
41626969168,-3,-1,6,4,3,0,-4,-17
41626969168,-4,-1,-9,1,4,-8,4,-11
41626969907,-8,-6,16,12,-1,-2,3,17
41626969907,3,1,1,-14,-14,6,-2,-2
41626984985,-3,-6,-18,-4,6,-13,-13,-3
41626984985,-2,0,-3,-1,-4,-4,0,0
41626990990,-1,-3,9,1,-2,11,7,-15
41626990990,-4,-4,-22,3,6,-9,-2,-4
41627006013,4,0,-1,-22,-17,35,4,10
41627006013,-4,5,10,8,-7,-38,-15,-14
41627013487,-5,-1,13,4,5,16,0,-5
41627013487,-1,-8,-13,1,16,16,7,6
41627028502,9,-1,-7,-8,-8,-23,4,13
41627028502,-4,1,17,26,5,4,-6,-16
41627035979,0,2,-14,-19,-3,-10,-5,1
41627035979,0,0,17,13,3,13,3,13
41627044924,-1,-10,-28,-11,-1,-17,-4,-14
41627044924,-1,3,20,-6,-2,8,6,-1
41627050929,2,0,-7,10,0,0,2,5
41627050929,1,2,11,-6,-6,11,1,-1
41627066006,-4,-2,-8,17,4,-4,-1,-4
41627066006,2,11,40,6,9,-10,0,-4
41627073572,-3,-8,0,5,-5,18,3,-1
41627073572,0,-2,-2,-4,-4,-11,-3,3
41627089085,-1,1,-3,-1,2,0,-2,-1
41627089085,-9,-12,-32,-10,1,3,-6,-23
41627089864,2,2,8,-8,-4,3,4,21
41627089864,0,-2,-11,11,-4,-15,-7,0
41627104900,3,11,36,6,-9,1,-3,3
41627104900,-4,-8,-28,-17,-5,-4,-2,-10
41627110854,-8,-4,-10,-2,-5,-15,-4,-11
41627110854,1,-2,2,-4,-8,3,-1,5
41627125873,-7,-7,-4,-5,-3,-13,-11,-10
41627125873,-6,-9,-27,-16,-8,10,7,-3
41627133391,2,-1,-15,5,4,0,-1,4
41627133391,2,15,52,9,0,1,1,11
41627148379,-3,-3,-20,-12,-11,2,2,-5
41627148379,-3,0,27,18,-1,-19,-14,-2
41627155928,-2,-7,-12,-12,0,-10,0,-3
41627155928,-3,-12,-42,-19,-1,26,8,-4
41627164922,-3,5,-3,-1,5,-11,-8,-3
41627164922,3,2,14,3,-5,5,4,8
41627170946,-1,10,40,10,0,5,2,-5
41627170946,-5,-8,-19,-4,2,-11,-7,2
41627185931,1,-1,5,9,4,-2,3,1
41627185931,0,-8,-26,-16,-6,6,0,5
41627193392,-2,2,3,1,-8,-17,-7,-4
41627193392,-1,-2,-1,-7,5,-3,-1,-4
41627208480,0,4,17,5,1,-15,-2,-4
41627208480,-6,-6,-17,-1,1,32,3,12
41627215949,-6,1,13,3,-4,-6,-1,-3
41627215949,11,-2,-15,-11,8,-4,0,0
41627224897,-3,-5,2,2,-18,0,2,0
41627224897,5,5,5,9,4,4,-2,-5
41627230951,-3,-2,2,-13,3,13,3,-4
41627230951,-5,-1,5,5,-4,-10,-6,-12
41627245918,5,2,-4,-7,-2,3,7,17
41627245918,-2,4,23,10,12,-7,-6,-5
41627253450,0,-6,-17,1,-6,-4,-4,1
41627253450,-5,-9,-47,-15,-1,-6,-2,-9
41627268442,1,5,59,24,2,3,2,-2
41627268442,2,4,17,-10,-9,8,5,7
41627275893,3,3,-7,2,-3,-5,-3,-6
41627275893,-4,-5,-9,-4,2,-6,-2,2
41627291579,-1,2,2,4,3,4,-2,-4
41627291579,-3,-9,-15,-11,-5,-6,4,4
41627292386,1,0,-1,6,3,3,0,-3
41627292386,5,11,16,8,-4,-16,-2,4
41627305945,-4,-9,-11,-1,4,6,-2,-3
41627305945,-3,-3,-6,-3,-5,-8,-3,-10
41627313432,-1,-3,-3,-4,3,-3,-4,1
41627313432,-3,-3,-8,3,-8,0,3,2
41627328413,-9,0,-6,-10,1,2,1,-1
41627328413,12,6,20,7,0,-5,-2,-3
41627335892,0,2,17,23,-4,-16,-8,-2
41627335892,0,-1,7,-20,1,5,4,5
41627351554,-4,-5,-13,-7,-1,15,-2,-6
41627351554,-6,-5,-23,-12,-2,5,4,-1
41627352364,-3,-11,-43,-24,1,-21,-7,-3
41627352364,4,13,65,30,-1,13,3,1
41627365978,0,-3,-19,-2,7,-9,-2,-1
41627365978,1,2,-7,-2,0,0,2,1
41627373435,-7,-11,-18,1,5,-1,-8,-2
41627373435,1,-5,-30,-22,-10,-3,-1,3
41627388515,2,5,33,2,-4,-5,-1,-7
41627388515,-2,-4,-11,5,-1,-7,-5,7
41627396052,-1,0,1,-6,7,7,9,-5
41627396052,-2,4,26,5,2,-9,-8,-1
41627411766,0,-7,-33,7,2,16,6,5
41627411766,-2,-2,1,-7,-4,-6,-4,-8
41627412456,3,8,19,-18,-7,4,0,-1
41627412456,-4,-4,-6,11,5,-1,-4,0
41627425936,1,-1,-5,-4,5,6,1,-1
41627425936,-2,-1,-11,-19,-2,-16,-3,-2
41627433621,-1,-12,-42,-4,0,23,5,4
41627433621,0,9,25,8,-4,0,0,-1
41627448502,0,4,19,5,1,-3,-5,-3
41627448502,1,-4,-11,2,-2,-12,5,5
41627456716,0,1,5,6,0,-3,-2,-1
41627456716,-7,-12,-31,-13,-8,2,-1,-6
41627471723,-4,-2,-18,-6,1,-5,-6,-14
41627471723,-2,3,3,0,6,28,8,15
41627472514,8,-1,23,32,2,5,0,0
41627472514,0,-7,-13,-21,-5,-5,2,7
41627486019,-2,-4,-2,-1,-4,-14,-5,-1
41627486019,-13,-1,-6,-8,-1,-6,-11,-26
41627493595,5,3,15,6,-4,6,8,16
41627493595,-1,-3,-4,2,2,-3,0,-3
41627508426,-4,-14,-40,-7,-2,9,2,5
41627508426,0,4,23,-6,-8,-20,-9,-6
41627516755,-3,4,6,5,-4,2,0,-3
41627516755,-1,3,2,7,-1,0,-4,-4
41627531731,-4,-10,-19,-14,-2,-4,3,1
41627531731,3,7,28,26,5,9,8,4
41627532479,-3,-6,-32,-11,-9,-13,-3,-3
41627532479,3,4,34,-5,1,11,-5,-2
41627545977,-1,2,9,32,7,-1,-1,-2
41627545977,-1,-10,-30,-22,-7,-9,-7,1
41627553490,3,9,39,5,-1,13,6,1
41627553490,-2,-6,-33,2,0,-12,-6,-5
41627568421,0,1,13,-10,-2,3,-3,2
41627568421,1,-2,18,17,0,-2,-1,-1
41627576633,-3,-1,-3,-8,1,2,2,-3
41627576633,-3,-7,-20,-6,1,-1,0,0
41627591581,0,3,7,-9,-1,-8,-4,2
41627591581,2,0,-5,-1,-4,-1,-3,0
41627592371,-6,-5,-4,-5,-2,-7,-7,-6
41627592371,2,6,10,8,2,9,8,5
41627605967,-1,-6,-20,-10,-2,3,1,0
41627605967,-1,-2,-26,-6,-8,5,-7,-2
41627613451,2,6,57,5,2,-17,-1,1
41627613451,-3,-4,-10,4,-1,-7,-1,-4
41627628474,-2,0,-8,-13,-2,-20,-3,-3
41627628474,-5,-9,-25,-5,2,21,2,-2
41627636592,-4,-9,-18,4,-2,-9,-8,-6
41627636592,4,9,33,-8,0,10,4,3
41627651699,0,-4,-17,-18,-9,-16,-5,-2
41627651699,-1,-3,6,2,-2,-9,-2,-1
41627652425,1,7,40,11,-5,-5,-4,-1
41627652425,-4,-7,-12,4,3,-4,-4,-3
41627666041,-2,-4,-15,1,7,12,7,-1
41627666041,5,10,31,5,4,2,-1,6
41627673559,-2,-3,-2,1,-5,-3,-1,-3
41627673559,-1,-2,-14,-7,3,11,6,1
41627688617,1,4,23,6,6,1,-3,-1
41627688617,-1,-4,-8,-1,-6,-9,0,-2
41627696680,-3,-6,-29,-11,8,14,4,-2
41627696680,0,4,9,17,-2,-38,-9,-3
41627711799,3,6,11,-9,-5,40,4,2
41627711799,-5,-5,-10,-2,3,-8,0,-4
41627712487,-3,-2,1,-4,-4,6,-3,-3
41627712487,-4,-9,-26,-9,-5,-14,-3,-3
41627726033,-4,1,7,30,-7,-4,-2,-2
41627726033,2,10,31,-20,3,0,-1,0
41627733553,1,4,7,-5,-6,-3,1,-2
41627733553,-2,-4,-17,-6,-4,-5,-4,1
41627748483,-2,-11,-11,4,-4,3,1,-5
41627748483,0,-5,-16,-2,-2,10,5,1
41627756661,2,0,-27,-13,-8,-12,-1,0
41627756661,0,5,18,-1,3,18,3,-3
41627771752,-1,-6,-14,-6,-1,-4,-1,1
41627771752,-3,-2,2,5,-4,0,-3,-3
41627772480,-1,-5,-7,-4,4,-26,-3,2
41627772480,1,3,27,16,0,-8,-7,-3
41627785971,-1,-4,-16,-14,3,21,11,2
41627785971,1,-3,7,5,4,8,-1,-1
41627793520,-2,-1,-19,-5,-2,3,-2,-1
41627793520,-1,-7,-9,-2,-1,2,-2,-2
41627808538,1,12,37,2,1,-5,-1,2
41627808538,0,1,-3,8,-2,-23,-1,2
41627816704,-2,-4,-6,4,5,17,4,-1
41627816704,-2,-2,-12,-9,-6,-9,-5,-1
41627831685,-1,-4,-9,-15,4,4,-5,-2
41627831685,0,5,8,10,-2,-4,1,2
41627832417,-6,-11,-23,-7,1,-1,0,-2
41627832417,-1,0,-11,8,3,-15,1,1
41627846021,1,8,61,18,-5,19,3,1
41627846021,0,0,-6,-16,-3,-12,-4,-3
41627853502,-3,-3,6,8,3,-6,-6,-6
41627853502,3,0,-3,-4,-4,14,6,4
41627868536,-2,3,-7,-2,-4,-19,-3,-2
41627868536,0,0,-6,-9,0,-2,0,0
41627876704,-2,1,3,5,0,3,1,-2
41627876704,-4,-3,15,7,-1,1,3,-1
41627891730,0,0,-9,-5,0,-1,-3,1
41627891730,-3,-10,-15,1,-1,1,0,-2
41627892437,-1,3,-12,-6,-4,-18,-4,1
41627892437,0,5,37,8,-1,25,-4,-3
41627914199,-2,-6,-12,-11,-4,-7,3,2
41627914199,-3,-9,-32,-3,-1,-2,-4,-4
41627914941,1,5,37,-1,-1,16,-5,-2
41627914941,1,0,-8,-1,1,-15,6,2
41627928560,-2,-1,6,7,-10,-13,-14,-5
41627928560,0,-1,-4,-4,1,17,13,2
41627936756,-1,-5,-18,-10,-9,-13,-10,-1
41627936756,0,-1,-1,-8,0,12,9,4
41627951653,0,-8,-18,-4,-1,2,2,-3
41627951653,-4,1,8,-3,-1,-16,-3,-1
41627952436,4,8,19,8,3,5,-2,-1
41627952436,-1,0,-5,-9,0,17,3,0
41627965962,-2,-3,6,5,1,-8,1,0
41627965962,-4,-9,-32,-6,-1,-8,-8,-5
41627973481,1,8,57,5,-8,8,8,5
41627973481,-4,-10,-33,-5,-3,-25,-14,-6
41627988441,2,0,0,-1,6,20,12,4
41627988441,0,1,12,6,0,9,0,-3
41627996598,-3,-8,-26,-9,0,0,-3,-2
41627996598,0,-1,-17,-6,-4,-11,-4,-3
41628011602,-2,3,11,2,-2,-6,-4,-8
41628011602,1,0,16,4,1,-4,-10,7
41628012392,0,-6,-41,-3,1,-4,9,0
41628012392,-4,1,34,10,4,24,-1,0
41628025971,1,-6,-34,-10,3,-19,-1,-3
41628025971,-2,4,30,9,-5,-7,-6,-4
41628033463,-3,-9,-36,-7,6,11,6,3
41628033463,1,7,32,15,5,-8,-5,-4
41628048436,0,-4,15,2,2,7,3,3
41628048436,4,8,24,-5,-9,3,3,2
41628056652,-1,-1,-4,3,9,3,-1,0
41628056652,-2,1,-9,-1,2,-5,-4,-2
41628070964,-3,-4,-14,1,-6,-1,-3,1
41628070964,-1,-6,-15,-3,-2,0,-1,-2
41628079117,-1,1,4,-10,2,4,-4,-5
41628079117,1,1,4,2,-5,0,3,2
41628086031,1,4,5,7,-4,-6,-7,-1
41628086031,-4,-9,-31,-13,1,17,6,-2
41628093497,-3,0,6,-3,-12,-14,-6,-8
41628093497,-6,-6,-8,-17,-3,-4,-5,8
41628108535,8,1,4,-2,1,-1,2,3
41628108535,0,2,1,13,4,-10,-3,-3
41628116755,-5,-7,-12,-2,-3,10,2,0
41628116755,9,1,-2,9,3,-2,-1,-1
41628131042,-5,-4,-1,-13,-5,-5,-5,-4
41628131042,-1,0,2,10,11,-7,1,3
41628139257,0,0,-2,-9,-6,-11,-5,-4
41628139257,-2,-7,-17,0,6,32,14,1
41628146015,-5,-2,-11,-22,-16,-10,-5,0
41628146015,0,1,18,8,-3,3,-2,-5
41628153547,0,-1,-14,1,11,-15,-8,-2
41628153547,-2,-1,-6,-5,2,4,-1,-1
41628168560,-2,-2,-13,-1,1,-6,0,-2
41628168560,-3,-7,-16,-19,-6,12,5,-2
41628176677,-2,3,37,18,1,-22,-9,-4
41628176677,1,1,1,0,1,15,4,0
41628191028,0,1,-4,7,3,-3,-5,-1
41628191028,-4,-2,-10,-8,-4,-13,-3,-2
41628199251,-3,-4,-8,2,-2,5,2,-10
41628199251,-7,-5,-14,-10,-12,-28,-6,7
41628206022,5,-2,-14,-2,14,24,4,-4
41628206022,1,0,29,12,0,11,1,3
41628213546,-1,-1,-16,-16,-4,12,2,1
41628213546,-2,0,11,2,-1,-12,-2,-4
41628228554,0,7,38,12,10,-15,-5,0
41628228554,-1,-8,-39,-18,-27,-19,-6,-4
41628235970,1,-7,-5,3,-2,13,1,2
41628235970,4,18,35,14,-6,-6,-2,-1
41628259854,-5,-5,-14,-7,-2,-4,-6,-3
41628259854,1,-3,-17,-8,3,7,6,-2
41628260655,-1,-3,0,12,2,-13,-6,5
41628260655,-2,-10,-12,-23,-10,5,-5,-5
41628274146,1,9,21,13,5,-12,-6,-1
41628274146,-1,7,20,11,3,7,1,0
41628274905,0,-5,-19,-12,-4,10,2,1
41628274905,-4,-8,-13,1,3,-18,-7,-4
41628288453,-3,-1,-4,-5,-10,-37,-9,-4
41628288453,-6,-10,-3,0,9,24,2,0
41628295934,-1,1,-13,1,1,8,4,-9
41628295934,3,2,16,9,1,9,-6,13
41628310927,-1,-1,-2,-11,-8,-16,2,0
41628310927,1,5,30,15,0,-3,0,0
41628319111,4,1,4,-4,3,6,5,3
41628319111,-1,-5,-18,-7,-6,9,1,-7
41628334127,-3,-6,-23,-6,-9,-4,-2,0
41628334127,1,-2,-6,-2,4,-2,-2,-1
41628334900,5,-1,14,-5,-6,11,5,4
41628334900,1,12,32,4,3,-15,2,-2
41628348461,-4,-6,-10,10,-3,10,-1,0
41628348461,0,5,12,-6,3,-6,-2,-3
41628355971,-7,-3,-9,-5,-7,-8,-3,1
41628355971,-1,-5,-41,-9,1,21,2,-5
41628370934,-2,3,49,16,-4,-15,-6,-3
41628370934,-3,-5,-11,-9,4,12,3,0
41628379155,0,2,9,1,1,-2,-1,2
41628379155,-3,-7,2,5,2,-10,-3,-3
41628394149,1,-5,-26,-10,3,16,6,1
41628394149,-9,-3,9,3,-16,-9,-11,-9
41628394887,1,7,7,4,1,-3,-2,-1
41628394887,-2,-3,-17,-12,-3,-11,-1,5
41628408426,-1,2,8,-1,-2,10,4,0
41628408426,0,-1,-13,0,4,-2,0,1
41628416085,-1,0,18,4,-10,-21,-5,2
41628416085,-5,-7,-3,7,-1,5,1,-8
41628430942,-4,-11,-45,-24,4,9,3,-2
41628430942,6,10,44,16,-16,-12,-4,6
41628439248,-5,-1,-15,-20,-22,-11,-8,-7
41628439248,-3,-7,-15,-6,-3,-4,-3,-2
41628454189,-1,2,13,4,6,9,1,0
41628454189,0,-7,-25,-1,4,-5,-2,-3
41628454953,-2,-3,-30,-14,3,-4,-1,0
41628454953,0,2,26,8,6,3,2,-1
41628468526,1,3,7,0,-8,1,-2,-1
41628468526,2,3,-4,0,0,-7,0,1
41628476059,-2,-4,-5,14,15,16,5,1
41628476059,1,-1,-6,-14,-4,-13,-4,-3
41628491050,-6,-4,-28,-14,-5,-2,-4,-5
41628491050,-1,-4,-8,1,6,2,1,1
41628499245,-1,-2,10,0,0,-13,-4,1
41628499245,-1,-6,-47,-12,-2,17,3,-5
41628514181,-2,2,40,22,2,2,-1,1
41628514181,1,-2,-18,-11,-13,-2,-1,-1
41628514936,4,8,29,7,-5,5,-2,1
41628514936,-1,-2,-14,-3,-1,-20,3,-1
41628528532,-11,-5,4,4,-1,0,-3,0
41628528532,3,-2,-18,-3,20,4,-1,-3
41628536051,-2,-4,0,-5,-7,12,-1,-5
41628536051,2,6,24,3,-3,-4,-2,8
41628551075,3,3,17,7,1,-1,2,0
41628551075,-3,-6,-6,-2,1,1,2,1
41628559208,-3,-8,-27,-4,-4,-5,-5,-2
41628559208,0,1,38,2,-3,12,0,-5
41628574227,-3,-11,-24,8,18,-2,1,-2
41628574227,-2,3,-12,-20,-11,-8,-9,0
41628574963,-1,-2,6,16,2,9,7,0
41628574963,-3,-6,0,-1,-3,-15,-5,-4
41628588503,2,1,-1,-1,8,8,4,1
41628588503,-2,-4,-5,-3,-1,-9,-6,-4
41628596062,-3,1,-7,4,6,11,1,-1
41628596062,-1,-1,-14,-10,-5,3,3,-1
41628610996,3,5,15,-1,-12,1,-1,1
41628610996,-1,2,13,2,0,-10,-2,-2
41628619122,1,0,-5,-5,1,-13,-4,-1
41628619122,-2,-1,-13,-4,-6,12,-2,0
41628634118,-2,-1,-9,-2,-6,-14,-9,-7
41628634118,-4,0,22,9,-5,0,1,-3
41628634894,-9,0,0,-5,3,5,1,-9
41628634894,5,-5,-16,-5,5,-12,-2,9
41628648495,2,6,7,-5,-4,-5,-1,-1
41628648495,-2,-6,-27,0,-2,-4,-4,0
41628655992,2,10,63,11,6,6,5,2
41628655992,-5,-7,-27,-1,-4,1,-4,-8
41628670960,1,6,24,1,5,0,0,1
41628670960,3,1,2,9,-5,9,4,1
41628679151,1,-4,-18,-7,3,-1,1,0
41628679151,0,1,20,17,13,11,5,0
41628694132,-2,-7,-47,-32,-28,-10,-8,-2
41628694132,-3,1,40,5,-2,-14,-3,-3
41628694919,-2,-6,-27,-1,0,12,3,3
41628694919,5,12,25,2,9,-10,-4,-2
41628708420,-3,-12,-10,-2,-1,-1,2,0
41628708420,2,9,4,-8,6,-2,-1,1
41628715905,-1,-3,-5,-2,-11,-14,-6,-1
41628715905,-3,-8,-22,-4,-4,8,2,0
41628730998,-3,-1,6,2,3,6,3,-2
41628730998,-7,-10,-23,-12,-7,-4,-5,-4
41628739233,6,10,31,14,8,-5,-2,3
41628739233,-2,2,-1,-3,-3,4,1,-4
41628754176,0,-4,-15,-8,7,-8,0,0
41628754176,4,-9,-28,-2,5,8,3,-2
41628754979,-5,-7,-4,-19,-7,-12,-7,-5
41628754979,-2,0,5,4,-1,24,8,1
41628768519,-4,-6,-13,8,3,-18,-5,0
41628768519,-2,7,35,0,0,2,0,1
41628776020,3,5,-3,5,1,1,-2,2
41628776020,2,0,9,1,-5,-11,-7,-4
41628791030,-3,-6,-2,-7,-3,5,3,1
41628791030,-4,-8,-11,4,-6,-7,-3,-3
41628799235,2,1,-7,-14,-6,0,-4,-2
41628799235,-3,-1,3,5,6,-11,4,0
41628814200,3,1,-5,2,-1,14,-2,1
41628814200,-3,-8,-34,-9,-3,-2,-1,-3
41628814974,4,10,54,13,3,8,5,1
41628814974,-4,-11,-43,-8,1,-10,-4,-2
41628828574,0,8,36,16,-2,4,2,-2
41628828574,0,3,10,-9,0,1,0,2
41628836056,-1,-3,-12,-1,-1,2,0,0
41628836056,-1,-3,3,2,-4,-5,-5,-4
41628851066,-1,-5,-24,-12,-2,-4,1,0
41628851066,-2,-2,2,12,3,9,3,0
41628859233,-3,-1,-12,1,-4,-19,-2,-3
41628859233,-1,-1,0,-23,-3,-4,-3,0
41628874229,1,1,3,3,2,6,-1,-2
41628874229,-1,0,-1,0,1,-14,-3,-1
41628874951,6,-4,-5,0,-1,12,3,1
41628874951,-3,1,13,3,-3,14,2,-2
41628889949,0,-3,-23,-5,-5,-14,-5,-1
41628889949,-2,-2,-6,0,3,-4,-1,-2
41628896146,-6,0,18,-4,0,-7,-5,-2
41628896146,1,4,15,4,-6,-2,-1,0
41628911069,5,13,42,12,2,7,3,3
41628911069,-4,-9,-22,2,0,-4,-7,-4
41628919145,-4,-6,-43,-9,-7,-8,-2,-1
41628919145,-2,-7,6,9,-4,-6,-2,-4
41628934130,-2,-1,-10,-7,2,9,1,-2
41628934130,0,1,0,-5,-4,-1,0,0
41628934908,0,1,16,7,-1,-1,-1,1
41628934908,-1,0,1,-6,1,-3,-2,0
41628948447,0,-3,-15,2,-5,2,1,0
41628948447,-2,-3,4,-9,-7,-3,-5,-1
41628956014,0,-1,3,-1,-2,3,3,0
41628956014,-4,-8,-23,3,1,-8,-6,-2
41628970968,-3,2,21,-2,-1,-1,2,-2
41628970968,-3,-5,-9,-9,-1,11,4,1
41628979167,-9,-24,-82,-27,0,-12,-6,-4
41628979167,12,42,107,41,-1,12,5,3
41628993485,-3,-6,-21,4,4,3,-4,-1
41628993485,0,8,23,12,-9,-5,2,-1
41629001659,-1,-3,-7,0,4,0,1,0
41629001659,-7,-10,-35,-12,7,-4,-3,-3
41629008435,5,2,3,-13,-23,0,0,-2
41629008435,-1,-3,4,7,3,10,1,1
41629015956,1,7,16,14,14,-7,-2,-1
41629015956,3,-2,-11,-6,-12,2,3,2
41629030970,-6,-2,-12,-10,-9,-12,-7,-4
41629030970,-3,-3,9,4,6,-3,0,0
41629039209,1,4,14,-3,-3,12,6,1
41629039209,0,-3,-8,-1,0,-4,-7,-1
41629053483,-2,-5,-18,-1,5,0,8,-3
41629053483,5,10,22,1,0,-8,-8,8
41629061654,-2,-4,-22,-11,0,-6,-1,1
41629061654,0,3,31,14,-3,-11,2,1
41629068480,-9,-5,-7,2,-1,7,-2,1
41629068480,0,-1,0,-8,-3,2,-4,-7
41629075984,0,4,13,7,-3,-8,-2,0
41629075984,-2,-10,-28,-12,5,4,4,0
41629091027,0,-2,1,3,-1,-5,-2,-2
41629091027,0,1,3,1,0,-22,-7,-1
41629099255,-4,-5,-24,-10,-5,2,0,-3
41629099255,-1,3,27,12,-5,-12,-8,-2
41629113493,2,4,21,3,2,8,0,2
41629113493,-2,-1,-20,-10,-6,4,0,-1
41629121811,0,-4,1,-3,-4,-4,-2,-2
41629121811,0,-5,-17,-7,-1,1,-1,-2
41629153090,1,-3,2,3,5,-5,-2,0
41629153090,1,-4,-24,-5,-2,8,6,2
41629153839,-5,0,33,23,-1,-8,-6,-4
41629153839,2,15,24,-14,-5,8,5,1
41629155482,-3,-9,-4,1,3,0,-4,-2
41629155482,-1,1,-15,-2,1,-8,1,-2
41629159195,-2,-1,21,9,-1,17,7,0
41629159195,-1,-2,-28,-11,3,1,-5,-2
41629173573,-2,-2,-3,-3,-5,-21,-7,-2
41629173573,0,-1,-6,1,1,7,3,0
41629181741,-2,-4,-19,-9,-1,1,-1,-2
41629181741,-5,-13,-26,-8,-1,-1,-2,-2
41629197454,0,0,18,3,4,2,3,0
41629197454,2,1,-5,4,-3,1,1,0
41629198183,2,3,6,0,-2,-4,-4,0
41629198183,-3,-9,-20,-3,2,6,0,-2
41629211046,-4,-3,-19,-4,-1,17,4,-1
41629211046,-4,-4,9,-5,-3,-15,-8,-2
41629219216,1,-2,-9,-4,-4,-8,-2,0
41629219216,1,-2,-5,1,1,-11,-2,0
41629233599,-2,4,8,1,-1,9,1,-1
41629233599,-2,-4,6,-2,2,4,-1,-2
41629241715,-3,-4,-26,-8,2,4,2,-1
41629241715,-2,-4,13,14,-2,-5,-2,-3
41629257310,3,10,14,-12,-3,-6,-5,-1
41629257310,-7,-3,-6,3,1,-7,-2,3
41629258079,2,-2,9,0,-1,0,1,-3
41629258079,-1,-4,-12,-2,-3,-10,-6,-3
41629279023,2,-2,-3,2,0,-1,-3,0
41629279023,0,3,5,4,0,16,2,-1
41629286727,-1,2,19,3,-6,-19,-4,1
41629286727,-3,-3,-1,1,-5,6,-2,-3
41629293536,-2,0,-7,-1,-3,-19,-3,-1
41629293536,2,5,12,4,-3,9,-1,-1
41629301658,-1,5,-6,-5,-11,15,3,-1
41629301658,0,-3,-7,4,-3,-9,-3,2
41629317393,-2,-4,7,-2,2,-11,-4,-2
41629317393,-3,-4,-9,-15,-1,16,6,1
41629318197,2,0,1,2,5,-19,-5,0
41629318197,-7,-8,-35,-11,-3,6,1,-1
41629331048,-1,-7,18,12,5,1,-2,-2
41629331048,4,10,7,-11,-1,-1,-1,-1
41629339190,1,-4,3,5,4,11,1,2
41629339190,0,-1,-16,-18,-1,-4,1,-1
41629354014,-1,-7,-12,4,-3,-3,-3,0
41629354014,-4,-8,-10,0,2,-5,-3,-3
41629361786,1,-2,-7,-1,-7,2,2,0
41629361786,2,11,26,-2,-1,0,-2,-1
41629377369,1,-2,-15,-7,-4,3,0,-1
41629377369,0,-3,8,9,1,-3,2,-2
41629378189,1,2,6,-1,-1,5,1,-1
41629378189,-1,-4,-6,-2,0,-7,-3,-2
41629391073,-2,-2,-9,-5,-2,2,-3,-2
41629391073,-2,-5,-8,-4,-4,-12,-5,-1
41629399186,-3,-2,-9,-1,5,0,1,-1
41629399186,1,0,11,4,-3,16,4,0
41629413484,-2,-2,-30,-7,1,-13,-6,-3
41629413484,1,9,72,22,5,2,3,1
41629421674,-3,-2,-3,-4,-6,9,-2,-1
41629421674,-4,1,15,5,2,-11,5,2
41629437396,-2,-1,-21,-10,0,4,0,-1
41629437396,4,-5,-17,1,0,-3,0,-1
41629438120,-1,-1,1,-7,-3,-2,-1,-1
41629438120,-3,-6,8,2,1,2,-4,-1
41629450987,-1,1,0,2,-2,7,5,0
41629450987,-2,-3,-13,-9,-5,-12,-6,-2
41629459180,-2,1,4,1,-1,-5,-7,-3
41629459180,-1,-2,-12,-6,-3,-9,-5,-2
41629473500,1,1,12,4,3,11,8,-1
41629473500,0,-1,-8,-2,3,7,0,-2
41629481673,1,-5,-15,-8,-3,-11,-5,-1
41629481673,-1,-1,6,2,3,6,0,-1
41629496652,2,0,16,8,-1,-5,-2,3
41629496652,-2,6,19,5,-5,-2,1,-3
41629497420,-4,-3,-6,-6,-2,3,0,-3
41629497420,1,0,-17,-1,-2,-22,-7,-2
41629510983,-2,-8,-13,-8,1,11,2,0
41629510983,0,2,-3,-11,-6,-7,1,-1
41629520064,1,2,8,7,3,-7,-1,1
41629520064,-1,-2,11,6,-3,10,1,-2
41629533611,-1,-1,-1,-8,2,-3,-3,-2
41629533611,-1,-2,-7,1,3,-4,-2,0
41629542502,-1,-4,-8,1,1,-8,-3,0
41629542502,-1,7,14,-5,1,22,7,-1
41629556068,0,-2,-3,-4,0,-5,-3,0
41629556068,-3,-6,-12,0,-5,15,-1,0
41629565009,6,-3,10,-3,-6,-18,0,-2
41629565009,2,-2,-2,-3,-2,7,3,0
41629571121,-3,4,4,3,1,-15,-2,2
41629571121,3,-4,-12,0,-1,5,-3,-2
41629580004,-3,3,12,3,3,14,1,-1
41629580004,0,-3,-11,-2,-3,-15,-2,1
41629593548,-1,-2,-10,-8,-5,7,3,-2
41629593548,2,1,7,3,-1,-14,-5,2
41629602467,-6,-5,-7,-4,-1,-9,-4,-3
41629602467,-1,-6,-15,-2,0,11,4,1
41629616101,1,8,32,9,-2,6,1,-1
41629616101,-2,-1,-8,-5,0,-3,2,0
41629624964,-3,-8,-6,5,-5,13,3,-2
41629624964,-3,-1,-21,-21,-3,-13,-7,-2
41629631033,4,9,36,12,-1,0,1,0
41629631033,-4,-6,-16,-1,-1,1,-3,-3
41629640107,-2,-1,5,-3,3,-2,-3,-1
41629640107,-2,-8,-18,1,0,-3,-5,-2
41629653549,-5,-7,-16,-3,-6,-2,0,-3
41629653549,0,1,-8,-15,0,-6,1,-2
41629662472,2,5,33,18,0,0,-3,3
41629662472,-2,-3,2,-2,6,11,4,0
41629676060,0,3,8,-3,-10,-16,-8,-2
41629676060,-4,-3,-9,-5,1,18,5,0
41629693166,-3,-3,-12,-6,-1,-9,-4,-2
41629693166,-1,1,9,3,1,5,4,0
41629693977,1,-4,-9,-3,2,-7,-5,-1
41629693977,-3,-2,1,4,2,1,0,-1
41629700064,1,1,0,-3,-3,10,2,1
41629700064,1,6,7,-3,-5,-22,-5,-1
41629713944,-4,-10,-25,-8,6,25,0,-3
41629713944,2,4,18,8,-7,-32,-6,-1
41629722464,-3,-4,-10,-3,0,26,6,-2
41629722464,2,2,-2,0,-2,-10,-3,2
41629736125,-2,-3,7,-1,-1,-5,-1,-2
41629736125,-1,-5,-11,0,-2,-7,-2,0
41629745069,1,4,-1,-1,0,3,-1,-1
41629745069,-5,-3,4,-2,-3,-3,0,-2
41629750999,-2,-3,-10,2,-1,1,2,0
41629750999,-1,2,6,-4,11,12,1,1
41629760065,1,3,-7,-4,-2,-8,0,0
41629760065,0,0,16,4,-3,0,-2,-2
41629773543,-2,-5,-13,-2,-4,-9,0,-1
41629773543,-1,4,13,3,-3,8,1,-3
41629782574,-1,-4,-22,-9,2,5,-3,-2
41629782574,0,-1,9,-1,0,3,0,-2
41629796100,3,9,18,6,2,-15,-7,0
41629796100,-3,-2,4,4,-4,9,3,-2
41629804965,-2,-5,-5,-5,-4,-19,-10,-1
41629804965,-2,-6,-8,-2,-8,0,-2,-2
41629811067,-2,-2,1,1,3,-2,-2,-1
41629811067,-1,-4,-16,-6,-5,-4,-7,-2
41629820007,2,3,13,3,4,7,8,1
41629820007,-4,-4,-4,4,2,-3,-6,-3
41629833546,-3,-6,-31,-19,-5,-6,-1,-3
41629833546,-2,6,38,5,0,9,1,-1
41629842535,-1,-3,-1,1,-4,-12,-4,-3
41629842535,-1,2,-6,-4,0,-2,0,-2
41629856087,0,-3,-5,3,0,9,3,1
41629856087,1,-6,-20,-4,-2,-12,1,0
41629864999,-1,5,3,-4,8,-2,-1,-1
41629864999,1,2,21,7,-1,2,2,-2
41629871024,-2,-7,-5,0,-5,-4,-5,-4
41629871024,-1,-4,-14,-6,-3,1,1,0
41629880027,0,2,0,-2,2,-9,-2,-1
41629880027,0,-2,10,6,0,3,0,0
41629893607,-2,-1,5,2,-1,3,0,-1
41629893607,-1,0,-10,0,1,-6,-4,-1
41629902479,0,2,7,0,-3,-7,-4,2
41629902479,-1,-4,-15,-8,-7,3,3,-1
41629916022,0,0,10,1,3,9,2,0
41629916022,-3,-5,-5,0,-2,-10,-5,-2
41629924967,-1,-3,-15,-2,-3,6,3,-3
41629924967,-1,1,-4,-1,-1,-2,-1,-1
41629931019,1,0,-1,-1,3,-7,-3,1
41629931019,0,4,7,1,2,-5,-3,0
41629939954,0,-1,0,-3,-8,-9,-2,0
41629939954,0,-1,-5,0,2,12,3,0
41629953492,-1,-3,6,-5,3,4,3,-1
41629953492,0,1,5,4,-5,2,0,0
41629962478,-4,-7,-21,-5,-2,1,-2,-4
41629962478,0,10,36,8,0,-15,-7,-1
41629976014,-2,-5,-24,-11,0,0,-3,-2
41629976014,0,-1,-2,-2,-1,17,7,2
41629985003,-1,-6,7,2,3,2,0,-1
41629985003,-5,-7,-29,-9,0,-5,-3,-1
41629990978,3,9,30,13,0,5,0,2
41629990978,-3,-3,-1,-2,1,-12,-4,-1
41629999957,0,-1,-3,7,-3,-6,-7,-1
41629999957,3,1,-1,-11,4,14,7,2
41630013495,-3,-3,8,4,-3,0,1,-1
41630013495,-2,-5,-13,-7,0,1,-4,-2
41630022498,0,-2,4,1,-1,-10,2,0
41630022498,2,1,-6,1,0,1,-4,0
41630036068,1,-1,-2,2,-6,-4,-1,0
41630036068,-3,-6,-14,-6,-1,5,-3,-2
41630044997,-1,1,-3,-5,-3,5,5,0
41630044997,-2,-2,7,4,0,-12,-7,-1
41630051055,-3,-5,-20,-6,-8,-2,0,-3
41630051055,1,3,-4,-9,-1,-2,2,-1
41630060031,-1,6,39,13,1,6,-6,0
41630060031,-1,1,-2,4,-8,7,5,-1
41630073590,-2,-3,-12,-14,-5,-15,0,-2
41630073590,-3,-4,-18,-4,-3,-8,-4,-3
41630082516,-1,0,17,8,-2,8,3,0
41630082516,0,-4,-16,-9,-2,-10,-6,-1
41630096069,-3,-2,9,6,3,5,-2,-3
41630096069,1,1,-7,-3,-1,0,3,0
41630105062,0,-2,-17,-13,-7,-1,-2,-1
41630105062,-1,-3,3,2,0,1,-3,0
41630111108,0,0,-10,-4,-2,-11,-4,2
41630111108,-3,-5,-19,-3,0,5,3,-1
41630120096,2,10,48,10,2,-12,-7,0
41630120096,-1,-2,-6,-3,-1,10,1,-2
41630133587,-3,-5,-1,3,-2,8,0,-5
41630133587,2,1,-13,-7,-4,-1,1,1
41630142525,-2,-1,5,2,-1,-1,1,0
41630142525,-2,-3,-7,-1,-1,-5,-5,-1
41630156775,-1,0,4,-1,2,-7,-4,-1
41630156775,0,0,9,6,-4,-7,-5,-1
41630163595,-3,-10,-38,-15,-3,0,-1,-3
41630163595,1,0,16,13,4,5,1,-1
41630179937,1,1,-11,-4,-1,-6,-4,-1
41630179937,-2,0,17,1,-2,-3,-2,-2
41630181509,-3,-5,-18,-9,-1,2,2,-1
41630181509,0,-1,0,2,3,2,3,-1
41630193606,0,1,-2,4,2,4,-1,1
41630193606,0,5,16,1,-4,-6,-3,-3
41630202457,-1,1,-4,-1,0,-3,1,-3
41630202457,-1,1,-1,-4,-2,1,-3,-2
41630216769,-3,-7,-11,-2,-1,-1,-1,-2
41630216769,0,-3,-7,-6,4,5,3,2
41630223638,0,1,-8,1,-4,-2,-2,0
41630223638,1,0,8,8,-3,0,0,-2
41630239925,1,5,14,-4,0,-4,-1,1
41630239925,-3,-6,-11,4,-1,-5,-4,-1
41630241433,2,-1,-5,-1,3,14,1,1
41630241433,-3,-5,-15,-5,1,-9,0,-2
41630253586,3,3,4,3,-2,2,2,1
41630253586,-2,-1,15,6,-5,3,0,-1
41630262537,1,-3,-11,-7,0,4,3,-1
41630262537,-4,-5,-3,-3,-5,-19,-6,-4
41630276018,-1,5,7,2,2,12,3,1
41630276018,1,2,-1,1,-1,-10,-4,0
41630285091,-1,-2,8,-1,2,0,1,-1
41630285091,-2,-5,-13,-9,-7,-7,-3,0
41630299870,-1,-2,2,2,1,7,0,-2
41630299870,-1,-3,0,4,3,-6,-2,1
41630301453,-2,-3,-5,-2,-5,2,-4,-3
41630301453,-4,0,6,-4,-3,-14,0,1
41630313526,4,-1,-9,-8,-2,-1,1,-2
41630313526,0,2,2,3,-2,-6,-2,0
41630322538,0,-1,17,4,4,8,2,1
41630322538,-7,-1,-3,0,-2,4,-2,0
41630336719,-2,5,41,8,-5,-9,-6,-5
41630336719,-2,-9,-12,-3,-4,-7,0,-2
41630343556,0,-3,-32,-10,1,11,4,0
41630343556,-1,5,29,6,-2,-9,-4,1
41630359822,1,0,7,6,0,2,1,1
41630359822,-1,0,-6,-3,-4,9,0,-3
41630361428,-4,-3,-4,-4,-4,-16,-3,-1
41630361428,-1,-5,-8,1,3,8,-2,-3
41630373471,-3,-8,-27,-11,-1,-10,-4,-2
41630373471,1,9,26,1,3,0,0,3
41630382485,-4,-5,8,9,0,17,2,-3
41630382485,6,4,3,2,-4,-13,-2,-1
41630396704,-1,-4,-15,-5,-1,-8,0,1
41630396704,0,-2,-20,-10,0,6,-1,-1
41630403614,-2,-3,21,14,1,-1,-2,-1
41630403614,0,1,-6,-9,-1,1,1,-1
41630419979,1,7,22,7,0,5,5,2
41630419979,-1,-5,-2,3,0,-7,0,0
41630421480,2,-1,2,-2,-5,-12,-8,0
41630421480,0,0,-12,-3,-1,10,3,-1
41630433503,-4,-5,-5,-1,-10,-7,-4,-5
41630433503,-5,-1,3,-3,3,11,2,-1
41630442532,-9,-3,-8,-3,1,-8,-1,-3
41630442532,1,-2,-3,-9,0,-3,-5,-3
41630456774,-1,1,-3,-1,-1,-7,0,0
41630456774,-4,-3,9,9,-2,1,-2,-4
41630463572,-2,-4,-14,-4,-2,-3,-3,-3
41630463572,2,1,-2,-2,-1,3,-2,0
41630479910,-4,-5,-10,-5,0,1,0,-1
41630479910,1,-2,-6,-4,1,-2,-2,0
41630481473,0,0,-4,-2,-4,-14,-2,-1
41630481473,-1,-3,-2,5,3,9,2,0
41630493552,1,2,-12,-10,-11,-4,-2,0
41630493552,0,-2,-4,1,-5,7,2,0
41630502554,2,-2,-4,-4,0,0,-2,0
41630502554,-1,-4,-10,-4,-3,-11,0,-1
41630516787,-3,-3,-5,4,4,9,1,-3
41630516787,-2,-5,4,-5,5,-2,-1,-1
41630523617,1,2,-9,1,0,3,1,-2
41630523617,-1,8,19,2,-2,-3,-2,2
41630539957,0,-5,-18,2,7,-3,-3,-1
41630539957,-1,3,10,1,-9,-7,-5,-3
41630541533,2,4,-1,-3,2,12,6,2
41630541533,-3,-5,0,1,0,1,1,-3
41630553530,-1,-5,4,0,-1,-10,-3,-1
41630553530,-5,-7,-11,0,0,8,-2,-4
41630562526,-1,4,2,-3,-3,-6,-5,-1
41630562526,-2,-1,-9,-7,0,3,2,0
41630576736,1,2,5,-1,1,5,0,1
41630576736,0,-3,-21,-3,-4,-8,-4,-1
41630583562,-1,4,31,4,-1,-1,-1,-1
41630583562,2,4,20,10,0,6,1,-1
41630599899,-4,-6,-15,-5,0,1,0,-2
41630599899,3,2,8,1,3,11,1,1
41630601509,-1,-7,-27,-14,-7,-15,-6,-2
41630601509,-1,-2,12,5,2,4,-3,0
41630613595,-2,-8,-3,4,1,1,0,1
41630613595,0,4,-3,-7,-3,0,3,1
41630622625,0,6,26,11,2,-2,1,0
41630622625,-1,-4,-16,-10,-2,-4,-3,-2
41630636065,0,-1,5,0,-1,2,1,-2
41630636065,-3,-6,-10,1,1,-2,0,-3
41630645037,-1,-7,-15,-4,-3,-9,-6,-2
41630645037,-2,0,-11,-3,-4,-5,-3,-1
41630659943,2,3,-8,-6,0,7,0,0
41630659943,0,5,39,14,4,2,0,1
41630661476,-1,1,12,1,0,-1,-3,1
41630661476,1,3,-6,-4,-1,-1,0,0
41630673606,-3,-2,2,0,-2,-1,3,1
41630673606,-3,-7,-13,-6,-2,-1,0,-1
41630682547,2,-2,-8,2,-1,0,1,-2
41630682547,-4,-5,1,-2,-3,-5,-3,-3
41630696750,0,-1,-9,-7,-1,-1,-4,0
41630696750,3,2,17,3,-1,-4,0,1
41630703562,-2,-2,-6,-1,-2,3,-1,-2
41630703562,-2,-6,-15,-3,6,-1,-3,-1
41630719838,-1,-1,-12,-6,-27,-14,-4,-1
41630719838,-3,-5,-12,-5,0,-7,-6,-4
41630721491,2,4,10,1,1,10,4,2
41630721491,3,10,21,6,5,6,4,2
41630733560,-2,0,20,0,2,-1,-1,-2
41630733560,-1,-2,-22,-8,-2,-7,-4,-1
41630742441,1,3,15,5,4,4,0,1
41630742441,-3,-5,-7,0,-9,-4,-3,-3
41630756733,-1,0,1,4,7,0,1,0
41630756733,0,1,-4,1,-2,-4,-3,0
41630763465,-3,-6,-17,-2,3,-1,-1,-2
41630763465,1,3,5,-14,-2,2,0,0
41630779880,-2,-1,-5,0,7,-3,-2,-2
41630779880,1,4,-1,-4,-5,0,-2,-1
41630781463,-2,-6,-12,-4,-4,-10,-4,-3
41630781463,-1,-2,-9,-6,2,-2,0,-1
41630793522,-2,0,-5,-2,-4,-7,-6,-2
41630793522,-1,2,11,-2,1,13,5,0
41630802494,-4,-4,-13,-1,-2,2,0,-2
41630802494,-2,-5,-2,1,-3,-5,1,-1
41630816690,0,2,10,1,4,0,-1,-2
41630816690,2,-3,-1,-3,-5,-4,1,1
41630823477,-4,-6,-50,-12,-1,-4,-2,-2
41630823477,2,8,66,26,-2,2,0,-1
41630839867,-1,2,2,-14,-1,-1,-4,-1
41630839867,-5,-10,-18,1,2,-1,1,-1
41630841433,-1,2,14,-3,0,0,0,-1
41630841433,3,3,-19,1,5,4,4,1
41630853603,-3,-12,-6,1,-1,-4,0,-2
41630853603,-3,-1,-33,-19,-8,-1,-3,-3
41630862582,-4,-5,-2,9,-3,-1,-4,-5
41630862582,0,-2,26,4,1,1,0,0
41630876690,5,15,33,9,-2,-3,0,1
41630876690,-1,-2,-10,-4,-2,-5,0,1
41630883560,-3,-3,1,-3,-1,-1,-3,0
41630883560,-4,-10,-40,-11,-4,1,0,-4
41630899356,-2,-3,-12,-5,-2,2,-1,-1
41630899356,-1,2,28,7,3,-3,-1,-1
41630906046,-1,0,0,-7,-3,-7,-1,0
41630906046,-1,-4,-4,1,-5,-7,-4,-1
41630913577,2,1,-3,-4,-2,6,0,-1
41630913577,0,0,-12,1,1,-2,-1,-1
41630922565,-1,2,38,7,-5,-6,-2,-3
41630922565,-5,-11,-19,-3,4,5,2,1
41630936846,-5,-4,-28,-4,4,1,-2,-2
41630936846,3,11,39,7,-5,0,1,4
41630943538,-1,-2,-11,-9,-1,-8,1,-2
41630943538,-1,-2,5,4,-1,1,-5,-2
41630959335,-2,-5,-12,-2,2,-4,-1,0
41630959335,-4,-7,6,5,4,-1,-1,-3
41630966078,-1,0,-8,-9,1,7,1,-2
41630966078,2,12,26,5,1,-2,2,3
41630973580,0,0,-4,0,-1,-6,-2,0
41630973580,3,1,-6,3,-1,7,1,1
41630982621,0,-5,0,-10,-1,0,-1,-1
41630982621,-2,-3,-13,-4,-3,1,1,-1
41630996783,1,4,21,7,0,5,0,-2
41630996783,-2,-5,-5,-1,2,-6,-5,-1
41631003528,1,-1,-19,-9,8,12,3,-1
41631003528,2,8,10,4,-9,-17,-5,0
41631019316,-2,0,8,1,0,9,1,0
41631019316,-3,-3,-5,-1,-2,5,3,-4
41631026115,1,-1,-18,-5,2,-3,1,2
41631026115,-5,-7,-4,6,0,0,-5,-5
41631033584,-3,-8,-20,-11,-16,-2,-3,-4
41631033584,4,11,45,9,-1,-4,1,2
41631042588,1,5,0,-4,-1,5,1,3
41631042588,0,-1,13,-3,-1,-4,-2,0
41631056040,2,0,11,10,6,-7,2,2
41631056040,-6,-15,-49,-7,-11,8,1,-3
41631065030,3,18,66,18,-4,-10,-3,-2
41631065030,-3,-6,-29,-9,2,-1,-2,-2
41631079308,-3,-6,-16,-11,0,-4,-4,-3
41631079308,-2,-2,8,3,1,-2,-4,-4
41631086013,0,1,5,2,-4,-3,-1,2
41631086013,0,-3,-19,-9,-5,9,5,0
41631102399,-2,-4,-9,-1,0,-4,-1,-2
41631102399,0,0,4,1,5,4,1,1
41631103950,0,1,-3,-10,-5,-2,-3,-2
41631103950,0,-1,-4,-3,5,2,1,1
41631116049,-3,2,-1,-3,-10,-7,-1,0
41631116049,-2,-8,-23,-5,-4,-3,-6,-4
41631124980,-3,-3,21,8,4,1,-2,-3
41631124980,4,12,8,-1,-2,-5,2,1
41631139168,3,4,11,7,3,4,1,2
41631139168,1,1,-17,-8,4,-1,0,1
41631146058,-3,-10,-29,-4,-3,3,2,2
41631146058,-5,-6,0,3,-7,-6,-3,-3
41631162430,1,2,4,2,2,3,-3,-2
41631162430,4,9,22,-3,-5,-2,1,2
41631164006,-4,-8,-27,-4,0,-16,-6,-2
41631164006,-3,-8,-23,-6,8,7,-3,-3
41631176012,-1,2,16,12,-3,0,2,-2
41631176012,-3,-3,-1,-17,-4,-13,-4,-3
41631185017,0,0,28,4,-8,5,0,0
41631185017,-1,0,-6,5,-3,0,-3,0
41631199255,0,1,1,-1,3,2,0,1
41631199255,-2,-6,-17,-8,-3,-4,-4,-1
41631206130,1,-4,1,2,-1,-5,-1,-3
41631206130,-1,-4,-25,-5,-3,7,-1,-2
41631221526,-3,-5,1,-8,1,-6,0,1
41631221526,2,8,15,7,1,5,2,1
41631230027,-3,-4,-21,-5,-3,-4,-5,-2
41631230027,0,-4,-3,-6,-5,-1,-2,0
41631236082,-5,-13,-33,-12,1,5,0,-1
41631236082,0,11,56,16,-1,-5,3,0
41631245064,-1,4,0,0,0,2,0,-1
41631245064,0,-4,-3,6,5,-15,-3,0
41631259303,-1,-3,-3,1,-4,-1,-3,-4
41631259303,-1,-6,-3,-4,5,0,-1,-4
41631266076,-2,-4,-9,-1,1,4,0,-1
41631266076,0,3,12,0,1,6,3,0
41631282400,2,5,5,3,-3,-17,-7,2
41631282400,-3,-7,-26,-3,-11,-7,0,0
41631283969,0,-5,2,11,-4,18,3,1
41631283969,-1,-1,2,-21,4,-4,-1,-1
41631296039,-1,-1,15,5,-5,-3,-4,-1
41631296039,-1,-2,-18,-2,2,-5,-3,-1
41631305153,-2,0,-8,3,2,-5,-1,-1
41631305153,-3,-4,-1,-2,-5,1,-1,-2
41631319230,-2,-5,-19,-10,7,2,1,-3
41631319230,1,3,29,5,-1,2,0,2
41631326050,-2,-4,-9,-1,-4,-12,-5,-3
41631326050,-3,3,17,2,-9,-3,-4,-2
41631342451,1,3,1,0,2,5,5,1
41631342451,-3,-5,-11,2,14,6,-2,-1
41631344045,0,0,-4,-5,8,-3,-1,0
41631344045,-2,-5,-20,-6,1,4,-1,-2
41631356076,-4,0,23,14,7,12,6,-1
41631356076,-1,-5,-39,-19,-18,-6,-2,-3
41631365096,3,8,41,17,-1,-4,0,1
41631365096,1,3,2,-4,7,-1,2,2
41631379289,-2,-6,-9,5,8,-1,-1,-1
41631379289,-1,-4,-16,-20,-5,1,-1,-1
41631386106,-5,-8,-30,-10,-3,-5,-2,-2
41631386106,-1,1,13,5,3,-3,0,-2
41631402403,-1,-2,-1,1,1,8,-1,0
41631402403,-1,1,9,6,1,-4,-3,-3
41631403981,0,-6,-13,-10,-2,1,-1,-1
41631403981,-1,4,20,5,-6,5,3,-1
41631416158,0,-2,-15,-6,-9,-21,-6,0
41631416158,-4,-7,-12,4,-2,7,-1,-3
41631424997,-2,3,20,-2,-11,0,1,-1
41631424997,1,-4,-9,6,1,5,1,0
41631439180,-2,-3,-1,-16,-23,-17,-8,-2
41631439180,-2,2,9,8,1,-3,-3,-2
41631446070,-2,-3,-6,-4,0,-2,0,0
41631446070,1,1,-5,-1,1,-5,-3,0
41631462406,2,4,15,7,-5,2,3,1
41631462406,-4,-7,-4,4,2,-1,-2,-3
41631463996,0,1,-5,-8,-4,2,2,0
41631463996,-1,-3,-22,-7,-3,0,0,-1
41631476001,0,4,27,5,7,11,2,1
41631476001,1,2,-2,3,7,1,1,3
41631485023,-6,-7,2,3,-1,-1,-1,-6
41631485023,-3,-10,-37,-33,-9,-8,-5,-4
41631499007,0,2,14,8,-2,-2,-2,-3
41631499007,-1,-1,7,-3,-1,-1,0,-1
41631507495,0,-3,-29,-9,2,5,-1,-1
41631507495,1,6,38,18,-1,-3,-2,2
41631522378,-1,-1,-9,2,-5,-3,-1,-1
41631522378,-1,-1,1,-5,1,-6,-4,0
41631523965,-2,-2,-15,-2,-6,11,3,-2
41631523965,-2,-3,8,8,-1,-9,-6,-2
41631536111,0,-2,-21,-12,2,4,0,-1
41631536111,-1,1,20,12,6,2,5,1
41631545076,0,0,7,-5,-12,-8,-3,-4
41631545076,0,-3,-6,-1,-9,-6,-1,0
41631559267,1,1,2,-5,8,5,-1,-1
41631559267,0,2,3,-1,0,-1,0,2
41631566102,1,-1,8,10,0,1,0,1
41631566102,-3,-2,-11,-6,-2,-3,0,-2
41631582459,-3,-9,-17,-10,2,-5,-2,-3
41631582459,0,-1,-26,-14,-7,4,-1,-4
41631584006,2,5,28,7,8,-3,1,2
41631584006,-3,-6,-14,0,-8,-8,-5,-3
41631596131,-4,-6,-9,0,-4,-1,-1,-1
41631596131,-2,2,2,4,-3,1,2,-3
41631605142,-2,1,22,1,8,-3,-3,-3
41631605142,-1,-1,5,2,-2,2,0,-2
41631619355,0,1,-2,0,-3,-4,-3,0
41631619355,-1,0,6,4,4,-2,-4,-2
41631626092,-2,-10,-26,-1,-2,1,1,0
41631626092,2,6,12,0,3,3,-1,0
41631642484,1,-2,-22,-8,-4,4,2,0
41631642484,1,8,36,0,-7,-4,-1,-1
41631644032,1,4,6,5,5,-4,-1,2
41631644032,-2,-8,-25,-7,-2,0,0,-2
41631656108,-2,-1,4,6,-3,-4,-1,-2
41631656108,1,-3,-5,-3,-5,-2,0,0
41631665047,-2,4,1,-2,-3,-1,-4,-1
41631665047,-1,-3,-16,-3,10,-1,1,1
41631679252,-2,-2,30,4,2,-3,-4,-3
41631679252,-2,-6,-25,-12,-3,6,2,0
41631686163,0,1,16,-12,-4,-4,-4,0
41631686163,1,0,-7,3,-1,-6,-1,-1
41631702363,0,2,-3,2,1,9,4,0
41631702363,-2,-6,-3,4,2,-7,-3,-2
41631703945,-4,-6,-12,-3,-7,-2,-3,-1
41631703945,-4,-5,-6,-7,2,-3,0,-3
41631716086,1,2,2,0,-7,-3,-3,2
41631716086,4,6,2,-3,-3,-3,2,2
41631725152,-2,-8,-37,-7,-1,-2,-4,-2
41631725152,2,14,62,17,0,-2,1,1
41631739291,-1,-4,-10,-2,2,5,1,-1
41631739291,-2,-6,-8,8,8,2,-2,-1
41631746092,1,0,-13,-15,-1,-10,-5,-3
41631746092,-4,-6,0,-2,-6,11,2,-3
41631762392,1,4,-5,1,11,-9,-1,2
41631762392,1,0,3,-6,-5,1,1,1
41631764045,-3,-5,-23,-3,-2,-2,0,-1
41631764045,0,5,29,9,2,0,1,1
41631776181,-2,3,23,0,-9,1,1,-1
41631776181,-1,-3,-10,1,-2,-1,0,-2
41631785048,1,1,12,12,0,-2,-1,-1
41631785048,-1,-4,-28,-11,-2,1,-4,-2
41631799295,-1,-5,-10,-6,-4,-7,-1,-2
41631799295,0,-2,-5,-5,1,0,-2,0
41631806040,3,2,10,5,9,5,2,1
41631806040,-1,-1,-14,-4,-5,-3,-3,-3
41631822472,-2,0,4,-4,6,0,-2,-3
41631822472,-1,1,9,0,-18,-8,-3,-5
41631824001,1,0,-12,0,-5,-16,-7,-1
41631824001,1,-3,4,1,4,4,0,0
41631836072,-3,-6,-17,-9,2,-1,0,-1
41631836072,-3,-1,0,1,1,3,-1,-3
41631845084,0,-1,18,5,-3,0,3,0
41631845084,1,5,23,12,3,-14,-4,-1
41631859349,-2,-2,6,2,-4,-3,-2,1
41631859349,-2,-2,-7,-6,1,1,-3,-3
41631866081,0,1,-8,-3,-3,14,4,-1
41631866081,-3,-9,-19,-7,-3,-3,-3,-1
41631881763,1,4,19,6,-1,2,0,-1
41631881763,-3,-9,-23,-11,2,-7,-5,-2
41631888565,0,6,15,9,-3,-4,-1,-1
41631888565,-4,-3,-22,-14,1,-2,-3,0
41631896015,0,3,5,-2,5,8,1,0
41631896015,1,1,10,2,-4,1,2,4
41631905025,-1,-2,-14,-10,5,6,2,1
41631905025,-1,0,18,6,-7,-13,-1,-2
41631919260,3,4,4,6,-4,4,0,1
41631919260,-1,-2,-5,-4,-4,-4,-4,-1
41631926014,-3,-4,4,1,0,11,3,-1
41631926014,0,-4,-13,-1,1,0,1,-2
41631941885,-3,-9,-27,-14,-4,-7,-3,-3
41631941885,2,10,36,15,-2,1,0,0
41631948558,2,4,7,0,11,-1,0,2
41631948558,-6,-9,-12,-1,-2,1,-3,-2
41631956116,1,2,5,-13,-5,-5,-1,-1
41631956116,-2,-2,-3,3,-1,-1,-1,-2
41631965082,-3,-2,3,-7,-6,0,-4,-3
41631965082,0,2,-5,0,-2,-3,-1,-2
41631979295,-3,-3,3,11,10,4,1,0
41631979295,-1,-3,-6,-7,1,-4,1,-1
41631986141,2,4,-7,-12,-13,-2,-1,0
41631986141,1,0,4,9,-1,0,-3,0
41632009970,0,-2,-2,-1,-2,-6,-2,-2
41632009970,0,-1,-8,1,6,-2,0,0
41632011478,-2,-3,-2,2,-1,1,-1,-1
41632011478,-1,-1,-6,-4,-2,7,1,-2
41632025369,-1,-3,-10,-2,-6,-2,1,0
41632025369,0,1,10,2,5,-6,-2,-2
41632026918,-4,-8,-21,2,0,-6,-2,-2
41632026918,2,5,1,-12,-3,0,0,0
41632047499,1,2,-8,-10,-2,-6,-2,1
41632047499,-2,-4,3,4,4,8,2,1
41632049038,-4,-2,15,7,-3,-11,-4,-3
41632049038,-1,-3,-6,-7,-7,-1,-2,-2
41632061815,-3,-4,-28,-2,-8,0,-1,-1
41632061815,-3,-3,-1,1,-4,-2,-3,-1
41632068661,2,12,39,8,-5,1,0,2
41632068661,2,2,11,8,9,-6,1,1
41632084959,-2,-5,-12,-6,-2,-1,-1,-2
41632084959,-4,-5,-19,-1,-3,-8,-4,-4
41632086465,-3,-9,-30,-6,16,13,5,0
41632086465,-1,4,26,6,1,5,-2,-1
41632099363,-1,2,10,12,0,3,0,-2
41632099363,-5,-8,-5,-3,-24,-8,1,-4
41632106167,3,4,0,-8,-1,-12,-7,-1
41632106167,-2,-3,-15,-2,7,-1,1,0
41632121815,-3,-6,-4,-4,0,-1,-3,-1
41632121815,0,0,-20,1,9,8,1,-1
41632128617,1,0,24,6,-2,-7,-2,-1
41632128617,2,9,50,8,-4,2,2,3
41632145004,-3,-3,-3,4,0,-8,-5,-3
41632145004,0,0,1,-1,2,5,-1,0
41632146564,0,-2,-8,-13,-10,-1,-2,-1
41632146564,-5,-12,-37,-10,0,1,-2,-3
41632159289,4,5,33,13,19,15,5,1
41632159289,1,3,1,-5,1,-6,-1,1
41632166077,-4,-7,-16,-7,-7,2,1,-5
41632166077,-1,-2,0,2,-5,-2,-1,-2
41632181786,-3,-2,-5,-4,-3,-5,-1,-1
41632181786,-2,0,-3,-5,0,4,-2,0
41632188564,-3,-7,-28,-5,0,-2,-1,-1
41632188564,1,7,28,11,0,-1,1,-2
41632204923,1,0,5,-12,-4,4,0,-1
41632204923,0,-4,-1,1,2,-8,-4,-2
41632206526,1,2,-14,-2,-1,4,1,1
41632206526,-1,-3,11,17,2,-11,-5,-1
41632219258,-1,1,-7,-3,-8,-4,-3,-2
41632219258,-1,-2,1,-5,3,5,2,-1
41632226089,-5,-4,-18,-15,-6,-1,-3,-3
41632226089,-3,-8,-25,3,-4,-3,-2,-3
41632241768,-1,4,28,-10,-5,-2,-2,-2
41632241768,0,0,4,7,15,2,2,1
41632248516,-2,-1,10,7,-2,-4,-1,-2
41632248516,-1,-3,-18,-16,-4,2,0,0
41632264902,-1,-4,-24,-7,-8,-11,-5,-3
41632264902,-3,0,-9,7,13,5,3,2
41632266496,2,6,16,11,-3,-6,-6,1
41632266496,-1,-6,-24,-23,-1,2,1,0
41632279293,0,-2,7,13,0,11,4,1
41632279293,1,10,37,3,0,-13,-4,1
41632286015,-2,-3,-18,-2,-6,-9,-1,-1
41632286015,-1,-3,10,0,2,5,0,-1
41632301742,-1,-1,-17,-10,-8,-2,1,-2
41632301742,-2,-6,-9,6,-6,0,-1,-4
41632308498,-2,0,13,11,6,1,1,-2
41632308498,-2,-3,-37,-24,-7,-6,-2,0
41632324885,-1,9,28,6,0,-4,-4,0
41632324885,-2,-6,13,10,-8,-7,-7,-4
41632326465,3,2,-8,-14,5,5,8,1
41632326465,-2,-1,-11,-3,-1,6,-1,-1
41632338545,-3,-8,-7,8,-4,-12,-2,-2
41632338545,1,1,-5,-15,-7,-1,-2,0
41632347500,-3,-2,7,13,4,-4,-4,-2
41632347500,-1,-4,-2,-8,-6,-5,-1,-1
41632361775,-2,-2,-5,-5,-6,-4,1,0
41632361775,2,3,-11,-4,-3,2,-1,1
41632368640,-1,-4,11,2,2,2,0,-1
41632368640,-1,-4,2,9,0,8,-2,-3
41632384966,-3,-1,-13,0,1,-14,-7,-2
41632384966,3,10,8,-12,-5,2,4,1
41632386512,1,4,34,8,-4,-2,-2,1
41632386512,0,-5,-31,0,2,5,3,-1
41632398534,-1,0,40,21,14,0,-1,-2
41632398534,-1,-6,-5,-9,-5,-7,-1,-1
41632407546,-2,-3,-15,-11,-2,7,-1,-1
41632407546,4,5,12,8,2,-12,-3,3
41632421772,-1,1,-14,-2,0,5,0,-1
41632421772,-3,-6,-4,-11,-4,-8,-2,-2
41632428586,-1,-1,12,10,-7,-1,-2,-2
41632428586,-3,-2,2,-6,-3,2,1,-2
41632444899,0,0,-14,-7,-1,4,-1,0
41632444899,-1,1,8,6,-1,4,2,0
41632446503,-3,-5,-24,-9,0,-15,-6,-3
41632446503,-1,3,19,5,-4,-3,-1,-3
41632458578,-2,-5,-19,-15,-10,8,3,-1
41632458578,-1,-2,-5,-1,0,-4,-3,0
41632467538,2,0,0,0,-1,-3,-4,0
41632467538,-3,0,-2,-1,-8,-5,-4,1
41632481768,8,-5,-9,1,5,1,-1,-1
41632481768,-2,-4,-5,5,2,-2,1,-2
41632488598,0,4,1,-14,0,7,3,0
41632488598,-7,-3,15,4,0,-2,0,-2
41632504923,-9,-4,-12,-8,0,2,-2,-4
41632504923,9,5,14,10,3,3,-1,6
41632506520,-1,-2,3,4,-5,-2,-2,-1
41632506520,-2,-1,-8,-6,-3,-4,-1,-3
41632518545,-3,1,8,4,4,3,2,0
41632518545,2,-7,-15,-9,-1,1,-2,-4
41632527588,-15,-5,-4,-4,-4,-7,-5,-6
41632527588,9,3,-4,-1,5,11,3,8
41632541752,-6,-6,-15,3,2,-3,0,-1
41632541752,3,5,15,0,2,9,4,1
41632548561,10,8,37,21,-4,0,4,12
41632548561,-4,-1,2,4,-1,-13,-6,-7
41632564901,-11,-4,-18,-7,1,3,3,0
41632564901,-8,-8,-28,-4,-4,1,-3,-5
41632566496,-1,4,28,-6,-6,-8,0,-5
41632566496,0,-3,-3,4,3,-1,-3,-3
41632578603,1,0,1,-1,4,11,3,1
41632578603,-5,-8,-31,-18,-6,-15,-7,-3
41632587496,0,-5,1,14,3,3,-1,-1
41632587496,1,-1,-16,-6,-2,-2,-1,1
41632601720,3,4,19,12,-3,-15,-3,-2
41632601720,-4,-3,8,-18,0,12,1,-2
41632608581,0,-12,-49,-11,-1,-2,-3,-3
41632608581,-8,2,7,-7,2,-2,1,2
41632624873,7,1,21,11,-3,-5,-2,-3
41632624873,-1,-5,-24,4,1,-2,-1,0
41632626465,-1,4,1,-8,5,1,2,1
41632626465,-2,-3,-22,-13,-8,-1,-1,-3
41632638536,3,8,51,15,-2,-3,-1,3
41632638536,-7,-5,2,6,-3,-1,-1,-3
41632647549,-4,-8,-21,3,-10,-6,-4,-3
41632647549,3,4,12,-15,-10,4,0,1
41632661808,2,-2,-18,-12,0,-8,-2,0
41632661808,-1,-1,12,12,6,5,-2,-2
41632668504,-2,0,-11,-1,0,4,4,-1
41632668504,-2,-3,-10,-12,-2,-3,-4,-2
41632684906,-1,-3,-13,-7,-7,-4,-3,-4
41632684906,2,5,8,3,1,-4,-3,0
41632686499,-1,-2,-3,-4,5,0,-1,-2
41632686499,4,7,16,14,2,6,3,3
41632698565,-2,-5,2,-2,1,-1,-1,-1
41632698565,-2,-5,-15,4,-3,-6,-2,-2
41632707531,1,6,32,-5,1,7,-2,-1
41632707531,1,-2,-16,-6,4,0,-1,-1
41632721794,1,1,-8,-3,-3,1,-1,-1
41632721794,2,5,23,11,0,0,2,2
41632728594,-6,-9,-21,-9,-4,-8,-5,-2
41632728594,1,-4,11,4,4,4,-1,-2
41632744897,1,5,6,5,0,3,1,0
41632744897,-10,-3,-16,-12,0,2,0,-1
41632746506,5,1,-6,-1,3,-7,-3,1
41632746506,-5,-1,10,16,7,-5,-3,-3
41632758545,2,3,6,-15,-1,-2,-4,-2
41632758545,-2,-3,7,3,1,11,6,0
41632767562,0,1,-10,-2,0,-2,-3,0
41632767562,-4,-9,-19,9,3,1,0,-8
41632781779,-6,-8,-55,-19,1,-4,-3,3
41632781779,10,25,62,28,5,-4,1,10
41632788550,-19,-11,-42,-10,3,3,-3,-69
41632788550,-9,3,42,18,-2,-10,-7,31
41632804313,31,-7,-44,-17,-1,13,14,39
41632804313,-3,-3,22,2,-4,-7,-8,6
41632811061,12,9,10,3,-1,4,8,21
41632811061,-1,1,11,1,-2,-4,-2,-20
41632818562,-17,3,19,10,2,-7,-8,-22
41632818562,-3,-8,-31,-4,-6,2,2,4
41632827585,5,3,53,14,3,-3,-6,-8
41632827585,-6,-5,-15,-6,-5,7,3,-5
41632841803,-1,-1,-9,-3,0,5,-2,6
41632841803,3,3,0,-3,-1,-10,0,-10
41632848510,-5,-2,-11,-10,-5,2,-3,9
41632848510,9,5,-5,-4,-5,1,1,5
41632864248,-5,-7,7,14,-3,-2,0,-4
41632864248,-4,-4,-32,-17,3,4,-3,-14
41632871059,0,-2,4,7,-2,1,1,12
41632871059,1,-5,-22,-15,-1,-6,-2,2
41632878530,-5,8,52,22,-5,7,4,-14
41632878530,-1,-6,-14,-7,-9,-14,-7,-5
41632887525,3,0,-18,2,-1,-4,-1,25
41632887525,3,2,6,2,-3,6,2,-5
41632901742,-7,-8,-19,-12,-3,1,-2,-9
41632901742,1,-3,-3,-5,-1,3,-1,3
41632908519,0,-5,-10,-6,-3,-8,-3,2
41632908519,-3,-3,-9,-4,3,-2,-1,-7
41632932405,-3,0,20,8,-1,-8,-2,0
41632932405,-1,-5,-12,-12,0,10,4,1
41632933970,0,2,1,16,5,6,1,-3
41632933970,5,19,88,16,-4,-8,0,3
41632938570,-3,-6,-19,-5,-1,-1,-2,-5
41632938570,-6,-10,-25,1,-4,-8,-1,0
41632947501,1,0,0,-13,0,3,-3,0
41632947501,-2,-1,-15,-2,2,2,2,1
41632961828,0,-4,-21,-6,6,15,2,-1
41632961828,-1,7,42,7,-6,-26,-7,-7
41632968588,-6,-4,-10,-8,-9,-8,-3,-2
41632968588,-6,0,-6,1,4,7,3,-12
41632984286,-6,-3,-7,-7,-5,-5,0,-9
41632984286,12,-13,-55,-18,4,11,-1,25
41632998574,3,10,80,29,5,1,3,1
41632998574,-1,-8,-25,-12,-6,-14,-7,-2
41633007431,-1,3,8,10,-4,-1,-3,-10
41633007431,-1,3,-2,-1,-3,-1,2,-4
41633009033,-1,0,5,-18,-6,1,-1,-3
41633009033,1,-4,-23,-2,-4,1,1,1
41633021742,-4,-6,-12,-10,0,-10,-4,3
41633021742,0,1,9,8,-2,2,0,-5
41633028604,-5,-15,-74,-24,1,-1,-1,0
41633028604,-1,5,43,16,-1,5,0,-3
41633044258,7,7,41,18,8,-3,0,7
41633044258,-5,-6,-19,-5,0,2,0,-5
41633051057,-2,3,11,5,-4,-3,0,-2
41633051057,-4,-14,-55,-27,-2,0,-4,0
41633067402,0,-2,-7,-4,-5,-4,1,2
41633067402,-8,-5,-7,-7,1,0,-1,-7
41633069031,-1,1,11,17,5,2,2,2
41633069031,3,2,-16,-16,0,-2,-3,2
41633081756,-4,13,73,30,-3,-4,-2,1
41633081756,1,-6,-17,-22,-4,3,-1,-7
41633088582,-3,-4,-9,4,0,5,-1,1
41633088582,0,-4,-13,-1,1,-3,0,0
41633104253,-1,-2,-16,-12,1,1,-4,-2
41633104253,-4,-3,0,9,1,6,1,-2
41633111120,2,2,12,-8,-4,-2,-1,-1
41633111120,0,-2,-5,-1,-2,-4,0,-2
41633127409,-2,-6,-27,-10,-2,-3,-3,-1
41633127409,0,0,19,11,2,-7,-1,-2
41633129028,2,-1,-19,-1,-3,-4,-1,-2
41633129028,-7,-6,2,-6,-2,10,-3,-3
41633141747,2,-4,-36,-10,3,-10,-1,2
41633141747,4,22,65,22,-4,10,1,2
41633148529,-3,-4,-18,-9,5,-12,2,0
41633148529,1,-2,21,12,-1,-5,-1,0
41633164300,0,-2,-12,-3,1,4,-1,0
41633164300,-2,-1,7,-2,0,-1,-1,-2
41633171049,3,0,-10,-2,-1,-4,-1,1
41633171049,0,4,7,6,5,6,3,-1
41633187384,-1,-3,-18,-14,-8,-9,-5,-2
41633187384,-2,-3,-6,1,-2,-6,-3,-3
41633189025,-3,3,16,1,-2,0,0,0
41633189025,-3,-5,-19,-5,-2,-4,-1,1
41633201706,-1,1,8,0,-4,-8,-5,-3
41633201706,-4,0,-6,-1,2,26,8,1
41633208613,-1,-3,2,0,1,-2,-2,-1
41633208613,-1,0,0,3,0,-1,-3,0
41633224309,-2,0,-4,-2,-2,-1,0,-1
41633224309,0,-1,1,2,0,-9,-3,-2
41633231088,-1,-5,-22,-13,-1,13,3,2
41633231088,3,8,32,8,-3,-16,0,2
41633247465,-2,-3,-4,2,0,-1,1,0
41633247465,0,0,4,-7,0,-7,-6,-1
41633249062,-4,-2,8,5,3,9,3,-2
41633249062,0,-2,-3,4,-8,-4,-4,-5
41633261072,0,2,-7,-7,2,2,3,1
41633261072,-1,-3,2,-3,-4,-7,-5,-3
41633270063,-2,-3,-3,1,2,9,-2,-2
41633270063,-2,-5,-8,-2,3,12,0,-1
41633284300,0,-3,-10,-8,-7,-5,0,-1
41633284300,-1,3,-6,1,-2,-5,-2,0
41633291053,0,0,3,-6,-2,-13,-2,0
41633291053,-2,-1,-6,-2,0,1,-3,-2
41633307443,0,-2,6,3,-1,3,0,-1
41633307443,-2,-6,-11,-2,-3,-6,0,-1
41633309015,0,-1,1,-3,-6,-6,-2,-2
41633309015,0,-3,-9,-4,-5,0,0,0
41633321089,-2,0,-3,-7,0,-5,-4,-3
41633321089,0,1,34,10,-4,6,4,0
41633330035,0,3,5,4,1,6,-1,-1
41633330035,-3,-3,-9,1,5,-1,0,-1
41633345002,0,-4,-26,-8,2,6,0,0
41633345002,-1,3,10,12,1,-7,-5,-4
41633351102,-2,3,13,-9,-5,-1,-1,-2
41633351102,1,3,-1,-2,3,2,2,1
41633366733,-1,-2,4,0,0,-5,-4,-4
41633366733,2,-7,-31,-12,0,8,5,3
41633367495,-3,-2,2,6,-3,-13,-4,-1
41633367495,-1,-3,2,-1,0,4,0,-2
41633382548,0,2,7,3,1,3,-1,-2
41633382548,0,-2,-11,-6,1,-3,-1,-1
41633388624,0,-1,2,0,-1,-3,-2,-3
41633388624,-2,-1,-10,-3,-2,-11,-5,2
41633405131,0,-1,11,6,4,23,5,-1
41633405131,-2,-1,-9,-4,-4,5,0,-1
41633411079,0,-2,2,0,1,-9,-1,0
41633411079,-2,-1,-11,-7,-3,-6,-4,-2
41633426765,-2,-6,6,3,-5,-7,-6,-4
41633426765,0,1,-5,-6,3,7,3,1
41633427546,-3,-4,-19,-4,-3,0,-2,-2
41633427546,-1,0,3,3,-1,12,5,1
41633442599,-2,-2,-7,-5,-3,-8,-1,3
41633442599,-2,-4,-9,-5,-2,-9,-5,-1
41633448598,-1,1,10,2,3,1,-4,0
41633448598,-2,-2,5,11,-1,2,2,-1
41633465067,1,6,20,-8,-5,11,5,0
41633465067,-2,-4,-13,-2,-2,-7,-2,-2
41633471122,-4,-5,-13,-6,-4,-2,-2,-3
41633471122,-4,-7,-9,-4,-3,-6,-5,-3
41633486749,-1,0,-1,5,2,-9,-3,-2
41633486749,1,2,12,3,-2,-3,0,-1
41633487543,-1,-2,-8,-4,-1,1,-2,-2
41633487543,-1,-2,-1,0,3,5,0,-3
41633502544,-1,-2,-8,1,-6,-13,-3,-2
41633502544,-1,1,3,-4,-2,5,-1,-2
41633508581,-2,-4,-8,0,2,4,-2,1
41633508581,0,1,-1,-3,-3,-1,1,-1
41633525091,0,4,10,6,2,1,1,2
41633525091,-1,-3,-12,-6,-1,-7,-5,-3
41633531122,-2,-1,5,2,-5,4,3,0
41633531122,0,-3,-1,1,1,1,1,0
41633546725,2,2,-12,-6,4,3,0,1
41633546725,-1,-4,-3,-5,-3,-16,-3,0
41633547557,1,2,25,12,-2,0,1,0
41633547557,0,-1,-9,-15,-1,-7,-4,-1
41633562571,-2,-4,5,8,0,2,0,0
41633562571,-2,-2,-9,-2,-3,0,-1,-1
41633568554,-1,-1,-10,-4,2,5,1,-3
41633568554,1,1,6,6,1,-5,1,-1
41633585090,-3,-4,2,-4,0,-3,-1,-1
41633585090,-1,-1,0,-2,1,-1,-1,-1
41633591066,-1,1,2,1,0,4,0,-1
41633591066,-1,1,5,-1,-3,-2,-4,-2
41633606728,-3,-2,-6,-3,1,8,3,0
41633606728,-1,2,6,2,-3,-14,-7,-1
41633607494,1,0,-7,-3,0,-5,1,1
41633607494,-1,2,0,0,2,-1,-2,-1
41633622575,-3,-3,-1,-2,-2,2,1,-3
41633622575,-1,2,3,1,-1,4,2,1
41633628546,1,2,0,0,0,1,2,-1
41633628546,-2,-2,-2,-2,-1,-11,-5,-1
41633645062,-1,-4,-4,-5,-5,0,1,0
41633645062,-2,1,11,5,3,5,1,-1
41633651023,0,-1,-5,0,6,-4,-1,3
41633651023,0,0,-1,0,-4,1,2,-2
41633666780,0,5,4,0,1,-11,-7,-2
41633666780,-3,-3,-4,-3,1,3,1,0
41633667500,-2,-1,-1,-1,2,-7,-4,-3
41633667500,-2,-2,-6,-1,-2,10,4,0
41633682593,3,3,10,5,1,6,-3,0
41633682593,-3,-7,-16,-4,-3,-30,-3,-2
41633688577,1,12,35,5,0,18,1,-1
41633688577,0,-2,-3,1,-2,-13,-5,1
41633705524,-2,-5,-17,-10,-3,-1,0,-2
41633705524,-1,2,16,6,-3,6,0,-2
41633711015,-2,-7,-17,-6,-3,-6,-3,-1
41633711015,-3,-1,0,-1,-3,-2,-4,-4
41633726045,0,0,0,0,-3,7,5,1
41633726045,-2,-5,-9,-4,0,3,-1,-3
41633733546,1,-1,-7,-3,-2,-7,-1,-1
41633733546,0,0,6,-1,-5,2,-1,-1
41633742591,-3,-4,-5,0,-1,-6,-1,-2
41633742591,-1,0,-1,-3,-1,7,2,-1
41633748570,-4,-4,-2,-2,-3,-6,-3,-2
41633748570,0,-3,-2,-2,-1,0,-2,0
41633765084,-1,-2,1,0,-3,-12,-4,-1
41633765084,0,1,0,-1,0,6,0,0
41633771082,-1,-2,-4,0,0,-3,-2,-1
41633771082,-1,0,-1,0,2,4,2,-1
41633786097,-1,-2,-8,-2,0,-14,-3,0
41633786097,0,4,13,4,1,8,-3,-1
41633793578,1,-2,-14,-6,-2,-6,-2,0
41633793578,1,5,19,3,4,3,5,1
41633802593,-3,-3,-3,0,-2,9,-1,-1
41633802593,-3,-5,-8,-2,0,-9,0,-1
41633808618,-2,-3,-1,-2,0,-2,-2,-1
41633808618,2,5,14,8,-3,-1,2,1
41633825090,1,4,2,-7,2,3,-1,-1
41633825090,0,-1,0,0,-5,-4,0,0
41633831078,-3,-3,-8,-1,3,15,3,-2
41633831078,-2,-4,-11,-5,-5,-13,-5,-3
41633854267,-1,-6,-5,1,-2,-1,-1,-1
41633854267,4,7,1,-2,1,1,3,2
41633855007,-2,-1,5,0,-2,-14,-5,-2
41633855007,-2,-7,-17,-6,1,7,0,1
41633869234,-1,1,17,6,-1,-4,-4,-1
41633869234,-2,-4,-6,-2,0,-6,-4,-3
41633870029,1,0,2,1,-1,-1,1,2
41633870029,-2,0,-2,-3,1,11,0,-2
41633885105,-1,-2,-6,-3,-4,-9,-2,0
41633885105,-1,-1,-3,-1,1,6,-1,-2
41633891107,0,-2,2,0,-6,-5,0,0
41633891107,-2,-2,-3,-1,4,-6,-4,-1
41633906069,1,-2,-3,2,-2,1,3,0
41633906069,0,3,4,-2,-3,2,-1,-3
41633913579,-1,-1,-4,-2,2,6,0,0
41633913579,0,-1,0,-2,-3,-6,-2,0
41633929287,0,-1,1,-1,1,5,2,-1
41633929287,-3,-1,-4,2,-1,2,-1,-1
41633930055,-2,-5,-10,-6,-7,-13,-4,-4
41633930055,1,0,10,3,0,4,2,-1
41633945101,-1,-1,-3,-1,1,0,-1,-2
41633945101,-3,-4,3,-2,-3,-5,-3,-3
41633951090,-1,-1,-8,-1,-4,5,1,2
41633951090,-2,-2,-8,-2,-4,-8,-3,-2
41633966107,-1,-1,8,-2,-3,3,-2,-1
41633966107,-3,-5,-10,-3,-1,12,0,-3
41633973585,-1,5,5,1,0,-17,-4,0
41633973585,1,-1,-7,-1,-3,-6,-2,-2
41633989230,-1,-1,-3,-6,-2,2,1,-1
41633989230,-2,0,-4,-1,-1,0,-1,-1
41633989993,-2,-3,0,1,1,4,0,-1
41633989993,0,-2,-1,-2,0,-3,-1,0
41634005023,-2,-2,-1,0,0,-6,0,0
41634005023,-2,-2,1,-2,-1,-2,-4,0
41634011115,2,2,-1,0,2,7,2,0
41634011115,-3,-3,-2,-5,-9,-5,-2,-1
41634026053,-1,-1,-4,1,0,-4,-2,-2
41634026053,1,0,-2,0,2,-6,-1,0
41634033592,-1,-4,2,-1,-1,-2,-2,-2
41634033592,-2,-1,1,1,4,11,1,-1
41634049216,-1,0,-2,1,0,3,0,-3
41634049216,-1,-2,-2,-1,0,1,1,-1
41634050005,1,1,0,-1,-1,-11,-5,-1
41634050005,0,-1,-1,-4,-2,-4,-1,1
41634065074,0,-1,-1,0,1,-2,-2,-2
41634065074,-2,-1,0,-1,-3,-3,1,1
41634071059,-2,-4,-4,-2,-2,6,-1,-2
41634071059,0,1,0,2,2,-2,0,-1
41634086122,-4,-4,-5,-3,-5,-1,-1,-1
41634086122,2,-3,-2,-3,-1,-5,-5,-2
41634093623,-1,-1,0,2,-2,-3,0,0
41634093623,-1,0,2,-4,-4,-6,-4,-2
41634109324,1,-1,-2,1,2,6,-1,1
41634109324,-1,-1,0,-2,0,9,-2,-3
41634110046,-3,-3,-5,-4,-6,-12,0,-2
41634110046,-2,-1,-4,-1,0,3,2,-1
41634125185,1,1,0,0,-1,-10,-5,1
41634125185,-1,-2,-6,-2,-2,2,1,1
41634131170,0,1,4,1,0,6,0,0
41634131170,-2,-1,-2,0,-1,3,2,-2
41634146171,-2,1,-1,-1,-3,-6,-5,-1
41634146171,0,0,-2,0,2,-4,-1,1
41634153694,-2,-2,-3,-5,-2,5,2,1
41634153694,0,0,1,0,-2,-4,-6,-2
41634169327,0,-2,0,1,-1,4,1,-1
41634169327,-1,-2,1,1,-1,-6,-3,-1
41634170100,-1,-1,-1,1,0,2,2,-1
41634170100,-1,-1,1,-5,-2,-1,-1,0
41634185125,1,-1,-2,1,2,1,-1,-2
41634185125,-2,-2,-2,-3,-3,-2,2,-2
41634191096,-2,-5,-9,-5,-1,0,-5,-1
41634191096,-1,1,16,5,-2,0,0,1
41634206142,-2,-1,-4,0,0,-1,1,0
41634206142,-1,-2,-2,-1,0,1,3,0
41634213619,-2,0,1,-1,1,2,0,-2
41634213619,0,-1,-7,-1,2,-1,-2,-1
41634229246,-2,-1,-4,-3,-5,6,2,-2
41634229246,-1,-1,1,1,0,-8,-6,-1
41634230070,-1,-2,-3,-1,-2,0,-2,-1
41634230070,1,1,-4,-1,0,-6,-3,0
41634245141,-2,-3,2,-2,-4,-4,0,-1
41634245141,-1,0,-4,-3,-2,-6,-2,0
41634251109,-1,0,3,2,1,7,1,0
41634251109,-2,-4,-4,-1,-3,0,0,-1
41634266092,-2,-3,-3,-2,-1,2,-3,-4
41634266092,0,-1,1,-2,-1,-6,-2,-1
41634273598,-1,0,-2,-1,0,0,-3,-2
41634273598,-2,0,0,0,1,6,2,0
41634289174,-1,1,-1,0,-1,-4,0,2
41634289174,-2,0,1,0,-2,-4,-3,-2
41634289970,0,0,1,1,1,0,1,-1
41634289970,0,-1,-6,-1,0,-2,-1,-1
41634305034,-2,0,0,-1,0,2,-1,1
41634305034,-2,0,0,-1,-1,-3,-4,-1
41634311102,0,-2,-2,-2,-2,2,3,0
41634311102,1,0,-3,0,0,-4,-3,0
41634326072,1,-2,-1,-2,-2,-6,-1,-2
41634326072,-3,-2,-2,-2,-1,5,3,0
41634333697,-3,-1,-1,-1,-2,-1,-1,-1
41634333697,-3,1,-3,-1,-2,-10,-5,0
41634349303,0,-1,1,0,0,4,1,2
41634349303,0,-2,-4,-2,-1,-1,0,0
41634350105,0,1,1,0,0,1,2,1
41634350105,-3,-3,-1,-2,-2,-5,-2,-4
41634365104,-2,-3,-3,-2,-2,0,-3,-5
41634365104,0,0,2,0,-1,7,3,-1
41634371093,-1,-1,-2,-2,-5,-7,-2,-1
41634371093,-2,-2,-1,1,0,1,1,0
41634386084,0,-1,2,0,0,-3,-2,-2
41634386084,0,-1,0,1,-1,2,0,-1
41634393668,-1,-1,1,0,0,-7,-3,-2
41634393668,-3,-4,-3,-3,-3,5,1,-1
41634409337,-1,-1,-2,-1,-1,-6,-4,-1
41634409337,0,1,-1,0,0,-2,0,2
41634410106,-3,0,-1,0,3,0,-2,-2
41634410106,0,0,-1,-1,-2,2,-1,-1
41634425172,-1,0,-1,-2,-3,-1,1,0
41634425172,-2,-1,-1,-1,0,-2,-4,-3
41634431145,-2,-3,-1,-1,-3,0,1,-2
41634431145,-1,-1,0,-1,-3,-2,-2,0
41634446154,0,-3,-1,-2,1,2,-1,1
41634446154,-1,0,-2,0,-3,-3,-1,0
41634453608,-1,-3,-1,1,0,6,0,-1
41634453608,-1,-2,0,0,1,-2,-2,0
41634469278,-2,-3,-1,-2,-1,-7,-2,0
41634469278,-1,-1,1,-2,1,1,-2,-1
41634470077,-2,-2,-3,-2,-2,-3,-5,-3
41634470077,-1,-2,-3,-2,0,16,5,3
41634485137,-1,-2,-3,0,-2,-20,-4,-1
41634485137,1,-2,0,-1,-2,2,4,0
41634491125,1,0,-2,-4,-7,-8,-2,-2
41634491125,0,-1,0,-1,3,1,-3,-2
41634506129,0,0,0,0,0,3,0,0
41634506129,-1,-1,-3,0,0,-6,0,0
41634513612,0,0,-2,1,0,1,0,-1
41634513612,-2,0,-2,0,-3,2,2,0
41634529254,-2,-1,-1,1,0,8,0,-2
41634529254,-1,-1,-1,-2,-1,-2,-2,-1
41634530016,0,0,0,-1,-1,-7,-3,0
41634530016,0,-2,0,0,0,0,1,-1
41634545080,-2,0,-1,-1,-2,1,-1,-1
41634545080,-1,-1,-1,-3,-4,0,-2,-1
41634551077,0,1,1,0,0,-4,-1,0
41634551077,-2,1,0,0,-1,-5,-2,0
41634566142,-1,-1,-1,0,0,5,0,0
41634566142,0,-1,-2,-1,-1,7,-2,0
41634573647,1,0,-1,-2,0,-17,-3,0
41634573647,0,1,0,-2,-3,0,2,-2
41634589253,-1,-1,2,-1,-1,-2,-2,0
41634589253,-3,2,0,1,2,-9,1,-1
41634590074,-3,-2,-2,0,-1,1,-1,1
41634590074,-1,-2,-4,0,-1,6,2,-3
41634605051,-1,-1,-2,-2,1,-10,-4,-2
41634605051,-1,-1,1,-2,-1,0,0,0
41634611083,-1,-1,-1,0,0,2,2,-1
41634611083,0,0,0,-1,-1,-6,-3,-3
41634626135,-1,-1,0,-1,0,3,1,-1
41634626135,-1,-3,-1,-1,-3,-2,-2,-2
41634633634,-1,-3,-2,-3,0,2,0,-1
41634633634,-1,-2,-3,-1,1,-1,-2,-2
41634649263,-1,0,0,-1,-3,0,0,-1
41634649263,0,0,0,-1,0,-2,-3,0
41634650012,-2,1,0,1,2,5,-1,0
41634650012,0,-2,-1,0,2,-4,-1,0
41634665128,-1,0,-1,-1,-7,-2,2,-1
41634665128,0,-2,-3,-2,-1,-6,-5,-1
41634671083,0,-1,0,-2,-1,2,0,-1
41634671083,-1,-1,-1,-1,2,-3,-1,-2
41634686094,-1,-2,-1,-2,0,7,-1,0
41634686094,-2,-2,-1,-2,-5,1,3,0
41634693588,-2,-1,0,0,-2,-1,-2,0
41634693588,1,1,1,-1,2,-5,-3,-1
41634708599,0,-2,0,0,-1,-3,1,-1
41634708599,-2,-1,-3,-2,-1,-1,-3,-3
41634716133,1,-1,1,1,1,3,3,1
41634716133,-2,-2,-1,-2,-2,3,-1,0
41634725106,-2,0,-3,0,-1,-9,-3,-2
41634725106,0,-2,-3,-1,1,2,0,0
41634731182,-1,-1,-1,-2,0,-2,-2,0
41634731182,-3,-3,-1,-1,0,0,0,-2
41634746133,-1,-1,0,-1,-1,-2,-2,-2
41634746133,-1,0,0,0,-2,2,4,0
41634753716,-1,-2,-2,-1,-2,2,-2,-1
41634753716,0,-1,-1,0,-1,-1,-1,-1
41634768659,-1,-2,-2,-1,0,-6,-4,-1
41634768659,0,-1,-1,-1,-1,-1,-1,-1
41634776166,0,-2,-1,-2,-5,4,0,1
41634776166,-3,-3,-2,-2,-2,-10,-2,0
41634785106,0,-1,-1,-1,0,4,0,-1
41634785106,-2,-1,-1,-1,-1,-1,-2,1
41634791097,-1,-1,-3,-1,1,2,-1,-1
41634791097,0,0,-2,1,-3,-2,0,1
41634806131,0,-3,-1,-1,-2,-6,-1,-1
41634806131,-1,-1,-2,0,0,4,0,-1
41634813684,0,-1,-2,-2,0,-2,-2,-3
41634813684,-1,-2,1,-2,-1,3,1,-2
41634828615,-1,2,0,-2,0,0,-3,-1
41634828615,2,1,0,0,0,-3,2,1
41634836145,-2,-1,-3,-2,-3,-2,-1,-2
41634836145,-1,-5,-4,-3,-4,-1,-2,-2
41634845098,-1,-1,0,0,-1,-5,2,-1
41634845098,-1,-1,-2,0,0,1,-4,-2
41634851139,-1,-2,-1,0,0,0,1,-1
41634851139,0,1,1,-1,0,-2,-1,0
41634866140,-1,-1,-1,-1,0,2,-1,1
41634866140,-2,-2,-2,-1,-3,-4,-2,-2
41634873628,-1,-1,-2,0,-2,-3,-2,0
41634873628,0,-2,-1,0,-2,-1,-2,-1
41634888603,-1,-1,-2,0,-1,0,-1,0
41634888603,0,0,0,-2,-1,-3,-1,0
41634896058,0,-2,0,0,0,-1,0,-1
41634896058,-1,0,-1,-1,0,-3,-3,-2
41634911743,-2,-1,-2,-1,-1,2,1,-1
41634911743,-1,-1,0,-2,0,-4,-1,-1
41634912505,-2,-1,-3,-1,-1,2,1,-2
41634912505,1,1,0,0,1,0,-2,1
41634926117,0,-4,-2,-2,-2,-2,0,-2
41634926117,-2,-3,-1,-2,-2,-2,-3,-5
41634941907,2,1,0,-2,-1,0,0,0
41634941907,0,-1,0,0,-2,0,2,-2
41634948666,-1,-3,-3,-2,2,1,-2,0
41634948666,0,-1,0,0,-2,-3,-1,1
41634956151,-1,1,-1,-2,-2,-1,-1,-1
41634956151,-4,-1,-3,-2,0,-2,0,-2
41634971860,1,2,3,2,-1,1,-2,0
41634971860,-2,-2,-1,-1,-3,-1,0,-1
41634972624,-1,-3,-2,0,0,-2,-2,-1
41634972624,1,0,0,-2,-2,-1,0,2
41634986137,-2,-3,-1,-2,0,-2,0,-2
41634986137,-2,-1,-3,1,-1,1,0,0
41634993644,-2,-1,0,-1,-3,-1,-3,-2
41634993644,-1,-2,-2,-1,-2,-3,0,-3
41635008707,-2,-3,-2,-2,-2,1,-1,-2
41635008707,0,-2,-1,-2,0,-1,-1,0
41635016184,0,-2,0,-1,0,-2,-2,0
41635016184,-2,-2,-2,2,-3,-1,-2,-1
41635031879,0,2,-2,0,-2,0,0,0
41635031879,-1,-1,-2,-1,-1,-1,-1,-1
41635032635,0,-2,-2,0,0,-4,-3,0
41635032635,0,0,2,-2,1,0,0,-2
41635046043,-1,0,1,0,-1,0,1,0
41635046043,0,1,0,0,0,-2,0,-1
41635053612,-3,-1,0,-1,-2,0,0,0
41635053612,-2,-1,-2,-2,-1,1,-2,0
41635068684,-2,-2,-3,-2,-2,0,0,-2
41635068684,-2,-4,-1,-3,-2,-1,-2,0
41635076181,-1,1,0,0,2,-2,-2,0
41635076181,0,-1,-2,0,-1,-1,-3,-2
41635091851,-2,1,0,-1,-3,-1,0,-1
41635091851,-2,-3,-3,0,0,1,-1,-2
41635092592,-2,-5,-5,1,-1,-2,-1,-2
41635092592,-1,1,5,-4,-1,1,0,-1
41635106230,-3,-6,-12,-2,-1,-1,-3,-1
41635106230,3,4,2,-4,-3,0,-1,0
41635113626,1,3,13,3,0,0,-1,0
41635113626,1,-2,-5,1,0,-3,1,0
41635128589,-1,0,0,-6,-1,1,0,0
41635128589,-4,-8,-13,6,3,-3,-1,-4
41635136103,-3,-2,-7,-4,-4,-2,0,-3
41635136103,1,2,4,-5,-3,-2,0,1
41635151729,1,-1,-5,-3,0,-1,-1,-1
41635151729,-1,1,17,12,2,-2,-1,0
41635152497,-1,1,-1,3,0,-1,0,-1
41635152497,-2,-2,-4,-16,-6,-2,-1,-1
41635166178,0,-1,-1,-4,-1,0,0,-2
41635166178,-1,1,1,16,0,3,0,0
41635173710,-5,-12,-12,-2,0,-3,-4,-3
41635173710,2,10,9,20,7,0,0,3
41635188734,2,6,15,10,2,2,0,1
41635188734,-2,-5,-7,-20,-7,-7,-3,-3
41635196209,1,-2,-4,-10,8,0,1,0
41635196209,-3,-5,-4,10,-3,0,-2,-2
41635211783,1,-1,-1,-5,-7,-4,-2,0
41635211783,-1,0,2,0,0,-2,0,-2
41635212538,-1,1,-2,-7,0,0,0,1
41635212538,-1,-2,-2,-2,15,2,-1,-1
41635226202,-2,-2,-4,-22,-9,-3,-1,-2
41635226202,-3,-6,-7,4,-15,-4,-5,-2
41635233721,-1,1,1,-21,-6,-5,-3,-1
41635233721,-1,-3,0,-1,-2,0,-1,-3
41635248685,-3,-3,-5,-9,7,1,0,-1
41635248685,6,7,5,14,-5,2,3,4
41635256268,3,5,-4,-69,0,5,3,3
41635256268,-5,-8,6,56,-20,-8,-5,-4
41635271806,-1,-5,-2,33,18,-6,-4,-1
41635271806,-2,-2,-4,-10,-8,2,1,-1
41635272609,7,2,-8,-43,1,2,-1,2
41635272609,1,3,8,34,16,6,3,0
41635286165,-2,-4,0,-37,-23,-10,-7,-3
41635286165,-8,-12,-24,-30,1,-3,-8,-6
41635293639,-2,0,8,21,1,0,11,0
41635293639,-3,-2,-10,-34,13,4,1,0
41635308620,2,0,5,46,16,8,34,1
41635308620,2,3,6,-6,-22,-15,-28,-2
41635316120,1,-1,-1,-15,-17,-4,-3,0
41635316120,-6,-8,-12,-39,-20,-11,-8,-5
41635331830,-6,5,3,9,12,5,3,2
41635331830,-12,-8,-4,53,27,-6,20,-3
41635332683,16,6,8,31,9,9,-18,-2
41635332683,-9,-10,-23,-104,-98,-20,-15,-8
41635347642,3,-1,12,64,32,4,-5,3
41635347642,-4,-5,-2,8,-4,5,4,-6
41635353646,-8,-3,1,59,44,0,-3,2
41635353646,7,5,5,-21,2,7,5,3
41635368670,-3,-4,-24,-86,-33,-6,-13,-2
41635368670,3,5,12,30,14,6,5,3
41635376164,-4,-5,-2,11,3,-4,6,-3
41635376164,4,3,0,-50,-3,4,0,3
41635391782,-5,-8,-15,-8,-22,-7,-5,-3
41635391782,6,6,10,-36,27,7,2,4
41635392549,-3,-2,-2,54,-18,-4,1,-2
41635392549,0,4,11,63,33,3,1,2
41635406112,1,5,11,17,11,0,-8,-1
41635406112,1,-3,-25,-98,-23,-1,0,0
41635413572,-5,-2,4,31,-10,-3,-3,-2
41635413572,-3,-3,-3,-6,13,-1,3,-1
41635428558,0,0,12,39,0,2,-1,0
41635428558,4,0,0,0,-1,-2,-3,-1
41635436060,-5,-4,-4,-20,-12,-4,3,-2
41635436060,2,-1,2,37,9,0,2,1
41635451712,0,2,-1,-31,-4,0,-1,-2
41635451712,0,1,4,14,2,-1,-4,1
41635452522,-2,-4,-5,-13,-7,-3,-2,-1
41635452522,3,4,6,2,9,2,2,1
41635466126,-2,-3,-5,16,11,-1,-4,-3
41635466126,-1,3,11,-3,32,8,3,0
41635473630,-2,-8,-16,-34,-76,-16,-7,-4
41635473630,0,1,4,16,25,4,-1,-2
41635488606,3,2,3,-13,-4,1,2,1
41635488606,-2,-2,-8,5,0,-1,-1,-1
41635496182,-1,1,5,22,41,8,3,0
41635496182,-2,-4,-10,-38,-20,-5,-4,-4
41635511881,-7,-13,-20,-46,-61,-15,-10,-5
41635511881,-1,-4,2,28,14,-1,0,-1
41635512653,-2,-4,-7,-49,-26,-7,-3,-3
41635512653,1,1,7,50,30,5,3,1
41635526148,2,6,10,25,22,6,4,1
41635526148,-1,-1,-4,-22,-29,-4,-2,0
41635533651,-4,-4,-4,1,2,-3,-2,-2
41635533651,0,-1,3,33,0,-1,-2,0
41635548686,0,-1,-3,-35,3,-2,-1,-1
41635548686,-2,-4,-6,-3,-9,-2,-4,2
41635556163,-1,2,8,13,16,2,-12,-5
41635556163,-1,-3,-5,-12,-10,-4,1,0
41635571810,0,1,5,6,4,-3,-10,0
41635571810,1,-1,0,8,0,-2,-2,-2
41635572617,-3,-1,4,-2,12,10,10,0
41635572617,-2,-2,-10,-32,-13,-4,0,-1
41635595804,1,2,6,23,12,-5,-1,1
41635595804,-2,-7,-17,-19,-26,-4,11,-2
41635596593,2,1,5,15,4,-3,-5,-3
41635596593,-3,-5,-3,-2,2,-1,6,-2
41635608730,-1,-1,-1,2,8,7,4,5
41635608730,-2,1,4,1,-3,0,-4,0
41635616217,-1,0,1,-5,2,2,8,-1
41635616217,-1,-3,-5,9,-1,-2,-5,-1
41635631151,1,-2,-4,-8,-4,-2,-3,0
41635631151,-1,2,3,8,0,0,1,-2
41635639373,-4,-3,-6,-9,-5,-2,-4,-1
41635639373,0,-1,0,-2,2,0,-4,-1
41635646238,-1,-2,-1,1,-4,0,0,-3
41635646238,0,1,3,-2,1,0,-1,-1
41635653689,0,2,2,4,5,-1,0,3
41635653689,0,-1,-3,-2,-3,0,-1,0
41635668687,-2,-2,-2,0,0,1,3,-3
41635668687,-2,-3,0,4,1,0,-4,-2
41635676215,-2,-1,-2,-5,-2,-2,-1,1
41635676215,0,0,1,4,-1,0,0,-1
41635691121,-1,-2,-3,-4,-3,-1,-2,-1
41635691121,0,1,2,-1,1,0,-3,-2
41635699302,-3,-2,-1,0,-3,0,-2,-1
41635699302,-1,-1,0,-2,-3,0,0,0
41635706098,0,0,-2,0,2,0,1,0
41635706098,0,-2,0,0,-1,-1,-2,-1
41635721764,0,0,-1,0,0,0,0,-1
41635721764,-2,0,-2,1,0,-2,-1,-1
41635730042,-1,-1,-3,-2,-3,0,-1,-2
41635730042,-4,-4,-2,1,0,-1,-2,0
41635736194,-1,0,-3,-4,-3,-3,-2,-1
41635736194,0,2,2,0,1,-3,-2,-2
41635748803,0,1,5,6,4,-3,-10,0
41635748803,1,-1,0,8,0,-2,-2,-2
41635752374,-3,-1,4,-2,12,10,10,0
41635752374,-2,-2,-10,-32,-13,-4,0,-1
41635769530,-1,-1,-3,-2,-3,0,-1,-2
41635769530,-4,-4,-2,1,0,-1,-2,0
41635770340,-1,0,-3,-4,-3,-3,-2,-1
41635770340,0,2,2,0,1,-3,-2,-2
41635776357,-1,-1,0,-1,-3,-2,0,0
41635776357,0,0,-1,-1,-3,-2,-2,0
41635777159,-1,-4,-1,0,1,1,0,-1
41635777159,-2,-4,-4,-2,-2,-1,-3,-3
41635778806,0,0,0,-1,-2,1,0,-1
41635778806,1,-1,1,0,-1,-2,0,-1
41635781764,-1,0,0,-2,1,-3,-2,-1
41635781764,-2,-2,-2,0,0,0,0,-2
41635788615,-2,-2,-2,-4,-1,-3,-1,-1
41635788615,-1,1,1,-1,-1,-1,0,-3
41635796143,0,-1,-1,-1,-1,-1,0,1
41635796143,-4,-2,-3,0,-1,-1,-2,-1
41635811125,-4,-1,-4,-1,2,-1,-1,-1
41635811125,-1,-2,-2,-1,-1,-1,-1,0
41635819303,-1,-2,-2,-1,-2,-1,-1,-3
41635819303,-1,-1,0,-1,-2,-1,-2,0
41635834345,0,0,0,-1,-2,1,1,0
41635834345,0,0,0,-2,1,0,-1,0
41635835143,0,0,-1,0,-2,-1,0,-1
41635835143,1,-2,-5,0,-1,-1,0,-2
41635848636,0,-3,-4,-2,-1,-2,-3,-3
41635848636,-1,0,0,2,0,-1,0,-1
41635856235,1,2,2,0,1,1,0,1
41635856235,0,0,-2,-3,-1,-2,-3,-1
41635871263,0,-3,1,0,-3,-2,-2,-2
41635871263,-1,-1,-4,-2,0,-3,-2,0
41635879395,-1,-2,0,-2,0,-2,0,-3
41635879395,-1,-2,-2,0,1,0,-1,-2
41635894105,0,-1,-1,-1,-2,-1,1,-1
41635894105,-3,-1,-3,-3,-2,1,-1,-1
41635901768,-2,-3,-2,-2,-2,0,-1,0
41635901768,-2,0,2,0,-2,-1,-1,2
41635908755,0,0,1,2,0,-2,-1,-1
41635908755,0,0,1,-1,-3,-1,0,0
41635916220,-1,-2,-1,-2,-1,0,1,-2
41635916220,-1,-3,-1,-1,-4,-1,-1,-1
41635931151,-1,-1,0,0,0,-1,-2,0
41635931151,-1,-2,-1,-2,-1,-2,-2,-2
41635939360,0,-2,-1,-2,0,-2,-1,1
41635939360,0,-3,-1,-1,-1,-1,0,0
41635954373,-2,-2,-1,-2,-2,0,0,0
41635954373,-2,-2,1,1,0,-1,-1,-1
41635955171,-3,-3,-4,-2,-2,-1,-3,-1
41635955171,0,2,2,-1,0,-1,-2,0
41635968694,0,0,0,1,1,-1,-3,-1
41635968694,-1,-1,-1,0,-1,-1,-1,-1
41635976165,0,-1,-2,-2,-2,-1,-2,-1
41635976165,-2,-3,-3,-1,-1,0,-1,-1
41635991158,-2,-1,-2,-2,-3,-1,-1,-1
41635991158,-2,0,1,-1,-1,0,-2,-1
41635999374,0,-1,-2,-1,-1,-1,-1,-1
41635999374,-1,0,-1,0,-2,-1,-1,0
41636014321,-1,-3,-1,-2,-2,-1,-1,-2
41636014321,0,-1,-1,-1,-2,-1,0,0
41636015134,-2,0,-1,-1,0,-2,-1,-2
41636015134,-2,-2,-1,-1,-1,-1,1,-2
41636028693,0,-1,-2,-1,-1,-1,0,1
41636028693,1,-1,-1,-1,-1,1,-1,0
41636036219,-1,-1,-1,-1,-2,-2,-2,1
41636036219,1,2,1,-1,0,-1,-1,-1
41636051116,-3,0,-2,0,0,-1,-2,-3
41636051116,-2,-3,-2,-1,-1,0,-1,-2
41636059377,0,1,0,0,0,-2,0,0
41636059377,0,-2,0,-1,-2,-2,-1,-1
41636074282,-2,-1,-1,0,-1,-2,-1,0
41636074282,-1,-1,-2,0,-2,-1,-2,-2
41636075052,-2,-2,-1,0,-1,0,-1,-1
41636075052,-2,-2,-3,-1,-1,0,-1,-1
41636088594,-2,-2,-3,-1,-1,-1,-1,-2
41636088594,1,1,0,0,0,-2,0,1
41636096091,-2,-2,-1,1,-2,-1,0,-1
41636096091,-1,-3,0,-2,-2,-3,0,-1
41636111126,1,0,1,-2,-2,1,-2,-1
41636111126,-2,-3,-4,-1,-1,-2,-1,-1
41636119290,-1,0,-1,-2,0,1,-2,-1
41636119290,0,1,0,0,0,-1,-2,-1
41636134311,-1,0,-1,-1,-2,-1,0,1
41636134311,1,0,0,0,-2,-1,0,-2
41636135098,0,-1,-1,-2,-2,-1,0,0
41636135098,-1,-2,-2,-2,-1,-1,-1,-3
41636148687,-1,-3,-2,-4,1,-1,0,0
41636148687,0,0,1,-2,-1,-1,-1,0
41636156214,-1,-2,-4,0,1,-1,-2,-2
41636156214,-1,-1,-2,-1,-1,-2,-1,-1
41636171147,2,4,1,0,-2,-2,0,1
41636171147,0,0,0,0,0,-1,0,0
41636179417,-2,0,-1,-1,-2,-1,-1,-1
41636179417,-3,-1,0,-2,0,0,-1,-2
41636194400,-2,-1,-2,-1,-1,-1,-1,-4
41636194400,-2,-2,-2,-2,-1,-1,-2,0
41636195146,-1,-1,0,-1,-1,-1,-1,-1
41636195146,0,2,1,0,0,0,0,0
41636208785,-2,-2,-3,-1,-1,-1,-1,-1
41636208785,-1,0,-1,-2,-2,0,-1,-1
41636216220,0,0,1,1,0,-2,0,-1
41636216220,-2,-4,-3,0,-1,0,-2,-1
41636231222,-2,-1,0,-1,1,0,-1,-3
41636231222,-2,-3,-2,-1,-1,-2,-1,-1
41636239372,-2,-2,-1,-1,-2,-2,-2,-2
41636239372,-1,-3,-1,-1,-3,-1,-1,1
41636254403,0,-2,0,0,-1,0,0,1
41636254403,0,2,2,0,-2,-2,0,-1
41636255129,0,-2,-2,-1,0,1,0,1
41636255129,0,-2,0,-2,0,-1,0,1
41636268648,-3,-3,-5,-2,-1,-2,-1,-1
41636268648,-1,-1,-3,-1,1,-1,0,-1
41636276176,0,-2,-2,0,-1,-1,-2,-1
41636276176,-2,-4,-3,-3,0,-3,-1,-2
41636291184,-1,3,0,0,0,-1,0,0
41636291184,0,4,4,1,-2,0,-1,0
41636299497,0,-1,0,-1,-1,-2,0,0
41636299497,0,-1,-1,-2,-3,0,-1,0
41636314341,-1,-2,1,-1,-2,-2,0,-1
41636314341,-3,-3,-4,-2,-2,-1,0,0
41636315093,-1,-2,0,-1,0,-1,-2,-1
41636315093,-3,-1,-2,1,-1,-1,-1,-2
41636328740,0,-4,-1,-1,-1,0,-1,-1
41636328740,1,-1,0,-2,-1,-1,-1,-1
41636336164,-2,1,-1,1,-2,-2,-1,1
41636336164,0,-2,-2,-2,0,-2,-2,-2
41636351219,-1,-1,-2,-1,-2,0,-1,-1
41636351219,0,-4,-2,-2,0,-1,-1,-2
41636359474,-1,0,-1,-2,-3,1,0,1
41636359474,-2,1,2,2,-3,-2,-1,-1
41636374360,-1,-1,-2,-2,0,0,-2,-1
41636374360,-1,-2,0,1,1,-2,-2,-1
41636375134,-3,-1,-2,-4,-1,-1,-1,-2
41636375134,1,0,-1,-2,1,-1,0,0
41636388753,-2,0,-1,-1,-2,-2,0,-1
41636388753,-2,-3,-3,-2,-1,1,-1,-1
41636396218,-1,-3,-3,0,-2,-2,0,-1
41636396218,2,1,2,1,-1,0,0,0
41636411202,-2,0,0,-1,-3,1,-1,-1
41636411202,-2,0,-2,-2,-1,0,-1,-3
41636419389,0,-1,-1,0,0,-1,-2,-1
41636419389,-2,-1,-2,0,-3,-1,-1,-1
41636434344,-1,-1,-2,-1,-2,0,0,-2
41636434344,-3,-3,-3,-1,-1,-3,-3,0
41636435152,-1,-1,0,-1,-1,0,1,-1
41636435152,1,4,1,1,1,-1,0,-1
41636448701,-2,-3,0,-1,0,-1,-2,-2
41636448701,-1,-1,-1,-2,-2,0,0,-1
41636456205,-1,-2,-1,-3,-1,-1,-1,-1
41636456205,-1,-3,-3,-2,1,0,0,0
41636471181,0,-2,0,0,-2,-3,-2,-1
41636471181,-2,-1,-4,-1,-2,-2,-1,-2
41636479317,-1,-1,0,0,-1,-2,-2,-1
41636479317,0,-1,1,1,-2,-1,-1,-1
41636494333,0,-2,-1,-2,1,0,0,0
41636494333,-1,0,0,-1,0,-1,-1,0
41636495089,-1,0,-2,0,-2,-1,-1,-1
41636495089,-2,-4,-5,-2,0,0,0,-2
41636508643,0,0,-2,0,-1,0,-1,0
41636508643,1,2,3,1,-3,-1,0,-1
41636516118,0,1,-1,0,-1,-1,1,-2
41636516118,-2,-4,-2,-3,-1,-1,-1,-1
41636531071,-1,-3,-3,-1,0,-1,0,0
41636531071,-2,-3,-2,-2,0,-1,-2,-3
41636539361,0,2,1,-1,-3,-2,-1,-2
41636539361,-1,1,-2,-2,-1,-2,-2,1
41636554325,0,1,0,-1,0,0,-2,1
41636554325,0,-3,-2,-1,-2,-2,0,1
41636555074,-2,-2,-2,-1,0,-1,-2,-1
41636555074,-2,-1,2,0,-1,-2,-1,-1
41636568631,-1,0,-2,0,0,-1,-1,0
41636568631,1,0,0,-2,-1,-1,-3,0
41636576123,-1,-1,-1,0,-1,0,-3,-1
41636576123,-1,-3,-3,0,-1,-1,-2,-1
41636591203,0,-1,1,-1,-1,-2,1,1
41636591203,-3,-3,-2,-2,0,-1,1,-1
41636599481,0,0,0,0,0,-2,0,1
41636599481,1,1,2,1,0,-1,0,0
41636613700,-2,-1,-2,0,-1,-1,-2,-2
41636613700,-2,-3,-4,-2,-3,-1,-1,-1
41636621836,-1,-1,-3,-2,-2,-2,-1,-1
41636621836,0,2,1,-1,-1,-2,0,-3
41636628727,-1,0,0,0,-1,-2,0,-1
41636628727,0,0,-2,1,1,-1,-1,-1
41636636183,-1,-1,-2,-1,0,0,-2,-1
41636636183,-1,-2,-5,-3,-3,-1,-3,-1
41636651232,-1,-3,-2,-1,-1,-1,-3,-1
