timestamp,emg1,emg2,emg3,emg4,emg5,emg6,emg7,emg8
4371747560,-1,7,10,13,-10,13,-8,-6
4371747560,0,-8,-8,20,-2,14,-16,-5
4371748363,1,45,45,23,1,15,-2,-2
4371748363,3,-41,-40,-12,-15,8,12,0
4371749185,2,31,69,27,17,-26,5,4
4371749185,-2,-13,56,4,14,-3,-3,5
4371751637,2,-6,8,13,3,3,3,2
4371751637,-2,64,67,42,3,11,1,0
4371760602,-3,30,36,12,-6,1,-2,0
4371760602,0,35,20,19,-5,-19,0,-4
4371766653,2,-5,62,10,2,-19,-6,-3
4371766653,2,-15,67,10,2,-3,-4,-1
4371775584,-1,-14,5,5,-3,18,3,0
4371775584,-1,-1,-32,-6,-1,4,4,0
4371789173,-5,14,58,21,-5,-5,0,0
4371789173,-4,49,46,19,2,-14,-2,1
4371798098,-3,-1,8,11,4,2,0,1
4371798098,-7,3,-27,-6,-10,5,1,1
4371804143,-2,23,-12,-10,2,9,2,-2
4371804143,2,-13,-62,-23,5,-4,-9,-4
4371820623,1,-35,-45,-20,-1,-18,-9,-1
4371820623,4,66,69,20,1,-8,-4,1
4371826685,-4,51,34,11,-4,7,0,5
4371826685,-2,22,25,11,4,6,-3,-3
4371835617,-1,-9,-54,-12,-7,0,3,-1
4371835617,0,4,23,4,1,-7,5,3
4371849154,1,32,-16,-2,4,-6,-1,-4
4371849154,-4,24,14,19,-3,7,-4,3
4371858117,-1,83,78,48,-4,7,-2,-4
4371858117,4,18,-3,4,5,3,2,-3
4371864182,6,32,-4,11,-3,-3,0,0
4371864182,3,-60,-75,-42,-6,1,-2,0
4371880598,-1,-54,-50,-27,2,-1,0,-2
4371880598,-2,67,73,48,-4,-1,0,0
4371886654,-4,4,-5,-1,-1,-7,1,4
4371886654,-4,49,62,26,-3,-9,1,1
4371895601,0,-65,-73,-21,1,-4,-1,-1
4371895601,1,22,3,3,0,2,-6,-6
4371909299,-1,32,-37,0,-6,-1,-6,-6
4371909299,-1,54,36,10,-1,-3,-7,-5
4371926392,1,-24,-46,-21,-1,-2,-5,-2
4371926392,0,14,6,9,-4,-6,-4,-3
4371927097,1,43,68,37,-3,-6,-3,-3
4371927097,-2,-2,-12,-8,7,-6,4,0
4371940688,-2,-8,-32,-22,0,7,6,0
4371940688,-4,-38,-9,-5,-6,10,3,-4
4371947983,0,32,47,19,-2,-2,6,0
4371947983,2,5,9,11,-3,1,1,4
4371955748,0,89,101,49,1,-6,-9,-5
4371955748,-3,-20,-70,-25,3,11,5,6
4371969344,-5,-7,13,14,1,7,1,-3
4371969344,-4,64,63,26,-1,-7,-7,-8
4371978213,0,34,66,33,-4,-14,-2,1
4371978213,0,13,10,11,-5,-8,7,0
4371984305,0,8,9,-5,-4,1,0,1
4371984305,2,36,30,5,-2,6,-4,-3
4371999357,2,11,5,0,-6,-6,-4,-3
4371999357,5,16,31,4,-1,-3,-9,-8
4372006660,-2,57,67,22,-5,-10,-3,-2
4372006660,-3,-28,-17,-15,-3,10,1,0
4372015648,-2,58,59,28,-6,7,10,2
4372015648,-8,-30,-45,-16,-3,23,5,-2
4372029299,1,2,7,8,-5,-15,0,-4
4372029299,-1,12,10,0,3,-2,-2,-7
4372038298,-1,64,58,1,-3,-8,1,2
4372038298,-5,2,7,3,0,-21,0,4
4372051893,-6,30,31,13,5,25,-11,-1
4372051893,0,-56,-66,-29,1,10,1,-2
4372060703,8,54,-35,7,2,11,-3,-1
4372060703,3,73,77,36,2,-8,-5,0
4372066675,2,-4,-69,-17,4,-14,-4,-3
4372066675,-3,87,-18,28,-2,-14,2,1
4372075695,-7,28,27,21,4,13,-5,-2
4372075695,-5,9,11,1,-3,11,-3,1
4372089267,-2,51,57,16,-1,-7,-1,2
4372089267,-3,-3,10,12,-2,-22,2,1
4372098108,-6,-18,-75,-20,-1,-6,-5,-2
4372098108,-4,32,19,8,2,5,4,1
4372135535,-7,19,34,4,3,16,-2,-2
4372135535,-1,-76,-65,-39,-3,3,3,1
4372137070,0,-2,28,12,0,-9,-1,2
4372137070,3,-33,-29,-10,-2,-6,-5,-1
4372149839,2,-37,-90,-32,-3,6,0,2
4372149839,0,3,16,-5,1,-2,-2,-1
4372150591,-4,-19,-13,-9,-6,-2,5,-4
4372150591,-1,-52,-41,-11,-7,-11,-2,-2
4372156708,-3,-42,-64,-25,-2,-10,-2,-4
4372156708,8,-7,-10,34,17,7,8,4
4372167123,5,-15,-6,30,24,20,7,0
4372167123,5,27,27,48,23,14,10,7
4372179594,0,-20,-1,20,17,9,6,4
4372179594,10,-47,-80,0,13,5,4,10
4372188134,5,-22,-17,12,17,9,7,5
4372188134,6,27,16,41,10,-1,3,3
4372194169,6,-10,0,11,10,9,4,8
4372194169,4,7,12,8,13,0,9,0
4372203139,3,-5,3,10,11,9,11,9
4372203139,5,9,-2,0,8,9,-5,3
4372217994,9,-1,11,31,12,8,6,7
4372217994,6,16,29,37,7,19,5,5
4372219662,5,-3,-2,21,7,-5,2,2
4372219662,5,12,13,22,8,12,4,6
4372240631,6,94,99,45,11,-4,12,2
4372240631,3,32,28,18,15,11,-7,0
4372242138,8,8,4,12,4,-1,8,4
4372242138,5,46,11,9,7,4,7,5
4372254184,5,-13,-12,9,10,-1,5,5
4372254184,-3,78,14,9,4,8,5,1
4372269156,3,22,7,20,7,11,1,0
4372269156,0,7,10,16,8,7,3,-3
4372278043,6,-20,-17,3,5,13,-4,-4
4372278043,-3,7,12,15,0,-2,-2,-4
4372279629,1,-8,-11,-1,8,-6,-8,-1
4372279629,4,20,12,8,-3,-1,-2,-6
4372300706,-3,-5,-14,-3,-11,-1,-6,1
4372300706,-4,-4,6,-2,-11,-9,-3,-2
4372302120,0,85,118,36,-11,-1,-6,-3
4372302120,1,88,82,22,-2,-5,-5,-1
4372314190,-3,18,18,6,-8,0,-5,-3
4372314190,-3,-12,9,-2,-6,-6,-9,-1
4372323195,-3,-21,-27,-15,-10,-4,2,-5
4372323195,1,12,8,0,-12,-7,-7,-4
4372337595,-5,-6,-2,-12,-11,0,-7,-7
4372337595,-4,15,11,-5,-12,-8,-6,-8
4372344250,-4,13,1,-12,-10,-14,-9,-6
4372344250,-4,3,3,-7,-16,-17,-10,-7
4372360615,-5,0,-6,-17,-11,-10,-3,-3
4372360615,-1,-22,13,-8,-14,-13,-3,-5
4372362132,-4,-45,-1,-21,-10,-5,-4,0
4372362132,-2,-42,-11,-18,-17,1,-10,-5
4372383042,-6,-70,-4,-23,-20,-8,-4,-4
4372383042,-9,-34,12,-8,18,-7,-13,0
4372384609,-1,-82,-12,-15,6,-2,-6,0
4372384609,1,-116,-38,-30,-18,-4,6,2
4372397397,-3,-126,-70,-33,-24,1,-4,-6
4372397397,-4,-35,-9,-12,-23,0,-3,-3
4372404311,-7,-109,-125,-35,-7,-9,2,-6
4372404311,-7,-126,-119,-49,-7,-13,-3,0
4372411860,4,-128,-94,-40,-15,-9,1,-2
4372411860,1,-128,-128,-69,-27,2,5,-6
4372420649,-7,-127,-128,-71,-12,6,1,-6
4372420649,-7,-117,-127,-64,14,0,-4,2
4372426854,-1,-124,-128,-64,16,-13,-4,-1
4372426854,2,-113,-128,-58,-1,-13,-6,1
4372441820,0,-42,-120,-47,-24,-2,0,-4
4372441820,-8,-18,-119,-52,-16,7,0,-7
4372449187,-9,5,-10,-30,11,7,-4,-5
4372449187,-2,-13,-11,-39,22,-5,-6,0
4372465657,2,43,43,15,13,-14,-10,0
4372465657,3,-8,18,9,-7,-3,-5,-2
4372471830,0,10,-7,5,-8,3,3,-1
4372471830,-6,-39,-45,-13,-10,3,5,-9
4372480674,-1,-53,-57,-32,-4,13,-2,-2
4372480674,4,6,-41,-9,-5,-8,-4,1
4372495072,1,-18,-23,-10,-2,-9,-4,2
4372495072,-2,-15,-13,-1,-2,1,0,1
4372501693,-1,11,4,-4,-6,3,0,1
4372501693,0,-15,10,6,4,2,3,-6
4372509298,-2,41,30,14,-2,-3,0,-7
4372509298,7,-56,-59,-23,-11,3,-3,2
4372518158,-6,5,11,6,-5,-8,-6,-1
4372518158,-2,5,-34,-8,7,-4,-3,-2
4372532397,-5,41,47,30,3,-6,-2,3
4372532397,-2,23,18,12,3,4,-1,-1
4372547300,1,-9,64,22,-4,-2,-2,-1
4372547300,-5,-13,-1,-11,0,-6,-4,-4
4372548098,-2,-20,-13,-14,-2,-6,-4,-3
4372548098,-3,64,60,26,-1,1,-1,4
4372561646,2,-76,-90,-50,-5,3,2,-4
4372561646,1,-12,-32,-11,2,6,0,-2
4372569160,3,6,-11,-1,1,4,-1,-2
4372569160,0,-7,10,13,-2,-4,-2,0
4372578141,-6,-31,-49,-16,9,0,-1,3
4372578141,0,-6,51,19,-18,-5,3,-3
4372600672,-1,-19,-24,-12,1,-8,-1,3
4372600672,0,-14,-22,-12,10,0,3,-1
4372602213,-1,31,20,-6,2,14,3,-4
4372602213,9,35,20,0,6,-13,-1,0
4372606778,-2,35,25,8,-13,1,-6,-2
4372606778,2,-44,-42,-23,3,-26,-6,-2
4372623239,-2,19,8,-18,-10,2,-7,-2
4372623239,-2,-3,12,-16,-17,1,0,-5
4372629367,-2,61,51,43,2,-1,-1,3
4372629367,-3,74,58,29,-9,8,-2,-2
4372638170,1,21,30,14,0,-10,6,2
4372638170,1,-8,-15,-3,20,14,2,2
4372651658,-1,-19,-31,-19,5,3,3,-2
4372651658,1,12,23,12,-7,-2,0,-1
4372660786,-2,-7,-11,0,-6,-8,-3,2
4372660786,-8,74,80,32,-12,-6,-4,4
4372675027,0,32,25,7,1,6,2,1
4372675027,-1,39,39,2,-2,12,-3,2
4372681757,5,29,19,-9,-5,-2,1,-2
4372681757,-2,5,-3,9,-9,-7,-2,-3
4372689141,-6,-3,9,-1,-18,0,-2,-6
4372689141,0,-10,-19,-1,-11,-5,4,-3
4372698147,-2,17,14,7,-3,-4,-7,-2
4372698147,-2,-36,-34,-15,9,-4,-3,-3
4372711847,4,38,40,8,5,-3,-6,-4
4372711847,2,72,76,42,6,-13,-3,-4
4372726782,0,-12,-18,-3,45,5,4,6
4372726782,-2,-14,-10,-5,23,5,4,-1
4372743158,-4,-31,-32,-18,11,10,-5,1
4372743158,-1,13,-22,-7,-5,6,-8,-3
4372744665,-3,-48,-47,-27,-11,-14,-16,-1
4372744665,-2,-12,-11,-6,-7,-18,-7,3
4372758216,2,-16,-19,-5,-4,-2,-3,1
4372758216,2,-35,-3,-11,-5,7,1,1
4372759658,-1,12,10,12,-7,11,2,-1
4372759658,-2,37,-21,-1,-7,5,1,-2
4372771888,-6,40,56,33,-12,-17,-3,-4
4372771888,0,33,-9,-5,-7,-7,-4,-6
4372780645,4,35,6,20,-7,-5,-2,-1
4372780645,2,18,2,2,-1,4,-3,-2
4372803017,1,-64,-89,-41,1,3,2,4
4372803017,0,-84,-89,-37,1,5,2,5
4372804662,-1,13,10,16,-3,-9,-2,0
4372804662,-2,6,14,3,-3,-1,1,-2
4372841135,0,-51,-48,-16,4,-1,0,-4
4372841135,-3,67,87,26,-2,0,4,0
4372846832,0,-8,1,-3,0,5,2,-4
4372846832,1,-23,-6,-7,-1,6,-9,-4
4372863214,1,37,36,22,2,-6,2,3
4372863214,-1,-18,-17,-7,-3,4,-2,-2
4372864640,-1,40,33,16,-3,2,-1,-3
4372864640,-5,-59,-54,-30,3,4,-5,-4
4372878070,-5,-4,-11,-4,3,-3,-4,2
4372878070,0,39,-7,1,2,-5,-4,0
4372879673,-5,4,9,22,-1,-1,-3,-1
4372879673,-1,-7,2,37,10,-1,10,5
4372892503,2,12,4,38,5,2,7,1
4372892503,0,-30,-20,31,14,4,13,6
4372893135,2,-32,-37,-5,9,7,8,5
4372893135,0,14,15,20,10,7,-1,2
4372908543,6,-13,-10,13,17,11,4,5
4372908543,1,-13,-8,34,7,9,4,1
4372910170,3,-9,-13,33,14,6,7,2
4372910170,3,-2,4,43,16,4,5,4
4372921870,4,5,0,14,13,6,7,5
4372921870,3,-21,-12,2,12,8,3,3
4372930676,4,-1,-1,10,10,7,6,12
4372930676,6,1,2,29,9,12,7,9
4372945686,10,-9,-15,25,12,9,5,0
4372945686,5,-7,-2,24,18,8,4,4
4372947135,8,-11,-7,15,4,3,5,2
4372947135,2,5,5,29,18,4,8,3
4372968178,5,0,-4,16,10,9,6,5
4372968178,3,-11,-5,26,5,12,9,3
4372969609,5,-1,-2,27,20,8,6,5
4372969609,7,-2,0,4,12,2,4,7
4372975019,0,3,1,26,12,7,0,3
4372975019,2,-7,-4,16,16,3,7,3
4372981702,3,-7,-8,23,17,14,8,10
4372981702,9,3,3,24,2,17,10,2
4372998163,1,-3,-2,15,16,1,8,3
4372998163,9,-3,-2,13,17,-1,2,5
4372999654,8,-2,-3,12,1,10,0,-3
4372999654,-2,0,1,10,5,-5,4,4
4373011744,9,1,0,10,13,5,10,5
4373011744,4,-5,-3,10,-2,6,2,0
4373020716,-2,-10,-10,-2,-3,0,0,0
4373020716,8,-12,-13,-10,-2,1,-2,-3
4373035018,2,-18,-20,-2,-6,-2,1,-4
4373035018,0,-9,-9,-23,-4,3,-1,-2
4373041838,0,-11,-8,9,6,0,3,-3
4373041838,0,2,1,4,-3,1,1,-6
4373058148,-7,5,4,14,-7,-1,2,0
4373058148,-7,-5,-5,-1,1,-10,-2,-1
4373059654,0,-20,-22,-27,-1,-11,-5,-1
4373059654,-3,-26,40,5,-1,0,-4,0
4373071753,1,56,66,35,-6,1,0,-1
4373071753,-2,-7,0,0,-3,6,-3,4
4373080646,0,25,-48,-1,-1,-2,0,-2
4373080646,-2,-3,-18,-10,-2,-5,-4,-1
4373094592,-3,-17,-17,-17,-7,0,1,-4
4373094592,-2,39,17,5,4,-5,-3,-1
4373103128,-3,13,30,13,-3,-3,2,-1
4373103128,-3,25,11,7,4,-6,2,-3
4373118022,3,-29,-38,-15,2,-6,0,-4
4373118022,0,-32,-36,10,1,-5,-2,1
4373119632,-1,-29,-60,-33,-6,-1,-2,-1
4373119632,2,-28,-56,-9,4,4,3,6
4373131667,-3,47,48,21,3,8,1,1
4373131667,-3,4,3,-1,5,4,0,0
4373140611,0,5,18,18,1,-5,-1,-1
4373140611,-2,-30,-72,-21,-1,4,-2,5
4373155018,1,-46,-65,-29,-3,-3,-3,-5
4373155018,2,14,-44,-6,2,6,0,0
4373161838,-2,-21,-17,-1,0,1,-3,2
4373161838,0,-17,-26,8,-2,-8,0,-3
4373178270,1,-23,-77,-23,1,-1,-3,1
4373178270,-2,-2,8,7,0,3,0,-3
4373179715,-4,-39,-33,-8,-2,-1,3,-1
4373179715,1,15,10,12,5,5,5,2
4373191739,-7,-4,-1,-6,5,4,-7,2
4373191739,-1,-23,-10,-3,-7,-4,5,1
4373200685,-4,9,11,12,-2,-2,-6,1
4373200685,-2,4,6,0,-2,-3,1,0
4373215035,-2,-6,3,2,-2,-6,2,-1
4373215035,1,-2,-1,-4,1,-2,3,3
4373221813,0,49,54,26,5,-3,-4,-4
4373221813,-1,-1,17,5,-1,-4,-1,0
4373238116,-1,68,73,35,-1,10,-5,-1
4373238116,-2,49,51,30,-6,2,0,-7
4373239616,7,57,63,36,-1,2,0,2
4373239616,1,-12,-48,-20,5,-6,-2,1
4373252391,-2,-7,-62,-12,6,-6,-3,3
4373252391,-1,51,51,40,0,3,1,1
4373268184,-6,-11,-20,7,4,7,-2,-1
4373268184,-2,66,63,33,-4,10,-1,-4
4373274995,-1,-62,39,6,-3,-2,4,-1
4373274995,3,9,5,-12,1,-13,-5,-7
4373281727,-4,15,19,11,-7,-4,1,-2
4373281727,0,13,17,1,-1,-5,3,1
4373297608,2,48,43,0,-1,-1,1,0
4373297608,6,-9,29,6,-3,1,-1,-1
4373311686,-1,-7,5,-3,1,1,-2,1
4373311686,-2,22,41,2,-2,-2,-9,-3
4373343871,-2,-51,-63,-38,-7,5,-2,1
4373343871,-5,-4,-5,9,4,7,1,6
4373346141,3,47,39,6,0,-1,0,-1
4373346141,-5,-8,-33,-3,0,5,-1,1
4373365564,4,11,69,33,-3,-8,-5,0
4373365564,-3,-33,-29,-1,-3,-1,-2,5
4373367086,-3,-38,-29,-20,-1,1,4,-2
4373367086,-3,24,-22,-9,0,8,3,-5
4373380654,-3,13,-5,7,-4,-5,4,-6
4373380654,5,-1,11,1,0,-12,-8,-3
4373382171,3,7,17,37,4,-13,1,6
4373382171,2,-2,15,33,8,8,7,6
4373395560,4,-10,-32,19,9,17,13,8
4373395560,-2,103,98,48,1,9,10,1
4373397112,5,12,2,8,3,9,-8,2
4373397112,2,15,24,17,2,-10,1,-3
4373409344,-2,3,-16,8,4,-5,4,4
4373409344,3,86,-29,-2,0,-4,3,-2
4373417436,5,127,112,41,-2,3,0,-3
4373417436,5,87,114,55,1,3,-2,-1
4373424861,-3,62,127,34,-3,0,-9,-7
4373424861,-1,28,108,9,-18,-11,-11,-4
4373425626,0,63,53,18,-8,-8,-8,2
4373425626,-3,5,18,-10,-18,-11,-8,-8
4373440620,-2,-12,78,3,-14,-9,-11,-5
4373440620,-6,-23,-17,-9,-12,-2,-6,-7
4373442213,-10,-3,14,-13,-10,-8,-3,-6
4373442213,-2,2,-7,-17,-14,-19,-4,-8
4373486386,-5,37,-13,-6,-19,-12,-10,-3
4373486386,-6,-8,-8,-21,-11,-1,-10,-10
4373488731,-2,-74,-80,-58,0,14,1,-2
4373488731,2,-33,14,-4,-2,-4,-7,-1
4373492490,-3,-99,-29,-36,3,3,-6,-1
4373492490,2,-39,-14,-10,5,-12,-3,2
4373493197,-2,-18,-1,5,-1,-9,0,-4
4373493197,6,1,-7,0,-1,3,-4,1
4373522463,-3,29,-4,-8,-10,-3,-6,-11
4373522463,-7,-24,-32,-26,-14,1,-8,-4
4373530746,-11,-2,-13,-16,-9,-22,-1,-5
4373530746,-9,9,0,-27,-7,-16,-4,-6
4373545639,-3,-92,-9,-26,-12,1,4,3
4373545639,-56,83,-5,8,1,8,13,0
4373547155,1,90,-1,11,-4,12,1,-8
4373547155,16,24,-1,-10,-10,1,-8,4
4373552493,28,57,-2,23,-7,-8,-3,-3
4373552493,-1,-65,-11,-3,3,-12,-13,7
4373553204,9,-65,5,6,-1,-11,-4,3
4373553204,-1,-30,-10,-18,-3,13,-4,-5
4373560710,7,6,3,2,27,-9,2,-10
4373560710,-2,-33,24,-10,19,7,7,-3
4373562215,-60,-30,11,-8,9,-17,0,-5
4373562215,-38,-75,-5,-1,-10,-22,-1,-6
4373575539,-86,-9,-21,-6,-33,-1,-2,-2
4373575539,49,0,-14,13,-18,11,2,-2
4373581723,7,-7,2,8,-4,-1,-11,0
4373581723,-2,4,1,-3,4,-2,-2,0
4373597558,5,31,-5,-4,5,-15,-4,-5
4373597558,-6,-1,-7,4,-8,-9,-5,3
4373604342,10,-16,-12,-2,-14,19,9,3
4373604342,2,-7,0,1,-4,15,-2,1
4373620689,-19,27,-5,14,10,-8,0,5
4373620689,-5,-17,-11,-21,5,-16,-4,-6
4373622237,7,-16,-7,4,-7,-3,1,-2
4373622237,-26,3,3,6,-4,6,9,-3
4373634969,-10,9,2,-12,-4,12,3,1
4373634969,-1,-16,-8,-3,0,-5,-5,-4
4373641931,-66,-19,-10,-28,1,-11,-3,0
4373641931,-37,5,-6,0,5,-8,-6,-2
4373657513,18,1,-9,-9,5,12,-2,1
4373657513,44,-4,4,11,3,5,1,-3
4373664273,46,4,2,3,0,1,3,-4
4373664273,-37,-15,-6,-23,2,-12,-1,3
4373680702,9,2,9,1,-12,-15,-4,-7
4373680702,-60,-8,-22,-31,4,-4,-4,-4
4373682161,-7,-1,14,-12,12,16,-5,-6
4373682161,-20,7,7,-1,11,17,8,-1
4373694346,-42,6,1,-3,7,1,5,-1
4373694346,-29,3,-1,0,-19,-12,-2,-4
4373703304,-18,-9,-5,-1,-15,-18,-8,-2
4373703304,0,-1,-3,10,-14,2,-4,-3
4373717486,-4,2,-3,5,-10,3,-1,3
4373717486,-2,-5,-1,0,1,5,-1,2
4373724370,3,-2,-5,-1,0,-7,-1,0
4373724370,11,6,1,-1,3,-19,-3,-1
4373740661,5,2,-1,4,8,1,3,-2
4373740661,2,2,5,4,13,5,2,0
4373742217,-1,4,3,1,6,5,1,-3
4373742217,8,2,2,-12,-6,1,1,0
4373754212,10,7,-1,2,-5,-12,-2,3
4373754212,0,-7,7,1,-4,-7,-1,7
4373769316,-7,-3,6,7,-2,1,-3,2
4373769316,-2,-10,3,11,4,5,5,-2
4373785665,0,-5,4,-7,7,8,-9,-5
4373785665,-4,-9,-1,-1,2,-7,-1,0
4373787156,-1,-4,-1,-1,2,-3,-4,1
4373787156,5,27,-22,5,5,-11,-6,0
4373800713,19,12,-12,-1,3,0,-2,-2
4373800713,112,7,-8,-56,4,9,3,-3
4373802187,-25,-8,-5,13,3,3,3,-1
4373802187,13,-10,10,14,0,1,-6,-2
4373814239,-15,-4,1,6,-4,-4,4,-2
4373814239,-39,4,7,36,-14,-1,-4,-3
4373823203,31,4,2,-20,-14,-6,-6,-2
4373823203,4,-1,4,-7,-1,8,-4,-1
4373837415,-8,-14,-5,-5,-6,2,3,3
4373837415,11,-13,-8,-16,-6,-6,5,0
4373844422,0,-5,-8,-21,-4,-8,9,-2
4373844422,-18,12,3,6,-5,-10,-1,-2
4373860744,15,-1,-3,-1,1,-2,0,0
4373860744,-20,0,-1,0,-4,0,0,-2
4373862172,-50,-7,-7,-23,4,7,1,3
4373862172,-9,-5,-2,-16,-7,5,-3,-5
4373874310,1,-2,2,-16,-3,4,-8,-1
4373874310,-23,-3,2,6,3,9,-3,-1
4373883188,-11,3,0,-1,-5,-5,-3,-4
4373883188,2,-15,-3,-8,-4,-5,4,0
4373897504,-14,1,0,0,-4,3,1,-4
4373897504,-23,4,1,5,2,0,-1,-8
4373904372,15,6,-3,10,-5,0,0,0
4373904372,-1,2,4,-10,2,-7,-4,-2
4373920613,-3,-1,-1,-1,-3,-5,-4,0
4373920613,-10,-6,4,-4,-1,-1,6,1
4373922179,5,6,-2,4,2,2,3,-2
4373922179,0,-6,0,5,-1,-3,5,-2
4373934420,-9,-4,-2,-2,1,-6,-3,-1
4373934420,-2,0,-5,12,5,-7,-4,2
4373943259,6,-1,11,4,-7,0,0,-5
4373943259,5,1,-3,2,2,-3,4,1
4373957468,-1,2,-6,-8,-6,-3,0,-4
4373957468,0,9,-2,1,-11,-5,-1,0
4373964326,11,-9,-13,-4,4,0,-9,-5
4373964326,2,13,-4,-9,2,2,-3,4
4373980658,7,5,-2,-3,9,3,-4,-3
4373980658,-3,-4,-8,3,10,3,-7,1
4373982202,0,5,0,11,7,2,-1,-1
4373982202,2,-18,-5,5,23,-3,-5,-2
4373994339,-4,6,-4,10,-2,3,12,3
4373994339,-3,-14,9,-2,14,-8,6,2
4374003241,5,-9,3,-8,-22,3,4,3
4374003241,1,-7,0,5,-10,13,1,1
4374017572,3,-1,4,-5,-11,-6,-8,-3
4374017572,-3,-3,2,5,-11,1,-4,-1
4374024188,1,15,1,-1,2,-14,-5,-2
4374024188,-5,9,-7,-9,-4,-10,-2,2
4374040649,-3,-5,9,-6,-12,11,-1,2
4374040649,-2,-3,-6,-10,-13,-4,2,0
4374042112,-3,-20,11,-5,-7,2,-1,1
4374042112,-3,-10,6,-4,-11,-4,2,-4
4374054452,2,10,-4,-7,15,-8,0,1
4374054452,-4,18,-16,-3,6,4,-3,-2
4374063201,-2,22,-20,-5,8,1,-7,-3
4374063201,1,10,-5,5,-5,-2,3,2
4374077564,-6,-13,-1,5,15,0,0,0
4374077564,1,-12,-3,5,2,1,5,-2
4374084239,-1,4,-4,3,4,-5,0,2
4374084239,0,-13,1,2,0,0,-5,-4
4374100773,0,-7,5,2,-4,-1,3,1
4374100773,-3,-15,9,-5,-8,-7,2,7
4374102156,-3,-14,6,1,-6,6,2,1
4374102156,1,-19,9,0,-10,0,5,0
4374114242,4,-2,-5,-7,-5,2,2,-3
4374114242,1,7,-1,-2,-7,-4,-5,-1
4374123178,-2,3,-4,-1,-10,-4,0,-7
4374123178,-3,8,0,5,-5,-5,-2,0
4374137608,-4,6,1,-14,13,1,-3,-3
4374137608,1,-2,1,5,3,9,-1,-1
4374144368,2,-6,3,5,7,5,2,0
4374144368,0,8,-8,-7,-3,3,-2,-3
4374159789,1,15,-9,-3,-5,-1,-7,-5
4374159789,-2,12,-7,8,-5,2,2,-3
4374168273,2,2,-2,13,-10,-6,-3,-2
4374168273,-3,-8,-1,18,10,6,-2,-2
4374174386,-1,-4,-2,7,4,-8,-1,2
4374174386,-3,-8,1,-11,-1,2,-3,-6
4374183265,1,-5,-1,-13,-4,-3,-3,2
4374183265,-1,-10,-1,-16,-6,3,1,-1
4374197484,1,10,-2,-18,-4,-1,0,-4
4374197484,1,-12,-1,-17,4,-1,-5,-5
4374211709,0,10,-3,-21,2,-1,2,3
4374211709,-6,-10,2,-14,7,-9,-3,-1
4374220014,-2,-24,10,-12,-7,0,4,-1
4374220014,0,-15,5,-10,-2,-1,3,3
4374226815,-2,-3,3,-4,0,0,0,-3
4374226815,-2,7,-4,-4,0,4,-9,-2
4374234392,-4,-5,-3,2,-8,-1,0,2
4374234392,2,6,-6,4,-2,2,-3,-3
4374243317,-3,2,-9,10,4,0,-3,-3
4374243317,4,16,-2,13,-6,1,0,-3
4374257513,-3,8,0,17,-5,3,4,-6
4374257513,-5,11,0,0,-2,-1,1,-1
4374264264,-3,19,-5,-3,0,0,-4,1
4374264264,1,-3,2,15,3,-1,-5,2
4374295073,-1,-17,7,0,14,-7,-5,3
4374295073,-6,-27,4,11,5,-9,-1,7
4374303214,1,-16,8,10,0,1,2,6
4374303214,-2,-21,1,6,-10,-2,11,2
4374325624,2,1,0,-6,3,2,11,3
4374325624,4,22,-5,-26,-2,11,10,-6
4374327137,-2,-12,6,-33,-1,2,-2,-8
4374327137,-5,-1,-6,-27,-14,-5,-6,-4
4374332434,-9,-17,-5,5,-24,-12,-17,-5
4374332434,-6,-9,-1,27,-15,-13,-14,-8
4374333147,-6,-2,-8,24,-2,-7,-3,-1
4374333147,5,10,6,1,5,9,0,-9
4374339913,5,14,2,2,10,14,4,-4
4374339913,-2,2,-1,-3,6,6,-6,-1
4374346894,-2,-9,-8,13,2,-6,-6,-7
4374346894,-1,-11,-5,-6,8,-16,-3,-3
4374363318,1,-8,0,-3,4,3,-4,0
4374363318,0,9,4,-4,0,4,-4,-3
4374364756,-4,1,2,-2,-2,-6,4,5
4374364756,3,-6,-1,-2,-6,-10,2,3
4374400747,-1,-2,-2,5,-6,1,-1,3
4374400747,2,6,5,2,-3,2,8,1
4374402159,1,-7,14,-6,-30,5,-2,0
4374402159,-6,2,-3,-13,11,4,0,5
4374423316,1,-1,3,-13,11,-4,-5,7
4374423316,-4,1,-4,-4,17,-5,-1,1
4374424730,7,10,1,-18,19,8,-6,-1
4374424730,-2,14,2,-5,-10,4,-4,-7
4374444466,-7,-4,-4,10,-8,6,6,-9
4374444466,-3,-10,-2,17,-6,3,-6,-5
4374453201,-4,-10,-1,15,0,-24,0,-3
4374453201,0,6,1,10,-2,-10,1,2
4374476435,-2,5,-5,-1,-12,4,4,-4
4374476435,-2,-9,-5,0,-2,7,2,4
4374478727,-5,-7,-8,-3,0,7,-3,-2
4374478727,0,-3,-2,-1,0,-8,-5,-1
4374497620,3,-6,-4,-10,-2,-7,-8,-2
4374497620,-1,-2,1,-16,-4,-2,1,-4
4374504251,1,1,-3,-16,5,12,-1,-2
4374504251,-4,2,-1,-1,6,-4,4,-3
4374519326,-2,-1,-1,-7,-1,-13,-3,0
4374519326,-4,-1,-4,-6,-4,-5,0,-1
4374528230,-1,-11,0,7,3,10,3,6
4374528230,-2,15,7,-9,-5,3,5,0
4374550500,5,-2,-3,11,7,-3,2,-5
4374550500,-2,-3,0,-9,3,-10,-2,0
4374558265,-3,-5,1,2,-1,-8,-2,1
4374558265,-3,-14,8,-21,-4,1,-1,5
4374573211,0,12,-3,-7,-7,-4,6,2
4374573211,-1,15,-2,11,2,21,3,-1
4374574756,3,11,-2,-1,0,5,1,-4
4374574756,-5,-6,-6,11,5,-7,-3,-3
4374594316,-5,-2,-3,8,6,-11,-4,0
4374594316,-3,2,-10,11,-2,-12,-4,4
4374604752,-5,-10,-20,24,5,-6,7,-4
4374604752,4,2,8,-8,2,10,6,-7
4374625695,1,23,-7,-7,13,2,-7,-5
4374625695,-3,-15,0,-6,-4,-2,-6,2
4374627171,-2,-5,-7,-7,-6,-15,-2,-2
4374627171,-2,-19,-8,2,0,6,-9,-1
4374646894,-2,-12,0,6,-4,-4,7,-1
4374646894,3,1,5,-6,6,-8,3,-5
4374655750,1,-5,6,-13,-3,15,1,-1
4374655750,-4,-4,0,-1,-6,-15,5,1
4374678984,-6,0,14,-9,-13,-2,1,1
4374678984,-1,3,8,-8,-7,9,-3,-1
4374681250,1,13,5,-20,-4,5,-1,-3
4374681250,2,12,-7,1,7,7,-10,-6
4374699236,-6,-7,-7,-1,-2,-11,-12,3
4374699236,-1,-12,-6,9,-6,-19,1,1
4374708231,-1,-5,-7,10,4,4,-3,2
4374708231,1,7,-13,7,-8,17,7,1
4374730617,0,-4,0,-4,-3,8,2,-1
4374730617,-4,-7,1,-9,4,-2,5,-2
4374732180,2,1,-3,-8,2,-19,-1,-3
4374732180,0,-9,-2,3,-9,-16,-1,-2
4374753203,2,-1,-7,6,0,0,3,-5
4374753203,2,2,-4,5,1,8,-3,-3
4374759206,-5,10,1,-5,-1,-4,-2,0
4374759206,0,1,-1,-5,0,-4,4,1
4374783351,-3,-3,3,-2,-5,13,-5,-3
4374783351,4,2,-2,4,-2,-1,3,-1
4374784703,-1,-2,0,3,1,-5,-6,0
4374784703,0,2,-1,9,0,0,-8,0
4374805708,-1,5,2,-6,0,-5,-3,-1
4374805708,1,6,-2,-10,-6,-4,-4,0
4374807173,1,1,3,-6,-6,0,-2,-3
4374807173,-2,-6,4,1,-1,-1,1,-1
4374827510,1,-7,-3,3,0,-2,-6,-2
4374827510,-2,-2,-8,0,2,-8,1,2
4374834894,-3,-2,-6,1,5,0,-5,-1
4374834894,-3,-5,-8,-1,1,11,4,6
4374835656,0,-2,-2,-3,-2,3,-4,-3
4374835656,-1,-6,2,-7,-8,-3,4,-2
4374852485,-3,2,5,3,-1,1,0,-3
4374852485,-2,2,-2,3,-2,9,-1,-5
4374853277,6,7,1,5,-4,-4,0,4
4374853277,-3,2,4,-7,-7,4,-2,0
4374854116,-1,-1,4,11,-2,1,0,0
4374854116,-1,-2,-1,-4,-9,-8,-5,-1
4374858868,-3,-4,-3,-4,-4,-1,-3,-4
4374858868,5,-2,-3,-3,0,-4,-2,-6
4374859536,-2,-8,-4,0,-5,-5,2,-2
4374859536,-2,-4,-3,-10,-4,-6,-3,-6
4374860352,-3,-4,-7,4,-3,-7,-3,-3
4374860352,-4,-1,-1,2,2,0,-4,-1
4374865703,-4,-7,-2,0,-2,5,2,-1
4374865703,1,-5,2,-8,8,-2,-3,1
4374866341,2,3,4,-5,0,-1,2,5
4374866341,2,2,-6,4,2,-1,-5,-2
4374867110,-1,5,-8,-1,1,-7,-4,-2
4374867110,0,3,-6,2,-1,0,-4,3
4374872641,6,0,7,0,-7,9,6,5
4374872641,-1,5,1,-1,3,4,-2,-2
4374880603,0,-2,-1,-2,0,-1,-5,-1
4374880603,1,3,2,1,-5,-6,0,2
4374881288,-4,-6,3,8,-9,-10,3,1
4374881288,3,0,1,-2,-15,-1,3,-2
4374882089,0,0,-2,-2,1,8,-1,-3
4374882089,3,5,-4,-3,0,12,-7,-6
4374887460,-4,-5,-16,-3,-6,-3,-2,-7
4374887460,-3,-3,-3,-8,-2,-9,-3,3
4374888226,-2,-5,0,3,-4,-10,2,1
4374888226,-5,-5,-9,8,-1,-3,-5,-5
4374909992,-1,-6,-5,-2,8,-2,0,-6
4374909992,-1,-8,-4,-1,4,-1,-3,-2
4374910729,3,0,2,-5,-4,-4,1,1
4374910729,1,-2,3,-2,-2,-2,1,4
4374925010,1,-5,0,-1,0,1,3,4
4374925010,0,7,-5,7,-6,-9,5,1
4374925764,4,3,1,3,1,-4,-4,2
4374925764,-5,5,4,-4,-8,-12,-3,-7
4374939211,-4,4,-1,-3,0,0,-8,1
4374939211,-1,4,-6,-5,2,6,3,4
4374946952,-1,1,-4,-4,0,21,0,-3
4374946952,-2,-2,-3,-2,-1,8,5,-3
4374962572,1,-2,-2,0,-2,-4,2,2
4374962572,-6,-6,2,-2,-7,-10,-12,1
4374963237,-5,-12,-1,-10,-5,-12,-6,-2
4374963237,3,-3,-1,-2,5,-5,-6,1
4374978261,1,3,1,-7,0,0,-2,-3
4374978261,0,-2,0,-1,13,1,1,-4
4374984396,-3,-3,7,-7,0,4,6,5
4374984396,0,-3,3,-1,-4,4,-1,1
4374999392,-5,2,-9,-8,1,-5,0,2
4374999392,-4,1,3,5,-20,2,1,-1
4375006789,-1,3,-11,1,-7,-7,0,-7
4375006789,1,-1,2,0,-7,-1,-4,2
4375021972,6,-7,2,1,-3,-10,-8,-5
4375021972,1,-5,-7,-2,10,-4,-10,-3
4375029423,1,-4,2,-2,-3,-13,-2,-4
4375029423,-3,-1,-4,5,2,3,0,2
4375038280,-4,-1,5,3,0,-1,4,-2
4375038280,0,-1,5,9,4,2,9,-4
4375044359,-1,0,5,10,0,10,0,0
4375044359,0,0,-8,3,7,9,3,1
4375059366,-2,1,-2,9,-14,2,1,4
4375059366,2,2,-5,5,-8,1,-1,1
4375066913,-1,6,-4,0,-6,-16,-4,2
4375066913,-3,1,-5,-15,4,-8,-3,-4
4375082533,-1,8,0,2,15,8,-3,-7
4375082533,1,-8,3,-27,7,7,-4,-7
4375083269,4,-7,-2,-12,-5,-1,4,-2
4375083269,1,3,-5,-18,-4,-14,0,-3
4375098303,-2,-8,-3,14,-7,-4,-2,2
4375098303,-1,-3,-7,2,-1,7,-5,0
4375112566,0,9,6,5,5,8,1,-2
4375112566,0,-2,6,-7,-1,4,1,-1
4375119353,-2,2,7,-11,-7,-1,1,-3
4375119353,3,5,1,7,1,-5,0,-2
4375126870,2,8,-2,-13,10,6,-5,3
4375126870,-2,-3,-2,-34,-1,-7,0,-1
4375141863,-2,1,-2,4,7,5,5,-2
4375141863,-3,-9,0,5,-1,-4,0,-2
4375158247,0,-5,0,27,-6,3,-3,-4
4375158247,-1,1,-4,24,-5,-6,-1,-2
4375159689,1,9,2,18,10,1,-6,-3
4375159689,-4,-3,7,-3,-9,-7,-1,-1
4375164360,-2,5,-5,-2,3,2,2,-1
4375164360,-1,-1,0,1,-1,-4,-4,1
4375179414,4,-9,-5,-10,-3,-4,-2,2
4375179414,1,0,-7,2,0,5,-8,5
4375186848,-4,2,-3,-11,1,0,-2,1
4375186848,-1,2,3,10,6,4,1,-4
4375201773,-5,2,-1,-24,6,5,-3,-5
4375201773,-1,0,-4,-4,7,-5,4,0
4375209304,-2,-10,-4,13,-1,-6,4,5
4375209304,0,-1,-2,14,-3,-5,-2,0
4375218239,-2,-2,0,7,2,2,-3,-1
4375218239,-1,6,6,-5,-4,4,-3,-2
4375224402,1,-2,4,-2,-4,-2,1,-3
4375224402,-2,0,-4,1,-7,-4,3,-2
4375239230,3,4,-2,6,-7,1,-2,0
4375239230,0,-1,-3,5,-2,2,-1,0
4375246690,-1,5,-3,4,0,-1,-3,2
4375246690,3,5,9,1,3,2,-2,-2
4375261948,-1,2,-1,-10,-4,-1,2,1
4375261948,-2,-1,-4,1,2,6,4,0
4375269336,-2,-4,-3,2,5,4,-2,1
4375269336,-1,-8,-6,6,-5,5,-2,-4
4375285047,-4,-1,-2,3,-8,-10,-4,-3
4375285047,2,6,-2,-11,-7,-18,-3,-2
4375285692,-4,3,0,-29,-1,-1,-4,-2
4375285692,1,-7,1,11,3,1,-4,0
4375299275,-4,-5,-4,19,-2,7,4,1
4375299275,0,-1,-9,14,10,5,2,-1
4375306879,1,0,7,-13,-11,-6,1,-6
4375306879,0,2,5,-38,-22,-3,-1,3
4375321769,0,-9,-2,-21,-1,-6,-7,-1
4375321769,-8,-7,-1,-14,6,5,-1,-3
4375329401,-1,1,-2,-8,1,2,2,-6
4375329401,0,-2,-1,-3,5,10,4,1
4375345053,0,-9,6,-10,-6,-4,1,1
4375345053,-4,-7,0,-7,-10,-9,-2,4
4375345810,2,-5,-8,6,6,-9,-8,0
4375345810,-2,-4,-11,3,1,-5,-3,1
4375359378,2,1,-1,-10,1,-1,-1,1
4375359378,0,3,-1,-2,-4,1,1,-3
4375366869,-3,-4,1,7,-10,-9,0,1
4375366869,-3,-3,-5,18,-4,-4,0,2
4375389997,-1,2,-12,-4,3,-1,-4,-3
4375389997,-1,-3,-3,-8,-1,-3,-3,0
4375390734,5,2,-2,-4,-5,-2,-2,0
4375390734,-2,10,8,-14,-4,2,1,-3
4375404905,2,4,2,-34,1,9,1,-2
4375404905,0,3,3,10,1,9,5,-1
4375405649,-1,-4,0,8,1,12,-1,1
4375405649,0,-3,-8,11,-3,-1,1,-4
4375419251,-3,-7,-5,31,-9,-4,3,4
4375419251,-4,-4,-4,22,-9,-17,-7,0
4375426860,0,1,-2,14,-1,-13,-1,-9
4375426860,-2,2,-3,-8,0,-8,1,1
4375441779,-2,5,2,-5,1,4,3,1
4375441779,4,1,1,-20,-1,17,-1,-9
4375449217,-2,-5,-1,0,-8,6,-1,-4
4375449217,-3,-3,0,-9,-7,3,1,-7
4375466366,-1,3,-2,-2,-2,-18,-3,0
4375466366,-6,3,1,-10,7,-14,-3,-1
4375467141,1,6,11,-13,15,6,0,1
4375467141,1,5,1,-12,0,13,0,-6
4375479297,-1,-4,-29,-77,-40,7,-3,-3
4375479297,2,-83,49,-14,86,-46,-2,-1
4375486890,-7,82,14,-2,-84,18,6,-2
4375486890,14,-24,-18,24,25,-50,3,-13
4375501816,-5,-29,-17,21,4,-3,-1,3
4375501816,-1,34,-30,-8,-13,42,-2,-11
4375509208,-3,-42,15,7,18,-19,-7,11
4375509208,0,37,13,32,-27,-50,15,1
4375524896,-1,-5,38,-21,44,16,-4,-5
4375524896,3,7,6,-20,-1,40,2,2
4375525771,-4,-24,-15,0,27,-10,8,-6
4375525771,-10,8,-14,10,-30,20,-4,6
4375539362,1,4,-1,43,-8,3,1,-1
4375539362,-7,17,-3,9,-26,-9,-5,6
4375546902,12,-15,-14,-10,1,1,-7,-6
4375546902,-2,-9,-11,-14,20,5,-10,1
4375571454,-2,10,9,3,3,8,0,-7
4375571454,0,15,0,16,-10,0,3,6
4375572289,1,0,-6,1,-9,-9,5,-1
4375572289,-6,-20,13,-15,8,22,0,-7
4375584942,3,3,0,1,14,6,-6,-3
4375584942,-3,1,-12,-1,-24,-16,3,-5
4375585693,-1,-11,-12,5,-2,-26,0,3
4375585693,-5,0,-2,-1,-6,17,-3,4
4375607458,0,-2,-7,8,-11,7,1,1
4375607458,1,-13,-13,4,-20,-23,-3,0
4375608201,-2,0,-2,1,6,8,-1,-9
4375608201,-3,-2,7,-7,12,1,-1,4
4375623229,6,5,-4,3,-10,-11,1,-1
4375623229,-4,-4,-2,-3,-4,-6,3,-5
4375629419,-3,-6,-4,-13,16,19,-8,1
4375629419,0,0,-8,-1,1,12,0,-6
4375645039,2,0,-3,13,5,-21,-1,1
4375645039,3,19,0,13,1,18,5,3
4375645700,-2,4,1,-4,4,13,8,-2
4375645700,0,5,2,0,4,-1,-1,7
4375667599,1,2,2,-1,-16,-3,1,-5
4375667599,0,-11,1,-6,-6,-6,1,2
4375668221,-3,-1,-4,-4,-6,-5,-4,1
4375668221,-1,-16,0,-5,-7,-5,-8,6
4375681893,-6,6,3,3,10,3,-3,-4
4375681893,-3,-5,-1,1,1,-2,1,-2
4375689388,-3,-15,4,-8,4,-18,-2,1
4375689388,1,4,0,-9,-12,-1,0,-6
4375705074,-5,-1,-11,4,-6,-12,0,4
4375705074,-1,-9,-4,-8,-19,0,0,0
4375705743,-3,7,-7,7,1,-1,-1,4
4375705743,1,12,-2,13,4,-7,-3,2
4375719358,-1,7,5,7,-1,18,-3,0
4375719358,-3,4,-1,-7,-7,14,-6,-1
4375726868,-5,-2,1,-8,-11,6,-7,-6
4375726868,3,6,4,-17,-18,-9,-2,-1
4375741759,-2,-2,6,-2,-9,-21,0,1
4375741759,1,3,-4,-20,4,8,-3,-3
4375749335,-4,-6,-6,9,-13,44,-1,-6
4375749335,0,-15,-4,-14,-7,-10,-1,-2
4375764972,0,-11,-1,-24,-2,-28,10,-3
4375764972,7,10,4,-14,-10,-11,1,2
4375765725,-6,-8,-10,-8,12,-15,1,-1
4375765725,-4,-13,-3,12,6,20,-4,-3
4375779339,-3,-13,11,35,16,16,5,5
4375779339,-1,10,2,17,32,-4,9,4
4375786744,-2,8,0,18,32,17,-2,3
4375786744,1,25,-7,-4,14,20,-7,-1
4375801929,3,15,-9,-26,-12,-17,-18,-2
4375801929,-2,0,-11,-9,-17,-19,-15,-3
4375809426,6,4,-4,-13,-17,6,-27,1
4375809426,1,-1,3,-8,-9,-1,-12,-2
4375824969,2,5,-3,-7,-8,-24,0,-3
4375824969,-2,-23,4,3,-8,-26,6,-6
4375825757,1,-27,2,4,-4,14,14,1
4375825757,1,-17,-5,12,26,26,17,1
4375839366,-7,-3,-3,3,22,21,16,4
4375839366,-1,-2,2,2,6,2,10,-3
4375846843,2,-2,5,-5,-3,-20,3,-2
4375846843,-1,-1,7,9,-21,-12,1,-2
4375861856,2,2,-2,16,-20,10,-5,0
4375861856,-4,3,-1,21,-5,9,-10,1
4375877618,0,16,2,13,-5,-4,-4,-1
4375877618,-3,14,3,8,5,1,-5,-2
4375884983,2,5,-3,-10,2,3,-5,-5
4375884983,1,3,0,-10,6,5,-5,0
4375885668,2,1,-1,3,4,-2,8,-2
4375885668,-4,-7,2,-4,1,-12,4,3
4375899310,1,-8,1,-1,4,2,-2,-4
4375899310,-1,-11,-4,0,-2,3,-3,-1
4375914963,-1,-6,-6,5,-4,-14,5,1
4375914963,0,-8,-9,-2,-11,-16,4,-7
4375930070,-2,-5,-2,-11,-11,1,-3,-2
4375930070,1,5,0,-9,-4,16,4,-2
4375930778,2,6,2,-25,-5,-6,0,0
4375930778,-4,-6,-3,-23,-1,1,-6,0
4375944987,4,1,-3,-7,3,7,0,-1
4375944987,-2,-1,-7,-3,6,-4,-5,0
4375945725,1,3,-2,1,4,-5,-3,-1
4375945725,4,0,4,21,4,12,-1,-2
4375959368,-2,-4,-4,34,-1,6,-5,1
4375959368,-5,-3,-5,49,-2,-7,-6,0
4375966754,-3,-10,0,39,1,-6,2,1
4375966754,-4,-11,-5,24,-2,-7,-2,-2
4375981816,0,-5,-6,2,-10,-2,-6,-2
4375981816,2,-2,2,1,-5,9,0,-2
4375989423,0,-1,1,-15,-1,9,5,1
4375989423,-4,-3,0,-24,4,-8,-1,1
4376005035,-5,-4,7,-26,-1,-5,0,-3
4376005035,0,-4,0,-21,-3,-11,-4,-2
4376005744,1,6,6,-13,5,-5,-1,-2
4376005744,-1,2,7,-6,-1,0,-4,3
4376019395,2,-6,3,-4,-3,-1,3,1
4376019395,3,-8,-6,-10,3,0,-2,-3
4376026879,-1,-10,-3,-16,-9,7,-6,-3
4376026879,4,0,-6,23,6,18,2,-5
4376041985,0,-8,0,15,2,-2,1,-1
4376041985,5,-30,8,-1,-2,7,-5,1
4376049329,3,27,-13,13,11,-23,-13,0
4376049329,-1,30,-8,-16,3,-19,-7,0
4376065092,-6,30,0,-42,-2,10,0,0
4376065092,-4,32,-1,-42,0,15,5,1
4376065761,-3,27,1,-39,-16,5,8,2
4376065761,0,25,-2,-14,-12,-5,5,5
4376079303,0,9,-12,-12,5,-24,-4,1
4376079303,0,-14,-1,-2,5,-18,-8,-1
4376086914,2,-39,3,2,4,1,-9,-1
4376086914,-2,-44,2,-2,-4,5,1,0
4376101741,-4,-25,0,-5,0,5,-1,-5
4376101741,-5,-11,3,5,-4,-5,3,-1
4376109389,-2,-8,1,6,-6,-14,0,-3
4376109389,-2,-17,0,-7,0,-2,0,-4
4376124338,0,-7,-5,-1,-9,7,1,-4
4376124338,-6,0,-11,4,-9,4,2,-1
4376132501,-4,-8,-8,14,0,-10,-2,-4
4376132501,-6,-4,0,26,-9,3,-9,-2
4376139385,-1,-14,-1,16,-2,7,-10,-2
4376139385,0,16,-4,16,-3,-8,-3,-2
4376146856,-1,1,0,9,-12,-11,3,1
4376146856,1,2,7,-6,2,3,-2,1
4376161806,-1,10,6,-6,6,17,4,3
4376161806,4,11,5,-20,7,-2,3,0
4376169404,7,4,7,-26,4,0,-2,-2
4376169404,7,5,0,-2,8,4,7,0
4376184409,6,1,-4,2,1,-2,0,-4
4376184409,-6,0,0,41,-11,12,-1,-1
4376192599,-6,1,-2,30,-5,1,2,3
4376192599,0,-1,-1,28,-8,-4,-2,0
4376199448,3,5,2,3,1,-5,-2,2
4376199448,3,2,5,-4,10,-12,-1,3
4376206861,7,7,4,-51,5,-4,-3,-3
4376206861,-5,-2,-8,2,4,-5,2,3
4376223246,-6,2,-3,4,9,11,6,1
4376223246,-6,-13,-4,6,-5,9,1,2
4376229442,-7,-10,-2,-1,-9,3,7,3
4376229442,6,-11,5,-21,-11,-12,0,-6
4376244428,2,-2,3,-16,-27,-14,-5,-2
4376244428,6,1,-1,-21,-8,7,-2,-1
4376252636,4,-5,3,-11,0,10,4,1
4376252636,1,-3,5,-86,9,6,-5,-3
4376267541,-5,-21,27,-3,-12,-7,-8,-2
4376267541,1,4,55,-7,6,-30,-14,-3
4376268199,-7,17,87,52,18,-35,1,-1
4376268199,-8,11,123,7,14,20,11,1
4376281831,-9,4,127,-6,10,43,10,2
4376281831,-7,-1,120,-82,-5,15,19,6
4376289391,101,95,-5,100,-17,-47,-28,-13
4376289391,59,51,-74,99,-1,-20,-24,-9
4376304426,50,52,-118,90,-15,-19,-35,-18
4376304426,-9,-8,-127,53,-21,-9,0,1
4376312625,-45,-36,-102,-36,-25,11,20,1
4376312625,-23,-15,-94,2,-1,13,-3,-8
4376327544,-38,-35,-87,2,19,39,1,-7
4376327544,-11,-16,-112,78,12,-27,-10,-9
4376328227,-24,-32,-118,72,11,-45,-6,-3
4376328227,-9,-12,-128,45,1,-7,-8,-3
4376341841,-11,-14,89,-7,12,7,4,6
4376341841,10,4,-32,-49,-4,11,4,4
4376349257,6,-1,11,-28,-9,4,-8,-3
4376349257,-12,-11,87,-4,-1,5,6,5
4376364417,3,-2,-123,-68,-2,-20,-4,3
4376364417,8,6,110,-39,-12,-11,0,1
4376372564,-14,-18,127,-100,-3,25,10,5
4376372564,-4,-5,127,-61,2,16,6,9
4376387606,1,7,100,-19,-1,-3,7,1
4376387606,8,5,-44,-14,10,-17,-4,-3
4376388226,-8,-3,-128,-14,3,3,-5,-2
4376388226,0,-4,-69,-16,-1,-10,-6,2
4376401802,13,14,-41,-12,-6,-7,5,3
4376401802,2,2,-1,-20,1,15,2,2
4376417499,0,-9,57,-36,-7,22,3,9
4376417499,0,-6,6,0,-28,10,6,-8
4376424370,-8,2,25,27,0,-8,3,5
4376424370,-6,5,21,15,15,6,-7,-8
4376432499,-5,24,16,-4,25,20,-10,1
4376432499,-9,-1,5,-25,14,-22,-9,4
4376447401,-7,-14,-9,-1,4,-24,0,-2
4376447401,-5,-6,1,104,2,-7,-2,-2
4376448192,-6,-6,11,88,1,6,2,-9
4376448192,-3,3,-2,92,8,5,5,4
4376461947,3,0,7,112,-10,7,3,-5
4376461947,7,2,-8,-13,-12,-12,-3,-3
4376469415,-4,-10,16,-22,-10,-9,-1,-4
4376469415,1,-1,1,-72,-10,-13,-6,-6
4376484419,0,-1,0,-33,-8,-2,2,-5
4376484419,1,3,7,13,-10,20,-2,-1
4376492315,-4,-10,-7,-25,-10,16,1,-2
4376492315,1,0,-1,-36,-8,-4,3,-4
4376507515,3,-4,-14,-36,1,-21,-4,-1
4376507515,-3,0,-4,-41,1,3,0,0
4376508217,3,0,7,-2,14,5,-7,-1
4376508217,2,1,-4,11,4,-6,-3,-1
4376521781,1,-6,-2,-3,6,-17,-5,3
4376521781,0,3,4,21,-4,-4,0,0
4376529366,-2,0,4,-11,-2,13,1,2
4376529366,-1,3,-2,18,-10,8,0,-1
4376545726,-4,5,-4,7,-6,6,0,0
4376545726,3,2,0,-5,-4,4,0,-3
4376552484,-3,-3,-1,-15,3,-3,-1,-3
4376552484,1,-6,-4,-29,-6,-10,1,-4
4376575715,0,-3,-1,-32,0,-2,3,3
4376575715,6,-1,4,-20,4,7,-1,2
4376576463,-1,-7,0,-4,0,5,1,-1
4376576463,-2,2,-1,8,4,-10,5,4
4376589994,0,-1,-6,-12,9,-7,-6,-5
4376589994,-1,-11,-4,-16,-1,-9,0,-3
4376590730,3,-3,-2,-8,-4,-7,-4,0
4376590730,-2,0,-4,-9,-2,-2,1,0
4376604427,-3,3,-3,-13,-11,1,-5,-2
4376604427,-3,-1,1,1,-3,7,-1,-1
4376612478,1,-1,-2,3,-7,-4,1,-4
4376612478,-3,4,1,5,-3,-8,-3,-1
4376627632,-5,-1,2,5,-2,7,4,1
4376627632,-1,-1,-1,-2,1,-1,-4,-3
4376628228,-5,1,9,4,4,-3,-3,0
4376628228,1,-1,3,-1,-1,6,-3,-1
4376641988,3,-3,-1,12,5,1,0,0
4376641988,-2,3,-2,9,7,-4,-4,3
4376649289,-4,-2,1,13,-2,3,-1,0
4376649289,2,1,-1,9,-2,0,-5,-6
4376664323,1,5,0,11,-4,8,-4,-1
4376664323,1,0,0,5,-6,-2,-4,0
4376672548,-1,1,-4,-3,-7,2,-7,0
4376672548,-2,-2,0,5,-6,-3,2,-2
4376687428,0,-2,1,-3,-2,-10,-5,1
4376687428,1,0,3,16,-6,-1,-6,-3
4376688208,2,-2,-2,8,0,1,3,4
4376688208,-4,-1,-1,5,1,-2,1,2
4376701916,2,1,-1,-19,0,2,2,-1
4376701916,-2,-1,-3,7,1,-3,3,0
4376709338,0,-5,-2,11,-1,-2,1,-4
4376709338,2,-8,-3,8,5,-5,-2,4
4376724280,0,0,1,-8,-6,-4,-3,0
4376724280,-3,-2,-3,-4,3,6,-1,-2
4376732587,0,4,-4,-15,0,-7,-2,-2
4376732587,-5,-4,0,-9,-4,7,0,0
4376755849,4,-2,1,1,-1,-2,9,4
4376755849,-4,-6,4,4,8,-1,1,-1
4376756452,4,-3,5,-4,5,-10,1,1
4376756452,-5,1,4,-18,-1,-1,0,-2
4376761812,2,-1,3,-15,-14,-8,-1,-2
4376761812,-5,3,-2,-17,-8,-4,6,-2
4376769247,-3,5,0,-2,-6,8,2,-2
4376769247,2,5,-6,5,-1,3,-1,-5
4376784449,-4,-3,-1,11,-2,-3,0,-1
4376784449,1,3,-3,-6,3,1,-2,-1
4376792576,-6,-2,-3,-1,2,-3,-4,-1
4376792576,1,-4,-5,-5,2,4,-4,2
4376807429,-4,-3,1,6,2,3,-1,1
4376807429,2,-2,-2,2,3,4,2,1
4376808166,-2,-4,-2,2,0,2,0,1
4376808166,-4,-2,0,-3,-6,-7,-1,-3
4376821874,-1,-5,-3,1,2,-5,-3,1
4376821874,-2,-1,-2,-4,-9,2,-8,-1
4376829492,4,-4,-1,4,-1,7,-4,0
4376829492,-2,-8,1,1,-3,5,1,2
4376844446,-2,-1,-2,3,-2,-7,-5,-3
4376844446,-3,3,-3,-1,-7,-3,-8,-3
4376852456,0,0,-5,-2,-2,-2,-2,-3
4376852456,-1,-2,0,-7,-3,-5,2,0
4376867620,1,-1,2,-6,0,5,0,-3
4376867620,-5,-1,0,-5,-1,0,2,-1
4376868259,-3,-4,0,2,-3,-3,-1,-4
4376868259,-4,-7,-1,4,0,-5,3,-2
4376881895,-1,3,-2,-1,0,-3,1,-3
4376881895,1,-4,2,-3,-3,-1,-3,-4
4376889417,-2,6,3,-1,0,8,0,-1
4376889417,-1,4,2,-1,1,1,-3,0
4376904376,-2,1,-2,-2,-1,-4,4,-1
4376904376,-2,-5,2,-5,-3,-1,-1,1
4376912489,-4,-7,-8,-8,-2,-11,1,0
4376912489,0,-1,-3,-5,1,-3,-7,1
4376927576,-1,2,-2,1,1,0,-4,-4
4376927576,-1,2,-3,0,-1,0,3,-6
4376928209,-1,0,-6,-5,-7,2,-1,-4
4376928209,3,-3,0,6,5,7,5,-3
4376943308,-3,-2,0,1,5,6,-1,1
4376943308,-1,-5,-3,-3,7,-9,1,-1
4376949435,-4,-5,3,-4,2,-5,0,0
4376949435,-3,-4,1,-8,-3,-7,-1,-6
4376964296,5,-2,-3,-3,-4,1,-3,-3
4376964296,2,3,-1,1,-8,5,3,5
4376972613,0,1,1,0,-3,7,4,2
4376972613,-1,-3,1,-5,-7,-1,2,4
4376987676,-5,-4,0,-1,-4,0,-2,1
4376987676,2,4,0,-2,-3,-9,-5,-3
4376988277,-1,3,-2,-1,-1,-6,-2,-4
4376988277,-1,1,-9,0,1,-2,-1,-3
4377001742,-1,-3,-1,1,5,3,-1,-1
4377001742,0,1,-1,-2,-4,4,1,-3
4377009489,1,3,1,6,1,1,3,-1
4377009489,0,3,2,7,5,-8,1,1
4377024279,-6,2,-1,-4,2,-7,1,0
4377024279,0,0,-2,-2,2,2,-2,2
4377032545,4,0,0,0,3,3,0,-4
4377032545,-2,0,-1,3,-3,9,-2,3
4377046904,0,2,-2,2,-4,5,-4,-3
4377046904,3,-3,1,3,-3,-3,1,0
4377063291,-2,-3,2,6,-3,-3,1,-2
4377063291,1,2,-3,-1,-2,-4,-4,-2
4377064737,-2,1,1,1,-4,-4,5,0
4377064737,-3,-2,-2,-2,4,3,-2,-2
4377069489,4,1,1,-3,1,-3,-5,-1
4377069489,0,2,3,1,-2,4,-1,-4
4377084292,-1,-2,-1,3,2,0,3,-4
4377084292,-3,-6,-5,-4,-3,-4,-5,4
4377092663,-6,0,0,-4,0,2,-4,2
4377092663,-2,3,-3,-3,2,0,1,-1
4377106894,-4,-3,-1,-2,-11,-4,1,-1
4377106894,3,-5,-3,0,1,0,3,-3
4377115102,-5,-5,-4,-4,5,-5,-3,-4
4377115102,2,3,2,5,5,-2,-1,1
4377121892,-4,-7,-5,-6,1,-3,0,-4
4377121892,-8,0,0,-3,0,1,-2,-4
4377129385,0,-7,-1,-6,-3,1,2,-2
4377129385,4,0,-6,-5,-5,-1,-3,-1
4377144496,4,0,1,3,5,1,5,-1
4377144496,-2,6,-3,-3,0,-4,0,-1
4377152580,0,2,-1,-7,-7,1,-5,-2
4377152580,-5,-1,3,2,-5,-2,0,-2
4377166762,3,0,-1,-3,-1,4,-3,4
4377166762,-4,-2,-7,-1,-2,-1,1,-1
4377175085,-3,1,-4,1,-1,1,-3,5
4377175085,-1,-2,-3,1,2,-1,0,-1
4377189969,-2,0,-1,5,0,-1,-1,-5
4377189969,-1,-2,-1,2,-5,-7,-1,-2
4377190716,1,2,-2,5,0,-1,-3,4
4377190716,1,-3,1,2,-2,-2,1,-1
4377204457,-1,4,2,1,-1,-2,-3,2
4377204457,-1,-1,0,2,-3,0,-1,-2
4377212662,0,-3,-1,2,-1,-1,9,-3
4377212662,1,-3,-5,-4,-5,-3,-3,-2
4377226887,-2,-4,-2,1,-2,-1,-2,1
4377226887,-1,-1,3,-4,-2,6,3,2
4377235131,-4,1,-2,-8,-8,-4,-2,1
4377235131,-1,-2,-2,-1,-4,1,-1,3
4377257262,2,-1,-5,-2,-3,-2,1,2
4377257262,-4,-4,0,0,2,-4,-1,-3
4377265685,-4,3,-1,-2,1,-1,1,-1
4377265685,-1,-3,-3,-8,-4,-3,-3,0
4377267221,2,2,-1,-5,-3,-5,-2,-2
4377267221,-5,-2,-3,-10,-2,-3,-5,-1
4377272600,-2,-2,-3,-8,-7,-5,-1,-3
4377272600,0,-4,1,-2,1,1,-4,2
4377286845,1,-7,-1,-10,-6,2,-1,-3
4377286845,-2,-5,-4,-1,0,-3,-2,0
4377295145,-1,-6,-2,-1,0,-3,2,1
4377295145,-6,-1,-1,-7,-6,-1,1,1
4377310111,0,-1,-1,0,3,-2,2,-3
4377310111,5,3,-3,0,-3,0,0,-4
4377310725,0,0,-1,4,2,-1,-4,-1
4377310725,-3,-3,2,-7,0,-1,3,-3
4377333624,-1,-1,0,1,3,-2,1,4
4377333624,0,-1,1,0,0,-7,-3,-2
4377334345,0,-3,-2,11,4,3,-2,3
4377334345,1,2,0,3,-3,4,-1,-2
4377355775,-3,-3,1,-11,-5,-4,-3,0
4377355775,-4,-1,2,3,2,0,3,-3
4377356453,0,0,4,4,-6,0,2,-1
4377356453,-1,2,0,6,7,-1,2,2
4377370091,-2,-3,-1,12,2,3,1,2
4377370091,0,0,0,-6,2,-2,-4,-1
4377370850,-3,-2,3,-10,-1,-3,-2,-3
4377370850,0,1,-4,-1,0,-4,-3,-1
4377386502,-2,-3,0,-8,-2,-7,1,0
4377386502,0,2,2,1,-8,5,-4,1
4377392628,2,1,0,7,1,2,1,-2
4377392628,-1,2,1,1,0,3,-1,1
4377406751,-5,-2,-2,-1,1,-7,-10,-7
4377406751,0,-2,-2,-3,-3,-3,1,1
4377414963,-2,-1,0,-4,0,2,-5,-2
4377414963,-2,0,3,2,-2,3,-4,-5
4377429990,-4,4,2,0,-4,7,-1,-1
4377429990,-1,3,-2,5,4,1,0,0
4377430752,-3,-5,-4,-1,0,-5,0,0
4377430752,-3,1,-4,-5,2,-4,-1,-2
4377444238,-1,1,-4,-4,1,0,0,-2
4377444238,1,1,-3,-3,5,3,-3,1
4377452530,-1,0,0,1,-5,4,4,-1
4377452530,-1,-5,-5,-2,0,-3,4,-3
4377466833,-2,1,-2,-4,-2,-5,-1,3
4377466833,3,3,-6,-2,1,-3,-5,1
4377474967,3,0,-1,-4,7,3,-4,1
4377474967,0,-4,0,-2,1,4,2,-2
4377490081,-2,2,-2,0,-6,3,-4,0
4377490081,2,-3,-4,-1,-6,-7,-2,-4
4377490765,0,2,-5,-8,2,-3,-4,-1
4377490765,-3,0,0,-1,-5,-1,-2,2
4377513352,2,4,-4,-2,-2,-1,1,-1
4377513352,-6,-8,1,-6,-7,1,-4,3
4377513900,2,0,0,2,-1,-3,-3,-6
4377513900,-1,3,-4,-2,-7,1,0,2
4377526951,1,-2,-4,2,6,-3,1,-5
4377526951,-1,3,1,1,-3,-2,1,-2
4377535122,-2,-1,0,-1,-4,-3,2,2
4377535122,-1,-5,-4,0,2,-2,1,-2
4377550094,0,-2,0,1,-3,-2,0,-1
4377550094,-2,-8,-2,0,3,-2,1,-3
4377550792,-2,-1,1,-4,-2,2,-1,-1
4377550792,2,-1,3,2,-4,-6,-4,1
4377564438,-2,-4,-5,-5,-7,2,0,-1
4377564438,-1,-5,2,0,-1,1,0,0
4377572687,-5,-4,-3,-5,0,-3,-6,3
4377572687,-1,-1,-3,-3,-2,-3,2,0
4377586977,2,-1,2,5,0,-1,-3,-3
4377586977,-1,1,-4,4,1,0,-3,1
4377595107,1,4,-1,-1,-1,-1,-1,-1
4377595107,2,-1,-1,1,-1,-4,-4,-2
4377609920,-5,-6,1,-4,0,-3,-2,-5
4377609920,1,-2,0,-2,3,0,3,-2
4377610683,-3,-4,2,1,-3,-3,-2,1
4377610683,2,1,-3,-4,1,0,-3,-1
4377624307,1,3,3,0,-2,0,6,2
4377624307,4,2,3,1,-6,-2,-2,-2
4377632517,-7,-5,-3,-5,-1,-1,-2,-5
4377632517,-3,-1,-1,-3,-5,-6,6,1
4377646925,-4,-4,-5,-3,0,0,-6,3
4377646925,-1,1,-2,-10,-4,-3,1,1
4377662665,4,4,-1,0,-3,-2,4,-7
4377662665,5,1,2,-2,-2,-6,-1,-5
4377670098,0,2,1,-1,0,-3,-1,-2
4377670098,-3,-2,-6,-9,1,0,1,-3
4377670792,-2,4,1,1,-1,2,0,1
4377670792,-7,-1,-4,-4,2,-1,1,-2
4377684303,0,2,2,1,1,3,2,0
4377684303,-3,1,-3,6,-5,3,0,4
4377692481,2,0,-1,2,-2,0,-1,2
4377692481,1,1,-3,-2,1,1,-3,6
4377706741,-2,-2,-3,-4,-3,-6,-1,1
4377706741,-1,1,-1,1,0,0,-2,-3
4377714982,1,-3,-3,-1,0,0,5,-2
4377714982,-2,2,-1,3,-4,3,-1,-1
4377730046,0,-3,-1,-1,1,0,3,-5
4377730046,4,-1,7,1,4,1,3,-2
4377730812,-1,-5,-7,-6,1,0,1,-3
4377730812,-6,-3,0,-6,-6,-4,-5,-4
4377744422,-1,-2,0,-2,-5,2,6,1
4377744422,-4,-2,-3,2,-3,0,-2,2
4377752498,1,0,1,-1,-3,1,-2,1
4377752498,3,1,0,2,1,1,0,1
4377766790,-1,-2,-3,-1,-3,-2,-5,-2
4377766790,-2,3,1,3,-3,1,1,-3
4377775018,2,0,-2,-3,-6,-3,-4,0
4377775018,-4,-6,-5,0,1,-5,-2,0
4377789294,2,-3,-1,-5,-6,-6,-3,-1
4377789294,5,-3,2,1,-2,-3,-3,-2
4377798267,-1,3,2,-4,-3,-4,2,-4
4377798267,-1,-6,2,-2,-1,1,-2,-1
4377804287,-4,-1,1,-3,1,-1,-5,-5
4377804287,1,-7,-5,-9,1,-5,-1,-2
4377820823,-3,-5,0,0,-1,2,7,3
4377820823,1,0,1,-1,-4,0,2,-2
4377826842,0,2,3,-1,-6,-2,0,2
4377826842,-2,-3,-5,-6,-2,1,0,1
4377835786,2,-2,-1,2,0,2,-2,-1
4377835786,-1,0,-3,-4,-2,0,-2,-3
4377849343,-4,-2,2,-3,1,-3,-4,1
4377849343,-6,4,2,-4,-6,-4,1,1
4377858235,-4,-2,0,-2,-1,-2,-4,-1
4377858235,1,-4,0,-3,3,0,-1,-1
4377864423,0,-4,-2,1,3,2,-1,4
4377864423,-1,3,-2,0,0,-2,-2,-1
4377873327,-2,-3,3,-5,-1,-2,-4,-1
4377873327,-4,4,-4,0,0,-1,-1,-4
4377887025,2,1,2,-1,-3,0,2,-1
4377887025,-6,-2,3,-3,0,-1,-1,-3
4377895804,0,0,-7,1,-1,-3,0,-3
4377895804,-2,-6,-3,-5,-7,-1,-1,-1
4377909452,-1,3,2,0,0,1,3,2
4377909452,2,-3,-2,-2,1,-1,-3,-2
4377918229,-4,2,-4,-5,-4,-2,-4,1
4377918229,0,-3,1,-9,-7,-7,-4,2
4377924414,4,0,-1,0,-5,-4,-5,0
4377924414,-1,2,0,-3,-4,2,1,3
4377933274,-2,1,-1,4,4,-2,3,-2
4377933274,1,4,1,-1,5,5,4,-2
4377947042,-1,-4,-3,-7,-5,-3,-4,0
4377947042,-1,1,-5,-4,-5,1,-2,3
4377955969,0,-4,0,-3,-5,-4,1,-3
4377955969,-3,1,1,0,-4,3,0,2
4377969445,0,1,-2,-7,-7,2,0,0
4377969445,-4,-8,-3,-8,-5,-7,-4,-4
4377978279,1,-3,-1,-1,4,1,-2,2
4377978279,2,1,-5,2,-1,-3,-2,-6
4377984332,1,-1,-4,-3,3,1,-2,-2
4377984332,-1,-2,0,-3,0,-8,-3,-5
4377993254,-3,-1,-3,-9,-4,-1,-5,2
4377993254,-1,-3,-2,-1,1,-2,-4,2
4378006842,-8,-3,-4,6,3,-3,1,-3
4378006842,1,1,2,-1,-2,-3,-2,-3
4378015742,0,-5,-1,-1,0,-3,2,0
4378015742,3,4,4,2,-3,-1,0,-3
4378029446,3,-3,-4,-5,-1,0,-1,0
4378029446,-1,-1,-3,4,0,3,0,2
4378038342,3,3,1,-3,-6,-1,0,-3
4378038342,-2,-2,1,-3,0,-3,-1,-1
4378044408,3,-3,4,-4,-3,-2,0,-1
4378044408,0,2,0,1,-2,0,-1,1
4378053313,0,-1,-4,-7,-4,-4,-1,2
4378053313,0,-6,0,0,3,-1,1,-1
4378066804,-6,-2,-1,-4,-5,1,4,-5
4378066804,4,-4,2,-3,-1,-2,-5,2
4378075789,-1,0,2,2,-3,0,-1,-1
4378075789,5,2,-1,2,-2,-1,1,3
4378089430,0,-1,2,-4,-4,0,-6,-5
4378089430,0,-5,0,2,0,-1,2,0
4378104386,2,0,0,6,5,1,2,4
4378104386,-2,1,4,1,1,0,0,-3
4378113327,1,1,1,-2,1,0,-2,0
4378113327,-3,0,-1,-1,-8,-2,-1,-2
4378114740,-4,1,1,-1,-1,0,-3,0
4378114740,-1,2,-1,-2,-2,1,0,-2
4378127014,-2,-2,-2,4,4,-4,-1,-2
4378127014,-7,0,-3,-3,2,0,-1,-1
4378135823,1,0,2,-4,-5,-9,-4,1
4378135823,-3,-2,-2,-4,-4,-2,1,1
4378149321,1,2,0,2,-2,-2,-3,1
4378149321,-4,-2,-3,-4,-2,6,2,2
4378158360,-2,1,-3,-6,-4,-4,-2,-6
4378158360,1,2,1,-4,-1,-6,-4,0
4378173860,3,-1,0,-3,-4,-3,-1,-2
4378173860,0,2,2,0,4,-2,-2,-4
4378175435,-3,0,-2,-2,-3,1,-5,-2
4378175435,-3,-3,-2,-1,-2,-2,2,-3
4378186997,-2,-3,-7,0,0,0,0,2
4378186997,2,1,2,3,-3,-2,-2,2
4378195841,5,-4,-2,-4,-1,2,4,0
4378195841,1,-4,1,-3,-5,-5,-3,0
4378209351,-5,2,3,-1,-3,-4,-3,-3
4378209351,0,-2,1,-1,-2,0,2,1
4378218217,-4,-2,-2,0,3,3,-5,1
4378218217,-3,-4,-6,2,4,4,0,3
4378233164,-2,1,2,1,-3,1,-3,-1
4378233164,-2,2,0,-1,2,0,0,1
4378234684,2,1,8,5,1,3,-2,2
4378234684,-4,-2,-3,-4,-6,-2,1,-1
4378246946,3,0,-4,-2,-4,2,-3,-4
4378246946,-1,0,-3,3,2,1,-1,0
4378261855,0,4,1,2,1,-2,0,-2
4378261855,-4,3,-3,-1,-6,2,0,0
4378269500,-1,-3,-4,1,1,-1,3,-3
4378269500,3,5,0,-1,-3,1,-2,3
4378278297,-4,-5,-5,1,-1,-3,3,3
4378278297,0,0,5,0,0,-1,-1,-3
4378293990,1,-4,3,1,4,-3,1,2
4378293990,1,4,-1,-4,-5,-4,-3,-6
4378295366,-4,-5,-1,-2,-2,0,0,-7
4378295366,-2,-5,0,-3,4,0,-1,1
4378306924,-1,1,-4,-3,-4,2,-5,-1
4378306924,2,-5,-3,1,-2,-1,-2,-1
4378315807,1,-1,-3,3,0,1,0,-2
4378315807,1,-2,0,-2,0,-3,-4,6
4378329433,-2,0,-2,-6,-3,-1,-1,0
4378329433,0,-3,5,-8,-5,-4,-2,0
4378338364,3,-3,3,2,2,-4,1,-3
4378338364,-1,3,-1,-8,-3,-2,2,-5
4378353184,4,0,1,-2,-4,-3,2,1
4378353184,-3,1,-2,-7,-7,-1,0,-2
4378354758,0,2,-2,-7,-6,-2,1,2
4378354758,0,0,-2,3,1,1,-4,-5
4378367014,-1,1,2,-4,-3,2,-3,0
4378367014,-2,2,0,3,7,-2,-1,2
4378375829,-4,-4,1,-2,-1,5,0,-2
4378375829,1,0,-2,5,5,-4,-2,-4
4378389474,1,-1,-2,-4,-1,-3,-4,-2
4378389474,-1,-7,2,6,1,2,-1,1
4378398281,-2,4,-4,2,-2,-1,0,6
4378398281,2,0,1,1,-3,2,2,2
4378413298,-3,-3,2,3,1,-4,-4,4
4378413298,-2,1,-1,3,2,-1,1,-1
4378414692,-2,-3,-1,-5,0,0,-8,1
4378414692,-1,-1,-3,-3,-7,-1,-4,3
4378426877,-1,-2,-3,0,-1,-1,4,1
4378426877,1,-4,0,-2,-4,0,-4,-4
4378435869,1,-1,-1,2,1,-5,-3,-3
4378435869,1,1,3,3,5,-4,-1,-4
4378449454,-3,4,2,5,3,-3,4,3
4378449454,-3,-3,0,-2,0,-3,-1,-5
4378458353,0,0,-2,-6,-4,0,-1,-3
4378458353,1,0,-3,-3,1,1,1,1
4378473350,1,-2,2,2,-2,-2,-5,-1
4378473350,-2,2,-4,-8,0,-3,2,-2
4378474786,0,-3,2,2,1,0,1,0
4378474786,-3,3,6,0,2,3,2,1
4378486775,-1,1,0,2,2,2,4,-1
4378486775,-3,2,-5,-1,-6,2,-1,1
4378495786,1,5,-2,-2,-3,-2,-1,1
4378495786,-2,-1,0,-1,-3,0,3,-1
4378509465,3,-3,-3,-2,-4,0,0,-2
4378509465,0,-3,2,-2,0,-1,0,-1
4378524359,0,1,-3,3,1,1,-1,-1
4378524359,-3,3,1,-2,-5,0,-5,-3
4378540763,-1,1,1,2,2,4,4,-2
4378540763,5,-5,2,-2,-5,0,2,-2
4378542250,-2,-1,-1,4,0,-1,-4,-1
4378542250,-5,-3,-2,1,5,1,-3,-1
4378547022,-3,1,0,0,0,-3,0,0
4378547022,-1,0,1,1,1,1,0,0
4378555772,0,1,2,-2,-2,0,4,-1
4378555772,-1,-3,-1,2,0,1,-3,4
4378578327,0,2,1,-3,-2,-3,-9,0
4378578327,0,2,-3,-2,-3,-1,-4,3
4378579790,-1,-2,2,-4,2,-2,-3,-5
4378579790,1,-3,-3,-1,-6,-1,-3,-5
4378593302,-3,-2,0,-3,-2,-4,-2,-4
4378593302,-2,0,-4,1,1,-6,-1,-3
4378594793,0,2,-2,-1,-6,-4,-2,0
4378594793,-3,-1,-7,-10,-4,-2,-5,-10
4378606897,0,2,-3,-4,-3,-2,-2,2
4378606897,2,6,3,-2,-1,0,0,-4
4378615780,3,-6,-2,-3,-5,-3,-1,-1
4378615780,-2,2,-3,-2,-3,-2,-3,-1
4378638349,2,1,-4,-5,-5,0,-2,-2
4378638349,-4,-1,0,-2,0,1,2,3
4378639774,-4,0,-2,4,4,3,2,0
4378639774,-1,-2,-3,4,3,-2,5,4
4378660732,-1,2,2,3,0,-1,3,-1
4378660732,0,-2,-2,-5,1,-3,-5,-3
4378662303,2,-1,-2,0,0,-3,-3,0
4378662303,2,-1,-1,0,-1,-4,-1,-2
4378666909,-2,0,-4,-3,-1,0,-5,-4
4378666909,-5,0,-9,-2,-2,2,-2,1
4378675841,-3,0,1,-3,-6,-4,-1,-1
4378675841,0,-2,0,-5,-6,-5,-1,0
4378689472,-4,-7,-3,-6,0,-3,0,-1
4378689472,-1,3,0,0,-3,-1,-5,-3
4378698333,-3,0,4,0,1,3,-2,-1
4378698333,2,1,-3,-2,-4,4,3,2
4378720842,-2,-2,3,0,-4,0,-2,1
4378720842,1,-4,3,2,-2,-4,-2,4
4378722203,-2,0,-4,-7,-3,-4,-4,-2
4378722203,-1,-3,1,0,1,-2,-1,-2
4378726896,0,1,-1,0,1,0,1,2
4378726896,2,-6,-5,-9,-4,-5,0,0
4378735767,-2,2,0,-2,-1,-1,3,1
4378735767,-1,-5,0,-2,-3,-2,-2,-2
4378749437,0,-2,-5,-4,2,-2,-2,-6
4378749437,0,-2,7,2,-2,0,-3,1
4378758265,1,-4,-4,-2,-3,0,1,-6
4378758265,-1,4,1,0,-1,-2,0,-2
4378773341,2,-3,-2,-2,-5,0,1,2
4378773341,-2,-1,0,0,-1,-2,4,-3
4378774792,-3,0,-4,-3,-1,1,-4,1
4378774792,2,-3,1,1,0,3,1,3
4378786961,0,-6,-1,-2,2,0,0,-4
4378786961,0,4,2,0,0,1,-3,-4
4378795839,1,0,2,-4,-7,-2,-7,-1
4378795839,-3,2,-4,0,3,-1,4,-2
4378809308,-3,0,0,1,-1,3,2,2
4378809308,-6,-4,-1,-1,4,-1,1,-1
4378818341,-3,-2,1,1,3,0,0,0
4378818341,-5,0,2,-1,-4,-1,-1,1
4378833268,0,3,-3,0,0,-4,-3,-3
4378833268,1,-2,2,-1,-2,-2,0,1
4378834808,0,-4,-3,-1,2,1,-1,2
4378834808,1,-2,-1,1,-4,-2,-4,1
4378846854,1,-1,-2,-3,-3,-3,2,2
4378846854,0,-2,-4,1,-2,-1,-6,-2
4378855838,-2,-2,2,-1,-2,0,-1,-2
4378855838,-1,-4,4,2,-1,3,1,0
4378869502,-6,-3,-4,-4,1,0,-3,-3
4378869502,1,2,0,3,2,3,4,1
4378885882,-4,-3,-4,-3,-2,3,1,-1
4378885882,-2,-5,0,3,6,-1,2,-1
4378893349,0,0,-1,-1,-1,-3,-7,-5
4378893349,0,-1,2,-3,-5,-3,1,-3
4378894767,-3,6,3,4,6,0,0,0
4378894767,4,3,1,-1,-2,-2,1,-2
4378906841,3,-1,5,7,5,8,5,-1
4378906841,-4,0,2,-5,2,0,-2,-1
4378915826,1,-1,0,1,-1,-1,5,2
4378915826,3,1,4,1,-5,1,-2,0
4378929508,3,2,-1,1,-3,1,3,3
4378929508,-2,0,-4,-4,-1,2,-4,-5
4378938350,3,-7,-1,-2,-4,2,-4,-1
4378938350,1,5,-1,4,1,5,-3,1
4378952603,-1,-1,4,-1,-5,-1,-3,-3
4378952603,-3,2,2,-1,4,1,0,1
4378959425,0,1,-1,7,3,-1,2,-2
4378959425,-1,-1,-5,-3,-3,-3,0,-1
4378966829,-4,-3,-2,0,-1,3,-3,-2
4378966829,-1,-3,3,4,-2,2,4,2
4378975911,-2,3,-1,-1,-2,-3,1,-3
4378975911,2,-2,-2,0,0,-2,0,-3
4378989425,-2,-1,1,3,0,-2,-4,-3
4378989425,-2,-9,-6,-4,-1,-2,0,-1
4378998289,-2,4,-2,0,-3,-1,-2,0
4378998289,-2,2,4,2,4,-1,-5,2
4379012512,-4,-3,-5,-8,-9,1,4,2
4379012512,-2,-5,-6,-1,-2,4,-2,-3
4379019232,0,0,-1,-2,1,-1,-6,-4
4379019232,0,2,-6,-1,5,-1,0,-3
4379026768,-2,2,-6,4,-1,-1,2,5
4379026768,3,-3,-1,6,1,1,2,1
4379035760,2,3,1,1,2,-2,1,3
4379035760,0,4,-2,-2,-5,1,0,0
4379049547,1,3,2,-1,0,-2,-2,1
4379049547,1,3,-5,2,-3,2,-3,-1
4379065835,2,-1,-5,-4,-6,-6,2,2
4379065835,-2,-4,0,-2,-7,3,-4,4
4379088165,1,-2,-3,-1,3,-5,-1,-2
4379088165,-1,-4,-2,-2,-7,-2,-2,5
4379089768,-5,-3,-1,-8,-6,-1,0,-7
4379089768,0,-5,3,-4,-6,-4,-2,-5
4379103263,0,0,4,-2,-1,-2,-2,-1
4379103263,1,0,-2,-3,-3,-1,2,2
4379104809,-1,-3,-3,-3,-3,1,1,3
4379104809,-6,-5,-3,3,7,3,0,-2
4379118179,-3,-2,-5,-9,-8,-1,-3,-1
4379118179,-1,0,-2,-6,-3,-8,-1,-7
4379119824,-4,-3,-2,1,-5,0,-2,2
4379119824,-1,-3,-1,-11,-8,-7,-7,-3
4379141123,2,-1,1,-6,-2,-5,-5,-3
4379141123,-4,-1,1,1,1,0,0,0
4379142738,3,0,-3,0,-3,0,1,-5
4379142738,-4,-4,1,-1,-3,-2,-1,1
4379155808,-4,2,-4,-1,2,-1,2,-2
4379155808,-1,3,4,-3,-7,-4,1,1
4379157342,-2,-3,3,-3,-4,-2,-2,0
4379157342,0,-4,-2,-2,0,2,3,2
4379169389,4,2,1,3,-4,-3,-1,-2
4379169389,-1,0,-2,3,2,6,-1,1
4379178379,0,1,-1,0,-3,-3,-4,3
4379178379,-4,-3,-5,-8,-1,-5,4,-4
4379192627,-2,-1,0,1,-4,-2,0,3
4379192627,-4,-4,-3,-8,-2,-4,1,-5
4379199480,0,0,3,-5,-7,-7,-2,-3
4379199480,2,1,-4,-2,-7,-3,0,-2
4379215792,-3,-1,0,0,-1,6,-2,-4
4379215792,-1,-1,0,-1,-2,-5,-5,0
4379217269,0,0,1,3,1,0,-1,3
4379217269,0,0,3,0,-5,2,-4,2
4379229445,4,1,4,-1,-2,0,3,2
4379229445,0,-3,2,1,0,-1,-2,0
4379238350,-4,0,-1,-3,-3,-4,-2,-6
4379238350,-2,2,-3,4,5,0,0,3
4379252536,-2,-4,-2,3,0,-2,1,-1
4379252536,5,-4,-3,-6,0,-5,-5,3
4379259282,-1,-4,-2,-1,6,6,2,3
4379259282,0,1,-1,-6,-2,-1,0,1
4379275639,1,0,2,0,-2,-3,-2,-6
4379275639,4,1,-3,3,-1,1,-3,-1
4379277287,0,2,-1,7,6,0,-2,1
4379277287,-3,5,-2,3,-3,0,3,-3
4379289341,-1,-1,-6,-5,-1,1,1,4
4379289341,-2,-4,-2,-4,-5,-3,0,-4
4379298283,3,-1,-2,2,1,2,-4,-1
4379298283,-1,0,4,-1,0,4,-2,0
4379312490,-1,-2,-1,-2,-4,-1,-1,0
4379312490,-2,0,-2,-5,-5,0,2,-1
4379319281,-2,-3,-5,-1,-1,1,5,0
4379319281,-4,0,1,-4,0,-2,2,1
4379335644,-2,0,-3,-2,-2,-1,-1,-1
4379335644,-3,2,-2,1,3,0,1,-2
4379337219,-2,-6,1,2,0,-3,2,-1
4379337219,1,-2,-2,5,2,3,1,-1
4379349303,-6,-3,1,1,-1,0,-2,-1
4379349303,-3,-1,-2,-3,-6,-3,-3,1
4379358331,0,0,-2,0,-4,0,0,-2
4379358331,-1,2,2,-1,7,-3,-2,5
4379372554,2,0,4,2,-1,2,5,2
4379372554,1,-3,-1,6,6,0,2,-2
4379379291,1,0,2,-5,-1,-2,0,-2
4379379291,-4,-6,-2,-5,0,-2,-1,-2
4379395685,0,-3,0,1,2,5,1,-2
4379395685,1,6,5,1,-3,0,0,4
4379397303,1,1,-1,-4,-3,-2,-4,2
4379397303,-2,2,-2,0,-6,2,-1,-5
4379409327,3,-4,-1,-8,-7,-10,-4,-4
4379409327,1,2,-2,-1,-2,0,-1,-5
4379418267,-2,-6,3,-3,-2,2,-1,-2
4379418267,-5,-6,-4,-1,-2,-6,0,0
4379432475,-6,-1,-3,-4,0,0,-3,1
4379432475,-2,0,-1,-4,-2,1,1,0
4379439242,-3,-2,-6,-10,-6,0,-2,-2
4379439242,-1,2,-4,0,-2,-1,-5,0
4379455676,-2,0,-3,-4,-1,1,0,-4
4379455676,-4,-3,-1,-1,1,-2,1,-2
4379457229,-5,0,-1,-2,1,-4,1,-3
4379457229,1,1,1,-3,-6,-2,0,0
4379469308,-2,-1,-3,-2,-1,3,-4,0
4379469308,-2,-4,-2,-4,0,-3,-6,-6
4379478291,-2,-2,-3,-5,-5,1,-5,-3
4379478291,-3,-3,0,-9,-2,0,-4,-5
4379492534,-2,-3,-3,-1,-4,1,-2,-5
4379492534,-2,-5,2,0,-3,-6,-6,-3
4379499317,-6,-1,-5,-4,2,-3,4,-2
4379499317,-2,1,0,-3,-2,-3,-3,-3
4379514781,-3,-2,1,-3,-2,-3,1,2
4379514781,-1,-1,-7,-2,-3,2,1,-3
4379523269,1,-1,3,1,-4,-4,-6,0
4379523269,-3,1,-5,-4,-3,-1,-5,-2
4379529289,-2,2,0,1,4,2,4,0
4379529289,-2,3,2,3,5,3,4,0
4379538333,1,-3,-3,0,1,0,0,0
4379538333,0,-4,-6,-1,2,-3,-4,-2
4379552521,1,-1,0,-1,0,-4,-4,7
4379552521,0,-4,-6,-8,-5,-4,-6,1
4379559304,4,-1,2,3,1,-2,-4,0
4379559304,0,0,6,1,1,-1,-2,2
4379575689,-1,-4,-4,-2,-2,-1,-2,0
4379575689,-3,-1,1,-2,1,7,-2,1
4379577252,3,0,2,0,-1,-2,2,-3
4379577252,4,-3,-4,0,0,0,1,0
4379589375,2,2,3,4,-4,-1,-4,-2
4379589375,1,3,-1,1,-2,-4,-1,1
4379605812,-5,2,1,1,-1,4,0,2
4379605812,-2,3,-4,-2,-1,1,-3,-1
4379612498,1,0,-1,3,-2,-7,1,-3
4379612498,1,0,-2,-5,-5,-1,-6,-5
4379619362,0,5,0,2,-1,2,-1,5
4379619362,-1,-1,2,2,-3,-6,-1,-3
4379636139,-4,-4,-3,-1,-2,-5,-3,3
4379636139,0,-4,-4,-1,1,0,-1,-5
4379637703,3,-2,-4,1,3,2,2,-2
4379637703,2,-4,1,6,1,5,4,2
4379649304,-4,-1,1,-2,2,-1,2,-1
4379649304,1,1,3,-3,-4,-2,2,2
4379658309,-3,-7,1,-2,2,4,-6,2
4379658309,0,2,0,-1,0,3,0,1
4379672522,-2,0,-2,3,3,0,-3,-3
4379672522,-2,-1,0,-3,-7,-2,-1,-3
4379679322,-2,-2,2,-1,2,2,-4,-4
4379679322,0,1,0,-1,-4,-6,-2,-2
4379695678,-1,-5,-3,-10,4,2,-3,0
4379695678,-3,-1,0,2,3,3,1,5
4379697247,2,0,-6,-4,0,0,-5,-3
4379697247,-6,-5,-1,-2,-3,3,1,-4
4379709316,-1,-2,2,0,0,3,5,2
4379709316,3,-1,-4,-3,-3,0,1,1
4379733149,-3,-2,-2,-3,-6,2,-1,-3
4379733149,2,-4,-1,-2,-2,-1,-2,3
4379733908,-1,4,-3,0,-4,-2,1,-5
4379733908,-2,-4,2,5,-2,1,-1,-2
4379739271,-2,-1,-2,0,-1,-3,1,0
4379739271,-3,-5,1,-9,-3,-2,-5,-4
4379755663,3,0,-2,-2,-4,1,-3,-3
4379755663,0,0,-1,0,1,3,-3,5
4379757254,-2,2,-5,-2,-3,-4,0,-1
4379757254,1,-4,-5,1,2,-1,0,0
4379769328,-3,-3,-5,-3,-1,-2,-1,1
4379769328,3,-1,2,1,1,-1,3,-2
4379778327,-1,1,0,0,6,5,3,-3
4379778327,-3,-2,-3,-5,-2,-1,2,-2
4379792540,0,-2,0,-2,-8,-6,-1,-5
4379792540,-5,-1,-4,0,-1,-1,5,-1
4379799315,1,0,2,-2,-3,-2,2,-2
4379799315,3,-4,-1,-1,0,0,-2,0
4379815680,2,-6,-5,-1,-3,1,0,0
4379815680,-4,-3,2,0,-2,0,0,-3
4379817262,-1,0,-1,0,-1,-4,-4,3
4379817262,-1,1,2,1,-2,0,1,2
4379829309,0,-2,-1,0,1,-1,0,0
4379829309,-1,-2,3,-3,-3,1,-2,-2
4379838266,-8,-8,-1,3,4,-3,-7,2
4379838266,-1,-4,3,-1,1,-1,-3,-3
4379852482,1,2,3,-1,-2,3,-3,-1
4379852482,2,5,-4,3,2,-3,3,0
4379859260,1,3,-1,-5,-7,2,2,0
4379859260,0,-1,-6,0,-3,-1,-3,-3
4379875656,1,-4,-7,-8,-4,-4,-7,3
4379875656,2,-5,-3,-4,-3,-6,-6,1
4379877230,-1,1,-3,0,-1,1,3,-2
4379877230,1,4,-5,5,-2,0,3,-1
4379889343,-5,-2,2,0,5,-2,-3,-3
4379889343,-2,-5,-3,0,-6,-1,-2,0
4379898319,0,-5,-3,-2,0,-8,-7,-4
4379898319,2,2,-1,2,-1,-2,-3,-2
4379912966,4,-1,-3,-4,-1,-2,-1,2
4379912966,-2,4,0,-1,1,0,-3,-3
4379919319,3,0,4,0,-4,0,3,0
4379919319,-5,3,1,-1,-5,5,3,0
4379935037,-1,-2,-1,-1,-4,1,-1,-3
4379935037,0,-1,0,-3,-2,1,-6,1
4379941764,-2,1,0,-3,-5,0,-2,0
4379941764,-2,-1,2,-4,0,1,-4,0
4379949334,0,5,3,0,-3,-1,-3,-3
4379949334,-3,1,6,-5,-2,-2,-6,-2
4379958304,-2,-4,-1,0,1,-6,-3,-4
4379958304,2,-3,-2,-5,0,-4,1,-2
4379972522,-5,2,-5,1,-7,1,1,-1
4379972522,2,4,-2,2,-4,-2,1,-4
4379979325,1,0,1,0,-1,-2,-2,2
4379979325,0,2,-3,-5,-5,-3,-7,-1
4379995040,-1,-2,0,-2,-1,-1,3,-2
4379995040,-1,-3,-5,-3,-2,-2,-2,2
4380001788,-2,1,-3,-3,-3,1,-3,-2
4380001788,-6,-1,-3,-5,0,-3,-1,-5
4380018156,0,-4,0,-4,1,-4,1,-3
4380018156,-3,-1,-3,-1,5,-2,-1,0
4380019743,0,2,-2,0,0,0,-3,5
4380019743,-3,-3,-3,-6,-6,0,-1,3
4380032506,-1,1,2,2,2,1,-4,1
4380032506,-1,0,-2,-2,0,-1,-3,-1
4380039253,5,1,-2,-1,-5,-2,0,-3
4380039253,0,-4,-3,7,-1,-2,4,0
4380054982,-1,-3,-4,0,0,-1,1,1
4380054982,0,3,1,3,-1,-2,1,-3
4380061830,1,1,-2,0,-1,1,0,2
4380061830,1,2,5,6,6,-4,0,-1
4380078198,-2,-2,5,2,-1,-1,-1,-8
4380078198,-2,-6,-5,-5,-6,1,2,-1
4380079805,-2,-4,-1,-3,-2,-2,-1,-2
4380079805,0,0,1,-3,-5,0,-1,-3
4380092506,-2,2,-1,-5,0,-3,0,2
4380092506,-2,-5,1,0,2,2,1,-3
4380099329,-5,2,-4,-4,1,-1,2,-2
4380099329,3,-3,-4,-2,1,0,-3,3
4380115016,-2,0,-1,0,-3,-1,-4,-1
4380115016,-1,-4,1,-5,-7,0,0,-3
4380121808,0,-6,0,-3,-3,1,0,-4
4380121808,-3,2,-3,-5,-1,0,-8,-2
4380138176,1,-5,-8,-3,-2,0,2,-1
4380138176,1,-4,0,-3,-1,-3,0,5
4380139786,-1,-1,-3,0,2,1,1,2
4380139786,0,-3,1,-11,-7,-6,-4,-5
4380152500,-1,4,-6,-6,-6,-3,-3,-3
4380152500,0,3,-4,1,-3,2,0,1
4380159282,-2,-3,5,2,-4,1,-4,-2
4380159282,-1,-5,-4,-3,3,6,-2,3
4380174999,2,-6,-4,-2,-1,-2,-1,0
4380174999,2,-1,-4,0,3,-3,0,-3
4380181850,-4,5,-4,1,-6,-5,-4,-3
4380181850,-3,-6,-1,3,-2,-4,-1,-4
4380198162,-1,2,-1,2,0,0,1,3
4380198162,-6,0,-1,-4,1,1,-4,-5
4380199724,0,-3,2,-3,-1,-4,1,0
4380199724,-5,-2,-1,2,2,3,4,4
4380220687,-3,-3,0,-2,-1,1,-4,0
4380220687,-3,-2,-1,-1,-4,-2,-4,0
4380222303,0,-3,0,-1,-2,-4,3,1
4380222303,1,-2,-2,-6,-7,-1,-5,-4
4380235005,-1,-4,1,-3,3,3,0,3
4380235005,-1,-3,-1,3,3,-1,0,1
4380241782,-1,-7,-2,0,2,0,-1,-2
4380241782,-2,-2,2,3,1,-1,-2,3
4380258163,-1,-3,-3,1,2,-1,-1,-3
4380258163,2,2,2,0,4,-3,-6,-4
4380259772,-2,-1,-1,-2,-8,1,1,2
4380259772,-2,-2,-1,-5,-2,-4,-2,-2
4380272527,-4,-1,-2,-2,-4,-2,0,-1
4380272527,-3,-6,-5,-5,-3,0,-4,0
4380279357,-2,5,0,-3,0,-4,-3,-3
4380279357,-2,2,-5,-3,-4,-6,-1,-2
4380295064,1,1,4,0,-2,0,-2,1
4380295064,1,-1,-4,-3,-5,0,-3,0
4380301822,-7,-1,-5,-3,-3,-3,-4,-1
4380301822,4,2,-2,-3,-3,1,6,1
4380325683,-1,-2,1,2,1,-1,-3,0
4380325683,7,0,4,2,0,-3,3,-4
4380327236,0,-6,-5,-3,0,3,-2,-1
4380327236,-1,0,-2,-3,2,-4,-1,-4
4380331798,1,0,-3,-2,-7,-6,-2,2
4380331798,-4,1,-4,-5,-3,-3,-3,2
4380340793,2,-1,0,0,2,0,0,-2
4380340793,1,-3,-6,1,-1,4,2,-3
4380354993,1,2,-1,-1,1,-1,0,2
4380354993,-7,-3,-4,-1,-3,2,-1,1
4380361809,3,5,1,1,3,4,-1,3
4380361809,-1,0,3,-1,-2,-2,3,-3
4380377283,1,-4,-2,-2,-1,1,5,3
4380377283,-4,3,4,5,2,1,0,2
4380385792,0,2,0,-2,-4,0,-3,-3
4380385792,-2,-1,0,3,2,-1,-2,0
4380392548,1,1,1,5,3,3,2,-1
4380392548,0,1,4,-2,-4,-2,3,-1
4380399292,2,2,1,3,3,-3,0,-1
4380399292,-1,-6,2,-2,0,0,-3,-1
4380415008,1,2,3,-3,-5,-4,-4,-7
4380415008,3,-1,-1,-1,-1,2,2,-2
4380421805,-2,0,-4,-2,-1,-1,-3,1
4380421805,3,3,-4,-4,-4,-2,-5,1
4380438138,-4,0,0,-1,-6,-3,-2,0
4380438138,-3,1,-1,-2,-1,-4,2,-2
4380439740,1,-1,1,-3,-4,-3,-5,3
4380439740,-2,-6,0,2,6,-2,-1,0
4380451807,2,0,0,2,1,3,-1,-2
4380451807,2,3,-1,1,-2,-2,-4,-1
4380460799,0,-2,0,0,1,1,3,-6
4380460799,-4,2,1,-5,-6,0,-1,2
4380483196,-1,-4,1,1,0,-1,0,-4
4380483196,-2,-4,1,1,4,1,3,0
4380484770,1,-4,-4,-3,-2,0,0,-1
4380484770,1,3,3,5,-3,0,-1,3
4380498177,-3,1,-2,-2,-2,2,0,1
4380498177,0,0,-3,-5,-4,-6,-2,-1
4380499740,1,-2,3,3,2,-3,-1,-1
4380499740,-2,-3,0,-1,1,0,-1,-1
4380511868,-2,-2,-3,-6,0,-4,0,1
4380511868,-1,-2,-3,1,-5,0,1,0
4380520770,1,2,4,1,-3,-2,-2,-3
4380520770,0,-2,-3,-3,-4,-1,-2,-5
4380535027,0,-5,-4,-4,2,0,-2,-1
4380535027,0,3,4,-3,-4,-4,-2,0
4380541833,-3,-4,-7,-5,-5,-3,-3,-2
4380541833,0,-2,-3,2,0,-1,0,0
4380558217,-5,1,-2,-5,-1,0,-3,2
4380558217,1,2,-2,3,4,-2,-2,0
4380559790,2,-1,0,1,0,-3,-1,-2
4380559790,-2,-5,1,1,-2,2,-1,-2
4380571829,-3,-4,1,-6,-2,-1,-2,3
4380571829,0,-1,-1,0,-1,0,-5,-2
4380580845,0,-2,-1,1,3,2,0,2
4380580845,2,-1,-3,-4,-1,1,2,0
4380595034,-3,-2,-4,-6,-2,-4,-1,-9
4380595034,0,-8,-2,1,4,3,-1,-3
4380609350,0,0,-2,-6,-6,1,0,2
4380609350,0,0,-4,-3,-1,-2,2,1
4380618149,-3,0,1,-3,-2,-5,-5,-1
4380618149,-8,-5,-1,-8,-4,-2,-3,-1
4380619763,-3,-2,-5,-2,0,-5,-1,-8
4380619763,-2,-1,-5,0,1,1,0,1
4380631862,0,0,2,0,-6,-3,-3,-1
4380631862,0,-5,-4,-3,-2,0,1,-1
4380640764,-1,3,1,1,-1,-5,-6,2
4380640764,-4,-2,-1,-1,2,-2,0,-4
4380663373,0,-1,0,-8,-2,1,-1,-2
4380663373,2,3,-4,5,-2,-7,-4,-1
4380664831,-3,-3,3,-3,-1,-3,-6,-1
4380664831,0,1,3,-1,-1,-3,-5,-1
4380678211,3,5,0,1,-2,0,3,3
4380678211,2,-1,1,-2,-2,-4,0,2
4380679817,-4,1,0,-1,-2,4,2,0
4380679817,5,-1,-3,-9,-6,-7,-4,0
4380692031,-7,-3,3,1,6,-1,-1,0
4380692031,-2,0,2,-3,2,2,0,3
4380700860,-1,-2,-2,-4,-2,-3,-1,-1
4380700860,-1,1,1,1,-1,-3,2,0
4380715080,-2,0,-1,5,0,3,1,3
4380715080,0,4,4,-3,-8,1,-3,-4
4380722107,-2,-1,1,0,1,0,-5,0
4380722107,-1,2,2,2,-1,1,1,-2
4380745659,2,1,-3,3,-3,-2,-3,-4
4380745659,-4,2,-1,-3,-4,-2,1,1
4380752566,1,-1,-4,-1,-2,0,-1,-3
4380752566,-1,-3,3,-6,-3,4,-8,-2
4380753292,2,3,-2,-3,-5,-2,-3,-4
4380753292,-1,0,2,2,1,-2,0,1
4380760954,-9,-4,-3,-7,-7,-2,2,5
4380760954,-1,2,-1,3,2,-3,1,1
4380775096,2,-1,0,4,1,-3,0,-6
4380775096,-2,-4,-3,1,2,-1,2,3
4380789492,-2,-4,0,2,-3,-1,1,0
4380789492,0,-3,-2,-5,-2,-1,1,1
4380798398,3,-2,-1,-2,-1,-4,-3,1
4380798398,1,-3,0,-7,-4,-3,-6,-6
4380799790,-3,-1,-1,-4,-7,-5,0,-2
4380799790,-3,-2,0,5,2,-2,-3,1
4380811924,-1,0,-2,4,-4,0,4,-1
4380811924,5,-1,-4,4,5,4,5,0
4380820883,-1,-1,1,1,3,-1,3,-2
4380820883,-2,2,-4,-3,0,-3,1,-4
4380834821,-2,-3,-3,-1,-1,0,3,0
4380834821,1,-3,1,-2,2,3,-2,-2
4380843362,-2,2,-3,1,9,1,0,-4
4380843362,4,2,-3,3,2,-3,1,0
4380857584,-1,1,2,3,0,-2,-6,-1
4380857584,5,-6,2,-5,-4,-5,-3,-2
4380864518,-2,3,-4,-4,1,0,-2,-2
4380864518,-3,-1,0,-2,-3,3,1,-3
4380871883,2,-3,-1,3,1,4,-2,-2
4380871883,-2,1,2,5,3,3,4,0
4380880872,4,0,1,0,-4,0,-4,2
4380880872,0,-2,-1,-3,-1,-3,-4,3
4380894849,0,1,2,0,2,5,-1,0
4380894849,-3,4,-2,-1,-1,1,-3,-3
4380910890,2,-1,-3,1,-2,0,0,3
4380910890,-1,0,-1,2,-4,0,-1,4
4380917580,-3,-9,-1,-7,-5,-5,1,1
4380917580,-5,2,-2,-3,-4,-1,2,0
4380924451,-3,-5,-3,0,-4,-3,-2,-3
4380924451,-4,0,1,-6,-4,1,-2,-8
4380932020,0,5,1,-4,-1,-5,0,1
4380932020,-1,-1,-1,-1,-4,-2,-4,-5
4380940843,0,1,-4,-5,0,-2,-1,-5
4380940843,1,-1,-2,3,0,1,-3,-1
4380955252,0,-3,1,-1,-2,-4,1,-1
4380955252,-3,2,-3,-1,-2,1,-3,0
4380961876,1,-6,0,-1,-2,2,-3,-1
4380961876,0,-4,-4,-8,-2,-3,-3,0
4380977774,-1,1,-6,-5,3,-2,-4,-1
4380977774,0,1,0,-1,-5,-5,-3,-1
4380984405,1,-7,-2,-3,-6,-2,-3,2
4380984405,-2,-1,0,-2,-2,-4,-1,-5
4381000738,-1,2,-4,-4,-2,1,1,-2
4381000738,1,0,-1,-1,4,1,0,-1
4381002291,1,2,2,1,0,-2,1,-1
4381002291,1,-2,0,3,-2,0,1,-1
4381015191,2,-5,2,-6,-5,-2,-1,-3
4381015191,-4,-8,-6,-6,-3,-6,-1,0
4381021867,0,-3,-3,-3,-3,-1,-1,-4
4381021867,1,-4,-6,-3,1,-3,-1,3
4381037691,-1,4,1,-3,0,0,-3,-6
4381037691,-1,-5,-2,-2,-1,-6,-5,1
4381044484,0,-3,3,-1,-3,1,-6,1
4381044484,-1,1,0,-4,-6,0,-1,-2
4381060826,1,-4,-6,-9,-3,-3,-7,2
4381060826,-3,0,-2,-3,0,2,5,0
4381062373,-1,-1,-1,-2,0,2,2,0
4381062373,0,-5,-1,-2,-4,-5,-6,0
4381075042,-6,-4,0,-1,-2,3,0,5
4381075042,-4,-2,-2,1,3,-1,-2,-1
4381082032,-4,-2,-5,-4,0,2,0,-5
4381082032,-2,-1,-2,-2,-2,3,1,-5
4381097729,-6,-1,1,0,-1,-5,-4,1
4381097729,2,-2,-4,-5,-4,-5,-2,-3
4381104442,-4,1,0,-7,-2,-4,-1,-4
4381104442,-2,-3,-6,0,0,1,-1,-3
4381120875,4,-1,-1,-4,-3,-1,-2,-6
4381120875,-4,1,-2,-3,0,-1,1,-3
4381122333,2,0,1,1,-2,0,-1,0
4381122333,0,-1,1,-2,-1,-2,-1,-2
4381135095,-5,-2,-2,1,4,0,-3,-5
4381135095,4,0,3,-1,-2,-2,-4,2
4381141985,0,-1,2,2,3,-4,0,1
4381141985,-2,2,-1,0,-1,-2,4,-1
4381157701,1,0,-1,-1,-4,-1,-2,-1
4381157701,3,-2,0,6,7,-2,1,-4
4381164573,-3,2,-2,-6,-2,0,-2,-2
4381164573,0,-1,2,-2,-2,-3,-1,-1
4381180778,1,-2,-2,0,-1,-1,4,-3
4381180778,-3,-5,-2,-4,-6,-1,-2,0
4381182322,2,-5,2,3,-2,-3,-3,2
4381182322,-3,-1,0,-3,-2,-1,-6,3
4381195071,2,-1,-3,0,-1,-1,-2,0
4381195071,-1,0,0,-3,-1,-6,-1,0
4381201905,0,0,-6,-3,-3,3,1,-4
4381201905,-2,1,0,2,-2,-1,2,-2
4381217594,3,1,2,4,3,-1,6,2
4381217594,-1,1,-2,1,4,4,3,1
4381224533,-1,0,-2,2,5,-4,-3,2
4381224533,-3,-1,0,-3,-1,-6,-3,-3
4381240880,-1,-1,0,-3,-4,1,-3,-2
4381240880,3,0,-1,-3,-6,-1,-4,-6
4381242319,-4,1,-1,-4,-1,-4,2,0
4381242319,1,1,1,-2,3,-4,-6,0
4381262664,-4,-2,-5,-5,-6,-4,-2,0
4381262664,-5,-6,0,-1,-5,1,-2,0
4381263371,-2,0,1,1,-2,2,0,-8
4381263371,4,5,-1,-5,-9,1,-1,-2
4381278429,-2,3,3,-2,3,0,-1,-2
4381278429,4,2,-2,1,0,-2,6,4
4381284533,-1,-5,-4,-2,-2,-3,-7,-2
4381284533,-2,-2,-2,-2,2,1,-4,0
4381300234,-1,-1,-2,5,1,1,2,-1
4381300234,0,3,-2,1,2,-1,-5,-1
4381300940,-4,-5,-2,-2,-2,-2,-1,-1
4381300940,1,0,-1,1,-5,-2,-1,-3
4381322740,1,-2,0,-3,0,-6,-1,-2
4381322740,-1,-1,-4,-8,-2,-2,-2,-2
4381323452,-1,-5,-2,-4,2,-3,1,-1
4381323452,0,-4,-1,-1,-3,-1,-1,1
4381338409,-2,-2,-5,0,1,-2,-2,3
4381338409,1,-1,-3,1,-6,1,-1,-2
4381344428,2,1,-5,-5,-3,-3,-2,1
4381344428,-3,-5,-4,-4,3,1,1,-1
4381360046,3,1,3,0,1,1,-1,-2
4381360046,-4,-3,-4,-5,-2,-4,1,-3
4381360781,-2,1,-3,-4,-3,-5,-3,-5
4381360781,-2,-9,3,2,1,-3,0,1
4381382668,-3,-1,-3,-2,-5,-2,2,-3
4381382668,0,1,-1,0,-7,-3,-7,-1
4381383318,-1,0,3,-3,-6,0,-2,2
4381383318,-1,-2,-1,-5,0,-3,2,-4
4381398346,-1,-6,-5,-6,0,2,-2,5
4381398346,-2,-7,0,-2,-4,0,-1,-4
4381404374,4,-6,-8,-3,4,-1,0,3
4381404374,-6,-2,1,3,2,0,-1,1
4381420085,-5,0,0,1,1,0,-7,1
4381420085,-1,-2,0,6,1,3,3,2
4381420864,-2,2,3,-2,-5,0,1,-1
4381420864,0,-1,-1,-3,-7,2,-4,-1
4381435822,3,1,1,1,5,-1,2,2
4381435822,-3,0,1,8,9,8,-1,0
4381441903,-4,-2,1,1,-2,-2,2,2
4381441903,-1,1,-1,0,-5,-5,1,-1
4381458354,-3,-1,-3,-3,1,1,3,-5
4381458354,3,-2,2,-5,-1,-1,-1,4
4381464482,-3,0,-1,1,0,2,-3,2
4381464482,-4,0,-3,1,2,-2,0,-3
4381480165,-1,-5,0,-1,-5,1,-2,3
4381480165,5,0,3,3,1,0,-2,-3
4381480859,3,-1,-2,-1,2,-2,-3,-3
4381480859,2,-3,1,-2,1,-2,-1,6
4381496318,3,5,0,1,-3,0,2,0
4381496318,-3,1,-3,-1,4,-5,-2,0
4381509381,-1,2,-1,-3,1,-4,-3,0
4381509381,0,-4,-1,-2,-3,2,2,-4
4381518452,0,-1,2,-5,-6,-6,-1,-3
4381518452,-4,0,-4,-3,-1,-1,4,-2
4381524538,-1,-2,-7,-2,0,0,-1,0
4381524538,-3,1,-2,-1,3,0,0,-1
4381547613,1,-2,-3,2,-1,-4,-1,0
4381547613,-3,-4,-2,0,-3,4,2,-3
4381548357,-2,1,-2,4,-1,-1,2,-4
4381548357,0,0,-1,-2,-3,-1,0,-6
4381562663,-5,2,5,-2,-5,2,-3,4
4381562663,4,1,-2,-3,-1,-6,-1,-1
4381563376,-2,-2,3,-5,-5,-2,-1,-1
4381563376,0,2,-2,-3,3,1,-2,-5
4381578441,-1,-3,-2,-1,-1,-3,1,-3
4381578441,-1,-4,3,-4,-7,-1,-1,-1
4381584396,5,2,4,5,1,2,3,-3
4381584396,-2,3,-1,0,-6,-2,-1,-1
4381600196,-1,-3,-4,-5,-5,-4,-5,-7
4381600196,0,2,-5,-4,-5,-2,-1,0
4381600905,2,-1,-4,1,0,3,1,-2
4381600905,-1,-4,0,-1,-5,1,-5,2
4381622726,2,2,-3,1,2,1,0,0
4381622726,-1,-2,-1,0,-2,1,-3,-3
4381623378,-1,-2,4,6,7,-1,2,3
4381623378,1,2,-1,-2,-2,-2,-6,-3
4381638384,-3,-1,-3,3,-3,0,1,-2
4381638384,-6,-9,-2,-1,10,-3,1,3
4381644512,-1,2,-1,2,-3,1,-4,-1
4381644512,-2,-2,-3,-2,-4,1,1,2
4381660120,-2,0,-2,-4,-1,0,-3,0
4381660120,-2,-1,-2,-5,-2,-1,0,1
4381660806,-1,-2,-1,-2,-4,2,-4,2
4381660806,4,2,0,-2,-2,-6,-5,-1
4381690222,0,-2,2,1,0,-2,2,2
4381690222,-1,5,-2,-5,-6,-3,1,-2
4381690772,-4,-1,-3,-7,-8,-1,0,-4
4381690772,-3,-7,-2,-5,4,0,-2,-6
4381698349,-3,3,-2,-6,-4,-4,-2,-1
4381698349,-3,-8,2,-2,1,-4,-7,-4
4381704573,-6,-2,-4,-8,-1,-7,-2,-2
4381704573,1,-2,0,-3,-1,1,-5,1
4381720142,-1,-1,-2,-5,2,-4,-2,-2
4381720142,0,-3,-5,-6,-3,-2,-4,-2
4381720902,-2,-4,-3,-7,-6,-4,-2,-4
4381720902,0,-2,-3,1,6,2,0,-5
4381742537,-4,-3,-2,-3,0,1,4,3
4381742537,2,-2,0,-1,3,1,5,-2
4381743319,-4,-6,2,0,4,3,-4,-4
4381743319,-2,1,-3,-7,-6,-3,3,3
4381758398,1,2,2,-2,-1,-1,-1,-4
4381758398,-2,2,1,0,5,0,-4,-2
4381764516,0,-1,-1,1,-1,-1,-1,0
4381764516,-1,1,-1,6,2,-1,0,-1
4381779418,-1,-5,-3,-7,-4,0,-3,-6
4381779418,0,5,2,1,4,2,-1,-2
4381786901,3,6,0,2,-4,2,2,2
4381786901,-1,2,0,1,-3,1,0,2
4381795963,1,1,0,-1,-3,-1,2,1
4381795963,0,2,-1,0,-2,0,1,3
4381801867,-5,1,3,1,6,2,2,-2
4381801867,3,4,-3,4,5,0,1,-5
4381818371,0,0,-5,4,-1,0,0,-3
4381818371,1,0,-2,5,0,-2,4,2
4381824453,1,0,-2,0,-2,0,-1,1
4381824453,-7,-2,0,-4,-5,-3,-3,4
4381839547,-1,-3,-2,0,6,-1,1,1
4381839547,-1,0,0,-3,-5,-1,-2,-4
4381855149,1,2,-1,-4,1,-2,1,-1
4381855149,0,-5,4,3,-2,-2,-2,0
4381862576,-3,-6,3,2,0,-1,-4,-4
4381862576,-4,-5,-2,-3,-6,2,-2,2
4381863385,-1,-2,-3,-2,1,2,-2,-4
4381863385,2,1,1,-5,-3,-1,2,0
4381878416,-3,-1,0,-1,2,-4,0,-6
4381878416,-1,-4,2,-1,3,-5,4,0
4381884361,-2,-1,2,3,-1,-3,-2,1
4381884361,0,2,-3,-4,-1,0,1,-1
4381899524,1,0,-4,1,1,2,0,-1
4381899524,-1,2,-3,-3,-1,3,3,2
4381907008,1,-2,0,-2,0,-4,2,-4
4381907008,-1,-3,-1,-1,-3,-5,-2,0
4381922678,-3,0,1,-4,-5,-5,-9,-1
4381922678,2,1,-3,1,-4,0,-2,-1
4381923383,-1,-1,2,5,2,0,3,0
4381923383,-2,2,3,-4,-5,-1,2,-1
4381938441,-4,3,-1,1,-5,4,2,-2
4381938441,-1,3,-3,0,-3,0,-4,4
4381944448,0,2,-2,-2,-5,0,-2,0
4381944448,-1,-4,2,-1,-1,2,-4,-4
4381959458,1,0,-2,3,1,0,2,3
4381959458,-2,-2,-1,-3,-2,0,-4,2
4381967016,-1,-3,2,-3,-5,2,2,1
4381967016,-1,2,-2,2,0,0,3,4
4381982748,-1,1,2,-3,-1,-2,-10,-4
4381982748,4,3,3,-2,-6,-4,1,-3
4381983473,0,-4,-2,-1,-2,-3,-2,-1
4381983473,0,-1,-4,1,-1,-4,-6,1
4381998437,-3,-2,1,-6,-3,-6,2,2
4381998437,-1,0,3,-3,-11,-5,-2,-5
4382004587,-3,3,1,-2,2,-5,3,-1
4382004587,1,-3,1,-7,-10,0,-1,-2
4382019558,1,-4,1,-10,-5,-3,-1,-1
4382019558,-5,-3,-2,-4,-2,1,-4,-5
4382026979,-3,1,-2,3,-3,0,4,1
4382026979,-1,-2,-2,5,0,1,0,-1
4382042395,0,0,1,2,0,3,-4,-1
4382042395,0,-1,-4,4,4,1,0,2
4382049479,-2,1,-3,-6,-4,-6,-7,-2
4382049479,-1,-3,-4,-2,3,0,1,-2
4382058334,-3,-3,-3,0,-1,2,-4,-3
4382058334,-5,-1,-5,-4,6,-2,-5,1
4382064534,1,-6,-4,-3,-4,-1,-1,1
4382064534,-2,7,0,-1,-3,-3,0,-1
4382079521,-3,3,-2,-5,-5,2,1,-1
4382079521,-5,-4,1,-4,-6,1,0,2
4382086892,2,2,-2,-4,-1,1,-4,-5
4382086892,1,-6,1,-3,-4,-1,0,-3
4382103091,-6,-3,-5,-3,3,-1,-1,3
4382103091,-1,0,1,3,0,0,-2,-5
4382109539,1,-1,-4,0,-1,1,-2,1
4382109539,-4,-1,2,2,7,2,-3,-2
4382118433,-1,-2,3,4,2,3,4,-1
4382118433,-2,-3,2,-2,-2,-4,2,0
4382124515,2,3,4,4,-3,-1,0,-3
4382124515,4,2,-3,3,0,-4,0,0
4382139606,1,-1,-2,-2,-1,-3,-9,0
4382139606,2,3,-1,3,3,0,-3,2
4382147074,-1,2,1,-4,-6,1,1,-2
4382147074,-2,1,1,-4,-1,-2,0,-2
4382162667,2,2,-5,-3,-2,-4,2,0
4382162667,0,-4,2,3,0,3,-2,-1
4382163351,0,-3,2,-3,-2,-3,-4,2
4382163351,2,-3,-7,3,4,2,-2,0
4382178365,-2,1,0,-3,2,-2,-1,-2
4382178365,1,-1,2,0,1,-2,0,-1
4382184391,-2,0,-1,1,3,4,-3,-3
4382184391,-3,3,6,1,-1,1,2,-1
4382199401,-3,0,-5,-4,-2,-6,-2,0
4382199401,-4,-2,-5,1,-1,-3,1,3
4382206908,-4,-3,-3,-5,1,-2,-4,2
4382206908,-4,-5,-1,0,0,2,-4,0
4382223994,2,-3,-1,1,-2,0,-1,1
4382223994,0,-2,-4,-2,1,0,-2,-2
4382224805,-1,3,-5,2,1,-2,-3,0
4382224805,-2,-1,-7,-6,3,0,0,2
4382238392,4,-1,2,1,-2,-2,-7,-5
4382238392,2,4,-2,0,-2,-1,3,0
4382244545,-4,-5,0,-2,-1,-1,-2,0
4382244545,-4,2,3,-3,-2,-1,-1,-4
4382259434,-2,-1,-2,-2,-4,1,-4,-1
4382259434,1,-1,-1,1,0,-1,2,-1
4382266883,0,-5,-3,-1,-1,2,1,-1
4382266883,-3,-5,-1,-5,-4,-3,-1,0
4382282671,2,1,1,3,-4,1,4,0
4382282671,-1,2,6,-1,-2,0,-6,0
4382283385,-3,-4,-1,2,0,-4,1,-1
4382283385,0,-3,0,-1,-4,-4,-4,1
4382298423,-4,0,-3,0,1,0,4,-2
4382298423,-2,-9,1,-4,-1,-4,4,0
4382304499,2,6,3,0,-2,-1,-1,0
4382304499,0,3,0,4,-1,0,1,-2
4382319508,0,2,-1,1,1,1,1,0
4382319508,1,3,-3,-7,-3,1,1,-6
4382327065,-4,0,-2,6,3,3,-1,-3
4382327065,5,-1,1,-1,-4,-1,-2,1
4382342581,3,-6,2,-4,-6,-1,0,-1
4382342581,-1,0,-5,1,-1,-3,5,-1
4382343296,3,1,0,-2,-8,-4,-2,-1
4382343296,-3,1,-1,-7,1,-2,1,-1
4382358470,3,-2,-2,-3,-4,-2,0,2
4382358470,-5,3,0,-6,-3,-5,-6,0
4382364568,-5,0,0,-2,-2,-4,2,-4
4382364568,-2,-2,-3,-2,-1,-3,1,0
4382379456,-1,-1,4,-1,-4,1,2,-3
4382379456,0,-5,0,1,0,2,-3,-1
4382387030,3,1,2,-1,-2,-4,-1,-1
4382387030,0,-2,2,0,-7,0,0,-7
4382402630,-1,3,2,3,1,1,0,-1
4382402630,3,6,3,-1,2,-1,0,0
4382403397,-1,0,0,-1,-2,1,-1,2
4382403397,0,-3,-6,-4,-2,-2,-3,1
4382416932,-2,-1,2,2,2,-4,-2,1
4382416932,0,0,1,2,-5,-6,-2,-1
4382424472,-4,-4,-3,-3,1,-4,-2,-1
4382424472,1,3,3,-2,2,1,-5,-5
4382439393,-2,-3,-1,-1,1,-3,-3,1
4382439393,-2,1,0,-2,0,1,-6,-2
4382447003,4,0,1,-2,-4,-6,-3,-4
4382447003,0,-6,-1,-2,-6,-4,2,3
4382462693,-1,-1,-3,-2,1,5,1,0
4382462693,-2,-5,-1,-1,-2,-4,2,0
4382463329,-4,-2,-3,-1,-3,7,2,1
4382463329,2,3,-5,2,0,-2,-2,4
4382477049,-1,-2,-1,-6,-2,-1,3,5
4382477049,-3,1,-1,0,-9,3,-3,1
4382484492,-3,-3,1,-3,-1,-3,0,-3
4382484492,-4,-1,-3,-6,-7,-3,-4,-4
4382499467,-3,0,1,2,-2,0,-6,0
4382499467,-2,-4,-5,-8,-6,-6,0,-7
4382507046,3,-3,2,-8,-7,-3,-2,-1
4382507046,-2,-4,1,1,-1,-4,-4,-3
4382522704,-5,-3,-3,-5,-3,-5,-3,-3
4382522704,-5,-4,-3,0,5,5,0,-1
4382523359,3,0,-1,2,-4,4,-3,-1
4382523359,-3,-4,-4,-5,-1,-1,0,-1
4382537102,2,0,-5,-1,-3,0,-2,-3
4382537102,2,2,-2,4,0,-3,-1,1
4382544573,-2,-1,-6,-2,-1,-3,3,0
4382544573,-1,0,2,0,0,2,-4,-3
4382559503,-2,-3,-2,-1,-2,-2,-2,-5
4382559503,-1,-5,-2,-1,4,-1,0,-2
4382567073,-3,-2,-1,-5,0,-1,0,1
4382567073,1,0,1,1,-2,3,-1,-6
4382582767,3,0,-1,0,5,3,0,-3
4382582767,-1,-2,0,-4,0,1,-1,1
4382583404,-3,2,-1,0,5,-4,2,-2
4382583404,1,-1,-1,2,-3,-3,0,2
4382596890,-6,-1,-2,-6,-3,0,-5,0
4382596890,-3,-1,-4,-4,-7,-4,-3,0
4382604537,-1,1,-1,-1,0,2,-1,-3
4382604537,0,-5,0,-1,-1,1,0,0
4382619542,0,1,1,2,4,0,2,1
4382619542,0,2,1,4,-3,-2,1,1
4382626980,-4,2,2,-5,-1,3,-3,-3
4382626980,-7,-1,1,0,5,-2,-1,0
4382642605,0,-5,-1,5,0,2,-2,0
4382642605,0,0,-2,-1,-1,3,-2,2
4382643355,0,-5,-1,-1,3,2,-1,-1
4382643355,1,-2,-1,-8,0,-3,-3,0
4382657247,-5,-2,1,-6,-5,3,-3,1
4382657247,-1,-5,-2,-1,4,-1,-4,1
4382664563,0,1,-1,-2,-4,-3,-1,1
4382664563,-2,1,-1,0,-1,2,-1,-1
4382679541,0,-9,-3,-1,1,2,3,-2
4382679541,-1,-2,-2,-4,-3,0,-7,-3
4382695210,2,-3,-5,3,4,0,1,1
4382695210,-3,-4,1,-1,0,1,1,-3
4382702542,0,8,0,-1,-3,-3,-2,1
4382702542,1,1,10,1,1,0,-2,-2
4382703334,-2,-3,-2,4,-1,-2,-1,-1
4382703334,1,7,-3,1,1,5,-2,-2
4382716875,2,-1,-3,-4,-4,-3,-1,-2
4382716875,2,-3,-3,-1,-1,-2,3,-3
4382724448,-2,2,-2,-2,-1,-5,-2,-1
4382724448,5,2,1,-6,-10,-1,-1,-4
4382739580,-4,1,1,2,0,-2,0,4
4382739580,2,1,-3,-7,-6,1,2,0
4382747058,2,-5,-2,-4,4,3,0,-4
4382747058,-4,-3,-1,0,0,0,3,1
4382762103,-2,-4,-1,1,0,-2,0,-4
4382762103,2,0,0,3,-2,2,-1,0
4382769976,-2,3,-1,5,4,3,1,-2
4382769976,-1,-3,-1,1,5,-4,-1,2
4382778390,1,0,-3,-1,-5,-3,0,-2
4382778390,-1,-1,-3,4,0,-4,-2,3
4382784434,-1,1,-1,-1,-5,1,-4,-1
4382784434,-1,1,0,4,2,-1,-6,5
4382799437,1,-3,-3,2,2,-3,0,1
4382799437,-2,0,-1,-3,-2,2,1,-2
4382807062,-2,-2,0,0,-6,-1,1,1
4382807062,0,3,1,1,-2,1,2,1
4382822037,1,0,-3,-2,-1,-1,-6,-1
4382822037,-3,-2,0,0,-2,-4,-3,-4
4382830255,1,-1,-2,-5,-1,-2,-3,1
4382830255,-2,-5,-5,-3,-4,0,3,-1
4382836933,-4,1,1,-7,-4,2,0,-2
4382836933,0,-3,0,-4,0,-3,-3,-1
4382844525,-4,-2,0,0,0,-1,-3,-1
4382844525,-1,-4,1,-4,-2,-5,1,-3
4382859515,0,-2,0,-1,-5,1,-2,-3
4382859515,-3,-3,-2,-9,-4,0,-6,-5
4382866912,6,-1,0,-1,1,-3,0,-4
4382866912,2,-3,0,-2,-5,-4,2,0
4382882008,1,-1,-1,1,0,-3,0,1
4382882008,-2,-2,4,-4,-4,-1,0,-2
4382890226,-5,-3,-1,0,-6,1,-3,6
4382890226,-4,-1,-4,-3,-2,4,-6,-1
4382905201,4,-2,0,-3,-2,-1,0,-1
4382905201,0,1,-2,-3,-3,-5,-1,-2
4382905907,-1,-5,1,-3,-5,-3,1,-1
4382905907,-2,-1,-2,0,1,0,0,-1
4382919410,-6,-7,-1,-3,-2,-1,-3,0
4382919410,-3,0,-2,-3,-4,-4,0,3
4382926960,-4,2,-1,-5,-1,-1,-3,-5
4382926960,2,1,-2,-2,1,-4,1,0
4382941963,2,0,2,2,-2,-3,-4,-2
4382941963,-7,-1,2,1,1,0,0,1
4382950143,0,-1,-3,2,-5,0,-1,3
4382950143,-2,1,1,-2,4,-3,-1,-1
4382965294,3,2,-2,-2,0,-1,-2,-3
4382965294,0,-3,2,-4,-5,-1,-4,1
4382965887,-5,-2,2,-1,2,-1,2,0
4382965887,1,-1,0,-4,-3,2,-1,-1
4382987585,-2,-1,-4,-8,-5,-5,-2,-1
4382987585,0,-3,-6,-4,2,5,-1,-4
4382988341,-2,0,-3,-1,-3,0,-2,0
4382988341,-4,-2,-1,0,0,-4,-1,0
4383001929,-6,4,-4,0,1,2,3,6
4383001929,0,1,-1,3,-3,1,6,-2
4383010097,2,0,-3,5,1,0,0,-4
4383010097,1,2,-1,1,-4,1,-1,-3
4383025148,-4,1,-2,-3,-4,-4,-3,-2
4383025148,-4,-3,-1,0,1,-1,-2,5
4383025848,1,2,3,2,3,-2,-6,-1
4383025848,0,1,3,2,-3,0,-1,2
4383039533,2,-2,1,3,-3,3,3,1
4383039533,0,3,-4,0,2,1,0,0
4383047095,0,-2,-3,-2,-2,-4,1,-3
4383047095,-4,0,1,0,-1,-1,1,-2
4383062124,-4,0,-1,-8,0,-3,-3,-4
4383062124,0,3,-1,-4,-2,-4,-5,-2
4383070180,1,-6,-3,-2,-3,3,-3,2
4383070180,-3,-2,-3,-7,2,3,-4,-4
4383085108,-3,-3,-1,3,2,-2,3,-4
4383085108,-1,0,-2,-4,-1,-1,-3,2
4383085871,-2,4,0,2,-2,3,0,2
4383085871,-1,-6,0,-2,-2,0,-2,-1
4383099420,3,1,2,3,5,-1,-5,-3
4383099420,2,-1,0,6,4,0,2,-2
4383107059,1,3,-1,-6,-8,-5,-6,3
4383107059,-3,-4,-2,0,4,-3,1,1
4383121914,0,-3,-1,-3,-5,5,-2,2
4383121914,0,-3,-2,0,-2,-4,2,-2
4383130340,-1,0,2,0,2,-2,2,-1
4383130340,-2,-3,-3,-1,-1,1,2,-1
4383145216,-2,-2,3,-3,-2,2,-2,4
4383145216,0,-1,0,2,0,3,-2,1
4383145883,-1,-4,4,-4,5,0,0,-3
4383145883,1,-2,-5,-5,-1,-1,-5,2
4383159487,1,0,-4,0,1,-3,3,1
4383159487,-1,-4,-2,-4,0,3,-1,-2
4383166922,3,-1,-3,-4,-6,-3,-1,-6
4383166922,5,1,-4,2,2,-3,0,-1
4383182063,-1,-1,-4,-4,-3,-1,-4,-2
4383182063,0,-2,2,4,2,-2,1,2
4383190247,-5,0,-3,-3,1,0,-1,1
4383190247,-5,1,-4,-2,-3,0,2,-6
4383205172,-8,-3,-1,-3,1,-5,-3,-3
4383205172,-2,-2,-5,-5,-1,-3,1,-2
4383205904,6,-2,2,-5,-12,-3,0,-4
4383205904,4,1,-4,1,-10,-6,-6,3
4383219426,2,3,-4,-3,-6,-5,-2,-3
4383219426,-2,1,0,-7,-8,-7,-2,-4
4383227028,2,-1,-1,1,-1,-1,2,3
4383227028,-1,-2,4,-1,-2,2,4,0
4383242059,0,-2,0,-4,-1,-2,-3,-4
4383242059,-3,1,-4,-4,-1,-2,-4,-2
4383250179,-1,2,1,-5,-2,-3,-2,-4
4383250179,0,-2,-3,-7,-6,-1,-3,3
4383265107,0,2,-4,0,1,-1,4,-1
4383265107,-3,-2,-2,-1,-2,1,0,-1
4383265819,-3,-4,-4,-3,-2,-4,-1,-3
4383265819,-1,-1,3,5,4,0,1,-2
4383279550,0,-1,0,-4,-3,0,-1,-2
4383279550,0,0,-2,-5,-2,0,0,2
4383295228,-4,-3,-5,-5,-3,-3,-2,0
4383295228,-5,-1,0,-8,1,-2,-1,-2
4383301935,0,-5,2,-2,-4,3,-3,2
4383301935,-2,-5,0,0,4,-4,-2,1
4383310108,-5,-6,-1,-3,1,0,-6,-2
4383310108,-2,2,6,2,1,-2,-5,-2
4383325102,-3,-1,-3,1,1,-2,-1,-6
4383325102,7,0,0,-2,-2,2,0,-6
4383325887,-2,-4,-1,1,4,-1,6,2
4383325887,1,-1,-4,-5,1,-4,-1,0
4383339522,0,1,-5,-4,1,-3,1,-2
4383339522,0,-2,3,0,-1,-3,2,-5
4383346991,-5,-1,-2,-3,0,5,-1,-2
4383346991,0,-5,0,0,-4,1,-3,-3
4383361923,2,1,1,6,-1,0,3,4
4383361923,-2,1,-3,-1,-3,-3,-2,-3
4383370206,2,5,-1,-4,-3,2,-2,0
4383370206,-1,-1,-4,-2,0,3,0,0
4383385117,-4,-4,1,-6,-6,-2,-1,1
4383385117,-5,-4,-1,-4,-4,-3,0,-2
4383385924,-5,-3,3,-2,0,-9,-4,1
4383385924,-6,-2,1,-5,-2,3,-6,-4
4383399476,-1,-5,-1,0,4,0,0,-1
4383399476,0,-3,-4,1,-2,2,0,-1
4383406945,2,4,-4,2,1,-1,3,-1
4383406945,-2,0,-2,-1,-4,0,1,1
4383421978,-5,-4,-4,-4,0,0,-3,-2
4383421978,-1,-3,2,-1,-7,3,0,-1
4383430057,1,-1,-4,-1,0,0,4,1
4383430057,2,3,0,3,-1,-2,-1,0
4383453224,4,2,1,7,1,1,3,2
4383453224,2,-1,-4,2,-1,0,-2,5
4383453804,-4,-1,-5,-1,4,4,-1,-3
4383453804,-2,-4,0,-2,-4,-4,1,1
4383460932,-2,-1,-2,-1,-1,-1,-6,-3
4383460932,-2,2,-2,-7,-1,-4,-5,-2
4383466927,0,0,3,1,-2,-2,-7,-1
4383466927,1,2,-2,-1,-3,0,-2,-2
4383482089,-3,-2,2,-1,1,1,2,-1
4383482089,2,3,1,6,5,-3,-1,1
4383490296,-1,-7,-1,-7,-9,-2,-6,-1
4383490296,3,0,-2,-3,-5,0,-1,-2
4383505298,3,-5,-1,-2,-4,-7,-3,-2
4383505298,0,2,-1,0,6,0,-1,0
4383505857,1,-2,1,1,1,-1,-1,-2
4383505857,0,-2,2,-4,-4,-2,-1,-1
4383520299,-1,0,-4,-4,-3,0,-3,-1
4383520299,4,-3,-1,2,-2,-2,-2,-3
4383527076,2,-2,-4,-2,-4,1,-1,0
4383527076,3,1,-1,2,2,1,-1,-5
4383542088,-2,3,-1,1,0,-1,-3,-1
4383542088,-6,-4,-3,0,-3,-3,-2,0
4383550301,3,-7,-6,3,2,0,5,-1
4383550301,1,-1,-2,0,4,-2,3,-3
4383565231,-4,-1,2,1,1,2,4,-2
4383565231,-4,-3,-3,-2,-2,3,-1,-1
4383565813,-3,0,4,0,6,0,-1,-4
4383565813,-5,-5,1,-1,-1,2,2,3
4383579434,7,0,-5,-1,-5,-4,-5,1
4383579434,-3,-4,1,-6,-8,-2,1,-3
4383586986,0,2,1,1,-1,-1,-3,-1
4383586986,-5,-4,-8,-3,-2,-5,-1,2
4383603408,-2,-6,4,-3,-4,0,-3,-3
4383603408,0,-2,0,-2,-4,-7,-4,-4
4383610332,-5,3,-4,-7,-9,-5,-4,0
4383610332,-2,1,-5,0,4,2,4,2
4383625136,-1,-1,2,1,0,-3,0,4
4383625136,-3,2,-1,1,3,-1,1,0
4383625872,-1,0,-2,2,-1,-2,3,4
4383625872,-1,1,5,-1,-5,1,-2,-5
4383639546,1,1,-1,-1,0,-2,0,1
4383639546,1,-6,-3,-4,-3,-2,-5,-4
4383646989,-1,-2,-2,1,-1,0,0,-2
4383646989,1,0,0,0,5,-2,-3,-3
4383662034,-5,0,-2,-2,-2,-2,1,0
4383662034,-5,-6,-1,-8,-2,-7,-2,0
4383670230,-4,-5,-3,-3,-3,1,-1,0
4383670230,-5,-3,-4,-3,-5,2,-4,2
4383684505,-2,-9,1,-3,0,0,-1,-3
4383684505,-4,-2,-3,-2,1,-2,-2,-2
4383692784,3,3,3,5,3,-2,2,-2
4383692784,5,1,0,5,2,-2,0,-1
4383699445,-1,2,0,2,-1,0,-3,-1
4383699445,1,0,0,3,4,9,2,1
4383706948,1,3,-2,-1,-2,1,-2,1
4383706948,-3,-6,-3,-3,-3,-3,1,-4
4383722099,0,4,-3,6,5,3,2,0
4383722099,2,-2,-1,-2,-4,-2,0,0
4383730336,-3,1,2,2,5,2,-1,-3
4383730336,2,-2,1,2,0,-1,1,0
4383744491,-2,-1,1,-1,-9,-4,1,-4
4383744491,-5,3,2,1,0,6,-4,3
4383760907,2,-2,1,1,-2,-3,-5,4
4383760907,-4,-3,-5,-1,1,-4,-5,1
4383762338,-3,-7,-3,-5,-2,-2,2,1
4383762338,-1,2,0,2,-3,-2,-1,-1
4383766999,-2,0,0,2,0,2,-1,1
4383766999,-2,-3,-1,-1,1,0,-1,-4
4383782043,-4,-2,-2,-5,-1,0,-5,-2
4383782043,-2,-1,2,-1,3,-4,0,0
4383790283,3,-1,-2,-2,-6,-1,1,3
4383790283,0,2,3,3,-3,-1,1,3
4383804374,2,3,-3,-2,4,-5,-1,3
4383804374,-2,-2,-6,0,0,-1,1,-1
4383812764,-4,-5,5,-5,-3,-3,-2,-4
4383812764,0,-2,2,3,-2,-5,0,-1
4383827668,2,1,-2,-5,-6,-4,0,-1
4383827668,3,-7,-1,1,0,4,4,0
4383828421,0,-3,-4,1,5,-1,0,0
4383828421,1,-2,-4,-3,-2,-5,-3,0
4383841906,-2,-1,-1,5,6,1,-1,0
4383841906,6,-1,0,-1,-1,-2,0,1
4383857810,-1,-1,-4,2,0,0,3,-1
4383857810,0,-6,-2,-2,0,2,-1,-1
4383864515,1,-2,-6,5,3,3,2,0
4383864515,-2,3,-5,7,4,1,3,0
4383872733,-3,-4,-5,-7,-1,2,-1,0
4383872733,-2,2,3,6,4,2,3,4
4383887718,2,-1,1,-1,2,-3,-2,2
4383887718,-7,-7,-2,-2,0,-2,-2,-2
4383888432,6,-2,5,0,-6,0,0,-1
4383888432,-3,-3,-3,-6,3,-7,1,1
4383902055,1,-1,-4,0,3,1,-7,1
4383902055,3,1,1,-1,-3,-2,2,-3
4383910290,-3,4,-3,-6,0,-9,-5,-2
4383910290,-2,0,1,-5,-7,-2,-2,-5
4383924503,-1,-2,-4,-3,-4,1,-3,-2
4383924503,-1,1,1,-4,0,0,-1,0
4383932758,1,-3,-3,1,2,0,0,1
4383932758,-3,0,-4,1,0,1,1,-1
4383947741,0,-1,0,-6,-10,-1,2,-6
4383947741,1,2,0,-7,-9,-4,0,-3
4383948394,-2,0,2,5,0,-2,0,0
4383948394,4,0,1,1,-3,2,-2,-1
4383962097,-2,-2,4,5,7,2,0,1
4383962097,1,3,2,4,3,3,4,0
4383970183,1,-4,-7,-1,-2,-1,1,-1
4383970183,-2,0,-1,-6,-2,0,-1,0
4383984483,-2,-4,-1,2,4,0,1,0
4383984483,-2,-1,-2,-3,-4,-1,2,-3
4383992744,-6,-4,-1,-4,-4,-2,-2,-4
4383992744,1,1,-1,-1,1,3,0,-3
4384007675,2,-7,-3,-8,-6,-2,2,-2
4384007675,-5,-4,-2,-4,-2,1,0,3
4384008368,-3,-7,-1,-3,-3,4,3,-3
4384008368,-1,0,-2,-7,-8,-8,-4,-1
4384022084,-1,4,0,3,0,-3,0,0
4384022084,2,-3,0,3,5,-3,0,0
4384030171,1,1,-2,-2,-5,0,0,-1
4384030171,-1,1,1,5,5,2,1,3
4384044620,0,0,0,-1,0,-3,3,1
4384044620,-2,1,1,0,1,0,-6,-1
4384052742,1,-3,2,0,4,1,-1,1
4384052742,-3,-7,-5,-3,1,-3,-1,-1
4384075977,-6,-2,3,-4,-2,-1,2,1
4384075977,2,1,2,0,1,1,-3,1
4384076836,-3,-2,-5,-1,1,0,0,0
4384076836,1,1,0,0,3,-1,1,0
4384081923,0,1,-1,1,-2,2,-3,-1
4384081923,-4,-3,-7,-1,-4,-2,4,-1
4384090134,-5,-2,3,1,-4,-2,6,0
4384090134,2,-2,-1,0,-4,-2,0,-3
4384104381,-3,-3,1,0,-2,0,4,-2
4384104381,-1,1,4,3,2,0,3,1
4384112631,-4,-2,-2,-2,1,-4,-5,1
4384112631,-3,1,-4,4,1,3,1,1
4384127586,2,1,0,-1,-2,1,0,0
4384127586,0,-1,1,3,-4,-4,-2,-3
4384128344,1,3,2,1,6,-1,1,-3
4384128344,-5,0,1,-3,-5,-4,0,0
4384141895,-2,-2,-1,1,-4,0,-4,2
4384141895,-3,-1,-7,-8,-1,-6,-7,-3
4384150115,0,-2,-2,-3,-3,1,-4,1
4384150115,1,0,1,-2,6,-3,-5,0
4384164408,0,-7,-5,-4,-1,-4,-2,-4
4384164408,-3,0,-4,1,0,4,5,1
4384172579,-1,1,3,-5,-5,0,-2,-1
4384172579,2,1,0,1,1,3,-3,-1
4384187655,1,6,-3,0,0,-3,3,1
4384187655,-1,-1,1,1,0,1,-3,6
4384188402,-1,-1,-2,3,3,-2,5,-1
4384188402,-1,1,-1,3,-2,1,-3,2
4384201865,-6,2,-2,-3,-4,-3,-4,3
4384201865,-3,-2,-1,-6,-5,-5,-3,-4
4384217620,0,-2,-5,-1,-4,-1,-1,2
4384217620,-5,-4,-2,-4,-5,0,-2,-3
4384224413,3,2,-3,-2,1,-7,-2,-5
4384224413,1,-3,-1,1,-2,-1,1,-1
4384232563,3,0,1,-5,-2,-2,-3,-3
4384232563,1,-5,0,0,2,-4,3,4
4384247650,-1,-4,-2,-3,0,0,-3,3
4384247650,-1,0,0,-3,-3,-3,0,-1
4384248360,-2,6,0,3,-1,-5,0,-2
4384248360,-2,-4,-2,-2,-9,-1,-3,-1
4384261953,0,-2,1,-4,-4,1,3,-3
4384261953,-1,8,0,-2,-2,-2,-4,-5
4384270148,0,-2,-1,1,0,-1,0,-3
4384270148,-3,0,2,1,2,1,3,1
4384284454,-5,-1,-3,3,-1,3,0,2
4384284454,0,-2,-4,-2,-3,1,3,2
4384292603,-3,1,-2,-3,1,-4,1,-2
4384292603,1,3,0,2,2,0,-1,-3
4384307606,-4,-1,2,2,0,-4,-2,-3
4384307606,0,-1,1,-1,0,-3,-5,2
4384308388,2,-2,3,5,7,3,2,3
4384308388,0,-5,-2,-3,2,2,-4,-4
4384321951,-4,-3,1,-2,-2,0,-1,-1
4384321951,0,0,-5,-1,1,-4,0,2
4384330139,-1,-3,-2,-1,-4,-2,-4,0
4384330139,-6,-3,-3,-8,-5,1,1,-3
4384344459,0,0,-4,0,-1,0,-4,-2
4384344459,-2,-8,1,-5,0,2,-4,-3
4384352583,-2,-5,2,-2,-2,3,3,0
4384352583,2,-6,-2,-1,-4,-6,-1,0
4384367589,0,-4,1,-1,0,-3,-1,-1
4384367589,-1,-7,-3,-1,-2,-2,-1,-2
4384368341,-1,0,2,-3,-6,5,-1,-3
4384368341,-1,-1,0,2,5,1,2,4
4384381981,-2,-7,0,-3,3,-1,-3,1
4384381981,-3,-3,3,1,5,2,0,-2
4384390157,-3,0,0,-4,1,-2,-7,-4
4384390157,-3,1,-4,-2,1,-7,-3,-2
4384404420,-2,0,-5,-2,3,1,4,-1
4384404420,-1,-1,-4,0,-1,0,3,-1
4384412669,3,-1,-4,4,1,-3,-4,2
4384412669,-2,2,-1,1,-3,1,-2,-4
4384427641,-2,-1,0,-5,-1,0,0,2
4384427641,-3,2,-1,0,1,-2,2,-2
4384428381,0,-2,-5,2,0,2,3,0
4384428381,-1,8,-1,4,0,1,0,-4
4384441947,5,1,1,5,3,0,2,3
4384441947,-2,0,3,-2,1,0,-2,0
4384450143,-3,-3,-2,-6,-1,-7,-1,-1
4384450143,1,-1,3,1,0,0,0,-2
4384464423,-5,-2,3,-2,-3,3,2,-2
4384464423,0,0,-6,1,-2,0,-1,-1
4384472644,-5,3,-1,-1,-3,-2,3,-3
4384472644,0,-7,-1,-3,3,-4,1,-2
4384487589,0,3,1,1,2,-4,-3,-5
4384487589,0,0,0,-5,-2,-4,-6,0
4384488363,2,1,-2,-3,-6,-4,-5,1
4384488363,-3,-4,-1,-1,0,-4,-1,1
4384501920,1,-1,-7,-4,0,-3,-4,-6
4384501920,-1,-2,-2,0,-2,4,4,-2
4384517618,-3,-2,-4,-1,6,1,0,1
4384517618,0,-2,-1,4,3,2,0,-2
4384524434,-2,-2,-3,1,-3,-1,0,2
4384524434,1,2,4,-1,-5,-4,-2,-1
4384532642,-1,1,-2,0,0,-1,1,-3
4384532642,0,-7,-3,-10,-10,-1,-1,-2
4384548037,-2,-1,-1,-4,-6,-3,-6,-1
4384548037,3,0,-1,-10,-3,-3,-3,2
4384548834,-1,2,0,9,5,1,-1,2
4384548834,4,0,-1,1,-3,-4,-1,-1
4384561912,0,4,-4,-1,2,-2,1,-4
4384561912,1,-4,1,-1,-1,-2,-6,-1
4384570141,-4,-1,-5,-5,-6,-5,-5,-5
4384570141,-4,0,-1,-3,4,1,0,1
4384584395,0,-3,4,-1,1,0,-2,0
4384584395,-1,1,-1,-1,-2,-3,-7,1
4384592370,-3,0,-2,-4,-8,4,-3,0
4384592370,-1,-1,1,5,-2,1,0,3
4384607637,-5,-4,0,-4,-8,1,1,2
4384607637,-2,-1,2,1,6,0,1,1
4384608397,5,-3,0,-1,-2,4,-1,-3
4384608397,2,0,3,-2,-2,0,-3,4
4384621916,-4,-3,-4,3,3,-3,4,2
4384621916,-5,0,-3,-1,-5,0,0,0
4384630182,0,-1,-3,-1,-3,1,-4,-4
4384630182,-3,1,-2,-6,-3,3,-1,0
4384644418,1,1,4,4,-1,6,-3,0
4384644418,-7,-3,-2,3,6,-2,2,-2
4384652662,-4,1,2,-1,4,-3,3,0
4384652662,0,3,-4,4,-1,-3,-4,-1
4384666918,-4,-1,1,0,-1,-1,-2,-4
4384666918,-1,0,-4,-5,-4,-2,-4,-4
4384675133,0,-3,0,-2,-7,-2,0,0
4384675133,0,3,0,-2,-2,-6,-4,-4
4384682116,2,-5,1,-6,0,0,-6,-2
4384682116,1,-4,-6,2,-2,3,1,2
4384690130,-3,0,3,-2,-3,0,-3,1
4384690130,-1,0,-4,-3,-1,-5,0,-4
4384704402,0,-4,-6,-3,-1,-1,0,1
4384704402,-3,-3,0,-6,-4,0,2,-6
4384712610,-2,-2,0,1,0,2,-1,3
4384712610,-4,-5,1,-2,2,3,0,2
4384726926,2,1,-2,-4,-5,-2,-5,-4
4384726926,-2,-3,-5,-4,-1,3,-3,-1
4384735899,3,-3,-2,-1,-2,-4,0,0
4384735899,-5,-1,-3,-5,0,2,0,-3
4384741909,-2,2,0,0,2,-4,0,-2
4384741909,2,0,-4,2,1,-1,3,-2
4384758380,-3,0,0,0,-5,-3,3,-5
4384758380,2,0,-3,0,-4,-1,-1,0
4384764413,3,0,-4,-3,-11,2,-2,-3
4384764413,-1,1,1,-2,-8,-2,-1,0
4384773406,-1,-3,-1,-7,2,-2,-5,0
4384773406,-3,-3,-6,-2,-3,0,0,-2
4384786980,-1,0,-1,-6,-4,-1,3,-1
4384786980,1,3,-2,-3,-7,-3,-9,-1
4384795935,0,-4,-2,-4,-1,0,-1,-1
4384795935,-5,-5,4,-5,-3,-3,-1,0
4384810116,2,2,-1,1,-1,-4,0,-2
4384810116,-1,1,0,-5,-7,0,-1,-2
4384825161,0,-4,-4,-2,-2,-1,-2,-1
4384825161,4,-1,-1,2,3,2,-4,-2
4384825869,1,0,-3,-5,1,-4,-2,-1
4384825869,-3,-5,0,-3,-2,-3,-1,-3
4384833420,-1,-7,-1,0,-2,-1,3,0
4384833420,-4,0,2,-6,-6,-1,0,-1
4384846933,-2,-7,-1,-5,-9,5,-1,-2
4384846933,6,1,1,1,1,-1,0,2
4384855952,-2,3,5,0,-3,-2,-1,-2
4384855952,2,1,-1,3,2,-4,0,0
4384870154,-5,-4,1,-3,-3,-1,-1,-1
4384870154,-4,-4,-5,-1,0,-3,1,-3
4384885092,1,2,0,0,-2,-1,-4,0
4384885092,3,1,-3,-5,-1,-2,-3,-1
4384885813,-1,2,-1,-4,2,-2,-3,0
4384885813,1,-3,0,3,0,-3,1,0
4384893406,-1,3,-5,-4,0,-1,-1,-3
4384893406,-4,0,-3,-2,-6,-5,-4,0
4384906888,3,-1,-4,-2,-4,-2,-3,-1
4384906888,3,2,0,1,-2,-1,-2,0
4384915937,-2,-5,-4,-5,-6,-1,0,2
4384915937,-3,-1,-4,-2,-2,-2,5,-2
4384930074,-3,1,-1,0,1,-1,4,0
4384930074,-4,0,1,-1,2,1,-2,-1
4384936872,0,1,-1,-1,-4,0,-4,-3
4384936872,2,-2,-5,1,3,4,1,-2
4384953267,1,-3,0,-1,1,-1,0,3
4384953267,-4,1,1,-1,4,-2,-2,1
4384954861,0,0,-1,1,4,2,-2,1
4384954861,-3,-3,-1,-6,-5,-3,-6,-2
4384966929,-2,-1,-6,4,-2,-2,0,-3
4384966929,1,-2,-7,-2,4,-4,-3,0
4384975859,3,2,2,-2,0,4,1,0
4384975859,2,2,4,-4,-4,-1,-5,-1
4384990129,-2,2,0,0,-4,2,-1,-4
4384990129,0,-3,-1,0,-4,-2,2,-6
4384996965,2,3,-3,6,4,-5,-3,0
4384996965,2,0,3,4,1,-2,3,-2
4385004467,-1,-2,0,-3,-2,2,-2,-1
4385004467,-6,-1,-4,-3,-4,-3,2,-1
4385013375,0,-2,-2,0,3,0,-3,-3
4385013375,3,2,0,0,-4,-1,-2,-1
4385026963,-4,0,-4,2,1,-10,-4,0
4385026963,-1,4,-5,-1,0,0,-4,4
4385035898,-1,-4,-1,6,-1,-5,3,1
4385035898,-3,-5,-3,-1,1,2,0,1
4385050147,0,0,-2,-3,1,-2,1,2
4385050147,2,1,4,2,4,-1,-4,-4
4385056918,-3,-2,-2,-6,-1,-3,-9,-5
4385056918,1,2,-1,0,-4,4,-7,1
4385064400,2,-1,-1,-2,-3,-1,-4,3
4385064400,2,2,1,1,-1,4,-7,-1
4385073364,1,-1,1,0,-5,1,-2,-1
4385073364,-1,-2,-8,0,1,-5,2,-4
4385086947,-6,-1,-4,-9,-6,-3,-3,-2
4385086947,0,-1,0,-2,-3,-2,4,3
4385095978,-3,1,-6,-1,-4,-2,5,-1
4385095978,0,-3,1,0,-1,-3,0,-1
4385110773,-4,-6,-2,0,-1,-5,4,3
4385110773,2,-2,-3,0,-3,-3,1,0
4385112452,-4,-5,0,-4,-3,1,-3,1
4385112452,-1,-4,-1,-4,0,-5,-2,2
4385124513,-1,-4,0,-2,1,1,4,1
4385124513,-1,2,-2,2,1,2,-1,-2
4385133422,1,4,-4,-5,0,-5,-3,2
4385133422,-6,-2,-4,-3,-6,0,-2,-3
4385146857,3,3,-2,-1,0,-2,-3,-6
4385146857,-3,-4,-1,-5,-4,-2,2,-6
4385155925,-1,2,-1,-3,0,1,2,-1
4385155925,-1,-3,2,-5,-8,-2,2,0
4385170791,0,-2,-1,3,-1,2,-5,-4
4385170791,0,2,-2,-4,-6,1,-5,0
4385172414,1,0,-1,7,4,1,5,0
4385172414,-1,3,-4,-4,-6,-3,-1,1
4385184427,1,1,-2,1,-1,4,-1,1
4385184427,-1,4,-3,-2,-1,3,-1,0
4385193420,-4,-4,2,-2,-6,0,-4,-3
4385193420,5,-2,1,1,1,3,0,0
4385206977,0,-1,-2,3,0,-2,-3,-2
4385206977,-2,-1,1,2,3,4,2,1
4385215884,-2,-1,-4,-1,-5,1,1,-3
4385215884,3,1,-4,4,0,-3,0,3
4385230717,2,1,1,-2,2,-3,-6,-7
4385230717,-3,-6,1,-7,-4,-5,-1,2
4385232329,2,-2,1,-2,-2,-3,4,-3
4385232329,3,3,3,2,-1,3,-4,-6
4385244453,3,-3,-4,1,1,3,3,3
4385244453,-1,-2,1,-4,-5,-7,-3,-3
4385253437,-2,0,-2,-5,0,-3,-4,-6
4385253437,-2,-4,-2,3,10,1,-3,-1
4385266918,-1,-4,4,1,-1,-2,0,-2
4385266918,-2,-2,1,-3,0,-2,0,-1
4385275909,0,0,-4,-4,-6,0,-4,1
4385275909,0,-2,7,5,8,0,-1,0
4385290851,-3,3,-1,0,3,3,3,1
4385290851,-2,-6,1,-2,-2,-1,0,-6
4385292387,-1,-2,1,-1,-3,1,-1,-1
4385292387,-6,3,-1,-4,-2,-1,-2,0
4385304406,-3,2,-2,-5,1,-9,-6,-2
4385304406,2,-2,-2,1,4,2,-1,1
4385313386,-5,-1,0,-3,2,-1,-4,4
4385313386,0,-1,-7,-4,-1,-3,3,-8
4385326971,-3,-2,-3,-5,-5,1,-2,0
4385326971,2,2,1,-3,3,-5,-2,-1
4385335877,2,1,0,5,3,0,-1,0
4385335877,-4,1,0,3,5,-2,2,-3
4385350082,0,0,0,-3,-5,-5,-3,-2
4385350082,-1,0,-3,4,1,1,-4,0
4385356919,0,-6,-2,-2,0,-1,-3,-2
4385356919,3,1,1,0,2,-3,-2,4
4385364470,0,1,2,1,-4,2,7,-1
4385364470,-3,-3,0,-2,-7,-1,-3,1
4385373381,2,2,-4,1,-1,-3,-3,-1
4385373381,2,-5,-3,-3,-5,-2,-4,-1
4385395805,-2,-1,3,-1,2,-7,-6,-2
4385395805,-3,2,-3,-5,0,-5,0,1
4385397444,2,1,-5,0,-3,-6,-3,-1
4385397444,-4,-3,-5,-7,-6,1,-1,-2
4385410784,-1,-1,-3,-2,-3,2,3,1
4385410784,-5,-6,-4,-1,-8,0,1,0
4385412357,0,-4,4,0,3,3,0,-2
4385412357,-3,-2,5,2,-5,-4,5,2
4385424383,-3,-3,-2,-2,-3,-3,-2,-4
4385424383,2,-2,0,-1,-4,-1,-1,-4
4385433437,-4,2,4,2,-1,-4,-3,-2
4385433437,-3,-4,-4,-3,1,-5,-2,0
4385446957,4,2,-5,-6,-6,1,-3,0
4385446957,1,-2,-2,1,-1,-3,0,-3
4385463447,-4,-4,-2,-5,-1,1,1,4
4385463447,-1,-2,0,3,2,2,1,0
4385470753,-2,-4,-2,2,0,-5,0,1
4385470753,1,1,-4,-1,2,0,-3,2
4385472373,-2,-3,2,1,-1,3,2,-1
4385472373,1,0,-5,-3,-12,-4,-4,1
4385484463,-1,1,-2,-2,1,1,1,2
4385484463,-1,3,-1,2,-5,-5,3,-1
4385493449,1,-1,-1,3,-3,0,5,-2
4385493449,-6,-3,-2,-13,-4,-2,-7,-4
4385506896,-3,-3,-1,-6,-2,-4,-5,-7
4385506896,-2,-3,0,-3,-3,-2,-4,-3
4385515911,-4,-3,0,-3,-4,-5,3,-2
4385515911,-3,0,-2,1,-4,-2,1,-4
4385530830,0,0,2,1,-3,-1,-4,-2
4385530830,0,2,-2,1,3,3,1,-4
4385532402,-2,-2,-3,-5,-1,-2,-3,-5
4385532402,2,0,-2,-5,-5,-1,-5,-3
4385544434,3,3,2,6,0,5,-3,-1
4385544434,-5,-2,-3,2,0,2,-5,1
4385553447,6,-1,1,-3,-2,-3,1,2
4385553447,-4,-2,2,-5,0,0,6,4
4385566947,1,-1,0,0,2,-3,0,0
4385566947,-4,0,3,3,-2,0,-4,-3
4385575906,0,-3,0,3,4,0,-2,-5
4385575906,1,-5,4,3,2,1,-2,2
4385590153,-6,-2,-1,-1,1,3,4,1
4385590153,3,-3,-1,1,4,-2,-1,4
4385596910,-2,-3,-7,0,1,2,4,1
4385596910,2,0,1,1,-1,3,-2,-3
4385604425,-3,2,-4,-8,-4,-3,-7,-2
4385604425,-2,-3,0,-7,-7,-3,-1,-2
4385613443,0,1,-1,-1,-3,-2,-5,-1
4385613443,2,2,-6,6,4,-1,1,2
4385626978,5,-2,1,0,-2,1,-2,-2
4385626978,-1,-1,0,-4,-6,0,-1,0
4385635927,2,-1,-2,7,5,1,2,-2
4385635927,-4,4,-1,-1,-4,0,-2,-4
4385658288,-2,-2,-1,-4,-2,2,3,2
4385658288,3,1,3,3,2,-2,4,-1
4385659921,-1,0,0,-3,2,-1,-2,-3
4385659921,-1,1,1,1,2,-3,-1,1
4385664446,-1,-1,-3,1,0,-5,2,-1
4385664446,1,2,3,2,-3,2,-2,-2
4385673448,-2,3,5,-6,-8,-4,-3,0
4385673448,2,-2,6,0,-2,3,-2,-1
4385686938,-1,-2,3,2,0,-5,0,-2
4385686938,-2,-5,-3,3,3,-1,3,4
4385695976,1,5,-2,-1,0,1,-2,6
4385695976,3,5,0,1,-4,-2,-3,-1
4385710133,-6,-2,-1,2,-1,2,0,0
4385710133,0,1,0,-5,-8,-4,-2,-4
4385716945,-2,-1,-4,-2,-3,-1,0,-2
4385716945,-2,-4,-5,2,9,0,0,-2
4385733286,-1,-3,-6,-5,1,-5,-1,2
4385733286,1,1,-4,2,-1,-1,-2,-2
4385734907,2,3,-1,0,-7,0,-7,-2
4385734907,2,0,0,1,4,-1,2,0
4385746930,1,0,5,2,2,3,-1,0
4385746930,-1,0,-8,-3,-2,-3,1,2
4385755907,1,-2,2,0,3,-6,-1,4
4385755907,0,0,-2,-6,-5,-1,-2,0
4385770081,0,0,2,0,-5,0,-1,-3
4385770081,-1,1,-1,-2,3,-3,-1,-2
4385776926,-2,3,-1,-2,-5,-1,-3,1
4385776926,-2,1,1,-2,3,-1,0,-4
4385793293,-1,-1,-1,-3,-5,-3,-1,2
4385793293,2,-7,1,-5,1,-3,0,0
4385794858,-3,-4,-5,-2,1,-3,-1,-2
4385794858,-3,-7,-2,1,0,-4,2,-3
4385806995,-4,-2,4,-6,-4,0,4,4
4385806995,-2,-2,-2,-2,-1,-1,-3,-2
4385815915,-2,0,-4,-3,1,1,-3,-6
4385815915,-1,-5,-4,-4,-5,1,-1,-2
4385830109,0,0,-5,0,1,-2,-3,-2
4385830109,0,1,1,-2,0,0,-2,0
4385836951,-2,-6,-1,-6,3,-2,0,3
4385836951,-3,4,-1,0,-3,-2,1,-2
4385853292,-4,-3,-4,-5,-2,-3,-6,-3
4385853292,-3,-2,-1,-2,-3,1,-5,-4
4385854899,-1,2,2,4,-1,3,2,3
4385854899,1,1,-2,1,-3,-2,-3,2
4385866992,-3,-3,-2,2,7,3,0,3
4385866992,2,-1,1,-2,-2,1,-6,-3
4385875934,0,-3,1,-3,-7,-3,1,-3
4385875934,-2,-5,-8,-10,-6,-5,-1,-1
4385890114,3,-2,5,1,-3,1,-2,-3
4385890114,0,-1,6,-5,-2,-1,-3,-3
4385896921,0,0,-2,-1,0,1,-3,-1
4385896921,-4,1,2,-6,-5,-2,-3,-3
4385913329,0,0,-3,0,1,1,-3,0
4385913329,-2,-3,-2,-2,0,-6,-2,-1
4385914877,1,-4,0,1,0,1,0,-5
4385914877,-1,-5,-1,-2,-1,0,-3,-1
4385927291,3,-1,-2,-1,0,-2,-3,-4
4385927291,-2,-3,-3,-2,4,-3,2,-2
4385935957,-1,-4,0,-2,-2,-5,-1,0
4385935957,4,5,-1,5,1,1,1,1
4385958284,-5,-4,-1,-2,-6,-3,-2,-2
4385958284,-5,-2,0,1,-2,3,2,0
4385959865,1,-2,1,2,2,-2,1,-2
4385959865,-7,-4,1,1,4,3,-2,-2
4385973326,3,1,-2,2,1,1,-3,2
4385973326,-2,-1,-5,3,1,-2,-4,2
4385974894,-4,0,-2,3,4,0,0,-2
4385974894,3,0,2,2,-5,-1,2,-2
4385986975,1,0,-2,-3,-3,0,3,-3
4385986975,-1,-3,0,-1,0,-2,1,-4
4385995926,-2,-2,-4,-5,-4,2,-2,1
4385995926,-2,2,-2,1,5,-6,-4,-3
4386010140,-3,-1,-3,-2,0,-2,1,-2
4386010140,-4,0,0,-3,-1,-3,-2,1
4386016967,2,-3,0,0,0,-2,0,-3
4386016967,-2,-3,-1,-1,1,0,-1,2
4386033328,1,1,2,4,4,1,-2,1
4386033328,-1,1,-4,2,3,0,3,3
4386034903,-4,0,0,5,3,-1,-6,0
4386034903,0,-1,-2,0,4,0,-1,1
4386046890,-1,2,-2,1,-1,2,2,-2
4386046890,-3,-4,1,-7,-9,-1,-1,-2
4386055921,-2,2,-1,-2,-1,1,-2,2
4386055921,-1,-1,-4,2,0,-3,0,4
4386070109,-4,0,0,-1,1,-3,1,-7
4386070109,2,0,-1,4,1,3,-1,4
4386076932,0,-4,-6,-2,-4,0,2,-3
4386076932,-4,5,-5,0,-3,1,-4,0
4386093267,1,1,0,4,-4,-1,-1,0
4386093267,-1,1,1,0,0,-1,1,1
4386094868,-1,-2,1,-3,-2,-3,1,1
4386094868,-4,-3,-1,-2,-1,0,0,-4
4386106980,3,0,-1,1,0,3,0,-1
4386106980,0,3,-1,8,3,5,3,-4
4386115903,-4,-2,1,-3,-5,-2,0,3
4386115903,1,-3,1,-2,-1,1,-2,-4
4386130132,-1,-6,-1,-3,-5,-5,0,3
4386130132,5,5,2,2,2,1,-2,2
4386136964,0,-3,-1,-3,-2,-3,5,-3
4386136964,0,-1,1,-1,-1,2,3,-3
4386160805,-3,-1,-2,2,-2,1,0,2
4386160805,-2,-3,-4,-3,-4,-2,-1,0
4386162387,-2,-2,-5,2,0,1,-1,-3
4386162387,-1,0,4,-11,-7,-4,1,0
4386166949,-1,-2,-7,-7,-1,-1,-1,-1
4386166949,-4,-2,-3,-6,-5,-3,-7,-4
4386175948,5,-5,-1,1,1,1,-3,-4
4386175948,1,-4,-7,-6,-4,1,0,0
4386190134,0,0,-4,0,-1,2,6,1
4386190134,-2,-6,-2,1,1,-1,1,0
4386196937,0,0,-3,-7,-3,-3,0,-2
4386196937,-1,0,-1,4,1,3,1,-1
4386213302,-6,-5,-4,-7,-3,-4,-6,-4
4386213302,4,0,-4,-3,-4,-1,4,-1
4386214899,1,-1,-2,-2,-2,1,-5,-3
4386214899,2,-5,0,-3,-3,-3,2,1
4386226948,-4,0,-2,-4,-2,-3,2,2
4386226948,-5,1,3,-7,-4,1,1,-5
4386235922,3,4,2,1,0,-4,-1,2
4386235922,-2,-3,-4,-6,-2,-4,-3,-1
4386250128,-3,-3,4,-7,-3,-2,-3,2
4386250128,-3,-2,-2,-6,-2,0,-1,-2
4386264452,-1,4,-2,-1,1,-2,1,-4
4386264452,-2,-1,-5,-2,1,-1,0,3
4386273278,1,4,-4,-5,-1,-2,-1,-4
4386273278,-4,-8,-4,-5,-6,-2,-1,3
4386274916,2,-5,-4,-5,-1,2,0,0
4386274916,1,0,1,1,-3,1,-3,-4
4386286960,-1,-4,-4,-2,-1,-5,-2,3
4386286960,-4,1,-2,0,-5,-1,-1,0
4386295945,-2,-6,2,-1,-1,-5,0,-1
4386295945,0,-1,-1,0,0,3,-7,2
4386310147,-4,1,2,-7,-3,-4,-3,-2
4386310147,-1,-5,-4,-1,0,2,0,-7
4386316959,-5,-1,2,-2,-2,1,-5,-1
4386316959,-1,5,0,-1,0,1,5,-1
4386333284,1,-5,4,1,2,5,-3,3
4386333284,4,3,-1,0,2,-3,-7,-3
4386334891,-2,-1,-5,-3,-6,-2,2,1
4386334891,-1,4,3,3,-4,-7,-2,4
4386346967,-2,-1,1,-1,-2,-1,-8,-1
4386346967,-1,1,-5,-5,-4,-6,-3,-4
4386355941,0,3,3,-3,-3,0,-6,0
4386355941,-1,-5,1,-8,-4,1,-3,-4
4386370116,2,-3,-8,-3,-5,-2,0,-3
4386370116,0,-4,3,-2,-2,1,1,-2
4386376956,-3,0,-1,-3,0,2,1,-3
4386376956,-4,0,-5,-1,-2,-5,-1,-1
4386393258,-2,0,2,-2,-1,0,2,-4
4386393258,-1,-1,-4,2,-1,-1,-2,4
4386394859,1,0,-3,2,1,-1,-1,-1
4386394859,1,-7,1,1,2,2,1,-5
4386406949,-2,5,1,-2,-2,-1,-1,1
4386406949,1,-4,-4,3,-1,1,4,3
4386423415,-2,-1,-3,-4,-1,1,-3,0
4386423415,-1,-1,-10,-4,-2,0,-5,-2
4386430140,0,1,2,4,0,-5,0,-2
4386430140,2,3,3,-4,-3,-2,-5,2
4386436955,-3,-4,-4,-6,-4,0,-3,-3
4386436955,-2,-7,-1,-4,1,2,-4,2
4386453327,-1,-4,-3,4,5,2,2,2
4386453327,1,-1,0,-1,-3,-3,4,0
4386454895,-2,6,3,4,-1,-5,1,3
4386454895,-1,-1,0,-1,2,1,2,-1
4386466949,0,-3,-6,0,-1,0,3,5
4386466949,-3,-2,2,0,-4,0,-3,-1
4386483469,5,-6,-5,-5,-2,-1,-3,0
4386483469,2,0,3,-1,-1,2,-3,0
4386490125,1,2,4,2,-2,2,-6,-3
4386490125,1,0,0,-4,1,-1,0,-4
4386496996,-1,-4,0,-2,-2,3,0,1
4386496996,1,-4,-2,-5,-1,-6,-3,0
4386513295,1,-2,-6,-1,0,-4,1,-4
4386513295,-5,-4,1,-2,-2,2,-2,-3
4386514894,-1,2,1,5,2,0,-2,1
4386514894,0,4,1,3,0,0,3,0
4386526951,1,0,-1,-3,-7,-3,-2,-1
4386526951,-2,-3,-3,3,2,2,3,3
4386535965,3,-4,2,3,2,0,0,-1
4386535965,0,1,1,2,5,1,-2,1
4386550201,-1,3,0,0,0,-1,0,0
4386550201,-2,4,-2,1,-1,-1,0,4
4386556967,-2,1,0,1,-2,-6,1,2
4386556967,3,5,2,0,-3,1,1,4
4386572629,-5,-7,-3,-4,-3,3,0,-1
4386572629,-2,-3,-4,0,-1,0,0,-1
4386579435,-1,4,-3,-1,-7,-1,5,-1
4386579435,1,-4,-5,4,2,2,3,-1
4386586955,-1,-3,0,2,6,0,-1,3
4386586955,2,0,2,-2,-1,2,-5,-2
4386595996,-4,-1,-6,-5,0,-2,-3,-2
4386595996,1,1,3,-1,-6,-4,3,3
4386610187,4,1,2,0,-4,3,0,2
4386610187,0,0,-2,-5,-4,-3,-2,-3
4386616936,-1,-3,-1,-2,2,-2,-1,-3
4386616936,-6,-1,-4,-3,0,-3,-4,-5
4386632663,-3,-1,-1,-9,-6,-2,0,-1
4386632663,0,-2,-3,-4,0,-7,-1,-2
4386639458,0,-2,-3,-5,-7,4,-2,0
4386639458,-2,-2,-2,2,4,-2,-1,-4
4386646955,-2,-4,1,1,0,-1,-4,-3
4386646955,1,-1,-2,-3,-3,-1,0,-1
4386655980,-6,-2,-2,2,2,4,6,-3
4386655980,1,2,1,-2,-5,0,-3,1
4386670169,1,-1,-3,-1,-2,-2,-3,-3
4386670169,1,0,-2,0,5,-6,-2,-3
4386676975,-2,0,-2,-3,-6,-2,0,0
4386676975,2,-6,2,-5,-5,-1,-11,-4
4386692641,0,0,-3,-5,-4,-2,2,1
4386692641,3,0,-6,-2,-6,0,-1,3
4386699446,-2,0,2,-2,2,-2,1,1
4386699446,-2,0,-2,-3,-2,-4,-3,0
4386715815,-5,0,-4,-1,-1,-2,1,-2
4386715815,-2,-2,-2,1,5,0,-3,0
4386717402,0,-3,1,-1,1,3,-1,-2
4386717402,-1,-1,-5,-5,-5,-3,-2,-2
4386730126,-2,-2,2,0,4,0,-2,-2
4386730126,1,-1,-2,-1,-2,-1,3,0
4386736974,1,1,3,3,2,1,-4,-3
4386736974,-4,0,-2,-8,0,-4,-3,1
4386752730,1,3,-1,-1,-3,0,0,0
4386752730,-1,0,-3,-3,0,2,1,-2
4386759478,4,-1,0,-2,0,-4,-3,1
4386759478,-1,-2,-3,5,2,6,5,0
4386783329,-1,-2,-1,0,4,-3,-5,0
4386783329,0,1,0,1,-1,0,-1,1
4386784923,-2,1,4,5,-3,-4,-3,1
4386784923,-5,-7,2,-1,-3,4,1,3
4386790118,3,1,-2,2,-1,-4,-1,0
4386790118,-3,-5,1,3,3,2,0,0
4386796975,-6,3,-1,-3,-1,-6,-5,2
4386796975,3,2,2,2,-2,0,0,-4
4386812671,4,6,0,3,0,2,-3,-1
4386812671,-1,4,-2,-9,-2,-6,-7,-5
4386819449,-3,-2,-1,-1,-3,-3,-1,-1
4386819449,-3,0,-3,0,5,-4,2,-2
4386835816,2,-4,-5,-11,-9,-4,0,0
4386835816,-4,-1,-1,-2,-6,3,-3,-3
4386837422,1,0,-2,-2,-4,-2,-6,-2
4386837422,1,2,1,0,-4,-6,0,1
4386850111,-5,0,-1,0,1,-1,-1,-5
4386850111,1,-1,1,1,-1,-1,2,1
4386857010,6,-3,2,0,1,5,6,-2
4386857010,-1,-3,-1,0,0,-2,-1,2
4386872680,-4,0,-3,-3,-2,-3,1,3
4386872680,0,-1,0,0,3,-4,2,0
4386879479,1,2,-4,-1,-4,-2,-3,0
4386879479,-1,-2,-3,-3,3,2,-5,-3
4386895855,-3,-5,-2,-6,-4,0,-1,1
4386895855,-4,-3,-2,-4,-2,-2,-5,0
4386897420,-3,-2,-7,-1,-2,-5,2,-2
4386897420,2,2,0,-5,-7,-3,-1,0
4386910155,-1,0,-3,-3,-1,-1,-4,-5
4386910155,3,-1,6,0,0,0,-3,-4
4386916997,1,-1,0,-7,-5,1,-3,-5
4386916997,-4,-3,-3,0,2,2,2,-6
4386932679,3,-2,2,-3,2,-3,-1,2
4386932679,-1,2,2,-4,-8,-1,-1,2
4386939444,1,-5,-4,2,-3,-1,5,1
4386939444,-3,1,-5,-3,-4,-1,0,-4
4386955843,-1,-2,-2,4,4,2,0,-1
4386955843,-4,-3,-1,-6,-4,-2,4,1
4386957463,-3,0,0,-2,-3,-6,-5,3
4386957463,-9,-6,0,-4,5,-2,-3,-2
4386969456,-2,4,0,-5,-7,-3,0,-2
4386969456,-1,1,1,2,1,1,-4,-3
4386984498,-3,-3,1,0,4,3,0,0
4386984498,1,-2,-2,-6,-9,-5,-1,-1
4386992652,-5,-5,-3,-1,1,3,-1,-5
4386992652,-1,-6,-6,-10,-3,-5,-2,-1
4386999448,-3,-1,2,-5,-2,1,-1,-6
4386999448,-2,0,-4,4,0,-3,-1,3
4387015824,-6,-7,0,-5,2,2,2,-1
4387015824,-1,2,-5,3,0,1,1,-4
4387017384,2,-1,-1,2,4,-1,3,-1
4387017384,0,2,-1,-2,3,0,3,-2
4387038335,6,2,-2,-4,-6,-3,-2,2
4387038335,-1,0,-1,1,0,3,-1,3
4387039945,-3,-2,-1,-2,0,-2,-3,2
4387039945,-5,-3,-3,-4,0,2,-4,0
4387052674,4,4,7,6,3,-3,-1,1
4387052674,0,-4,-2,-1,-3,-2,-4,2
4387059460,-3,0,-3,-4,-3,0,0,-5
4387059460,1,-1,3,-1,-5,-4,-2,2
4387075847,0,3,-2,1,-1,0,-1,-5
4387075847,1,2,-2,-2,-3,4,3,-4
4387077426,2,1,3,4,-1,-2,3,-2
4387077426,0,5,1,1,-2,-5,2,-4
4387089491,1,-1,-1,-3,1,0,-1,-2
4387089491,1,1,1,3,3,-4,-2,2
4387098445,-3,-3,-5,-6,-3,-1,-1,-2
4387098445,-1,-2,3,2,3,0,0,-1
4387112677,1,3,-2,0,-3,0,0,-2
4387112677,1,-2,-1,0,0,-3,1,-4
4387119455,-2,1,3,-1,-6,1,-4,-3
4387119455,1,2,2,0,-2,-3,-2,-4
4387135809,-3,-4,-1,-4,0,-3,1,-4
4387135809,0,2,3,3,0,-4,2,3
4387137379,1,-1,0,1,-1,-6,-1,-1
4387137379,-1,-6,-5,-3,-3,0,-3,1
4387149542,-4,-3,-6,-1,1,-2,0,-4
4387149542,-1,-2,2,-2,0,-5,-1,2
4387158501,-2,-5,-7,-3,8,2,1,0
4387158501,1,2,1,0,-4,-2,-1,-3
4387180853,0,-6,4,2,-2,-3,-1,0
4387180853,-1,-1,-3,0,-4,-1,4,-2
4387182383,1,5,1,-1,-3,-6,-8,0
4387182383,-1,0,-3,-2,-4,1,2,-2
4387195796,-1,-2,-1,-2,1,-1,-3,1
4387195796,0,1,-1,-1,-2,0,2,0
4387197427,1,3,0,-1,2,-3,0,0
4387197427,0,-3,-1,-1,-2,0,-5,0
4387209484,-2,2,3,-3,-4,-3,0,3
4387209484,-4,-2,-6,-2,-4,-2,-6,0
4387218435,-3,0,2,-9,-6,0,0,-5
4387218435,1,2,1,-1,-2,-3,-3,-1
4387240844,1,-2,0,0,1,-1,3,1
4387240844,-1,0,-5,-2,-1,-2,-2,-8
4387242442,2,-1,-1,6,-3,5,3,-2
4387242442,-2,-1,-6,-2,0,-4,-2,-2
4387255824,0,-4,-4,-2,-1,5,-4,-1
4387255824,-2,-2,1,-4,-1,-2,3,-5
4387257460,-2,-5,-7,-2,-7,-1,-2,3
4387257460,0,-1,3,-8,-1,-5,1,-3
4387269477,-1,-4,-7,-4,-6,-2,-4,-1
4387269477,-2,0,2,-6,-4,-1,-6,6
4387278459,0,0,0,4,4,-3,0,-1
4387278459,3,0,-4,1,-1,5,-2,0
4387292655,-4,-2,0,-2,0,-1,-3,0
4387292655,5,-7,1,-5,-3,-1,-4,-3
4387299485,-3,-2,-5,-6,-1,-4,-5,-5
4387299485,-3,-8,-3,-6,-2,-5,2,-3
4387315867,3,1,-2,1,0,-1,4,0
4387315867,0,-2,0,0,-1,4,-1,-3
4387317445,2,-5,-3,-1,2,-4,1,3
4387317445,0,0,0,-3,-6,0,-2,1
4387329476,-2,1,-3,-4,-2,-3,2,-1
4387329476,-4,-1,2,-2,-2,-1,0,-5
4387345951,-4,-2,-1,-4,-3,-4,1,-2
4387345951,-4,-1,-2,-2,1,0,-3,-2
4387352626,-3,-1,0,-3,-3,0,-2,-3
4387352626,-1,-2,-3,2,-3,2,-2,-1
4387359472,-1,-2,1,-2,1,3,-1,0
4387359472,-5,-4,2,-2,0,-1,0,-1
4387375816,-2,1,0,1,2,-2,-1,-5
4387375816,0,-5,-8,-5,4,-4,0,-4
4387377442,0,2,-3,-1,-1,2,-2,-4
4387377442,1,-3,0,1,-6,-2,-4,-1
4387389513,0,-1,-2,-1,-4,-5,-6,1
4387389513,2,-2,0,3,6,0,-2,6
4387398418,0,-1,-2,-2,-1,-3,-1,-1
4387398418,-3,2,-5,0,0,3,-1,-1
4387412658,-1,-4,-2,-8,-2,-3,-3,-5
4387412658,-4,4,-1,-4,-5,-2,-1,1
4387419499,-4,-6,-4,-1,0,0,0,6
4387419499,1,1,-3,4,4,-3,3,-4
4387435811,-2,-4,-1,1,0,1,0,1
4387435811,1,1,-1,4,-7,3,2,-5
4387437422,1,-2,-1,4,-2,3,0,-1
4387437422,0,0,-4,-3,2,4,0,0
4387449478,-3,2,-1,6,1,1,4,6
4387449478,-2,-1,-1,1,-1,-1,-5,2
4387458463,-2,-3,2,2,2,-2,0,-1
4387458463,0,-4,1,1,3,-2,-1,-3
4387472665,0,4,1,3,-2,-2,-4,0
4387472665,-4,1,-5,-1,6,-4,-2,0
4387486970,0,7,-2,3,0,1,0,-3
4387486970,-3,-5,-3,-2,-2,-2,-2,2
4387495214,5,1,-2,-12,-9,-3,-5,-2
4387495214,-5,1,-2,-1,2,-2,-2,-3
4387501953,0,-1,-3,-2,-2,-5,-3,-2
4387501953,4,1,1,2,-4,-3,0,-1
4387509477,1,-4,3,0,-2,1,-1,-4
4387509477,-1,-2,2,0,4,-1,3,-1
4387518438,3,0,-3,-1,1,1,2,-4
4387518438,-2,1,0,-6,-7,-6,-8,0
4387532661,-2,-2,-3,-6,-1,-4,1,-7
4387532661,3,6,-2,2,-2,0,-1,-1
4387539457,-2,-4,-2,-1,-2,0,-1,-1
4387539457,0,-8,-3,-5,-3,-3,-5,-3
4387555201,-5,-2,-1,2,1,0,5,0
4387555201,-3,2,5,-3,0,-1,-1,3
4387561947,-3,-5,0,-5,-2,0,-7,-1
4387561947,2,2,-3,-1,-1,2,-2,-1
4387569426,1,0,0,3,-1,-2,0,2
4387569426,0,-2,-1,2,-1,1,3,-2
4387578543,-2,0,3,-5,-2,-2,-5,-3
4387578543,1,2,-7,-1,1,1,1,-4
4387592672,-3,-2,0,-5,-5,-1,-8,-2
4387592672,-3,1,3,0,-4,-3,-3,-3
4387599473,0,3,2,-1,-2,1,-2,1
4387599473,-3,-5,-2,-2,2,-3,2,-2
4387615149,-1,0,-1,-2,-4,-1,-1,-1
4387615149,-4,-7,-7,-4,0,-1,-5,-4
4387621931,-1,-5,-2,1,-1,-4,-7,-2
4387621931,-3,8,3,-3,-4,2,1,0
4387638318,-7,-4,-2,0,0,-3,-5,-2
4387638318,1,-4,0,-5,1,-4,-2,-1
4387639897,2,0,0,-4,-6,-3,4,0
4387639897,0,-1,-2,-3,1,0,1,2
4387660871,-2,3,-4,-2,0,1,0,-1
4387660871,1,-2,-5,-1,-3,-2,1,-2
4387662413,-3,-5,-3,-7,-3,-4,-1,-3
4387662413,-1,-1,1,-3,-4,-5,-8,-1
4387675155,-3,2,2,-1,4,-1,-3,-2
4387675155,-4,-5,1,-3,-1,-3,-4,-3
4387681975,1,1,-4,-1,-1,5,0,3
4387681975,-2,-2,-1,-1,-2,-1,-3,0
4387698302,0,-4,-3,2,-3,-4,4,-2
4387698302,0,-1,3,0,2,-4,4,0
4387699922,-3,2,-4,0,3,4,-1,1
4387699922,-3,-5,-1,-4,2,0,-3,-3
4387712595,0,-4,-6,-4,-1,-3,0,-2
4387712595,0,2,0,-3,-3,0,-3,3
4387719515,0,-4,1,-1,-8,-2,3,-1
4387719515,-2,-2,0,-4,0,0,3,-2
4387743325,2,-2,1,-1,-1,-5,1,3
4387743325,2,-3,-5,1,-2,-5,-2,-3
4387744939,0,-5,-1,-1,2,0,0,-1
4387744939,1,-1,-5,3,-5,2,-1,1
4387758319,2,-4,1,-4,2,1,-3,-3
4387758319,2,-1,-4,-1,2,2,-4,1
4387759946,-1,5,-1,2,5,-1,-1,-3
4387759946,1,-2,-2,1,1,-2,1,0
4387772674,-2,-1,-2,5,5,1,2,-1
4387772674,0,-2,2,1,-1,2,1,-2
4387779474,-2,-3,-5,-7,-5,-1,-2,-7
4387779474,-3,1,0,0,1,-3,0,-1
4387795197,-4,-4,3,2,-2,1,-2,-3
4387795197,-5,2,-1,-4,-3,1,1,0
4387802000,-4,-7,-3,-4,-10,-3,-3,-5
4387802000,-1,-2,-1,-5,-4,-3,-2,0
4387818337,-2,-4,-4,-13,-6,-1,0,-1
4387818337,0,-1,-5,-4,1,-4,3,-2
4387819887,1,4,0,-1,-6,-1,-2,1
4387819887,-2,-1,-3,-1,0,-1,0,-5
4387832718,2,-2,-6,-5,-4,-1,-8,-2
4387832718,0,-4,0,-3,1,2,-6,-2
4387839527,-1,4,-2,-1,2,-5,-3,-1
4387839527,-4,0,-1,3,-1,3,2,-2
4387855184,2,4,0,-1,-2,-4,3,-1
4387855184,-2,-4,-1,-7,-4,0,2,-2
4387861975,0,-3,-3,-1,3,-2,-1,3
4387861975,-1,3,6,-1,-2,0,-6,0
4387878391,0,2,-5,-1,6,0,-3,-1
4387878391,-2,4,2,0,-4,2,-1,-3
4387879919,-8,-1,0,-1,-3,1,1,-1
4387879919,1,0,-5,-2,0,0,-2,-1
4387891985,-3,-2,0,-1,0,-1,-2,0
4387891985,1,2,-1,-1,-1,1,-2,2
4387900937,-1,-10,-1,-4,-1,0,-3,-3
4387900937,-3,2,-2,-1,0,1,-2,0
4387915150,1,-2,1,-1,-2,0,-5,0
4387915150,0,-4,0,2,3,-1,-5,0
4387922036,2,-1,-2,0,0,-2,0,-2
4387922036,-3,-2,-1,-1,2,-3,-4,-3
4387938364,-3,1,2,0,2,-3,0,0
4387938364,1,2,-2,1,2,-2,1,-3
4387939905,1,2,0,-4,-4,1,-5,1
4387939905,-3,-8,-3,-5,-4,0,2,-5
4387952001,-5,1,1,-3,-8,0,-2,3
4387952001,-7,-3,-3,-1,2,-5,-1,1
4387961031,0,0,-2,3,7,-2,0,1
4387961031,3,-3,1,-1,-2,-3,-5,-4
4387975277,-2,2,-4,-3,-2,1,-1,-3
4387975277,-2,1,0,-4,-2,-2,4,-7
4387982005,0,1,-4,-3,-3,0,1,-1
4387982005,0,0,1,-1,-3,1,0,-1
4387998450,-1,0,-2,-3,-2,0,0,-4
4387998450,1,-2,-2,-1,1,-2,-7,1
4388000000,-3,2,-3,-3,1,-2,0,2
4388000000,2,0,-6,-2,0,-6,-1,-1
4388012806,4,-3,3,1,5,-3,-1,-2
4388012806,-1,1,-1,2,-3,-4,-1,-3
4388019468,-4,-2,-1,-3,0,3,-3,-2
4388019468,-1,0,-3,1,1,3,-1,2
4388035221,-5,-6,-1,-1,8,1,2,-2
4388035221,1,0,0,2,-7,0,2,-1
4388042068,2,-3,0,-1,1,-4,-3,-3
4388042068,0,0,2,-4,-5,0,-1,1
4388058457,0,0,-2,-1,-5,-2,-4,-2
4388058457,-1,2,0,-3,-1,0,-1,0
4388060015,-5,-4,-3,-1,-1,2,1,-2
4388060015,0,-3,-1,-3,-2,-3,-2,0
4388072898,-2,-6,-1,-2,-5,-2,3,1
4388072898,-4,-6,-1,0,1,-1,-4,-1
4388079617,-2,1,0,3,-1,1,1,-4
4388079617,0,-2,-1,-3,0,-5,-4,-5
4388095238,3,3,-1,4,-3,-4,-1,2
4388095238,0,1,3,-1,-3,0,0,-4
4388101989,-4,-3,-5,-2,-6,-1,0,-2
4388101989,-2,-3,-2,-1,-4,-4,-2,-1
4388118347,-4,-1,-1,-5,-4,-2,1,-3
4388118347,3,1,-1,-3,-6,-2,-4,-2
4388120042,2,-3,2,0,-1,-2,2,-4
4388120042,0,-1,0,-1,4,0,-3,0
4388132041,-2,3,-2,-6,-4,0,1,-5
4388132041,-5,-1,-3,-2,-3,1,0,3
4388141094,7,-1,1,-1,-5,1,2,6
4388141094,-5,-4,-2,-1,-1,4,5,1
4388155351,1,-3,0,0,0,-2,-2,1
4388155351,-3,-3,-1,0,6,-1,0,-1
4388161975,0,-2,-1,-1,-4,-2,1,0
4388161975,-4,-2,-2,0,1,2,0,-1
4388178382,2,-6,-2,-3,-2,-1,0,-7
4388178382,4,-2,-3,1,2,0,3,-3
4388179968,-1,2,0,0,5,-4,0,-3
4388179968,-1,5,0,-2,2,-2,0,2
4388200372,-6,-1,-3,2,2,1,1,-3
4388200372,5,0,-1,-2,-2,-3,-5,-3
4388201045,-2,-1,3,-1,-5,-4,-2,-3
4388201045,0,-4,-3,-3,-4,-2,2,-2
4388216079,0,0,-5,2,1,3,-3,4
4388216079,-1,-2,1,2,-6,2,-2,-4
4388221975,2,-2,-4,-3,1,0,-5,-2
4388221975,-2,0,-3,-4,-7,0,0,-3
4388237775,-2,5,-1,-2,3,-6,-3,-2
4388237775,-4,-3,-3,-1,-3,-5,1,2
4388238592,-4,-1,-3,-3,-1,-2,-7,-4
4388238592,0,3,-1,2,4,-1,0,0
4388260191,0,2,1,6,2,1,2,-2
4388260191,-5,-2,-1,-6,-3,1,-2,-3
4388260967,-1,-2,-2,-4,-3,-5,-3,-4
4388260967,-6,-1,-3,-3,1,-3,-4,1
4388276120,0,1,1,-2,1,-1,1,-5
4388276120,-1,3,-3,3,1,-2,0,1
4388282154,-1,-5,-5,-3,0,1,-2,0
4388282154,1,-1,0,-2,-1,-3,1,-2
4388297703,-2,-2,1,-6,-7,0,-5,6
4388297703,-1,0,-3,1,0,1,7,2
4388298487,-4,4,-2,-2,1,-4,0,-4
4388298487,2,-1,3,8,4,2,-2,2
4388320239,-1,-2,-2,-1,-4,-1,1,3
4388320239,-1,-4,0,0,-2,-4,0,-5
4388321025,1,3,1,2,0,6,2,0
4388321025,-3,-11,-3,-2,-3,-3,-4,-6
4388335995,-1,-2,-2,4,-5,-2,-3,-2
4388335995,-3,-4,-4,-3,2,2,1,2
4388342040,-2,-1,-1,-7,-7,-3,-2,-2
4388342040,-1,2,0,-1,1,-5,-1,-3
4388357707,0,-3,-1,-3,1,0,3,2
4388357707,-2,0,1,-2,2,-4,0,-5
4388358517,-3,-2,-1,3,3,-2,-1,3
4388358517,0,-1,0,-3,-4,-2,1,-5
4388380346,2,1,-4,-1,0,-1,-3,3
4388380346,2,-1,1,-1,-1,3,-4,2
4388380988,0,2,4,0,1,-7,-3,-1
4388380988,2,4,-1,4,3,2,-1,-1
4388396024,4,-1,0,2,3,0,1,-2
4388396024,2,4,-1,4,2,-3,-3,1
4388402019,0,-4,-1,-5,-5,-6,1,-4
4388402019,-1,1,2,1,-4,-3,0,-1
4388416989,3,-3,-1,4,-2,0,1,-1
4388416989,0,-6,-2,-4,-3,-1,-3,2
4388432700,-3,-10,-2,1,-6,0,-1,1
4388432700,-1,-2,-3,-8,-2,-7,-3,0
4388440172,0,0,-5,-2,1,-1,-1,-2
4388440172,-2,-4,3,1,-2,-3,-1,0
4388441033,-2,-2,0,-2,0,2,4,0
4388441033,-1,-2,-3,-6,-4,2,0,2
4388455997,-3,0,2,-6,-4,0,-2,-3
4388455997,-1,1,-5,0,5,1,-4,2
4388462058,3,-3,-3,-2,5,1,-3,0
4388462058,4,-1,2,0,-3,6,1,0
4388477011,-2,1,2,-5,1,-5,-6,-7
4388477011,-3,-1,0,-4,-5,-3,-5,-3
4388484548,0,4,1,3,9,-2,-3,1
4388484548,-2,1,-3,2,1,2,3,2
4388500170,-3,-1,-4,-4,-2,1,5,2
4388500170,1,2,1,-4,-3,-1,3,-7
4388500974,1,-2,-1,0,-2,2,-3,-1
4388500974,-3,-6,-2,-9,-5,-4,-2,-2
4388515970,-5,2,-3,0,2,0,-6,-3
4388515970,0,0,-1,-3,0,-1,1,2
4388522042,-2,-2,4,3,-2,1,3,-2
4388522042,2,-4,0,4,9,0,3,0
4388537031,-2,-2,0,-2,-5,-1,-2,-2
4388537031,-3,1,-2,1,0,3,-5,-4
4388544496,-4,-1,-1,-7,-2,-2,-1,0
4388544496,-2,-2,-2,-1,1,-1,-3,4
4388560150,1,0,0,0,2,-2,3,0
4388560150,-1,-6,0,-3,-5,-1,2,0
4388560929,2,4,-2,-2,-5,2,-3,-6
4388560929,-4,-1,2,-5,-5,-4,-7,-1
4388576038,-3,-5,-4,-2,0,1,0,4
4388576038,-1,-1,1,-5,-2,-5,-2,-2
4388582037,-2,-2,-4,-3,0,-3,2,-1
4388582037,-1,-1,0,-2,-5,-1,-5,-3
4388597195,4,3,3,-2,-11,0,-4,-3
4388597195,-2,0,-6,-1,-1,-5,4,-1
4388604674,-1,-1,-2,-4,-1,-2,-3,-3
4388604674,-3,-1,2,-1,2,-2,-1,-4
4388621866,-5,-5,3,-4,-3,-3,-2,-3
4388621866,2,-3,0,-2,-3,-6,-2,-2
4388622544,1,0,-1,-2,-3,-4,0,-1
4388622544,-4,-1,-6,-4,-5,-2,1,-3
4388636027,2,-4,4,0,0,3,2,-1
4388636027,-3,0,3,2,2,3,4,1
4388642158,-1,-2,2,-1,-6,0,-7,0
4388642158,0,-1,-6,-2,-1,0,-2,-3
4388657054,-3,-1,-4,1,1,-2,1,1
4388657054,-5,-3,-1,-4,-7,-5,-4,-3
4388664670,0,-3,2,-1,2,-3,4,-3
4388664670,0,-4,-1,-3,0,3,-2,-3
4388680413,0,-5,-5,-3,3,-2,1,-3
4388680413,-4,-4,-7,-2,-1,-1,-4,0
4388681011,-1,-5,-1,-5,-5,-6,-1,-1
4388681011,1,4,-1,-2,-6,0,-4,1
4388696204,3,-3,-2,-4,1,2,-1,-5
4388696204,-2,2,-2,4,4,0,0,2
4388702095,-1,0,0,0,4,0,4,2
4388702095,-3,2,2,7,3,-1,-1,1
4388717212,1,-3,-2,0,-2,-1,0,6
4388717212,1,-2,0,2,1,4,2,-2
4388724620,1,0,-1,7,7,5,3,-1
4388724620,-1,-3,1,-2,-3,-2,-2,-1
4388740165,-4,3,0,4,4,-1,1,1
4388740165,-1,-3,-2,-5,-2,-5,1,-2
4388740935,2,4,0,2,-3,0,-5,2
4388740935,4,3,2,-2,-4,-4,-1,-4
4388756009,4,6,-1,5,-5,-1,-7,0
4388756009,-2,0,-1,-4,-7,3,-3,-3
4388762030,-1,-1,-4,1,2,-2,-2,-2
4388762030,3,-6,-1,6,7,3,4,-2
4388776926,-3,2,-3,-2,-1,-5,-3,-1
4388776926,2,4,-3,2,-1,1,-4,2
4388784476,1,0,-7,-5,-2,0,-2,-5
4388784476,-1,-6,-1,-3,1,-4,2,-2
4388800108,-1,-3,0,1,3,-3,0,3
4388800108,1,-3,-1,-3,4,-2,2,-4
4388800907,-5,-4,-1,-5,-5,2,1,-2
4388800907,-4,4,-1,-5,-1,-4,-3,0
4388824225,-2,1,-4,-4,-3,2,-5,-2
4388824225,-1,-2,-1,1,-3,-7,-6,0
4388824984,-1,2,1,1,0,0,0,0
4388824984,3,1,0,-2,-9,-4,-2,-4
4388837190,0,1,3,-5,-8,-2,3,-7
4388837190,2,-2,3,0,-3,0,-2,3
4388844600,0,-6,0,-5,-4,-5,-3,1
4388844600,-2,-3,-1,-5,-4,-2,-2,-2
4388860319,-2,-8,0,-4,2,-2,-2,-3
4388860319,2,-2,-2,0,0,0,-1,-4
4388860950,-5,-1,1,-8,-11,-9,-6,-1
4388860950,-1,-3,-5,-7,-2,0,0,5
4388876053,-1,-1,3,-5,-4,-4,-1,2
4388876053,-3,-7,-2,-6,-2,-1,-1,-2
4388882182,-4,-2,-1,2,5,-1,1,-1
4388882182,1,-6,-6,-4,-2,-3,-2,0
4388896977,-1,-5,0,-5,-4,-4,-4,-5
4388896977,-2,4,-2,-6,-9,-3,-2,1
4388904435,4,-1,0,0,-4,2,2,-4
4388904435,-3,-2,-3,-3,-1,1,-1,-4
4388927665,1,-3,-3,-2,4,-7,-1,2
4388927665,-1,-2,3,0,-6,-2,0,-2
4388928456,-3,-6,0,-1,-3,-2,-1,0
4388928456,-1,0,1,-1,-4,1,0,2
4388935962,0,-1,0,-4,-8,-1,-2,1
4388935962,-1,-3,-1,-1,0,-5,-4,-1
4388941930,1,2,-8,-2,-1,-3,-1,1
4388941930,-5,-2,7,1,-2,-3,0,5
4388956948,-6,1,0,4,2,-1,4,-2
4388956948,-6,-3,-1,-5,-8,0,1,-2
4388964450,0,-3,-3,-4,1,4,1,-1
4388964450,-1,-2,1,-2,-4,0,-3,-7
4388979894,-1,1,-6,-4,-9,-6,-2,-3
4388979894,-3,-1,-1,-4,0,-3,0,-5
4388986941,-4,-3,-2,-5,-6,-5,-4,0
4388986941,-1,2,1,-1,0,2,-4,-1
4388996010,3,-6,1,4,1,4,-3,-5
4388996010,-1,-1,1,2,8,-4,0,1
4389001979,2,2,4,-1,0,0,-1,0
4389001979,0,4,0,-2,-3,1,-1,-4
4389016984,-1,3,0,-6,-2,-3,-1,-3
4389016984,2,-3,-2,-3,2,4,0,-1
4389024481,-2,-1,-5,3,-1,0,2,-3
4389024481,2,-1,2,0,-1,-7,-2,4
4389040086,-2,-6,1,-3,2,0,-3,4
4389040086,-2,0,1,-1,-1,-1,2,-4
4389040914,0,1,0,-2,-5,1,-4,-2
4389040914,1,0,-3,-2,-7,-3,1,-3
4389055958,1,2,-6,2,1,3,1,1
4389055958,-3,-8,-2,0,-1,-2,-4,-1
4389061975,2,-1,-4,-2,-1,1,0,0
4389061975,-2,2,-1,-2,0,-4,1,0
4389085150,0,0,0,-5,-2,0,-1,0
4389085150,5,3,2,2,0,-4,3,2
4389085968,0,-5,0,1,0,-4,1,1
4389085968,-3,1,-1,1,3,2,6,1
4389100164,-2,-1,0,2,-3,0,-2,-4
4389100164,2,0,-4,1,0,-1,2,0
4389100948,-4,-2,-2,-2,-3,-2,-4,3
4389100948,-4,-6,-7,-2,3,-4,-4,4
4389116411,-2,0,1,-6,-5,1,-1,-2
4389116411,0,-1,2,-7,-9,1,2,-4
4389121977,1,4,-2,1,0,-3,3,-1
4389121977,-8,-3,0,2,-1,1,1,-1
4389136989,-2,-1,-4,3,4,1,0,0
4389136989,-6,-2,-4,4,1,-1,-3,-2
4389144481,2,0,3,-3,-2,-3,-5,-5
4389144481,3,-1,-1,-4,-4,0,-3,-5
4389161677,2,-2,3,3,1,-1,3,-2
4389161677,4,-3,-5,-4,-1,0,-1,-2
4389162456,-1,-2,0,-3,-1,-3,-2,-4
4389162456,0,1,-6,0,-2,-1,-3,-1
4389175992,-3,-4,-2,-4,-1,0,0,-3
4389175992,-1,2,-2,5,-1,-1,-5,-2
4389181979,-1,2,-3,-5,1,3,5,-2
4389181979,4,-7,-3,-1,0,1,2,-4
4389197011,-2,1,2,-6,-9,-7,-4,1
4389197011,-4,-3,0,-2,-3,-4,-4,0
4389204531,-4,2,1,-6,-8,-3,-2,-2
4389204531,-7,-1,-2,-2,-1,-1,2,-4
4389220172,-6,-6,-4,-6,-4,-4,3,0
4389220172,2,1,-2,2,3,0,3,2
4389220945,3,-3,-1,-1,-2,1,-1,-1
4389220945,1,-8,0,-7,0,-2,-3,-1
4389235986,4,0,1,-2,2,-1,-1,2
4389235986,0,-3,-1,-6,-6,4,0,-1
4389241979,-3,-3,-8,-4,0,-5,-4,3
4389241979,2,0,0,-2,0,-1,-2,-1
4389265140,7,-2,-4,1,3,1,-4,-2
4389265140,-5,-4,-2,-7,-3,-4,-4,-7
4389265915,-5,-5,-3,-3,0,2,0,2
4389265915,0,-2,-5,0,-2,2,-1,-3
4389280161,-3,-3,-2,-3,-3,-2,4,-2
4389280161,-7,2,1,0,0,2,2,1
4389280951,-4,-3,0,-2,0,-2,-3,-3
4389280951,-3,-2,-1,0,2,-3,-6,2
4389295987,-3,0,2,-3,-4,3,-6,-2
4389295987,3,-4,-2,5,1,2,4,1
4389301981,-4,-7,1,2,3,2,-2,-1
4389301981,1,-1,-5,-2,-4,1,1,-1
4389316983,-5,-3,-1,-1,-2,1,0,-2
4389316983,0,-6,-1,-4,-1,-2,0,-5
4389324488,-4,0,-1,0,-3,-2,0,0
4389324488,-3,3,1,-4,-4,-2,1,0
4389347668,-1,0,-2,-1,-1,-4,-2,0
4389347668,0,0,-2,-7,-4,-4,-3,0
4389348471,1,2,0,4,-2,3,4,-3
4389348471,0,2,4,0,1,0,-4,-3
4389356064,-5,0,0,-1,0,-3,1,-1
4389356064,3,-2,4,0,1,0,-3,0
4389361971,0,0,0,-4,-3,-1,2,-4
4389361971,-1,-6,1,-4,-2,-6,-6,2
4389376999,-5,0,0,-2,-4,0,-1,-2
4389376999,1,-1,1,-5,-3,-2,1,-2
4389392720,0,-3,-5,-1,3,2,-2,0
4389392720,1,2,1,7,2,2,4,-2
4389399492,2,-5,0,2,6,-1,-2,1
4389399492,0,0,-2,2,-3,-2,5,0
4389407004,4,2,5,4,-3,0,-3,0
4389407004,2,4,0,1,6,0,-4,0
4389415959,3,-2,-1,4,1,0,7,-3
4389415959,0,1,-2,5,3,3,3,-3
4389422022,-3,-3,1,-3,-2,-4,1,-2
4389422022,-5,-7,-3,-9,-7,-1,-1,1
4389436969,-4,1,0,-5,-6,-2,2,0
4389436969,-3,3,0,-8,-3,0,-4,0
4389444514,2,3,4,2,-1,-1,-3,-4
4389444514,0,3,0,6,5,-1,2,-1
4389459490,4,0,-5,-2,0,-1,-1,-5
4389459490,-2,-1,-1,2,-1,-3,0,2
4389466984,4,2,-1,-1,-2,-2,-2,-2
4389466984,-4,-6,0,-5,-4,-1,3,-5
4389476013,-3,-6,-5,-7,-5,0,-2,1
4389476013,0,3,2,-2,-1,-4,-9,-1
4389482007,-1,-5,1,-3,0,-3,-5,-1
4389482007,0,4,-2,7,0,3,0,-1
4389496987,-1,1,3,-1,1,-2,2,-1
4389496987,-2,-1,-1,-4,-10,-2,-2,-3
4389504498,1,2,-2,-1,0,1,2,4
4389504498,0,-3,1,0,-5,-2,2,0
4389519507,0,-1,1,-2,-3,-7,-4,-5
4389519507,0,-1,-2,2,1,-2,-2,-3
4389526972,-1,4,0,7,-1,2,2,3
4389526972,1,-2,-3,-5,-8,0,-2,4
4389542708,3,-2,5,4,-3,-1,0,3
4389542708,-2,-2,-4,-6,-6,-3,0,-4
4389543508,-3,-8,-2,-7,-5,-4,0,-4
4389543508,-2,0,0,1,2,-1,-2,-2
4389556944,1,-3,-3,-3,-2,1,-3,-4
4389556944,-2,-6,-3,-2,-3,-3,0,-1
4389564453,-2,5,-1,3,2,-3,-7,1
4389564453,1,-2,-1,-10,-8,-4,-8,-4
4389579479,2,3,-1,-1,0,-1,0,0
4389579479,1,-5,-1,-1,1,2,1,-1
4389586946,-6,-1,-5,-5,-2,-4,-1,1
4389586946,-4,-2,3,-4,-3,-3,2,-5
4389602650,-1,4,1,0,-2,-4,-1,0
4389602650,-3,2,0,-3,6,-5,-3,-2
4389603464,0,-4,-3,-4,0,-2,2,-1
4389603464,-4,-2,-2,-4,3,-3,-4,-4
4389617002,3,-1,0,-2,1,0,-2,0
4389617002,-2,-2,-2,1,-3,-1,-1,5
4389624505,2,-3,-8,-5,-4,0,2,-1
4389624505,0,-1,-3,-1,-4,-2,5,0
4389640995,-6,-1,-6,-2,-2,-1,-5,-2
4389640995,-3,-1,-1,-1,-6,-4,-4,-3
4389647012,-2,-5,0,-5,-6,0,-3,-4
4389647012,2,-3,-5,-5,-2,3,-3,2
4389662665,-4,-5,-4,-3,-5,1,1,-1
4389662665,-3,3,-1,0,-1,5,-3,-1
4389663448,-1,4,2,11,3,-1,1,1
4389663448,0,0,-3,2,0,3,-1,2
4389677004,-3,3,-1,-1,0,0,0,-4
4389677004,5,0,3,-3,-2,-1,3,4
4389684507,-2,-5,5,-2,1,3,-5,-4
4389684507,-1,0,-6,-4,-6,-1,0,-2
4389701070,-3,-3,-1,-4,0,-4,-1,1
4389701070,1,-3,0,-2,-2,2,2,0
4389706964,2,-4,-3,-1,1,-1,3,1
4389706964,0,5,0,0,4,-3,0,-3
4389722702,-4,-3,-5,-3,-4,2,1,-2
4389722702,-2,0,2,1,3,2,-2,2
4389723533,0,-1,0,4,3,0,0,-1
4389723533,0,6,-1,1,3,0,1,0
4389736940,1,2,1,4,2,0,1,0
4389736940,-3,1,-4,-2,5,2,0,-3
4389752672,4,-2,1,-3,1,3,-1,-5
4389752672,-3,1,-4,3,3,-4,-3,3
4389759522,0,-3,-4,-7,0,-2,-3,-1
4389759522,-7,-2,2,-1,-1,-1,4,-2
4389767030,-3,2,-2,0,0,-2,1,-2
4389767030,1,-1,0,4,2,-1,-1,-1
4389782606,0,6,2,4,0,1,2,-3
4389782606,2,0,-4,2,1,-2,1,-3
4389783429,0,0,-3,-2,0,-2,-2,-1
4389783429,3,-4,-1,-1,-4,-1,-2,-1
4389798530,-2,0,1,-2,-3,-5,-4,-4
4389798530,0,3,0,-5,-12,-4,-5,-2
4389804523,0,4,-3,-1,-3,2,0,4
4389804523,-2,-1,2,-3,-7,-1,-2,-3
4389819460,0,4,0,2,-4,0,1,0
4389819460,-1,-2,-2,2,8,-1,-1,1
4389827012,4,7,3,-1,-2,-3,-3,2
4389827012,-3,-1,3,1,1,1,0,1
4389842676,3,-10,-2,2,3,2,3,3
4389842676,0,2,-1,-1,-4,-1,0,4
4389843417,-2,-2,-4,-3,-1,-1,-4,2
4389843417,1,-5,-3,2,3,-2,-2,-2
4389856999,-3,-2,0,-2,-3,-1,0,2
4389856999,-2,-3,-5,-4,-2,-2,-4,-4
4389864474,-9,-3,-2,-7,-4,-3,1,-7
4389864474,0,5,1,0,-5,3,3,-4
4389879489,-4,-1,-3,-5,-3,2,-2,-2
4389879489,0,0,3,-1,-2,-2,-3,3
4389887006,-6,-4,-2,-2,1,-2,3,-3
4389887006,2,-2,2,-2,-1,-4,-1,-1
4389902670,-2,-2,-1,-4,1,-2,0,0
4389902670,-1,1,-3,2,1,1,3,1
4389903463,-3,-2,-4,0,-2,2,1,-4
4389903463,1,0,2,6,1,2,1,-3
4389917036,1,-1,-5,-4,-7,1,-4,2
4389917036,-3,-1,-4,0,2,0,1,0
4389924505,0,0,2,0,-5,-2,0,6
4389924505,-6,0,-3,-2,0,-2,1,-3
4389939483,-4,-1,2,1,4,-8,-5,0
4389939483,0,-1,-3,-5,-6,-1,-2,-2
4389946982,-3,3,2,0,-1,-2,-3,1
4389946982,-1,-1,0,-6,-4,-2,-4,3
4389962669,-2,0,0,4,2,-4,-1,1
4389962669,-4,-2,0,-2,1,-7,-1,4
4389963452,0,-4,2,1,-1,0,-1,-2
4389963452,0,-1,-1,-6,-3,0,-5,0
4389976999,-2,1,-2,-3,-1,2,0,-6
4389976999,1,-3,0,-4,-2,1,1,-2
4389984497,6,1,-2,5,2,-1,1,1
4389984497,-5,-8,-1,-3,1,0,1,0
4390007641,-3,0,-4,2,1,2,1,-5
4390007641,-2,-3,-3,-4,-5,-3,-2,-1
4390008445,0,-4,-3,-6,-4,-6,-3,-2
4390008445,-2,3,1,-4,-3,-4,-8,-6
4390022647,0,2,3,-1,0,2,-3,3
4390022647,6,1,1,1,2,-1,-1,-4
4390023447,-3,-1,0,-2,-6,-2,0,2
4390023447,-1,-3,-4,-5,-6,-6,-2,5
4390036998,0,-3,-2,-6,-2,-2,0,-4
4390036998,-2,1,-2,-4,1,-6,-4,-7
4390044521,0,-3,-1,-5,4,0,-4,-2
4390044521,-3,-2,3,-1,-2,-2,-1,1
4390059501,-1,1,-1,-4,-7,-4,-1,1
4390059501,0,-5,-4,-3,-4,-1,-5,-3
4390067003,0,1,0,1,4,-1,2,-2
4390067003,1,-3,-6,-4,1,-1,1,-4
4390082709,-1,-1,3,5,4,1,2,-1
4390082709,-2,-1,3,2,0,0,-5,-4
4390083476,-6,-3,1,-4,-5,-2,-4,-4
4390083476,-1,3,4,-1,-1,1,-4,-3
4390097000,-2,-5,-1,-3,4,-1,2,1
4390097000,3,-1,-2,-1,-6,1,-3,-1
4390104503,-1,-2,-1,0,-1,2,-3,-4
4390104503,-2,-5,-2,-4,-4,-1,-2,1
4390119522,6,4,-3,-3,-8,-4,-1,-1
4390119522,0,-3,2,0,-2,-1,1,2
4390126965,-3,-2,-2,-4,1,-3,-4,-2
4390126965,-2,-1,3,-2,2,0,-1,8
4390150865,-3,-3,2,-1,2,2,-8,-2
4390150865,-4,-5,-4,-5,-1,-1,0,1
4390151637,-3,2,-1,-1,-6,5,-5,1
4390151637,1,2,1,6,2,0,0,-1
4390157012,1,1,0,4,2,-2,2,4
4390157012,-5,0,-4,-2,4,0,0,-3
4390164526,-2,0,0,-8,-5,-4,-2,-4
4390164526,-6,1,-5,1,-3,4,-5,-1
4390179518,2,-4,-3,1,-1,-4,-1,2
4390179518,-4,-2,-1,-3,0,3,-2,-2
4390186980,0,3,2,4,-2,-1,6,3
4390186980,0,-1,-2,-5,-2,1,5,-1
4390202671,0,0,-3,-3,-6,-1,3,-2
4390202671,-2,5,2,1,-4,1,3,0
4390203466,4,-6,-1,-1,2,0,-4,-3
4390203466,-1,-2,-1,0,1,-3,1,-2
4390217011,-13,-7,-5,-7,-7,1,-1,0
4390217011,-3,-1,3,1,-2,0,-3,1
4390224558,1,-1,3,1,-2,0,-2,3
4390224558,2,2,1,5,2,0,5,-3
4390247670,-1,1,-2,-2,-4,-1,-2,-2
4390247670,0,-5,5,5,1,-5,-3,4
4390248464,-1,1,-5,-3,3,-2,2,1
4390248464,-2,2,0,-3,4,-3,-2,-2
4390263095,4,0,-1,-1,0,1,-4,-2
4390263095,1,-1,-1,0,-1,-2,-1,-4
4390278405,-5,-2,-2,-2,-2,-6,-1,-3
4390278405,-2,-1,-1,-3,-3,-6,2,1
4390279978,-3,3,1,-6,1,-2,-5,-3
4390279978,-2,-3,-2,-1,2,3,1,0
4390284495,3,1,-2,0,1,1,2,-4
4390284495,-3,-3,0,-5,-5,-3,1,-3
4390299538,2,-4,5,1,-1,-5,4,-1
4390299538,-2,5,1,0,5,-3,1,2
4390307021,-1,-2,-1,-3,-5,1,-2,-2
4390307021,3,1,1,0,-3,-2,0,-2
4390322000,3,-1,-1,-6,-5,-1,-2,3
4390322000,-1,5,1,3,-3,-4,-2,2
4390330192,-5,-3,-3,0,1,-1,1,1
4390330192,1,-2,-4,-3,-7,1,-7,-3
4390336998,-5,-1,1,1,1,-4,-1,-3
4390336998,4,-3,-3,0,-2,-3,-1,-3
4390344473,0,1,0,0,-1,-1,-4,2
4390344473,-1,-3,-4,3,3,0,-1,0
4390359477,-8,-2,-2,-5,0,2,-5,4
4390359477,1,-6,-3,-2,-5,0,-2,0
4390367002,-2,-1,4,1,-5,-5,-1,-5
4390367002,2,-4,0,3,4,3,2,2
4390381991,-1,-1,-1,2,3,0,3,-3
4390381991,-1,0,-4,-5,-4,-2,-2,0
4390390157,-4,3,2,-6,-1,-3,-7,0
4390390157,-2,0,4,-6,-5,-2,-3,-6
4390396990,-1,-4,-2,-4,-6,-4,-1,-5
4390396990,-7,0,0,-4,-2,-1,0,-3
4390404534,-4,-4,-1,-1,2,0,3,-1
4390404534,-1,2,-4,0,1,2,-2,3
4390419540,2,-1,0,3,7,3,5,-1
4390419540,-2,0,-2,-2,1,2,-2,-3
4390427102,-3,-3,-2,-4,-2,0,-1,-1
4390427102,-3,4,3,6,5,1,-2,-3
4390441996,-1,2,-3,-2,-5,-2,-4,3
4390441996,2,1,-3,0,-1,0,-1,1
4390457734,3,-2,1,5,1,6,2,0
4390457734,-4,-6,-3,-1,-5,-4,-1,-1
4390465186,-1,1,-7,-5,-1,-1,-5,-2
4390465186,-4,-2,5,-2,-2,-3,1,-5
4390465979,-1,-2,-3,4,2,-2,-2,-4
4390465979,-3,-1,-3,-4,2,-1,-4,4
4390479503,-1,-1,7,2,-2,0,3,-1
4390479503,1,-2,-5,-2,0,1,3,0
4390487005,2,2,-5,-5,-5,0,-1,-2
4390487005,-1,3,0,2,-2,-3,4,-3
4390501994,0,4,2,-1,1,-4,-7,0
4390501994,5,-1,-2,-2,-2,-2,-10,5
