timestamp,emg1,emg2,emg3,emg4,emg5,emg6,emg7,emg8
449998155883,2,2,1,4,0,-1,0,0
449998155883,-4,-1,-1,2,0,0,1,3
449998161347,4,-3,0,-2,2,-3,2,-4
449998161347,3,2,1,-8,-5,0,-1,1
449998162152,-2,2,2,-5,2,-5,-3,-1
449998162152,-1,2,-2,1,-3,-2,2,2
449998163796,-4,3,-1,3,4,-1,-2,0
449998163796,-1,-3,0,1,-7,0,-2,-6
449998174349,2,3,3,1,-1,4,2,0
449998174349,0,-1,-1,-3,-1,1,2,-3
449998185843,-6,-4,-1,-1,0,0,0,0
449998185843,-1,-3,-4,4,7,-2,0,-1
449998189330,-2,-2,-5,-2,-2,-2,-2,-4
449998189330,-2,-1,-3,2,4,4,-2,-1
449998204390,-2,-2,0,-5,-2,0,-2,-4
449998204390,-2,-1,-2,-5,2,1,-1,-4
449998213036,-5,-3,-5,-2,4,-2,-2,-2
449998213036,-3,-3,-2,-3,-5,-3,-3,-5
449998220851,1,0,0,-2,-3,-3,-4,0
449998220851,-2,-2,-3,1,-4,-1,1,5
449998234501,-2,-2,0,0,-1,0,2,-2
449998234501,-4,-1,0,1,1,4,0,-3
449998244460,-1,0,-3,-1,-4,1,-1,-1
449998244460,-5,2,-1,-1,0,-3,-2,-5
449998282775,-1,-3,-1,2,1,-2,-3,-5
449998282775,1,3,5,-4,-6,-1,-1,0
449998283613,0,1,-2,-1,3,-1,-2,0
449998283613,-4,-1,0,-6,-7,0,-2,-2
449998284382,-1,-3,-1,2,-1,3,2,1
449998284382,1,2,-5,1,-5,1,-4,-1
449998288188,1,-2,-7,-1,-2,-4,1,-4
449998288188,-2,-2,-2,-4,-5,-2,0,-3
449998294253,1,0,0,-6,-2,-8,-5,-1
449998294253,-5,-3,-1,-5,-5,-1,0,-1
449998303173,-3,-1,2,0,-1,-1,-6,2
449998303173,-1,-4,-4,-3,-1,-5,-3,-1
449998309194,-3,-1,-4,2,-3,4,-1,0
449998309194,-2,-4,0,-1,5,-3,-1,-2
449998325668,3,0,1,2,-1,1,1,-2
449998325668,2,6,-1,3,3,3,-4,-1
449998331679,-3,-2,-2,-1,1,-2,-2,2
449998331679,2,2,-2,2,0,0,-1,-3
449998340670,-4,-1,-1,-1,-2,-2,1,5
449998340670,1,-1,-2,1,-1,-4,-6,2
449998354157,-1,1,2,0,-1,1,6,0
449998354157,-2,2,1,-1,-1,1,-2,2
449998363167,0,-1,-3,-2,1,-3,-2,0
449998363167,2,1,-1,-2,0,0,-4,-4
449998369185,-2,-6,-3,-4,-6,-6,-2,0
449998369185,-1,3,-2,-4,-6,-2,-1,0
449998384212,-5,5,2,-4,-5,-1,-3,-3
449998384212,-1,3,2,1,6,2,6,7
449998391726,0,-1,0,1,-1,0,0,-1
449998391726,-3,-7,1,-4,-9,-1,-3,0
449998400701,0,-2,2,0,-5,-1,-2,-1
449998400701,-2,0,0,-4,0,0,2,-6
449998414263,2,5,1,-3,-1,1,1,-2
449998414263,2,0,0,3,4,-6,-2,-3
449998423264,0,-3,-1,-5,0,-3,0,-1
449998423264,-3,-7,-1,-4,-6,0,-2,2
449998429286,0,0,-2,-3,-6,0,0,1
449998429286,1,-1,0,6,2,0,-2,0
449998444229,2,-2,-2,-7,-5,-1,-2,-2
449998444229,4,2,3,5,5,0,-1,3
449998451749,0,2,-7,-7,0,-3,-4,-5
449998451749,0,-7,1,1,4,1,-2,-2
449998466714,-1,-1,2,-1,-2,1,-1,-2
449998466714,-2,-5,-1,-4,-5,2,0,-4
449998474321,2,-3,2,1,-1,0,-3,1
449998474321,-4,-4,-3,0,3,-2,1,2
449998483169,-3,-5,-5,-3,-3,3,-4,1
449998483169,2,-1,-4,1,0,-5,0,-3
449998489247,2,2,-1,-8,-4,-3,3,-1
449998489247,3,0,-7,-3,-4,-2,1,-3
449998504229,3,-1,-3,1,4,-2,-3,-1
449998504229,-3,-3,-2,-2,-7,1,-1,1
449998511667,-5,-4,2,-6,-4,-1,0,-3
449998511667,0,-4,-5,-4,0,6,0,-3
449998526703,-3,5,1,4,-4,-1,1,0
449998526703,-3,2,0,-1,1,-1,-1,-2
449998534184,-3,-5,-2,1,1,-5,1,-3
449998534184,-3,-7,-4,-6,-3,-3,-1,0
449998543196,-3,0,0,2,-5,1,3,-2
449998543196,-2,-2,-3,-5,-4,-7,-2,-2
449998549173,0,0,-4,-4,-4,-4,2,2
449998549173,-1,3,-2,-2,-7,-4,-2,0
449998564213,-4,-7,3,-5,2,-1,-1,0
449998564213,-4,-1,-5,0,-3,-2,-2,-1
449998571711,-6,-3,1,2,-6,3,2,0
449998571711,-3,3,3,-3,-3,-1,2,-2
449998586664,0,-1,-3,-1,-3,-3,-5,-4
449998586664,0,-5,-5,2,-4,3,0,1
449998602988,0,-3,-1,-2,4,0,-7,-4
449998602988,0,-1,-2,1,-1,-1,1,1
449998604611,-1,-1,-3,-2,2,-5,2,1
449998604611,1,-1,1,2,4,3,-2,-1
449998609179,2,-3,-3,0,-1,1,1,-1
449998609179,-2,2,-3,-5,2,1,0,-1
449998624144,0,-1,-1,2,3,4,0,-7
449998624144,-2,2,3,2,1,-3,-1,-1
449998631707,-2,-3,5,4,3,-1,-3,2
449998631707,3,-1,7,-2,1,-2,-4,-7
449998646750,2,-4,0,-1,-3,-9,-2,-2
449998646750,-2,-1,-2,-6,-1,-1,2,-7
449998654164,2,-3,-4,-3,-3,-1,-4,-3
449998654164,-4,0,-1,-3,-5,-3,0,0
449998663164,0,0,-2,-6,-1,2,-4,0
449998663164,2,-2,-1,1,2,2,-4,1
449998669138,-2,1,-2,-2,-4,-2,0,-2
449998669138,2,-4,-1,-3,-4,-3,-1,-3
449998684229,-3,-4,3,-3,-4,3,1,5
449998684229,-3,-7,1,0,-4,1,0,2
449998691658,2,2,-2,4,4,3,-2,0
449998691658,-5,-2,-4,-7,-3,-1,-2,1
449998706711,-3,1,-7,-1,-3,2,-5,-2
449998706711,0,-2,-1,-5,-1,-4,1,-4
449998714203,-1,-1,1,3,3,-1,3,0
449998714203,-3,-1,1,2,4,-1,3,-1
449998723141,0,3,6,1,2,2,0,-3
449998723141,-1,2,-2,-3,-1,2,0,-4
449998737353,0,0,-3,2,3,-1,-7,-1
449998737353,4,1,0,2,3,-1,-2,2
449998744191,-1,-5,-6,1,-1,-1,4,1
449998744191,0,0,-1,-5,-2,-6,-2,0
449998751705,-1,-1,2,-2,-1,1,0,-3
449998751705,1,-4,-2,2,-1,-2,-1,0
449998766717,2,2,1,0,-3,-1,0,0
449998766717,1,-1,1,-5,0,-4,-4,-1
449998774296,0,3,1,-3,-4,-2,1,6
449998774296,2,4,4,0,2,-3,1,1
449998783157,0,-5,2,-2,-3,-4,-2,-4
449998783157,-5,-4,2,-2,-6,3,-2,-1
449998797115,-3,-3,2,0,0,1,1,-3
449998797115,-4,-6,-2,-2,0,-1,0,-3
449998805627,2,0,-2,-1,6,-3,0,-2
449998805627,-1,-3,-1,-3,3,-3,-1,0
449998811693,0,-3,1,-5,1,3,-2,-2
449998811693,-1,-5,4,-1,1,-4,-3,-3
449998826651,-4,-1,1,2,1,-3,-1,-1
449998826651,1,0,0,2,-2,-1,3,1
449998834150,2,2,0,1,1,-6,-3,-3
449998834150,0,-2,-5,1,-3,-1,-2,3
449998843169,-3,1,4,-4,0,-2,-3,1
449998843169,-2,-2,-3,-3,-2,-3,-1,-4
449998857478,0,-1,-2,-3,-2,-1,2,1
449998857478,-3,-2,-3,-3,-1,-3,5,-4
449998864256,-1,-1,0,-1,-2,-3,-1,2
449998864256,-5,-2,0,-2,-1,0,-2,3
449998871716,-4,-1,0,-4,-2,1,-2,-4
449998871716,-3,-9,-1,-2,-1,3,-3,-3
449998886763,1,-1,-3,-3,-3,-2,-3,-5
449998886763,-1,-2,0,-3,-7,0,-2,1
449998894274,-1,-5,-2,0,0,0,-6,-4
449998894274,2,0,4,2,0,3,-2,-1
449998903219,0,-3,-4,-2,3,-5,-3,-7
449998903219,0,-4,2,-4,-3,-5,0,-1
449998917458,-4,-4,1,3,-7,-3,1,-1
449998917458,-1,0,-3,-1,-4,1,1,0
449998924241,0,0,-5,-4,-2,3,-2,0
449998924241,-4,1,-3,-2,-5,3,0,0
449998931741,1,-3,-1,-1,3,4,2,1
449998931741,-4,0,-9,-5,-2,-3,-2,-1
449998946807,-2,-1,0,0,-4,-3,0,-4
449998946807,3,-3,2,-2,-1,1,-1,1
449998954278,-6,-1,0,-5,-3,-3,-1,1
449998954278,2,-3,-2,-8,-1,1,-1,4
449998963205,-2,-5,-3,-5,-3,4,2,0
449998963205,0,3,0,-2,-4,-1,-1,-3
449998977427,-2,0,-4,-1,-6,1,-2,-7
449998977427,-3,0,1,-1,-4,-2,-2,-3
449998984253,-2,1,1,-7,-7,1,-1,2
449998984253,-2,-4,-3,3,2,2,3,0
449998991788,0,2,3,-3,-4,-5,2,2
449998991788,0,0,-1,-4,-5,-5,-3,-2
449999006758,-6,-5,-2,-1,9,-2,-2,2
449999006758,3,5,1,-1,-1,2,-5,-5
449999014216,0,3,-3,-5,-4,2,-2,-1
449999014216,-2,1,1,4,4,-1,0,-4
449999029247,0,-3,1,-3,-4,-2,1,-3
449999029247,-4,2,-2,0,-3,-1,-3,-2
449999037434,-5,-2,-1,-1,3,0,-2,4
449999037434,1,-1,2,4,4,6,-1,3
449999044170,-3,3,-4,-1,-4,3,0,1
449999044170,0,-5,-2,-3,1,-2,-5,2
449999051746,-3,-3,-2,-5,0,-2,5,-2
449999051746,-5,-1,-3,-5,1,0,-7,-2
449999066713,3,3,-2,0,-10,2,2,2
449999066713,1,-2,0,1,-1,-3,2,-3
449999074175,-4,-2,-4,2,5,-3,-1,-1
449999074175,-2,-1,-3,-7,-6,-4,-1,-1
449999083190,-3,-4,-3,1,1,-5,0,1
449999083190,-6,0,-2,-6,-5,-1,-3,-1
449999097363,5,5,6,-1,-2,-2,-5,0
449999097363,-3,2,2,1,2,0,-4,0
449999104140,-1,-5,1,-2,4,1,-1,-6
449999104140,10,1,2,2,0,1,0,5
449999111644,-4,0,0,-4,-2,-4,-2,-6
449999111644,2,-1,-3,0,-8,-1,3,0
449999126670,-4,1,0,0,0,-4,-2,-1
449999126670,-3,-6,-7,1,2,-4,0,-2
449999134171,-7,-1,-3,-4,-2,0,0,-3
449999134171,3,1,1,-2,0,1,3,0
449999143223,1,-1,-4,-2,-3,1,-2,2
449999143223,-2,0,-1,-2,2,3,0,-2
449999157434,0,1,-2,-4,-3,-2,0,-1
449999157434,-5,2,-2,0,-1,1,-2,-7
449999164170,-2,0,3,-3,-2,-5,0,3
449999164170,-4,-5,0,-5,-1,-2,-1,-4
449999171673,5,-3,-8,-4,-1,0,-2,-2
449999171673,-3,-2,-2,1,0,-2,-2,-5
449999186701,3,0,-1,-2,-2,-5,-2,-3
449999186701,-4,3,1,0,2,1,3,-4
449999194186,-5,-4,3,-1,4,-2,-2,0
449999194186,1,-2,0,-1,4,-3,5,-4
449999203159,0,-1,-4,-2,1,-1,-5,-5
449999203159,3,-1,5,4,0,-3,-1,2
449999217342,2,1,-2,-3,-3,-5,-1,-2
449999217342,0,-1,-1,-3,-3,0,-5,3
449999224168,1,0,-3,-3,-2,-1,1,-2
449999224168,-2,0,4,-7,1,-2,2,-3
449999231666,-1,-4,-4,0,-1,0,-5,-4
449999231666,2,-3,-1,1,2,-1,-2,-2
449999246696,-6,-2,-1,-2,4,5,1,4
449999246696,-5,-4,-7,0,-1,-2,-4,-3
449999254201,-2,-1,0,2,4,3,3,-2
449999254201,2,2,3,-5,-4,-3,5,-1
449999269150,-1,-4,-2,4,-7,1,-5,-7
449999269150,3,0,-2,-8,-4,0,-2,0
449999277388,-2,-1,0,1,2,2,-2,1
449999277388,-4,-3,4,2,-1,-4,0,2
449999292294,-1,2,2,3,0,-1,-3,-4
449999292294,4,-1,0,-5,-7,-2,-2,-1
449999293080,0,0,1,3,-4,-1,1,2
449999293080,0,1,-1,-2,0,-1,1,-1
449999306676,1,1,4,-4,-4,0,-2,-5
449999306676,1,-3,-8,5,3,0,-3,1
449999314158,3,-4,1,3,-2,-1,-1,3
449999314158,-3,-3,-2,-5,-2,1,1,-1
449999338042,0,-1,-4,1,-1,0,-1,1
449999338042,-2,-3,-6,-2,-4,-4,-6,-3
449999338820,-2,-4,-5,-4,0,-3,1,3
449999338820,-5,-2,-4,-4,-2,2,-3,2
449999352380,0,0,6,1,-3,-2,5,-3
449999352380,-4,-5,0,0,-1,-1,0,3
449999353144,2,-4,-1,-3,-1,0,-1,-2
449999353144,1,2,-2,6,2,0,-3,-1
449999366714,-3,-5,-7,-3,3,3,-2,-1
449999366714,-1,0,3,-1,2,1,-4,-2
449999374206,-5,0,3,0,-1,-1,2,2
449999374206,-1,-2,3,-7,1,0,-1,-4
449999389265,-3,-4,-4,-4,0,-2,3,1
449999389265,2,1,-4,0,0,0,-2,-5
449999397473,5,0,0,-4,-7,-2,-3,1
449999397473,2,1,-4,2,-3,-3,-3,0
449999412391,-2,-6,-4,0,1,-2,3,4
449999412391,1,-7,-1,-2,0,0,3,1
449999413179,-4,-3,1,-1,3,2,1,-5
449999413179,-1,-4,-5,-1,-3,-2,0,-2
449999426785,4,0,-1,0,6,-3,-2,-1
449999426785,-2,3,-1,-5,-2,0,-3,0
449999434239,2,4,3,5,-1,-1,2,-1
449999434239,-5,0,-5,2,-3,-4,0,-2
449999449232,0,-2,2,2,-1,1,6,-2
449999449232,-5,0,-2,3,-1,-1,0,-2
449999457462,2,-1,0,-2,3,-1,1,0
449999457462,0,-2,3,-4,-5,-6,-3,-2
449999472489,-4,4,1,3,1,0,-2,4
449999472489,-4,-2,-1,1,3,1,5,-1
449999473239,-3,1,-5,0,5,2,-5,-4
449999473239,-2,-4,-2,-1,-1,-3,0,0
449999486678,2,1,-5,-3,1,3,-1,-2
449999486678,-1,-8,3,3,-1,-3,-1,-3
449999494222,-1,-4,-2,-1,-1,-3,-3,0
449999494222,0,-8,-4,-7,-2,-1,-1,3
449999509313,0,-3,1,-4,-9,0,-5,4
449999509313,0,-3,-7,1,3,-1,7,3
449999517392,-3,-5,0,0,0,-3,-5,-6
449999517392,1,-2,-3,0,-3,5,4,-4
449999532427,-2,0,-2,0,-2,3,-2,-6
449999532427,3,1,0,-6,3,-2,-7,0
449999533234,-2,-3,-3,-3,-2,1,-1,3
449999533234,0,-1,-2,-2,1,1,2,-1
449999546746,2,0,-1,-1,1,0,0,-2
449999546746,-4,0,0,-4,-6,-1,1,-5
449999554263,2,4,-3,2,-1,0,-1,1
449999554263,1,1,2,1,2,0,-2,1
449999569252,-2,-5,2,-5,0,-3,-2,-5
449999569252,-2,-2,0,-5,-6,0,-2,-4
449999577400,-3,-3,0,-5,-9,-6,0,-4
449999577400,-2,1,4,2,3,-5,0,1
449999592353,-1,-1,-1,-2,-4,-7,3,5
449999592353,-3,-5,0,-2,-4,-3,-3,-1
449999593136,-1,1,-2,3,5,3,5,-2
449999593136,0,0,3,-2,-3,0,-5,1
449999606695,6,0,5,-2,-1,-5,2,-4
449999606695,3,4,-4,3,1,-4,-3,5
449999614201,0,2,0,1,-6,5,2,5
449999614201,-1,-1,-3,-2,-3,-2,-4,-6
449999629173,-1,-3,-1,-5,-6,1,-9,-4
449999629173,-2,0,-4,0,0,-3,-2,0
449999637385,-1,-6,-5,-3,0,-2,-1,-3
449999637385,-3,-1,0,-3,-5,-2,-1,-4
449999652355,-4,-2,0,-4,-6,-2,-4,-4
449999652355,-3,-1,2,-1,-3,-2,-4,-5
449999653155,2,3,1,4,1,-3,-4,1
449999653155,-2,-1,3,-2,3,2,-4,-3
449999666659,-2,-2,-6,-4,-4,-4,1,-3
449999666659,-2,-1,-4,-3,-4,0,-3,1
449999674144,-1,-2,-1,-6,-4,-3,0,1
449999674144,1,5,1,6,1,0,-1,-1
449999689147,-6,-1,0,-1,2,-2,-3,-2
449999689147,-2,-3,3,-5,-4,-3,1,-2
449999697390,1,-3,-4,-2,-2,-5,1,0
449999697390,1,2,-7,-1,0,5,2,1
449999711658,-3,-2,1,0,-2,-2,4,-3
449999711658,-3,-1,1,2,0,-2,4,3
449999719917,-3,-3,5,0,-6,-5,-3,-1
449999719917,-1,-2,1,-4,-7,-5,-1,-2
449999726672,3,-3,-3,-5,1,-2,-4,-2
449999726672,-4,0,3,-2,-3,-4,-1,-2
449999734155,2,1,-2,-3,-3,-3,-5,-2
449999734155,1,-4,-3,-4,-2,2,-1,6
449999749177,1,-2,-5,3,0,1,6,3
449999749177,0,-3,-5,-4,0,3,0,-1
449999757438,1,0,-5,-5,0,3,0,0
449999757438,0,1,-3,-1,-3,-4,0,-4
449999771679,2,-1,-7,-9,-6,-5,-11,-2
449999771679,2,1,2,-2,-1,3,0,-1
449999779904,-4,-2,-3,-2,-1,-4,-1,3
449999779904,1,-1,-3,-1,2,-4,-2,-1
449999786659,-1,-1,3,-5,-5,-2,-4,0
449999786659,4,3,0,0,2,-2,0,-6
449999794245,-3,-1,-1,-1,-6,3,-1,-5
449999794245,-1,-2,-6,-1,2,1,3,-2
449999809292,5,3,1,5,2,0,3,3
449999809292,-1,5,-1,-3,-2,0,-2,2
449999817485,-2,-5,2,0,-3,0,2,0
449999817485,1,3,4,3,3,1,-2,2
449999831821,2,4,-1,3,4,1,3,0
449999831821,-2,-6,-4,-2,-3,-1,-5,-3
449999840020,0,5,2,5,6,0,-3,-3
449999840020,2,-6,-2,-5,-4,0,-3,0
449999846787,-2,1,-5,1,1,0,-1,-1
449999846787,0,-4,-5,1,-3,-2,1,1
449999854299,-1,5,0,2,-1,-1,3,-3
449999854299,0,0,-2,-6,-6,-5,-3,-3
449999869271,-1,-3,-1,-7,-1,-4,-8,1
449999869271,0,-4,-4,2,0,-7,3,-3
449999877479,0,-1,-4,-2,-5,-4,-4,4
449999877479,-4,1,2,1,2,3,-6,2
449999891688,-4,0,2,-1,-2,0,-2,-9
449999891688,-1,0,0,-7,-4,-1,0,-2
449999899934,3,2,-3,-3,-1,1,2,-1
449999899934,0,-1,-2,-1,-2,-5,-2,-1
449999914967,3,2,-2,1,-2,-2,4,2
449999914967,-6,1,0,-1,-2,-3,0,2
449999915684,-3,-4,-2,-5,-2,0,2,-5
449999915684,3,-3,-1,-5,5,-6,1,-1
449999929315,-3,-1,-4,1,1,-2,-2,-2
449999929315,-1,-2,-2,-5,-2,-1,-3,-1
449999937435,-2,2,-1,4,0,1,-4,-2
449999937435,-3,-3,-3,-4,-5,-7,-3,-4
449999951729,0,1,-3,-2,-5,-1,1,-1
449999951729,4,4,0,-2,-5,-8,-3,-2
449999959867,-1,-4,-1,-4,3,1,-1,4
449999959867,-3,-4,-5,-1,1,-1,4,0
449999974866,-4,0,1,-1,0,-2,-5,0
449999974866,-4,-3,-1,-3,-1,3,-2,-6
449999975641,-1,-2,-3,-1,0,-1,0,2
449999975641,-1,0,0,4,-2,2,3,-2
449999989200,1,-3,3,0,-2,1,1,2
449999989200,1,3,0,-2,-1,-2,2,1
449999997343,-2,-4,-4,-3,-4,-4,0,0
449999997343,-1,-2,2,-7,-5,-1,1,-6
450000011685,1,-5,-3,-1,-4,0,-3,1
450000011685,-2,-4,-3,1,5,2,-4,-7
450000019894,3,2,2,-1,3,-4,-1,-2
450000019894,-2,0,-2,4,0,0,-1,-2
450000034841,-3,-1,2,0,0,1,0,-3
450000034841,-2,-2,-2,-1,-4,-2,-5,0
450000035643,-1,-3,2,-4,-1,-2,-3,-3
450000035643,-3,0,-3,-2,6,-4,-6,-1
450000049187,0,-3,-1,3,-1,-1,1,-1
450000049187,0,-6,-3,-1,1,0,5,5
450000057424,0,-2,-5,-4,3,-1,-1,-3
450000057424,-3,-4,-1,2,-2,0,-3,1
450000071688,-2,-4,1,-5,-3,-2,-1,-3
450000071688,-1,2,4,-1,-7,-2,0,-1
450000079923,-1,-3,-2,-1,3,4,-4,-2
450000079923,0,5,-3,-2,-1,-2,3,0
450000094863,-1,1,0,-6,-6,5,-4,-1
450000094863,-2,0,3,3,2,1,2,-2
450000095640,1,1,4,-2,-1,-1,0,-1
450000095640,-2,1,-3,-2,1,-1,-2,-3
450000109216,0,-1,0,3,1,-2,-1,-3
450000109216,1,0,0,-1,-4,0,0,2
450000117436,-3,1,-3,-5,-7,-3,0,-3
450000117436,-3,-4,0,0,-2,5,-2,1
450000131687,-1,0,-1,-5,1,-7,4,-2
450000131687,0,0,1,3,-1,3,1,-1
450000139950,0,-4,0,2,1,1,1,-2
450000139950,5,-2,-2,1,-4,3,-2,-3
450000154925,1,0,4,1,-3,-4,-3,-1
450000154925,0,-2,-1,4,2,2,-4,2
450000155673,-3,-1,0,-2,-4,-3,-6,-1
450000155673,1,-3,-3,-3,-4,2,2,2
450000169262,-2,-4,-5,-1,9,-1,8,3
450000169262,0,-3,-2,-2,4,-3,-3,-4
450000177439,-2,-5,-1,3,3,-4,-1,-1
450000177439,0,4,0,-2,-2,-4,1,-3
450000191752,-1,0,-1,4,-3,-1,-3,-4
450000191752,1,0,2,3,1,-4,2,-4
450000200006,-2,-3,-1,1,0,1,2,0
450000200006,-5,-4,1,3,0,3,-6,0
450000214971,2,1,2,-2,-2,-1,-3,-2
450000214971,0,-3,-4,-1,4,2,4,-4
450000215714,1,3,0,0,2,-1,2,-1
450000215714,0,-2,-3,-5,0,-3,0,0
450000229242,2,5,-5,2,-5,8,2,2
450000229242,-1,-3,-1,-6,-4,-1,-4,-2
450000237473,4,0,2,2,2,-5,-4,1
450000237473,0,5,3,-5,-9,1,-3,-2
450000251872,-1,-2,5,4,6,4,-1,4
450000251872,1,-3,-1,-3,-3,1,0,2
450000259991,-2,-2,-3,1,-8,2,0,0
450000259991,-4,-6,0,-3,2,-4,-3,0
450000274959,-3,-3,-5,-2,1,1,-5,-2
450000274959,1,0,-5,0,1,-1,-1,-1
450000275787,-2,2,-2,-3,-5,0,-3,0
450000275787,4,3,0,0,3,-2,-2,-1
450000289234,3,4,-1,-2,-2,0,4,-2
450000289234,-5,-1,-5,1,-3,-2,-4,0
450000297483,-3,4,-1,0,3,-1,1,2
450000297483,0,-7,-4,3,-1,-2,2,4
450000311766,0,-2,-5,3,6,0,-1,-1
450000311766,-3,-4,-1,0,-1,1,-1,-2
450000319905,3,2,-1,-1,-1,-6,-1,-4
450000319905,-1,0,-2,-1,1,-3,-1,-2
450000334946,-5,0,2,-4,-2,-4,-2,0
450000334946,-1,-2,5,-2,1,-2,-3,2
450000335767,1,-3,3,1,2,3,-3,-2
450000335767,1,3,0,-2,-3,-7,0,-4
450000349349,-1,-1,-5,1,0,2,2,-1
450000349349,0,6,2,-1,1,-3,-1,1
450000357456,-2,-5,1,-2,1,1,0,-2
450000357456,0,0,5,6,5,-1,0,1
450000371807,-1,-8,1,-3,-2,-2,-4,-6
450000371807,1,4,4,2,1,-2,1,-1
450000379981,1,1,-1,7,1,2,-2,-1
450000379981,-3,-3,-4,0,-1,-2,-5,-1
450000394878,0,0,-2,-1,-1,-2,-3,3
450000394878,-2,-5,1,-2,0,4,1,1
450000395664,0,-3,-6,-2,1,-5,2,-4
450000395664,-1,-2,-1,-2,-3,1,1,-1
450000409298,3,-2,-1,2,4,3,-1,5
450000409298,0,3,5,-1,-2,-4,-3,-3
450000417466,-1,0,-1,-4,-3,-1,-1,0
450000417466,0,-5,-3,-1,2,5,0,-2
450000431811,0,0,-1,3,-1,-5,1,-1
450000431811,0,-1,-2,-1,2,1,3,-7
450000439939,-3,0,-1,2,-5,0,0,2
450000439939,-3,2,0,-2,-2,-6,-2,-1
450000454960,-2,1,-2,-1,3,3,-3,0
450000454960,-1,3,-2,-1,-2,0,-6,1
450000455683,3,-1,-5,-7,0,-4,-3,1
450000455683,-1,-4,-3,-2,-4,-2,-2,1
450000469300,-7,-1,-4,-1,0,-7,0,-5
450000469300,-4,-7,-5,-5,0,-5,-6,-1
450000477438,0,-4,3,-3,-1,1,-3,-2
450000477438,-4,2,-3,-2,1,-2,-3,-3
450000491834,-6,-6,1,-6,-6,-3,0,-3
450000491834,0,-2,-5,-2,-3,-5,-3,0
450000499945,-2,4,0,-2,1,-2,-2,-4
450000499945,0,-1,-1,-4,0,-7,1,-5
450000514926,1,-1,1,-5,-3,-3,0,0
450000514926,-1,-5,-4,-3,-1,-5,3,2
450000515680,-3,2,-1,2,1,1,-3,-3
450000515680,-4,6,4,3,-2,-2,0,6
450000529267,-3,-3,0,-3,-3,-2,-4,0
450000529267,-3,-1,-4,0,-2,4,-5,-6
450000537122,1,-4,-2,3,0,0,1,2
450000537122,3,0,3,2,-1,6,-4,-6
450000552185,0,2,1,-5,-1,-5,-5,-3
450000552185,-1,-4,2,3,-2,-4,1,3
450000559948,-3,0,2,-4,-3,-3,-1,-1
450000559948,-1,-2,-2,1,-3,1,3,1
450000574906,0,-4,1,1,3,0,0,-1
450000574906,4,3,-1,1,-4,0,-2,0
450000575684,1,2,-4,-6,1,-1,-3,0
450000575684,-4,-7,-3,-8,-1,0,-2,0
450000589212,-3,1,-1,0,-4,-4,-4,1
450000589212,-1,-3,-3,4,2,2,7,3
450000597377,-3,1,-3,3,0,-3,-7,-4
450000597377,3,5,2,5,-6,0,1,-1
450000611737,-1,-5,-6,0,1,3,3,0
450000611737,1,6,1,-6,-7,0,0,0
450000619859,-2,-3,6,0,-4,-1,-1,-2
450000619859,2,-1,-2,2,3,2,1,-4
450000634218,3,4,0,2,1,2,2,-1
450000634218,1,4,-1,-2,-1,1,-3,-6
450000642407,1,-4,-3,1,-1,2,4,1
450000642407,4,-3,-3,-6,-5,3,-1,-2
450000649191,4,3,-3,-5,-4,4,-3,3
450000649191,-2,-2,-1,0,3,1,-2,3
450000657371,0,5,-5,-1,1,-1,0,1
450000657371,-1,-1,-4,0,-2,0,0,-1
450000671706,0,-3,-2,2,0,-1,-5,-3
450000671706,-5,2,2,1,2,-1,-1,-1
450000680751,-1,-2,-3,-1,-1,-4,1,-1
450000680751,-2,3,1,0,-3,-1,-6,1
450000694214,4,6,6,0,-1,-3,0,-3
450000694214,1,-3,1,-3,-1,-5,-2,-2
450000703213,-1,-4,-1,-9,-7,-3,2,-4
450000703213,-4,-4,-4,1,-3,-4,-1,-2
450000709203,-5,0,-4,0,-1,-1,2,4
450000709203,-2,-3,-4,-4,-7,0,3,3
450000724256,-2,-4,-2,0,5,4,0,-3
450000724256,-1,-2,-1,-6,2,-2,0,-2
450000731706,0,-2,-2,-3,-5,-3,-2,1
450000731706,1,4,-2,1,-1,-4,-6,-8
450000740685,-2,3,-2,-2,0,-2,1,-2
450000740685,-2,1,0,-2,-1,-6,0,2
450000754370,-2,-5,-4,-2,-4,-3,-1,-3
450000754370,-1,-4,-2,-1,4,-1,2,-1
450000770008,1,-6,-3,2,-5,-1,-1,3
450000770008,-1,-3,-3,3,-1,1,-3,1
450000770726,-1,-2,-2,2,-1,-2,1,-3
450000770726,4,3,0,0,1,-2,1,3
450000784364,-2,-1,3,4,1,-4,-1,-4
450000784364,-3,1,0,-1,0,2,1,3
450000791852,1,0,-3,-4,3,0,-3,-4
450000791852,-1,-1,-1,-2,-4,-2,0,-4
450000800753,1,-3,-3,-5,-4,0,-8,1
450000800753,3,0,0,0,-1,-2,-2,-3
450000814340,-1,0,-4,-3,2,-1,-3,-2
450000814340,0,-3,-9,-4,-4,0,-3,0
450000823250,-1,-5,-3,-1,-3,2,-4,-3
450000823250,-1,-1,-3,0,-1,2,0,-1
450000837500,-2,-6,-1,-7,-4,-3,1,-2
450000837500,-3,-3,0,0,-1,-1,0,-5
450000844310,0,4,-1,-2,-1,4,0,3
450000844310,-2,-4,2,1,-2,-2,-4,-4
450000851809,0,-2,0,-2,-7,1,-4,-1
450000851809,-4,-2,-2,-9,-7,-1,-5,-5
450000860781,-3,-1,-2,1,0,2,1,1
450000860781,-1,1,-2,-5,1,-1,0,1
450000874372,0,1,-1,1,-1,1,2,0
450000874372,3,0,-2,2,-1,1,2,-1
450000883229,1,3,1,-3,1,-2,0,-4
450000883229,-1,-4,-1,-2,1,-2,4,2
450000897541,-1,-1,-2,1,0,-2,1,-4
450000897541,-3,-5,-2,0,-1,-1,-3,-2
450000904271,-3,1,2,-2,-1,-5,1,-1
450000904271,-5,-2,0,1,1,1,3,-3
450000911816,2,-1,3,-3,-2,-1,1,-4
450000911816,-3,-1,2,1,1,0,-2,0
450000920755,3,-5,-4,-3,-1,-5,-2,-3
450000920755,-1,-3,2,-1,-5,-3,-4,-2
450000934308,-4,-2,-1,3,4,-2,-1,-5
450000934308,3,-1,0,2,1,0,-2,0
450000949309,-4,-5,2,-3,-3,-4,2,-3
450000949309,0,-2,-3,2,2,5,-1,-3
450000957456,0,-2,-1,-1,-3,0,1,-1
450000957456,-1,-1,1,1,-6,-1,2,6
450000964308,-1,-2,-1,1,2,3,-3,-3
450000964308,2,-4,-1,-7,-3,-3,0,1
450000971840,-4,-1,-6,0,1,-1,-5,0
450000971840,0,-2,0,-2,2,2,2,0
450000980776,-2,-5,1,0,-4,3,-2,-1
450000980776,-3,2,-4,-2,0,-2,0,-5
450000994343,5,2,1,3,3,3,-4,-2
450000994343,-1,3,-3,-3,0,-3,-1,-4
450001003238,5,4,0,0,2,-3,3,-6
450001003238,-3,-2,-4,3,-2,0,-2,0
450001017429,-4,-3,-3,-2,-1,2,1,2
450001017429,0,1,3,6,2,-5,-2,-3
450001024267,0,1,-1,4,1,-4,2,2
450001024267,3,-4,-2,-1,-3,0,0,-1
450001031757,0,1,1,-2,-5,1,2,-1
450001031757,-2,-3,-5,-2,-1,0,-3,0
450001040690,1,-2,-3,-3,-4,-5,-6,-1
450001040690,1,4,5,1,6,6,-3,-4
450001054213,1,-9,-1,-8,-3,-2,-7,-2
450001054213,-3,0,-2,4,5,4,1,0
450001063196,0,0,0,-1,0,-1,1,2
450001063196,-2,4,-3,-1,0,-2,1,-1
450001078109,-1,-1,2,1,0,0,-6,2
450001078109,2,0,0,-2,-4,5,0,-4
450001079742,-1,1,-1,-4,0,3,1,5
450001079742,2,5,-2,-1,-1,-4,-1,-6
450001091719,0,12,-4,1,2,-3,3,4
450001091719,0,4,-3,1,-4,-2,1,2
450001100743,-6,-7,-4,1,0,6,0,-1
450001100743,-3,1,-1,0,-2,-2,-1,0
450001114194,-3,0,-6,2,5,-3,1,-1
450001114194,-2,5,-1,2,2,-4,-2,0
450001123210,0,7,2,-1,-4,0,0,-2
450001123210,1,-2,-1,1,-3,-1,4,4
450001138106,-4,-2,-4,-1,-4,-2,-3,-3
450001138106,4,-3,5,2,-1,-4,-1,-2
450001139686,0,-2,2,2,-2,-2,-4,-1
450001139686,1,-6,-4,-7,1,-2,-2,3
450001151746,0,-5,3,-3,-6,-8,-6,-1
450001151746,-6,-6,-6,-4,-1,-8,-4,-4
450001160713,-2,-5,-3,2,-3,-1,-5,-3
450001160713,0,1,0,0,-2,-2,0,0
450001174240,-1,-5,0,-1,-2,-2,-4,0
450001174240,0,-3,-3,-4,-5,0,5,-1
450001183292,-3,-2,-1,-3,-3,-5,1,-3
450001183292,-4,0,2,-2,-2,1,-5,0
450001197268,-3,-2,-8,0,0,2,7,4
450001197268,-3,-4,-2,-4,-2,-3,-1,-3
450001205798,-3,-5,0,0,0,-4,-1,-3
450001205798,3,-9,-2,-4,-3,-9,-2,2
450001220697,2,1,-2,2,-5,-1,-2,-2
450001220697,-1,-2,-1,-2,-1,2,-2,2
450001222252,-2,4,-3,0,1,4,0,1
450001222252,0,1,-2,-3,-4,-7,-5,-3
450001234306,2,-4,-2,-4,-4,3,5,-1
450001234306,-4,-1,2,1,5,0,-3,2
450001243270,1,1,3,0,-7,1,0,1
450001243270,1,2,0,1,3,-3,5,-2
450001258125,-5,-2,4,-1,-1,-4,0,-3
450001258125,2,-1,-3,-5,-6,0,-1,-3
450001259782,0,-1,-2,0,2,4,3,2
450001259782,-4,0,-1,2,0,5,0,-3
450001271800,-1,1,-1,-4,0,1,3,0
450001271800,1,5,3,3,4,3,8,3
450001280768,-4,-2,-2,-3,-2,-2,-1,-2
450001280768,-3,-2,-1,-2,-5,1,1,1
450001294287,1,-1,0,-1,5,-3,0,-1
450001294287,-3,-5,-2,-2,1,-6,-3,-1
450001303304,-2,1,1,-1,-4,-12,-1,-1
450001303304,-7,0,-1,4,0,-3,3,4
450001318110,-2,-4,-2,-6,-2,-1,-3,-5
450001318110,4,-4,-4,1,-9,-20,-7,7
450001319751,0,-13,-5,1,6,-15,9,-1
450001319751,2,7,2,1,2,12,-3,-3
450001331734,-1,-3,-2,-6,2,14,-3,-4
450001331734,-4,2,-2,-3,-5,0,-3,-3
450001340782,5,-6,-10,1,-2,-13,-5,2
450001340782,4,8,-3,0,-11,-7,2,0
450001354290,-1,-1,1,3,1,9,1,-2
450001354290,2,-1,-1,-1,1,10,-4,-7
450001363322,3,-8,-4,-6,0,-1,-4,-1
450001363322,-1,-7,0,-9,-4,-8,-2,-5
450001378135,-5,12,-2,3,-4,3,-3,1
450001378135,-5,12,-4,-1,-3,12,4,-3
450001379695,-1,12,3,-1,-1,4,-8,-4
450001379695,-2,-9,-5,3,5,-5,2,-3
450001391820,3,-4,-3,-1,2,-12,4,1
450001391820,-5,-14,1,-1,1,-1,-6,-2
450001400742,0,1,2,-3,3,2,1,-5
450001400742,1,6,-2,2,0,3,2,-2
450001414240,1,-8,-3,1,-5,-6,-4,-2
450001414240,4,3,-6,0,-3,5,-1,1
450001423210,-3,-3,1,-1,-2,7,-5,2
450001423210,3,-5,-1,-6,3,-5,-5,-4
450001437443,-6,-6,0,-1,-3,-6,-2,1
450001437443,2,-2,-3,-2,-2,-5,3,-1
450001444248,-3,5,-2,-5,-3,-6,-6,-2
450001444248,0,2,1,7,2,4,1,1
450001451730,-2,3,-6,-4,-8,-5,-3,-4
450001451730,2,-8,3,-4,-1,-4,1,0
450001460711,-2,-2,-3,-1,-2,13,2,2
450001460711,-1,0,0,-3,1,0,-4,-3
450001474250,-1,5,4,2,0,-3,-1,-1
450001474250,-2,-1,-6,-1,-3,-4,-2,1
450001483214,0,-7,3,-3,-8,-2,-3,0
450001483214,1,-4,1,-6,-3,-2,-3,0
450001497423,1,1,-1,-3,2,-5,0,-3
450001497423,-2,4,0,-1,4,2,2,1
450001504219,-3,5,-1,2,0,3,1,1
450001504219,-3,1,-4,-3,-3,5,-1,0
450001511739,1,-7,-3,-6,-2,4,-4,-2
450001511739,1,1,1,4,6,3,3,-3
450001520750,3,3,1,-3,-4,-7,-1,-4
450001520750,0,-2,-1,1,0,-4,-3,0
450001534267,-1,-1,5,4,-7,-1,-4,-1
450001534267,-2,-2,-4,-1,-2,-5,0,-1
450001543181,-2,-6,-3,-2,1,0,1,-1
450001543181,-5,-2,-2,3,0,-5,0,-3
450001558223,1,4,0,-1,-2,0,4,-1
450001558223,-3,-5,-4,-4,-1,-2,-3,0
450001559775,-2,0,-1,-3,-2,-1,-1,-1
450001559775,0,1,1,-2,1,-3,-6,-5
450001571848,-1,-4,1,-2,-1,0,0,3
450001571848,-8,-1,0,6,0,-4,-5,-6
450001580826,1,2,-5,1,-1,-4,-1,4
450001580826,1,0,4,6,3,4,0,2
450001594328,-3,-2,1,0,0,-4,-1,-3
450001594328,-1,-6,-3,-5,-2,-3,1,-3
450001603336,1,1,0,-3,-1,-3,4,-1
450001603336,-6,-1,-4,2,0,3,0,0
450001617485,0,1,-3,-4,0,1,2,-2
450001617485,-5,0,0,-4,-6,-4,-5,0
450001624242,-2,-1,-2,5,2,2,-6,-1
450001624242,-3,-2,-4,-7,-11,-6,-1,-3
450001631766,-4,2,-2,-2,2,-3,2,-1
450001631766,4,2,0,1,3,3,4,0
450001640831,-4,2,-7,-3,-4,5,0,-3
450001640831,1,4,-2,-1,3,-3,-2,4
450001654314,2,4,1,3,3,-2,0,4
450001654314,2,-2,-2,-4,-3,-3,-1,-4
450001663307,-3,0,-3,0,0,1,-1,-1
450001663307,-5,-1,0,-2,-6,-3,-1,-3
450001677235,-3,-3,-1,1,1,-2,1,5
450001677235,-6,-6,-2,-1,0,-2,-2,3
450001685810,3,0,0,2,2,6,1,4
450001685810,1,-2,-3,-3,-3,0,5,1
450001691762,-4,-1,-6,-2,-1,0,-3,-1
450001691762,1,5,2,3,-1,3,1,0
450001700890,-3,-4,0,1,4,-6,0,-4
450001700890,1,-2,-5,-7,-4,-1,-3,3
450001714336,2,2,-1,-4,0,-2,-3,-2
450001714336,-2,3,-1,-4,-7,-2,-6,-7
450001723287,-4,-3,-2,-10,-1,-5,-1,2
450001723287,-6,-1,-1,-4,1,-1,-2,-2
450001737480,1,-6,-3,-2,-2,-2,-1,-5
450001737480,-4,-4,-1,-3,-3,-1,-6,-1
450001744348,-1,-2,-3,-1,-3,-3,2,-4
450001744348,2,-4,-1,1,-2,5,-2,-4
450001751874,-1,-6,-1,5,-1,-3,1,2
450001751874,-1,-4,-2,-5,1,2,2,-2
450001760808,0,-1,-1,0,0,-2,0,-2
450001760808,0,-9,0,-3,2,3,-2,0
450001774333,-5,0,-4,-2,0,4,-1,3
450001774333,-1,5,1,0,-1,-4,2,1
450001783268,2,5,3,0,0,-7,-2,-3
450001783268,1,5,-4,5,4,-1,4,-1
450001797508,-2,-2,1,-5,-6,-4,-4,-5
450001797508,-2,-4,0,-1,1,-4,3,-2
450001804362,-4,-1,-3,0,-3,3,-2,-2
450001804362,-1,3,-2,-2,-10,0,-1,-1
450001820723,2,-1,0,-1,-8,-4,-1,-4
450001820723,0,-5,-2,4,2,5,0,3
450001822298,3,-2,-1,-2,-5,-2,-5,0
450001822298,5,-6,-4,-3,3,3,-5,-4
450001834289,-3,4,2,-2,3,3,1,1
450001834289,-3,4,1,-2,-1,-3,-1,2
450001843279,-2,-2,-1,-2,-2,1,-2,-2
450001843279,-6,-4,-2,0,-1,-7,-2,-1
450001857512,1,-9,-2,-3,-3,-4,-1,1
450001857512,0,-8,-6,0,6,-7,-1,-1
450001864242,-4,-5,-5,0,4,-4,-1,-3
450001864242,0,-4,0,-2,-1,-7,2,-1
450001880678,-5,1,-1,0,0,-2,-7,0
450001880678,-2,1,0,-1,-1,5,-2,0
450001882214,-3,-5,2,2,-6,3,1,-1
450001882214,-8,2,-3,-3,0,4,0,3
450001894295,6,-3,2,1,-2,-5,3,-4
450001894295,2,-1,2,-1,-7,-10,-5,-3
450001903220,2,4,3,1,0,-2,-1,3
450001903220,1,-6,1,2,0,2,-1,0
450001917414,-1,-5,-8,-3,0,-1,0,1
450001917414,-3,1,-4,0,-1,6,4,-6
450001924231,1,4,0,-1,0,4,1,-2
450001924231,2,5,-2,-3,-1,0,4,1
450001940615,0,-3,-1,1,1,5,2,-1
450001940615,0,-7,-4,-11,-3,-4,-4,-2
450001942153,-6,-5,-4,-5,-1,1,5,0
450001942153,0,-1,-1,-3,-1,-3,1,1
450001954241,-4,2,-1,-7,-9,-1,0,-3
450001954241,2,7,1,0,-5,-3,0,-2
450001963271,-1,1,3,2,-1,0,0,-1
450001963271,1,1,0,1,-2,-1,2,-1
450001977409,-1,-3,-4,0,-4,2,-2,1
450001977409,0,0,-1,0,-6,2,-1,0
450001984219,-1,4,1,-4,-1,-4,-4,-2
450001984219,3,-6,-4,-2,1,1,0,-2
450002000617,-1,0,1,-1,1,2,-3,2
450002000617,1,0,-5,4,5,3,0,7
450002002247,3,1,-4,-1,2,11,1,4
450002002247,-2,3,1,-1,0,4,-2,-1
450002014296,-2,5,-2,-4,-6,-2,4,-5
450002014296,0,-1,-1,3,1,1,-3,-1
450002023237,-3,2,-3,-2,-7,-7,-3,-4
450002023237,0,2,0,3,6,-5,-1,-2
450002037460,-8,-2,-3,-1,-1,-5,-3,-4
450002037460,0,-4,0,-2,-10,-6,-4,-2
450002044326,-1,-6,0,4,0,-5,-4,0
450002044326,-1,-5,-2,-4,-5,-6,-4,-3
450002060645,-2,-2,-1,4,2,-5,-6,-4
450002060645,-5,-12,-3,-1,-1,-4,-2,-1
450002062188,0,-3,-3,0,-6,-7,-8,0
450002062188,-2,-7,0,-5,-1,-4,-2,-2
450002074296,-1,-5,1,1,4,-1,0,3
450002074296,-2,5,1,-3,1,2,3,-3
450002083386,0,-2,-2,-4,-5,0,-1,-6
450002083386,-4,3,1,-4,1,-1,0,2
450002097544,-2,0,-2,-5,-6,2,-5,0
450002097544,0,1,0,-3,-2,-1,4,0
450002104280,-4,-3,1,-6,1,-3,1,1
450002104280,-3,6,0,4,-1,5,-2,2
450002120681,2,2,0,-2,-1,5,2,4
450002120681,1,4,-5,1,3,4,-2,-2
450002122254,2,1,-5,-1,3,-1,3,5
450002122254,-1,0,0,3,3,1,-1,-2
450002134282,-4,2,0,2,4,1,-1,5
450002134282,0,-1,2,-1,-2,2,-1,4
450002143341,1,-1,-2,1,5,7,2,0
450002143341,1,5,-1,-1,0,3,0,1
450002157468,0,1,-9,1,1,0,-1,-3
450002157468,0,1,1,-4,-4,2,1,-3
450002164291,0,4,-4,0,4,4,2,4
450002164291,-2,-7,-1,-3,5,6,0,-2
450002180719,3,-1,5,-3,0,2,2,-2
450002180719,-3,0,1,2,-1,-3,-7,-4
450002182217,-6,-5,-3,5,-1,-7,-2,-3
450002182217,-1,1,-4,-2,-8,-14,-3,-3
450002194366,-1,3,-2,3,-3,-2,1,-3
450002194366,-3,-4,2,0,2,9,0,-4
450002210848,2,-4,5,2,1,8,1,-3
450002210848,2,2,-4,0,2,-1,2,-5
450002217540,-1,3,-5,0,-2,-2,3,-1
450002217540,-3,3,-11,-4,-1,-2,3,3
450002224326,-2,-8,-3,-7,0,2,-6,-3
450002224326,0,-4,0,1,-2,-1,1,3
450002240783,-2,-5,0,-1,2,-8,-1,-1
450002240783,-5,1,-3,1,1,-8,-2,1
450002242301,-2,3,4,0,-5,-4,0,-2
450002242301,-2,1,-1,0,-3,1,-1,-1
450002254243,-1,3,3,2,-2,4,-2,-1
450002254243,-3,-4,5,0,-4,-8,-1,1
450002263260,-1,-5,0,-2,-4,-10,-6,-4
450002263260,-5,-7,4,-3,-7,-3,-5,-1
450002277454,-1,0,-1,1,-1,-2,-6,-4
450002277454,-2,-8,-3,0,3,-4,-2,-1
450002284247,-4,-1,-7,-5,-3,-8,-5,-5
450002284247,3,-6,-1,5,4,4,2,-5
450002300613,-3,-3,-4,-6,-2,0,-2,-1
450002300613,-1,-5,0,1,-1,2,-2,1
450002302189,-6,7,-2,-4,0,2,1,-3
450002302189,-1,4,-2,-1,-3,2,-2,1
450002314278,-1,-4,-2,-7,2,3,-1,-1
450002314278,6,1,-3,0,3,3,3,-2
450002323210,0,3,1,6,2,4,0,2
450002323210,-2,-1,-3,4,3,1,-1,3
450002337480,-5,-8,0,-2,-1,-8,-3,-2
450002337480,-3,-4,-6,2,-6,-5,3,-6
450002344270,-4,-8,-1,-6,-3,-4,-1,0
450002344270,-4,0,-3,-6,-9,-2,0,-1
450002360630,-1,5,-4,-3,-3,5,3,-3
450002360630,1,3,0,-2,1,8,-2,-3
450002362234,4,3,-3,-6,-2,-2,0,0
450002362234,3,-3,-3,-3,7,-4,-3,1
450002374225,1,-1,-4,-1,3,-5,-3,-5
450002374225,-1,-3,-4,-2,-1,-4,0,-3
450002383252,1,-3,1,1,3,0,0,-2
450002383252,0,-4,-3,-7,-1,-9,-5,2
450002397496,1,-5,1,-2,1,-3,-3,-4
450002397496,0,-1,2,2,-1,0,-3,-1
450002404252,0,-4,-2,2,0,1,3,-3
450002404252,-5,-1,0,5,-5,-1,3,1
450002420611,-3,0,2,2,-2,-4,0,-4
450002420611,-5,-4,-1,-1,-3,-6,3,7
450002422209,-2,-8,1,0,1,-5,1,-2
450002422209,-2,-1,-2,-1,-3,-2,0,-6
450002434404,3,-5,0,-1,-3,-1,2,1
450002434404,3,6,-1,3,1,2,-1,-2
450002443247,-2,-2,-2,4,1,1,-4,-1
450002443247,1,0,-4,-3,-2,1,-3,-3
450002457525,1,-4,-2,3,2,4,8,1
450002457525,2,-3,-3,-6,-1,-1,-3,-7
450002464389,5,1,4,3,-4,2,-1,0
450002464389,-3,-5,4,-3,-5,-1,-1,2
450002479730,-1,0,-4,1,-1,0,3,3
450002479730,0,0,0,-3,-3,-5,-3,-2
450002488367,0,3,-4,2,2,3,2,3
450002488367,-2,-1,-7,-4,-3,2,-5,-4
450002494374,-2,6,0,-6,-2,5,2,0
450002494374,-8,0,2,0,-1,0,-1,-2
450002503230,2,-4,-6,-5,-1,-4,2,-1
450002503230,4,-2,0,0,-1,-4,-3,-6
450002517533,-1,-6,3,2,-2,-3,-4,-4
450002517533,4,-1,-4,0,3,2,0,4
450002524403,0,3,4,-1,1,-4,0,-3
450002524403,-3,-1,2,-1,-1,-1,-2,-1
450002540187,0,-2,-1,-1,-5,-1,-1,-2
450002540187,-5,-3,-4,-5,0,2,0,3
450002546872,0,5,4,-3,-7,2,-3,-3
450002546872,3,0,-2,-4,-2,-1,-1,-2
450002554336,4,-2,-1,-6,-3,-8,-1,-4
450002554336,1,-2,1,-1,-7,-6,-2,-6
450002563312,-7,-2,-5,2,-4,-4,2,4
450002563312,-2,-2,-1,0,3,0,4,1
450002577538,-3,-5,0,-6,-4,2,-5,1
450002577538,-2,4,1,2,1,-2,0,-4
450002584338,0,1,-1,-2,-1,6,-1,-5
450002584338,0,-1,-3,0,0,-3,3,-2
450002600065,-1,-2,-4,0,3,-3,1,5
450002600065,1,-4,0,-2,0,-3,-2,-2
450002606814,-1,-3,-1,-3,-3,0,-4,1
450002606814,0,-7,1,-7,-4,0,-1,-2
450002614291,4,0,2,0,-7,1,-1,2
450002614291,-1,2,-1,-5,-4,-3,3,4
450002623268,1,0,-4,-4,-10,-3,-5,-1
450002623268,-3,-3,1,-1,-1,2,-4,-2
450002637244,-2,3,-3,-2,-3,1,-1,1
450002637244,1,6,5,3,0,4,-5,-1
450002645769,1,0,2,-1,1,-7,-5,4
450002645769,-3,1,0,0,0,-9,0,-4
450002659933,-3,-4,-1,0,-1,-3,-2,-1
450002659933,-2,-2,0,-2,-4,-7,-3,0
450002666722,-1,-6,-2,-4,2,1,0,0
450002666722,1,1,-3,-1,3,2,-1,-2
450002674218,1,5,1,3,0,3,-1,3
450002674218,3,2,-2,-1,-4,0,-4,0
450002683278,1,3,-4,-4,-4,-6,2,-5
450002683278,-3,-5,-1,0,-4,-6,0,3
450002697439,-7,-10,2,-1,1,-8,-1,-4
450002697439,1,-9,-1,-1,0,-7,-1,1
450002704223,-1,-6,-1,1,0,-3,-3,-5
450002704223,1,6,0,-4,1,1,2,1
450002719941,3,3,2,2,1,4,0,-3
450002719941,-2,3,1,-4,1,6,3,-2
450002726736,2,1,0,-3,-8,1,-2,-7
450002726736,-1,1,-1,4,-7,2,4,1
450002743105,-1,-3,1,-2,1,-7,-2,-1
450002743105,1,-7,-5,-5,-4,-7,-2,-3
450002744712,-2,-5,1,2,-1,-8,0,-5
450002744712,-8,-8,-5,1,-1,-2,-3,0
450002757456,1,-2,-4,0,2,5,0,-1
450002757456,0,6,-3,1,5,12,-2,-1
450002764295,-3,4,-1,-5,-1,6,-1,6
450002764295,0,-1,-3,-3,-1,1,0,1
450002779971,-1,-8,-4,-3,-7,-4,-1,-4
450002779971,-7,-21,-4,-4,1,-15,-7,-4
450002786748,-1,-1,1,-2,-2,-7,-4,-1
450002786748,-1,-3,2,2,1,-5,0,-6
450002803225,0,1,-7,0,-3,-9,-2,-2
450002803225,-1,-5,0,-2,-7,-1,2,-2
450002804784,0,-2,0,-5,2,6,1,-2
450002804784,6,4,-3,-4,-7,4,-4,-1
450002817535,-1,7,-1,-6,1,3,3,1
450002817535,0,-3,-4,-1,4,-4,0,-4
450002824343,0,-15,-4,0,1,-8,1,-3
450002824343,-1,-5,-4,-1,-2,-5,-3,2
450002840047,-1,-6,-1,-1,0,3,-4,-2
450002840047,-5,0,1,-1,0,2,3,2
450002846840,0,6,-2,0,4,6,0,-1
450002846840,0,4,-4,-3,-2,-1,2,-1
450002863193,-2,5,0,-5,-6,4,-2,0
450002863193,0,13,2,0,-3,3,-4,1
450002864804,-1,5,3,3,-2,3,1,-2
450002864804,-2,0,0,-1,-1,-4,1,-2
450002877509,-3,-6,2,-1,-2,-9,-1,-3
450002877509,-3,-1,-1,-1,-4,-3,5,-2
450002884392,0,0,-8,-3,-2,0,-1,2
450002884392,1,5,2,0,1,-3,-6,0
450002900021,4,1,1,-3,3,1,-4,-1
450002900021,1,-1,2,-7,-4,-1,-4,-3
450002906790,-5,-5,-2,1,1,-5,-1,-1
450002906790,-4,-4,-2,-4,2,-2,1,-1
450002923258,1,-4,-5,-1,3,-3,-1,-4
450002923258,0,-5,-3,-2,0,0,-1,-3
450002924772,-1,-1,0,-3,-4,-1,0,1
450002924772,4,3,-1,3,-1,-2,-5,-2
450002937573,-3,-7,-2,0,-2,-2,2,-1
450002937573,3,-2,3,-2,-3,-5,1,-2
450002944358,-3,-4,-2,1,-3,-4,0,2
450002944358,-3,-2,2,-1,-6,1,-3,-1
450002968158,-4,0,-6,-4,-2,-1,1,0
450002968158,-2,0,-1,-3,-2,2,2,-6
450002969754,3,-4,0,1,6,-3,-5,2
450002969754,-1,2,-1,0,-1,2,-5,0
450002983122,2,1,2,-2,-1,-1,3,-1
450002983122,0,2,2,1,-3,1,-3,1
450002984801,-2,4,-1,-2,-1,4,0,-1
450002984801,0,-2,0,-2,2,4,1,2
450002996792,-3,4,-5,-1,-7,0,2,4
450002996792,-1,1,-5,-3,-1,-5,-4,5
450003005817,-2,3,4,-2,-5,-2,-2,-2
450003005817,2,-2,1,-2,-1,-2,1,-4
450003020469,-1,-6,-1,-3,-2,-2,-6,0
450003020469,-4,-4,-6,-1,1,0,-1,2
450003026755,-6,-4,-3,-2,-3,-2,0,-4
450003026755,-1,-3,-4,-3,-1,-4,-1,-9
450003043115,-1,3,2,-1,-7,-6,-1,-4
450003043115,0,0,-1,1,1,-2,-3,2
450003044739,1,-3,-1,-5,-1,-4,-3,0
450003044739,-3,0,-2,-4,-5,-3,2,2
450003056779,-2,-3,-2,1,-3,1,2,-2
450003056779,2,0,-3,3,-1,-2,-2,-2
450003065759,1,-2,-2,0,-4,2,3,-1
450003065759,-5,0,-3,-3,-2,-2,1,2
450003079942,-3,-2,-1,2,0,-6,-5,-4
450003079942,2,-8,1,-3,-3,-3,5,-3
450003086709,-1,-1,5,-1,-2,-3,-6,-3
450003086709,-2,-9,1,-3,-1,-4,-9,1
450003103083,1,-2,-3,-2,0,4,3,-3
450003103083,-1,-2,0,-4,-3,-3,-1,-2
450003104702,3,-1,-5,2,-1,-3,1,-1
450003104702,-2,-2,-5,-5,1,0,-1,-2
450003116762,-2,-6,1,-4,2,-4,-1,0
450003116762,0,-2,4,-2,10,3,-1,-2
450003125750,0,-1,2,-1,1,3,-8,2
450003125750,3,4,-2,1,0,1,-2,2
450003140013,1,0,3,-2,2,-7,-2,6
450003140013,-4,-5,-2,-9,-10,2,1,-3
450003146779,1,-3,-3,-2,-2,-1,3,-2
450003146779,2,-1,9,-5,-7,-2,-1,-1
450003163170,-5,6,2,6,4,1,1,-4
450003163170,-4,0,-2,-7,-6,-10,-10,1
450003164732,-1,1,-5,-4,-6,-4,-7,-2
450003164732,-2,0,0,-2,-5,-5,-3,0
450003176758,2,7,-1,1,-3,2,-1,2
450003176758,3,6,3,0,-8,2,0,-5
450003185780,1,6,1,-3,-6,-1,3,-2
450003185780,-1,1,0,-1,-5,-1,-1,-2
450003200474,3,-1,-1,-8,-4,2,-3,1
450003200474,3,4,-5,3,3,0,2,3
450003208282,2,-4,-2,-2,5,-3,-2,3
450003208282,1,-2,0,2,4,2,1,-6
450003223223,-1,1,0,5,4,-1,1,4
450003223223,3,2,-1,0,4,-2,0,3
450003224776,-2,5,-1,-7,-6,-4,-4,0
450003224776,1,-3,-6,-4,-4,-1,0,2
450003236848,0,-5,-1,-6,-1,3,-3,0
450003236848,-3,-4,0,4,2,3,1,-3
450003245833,1,-5,3,4,0,1,1,2
450003245833,0,3,2,0,0,-5,-6,-4
450003259945,3,2,-1,-5,-2,-5,-5,-9
450003259945,3,2,0,1,-4,3,1,-1
450003266860,-6,-2,-2,0,-1,1,-3,-3
450003266860,-6,-3,-1,-4,-4,0,0,0
450003283208,-4,0,-1,-1,-3,-1,1,-5
450003283208,-1,0,-1,-4,0,-1,-2,-2
450003284869,-2,0,-1,1,2,-5,0,-3
450003284869,1,-5,1,0,-1,-6,0,-1
450003296863,-4,-7,-1,-4,-3,-1,-3,-2
450003296863,-4,-9,-4,-7,0,-5,-5,-6
450003305815,-4,-8,-1,-5,-2,-6,-2,0
450003305815,-1,0,-3,0,-2,-1,3,-2
450003320023,-3,0,-3,0,2,-5,-3,-2
450003320023,0,0,2,1,-3,-1,1,2
450003326838,-2,0,-6,0,4,-1,0,0
450003326838,0,-2,-3,-2,2,-5,-1,2
450003343200,-1,-2,-6,-3,2,-3,-4,-2
450003343200,-2,-1,-2,-2,-4,2,-3,0
450003344768,0,-3,1,-1,1,1,-2,0
450003344768,2,3,0,-3,-1,1,-1,-1
450003356803,-1,3,-4,-3,-7,-4,0,2
450003356803,-1,-2,-3,-2,-1,4,1,1
450003373387,-2,-1,-4,-6,-7,3,1,-2
450003373387,4,-1,2,-3,0,1,1,2
450003380008,0,-3,6,2,-4,-5,-5,-2
450003380008,1,-1,-1,1,1,-7,-4,-3
450003386882,-1,-3,1,1,0,1,0,1
450003386882,-2,0,-2,2,-3,3,0,2
450003403208,-1,-2,-2,-2,-2,8,0,-1
450003403208,0,0,2,-3,-4,-5,-6,2
450003404815,3,4,-3,0,-5,1,-2,-1
450003404815,-5,-5,-2,-3,-1,1,0,-4
450003416869,-2,-5,0,1,1,0,0,-3
450003416869,1,-4,-2,-2,-1,-2,1,2
450003425833,-3,-5,-2,-8,-5,-3,-3,-4
450003425833,-1,-3,-6,-12,2,1,-1,-5
450003448153,-3,4,2,-1,-8,3,1,-2
450003448153,-4,1,0,1,-4,5,0,0
450003449751,5,-2,3,1,-3,-2,0,-2
450003449751,-3,-2,-3,-2,-3,0,-4,-1
450003462442,-1,-5,0,1,-2,-4,-1,3
450003462442,-1,2,-2,0,2,-3,0,-1
450003477426,0,4,2,5,6,1,-3,-2
450003477426,0,5,-1,0,-5,6,4,-4
450003478211,1,2,1,-4,1,2,1,0
450003478211,-8,0,-1,-1,-4,-1,0,1
450003485783,-7,-3,-3,-1,-2,1,-3,0
450003485783,2,0,0,4,-2,-7,-2,-7
450003499979,-4,-4,-3,1,1,-2,-3,4
450003499979,1,-2,4,2,4,-4,1,2
450003506760,-1,-8,-2,-10,-1,-1,1,0
450003506760,-4,0,0,-4,2,-1,1,3
450003522464,2,-1,-3,-5,5,3,2,1
450003522464,2,4,-5,0,5,4,-2,-2
450003529262,0,1,-1,0,3,4,-1,-2
450003529262,-1,-4,1,5,-3,-7,-4,-2
450003536759,2,1,0,0,-6,-10,-1,1
450003536759,-4,-7,-6,4,-6,-13,2,-4
450003545789,-6,-5,3,-1,1,-7,6,-4
450003545789,3,-5,-2,-2,2,7,-7,-4
450003559999,-1,3,0,4,-3,1,0,-4
450003559999,1,6,2,-5,-7,4,-6,4
450003566805,1,9,-2,-2,0,-1,3,-2
450003566805,-4,1,-4,-3,-5,-1,-1,-2
450003582457,-3,-10,-1,-5,4,-1,-1,1
450003582457,-2,-4,-2,-2,-4,0,0,2
450003589276,1,-12,1,0,-5,-12,-2,-1
450003589276,-2,-8,-2,-1,-6,3,-1,2
450003596753,1,-2,-2,-4,1,2,-2,-4
450003596753,3,3,2,-3,3,-3,-1,-3
450003605784,3,0,1,-1,-3,3,-3,2
450003605784,0,1,0,-3,1,-1,-4,-1
450003620069,3,-2,-2,1,2,1,0,3
450003620069,-2,1,2,-2,1,-2,1,-1
450003626801,-4,0,0,-1,-3,-5,-3,2
450003626801,-1,-6,0,1,0,-10,-2,2
450003642531,-8,-6,-2,-2,2,-2,2,-4
450003642531,-2,-10,-6,-3,0,-4,-2,-5
450003649365,-3,2,-6,-3,-3,-1,5,-3
450003649365,-4,3,2,-4,-2,2,2,0
450003665527,0,6,-1,-5,-5,4,-4,0
450003665527,-2,0,-3,-2,-4,4,-2,0
450003671864,2,4,-5,-3,-8,1,-8,-1
450003671864,3,0,3,-2,1,-4,2,-1
450003680071,-3,-9,1,2,0,-6,2,-1
450003680071,-1,-4,0,-2,5,-2,1,0
450003686835,3,0,4,3,3,-2,3,-3
450003686835,2,3,-3,-4,4,-2,0,-2
450003702986,-1,6,-8,2,-1,2,1,1
450003702986,3,2,-2,-2,-1,2,3,-2
450003709307,-4,-2,0,-2,0,-1,1,-5
450003709307,1,-1,1,2,2,-2,3,0
450003725653,-1,-1,-2,-2,4,-8,1,-4
450003725653,-4,-3,-2,-2,0,-4,0,1
450003727256,-6,-8,-5,1,2,-1,2,6
450003727256,0,0,-4,3,1,-2,0,-5
450003740058,0,-1,3,0,0,-6,0,2
450003740058,4,-1,5,-4,-5,-4,-4,-6
450003746854,3,0,-1,1,6,0,2,-1
450003746854,0,2,1,2,-2,-4,0,-1
450003762592,-1,-3,0,-8,-7,-5,-8,-2
450003762592,-1,-2,-4,-2,-7,-1,-2,-4
450003769316,-4,-6,0,2,-5,2,0,1
450003769316,-2,-5,-8,-6,-6,-4,-3,1
450003785749,5,-1,-1,3,2,-3,-2,-3
450003785749,-3,1,2,-7,-2,-2,3,-2
450003787385,3,-2,-1,-7,-4,2,-1,-4
450003787385,-7,-3,-1,0,2,6,0,-1
450003800033,1,1,-6,-2,-6,2,-1,1
450003800033,4,-4,0,-2,2,1,-1,1
450003814393,-1,-1,-6,-1,-5,-4,1,-1
450003814393,-2,-1,-2,-3,-5,-5,-3,-3
450003822532,-3,-1,-1,-2,-6,-5,2,-5
450003822532,-2,-2,-3,2,0,-5,-7,-1
450003829330,-1,0,-6,2,1,-2,-2,-4
450003829330,-4,-4,0,-2,-5,-4,0,1
450003845670,0,-1,-2,-3,-7,1,-3,-5
450003845670,1,2,-4,1,1,0,1,1
450003847267,-2,2,1,-1,-2,-6,1,0
450003847267,2,-1,2,1,-4,2,2,1
450003859959,-4,-9,-4,-1,1,-4,0,-3
450003859959,-6,-8,-4,-5,-7,-5,-4,-1
450003866791,-3,-8,0,1,1,-3,-2,-7
450003866791,-6,-5,-1,-4,3,0,-5,-3
450003882502,-5,-1,0,-7,-4,2,-4,-6
450003882502,-2,5,4,1,5,4,-1,1
450003889288,-1,4,-3,-3,-1,0,-5,2
450003889288,-3,-1,0,-1,1,5,-1,-5
450003905650,5,2,-1,4,3,0,5,1
450003905650,0,-4,3,0,-3,0,-5,2
450003907262,5,-2,-2,-4,1,2,0,0
450003907262,2,-5,-5,0,2,-2,-8,-2
450003919968,0,0,-3,-7,-4,0,0,7
450003919968,-1,7,-6,-1,1,6,0,1
450003926756,-1,-2,-2,-3,4,7,-1,3
450003926756,4,-1,0,-1,-2,2,0,5
450003942468,-4,3,-1,3,0,-1,0,0
450003942468,-1,-3,-7,0,-2,-1,0,-1
450003949250,0,-1,-2,-1,-9,-4,-8,-1
450003949250,-3,-2,-7,0,0,-5,6,-4
450003965663,0,-3,1,-1,-4,-4,-2,-5
450003965663,-2,-1,2,1,-1,4,2,-7
450003967342,-4,-1,4,-5,-5,-3,-2,-2
450003967342,1,6,-4,-3,-4,2,-2,0
450003979318,-3,-2,-3,-8,-7,0,-2,-4
450003979318,2,-7,3,-5,-5,-6,-3,0
450003988266,4,-4,1,0,-8,-8,-1,0
450003988266,0,-10,3,-2,-2,-8,0,-5
450004002445,-1,-1,1,0,1,-4,-4,1
450004002445,4,1,-1,-3,1,0,0,2
450004009285,-2,5,-2,-7,2,4,-3,-1
450004009285,4,3,-2,-1,-3,4,-1,2
450004025752,4,3,1,0,0,8,3,1
450004025752,-2,3,0,-1,2,3,4,-4
450004027319,-5,-5,0,0,-2,-4,-2,-3
450004027319,2,-3,4,1,-4,-5,1,-1
450004039380,-3,-3,-3,-6,-3,-8,-3,-1
450004039380,-3,-3,-4,2,-1,-2,2,-1
450004048358,0,-3,-2,0,1,4,1,-1
450004048358,-5,-2,0,-3,3,-1,-1,-4
450004062548,-4,-6,1,0,6,4,0,1
450004062548,-6,3,-3,-6,-2,1,-4,-2
450004069324,1,4,0,-1,-4,0,1,-1
450004069324,-4,2,-2,-3,-3,-2,-1,-1
450004085748,-3,-2,-2,6,4,-2,-4,-5
450004085748,-3,-7,-2,-1,-6,-2,1,3
450004087249,-4,-4,1,2,-3,-3,-1,-2
450004087249,1,1,2,0,-3,-3,-3,1
450004099390,-3,-2,-3,-5,-3,0,3,0
450004099390,4,0,-4,0,0,-1,-2,-1
450004108274,-3,3,-3,-1,-1,3,0,1
450004108274,1,-1,0,-4,-2,6,2,-1
450004122557,0,2,0,-4,-10,3,-1,-2
450004122557,-4,1,2,1,-4,-3,5,-1
450004129414,1,-1,-3,-6,-3,-3,-1,-1
450004129414,-1,2,-2,1,-2,-2,-4,0
450004145756,0,5,-3,-1,4,3,1,1
450004145756,-2,-3,3,-2,-1,4,-3,-3
450004147260,-1,0,-1,-2,-1,3,0,1
450004147260,-2,-2,-3,0,-1,-2,-1,0
450004159396,-1,1,2,2,0,-2,-1,-2
450004159396,-3,2,-7,0,2,-1,-5,-3
450004168400,0,-5,2,-2,0,-1,-1,-1
450004168400,-3,-8,-2,-5,0,2,-4,-3
450004182555,1,-2,-2,-1,-3,-7,-3,-1
450004182555,-1,2,-4,2,1,-5,-2,-1
450004189359,0,0,-5,-4,-3,-1,-2,-3
450004189359,-1,0,0,-3,-9,-8,-3,0
450004205715,-4,-4,-2,-1,0,-4,-1,1
450004205715,-4,-4,0,-6,-4,-2,-1,-2
450004207302,0,-2,-3,0,3,-1,-5,-3
450004207302,-4,2,-7,-3,-2,0,-3,1
450004219387,4,-4,-6,-4,-4,-2,-4,2
450004219387,-3,-5,-5,-5,-5,-6,-3,0
450004228316,-4,-1,-1,1,1,-7,-5,-3
450004228316,-4,-2,-4,1,5,0,1,-6
450004243312,-2,-6,-3,-8,-1,-2,-4,-2
450004243312,5,2,0,-3,-1,2,2,-3
450004249280,-4,1,-2,-6,-2,0,-6,0
450004249280,-2,0,-2,-5,-3,3,3,-1
450004264957,-2,5,-1,0,-1,2,3,-4
450004264957,-1,-2,-1,-4,-1,0,1,1
450004265713,-5,3,1,-1,-4,4,-2,-1
450004265713,1,1,-3,-4,3,-2,-1,0
450004287411,-1,1,-2,-2,-1,0,-1,3
450004287411,-2,-1,-2,4,3,4,-1,-2
450004288221,2,-3,2,2,7,1,2,-3
450004288221,1,0,2,-3,-3,7,0,1
450004303258,-1,4,-2,-4,-7,5,-1,-3
450004303258,-4,-3,-1,0,0,-3,-8,4
450004309307,2,3,-5,-4,-6,-3,2,1
450004309307,-2,-7,-4,0,3,-8,-1,-3
450004324909,-1,-6,-1,-3,-2,-4,-5,-1
450004324909,0,-7,-1,0,-9,-9,1,-3
450004325717,-7,-10,2,0,2,-10,-6,-2
450004325717,-2,-9,0,-4,-1,-6,-3,1
450004347448,-1,-2,2,0,1,2,-1,-2
450004347448,-1,-2,-4,0,1,-1,-5,-2
450004348254,-1,2,0,-3,-5,-6,-3,-1
450004348254,-3,-3,1,-2,-1,-7,-2,-1
450004363308,-3,-5,-1,-1,3,-6,-5,-1
450004363308,-3,-4,0,-3,0,-3,-6,-2
450004369303,-2,-2,-5,2,0,-4,3,-2
450004369303,-1,0,-1,0,-2,-5,-3,1
450004384913,0,1,1,-1,-1,1,-1,-4
450004384913,-1,2,-1,-6,-7,5,-3,0
450004385709,2,3,-2,0,8,15,3,3
450004385709,-1,2,0,-3,-2,0,1,-5
450004407458,-4,-1,-5,-1,1,-2,-3,-5
450004407458,0,-7,4,-1,-5,-6,3,1
450004408276,-1,-5,0,-4,0,-2,-4,-2
450004408276,1,2,-4,-1,-1,-2,1,2
450004423321,4,5,4,-7,-12,0,1,2
450004423321,-3,-2,4,3,-5,0,0,-3
450004429332,5,-9,-4,-2,-8,2,0,2
450004429332,0,5,1,2,1,4,-3,0
450004444340,-2,5,-2,-3,-6,0,-3,2
450004444340,4,15,-3,5,4,8,1,1
450004451843,-2,8,-1,0,-2,6,2,-2
450004451843,-2,6,-1,-1,3,4,-6,2
450004467403,-2,-3,1,3,3,3,1,2
450004467403,1,0,3,-4,1,-3,-1,0
450004468231,-3,-1,0,-1,-6,-7,-7,-7
450004468231,1,-1,1,-4,-8,-3,-3,0
450004483265,2,2,1,-2,-1,-8,-1,1
450004483265,-1,-1,-2,-1,1,-1,2,-1
450004489396,-5,-4,1,-2,-2,-2,1,-3
450004489396,-1,-2,4,-1,-3,0,-2,-2
450004504433,-3,-8,-3,2,-1,0,-2,-2
450004504433,-5,-2,-2,-8,-1,-1,-8,-2
450004511792,3,0,0,-1,2,1,0,1
450004511792,-1,7,1,2,0,2,-3,-2
450004527473,-4,2,-4,1,2,0,0,0
450004527473,-4,-7,-4,-2,-3,2,-1,-2
450004528285,1,10,2,-3,-4,6,-3,-1
450004528285,1,0,1,-3,0,-3,1,-7
450004543366,1,5,1,0,-4,-3,1,-6
450004543366,0,-11,-1,0,-4,-7,-1,-3
450004549269,-5,-6,3,4,-1,-4,2,-1
450004549269,-2,-18,-6,-2,-5,-2,-3,-1
450004564404,-1,-6,-2,0,-1,-3,-3,2
450004564404,-3,-3,-2,-4,4,-3,2,0
450004571859,-4,1,-2,-4,-2,-5,-2,-7
450004571859,-2,-1,-5,0,-6,-4,-1,0
450004587533,-2,-3,2,5,1,-1,2,-1
450004587533,2,0,1,-1,-2,-5,-5,-3
450004588326,-2,0,-4,-4,-7,-7,-5,-3
450004588326,-2,-6,-4,-6,-1,-5,-3,-1
450004603362,0,4,-6,-1,0,-1,-5,-4
450004603362,-3,7,-1,-3,-8,-2,3,1
450004609361,0,-8,-8,-5,-7,-6,1,1
450004609361,2,0,0,1,-5,-1,0,-2
450004624433,2,-1,-3,-4,-3,0,1,-4
450004624433,1,2,0,4,-2,1,-2,2
450004631924,-1,-5,-7,-2,6,-4,-1,0
450004631924,-3,-4,-3,2,-4,-2,3,-2
450004647564,-3,-8,-2,-5,-4,-2,1,1
450004647564,-1,-6,-4,-3,2,-3,-2,2
450004648389,1,-5,1,-2,-3,-3,-1,-1
450004648389,0,5,-1,2,3,5,-1,0
450004663361,-3,2,6,-5,-2,2,-6,1
450004663361,0,0,-5,1,0,1,-2,-4
450004669332,-2,0,2,-4,-4,1,-2,-1
450004669332,1,5,2,-2,3,1,1,0
450004684345,0,-1,-3,0,-5,1,0,-3
450004684345,1,-2,-1,-2,0,3,-3,0
450004691814,2,-1,4,-1,2,-6,2,2
450004691814,1,1,-3,-2,-2,5,-3,-4
450004707468,-3,1,3,-2,0,-4,-2,-1
450004707468,-11,-5,-4,-6,-4,-2,0,0
450004708259,1,1,-5,-2,-3,6,3,1
450004708259,-3,3,-1,-5,0,2,0,2
450004723322,4,0,-1,-2,-4,2,-2,0
450004723322,3,9,-2,3,7,-1,1,-2
450004729305,-4,6,3,-1,-1,8,1,1
450004729305,0,-6,1,1,4,0,-1,-3
450004744303,-2,-7,0,-6,1,-2,-3,-1
450004744303,3,2,1,-3,1,0,2,-4
450004751799,-3,0,-5,3,1,-1,0,-1
450004751799,-2,-8,-1,-3,2,-2,0,3
450004767425,2,-3,0,4,1,-3,0,-2
450004767425,1,5,-1,-1,0,0,2,-1
450004768210,1,1,3,3,-4,-9,-7,-5
450004768210,-1,-5,-1,-1,-4,-5,-3,2
450004783262,-3,-4,-5,-1,0,-5,-7,-1
450004783262,0,-4,0,-2,-9,-1,3,-3
450004789293,0,1,-1,0,2,-5,-3,-1
450004789293,1,-3,-3,1,0,-6,4,-2
450004804308,-1,-1,-4,-4,4,1,2,1
450004804308,4,-2,-1,-4,-5,-1,-3,-3
450004811771,-1,-6,-3,-3,2,1,-3,0
450004811771,-3,2,-1,3,0,1,-2,2
450004827438,-1,7,-3,0,4,3,2,1
450004827438,0,0,2,-2,-2,-1,-7,0
450004828235,0,7,1,-1,-6,-6,2,2
450004828235,-1,0,0,1,1,2,1,1
450004843284,-3,0,0,3,1,-2,-1,-5
450004843284,-4,-3,3,-3,-3,-3,-1,2
450004849284,-1,-1,-2,0,2,1,-1,-1
450004849284,-4,-1,-1,-3,1,-5,2,-4
450004864287,-2,-2,4,-3,-5,0,3,-4
450004864287,1,-6,-7,1,2,1,2,2
450004871793,4,1,0,-2,-1,6,-1,-3
450004871793,0,4,-1,-4,-3,-1,-4,1
450004887550,-3,3,-1,-1,-2,2,-1,2
450004887550,1,-3,0,-2,2,-5,-2,-3
450004888335,-5,0,0,0,-2,-1,0,-2
450004888335,0,2,-4,-3,-4,-2,0,0
450004903341,-2,-2,-1,0,-4,-6,-2,-2
450004903341,-1,3,3,0,-7,-1,2,2
450004909364,-3,-6,0,0,-1,-1,-1,-4
450004909364,1,-2,3,-5,-2,0,-7,-5
450004924383,1,0,1,-5,0,-1,-5,-5
450004924383,-6,0,-3,2,1,-2,0,1
450004931935,1,-6,-2,-2,1,-1,-6,-2
450004931935,0,1,-6,-4,-6,0,-1,-7
450004947547,0,-4,-2,-5,-5,-2,2,1
450004947547,-2,-1,-4,0,-1,0,-2,2
450004948307,2,3,0,-4,-5,-8,-2,2
450004948307,-4,-6,-3,0,-5,2,-1,-1
450004963307,-2,0,1,0,1,0,2,2
450004963307,2,1,-3,-2,-1,0,-1,-4
450004969407,1,0,-1,-2,-2,-5,-5,1
450004969407,0,0,-3,1,-6,-2,-2,-4
450004984322,-2,-1,-2,5,4,0,5,-1
450004984322,-4,-5,3,0,1,-1,-6,-1
450004991908,-1,-1,2,0,0,1,3,0
450004991908,-3,-2,2,-1,-2,0,-6,1
450005007573,-2,3,0,-2,-5,5,2,-1
450005007573,-2,3,-4,-6,-1,2,-6,-4
450005008320,-2,-1,-4,-1,3,3,-2,0
450005008320,-3,4,-2,-3,-3,3,-2,-3
450005023359,-1,-1,1,-5,-7,-4,-3,-3
450005023359,-3,-4,-7,-1,3,-4,3,-3
450005029352,-3,-4,1,-5,-6,1,-2,-4
450005029352,-2,-7,-2,-4,-1,-3,-2,-4
450005044374,-1,-4,-1,-3,1,-3,-5,1
450005044374,-2,-5,1,-5,-7,-1,0,-1
450005051862,-3,-2,-4,1,-2,5,5,2
450005051862,1,4,0,1,1,-1,4,1
450005067443,1,0,-2,-4,-4,-3,-8,-2
450005067443,0,2,-1,-3,-1,-3,-2,-9
450005068243,-6,-1,0,-2,0,-1,-1,0
450005068243,-2,3,0,-3,0,-5,-2,-1
450005083284,-1,-3,-4,-4,0,0,-1,1
450005083284,1,3,-1,2,2,3,3,-3
450005089242,3,-1,-2,-2,2,3,-6,-1
450005089242,0,2,3,5,7,2,0,-1
450005104287,-2,-3,-2,-1,-1,1,0,-3
450005104287,-3,-5,-1,0,-1,1,-1,5
450005111774,3,2,1,-5,-5,-5,4,0
450005111774,-4,-2,-6,-1,-1,1,-1,-2
450005127450,-1,-2,6,1,0,1,-1,1
450005127450,0,-4,1,-3,0,1,-3,-2
450005128238,-2,-2,2,2,0,1,3,-2
450005128238,-5,-1,0,-6,-5,-3,1,-2
450005143293,1,4,-2,0,-1,-1,1,0
450005143293,-2,-1,-3,-7,-10,-2,-8,-1
450005149295,0,1,3,-2,1,-4,-1,1
450005149295,-2,0,3,1,1,-4,0,4
450005164323,0,-6,-4,-3,-2,1,-1,-4
450005164323,1,-1,2,2,-1,3,-4,2
450005171822,0,1,-3,-1,3,1,-2,-3
450005171822,2,-5,-3,-3,-8,-2,-1,-2
450005187469,4,2,2,0,-1,-1,1,0
450005187469,-4,-2,2,1,0,-5,4,1
450005188261,3,-1,-3,0,-2,1,-3,-1
450005188261,3,4,4,-1,-2,-6,-5,-2
450005203321,1,0,-5,-1,-1,-6,-2,-4
450005203321,5,1,-2,-3,1,-1,2,-5
450005209300,1,-4,-1,-3,-1,-2,-2,-4
450005209300,-1,-1,-1,1,-1,-1,1,-1
450005224293,0,-3,-2,-5,-8,-2,1,-2
450005224293,-4,2,0,2,2,-2,-2,3
450005231792,-1,-1,0,3,-2,4,-2,0
450005231792,4,-4,-5,-4,5,0,0,0
450005247568,0,-3,-1,-1,-6,-4,3,-2
450005247568,1,0,2,-2,1,1,-2,3
450005248308,-2,1,1,1,-3,1,1,0
450005248308,1,-2,1,-4,1,-3,3,2
450005263418,-3,-2,2,-3,-1,2,-2,2
450005263418,1,0,-1,1,-1,-3,-1,-2
450005269307,-5,-7,0,-1,-1,-1,3,0
450005269307,0,-4,1,-1,1,2,-3,-1
450005284412,-2,0,5,1,-3,-3,-3,-1
450005284412,-3,-1,-2,4,0,0,0,0
450005291945,-3,1,-3,0,-2,-7,-2,-2
450005291945,-2,-1,-6,-3,-4,-2,-3,1
450005307521,-3,-7,-2,-1,6,5,0,4
450005307521,-3,2,-2,-6,-5,-3,0,1
450005308329,-7,-6,-3,-4,1,-1,-1,-2
450005308329,-2,-6,-5,-4,-7,-3,-2,-2
450005323345,-3,3,0,-5,-5,-3,0,-1
450005323345,-4,-4,3,1,0,2,0,4
450005329360,5,1,0,0,-1,-1,2,1
450005329360,0,-2,-3,-3,-4,-4,2,-6
450005344310,0,-2,-1,5,5,4,1,0
450005344310,-3,-2,0,3,2,2,-2,-4
450005351868,-2,-2,2,0,-3,-4,-2,1
450005351868,-3,-6,-2,0,2,2,-1,0
450005366878,-3,-2,-4,-3,-1,-4,-3,2
450005366878,-4,-5,-3,-4,-2,2,3,-2
450005374402,-2,2,-2,0,0,2,-6,-1
450005374402,-4,1,4,1,4,-2,0,-3
450005383404,-1,-1,0,2,2,2,-5,-1
450005383404,3,-3,-3,1,4,-4,0,-1
450005389384,2,0,-7,-3,2,-2,-1,0
450005389384,-1,0,2,-3,-3,1,-5,1
450005404416,-3,-4,-2,-1,1,1,0,-2
450005404416,2,-2,-1,-4,-3,-2,1,-8
450005411938,-2,-1,0,2,1,-5,-1,-4
450005411938,-1,-3,-1,-1,1,-1,0,2
450005426858,-3,-1,0,-3,-3,-4,2,-6
450005426858,0,-5,0,-2,-5,-9,-3,-4
450005443252,2,-3,2,-4,-2,-1,0,-3
450005443252,-2,1,1,-1,2,1,2,-2
450005444855,-1,0,-2,2,2,0,-3,2
450005444855,-3,2,-1,1,6,1,3,-3
450005449378,1,-1,0,-2,2,-3,-2,2
450005449378,-2,2,-2,-4,0,-1,-3,0
450005464408,2,-1,-5,-1,1,-3,-3,1
450005464408,0,-2,1,1,-4,-2,-1,-1
450005471902,-3,0,4,-5,-2,2,-6,-4
450005471902,-2,0,0,8,0,4,4,0
450005486835,1,-1,0,-3,-3,-5,-1,-1
450005486835,3,-2,1,2,2,-3,1,2
450005494458,-2,-5,-1,-4,-3,0,4,-2
450005494458,4,1,-2,-1,-6,0,0,-2
450005503404,2,7,-3,-2,-4,2,5,-7
450005503404,0,4,-2,-3,0,1,-6,3
450005509319,1,-2,0,-1,-3,1,-5,-1
450005509319,1,5,-5,-2,-3,-1,-4,-3
450005524417,-5,0,0,-3,0,1,-1,-2
450005524417,0,-3,-2,-6,-4,-4,1,2
450005531834,2,2,-6,-6,-7,-3,1,1
450005531834,0,-6,-4,-1,-3,0,-1,-3
450005546859,2,0,-3,0,-8,-4,-6,1
450005546859,-4,-1,0,1,-3,6,4,1
450005554395,-1,-1,-4,-5,-7,0,1,-1
450005554395,-4,-1,1,-2,-4,-4,-1,-1
450005570053,-1,-1,0,0,4,3,0,-1
450005570053,-1,-2,-1,-8,-11,4,-5,-4
450005570814,4,3,-2,1,-1,0,1,-2
450005570814,-7,1,0,-4,-1,-4,-1,2
450005584461,4,0,-3,-1,-1,-1,-1,1
450005584461,0,0,-2,-3,-2,-2,-2,1
450005591944,-4,-1,-1,5,0,-1,-3,-1
450005591944,4,-1,0,1,3,0,0,-2
450005606897,3,0,0,0,-4,-3,-1,-5
450005606897,0,0,-2,-1,5,-2,2,-4
450005614400,-2,-4,0,0,-2,-3,1,-6
450005614400,1,-4,0,5,-1,6,0,2
450005630065,-6,1,0,1,1,2,-5,-2
450005630065,-4,-4,-5,1,-1,-1,-2,-3
450005630824,-5,-2,-3,-7,-6,-1,-5,-5
450005630824,2,-1,0,-4,-1,-1,1,1
450005644399,0,-2,1,0,-3,-6,0,2
450005644399,2,1,1,1,0,5,2,3
450005651872,1,-3,1,1,2,-4,-2,3
450005651872,1,1,-2,2,-1,0,-4,-1
450005666880,-3,-3,-3,1,-1,3,6,5
450005666880,1,-3,-2,-4,-6,-8,-3,-5
450005674378,-5,2,-1,3,4,0,-1,1
450005674378,4,3,0,-3,-2,-1,-3,-4
450005690105,0,-2,4,-3,-4,0,-3,0
450005690105,-1,3,-5,1,-2,2,-4,1
450005690834,-2,-2,0,-2,-1,-4,-4,-4
450005690834,-1,-3,0,-7,-5,-3,-2,-1
450005704361,-3,-1,-2,-2,-2,2,-6,-4
450005704361,-1,-5,-2,-4,-7,-6,0,-2
450005711909,-1,0,-1,1,0,1,5,5
450005711909,-6,3,-4,0,-2,2,1,3
450005726853,-2,-1,-3,-2,-3,-4,0,-2
450005726853,1,3,0,4,2,-4,-2,-2
450005734361,-2,-1,-2,-3,-1,-7,-1,-1
450005734361,-1,-3,-2,-1,2,-4,-4,-3
450005750034,-2,-6,-2,-2,-1,4,2,4
450005750034,-1,-1,4,4,4,2,4,0
450005750854,-4,-3,1,4,2,3,1,-3
450005750854,-1,-1,-6,-2,2,0,-1,-4
450005764418,0,5,1,0,-2,-2,-4,-4
450005764418,0,2,0,-5,0,-3,-3,-1
450005771898,-1,-1,-3,-3,-1,-1,-4,1
450005771898,-1,-1,1,-1,0,2,4,0
450005786912,2,1,-2,3,5,4,2,-1
450005786912,-4,-4,-2,-2,1,0,2,1
450005794402,-3,2,-1,-2,3,1,-1,-3
450005794402,1,-3,0,-1,-5,-1,-1,-2
450005810051,2,-2,-5,-2,1,-3,2,-3
450005810051,1,0,3,0,-4,-4,-4,0
450005810837,1,3,3,8,3,7,5,-5
450005810837,-5,0,-5,-2,1,0,-3,-2
450005824334,1,-4,-1,-1,4,-1,-3,1
450005824334,0,-1,-1,-4,-3,0,-1,-3
450005831840,3,3,-1,2,0,-1,-1,3
450005831840,0,-1,2,3,5,0,-5,-2
450005846858,-5,-6,3,-5,-3,1,-6,-2
450005846858,-2,0,2,-3,3,0,-7,-1
450005854394,-2,-2,0,-7,-3,-2,-4,-2
450005854394,-4,-2,1,3,1,4,-3,2
450005870079,-2,-6,-3,-3,0,-4,0,2
450005870079,-4,-4,-1,2,3,1,-2,2
450005870860,2,-2,1,1,2,-1,1,1
450005870860,2,1,-3,3,3,-4,-3,-5
450005884419,-2,6,3,-3,-3,-1,-4,1
450005884419,-4,-6,-5,-4,-4,0,0,-2
450005891918,-2,-2,0,-3,-4,-2,2,-2
450005891918,-6,-6,0,-5,-6,-1,-2,-3
450005906889,-4,1,-4,0,-1,-1,-1,-1
450005906889,3,0,-1,-1,-1,-2,-2,1
450005914375,1,-3,1,4,3,1,1,-2
450005914375,0,-4,-5,0,-3,-1,-1,0
450005929960,-2,-7,0,-3,5,-2,2,0
450005929960,-1,0,0,-4,-4,-4,-1,-2
450005930796,0,-2,0,-2,-3,-3,-4,2
450005930796,2,4,1,2,-3,-2,4,4
450005944349,-5,-1,2,-1,-1,0,-3,-4
450005944349,0,-1,0,1,4,2,2,-2
450005960140,-1,-7,-4,-8,2,4,3,3
450005960140,-4,-5,0,-4,-3,-2,5,0
450005966881,0,-2,-2,-1,-3,1,6,1
450005966881,-4,-1,2,-3,-1,-1,0,-5
450005974394,1,-3,-2,-7,-9,-5,2,-1
450005974394,-4,4,2,-3,-1,3,0,-3
450005989941,1,1,6,-2,-2,-9,-5,0
450005989941,1,-6,-3,0,0,-1,1,-3
450005990732,-3,-1,-1,-1,-7,1,-2,-2
450005990732,2,-6,2,2,7,0,2,1
450006004305,5,-4,-3,-8,-8,-3,0,1
450006004305,-1,0,0,-5,-4,0,-4,-3
450006011855,-2,-5,-4,-1,4,2,1,-1
450006011855,-4,0,-4,-8,-9,-10,-3,-4
450006026814,2,-1,-5,3,0,-1,-2,0
450006026814,0,3,1,2,-2,0,-6,-1
450006034306,-2,-4,-4,-3,-4,0,-2,1
450006034306,3,5,2,0,2,2,-1,-1
450006049976,-2,-1,1,-2,-3,-2,-5,-1
450006049976,-3,-4,-6,-1,-5,-3,-1,0
450006050781,-1,-3,-3,5,0,-3,-1,-3
450006050781,-3,-4,-2,-4,0,1,-3,-4
450006064343,3,-2,-2,1,-1,-2,2,-3
450006064343,1,3,-1,1,3,0,4,0
450006071827,0,0,0,0,0,-5,-3,7
450006071827,0,0,-1,0,2,1,-3,2
450006086788,-1,-1,-2,-3,0,-1,-2,-3
450006086788,3,0,2,-1,0,-2,-4,-2
450006094325,0,4,2,-4,-2,4,-3,-4
450006094325,1,-4,-1,-3,-6,-2,-3,-4
450006109997,-3,1,-1,2,1,2,-2,-1
450006109997,2,-3,-2,0,-2,-1,-1,3
450006110764,-1,-3,-4,0,3,-2,1,2
450006110764,0,-4,1,-1,5,0,1,3
450006124312,-3,0,3,-5,-5,0,-4,-4
450006124312,-6,-1,-3,-7,-3,-2,-3,-3
450006131807,-2,-4,4,-3,-4,-2,-3,-3
450006131807,5,-6,-3,-5,-5,-6,0,3
450006146823,0,-2,-2,0,0,-2,3,-1
450006146823,-2,-2,-1,-1,-1,2,-1,1
450006154342,1,1,0,-4,-2,1,-2,-6
450006154342,0,-2,-1,2,4,0,-1,1
450006170045,0,3,1,-2,-6,-3,-2,-2
450006170045,-1,-2,-2,-2,0,0,-4,2
450006170784,3,0,-2,-7,-4,-4,-2,-4
450006170784,-1,0,4,1,-5,2,3,-1
450006184354,1,-2,-7,0,4,2,1,-1
450006184354,-5,-5,1,-1,3,-4,3,-1
450006191851,-2,2,0,-1,0,-4,0,-2
450006191851,0,3,2,4,-3,4,2,-1
450006206804,2,-3,2,0,-5,0,0,0
450006206804,2,0,1,-2,-6,3,-2,-1
450006214354,-5,-1,-4,6,6,-4,-5,-1
450006214354,1,-3,-1,0,1,-5,6,0
450006230012,-2,-1,0,-1,-1,2,-6,-2
450006230012,1,0,-4,-4,-3,-4,1,0
450006230763,2,-1,3,2,0,5,1,-4
450006230763,-4,2,-1,-5,-7,-1,-2,-5
450006244352,-1,1,-1,-5,-1,-6,-6,-1
450006244352,-1,-1,3,-2,2,-3,1,-4
450006251838,1,2,1,2,0,0,2,-2
450006251838,-4,-1,-3,-3,-1,-3,-5,-3
450006266824,0,1,-2,1,5,-6,5,-1
450006266824,-1,6,2,7,3,0,-1,3
450006274341,3,0,-3,-2,-2,-1,-3,1
450006274341,-3,0,-2,-3,-5,-3,-4,-5
450006290111,-4,-3,-3,-6,-2,2,1,0
450006290111,-5,-5,-7,-4,-6,-6,0,-4
450006290859,-4,-1,-3,-1,0,-3,-1,0
450006290859,-3,-3,-2,-6,-3,-3,-3,2
450006304443,-1,-1,3,1,-2,-1,0,-3
450006304443,-1,1,-3,0,-1,-1,1,-4
450006311990,0,-2,-1,-4,-4,-1,-4,-1
450006311990,1,-4,-1,2,4,-3,-1,-1
450006326858,-4,2,-1,-2,0,4,-3,-1
450006326858,0,1,1,-3,-3,4,-2,2
450006334353,1,-1,1,-4,-7,-4,0,0
450006334353,-2,-3,0,-3,2,1,1,5
450006349327,0,-5,1,-1,-1,2,0,0
450006349327,0,-3,3,-3,-3,-6,-4,-3
450006357635,0,2,-1,2,-3,0,-1,2
450006357635,2,4,-1,4,1,-4,-3,0
450006364385,-2,0,-1,0,-3,-3,1,-2
450006364385,-5,0,-1,0,-2,1,-1,-1
450006371902,-5,0,-2,-6,1,0,-1,-3
450006371902,0,2,-1,4,-1,3,-4,-1
450006386867,-1,0,-3,-4,-2,-5,1,-2
450006386867,5,-2,-3,0,-2,-2,-3,-5
450006395058,-5,-1,2,1,-1,-1,2,-2
450006395058,0,4,-3,1,0,-1,0,0
450006409474,6,-4,-3,-1,-8,-2,-4,1
450006409474,2,-2,1,0,-2,-1,2,-1
450006417620,-5,-6,-5,-5,-3,0,-2,-6
450006417620,-2,-1,-1,-4,-3,-1,-4,-2
450006424395,-1,-4,-3,1,1,1,3,1
450006424395,-2,-1,-1,-6,-2,-9,0,3
450006431985,-1,-5,-3,3,0,-4,-4,1
450006431985,-4,-8,-1,0,-4,-1,-6,-5
450006446944,-3,-6,-3,-3,-2,3,-3,0
450006446944,-2,-3,-2,-2,3,-4,-4,-2
450006454388,-2,3,-4,-2,3,-3,-2,2
450006454388,-1,-3,-6,-7,-2,0,-5,-3
450006469411,0,-2,-2,-1,-3,-7,-1,-2
450006469411,-2,-2,-3,-2,1,3,-4,0
450006477565,1,1,1,-3,-2,-4,-1,0
450006477565,1,-4,-2,-3,-4,-2,2,-5
450006484368,-1,6,-5,1,1,3,0,0
450006484368,-4,-3,-4,-1,-3,-4,0,-7
450006491869,-1,-1,-2,-4,-7,-1,1,0
450006491869,-3,9,4,1,-1,-1,-1,2
450006506866,-4,-1,-2,-7,1,2,0,-2
450006506866,-3,0,-5,0,-3,0,1,1
450006514361,4,1,-4,-2,-4,-2,0,-1
450006514361,0,-3,-2,-5,-2,1,0,-1
450006529302,-4,-2,-5,1,3,-2,-6,0
450006529302,0,-2,2,2,0,1,-2,1
450006537522,2,-2,0,-2,3,2,-2,-2
450006537522,-2,1,0,-1,-5,-2,0,-1
450006552515,-1,0,1,-1,-6,-3,3,-3
450006552515,-3,-3,-2,-5,1,-1,-2,6
450006553320,-4,-3,1,-3,-2,-1,0,-4
450006553320,-2,-1,4,-9,-6,-4,-6,-2
450006566789,-1,2,-2,5,10,3,3,0
450006566789,5,-1,1,-4,-7,0,-5,1
450006574300,-1,-2,-5,-1,3,-1,-6,-1
450006574300,4,-2,0,-1,0,1,-2,1
450006589315,1,6,5,2,-6,-3,-1,-7
450006589315,1,1,1,0,-2,-2,0,-2
450006597573,-2,-2,-1,1,-4,1,3,3
450006597573,-2,-5,0,3,7,2,5,-2
450006612506,-4,2,-2,-2,-6,-2,-8,1
450006612506,1,-1,-6,1,0,2,2,-2
450006613260,0,2,1,1,2,-4,2,1
450006613260,1,-1,-2,-4,0,-6,-1,1
450006626795,1,-4,2,1,2,1,1,-3
450006626795,3,-2,1,-2,-4,-2,-1,-1
450006634299,-4,0,0,-3,-6,-3,-3,-3
450006634299,-3,0,-3,7,1,2,1,2
450006649347,2,-7,3,-5,-5,-3,-2,4
450006649347,-4,-2,-4,0,2,0,-3,-6
450006657525,1,-2,4,1,-2,-1,-1,-3
450006657525,0,0,-5,-3,-1,-2,-1,1
450006672526,-3,-1,-1,0,1,-4,-1,2
450006672526,0,-3,2,2,-2,2,0,2
450006673270,-2,-8,-3,-5,0,0,-1,-1
450006673270,-3,-3,-6,-1,-2,-1,0,-2
450006686848,3,-3,1,3,0,0,0,3
450006686848,-3,-2,-1,-2,-2,-3,3,-5
450006694424,-1,2,-1,3,3,0,2,-1
450006694424,-1,-1,2,-2,-3,0,0,3
450006709345,5,-4,-3,-6,-3,0,1,-4
450006709345,-4,-7,-2,0,5,-3,2,1
450006717498,-2,-3,0,-3,-4,2,-2,0
450006717498,-6,-3,1,1,-2,-2,-1,-3
450006732528,-1,-3,-2,1,-1,-5,2,-1
450006732528,2,6,-3,-7,-2,-1,-5,-1
450006733344,0,1,2,0,-4,-3,-1,-1
450006733344,1,0,-3,-2,3,-1,-1,-2
450006746942,-3,2,-4,-3,-4,0,-4,0
450006746942,-2,3,0,-1,0,1,-2,-2
450006754416,1,0,-1,-5,-6,-3,-8,-3
450006754416,3,2,3,1,1,-4,1,-2
450006769465,-2,-2,2,-2,-4,0,-2,-3
450006769465,-4,-8,-1,0,-1,1,-1,1
450006777595,1,1,-1,3,-2,-1,-3,1
450006777595,-4,0,1,-4,-1,-3,-1,1
450006792527,-1,2,0,-2,-2,-1,-1,-3
450006792527,-1,0,-5,-7,-1,-3,-5,-4
450006793342,1,-1,-1,-2,3,1,-1,-2
450006793342,2,-2,-2,-1,-7,1,-1,0
450006806949,-4,-7,-8,-3,-1,-4,-7,1
450006806949,-4,-4,-1,-2,-7,-2,-6,0
450006814445,-2,1,-4,0,1,1,-2,-6
450006814445,-3,-2,-3,-2,-3,0,-7,-1
450006829385,-3,-2,-6,-7,2,-6,-1,-4
450006829385,0,-2,1,-2,-3,-2,-5,2
450006837666,0,4,2,4,-4,-3,2,1
450006837666,1,0,-3,-1,-5,0,0,0
