timestamp,emg1,emg2,emg3,emg4,emg5,emg6,emg7,emg8
41748100276,0,-3,-4,-4,-11,0,-1,0
41748100276,-4,-3,-1,0,7,-6,-2,0
41748105831,0,2,2,2,5,4,2,-2
41748105831,-1,0,1,-1,1,-3,-4,1
41748106619,-2,-4,-3,-2,-2,-2,-4,-5
41748106619,2,1,0,0,-4,0,0,1
41748108207,-1,-4,-4,-3,-5,-4,-3,0
41748108207,1,4,3,1,1,-1,3,0
41748118793,-2,2,2,0,4,-4,-3,-3
41748118793,2,-2,1,-4,-3,5,3,-2
41748130240,-2,-1,-1,-1,-2,-5,-3,-1
41748130240,-1,-9,-6,-5,-8,6,2,2
41748133841,-4,1,3,2,-1,0,-3,-6
41748133841,-3,-3,-4,-1,2,1,-1,-1
41748150254,0,0,-2,-2,-3,-3,-2,0
41748150254,-3,1,0,1,-1,-1,-1,-1
41748157507,-2,-3,-1,2,8,2,2,2
41748157507,3,4,1,1,4,0,0,0
41748165315,-2,0,-1,-3,-3,1,3,-1
41748165315,-2,-4,-4,-2,-1,2,-2,-2
41748178847,3,-2,-2,-1,5,-6,-3,2
41748178847,-1,1,1,-2,-6,-4,-3,-4
41748188840,1,0,-2,-1,-1,-5,0,-1
41748188840,-1,2,1,-1,-5,6,-4,-4
41748226219,-3,-3,-2,-1,3,0,-2,0
41748226219,-4,-1,-2,-3,-2,-2,-4,-3
41748227034,0,0,-2,-3,-7,1,-1,-3
41748227034,-2,-2,-2,-3,-4,0,-1,-1
41748227792,1,-7,-3,-2,-3,-3,-2,0
41748227792,3,6,4,2,8,1,-1,-1
41748231087,2,4,0,2,5,3,0,0
41748231087,-3,1,1,1,1,-3,-2,-5
41748238544,-1,-2,-1,-1,-2,1,-2,-1
41748238544,-3,-6,-6,-4,-6,-1,3,-1
41748247549,-6,-5,-2,-1,0,-7,-9,-2
41748247549,3,-1,-2,-3,3,4,2,1
41748253561,-2,4,2,-1,-2,-3,-1,-1
41748253561,-2,-2,-1,-3,-3,-2,-4,0
41748270068,-2,0,0,1,1,-9,6,0
41748270068,-1,-2,-1,-2,-2,-4,-2,1
41748276028,-3,-3,-1,-1,-3,-2,2,-1
41748276028,1,2,5,3,2,-1,-4,-4
41748285091,-3,-3,-3,-1,0,0,-1,0
41748285091,0,-3,-2,1,-4,-2,0,1
41748298528,0,5,5,2,3,-2,-4,-2
41748298528,4,7,4,0,-1,1,7,3
41748307618,4,-3,-2,-4,-6,3,2,1
41748307618,-2,2,2,1,1,-1,-3,-3
41748313559,-3,-4,-3,-2,-3,-1,2,-2
41748313559,-4,-8,-7,-2,-6,-1,-5,-1
41748330058,0,1,0,2,7,2,7,0
41748330058,-1,-2,-3,-1,0,1,-5,-1
41748336101,-3,1,0,0,0,2,2,-3
41748336101,0,-2,-2,-3,0,-3,-1,0
41748351154,-3,-4,0,-2,-2,-1,-3,-1
41748351154,-3,-6,-3,-1,-1,-1,4,-1
41748358590,0,-1,0,0,2,1,0,-1
41748358590,0,-1,-1,-1,-3,0,1,-2
41748367569,-1,-1,0,2,9,0,-4,-1
41748367569,-1,0,-2,0,-1,-2,-1,0
41748373619,0,0,-1,-2,-3,-5,2,2
41748373619,-3,-2,-2,0,1,5,1,-1
41748390195,0,-1,-1,1,7,1,-2,1
41748390195,-1,2,-3,-1,-2,-3,0,-2
41748396113,1,0,0,0,0,-2,1,0
41748396113,-2,-2,-1,-1,-2,-3,-10,-2
41748405079,-1,-5,-5,-5,-9,0,3,0
41748405079,1,1,1,-1,-2,-1,-1,-2
41748418627,7,2,-1,1,-2,0,-1,4
41748418627,1,3,-1,-1,1,-3,-3,-2
41748427576,0,-1,1,-1,-6,2,-1,0
41748427576,-3,-3,-1,0,2,-2,-6,-5
41748433609,-4,-2,0,2,-2,-1,-2,-2
41748433609,-1,-2,-2,-1,4,-2,1,1
41748450113,-7,-3,-2,-2,-6,-2,-3,-4
41748450113,-1,-1,-3,-2,-4,-1,1,0
41748456081,2,-1,-3,-1,6,2,-2,-1
41748456081,-5,-2,2,0,0,-2,-2,-2
41748465116,-2,-1,-1,0,-5,-4,3,-1
41748465116,-1,-2,1,0,-2,3,-6,0
41748478602,-1,-1,-2,-1,1,-6,-2,-1
41748478602,-2,-1,1,-1,-4,-3,-3,-2
41748487619,3,4,3,-1,-1,-2,-4,-2
41748487619,0,-2,-3,-2,-2,1,2,0
41748493668,-2,-4,-5,-5,-6,-1,-3,-2
41748493668,-1,3,3,2,-1,5,4,-1
41748510037,1,-2,0,-1,-4,-3,-2,-1
41748510037,-3,-5,-6,-4,-2,-3,0,-4
41748516091,-5,-4,-4,-3,-6,-3,-2,-1
41748516091,-1,-4,-2,0,-2,-6,-3,-2
41748531041,-1,0,-1,-2,-4,-1,-2,-1
41748531041,-4,1,1,-1,-4,-1,0,0
41748538623,0,-1,-1,-4,-9,-4,-3,-2
41748538623,-1,-2,-1,-1,-2,-2,0,0
41748547630,-1,1,-2,-1,-1,-2,-2,-2
41748547630,-1,-2,-4,1,1,-3,-2,-2
41748553534,-2,-1,2,0,-3,0,1,-2
41748553534,2,1,-1,1,-2,0,-4,-2
41748570081,-1,-3,-3,0,0,0,-1,1
41748570081,2,0,-1,-3,-1,-3,-2,0
41748576105,3,3,-1,2,2,1,0,0
41748576105,1,-4,0,-1,0,3,1,-2
41748591168,0,-2,-3,-1,1,-3,0,-1
41748591168,-3,-3,3,0,-3,-1,-2,-2
41748607520,-1,-2,-1,-1,6,-1,-2,-1
41748607520,1,-3,-4,-1,2,-7,1,1
41748608995,-3,-2,-2,-1,-3,4,0,-3
41748608995,1,0,-1,-1,-4,-1,0,-1
41748613625,-2,-4,-2,-1,0,1,2,-1
41748613625,-1,-4,-4,-5,-5,1,-3,-2
41748630099,-1,-1,-1,0,4,0,0,-3
41748630099,-3,1,-3,1,1,-2,-3,-1
41748636069,-3,0,0,0,-1,3,-3,-1
41748636069,-3,-1,-2,-2,-3,-2,1,0
41748652561,3,2,1,0,-2,-3,-4,-1
41748652561,0,1,0,0,2,2,-1,0
41748658542,-2,-1,-2,-2,-2,-2,0,-2
41748658542,3,0,0,-2,-1,0,1,0
41748667550,-1,1,-1,-2,-3,0,-1,0
41748667550,0,2,0,-1,0,2,0,0
41748673589,-3,0,-1,0,8,1,-3,-3
41748673589,-1,-2,-4,0,-1,1,1,-1
41748690057,-2,-2,-3,-3,-1,-3,-7,-4
41748690057,1,-2,-2,-3,-4,-6,0,1
41748696007,-1,3,3,1,-2,2,1,-3
41748696007,-4,-4,-2,-1,0,-3,-1,-2
41748711028,-2,-3,-1,-1,0,-3,1,-1
41748711028,3,-2,0,1,2,-3,2,1
41748718503,1,-3,-3,-4,-3,-3,-5,-2
41748718503,-2,-1,0,0,2,3,1,0
41748727523,3,1,1,0,0,-4,-7,-2
41748727523,1,-1,0,-4,-10,3,5,-2
41748733576,-1,-4,-3,-2,-1,7,1,0
41748733576,1,-1,0,-2,-2,-1,-4,0
41748750497,-3,3,2,2,2,1,3,0
41748750497,0,-1,-2,0,1,0,0,-1
41748756070,-2,0,1,2,0,0,1,0
41748756070,-5,0,1,-1,-6,0,-1,-1
41748771030,3,1,-2,-1,0,0,0,0
41748771030,-2,-1,-1,-1,0,0,-2,-1
41748787456,0,3,2,0,-1,-2,-4,-2
41748787456,-2,-1,-2,-1,0,-1,0,-1
41748789063,0,-2,-1,-3,4,0,-2,0
41748789063,-1,0,1,-2,0,-4,4,-1
41748801052,3,-1,-2,0,-4,-2,0,-1
41748801052,0,1,3,2,-1,-3,-1,-1
41748810028,-2,-3,1,1,3,0,0,-1
41748810028,-4,-2,-1,0,5,3,-1,-1
41748815984,-2,-2,-1,-4,1,-1,-1,0
41748815984,-1,0,-1,-2,-1,-2,-1,-2
41748831171,-2,0,0,0,-2,-3,-2,-2
41748831171,1,0,0,-1,-1,0,-4,0
41748838551,-1,-3,-4,-1,-5,0,7,-2
41748838551,2,-1,-3,-1,1,-3,-2,0
41748847700,0,-1,-2,-3,-5,1,-1,-2
41748847700,-7,-7,-4,-2,1,-4,-1,-2
41748861117,2,3,1,0,-1,0,-4,2
41748861117,1,1,-1,1,-1,-1,1,0
41748870094,-4,-10,-6,-4,-3,-4,-3,-2
41748870094,3,3,-1,-1,-2,1,-1,0
41748876146,-4,-2,0,-2,-2,-1,-2,-2
41748876146,-1,-3,-2,-2,-1,-1,-2,-2
41748891142,-1,1,-1,-3,-4,-2,-1,1
41748891142,2,2,2,0,0,1,-3,-2
41748898642,-2,-3,-3,-2,-6,-4,-1,-1
41748898642,-1,1,0,1,5,-2,-5,-1
41748907569,-1,-2,0,0,-1,-3,-1,-1
41748907569,-1,-2,-1,0,-2,-2,-2,-1
41748921141,2,0,-1,-1,2,2,0,-2
41748921141,-3,-1,0,1,2,0,-1,-1
41748930150,3,0,0,0,-3,0,0,2
41748930150,-2,-4,-2,2,4,-2,-2,-1
41748936158,2,3,2,2,-1,-3,-2,0
41748936158,1,0,-2,-1,1,1,2,-1
41748951119,-4,3,1,-1,-2,4,-3,-3
41748951119,0,0,0,-1,-1,-6,-1,-1
41748958633,-1,-2,-1,-1,-1,-2,-1,1
41748958633,-1,-3,0,-2,-5,-1,-2,-3
41748967606,-2,-2,-1,-3,-3,-1,1,2
41748967606,0,-1,1,-3,-9,1,-7,-1
41748981150,-5,-5,-2,0,3,-1,2,-2
41748981150,1,3,2,0,4,9,2,-1
41748990156,1,-1,-2,-1,0,-6,-4,-1
41748990156,0,-2,-1,-1,-3,-1,-1,-1
41748996117,-2,-2,-2,-2,1,2,-1,-2
41748996117,-2,-8,-7,-5,-7,-3,2,0
41749011058,0,4,5,3,1,1,1,1
41749011058,-2,-2,-2,-1,1,-2,0,-1
41749018538,-1,-1,-1,1,-5,-3,-4,-2
41749018538,-2,-3,0,-1,3,-1,-2,-1
41749027526,-4,-5,-3,-3,-5,-1,-2,-2
41749027526,0,2,2,1,3,-2,0,-3
41749041128,0,0,-2,0,-2,-2,-4,-2
41749041128,-2,0,-1,-2,-3,-3,0,-3
41749050049,1,-1,0,1,-1,-1,-1,-2
41749050049,-2,-2,-4,1,-1,1,-1,-2
41749056033,2,2,0,-3,-2,-1,1,-2
41749056033,-4,-2,-2,0,-3,-6,-8,-2
41749071105,-1,0,-2,-1,-2,0,1,-2
41749071105,0,-3,-1,-2,-2,2,0,-1
41749078595,-2,-1,-1,-2,0,-2,-3,-1
41749078595,1,-2,-1,-3,-2,-3,-1,-2
41749087618,-3,-3,-5,-6,-11,0,-1,-4
41749087618,1,-1,-3,-1,0,-4,-2,0
41749101118,-1,1,0,3,6,1,2,-1
41749101118,0,2,1,0,0,-3,-2,1
41749110141,0,-3,-3,-1,1,-4,-1,-1
41749110141,-4,-1,1,0,-1,3,-1,-5
41749116059,-1,-2,-3,-3,-2,0,2,0
41749116059,2,0,-1,-1,2,-3,0,1
41749131099,2,1,1,0,6,1,1,0
41749131099,-1,1,-1,0,0,-1,-1,1
41749138531,-1,-2,1,-1,-1,-3,-3,-2
41749138531,-1,1,-2,-1,-7,1,0,-1
41749147552,-2,-3,-2,-2,-2,-2,-2,1
41749147552,-2,1,1,-1,0,0,1,-2
41749161579,-1,-3,-1,-3,-5,-4,-1,-1
41749161579,-1,-3,0,0,-1,0,-2,0
41749170085,0,1,0,1,7,-2,-2,0
41749170085,-2,-2,-2,-2,-1,-1,0,1
41749176072,2,-2,-2,-2,-7,-3,-5,-1
41749176072,-4,0,1,-1,0,1,-1,-2
41749191147,-4,-4,0,2,2,4,-1,-1
41749191147,3,1,-2,-3,-2,1,1,-2
41749198676,-1,-4,-2,-1,-2,-2,-4,0
41749198676,-1,-2,-1,-2,-2,-5,-1,-2
41749213628,-3,-2,-2,-1,-3,-2,1,-2
41749213628,2,1,-1,-1,-1,-3,-3,1
41749221169,-5,-2,-2,-3,-4,1,3,0
41749221169,1,0,0,-1,-3,-3,-8,0
41749236746,1,1,0,0,3,0,0,0
41749236746,1,-2,-3,-1,-2,0,-2,0
41749237492,0,1,-1,-2,-2,-1,-1,1
41749237492,0,0,0,0,-1,-2,1,-1
41749252607,0,-1,-1,-4,-6,-1,-1,0
41749252607,-2,-3,1,-1,0,-2,1,1
41749258595,1,6,6,5,11,0,-1,0
41749258595,-3,-3,-3,-3,-2,0,1,-4
41749273661,-3,-2,-3,-1,-1,-2,-3,-3
41749273661,0,0,2,0,-1,-2,-3,0
41749281135,0,-3,-2,-1,0,-1,-2,-1
41749281135,1,-1,-1,1,0,0,3,0
41749297198,1,6,3,1,2,0,-3,-1
41749297198,-1,-2,-3,-2,-1,1,3,-2
41749304312,-2,-1,-1,-3,-3,0,-4,-3
41749304312,-1,-2,-2,-1,0,-4,0,-1
41749319306,1,-2,-4,-2,-4,2,-2,-3
41749319306,-2,0,1,-1,4,-3,-1,-1
41749320061,0,0,0,-1,0,1,-4,0
41749320061,-1,0,-1,1,8,5,1,1
41749333647,-1,-2,1,2,-2,-4,-1,-2
41749333647,-1,-2,-3,0,1,3,1,0
41749341102,-7,0,-1,-1,0,-2,1,-3
41749341102,0,0,-2,-2,-8,-5,-3,0
41749356826,-2,-3,-1,-2,-3,0,1,0
41749356826,-1,2,2,1,-4,-1,-2,-3
41749357562,-1,-3,-3,-1,0,-3,0,-1
41749357562,1,0,-1,-2,-2,0,-1,1
41749371134,0,-1,1,0,0,-2,-1,0
41749371134,-3,-4,-4,-4,-3,-3,-3,-1
41749378650,0,-3,-2,0,3,-1,-4,-1
41749378650,-1,0,2,1,8,2,0,0
41749393684,-2,-1,-1,-1,-2,1,7,-1
41749393684,1,-1,-1,-1,3,-1,-4,0
41749401097,-2,-2,-2,-2,-4,0,1,-3
41749401097,-1,-2,-1,0,-2,-2,-4,-4
41749416780,-2,-1,-1,-2,-1,-4,-3,1
41749416780,-3,-2,-1,-1,-1,3,1,0
41749417544,0,2,0,0,-2,-5,2,0
41749417544,-3,-3,-4,-3,-4,6,-1,-2
41749431147,2,-1,1,0,1,-4,-1,-2
41749431147,-2,0,1,-1,-2,-2,-1,-1
41749438634,0,-3,-3,-1,0,-2,-2,-2
41749438634,-1,-2,-2,-2,-2,-1,1,0
41749453622,-3,0,1,-1,-2,2,-1,-1
41749453622,0,1,0,0,0,0,-1,0
41749461117,-2,-3,-1,-1,-4,0,0,1
41749461117,-1,0,0,-1,-1,-4,-2,-1
41749476733,-1,-2,-5,-3,-2,-1,-2,-2
41749476733,-3,-2,-1,-1,-1,-2,-1,-2
41749477494,1,-1,0,-1,-7,-4,-4,0
41749477494,-1,-3,-2,-3,-8,-1,2,-1
41749491173,1,-2,-1,-2,-2,0,0,-1
41749491173,-1,-1,-2,-3,-1,-1,1,-1
41749498556,-1,-3,-2,-2,-1,2,-3,0
41749498556,-3,-1,-2,-1,0,0,-3,-2
41749513675,-1,-4,-2,-1,0,-3,4,0
41749513675,1,2,2,-1,-1,-4,-8,-2
41749521177,-2,-2,-1,-2,0,1,6,-1
41749521177,0,1,0,0,1,-4,-3,1
41749536828,-1,-1,-2,0,2,1,-1,-1
41749536828,-1,-3,-2,-1,-2,-2,0,0
41749537506,-2,-1,-3,-1,1,0,-1,0
41749537506,0,1,-1,0,0,-2,-2,-1
41749551153,2,1,1,0,-2,0,-3,-1
41749551153,-2,-1,-2,1,-1,1,1,0
41749558581,-2,-2,-2,1,1,1,0,-1
41749558581,1,-1,0,-2,-1,0,2,3
41749573633,2,-1,-1,-2,-2,-2,-2,0
41749573633,-1,0,0,1,1,5,3,0
41749581178,1,1,0,0,-1,-2,-1,0
41749581178,-1,0,-1,-3,-3,-3,-4,-2
41749596823,-2,-2,-1,-1,-1,-2,-1,0
41749596823,-1,-3,-3,0,-1,-2,-1,-2
41749597582,1,-2,-1,-1,-1,-1,-2,-1
41749597582,-1,-1,0,0,-2,-1,-1,-1
41749611132,-3,-1,-1,0,-1,0,-1,-3
41749611132,0,-2,-1,-2,-1,-2,-2,-2
41749618639,-1,-3,-2,-1,-1,1,0,1
41749618639,0,3,2,-1,-1,-1,-1,0
41749633729,-2,1,0,-1,-1,0,-2,-3
41749633729,-2,-2,-2,1,-1,-3,-2,-2
41749641054,-1,-1,-3,-1,-2,-3,-2,-3
41749641054,1,-3,0,-1,0,2,7,-1
41749656710,-1,0,-3,-1,-2,0,0,1
41749656710,0,-1,-2,-1,-1,0,-1,2
41749657454,-1,0,-1,-2,-1,-1,-1,-2
41749657454,-3,-2,0,1,0,-1,-3,0
41749672525,0,-1,1,-2,1,-1,-1,0
41749672525,3,1,1,-1,-4,-2,0,-1
41749678541,-2,-1,-2,1,1,-1,-2,1
41749678541,-1,-2,-1,-1,1,-2,-2,-1
41749693559,-1,-3,-3,-2,-2,-1,-2,-2
41749693559,-3,-1,-1,-1,-1,-3,-4,0
41749709225,2,-1,0,-2,0,-1,2,0
41749709225,-4,-2,-3,-2,-2,0,0,-2
41749716739,2,2,1,0,1,-1,-1,0
41749716739,-3,-2,-2,0,1,0,0,0
41749717542,-2,0,0,-1,1,-1,-1,-1
41749717542,1,0,1,1,-3,-1,-1,1
41749731021,-2,-2,-2,0,-3,-1,-1,-2
41749731021,0,0,1,0,-1,1,0,-3
41749738518,-2,-3,-1,-2,-4,-1,-2,-1
41749738518,-1,-3,-1,0,0,-2,-3,-2
41749753579,0,-2,0,0,2,2,-1,0
41749753579,0,-3,-2,-1,-2,-2,0,-1
41749761080,-2,-1,-2,0,0,-2,-2,-3
41749761080,0,0,-2,0,0,2,-3,-1
41749776032,-2,-1,-2,-2,0,-3,4,0
41749776032,-3,-4,-3,-1,0,-2,2,-1
41749784253,-3,-4,-2,-1,-1,0,-2,-4
41749784253,-1,-2,-4,0,-1,-1,-4,1
41749791043,0,-2,-3,-2,-4,-1,-1,0
41749791043,0,0,1,-1,-1,-4,-8,-4
41749798545,-1,1,-1,1,0,3,6,0
41749798545,-3,-3,-2,-2,-1,-1,-1,-3
41749813522,-2,-1,-1,-3,-2,-2,-2,-2
41749813522,-7,-8,-3,-3,-2,-4,0,1
41749821028,-1,1,2,0,-1,1,-2,-2
41749821028,-1,-1,0,-2,-1,-2,-1,-1
41749836052,-1,-1,-2,-3,-1,1,-2,-1
41749836052,-2,-1,0,-2,-2,-3,-1,0
41749844383,0,2,-1,-3,0,-2,-3,-1
41749844383,-1,-2,-2,0,0,-2,-1,0
41749851083,2,-1,0,2,0,1,0,-1
41749851083,-1,-3,-4,-1,-4,0,-1,-2
41749858701,1,-2,0,-1,-2,-3,-2,1
41749858701,1,2,2,1,-1,-3,-4,0
41749873503,2,2,1,0,-1,4,9,-2
41749873503,-1,1,-1,-1,0,3,1,-1
41749881074,-1,0,0,0,-3,1,-1,-1
41749881074,-1,-4,-3,-1,-2,-3,0,-1
41749896157,-3,-1,-3,-1,-2,-3,-5,0
41749896157,0,-2,-3,-2,-1,1,-1,0
41749904308,-2,-1,0,-1,-1,-2,2,-1
41749904308,-2,2,-2,-3,-1,-2,-2,-1
41749911148,-1,-1,-2,1,0,-2,-2,1
41749911148,2,-1,0,-2,-1,0,0,-1
41749918659,-2,-4,-3,-2,-2,-5,-5,-1
41749918659,-1,-4,-1,0,0,1,0,0
41749933665,-4,0,-1,-1,-2,0,0,-2
41749933665,-1,1,0,-3,-1,-1,-2,-2
41749941144,1,0,-1,0,-1,0,0,0
41749941144,0,-3,-2,-1,-1,0,1,-1
41749956096,-2,-2,-1,-1,-3,0,0,0
41749956096,-2,0,1,1,-1,-2,-3,0
41749964337,-2,-3,-3,-3,-2,0,4,-2
41749964337,2,-2,-1,-1,-1,-1,-4,0
41749979266,-2,-1,0,2,-1,-2,4,0
41749979266,0,0,-1,0,1,1,1,-1
41749980064,2,-1,-1,0,-2,-3,-3,0
41749980064,-6,-2,0,0,0,1,1,-2
41749993667,-3,-1,-1,-1,-1,-3,-8,-4
41749993667,1,-1,-2,-2,-1,-1,-2,0
41750001041,-2,-1,1,-2,-2,-1,-2,-3
41750001041,-2,-2,-1,-1,-2,-1,-1,-3
41750016154,-2,-4,-2,-3,-1,0,0,-2
41750016154,2,3,0,0,0,1,4,0
41750024262,-1,-3,-3,-3,0,-2,-5,0
41750024262,-1,-1,-2,-2,-2,-1,1,0
41750039313,-2,1,0,-2,0,1,-1,0
41750039313,-3,-1,-1,-1,-1,0,0,-2
41750040080,2,-2,-1,-1,-1,0,0,-2
41750040080,-1,0,-1,-1,-1,-2,1,0
41750053613,-2,-1,-2,-1,-1,-2,-4,1
41750053613,-4,-1,1,-2,-1,-4,-4,-7
41750061132,1,1,-1,-1,0,1,-1,1
41750061132,1,1,1,0,0,0,0,-1
41750076175,-1,-2,-5,-1,0,0,-2,-2
41750076175,-1,-4,-4,0,-3,-2,0,0
41750084359,0,0,0,-1,0,0,1,0
41750084359,-5,-4,-4,-5,-2,0,-3,-3
41750099267,4,-1,-1,-2,1,-2,2,1
41750099267,-1,1,-1,-2,-1,-2,0,1
41750100030,-3,-1,-1,0,-1,-3,-4,-1
41750100030,-4,-7,-5,-2,-3,0,3,0
41750113646,1,0,2,-1,1,3,-1,0
41750113646,-1,0,0,-1,0,-1,-1,1
41750121091,-2,-2,1,1,-2,-2,-1,0
41750121091,-1,1,1,0,0,0,0,-2
41750136058,-2,-3,-2,-1,-2,-3,-1,0
41750136058,-1,-1,-2,1,-1,0,3,0
41750144212,0,-4,-4,-1,-2,-2,-2,-1
41750144212,1,1,1,-1,-1,-2,0,0
41750159221,-2,-1,-1,0,-1,-2,-1,-4
41750159221,1,-1,0,-1,1,0,-1,-1
41750160000,-3,0,-1,0,-1,-2,1,0
41750160000,0,-1,-3,-1,0,-1,-4,0
41750181736,-3,-3,-2,-2,-3,-2,-6,-3
41750181736,1,0,0,-1,-3,-1,-2,0
41750182500,-5,-2,-3,-2,0,-2,-3,-3
41750182500,-1,0,0,0,0,-2,1,-1
41750196095,-3,-3,-3,-1,0,0,0,-1
41750196095,-2,-4,-3,-3,-3,-2,-3,-2
41750204344,-1,0,-1,0,1,1,-2,-2
41750204344,-1,0,-2,-2,-1,-2,0,0
41750219283,-1,-1,-4,-2,-4,-3,-5,-1
41750219283,-1,-3,-2,0,-1,0,0,-3
41750220083,2,-1,-2,-2,-1,2,1,1
41750220083,0,4,-1,0,0,-1,-2,-1
41750233665,0,-1,-1,-1,-1,-1,0,2
41750233665,-1,-1,-1,-1,0,1,-4,0
41750241229,-2,-2,-2,-1,-3,0,2,1
41750241229,7,-1,0,0,0,-1,0,1
41750256166,0,7,4,1,0,-1,1,0
41750256166,-3,-2,-2,-1,-1,-2,-1,-1
41750264247,0,1,-1,-2,0,-2,-1,-1
41750264247,0,-2,-1,-2,-2,-1,-1,0
41750279336,0,0,-2,-3,-3,-2,0,1
41750279336,0,1,-1,-1,-1,0,-2,0
41750280092,0,1,1,0,0,-2,-1,-2
41750280092,-4,-1,-1,1,-1,0,-1,-2
41750293709,-1,-2,-1,0,0,-1,0,-1
41750293709,-3,-1,1,1,0,-3,-1,-2
41750301208,-1,-2,-4,-2,-3,-1,-1,-2
41750301208,-1,-2,-3,-2,-4,0,-2,0
41750316073,0,2,1,-1,0,1,2,2
41750316073,-1,0,1,-1,0,0,0,0
41750324324,-1,2,-1,0,0,-2,0,-2
41750324324,3,-1,-2,0,0,-1,-1,-2
41750339325,-4,-2,-2,-1,-2,-6,-5,-4
41750339325,0,0,-1,-2,-1,-3,-5,-1
41750340077,0,-1,2,0,0,2,1,-1
41750340077,-1,0,-2,-1,0,-1,-1,0
41750353699,1,-3,-2,-1,-1,1,-1,0
41750353699,0,-1,-3,-1,0,-2,0,0
41750361182,-1,0,0,-1,-3,-3,-3,-2
41750361182,-2,-2,0,0,-2,-1,-4,-1
41750376139,-1,-2,0,-1,-2,-1,-1,-1
41750376139,-1,-1,0,-1,0,1,1,-1
41750384354,0,-2,-3,-2,-1,-1,0,0
41750384354,-3,-1,0,-2,1,1,0,-1
41750399289,-1,-1,-2,0,1,1,-1,2
41750399289,3,-1,-1,-2,-2,2,0,2
41750400066,-1,0,0,-2,0,-1,-2,-1
41750400066,-2,1,1,-1,0,0,-1,-2
41750413640,1,-3,-3,-1,1,-3,-1,-2
41750413640,0,0,-1,0,-3,0,1,0
41750421230,0,-3,-2,-1,1,-1,-1,-1
41750421230,0,-2,-1,1,-2,-1,-1,-1
41750436100,-2,-3,-1,1,-1,2,-2,-2
41750436100,-4,-3,-2,-1,-1,1,-1,-2
41750444401,-1,0,0,-3,0,-2,-1,1
41750444401,0,-1,-1,-2,0,-1,-1,-2
41750459227,2,-1,-2,-2,-3,0,-1,0
41750459227,-2,-2,-4,-4,-2,-2,-2,-2
41750460018,1,2,1,1,-1,-1,-4,-3
41750460018,-2,0,-1,-1,1,-1,0,1
41750473526,-1,-2,0,-1,-2,-1,-1,-1
41750473526,-4,-4,-3,0,2,-3,-1,-2
41750481046,-4,-5,-4,-1,-1,-2,-3,-1
41750481046,-3,-5,-2,-1,-1,-1,0,-2
41750496063,1,1,-2,1,0,-2,-1,-1
41750496063,-4,-2,-2,-1,-1,-3,0,-1
41750504222,1,-1,-2,0,-3,-2,-1,-1
41750504222,1,-1,-1,-1,-2,-2,-2,1
41750519204,-4,-3,-1,-2,0,0,-2,-2
41750519204,0,-2,1,0,-1,-1,-2,-2
41750520007,-2,-1,-1,-2,0,0,1,2
41750520007,-2,0,-1,-1,-1,0,-2,-1
41750533588,-2,-5,-4,0,-1,-3,1,-2
41750533588,-2,2,-1,0,-1,-3,-2,-2
41750541069,-1,1,1,1,0,0,-3,-3
41750541069,2,0,0,0,-2,-1,-1,1
41750556156,-3,-3,-5,-3,-2,-1,-3,-2
41750556156,2,3,2,-1,1,-1,1,0
41750564327,-1,-2,-4,-4,-3,-3,0,2
41750564327,1,-2,-3,-1,-2,-1,-1,-1
41750579311,-1,0,0,0,2,-1,0,0
41750579311,0,0,-2,-1,-1,-1,-1,-1
41750580111,-1,-2,-1,-1,0,1,0,-2
41750580111,-2,1,0,-1,0,-1,-1,-1
41750593658,-3,0,-2,-3,-4,-1,1,-1
41750593658,0,0,0,-1,1,1,-2,-1
41750601105,-1,-3,-1,-2,0,-1,-2,0
41750601105,-3,-2,-3,-1,0,-2,-1,-3
41750616075,1,1,3,0,-1,-2,1,-1
41750616075,0,-2,-2,-1,-2,0,-1,-1
41750624378,0,4,3,2,1,0,3,-1
41750624378,1,-1,-2,-3,-2,-6,-1,-1
41750639344,-2,1,0,-3,-1,5,-4,-3
41750639344,-1,-3,-3,-1,-2,-1,0,1
41750640101,-1,-2,-2,-2,-2,0,-2,-2
41750640101,-2,-1,0,-1,-2,0,5,1
41750653606,2,-3,-1,-1,0,-3,-6,0
41750653606,1,3,3,3,0,-1,-1,-1
41750661187,0,-1,-2,-2,-2,-1,-1,-3
41750661187,-3,-1,0,-2,-1,-1,-3,-1
41750676148,1,-1,-1,1,-2,-2,2,0
41750676148,-1,-3,-2,-3,-2,0,0,0
41750684384,-3,-1,0,0,-1,-1,-1,-2
41750684384,-4,-3,-1,1,2,-1,1,-1
41750698602,3,3,3,-1,-2,2,0,1
41750698602,-1,-1,-2,-2,-1,-1,-1,-1
41750706852,-2,-3,-2,-1,-1,-1,1,2
41750706852,-2,-2,-3,1,-1,-1,-1,0
41750713573,-4,-2,-1,-1,1,-1,0,-1
41750713573,-1,-1,-2,-1,-1,-1,-2,-1
41750721158,-1,-3,-3,-2,-2,-1,-2,-1
41750721158,1,1,3,0,-3,-1,-3,2
41750736134,-1,-3,-3,-1,-2,-4,-3,1
41750736134,-2,-2,-1,-1,-2,0,0,-1
41750744373,-3,-3,-4,-1,-2,-3,-4,-4
41750744373,0,0,0,0,-1,1,0,1
41750758660,0,0,-2,-1,0,-3,-5,-1
41750758660,2,-1,-3,-1,-1,-1,0,-1
41750766861,-2,0,-2,-1,0,2,1,0
41750766861,4,1,-1,-3,0,0,0,-1
41750773673,2,3,2,1,2,0,3,1
41750773673,0,0,0,-1,1,-1,-1,-1
41750781074,0,0,-1,-2,0,-4,-2,-2
41750781074,-1,0,-1,-1,-2,-2,-1,-3
41750796214,-2,-3,-2,-1,-4,0,1,-1
41750796214,-1,-2,-2,0,0,-2,-1,-1
41750804279,0,-1,0,-1,-1,-2,1,1
41750804279,-2,-2,-2,1,-1,-1,-1,-2
41750818617,-3,-2,-3,-2,-1,-1,0,-2
41750818617,-7,-2,-1,-2,-1,-2,-1,-2
41750826839,-1,-2,-1,-3,-1,1,-2,-2
41750826839,-2,1,1,0,2,1,-1,-3
41750833646,-3,-3,-1,1,0,0,-1,1
41750833646,-3,-6,-6,-4,-5,-1,-1,-2
41750841166,-1,-1,-1,1,0,-1,-1,-1
41750841166,0,1,-1,-3,-1,0,-2,-1
41750856202,-3,-1,0,-1,0,-1,-1,-1
41750856202,-2,0,-2,0,-2,-1,-2,-1
41750864347,-1,-1,-3,-1,-3,0,-1,1
41750864347,-1,-3,-3,-1,-2,-2,-2,-2
41750878727,0,-2,-2,-3,-1,0,0,-1
41750878727,-1,2,3,0,-1,0,0,0
41750886845,1,-1,2,0,-2,-2,-2,-2
41750886845,-2,-3,-2,0,-1,1,0,0
41750901753,-1,-2,-2,-3,-2,-2,1,-1
41750901753,-1,-1,0,-2,-2,-2,-3,-1
41750902536,-1,0,-1,-2,-1,0,-1,0
41750902536,4,1,0,-3,-2,-2,-2,0
41750916169,-1,-1,0,1,-1,-1,0,-1
41750916169,-2,-3,-2,-2,-2,0,-1,-2
41750924355,3,0,-1,-1,-1,0,0,2
41750924355,-2,1,1,-1,1,-1,2,-1
41750938565,1,-2,-3,-2,-1,-2,-2,-2
41750938565,1,3,2,1,-1,-2,0,-1
41750946894,0,-4,-4,-1,0,-2,-1,-2
41750946894,-3,-3,-2,0,-3,-2,-1,-2
41750961845,-1,0,-1,-2,-1,-2,-3,-2
41750961845,-1,2,0,1,1,2,1,-2
41750962566,-4,0,1,0,0,0,0,-3
41750962566,0,-3,-2,-1,1,-1,-1,-2
41750976205,3,-1,-2,-1,-2,-1,-2,-2
41750976205,1,0,-2,-2,1,0,-2,2
41750984391,-2,-1,-3,-2,1,-1,-2,-2
41750984391,-1,-2,-1,-2,-1,0,-2,-2
41750998635,2,2,1,-1,-2,-1,0,-1
41750998635,0,0,0,-2,-2,-1,-3,-1
41751006856,0,-1,-1,0,-1,-3,3,1
41751006856,-1,-1,-2,-2,-2,-3,-2,0
41751021792,-2,1,-2,-2,-1,-3,-1,-1
41751021792,-1,-1,0,0,0,-3,0,1
41751022620,-2,-2,-2,-2,-1,-2,-2,-2
41751022620,1,1,-2,-1,-2,0,1,-1
41751036095,-5,-4,-1,-3,-2,1,1,-2
41751036095,0,3,3,1,-1,1,1,-1
41751044415,-2,1,0,1,-1,-1,-3,-1
41751044415,-1,-1,-2,-2,-1,-1,-1,1
41751058612,-3,-4,-4,1,-1,0,0,0
41751058612,-1,-2,-3,-1,-1,-1,-1,-2
41751066883,0,0,-1,-2,0,-1,-3,-1
41751066883,0,-1,0,-1,-1,1,-2,0
41751081738,1,0,-2,-1,0,-1,1,0
41751081738,0,-5,-3,-3,-1,-2,1,0
41751082540,-2,-2,-2,-1,-1,-1,-1,-2
41751082540,-3,1,0,-1,-2,-1,1,0
41751104677,-1,0,0,-1,-1,1,-1,-3
41751104677,-4,0,-2,-2,0,-2,-1,-1
41751105454,-2,-5,-2,-2,-4,-1,1,-2
41751105454,2,0,-4,-1,-2,-2,-1,0
41751118560,-1,-1,-1,0,0,-2,0,0
41751118560,-3,-5,-4,-1,-3,-2,-5,-1
41751126783,1,-1,-1,-2,-1,0,6,1
41751126783,-3,-1,1,0,1,-2,-1,-1
41751141820,0,-2,-2,-1,0,1,-4,-1
41751141820,0,-3,0,0,-1,-2,2,-1
41751142571,1,0,2,0,0,1,-2,-1
41751142571,-1,0,0,0,-2,-1,-2,0
41751156045,-2,-1,0,-2,-1,-1,-1,-1
41751156045,-2,1,-1,0,0,-1,-1,-1
41751164275,1,0,1,0,-1,-3,-3,0
41751164275,0,0,-1,-1,-1,0,-2,-2
41751178617,-2,-1,-2,-3,-1,-3,0,-2
41751178617,1,-2,1,1,-1,-1,-3,-1
41751186795,-3,-2,-3,-2,0,1,-2,-2
41751186795,2,-2,-2,-1,0,0,-1,1
41751201754,-1,-2,-1,0,-1,-2,-1,0
41751201754,-1,-2,-3,-3,-1,1,-1,-2
41751202518,-3,-1,1,0,1,1,1,-1
41751202518,0,-2,-2,-2,-2,-1,-1,-3
41751216046,1,-1,2,0,-1,0,-2,-1
41751216046,-1,0,0,-2,-2,-1,3,-2
41751224259,2,0,0,-1,-1,0,-1,1
41751224259,-6,-4,-3,-2,-2,0,-3,-4
41751238669,1,1,1,-1,-2,-3,0,-1
41751238669,-2,-1,-1,-2,0,-2,-3,-2
41751246836,-3,-1,-1,-1,0,0,2,0
41751246836,-3,-3,-2,-3,-2,-2,-1,0
41751261203,2,-1,-2,-1,0,-1,-2,0
41751261203,-3,-2,-2,-1,-1,-1,-3,-1
41751270173,1,-2,0,0,-2,-2,0,-2
41751270173,-2,-3,-2,-2,-1,-1,1,0
41751276230,-3,-1,-1,-1,-1,0,-2,-2
41751276230,0,1,-3,-1,0,-2,1,0
41751285161,-1,-1,-1,-1,-2,0,-2,-1
41751285161,-1,-1,0,0,0,1,0,-2
41751298648,-3,-3,-3,-2,-4,0,-2,1
41751298648,-1,-2,-2,-1,-2,0,0,1
41751307659,1,0,-3,-1,0,0,-4,-1
41751307659,-3,-1,1,1,0,-2,0,-1
41751321123,2,-2,-4,-2,-3,0,2,2
41751321123,-4,1,1,0,-2,-4,-6,-7
41751330155,-2,0,-3,-1,0,0,3,-2
41751330155,0,-1,0,-2,0,-1,-5,0
41751345064,1,-1,-1,0,0,-3,0,-1
41751345064,0,0,-1,0,-1,0,0,1
41751346608,0,-1,-2,-1,-1,-5,0,0
41751346608,0,-1,-1,1,-1,5,-2,-2
41751358606,-4,-2,-1,1,-1,-1,-1,-2
41751358606,0,-2,0,-2,1,1,1,1
41751367675,0,-1,-1,0,-2,-1,0,-1
41751367675,0,-1,-1,-3,-2,-2,0,-1
41751381138,0,-1,-1,0,-1,0,-1,-2
41751381138,1,-2,-3,-2,-1,0,2,0
41751390144,-3,-1,1,-1,-1,-1,-1,0
41751390144,0,-3,-5,-2,-3,-3,0,0
41751396132,-4,1,3,0,0,1,-2,-1
41751396132,0,0,1,-1,-1,0,0,-2
41751405139,1,0,-1,-2,-1,-1,-3,1
41751405139,-2,1,2,0,0,-1,0,-1
41751418576,-4,-1,-1,-2,0,1,1,-1
41751418576,0,-3,-2,-2,0,-1,-3,1
41751427659,1,0,-1,-2,-3,-3,4,0
41751427659,-1,0,0,0,0,-2,0,-2
41751441217,0,-2,-3,0,0,-2,3,-1
41751441217,0,-1,-1,-1,0,-2,-1,0
41751450156,-1,-1,-2,0,-1,0,-7,-3
41751450156,0,-1,-1,0,-1,-1,0,0
41751456091,-1,-1,0,-1,-1,-2,-1,-1
41751456091,-1,-2,-2,-1,-1,-2,1,1
41751465169,-3,-4,-1,-3,-2,-3,-4,-4
41751465169,-2,-2,0,-1,0,1,2,-1
41751478713,1,-1,0,0,0,-1,-2,0
41751478713,-4,-3,-2,-1,-2,0,1,0
41751487729,2,3,1,-1,1,-1,-1,0
41751487729,-2,-2,-4,-3,-1,-2,-1,0
41751501310,-1,-3,-2,-2,-1,-1,-4,-3
41751501310,0,-1,-1,0,-2,0,1,0
41751510114,-3,-2,-1,-1,0,0,-1,1
41751510114,1,2,-2,0,-1,-2,1,-1
41751516117,0,-2,-2,-2,0,-1,-3,-1
41751516117,0,-2,-2,-2,-1,-1,-2,-1
41751525158,-2,-3,0,-1,-2,-1,1,0
41751525158,1,-1,0,-1,0,0,1,0
41751538653,-2,-2,-3,0,-1,1,2,0
41751538653,-1,0,-1,-1,-1,1,-2,0
41751547621,2,-1,-2,0,0,-1,-1,-2
41751547621,-2,-1,0,1,1,-1,-1,-1
41751561221,-2,0,-1,-1,-1,-1,-1,-2
41751561221,0,-1,-1,-2,-1,-4,-3,-2
41751570154,-2,-1,-2,0,-2,1,1,0
41751570154,-1,-3,-2,-3,-2,-4,-4,-2
41751576160,-1,-1,0,-1,0,-3,-3,0
41751576160,1,0,-1,0,-2,0,0,-1
41751585080,-2,-4,-1,-2,-2,-2,-2,-1
41751585080,1,-1,-1,-2,-1,-2,-3,-1
41751598627,1,-1,-1,0,1,-1,-2,0
41751598627,0,-1,-2,0,-1,1,0,-3
41751607545,-3,-1,-2,1,-1,1,-1,-1
41751607545,-1,-2,-1,-1,-3,0,-2,0
41751630115,3,1,-1,-1,-2,1,3,1
41751630115,-1,-2,0,-4,-3,-2,-2,0
41751631604,0,-1,-3,-3,-2,-2,-3,-2
41751631604,-1,0,1,0,-1,1,0,-1
41751636201,-2,-1,-1,-2,-1,-1,0,-2
41751636201,-1,1,-1,-1,0,0,0,0
41751645197,0,-1,-1,-1,-1,0,-2,-1
41751645197,-1,-1,-2,-1,0,-2,-5,-1
41751658678,-2,-1,-2,-1,0,-1,2,-3
41751658678,-3,-3,-2,0,-1,1,-1,0
41751667759,-3,0,-1,-2,-1,-1,-3,-3
41751667759,-1,-1,0,1,-1,0,-1,-1
41751681152,0,-2,0,-1,-1,-2,-1,-1
41751681152,1,-1,-1,-1,1,-1,2,-2
41751690161,-2,0,-1,0,-1,-1,0,-1
41751690161,-1,-3,-2,-1,-2,-1,-2,-1
41751696210,-1,-2,-1,0,0,0,0,0
41751696210,-2,-1,0,0,-2,-2,-7,-1
41751705148,2,-2,-2,-3,-1,-4,0,1
41751705148,-1,1,0,-1,-1,1,2,-2
41751718629,1,-1,-2,-2,-1,0,1,1
41751718629,-3,-2,-2,-2,-3,-2,0,-1
41751727577,1,2,-1,0,1,0,-1,0
41751727577,-1,-3,-3,-1,-1,-2,0,1
41751741106,-2,-5,-3,-3,-1,-5,-4,-3
41751741106,-1,-1,2,0,2,1,-3,-1
41751750091,-3,-3,-3,-1,-1,-1,3,0
41751750091,-1,0,2,0,-2,-2,-1,-2
41751756076,-1,-1,-3,0,0,-1,-2,1
41751756076,0,-2,-1,-2,-2,-2,0,-1
41751765082,-1,0,0,-1,-1,-1,0,-1
41751765082,-2,-3,-3,-3,-2,-1,-5,0
41751778524,-1,0,0,-1,0,-3,0,0
41751778524,-1,0,-1,-2,-2,-2,-2,-2
41751787576,0,0,0,0,-1,1,0,1
41751787576,-2,-3,-2,-2,0,-1,1,-1
41751801172,-1,0,1,1,0,0,-2,-1
41751801172,1,0,-2,-1,-1,-2,1,1
41751810092,-1,-2,0,-1,-1,0,-2,-1
41751810092,1,-1,-1,1,-2,1,-1,-2
41751824936,0,0,0,-2,-3,-1,-3,-1
41751824936,-1,-4,-2,-1,0,1,1,0
41751826531,-1,-3,-2,-4,0,-2,-4,0
41751826531,1,1,-1,-2,-1,-2,-2,-1
41751838586,-3,1,0,-1,2,1,-4,1
41751838586,2,-2,-1,0,-1,0,5,1
41751847546,0,-3,0,0,-1,-2,0,0
41751847546,-1,0,0,-3,-1,1,0,-3
41751861097,-1,-3,-3,-1,-3,-4,-5,0
41751861097,-2,3,0,0,0,-1,-3,-1
41751870119,-2,0,0,0,-1,0,-3,-2
41751870119,-2,0,-1,0,-1,0,2,-1
41751884965,1,-2,-2,0,-2,-1,1,-1
41751884965,-1,-2,-1,1,1,-1,-4,0
41751886571,-2,-1,-3,-1,-1,-2,-1,-1
41751886571,-2,-1,-2,-2,-1,-2,-1,-1
41751898616,-1,-1,0,-2,-1,1,-2,-2
41751898616,0,1,-2,-1,-2,-2,-2,-1
41751907676,-3,-1,0,0,0,-1,-1,0
41751907676,-2,-4,-1,1,0,0,-3,-2
41751921126,0,-1,1,1,0,0,0,-1
41751921126,1,2,1,-1,-1,-1,-1,-2
41751930090,-2,-2,-3,-2,-3,-1,-2,-1
41751930090,3,0,0,0,-2,-1,0,1
41751945048,-2,1,2,0,-1,-2,3,0
41751945048,-4,-4,-1,-1,0,1,-1,-2
41751946609,1,0,-2,0,-1,0,0,0
41751946609,-2,-1,-2,-2,-1,-3,-4,0
41751958677,0,0,-2,-1,1,2,-2,-1
41751958677,-2,-2,-3,0,-1,0,-2,-1
41751967702,0,0,0,1,1,-2,-2,-2
41751967702,-2,-1,-1,0,0,0,-2,-2
41751981269,-1,-1,-1,-1,-3,-1,0,-2
41751981269,-2,-2,-1,-1,1,-2,1,-1
41751990152,-2,-3,-1,-2,-2,0,-1,-2
41751990152,0,-1,-3,-2,-2,-1,0,1
41752005038,0,-1,-2,-2,-1,-2,1,-1
41752005038,3,2,0,-1,-1,-2,0,0
41752006663,-1,0,-1,-1,-1,-1,-1,-4
41752006663,-2,-2,1,-2,-1,-1,0,-1
41752018653,-2,-1,-2,-1,0,-3,-3,-2
41752018653,0,-2,-2,-2,-2,0,0,-1
41752027714,-2,-1,-1,1,-1,-2,0,0
41752027714,-1,-1,-1,-1,0,-1,0,0
41752041137,-1,-2,-2,0,-1,0,0,-1
41752041137,-6,-4,0,-2,-1,-1,0,-3
41752050185,2,0,1,-1,-2,-1,0,-1
41752050185,-2,-2,-4,-2,-1,1,-1,-1
41752065018,-2,-1,1,0,0,0,0,0
41752065018,0,-1,-3,0,-1,-1,-3,1
41752066609,-2,-1,-1,0,-1,0,-2,-1
41752066609,-1,0,-1,-1,-1,-4,-1,-3
41752078722,-2,-3,-1,-2,-1,0,-4,-1
41752078722,-2,0,0,-2,0,-1,-1,-1
41752087682,-1,-2,-2,-3,-3,-3,-4,0
41752087682,1,-1,-2,0,-1,-1,-1,0
41752101177,0,0,-1,-2,-1,0,-1,-2
41752101177,1,-4,-2,-2,-2,-2,-1,-1
41752110069,0,-4,-3,-2,-2,0,1,-2
41752110069,-3,-2,0,-1,0,-1,-1,-2
41752125064,1,2,0,-1,-1,-1,-1,-2
41752125064,1,-1,-4,-3,-5,-1,-2,0
41752126584,0,0,2,0,0,-1,5,0
41752126584,0,-2,-1,0,-1,1,-5,-2
41752138711,1,-1,-1,0,-2,-2,0,0
41752138711,-1,1,1,-1,-1,1,2,0
41752147698,-1,0,0,-2,-1,-3,-3,0
41752147698,-1,-1,0,-4,-1,-1,0,1
41752161147,-2,-3,-3,-1,-2,0,0,1
41752161147,0,0,-2,-1,-1,-1,-3,0
41752170126,-2,-1,0,1,0,-1,-1,-2
41752170126,0,0,1,1,0,0,3,-2
41752184942,2,0,0,0,-1,0,-2,0
41752184942,-1,0,-1,-1,0,-3,-1,0
41752186604,0,0,0,-1,-1,1,-1,0
41752186604,0,-1,-2,0,-1,0,1,0
41752198711,-2,-1,0,1,0,-1,0,-1
41752198711,-2,0,0,0,0,0,-2,0
41752213627,-2,-3,-3,-2,-2,-3,-2,-2
41752213627,-2,-1,0,-1,1,0,0,2
41752221125,-1,1,-1,-2,-1,0,0,1
41752221125,-1,-4,1,2,-1,0,2,0
41752230109,1,-1,-4,0,-1,0,-2,-2
41752230109,0,-1,-1,-1,0,-1,-1,0
41752244947,-2,-2,-3,1,0,-1,-2,-1
41752244947,0,1,0,-2,-3,1,-2,-1
41752246544,-1,-2,-2,-3,-2,0,2,1
41752246544,2,1,0,-1,-2,-3,-4,-1
41752258611,-2,-2,0,-2,-2,-1,0,-2
41752258611,0,-4,-4,-2,0,-1,1,0
41752267601,1,1,0,-1,-1,-1,-2,-1
41752267601,-2,-2,-2,-1,-1,0,3,1
41752281115,-2,-1,-2,-2,0,-2,-3,-2
41752281115,-3,-3,-3,-1,-1,-2,-1,-2
41752290060,-1,0,1,0,-1,0,0,-1
41752290060,-2,-2,-1,0,-1,-1,-1,0
41752304991,1,-1,-2,-2,-1,-3,-3,0
41752304991,-2,0,-2,0,-1,-2,5,0
41752306578,-1,-1,-2,0,1,-1,-1,-1
41752306578,0,-1,-2,-1,-2,-2,-3,-3
41752318548,-2,-3,-1,-1,-2,-1,0,1
41752318548,0,1,0,-1,0,0,-2,-1
41752327602,1,-3,-2,-1,-1,-1,-1,0
41752327602,-1,-2,-1,-1,-2,1,3,0
41752341081,-2,-2,0,-1,-2,-3,-4,-3
41752341081,0,0,0,0,-2,-1,-1,1
41752350090,-5,0,-1,0,-1,3,1,-2
41752350090,-3,-1,-1,-1,-1,-1,-3,-1
41752364951,-1,-1,-1,-1,0,1,0,-1
41752364951,-1,0,-1,0,-1,-2,-2,-1
41752366540,0,-1,-1,-2,-1,-1,-2,0
41752366540,-1,1,-2,-1,-1,-1,-1,-1
41752378617,0,-1,-1,0,-2,-3,0,1
41752378617,-1,0,0,0,-3,3,2,-2
41752387623,1,-3,0,0,0,-2,-1,-2
41752387623,-1,-2,-1,0,-1,-2,-3,0
41752401126,0,-1,0,-1,-2,0,2,-1
41752401126,-2,-1,-3,0,-1,-2,-3,-1
41752410070,0,-1,0,-3,-1,-1,-5,1
41752410070,1,-1,-1,0,-2,-2,4,-2
41752424974,-1,-2,-3,-1,0,7,8,-1
41752424974,1,-1,1,1,0,-6,-7,0
41752426551,-3,0,-2,-1,-2,2,-9,-1
41752426551,-1,-2,-2,-1,-1,4,-3,0
41752438645,0,3,0,-1,-1,-1,5,1
41752438645,-3,0,-2,-4,-3,-1,-34,-4
41752447646,-1,-1,-1,0,0,-3,6,-1
41752447646,-2,-1,-1,-2,-1,-1,-4,0
41752461125,-1,-3,-2,-2,1,-1,3,0
41752461125,-1,-2,-1,-2,-3,1,2,-3
41752470161,1,-1,-2,-2,0,1,0,-1
41752470161,-2,-1,0,-1,-2,-1,-2,-1
41752484977,-1,-3,0,0,-1,-3,-1,-2
41752484977,1,0,0,0,0,-2,7,2
41752486570,-1,0,-3,0,-1,0,-2,-1
41752486570,-2,0,-1,-1,-1,-1,4,0
41752498565,-1,0,-1,-2,-1,-4,-11,-1
41752498565,-1,0,0,0,0,1,14,1
41752507584,-3,-2,-1,-1,-1,-2,7,1
41752507584,1,0,0,-1,-1,-6,-8,-1
41752521186,-1,0,0,0,-1,3,-5,-1
41752521186,0,-1,-1,-1,0,0,0,-1
41752537646,-2,-1,0,-1,0,-2,1,-2
41752537646,-2,-3,0,-1,-2,-3,0,0
41752544978,-1,-1,-1,-3,-3,-1,-1,-2
41752544978,1,-1,-3,-1,-2,0,5,-1
41752546561,0,-1,-1,-2,-1,-2,-3,-2
41752546561,-2,-1,-1,-1,0,0,-2,0
41752558655,-1,0,-2,2,2,-2,-3,1
41752558655,-2,-2,0,-1,-3,0,3,0
41752567668,1,-1,-2,-3,-1,-2,-5,-1
41752567668,-2,-2,-1,2,-2,-1,6,-3
41752581162,-1,-1,-1,-2,-3,0,2,1
41752581162,-2,1,0,4,3,-3,-1,0
41752590117,-1,-1,-1,-1,3,1,-7,0
41752590117,1,0,1,2,-4,0,0,-2
41752604453,1,-2,-4,-5,0,-5,-4,-2
41752604453,0,-1,-1,-2,-4,-3,0,-1
41752611129,0,1,-2,1,-1,1,-1,-1
41752611129,-1,-2,-1,-1,2,0,0,0
41752618637,-1,-1,-2,-1,-4,-1,1,0
41752618637,-1,-1,0,0,0,-2,-1,-2
41752627611,-1,-3,-2,-4,-2,-2,2,-2
41752627611,0,-2,-1,-1,-1,-3,-1,-2
41752641101,-1,-2,-1,0,-2,-2,0,-1
41752641101,0,0,0,-11,2,2,-2,-1
41752650144,-2,-1,-4,-3,-2,-1,2,-2
41752650144,-2,-1,-4,-1,-2,-2,-2,-1
41752664345,0,-1,2,4,2,-2,0,0
41752664345,-2,0,0,1,-4,-1,-1,-2
41752671128,-1,0,2,-4,-1,1,0,0
41752671128,0,-2,-7,-9,1,1,-2,1
41752678627,0,1,5,10,10,3,-1,0
41752678627,-3,-4,-6,-22,-28,-8,-4,-3
41752687640,1,1,4,3,2,-2,0,0
41752687640,-1,-2,-1,2,-7,-1,0,-1
41752701080,-1,-2,-3,-4,0,-1,-1,-1
41752701080,0,0,2,15,18,5,-2,-2
41752710183,-1,-3,-6,-16,-22,-2,-4,-1
41752710183,-1,0,1,0,3,1,-1,0
41752724087,-1,-2,-1,-5,-3,-3,-1,-2
41752724087,-1,0,-1,5,6,0,0,-1
41752732625,-2,-1,0,8,5,-1,0,-1
41752732625,0,0,0,4,3,1,-1,-1
41752738608,-1,-1,-3,-5,-6,-1,-2,-1
41752738608,0,-1,-1,0,-1,-1,0,1
41752747647,-2,-2,0,6,5,-1,-6,-2
41752747647,-1,-2,-3,-6,-3,-2,8,0
41752761101,-3,-3,-1,-1,-4,-4,-4,-2
41752761101,1,-2,-3,-2,3,2,3,-1
41752770096,0,0,-2,-1,-4,-2,1,1
41752770096,-1,-1,-1,1,2,-3,-7,-2
41752784332,0,-1,-4,-1,-1,1,0,-2
41752784332,-2,0,0,2,0,0,1,-1
41752791129,-2,-2,-2,1,-1,-2,0,-1
41752791129,-2,0,1,0,1,0,-2,0
41752807485,-1,-2,-2,-9,-4,0,1,-1
41752807485,0,-2,0,3,3,1,-3,-1
41752809064,-1,0,0,4,-3,-4,1,-1
41752809064,-1,-1,1,1,-8,-4,-1,-4
41752821101,-1,0,1,-15,3,0,1,-1
41752821101,-1,-1,-9,-6,-2,-3,-1,-1
41752830179,0,0,0,4,5,2,-1,0
41752830179,-1,-3,-1,-4,-3,-2,-2,-1
41752844407,-2,0,0,6,-1,-4,-1,-1
41752844407,-2,-1,0,-3,0,-1,0,-1
41752851146,-1,-1,-1,-2,2,-1,1,0
41752851146,0,-3,-3,-3,-3,1,-2,1
41752867505,1,0,2,3,0,1,-1,1
41752867505,-2,-3,1,11,2,0,-2,-2
41752869079,0,-1,2,-12,-2,-2,-1,-3
41752869079,-1,-1,-1,0,-2,-1,-1,-3
41752881103,-1,-3,-6,11,0,1,-1,-1
41752881103,1,1,-3,-21,-3,-2,-1,-2
41752890127,0,-1,-2,17,-1,-1,2,-2
41752890127,-1,0,4,5,8,2,-2,-1
41752904317,-1,-2,0,-5,5,2,0,-2
41752904317,0,-1,-1,0,-18,-10,-2,0
41752911135,0,-1,-2,-1,-4,-2,0,0
41752911135,1,1,-2,-8,1,-1,-3,-1
41752927446,-2,-3,0,3,-2,-1,0,0
41752927446,-2,-2,-1,-3,-1,3,1,-1
41752929080,-2,-4,-1,-6,-5,-2,-2,-2
41752929080,-1,-1,-1,22,8,-3,2,-2
41752941172,0,0,-3,-15,-17,-3,-3,-1
41752941172,-1,-2,0,5,8,1,-3,0
41752950086,0,-4,-5,-13,-12,-3,1,-2
41752950086,-1,-1,1,-4,1,2,0,0
41752964273,0,-1,0,9,0,-3,-1,-3
41752964273,-1,-1,-1,-18,-3,0,0,0
41752971203,1,0,0,9,13,5,0,0
41752971203,0,-2,-2,-12,-10,-6,-1,-1
41752987508,-1,-1,2,7,3,1,0,-1
41752987508,0,-2,0,9,-10,-9,-3,-1
41752989098,-1,0,0,-10,1,0,-2,-1
41752989098,-2,-1,-1,-1,-4,0,-1,-1
41753009993,-2,1,-1,-2,0,-2,0,-1
41753009993,-2,-1,-1,-2,6,2,0,-2
41753011581,0,-1,-1,9,0,-2,-1,-1
41753011581,0,-1,-1,-9,-3,-1,-1,0
41753024324,-1,-1,2,15,-2,-1,-1,-2
41753024324,-1,-1,1,-13,1,2,0,1
41753031163,-1,-2,-4,9,1,-2,-2,-1
41753031163,-2,-1,-1,-12,-4,-2,0,-2
41753047501,0,0,-1,7,7,2,-2,1
41753047501,-2,0,3,2,-6,0,-1,0
41753049052,-1,1,2,2,2,0,0,-1
41753049052,-1,-2,-3,13,-10,-4,-3,-3
41753061146,-2,-1,-1,-16,-3,-4,-1,-2
41753061146,-1,0,-1,9,2,-1,0,-1
41753070144,-4,-2,-2,-15,-2,-1,-2,-1
41753070144,-1,-2,0,5,1,2,-1,-2
41753084414,0,-2,-2,1,1,0,-1,-1
41753084414,-1,-1,-2,0,4,1,-1,-2
41753091137,0,2,2,2,0,0,0,2
41753091137,1,1,-1,-7,-1,-4,-2,0
41753107473,0,-1,-2,-11,-5,-2,-1,-1
41753107473,0,-2,0,7,1,0,0,1
41753109120,-2,0,-2,-4,1,0,0,-1
41753109120,-3,0,3,-4,3,1,-2,1
41753121180,0,-1,-6,10,-2,-1,1,0
41753121180,-2,-1,-1,-14,4,0,0,-3
41753130103,0,0,-3,-4,-3,2,0,-2
41753130103,-3,-3,-2,-8,-6,-2,-2,-1
41753144315,-1,-2,-5,-4,1,-3,-1,-1
41753144315,-2,-2,3,18,0,0,0,-1
41753151094,0,-2,-7,0,11,1,0,-2
41753151094,-2,-2,-5,-16,-12,-3,-1,0
41753167492,-1,0,4,17,0,-1,-1,-1
41753167492,1,1,-3,-10,-5,0,-1,0
41753169060,-2,-2,-1,-3,4,-3,-5,-1
41753169060,-1,3,4,16,6,2,4,-1
41753181144,-1,-3,-3,-9,-10,-4,-2,-1
41753181144,0,0,-3,-5,-5,-2,0,0
41753190180,0,0,3,-2,-3,0,-2,0
41753190180,-1,-2,-3,-2,3,2,-1,-3
41753204419,0,0,2,0,4,2,-1,0
41753204419,-1,0,-1,-7,-10,-5,-2,-4
41753211155,-2,-3,-3,0,-1,-1,-1,0
41753211155,-2,-4,0,10,-4,-5,-3,-3
41753227521,0,1,2,-7,-4,0,0,0
41753227521,-1,-2,-5,-4,3,2,-3,-1
41753229084,-1,-2,-4,6,-7,-3,0,-3
41753229084,0,1,-1,-16,3,1,-1,-1
41753241122,-2,-4,-3,-1,-2,-2,1,-2
41753241122,1,2,5,13,0,-2,0,0
41753250177,0,0,0,13,0,-2,0,-1
41753250177,-1,0,-1,-6,-5,0,-3,0
41753264323,-2,0,0,-4,-1,-1,0,-3
41753264323,-2,-1,-1,-1,1,-1,-1,-1
41753271154,-1,-1,0,-8,0,1,-1,0
41753271154,0,2,-1,2,-3,0,0,-1
41753287488,0,-1,0,5,-2,1,0,-1
41753287488,-2,-1,-1,-4,-3,-4,-2,-2
41753289051,-1,1,-1,-7,-4,-1,-1,-2
41753289051,0,-2,-4,-2,-2,-1,-1,1
41753301160,2,0,3,14,-5,-3,-2,-2
41753301160,0,-2,-5,-18,5,0,0,-3
41753310095,-1,-2,0,-1,-1,0,-1,-1
41753310095,-2,-2,-3,-1,-4,-2,0,0
41753324417,-1,-1,-3,-22,4,1,-2,0
41753324417,-1,-3,2,27,1,1,0,1
41753331164,-2,-2,1,-11,-4,-1,0,-2
41753331164,0,-1,1,1,6,2,-1,0
41753347520,-2,0,-2,-1,0,0,0,-2
41753347520,-1,-1,-3,1,5,1,0,-1
41753349096,-1,0,1,-1,1,0,-1,-1
41753349096,-2,-1,1,1,1,-1,-1,-2
41753361121,-1,-1,-5,-15,-3,-1,-1,0
41753361121,0,0,1,1,-1,0,-1,1
41753370156,-1,-2,0,8,-3,-3,0,-1
41753370156,-2,-2,-1,-2,5,1,0,-2
41753384330,0,0,0,-1,-5,-5,-1,-1
41753384330,-2,-1,-3,-4,-2,-1,-1,-2
41753391140,0,-2,-2,-3,-4,-1,2,-2
41753391140,0,0,1,6,12,1,-6,-2
41753407498,-2,-5,-8,-23,-20,-8,0,-3
41753407498,-1,-2,-1,-13,-4,-4,-1,-1
41753409129,0,-2,-7,0,-1,-3,-1,0
41753409129,1,0,6,23,11,6,4,0
41753421133,-4,-3,-7,-19,-15,-11,-6,-2
41753421133,-2,0,2,8,-3,-2,-2,-1
41753430122,-2,-2,-8,-20,-5,0,-2,0
41753430122,1,0,-3,1,-3,-1,-2,1
41753444303,0,-3,0,11,13,3,-2,0
41753444303,-1,-1,-2,-2,-4,-2,-1,0
41753451810,0,2,1,0,-3,0,0,2
41753451810,-2,-3,-4,-7,-6,-4,-1,-2
41753467515,-1,-1,3,10,8,4,0,0
41753467515,-2,-1,2,10,1,-2,-2,-3
41753469116,0,-1,-2,-19,-7,-2,-2,-2
41753469116,-2,-2,-2,3,-5,-4,0,-2
41753481123,0,0,1,2,3,0,0,0
41753481123,-1,-1,0,3,1,1,-1,1
41753490124,-2,-1,2,8,-1,-1,-2,-1
41753490124,0,0,-1,-8,-3,-2,-2,-2
41753504388,-1,0,-2,3,3,2,0,0
41753504388,-1,-1,-2,-9,1,-2,-4,0
41753511143,-2,-1,2,13,-2,-2,0,-3
41753511143,0,-1,-3,-7,-6,-3,-1,1
41753526859,-2,-1,1,7,6,2,2,0
41753526859,-2,-4,-3,-11,-10,-1,-1,-2
41753533599,0,-2,-3,3,3,0,-2,-2
41753533599,-1,-2,1,0,4,3,1,-3
41753541134,-2,0,-2,9,-4,-3,-5,-3
41753541134,0,-1,-2,-4,-1,0,-1,-1
41753550123,-1,-1,0,-2,-2,-1,-2,-1
41753550123,1,-2,0,0,1,3,0,-1
41753564389,0,-1,-1,-1,-2,-3,0,0
41753564389,-2,-2,-1,0,1,-2,-1,-2
41753571085,-1,0,0,0,-2,-1,-2,0
41753571085,-2,-2,-3,-6,-5,-2,-1,0
41753586838,-2,-2,0,4,3,3,0,-1
41753586838,2,0,1,19,-1,-1,-3,0
41753593645,-1,-2,0,-18,1,-3,-1,-1
41753593645,-1,-2,-5,-8,-6,-4,-1,1
41753609991,0,-1,1,5,1,2,1,0
41753609991,-1,-2,-2,0,2,1,1,0
41753611621,-1,0,0,3,-2,-1,0,-2
41753611621,0,2,-1,0,-3,-3,-2,-3
41753624390,-1,-2,-3,-8,-1,-1,-2,-1
41753624390,-1,-1,-3,-3,-1,-1,0,-1
41753631171,0,-2,2,3,-5,-1,-1,0
41753631171,-2,0,-3,-3,3,0,0,-1
41753646908,-2,0,-3,0,-8,-5,-3,-1
41753646908,0,-1,0,10,-4,-2,-1,0
41753653665,-1,0,0,-14,1,-1,-1,-1
41753653665,-1,-3,-2,3,-2,-1,-2,-4
41753661201,1,2,1,-3,7,1,2,0
41753661201,-2,-3,-5,-8,-18,-6,-4,-2
41753670142,-1,0,2,5,7,3,1,-1
41753670142,1,4,2,-2,-6,-5,-2,2
41753684405,0,-4,-1,1,6,1,-1,0
41753684405,-1,0,-1,-8,-2,1,0,0
41753691191,-1,-1,0,18,20,0,-1,-2
41753691191,-2,-4,-7,-21,-27,-10,-4,-4
41753706851,0,-1,0,-3,-6,-5,-1,0
41753706851,-2,-2,-4,0,8,1,1,0
41753713675,-1,-5,-9,-3,-6,-2,-3,-1
41753713675,1,8,12,13,11,3,1,3
41753730011,-1,3,3,-2,-2,0,-1,-2
41753730011,-2,-2,-1,-5,-5,0,-1,-1
41753731608,-2,-3,-4,4,-1,-3,-3,-1
41753731608,-2,-4,-4,-3,0,-2,-1,-1
41753744374,0,1,-3,-7,-1,1,0,-1
41753744374,-1,0,2,10,7,-1,-1,-1
41753751132,-3,-2,-5,-6,-11,-3,-2,0
41753751132,-2,-5,-6,-1,3,2,0,0
41753766817,1,6,10,-1,1,1,0,0
41753766817,-1,-2,-3,-6,-2,-2,-4,-1
41753773655,-2,1,0,1,-2,-2,0,1
41753773655,-2,-4,-1,-1,-2,1,-1,-2
41753789995,-5,-9,-11,3,3,1,-1,-1
41753789995,1,4,2,-24,-5,-2,1,-1
41753791594,1,4,10,18,1,0,1,0
41753791594,0,-4,-13,20,7,0,0,0
41753804408,-1,0,14,12,4,0,-1,-1
41753804408,-1,-3,-10,-26,-15,-2,-2,-2
41753811150,-1,-5,-3,-16,-8,-2,-2,-2
41753811150,-1,3,2,0,9,0,0,1
41753826876,0,1,-6,-2,-12,-3,-1,-1
41753826876,0,-2,-5,2,-6,-2,-1,0
41753833632,0,1,1,-15,1,1,0,0
41753833632,-1,-8,-17,16,-1,0,-2,-2
41753849996,-2,-4,1,-8,-3,-1,-2,-1
41753849996,4,16,32,-8,5,1,1,1
41753851626,0,0,-7,5,-7,-2,-1,0
41753851626,-2,-3,0,-12,1,0,-1,-3
41753864369,-3,-7,1,2,-2,-2,1,-2
41753864369,-1,-7,-27,6,6,0,0,-2
41753871124,-1,-2,0,0,0,0,0,0
41753871124,1,4,12,-9,-5,0,-2,2
41753886826,2,9,18,4,2,-1,-2,0
41753886826,-2,-3,-5,7,4,-1,-2,-2
41753893617,-2,-2,-5,0,-2,-1,-2,-1
41753893617,-3,-5,-15,-12,-3,-2,-2,-3
41753909962,-1,-4,-11,4,2,-1,-3,-1
41753909962,0,0,8,-1,1,0,0,3
41753911593,0,0,0,20,10,3,1,-1
41753911593,-3,-5,-1,-27,-23,-4,1,-3
41753924287,0,1,-10,-5,5,-2,-2,-1
41753924287,-2,-3,-10,1,-5,-2,0,-2
41753931139,-4,-8,-9,-24,-13,-6,-3,-2
41753931139,1,13,20,15,5,1,-1,1
41753946882,0,4,15,3,-2,0,-1,-1
41753946882,-4,-7,-10,6,4,1,-1,-2
41753953666,1,6,6,10,2,0,-2,0
41753953666,0,-7,-22,-18,-3,4,0,-1
41753970042,0,1,0,10,-1,6,3,0
41753970042,4,19,49,12,5,-4,1,1
41753971649,0,0,6,0,-1,-4,-1,-1
41753971649,-2,-3,5,10,5,1,-2,-3
41753983664,0,-9,-27,-11,-1,1,-2,-2
41753983664,-3,-10,-15,-7,-12,-12,-3,-4
41753992649,0,3,2,2,-2,0,1,-1
41753992649,-1,4,9,2,2,4,-1,-1
41754006868,-3,-7,-8,-5,4,19,4,-1
41754006868,0,3,3,6,9,5,4,2
41754013628,-3,-4,-8,-5,-11,-27,-9,-3
41754013628,-6,-13,-42,-17,-7,0,-5,-4
41754030009,4,19,63,21,-4,-14,-2,-1
41754030009,2,1,-1,-10,-1,23,2,0
41754031578,1,3,4,-1,8,-1,2,-1
41754031578,1,0,5,4,-1,-13,1,1
41754043694,-4,-12,-25,-13,-14,-4,-4,-5
41754043694,-1,-6,-13,5,1,3,-2,-2
41754052622,-2,-5,0,2,2,5,0,-1
41754052622,2,8,5,-1,-1,0,1,2
41754066902,-1,-1,-2,-15,-1,-12,-3,0
41754066902,-1,-2,-1,10,3,2,-1,-1
41754073691,-1,-3,-10,1,0,8,1,1
41754073691,-2,-3,4,-5,-2,-2,-1,0
41754090051,-1,-3,-9,-8,-1,-1,0,-1
41754090051,-1,-3,-7,-3,-2,-9,-2,1
41754091621,0,0,8,3,0,4,-1,-2
41754091621,-1,-4,-8,0,3,-2,-2,-1
41754103635,1,8,-13,-8,-2,-1,0,0
41754103635,-5,-12,-4,1,2,3,0,-2
41754112654,0,8,44,5,0,-7,-3,1
41754112654,1,10,13,-4,-4,-6,-1,1
41754126844,-1,-6,-24,3,-5,-5,1,0
41754126844,-3,-5,-18,-19,0,-10,-6,1
41754133657,-1,-3,-13,-10,-7,3,2,-1
41754133657,-2,-5,-1,-4,0,1,-2,-3
41754150098,-3,-6,0,-1,4,4,0,-1
41754150098,-2,2,2,23,1,-3,0,-3
41754151656,0,1,-9,-24,-7,3,0,-1
41754151656,2,0,7,10,4,1,0,-1
41754163691,-1,-2,-11,-5,-2,-1,-3,-1
41754163691,0,-1,5,2,-8,-7,-1,-1
41754172622,-2,0,-2,-4,0,-1,-2,-4
41754172622,-2,-9,-7,7,0,0,0,-3
41754186852,-1,3,1,1,-1,0,0,0
41754186852,1,3,14,2,3,-2,0,0
41754193653,2,0,0,3,0,3,-2,0
41754193653,-5,-7,-35,-4,-4,-2,-2,-3
41754210025,-2,0,50,15,4,-2,-2,-1
41754210025,1,10,5,-20,-4,0,1,0
41754211616,0,-2,-8,-16,-12,-1,-1,-1
41754211616,-2,-2,-7,1,3,2,-1,-1
41754223633,-4,-9,-24,2,1,-3,0,-2
41754223633,-2,-7,-9,-4,-1,-1,-1,0
41754232634,-1,0,2,16,4,3,0,-2
41754232634,-2,-1,8,-2,-2,-5,0,-1
41754246802,-1,-3,-14,-12,1,1,-2,-3
41754246802,0,1,5,8,0,-6,-3,-1
41754253648,-7,-11,-22,-5,-3,-2,-2,-4
41754253648,-5,-6,-3,1,-2,2,-3,-3
41754270005,8,16,26,1,-1,0,1,4
41754270005,-1,-4,-20,-1,-2,3,0,1
41754271604,2,5,12,5,0,-2,0,0
41754271604,-3,-3,-11,-5,-1,-1,-2,-2
41754283645,-3,-8,4,0,0,-3,-2,-2
41754283645,-2,-3,-10,-7,-8,-1,-1,-2
41754292628,0,-3,-4,4,-6,-4,-3,-1
41754292628,2,3,15,5,3,-1,1,1
41754306833,-1,-3,-14,-8,-13,0,-1,0
41754306833,-2,-1,-2,-2,14,-3,1,-1
41754313688,-2,-3,-3,-5,2,1,0,-2
41754313688,2,6,16,12,-1,-2,0,1
41754330017,-1,-3,-7,7,6,-2,-3,-1
41754330017,-1,-2,3,-15,-8,-2,-2,-3
41754331629,0,1,-4,4,1,-1,1,0
41754331629,1,3,9,-9,-2,2,2,0
41754343786,-2,-4,-12,-9,-2,-3,-2,-2
41754343786,-3,0,5,9,-5,-1,-2,-1
41754352829,0,0,-2,-8,2,-2,-1,-1
41754352829,-1,-1,2,9,4,-2,-1,-2
41754366921,-2,-4,-11,-1,-3,-3,-1,-1
41754366921,-1,-1,-1,1,-3,0,0,-1
41754373764,-2,-2,-7,-7,-3,-2,-2,0
41754373764,0,1,5,5,3,3,0,1
41754390129,-3,-3,-10,-13,-5,-1,-1,-3
41754390129,-2,-4,-8,-13,1,0,-1,0
41754391696,1,3,20,-2,-1,2,0,-1
41754391696,-2,-7,-35,-7,-1,-2,0,-1
41754403775,2,15,89,46,4,2,2,1
41754403775,1,0,-7,-13,-7,-3,-2,-2
41754412759,-4,-3,-4,1,0,0,0,0
41754412759,-2,-7,-19,-14,-1,-1,-1,-3
41754426913,-1,5,-19,-15,-7,0,1,1
41754426913,-1,-2,12,28,9,0,1,-2
41754433794,4,16,39,7,-1,1,-1,2
41754433794,0,-1,0,4,3,-1,-2,-2
41754450092,-3,-7,-23,-22,-12,-3,-3,-2
41754450092,-1,1,30,59,7,0,1,-1
41754451621,-3,-10,-41,-68,2,0,-1,-3
41754451621,2,2,8,13,-14,-4,-3,1
41754463703,-2,-3,-4,9,6,0,-1,-2
41754463703,0,-1,-15,-3,-1,-1,-2,0
41754472757,0,-2,3,30,0,-3,-1,-1
41754472757,0,2,6,-10,-4,0,-1,0
41754486954,-3,-6,-4,-13,5,0,0,-2
41754486954,0,5,4,-12,-9,-1,-3,1
41754493748,-1,-8,-3,18,3,2,0,-2
41754493748,1,10,18,-15,-2,10,1,0
41754509439,-1,-4,-21,4,-2,-17,0,-1
41754509439,-3,-9,-26,-18,-1,2,-2,-2
41754516269,1,7,55,9,-6,-12,-2,0
41754516269,0,-4,-8,1,-1,2,-1,-2
41754523707,0,-2,-4,3,8,8,0,1
41754523707,-1,-3,-2,-6,0,4,1,-1
41754532758,-2,-6,-30,-3,-1,-2,-1,-1
41754532758,0,0,8,4,1,-1,0,-1
41754546916,-4,-5,-6,3,2,7,0,-2
41754546916,1,4,5,-17,-2,-5,-2,-1
41754553751,-3,1,-10,8,1,3,-1,0
41754553751,0,1,9,4,2,-5,-1,-1
41754569475,-1,-2,-6,-6,-4,-2,-3,-2
41754569475,-1,-1,-2,0,0,-1,-1,-1
41754576188,0,-3,-6,0,-1,-2,0,-3
41754576188,-2,-1,2,0,0,-2,0,-1
41754583757,0,-1,-5,-5,-1,-1,0,0
41754583757,-1,-1,2,0,-4,-2,0,-2
41754592695,-1,-2,-5,1,0,4,-1,-1
41754592695,0,-3,-2,2,1,-1,-1,-1
41754606985,0,1,-3,-9,-5,-1,-2,-3
41754606985,-2,0,3,3,-10,-7,-3,-1
41754613764,-2,-2,-9,-2,-3,0,-1,-1
41754613764,-1,-2,1,1,1,0,-1,-1
41754629468,0,0,6,3,-1,1,-1,0
41754629468,-1,-2,-2,-4,2,0,0,1
41754636239,-2,-4,-9,1,-4,-4,-1,-3
41754636239,-1,1,2,0,-4,-4,-1,-2
41754643730,1,-3,-1,-1,-1,-2,-1,1
41754643730,-2,-4,-4,-4,1,0,1,-2
41754652689,-1,-4,-5,3,2,2,0,-1
41754652689,-2,0,2,-1,2,-2,-1,-1
41754675121,0,1,-2,-4,-2,-2,-1,-1
41754675121,0,-1,-3,-1,-1,-1,-2,-1
41754676643,0,0,-2,1,-1,-1,-1,1
41754676643,0,-1,0,-1,-3,-2,-2,-1
41754689463,-2,-1,-1,-2,0,1,-3,-1
41754689463,-1,-1,-1,-2,-1,1,0,-1
41754696266,-1,-1,-4,0,2,-1,-1,-1
41754696266,0,-3,0,-3,-3,-2,-2,-2
41754712649,-1,-1,-2,0,-5,0,-1,-1
41754712649,0,0,0,-1,0,-2,-1,-1
41754714180,-2,0,-4,-3,0,-1,-1,-2
41754714180,-1,1,3,2,2,-1,1,-1
41754726866,-1,-2,-3,-10,-13,-5,-1,-1
41754726866,0,-1,0,-3,0,-1,-1,0
41754733783,1,0,-4,-2,1,1,-3,-2
41754733783,-2,-2,0,4,-3,-3,-1,0
41754749414,0,0,-2,1,1,0,-1,-1
41754749414,-2,-4,-5,-2,3,0,-1,-1
41754756259,0,4,10,2,-2,-2,0,0
41754756259,-2,-3,-3,-3,0,0,-1,-2
41754772606,0,-2,-1,1,-1,0,-2,0
41754772606,0,-1,-2,-2,-1,-2,-1,-1
41754774173,-1,-2,-5,-1,1,-1,0,0
41754774173,-1,-1,-2,-3,-1,-1,-1,-1
41754786902,-2,0,0,1,2,0,0,-1
41754786902,-2,0,0,0,-1,-1,0,-1
41754793763,-1,-2,-2,-1,-2,-1,-1,0
41754793763,0,-1,-1,-1,-3,-2,-2,0
41754809490,-1,-2,-3,0,1,-1,-1,-1
41754809490,-2,-3,-1,1,-1,-1,-1,-3
41754816234,-1,-2,-3,-2,-3,-1,0,-1
41754816234,0,-2,-1,-2,0,0,-2,1
41754832644,2,2,2,0,-1,-1,0,0
41754832644,0,-1,0,0,-3,-2,-2,0
41754834229,-2,-1,-3,-1,-2,-1,-2,-2
41754834229,-1,-2,-1,-1,0,-3,0,-1
41754846957,0,-1,-1,-1,-1,1,-2,0
41754846957,-1,-1,1,-3,0,-2,-1,-1
41754853654,0,-3,-5,-1,-2,-2,-2,0
41754853654,-2,1,-1,-2,-1,1,-1,0
41754869417,-2,-1,-2,1,0,-3,1,-1
41754869417,-1,-1,-1,-3,-2,-1,-3,0
41754876188,-2,-2,2,0,-1,0,-2,-1
41754876188,-1,0,-1,-2,0,-3,0,-1
41754892515,1,0,1,1,0,-1,-1,0
41754892515,1,-2,-2,1,-2,-1,0,-1
41754894112,-1,-1,-3,1,-1,-2,0,1
41754894112,-2,-3,-4,-1,0,0,-2,-2
41754906817,-3,-2,-2,-4,-3,-1,-1,-2
41754906817,3,2,3,0,-1,-1,0,2
41754913699,0,0,0,0,-2,-2,-1,0
41754913699,-1,-3,2,1,2,-1,1,-2
41754929425,-2,-2,-2,-1,2,-1,-2,-2
41754929425,-1,-2,0,0,1,0,-1,-1
41754936184,0,0,-1,-4,-1,0,0,-2
41754936184,0,-1,-1,-1,-5,-1,-1,-2
41754952562,0,-3,1,-1,1,-1,-1,-2
41754952562,-4,1,-1,-1,-2,0,1,-1
41754954137,-2,-1,-2,-2,-2,0,0,0
41754954137,-1,0,-2,-1,0,-2,0,1
41754966872,-2,-2,0,-1,-2,0,2,1
41754966872,-2,-2,-4,-2,-2,-1,-2,-2
41754973641,0,-2,-1,-1,-1,-1,-1,-2
41754973641,0,0,-1,-1,-1,-1,-1,-2
41754989368,-1,-2,0,-1,-2,-4,-1,-1
41754989368,-2,-1,-1,-1,0,-2,-1,-2
41754996142,-2,-2,-4,-1,-2,0,0,-1
41754996142,-1,0,-2,-3,-2,-1,-1,1
41755012530,0,2,3,1,-1,-1,-1,-1
41755012530,-2,-2,-4,-3,-1,0,-2,-2
41755014125,-2,-2,1,-3,0,-1,-2,-2
41755014125,-2,-3,-9,2,-1,-2,-3,-3
41755035172,-1,-2,3,-4,-3,-1,-2,-1
41755035172,0,-2,-4,0,1,1,-1,-2
41755036697,-1,2,8,4,-2,-2,2,0
41755036697,-2,2,5,0,-3,-3,-1,-2
41755049486,-2,-3,-4,-2,1,-1,-1,-1
41755049486,-1,-2,-6,0,-2,-1,-2,-1
41755056227,-2,-4,-5,-3,-1,0,-2,-2
41755056227,1,2,2,-1,-2,1,0,1
41755072653,-1,-1,0,1,-2,-2,-2,-1
41755072653,-1,-2,0,-1,-3,-3,-2,-1
41755074212,-1,-4,-10,-2,-2,0,-2,-2
41755074212,-1,2,1,-1,0,0,1,-3
41755087730,0,-3,-2,0,-1,0,0,0
41755087730,0,0,1,0,-1,0,-1,1
41755093718,-1,2,4,-1,2,0,-1,0
41755093718,-3,-4,-5,-2,-1,-2,-2,-2
41755110244,-2,1,-1,-1,-2,-3,-1,-1
41755110244,1,0,0,-1,-2,-1,0,-1
41755116258,-1,1,-2,-1,-1,-2,-1,-2
41755116258,0,-2,0,-1,0,-1,-4,-1
41755131885,-2,2,-4,-1,2,-1,-2,0
41755131885,-3,-2,3,1,0,0,-1,0
41755132689,-1,-1,-1,-1,1,-1,-2,-2
41755132689,0,-3,-2,0,-1,-1,0,2
41755147697,-1,-2,1,1,3,3,-2,-3
41755147697,-3,1,1,1,-3,-3,-1,0
41755153754,-1,0,2,1,0,-1,-1,-1
41755153754,-1,1,-2,-5,-1,-3,0,-1
41755170264,-1,-2,1,-1,0,0,-1,-1
41755170264,-1,-2,-2,-2,-1,-2,-2,-1
41755176249,1,-3,-3,-1,-3,-2,0,-1
41755176249,0,1,-1,1,0,-1,-1,-2
41755191845,-2,1,-1,0,-4,-2,0,0
41755191845,-2,-2,-7,-1,0,-1,1,-1
41755192579,-1,3,13,1,0,-3,-1,-1
41755192579,-1,-1,1,-5,-5,-3,-2,-2
41755207648,-3,-6,-6,-3,-2,-1,0,-3
41755207648,1,6,3,0,-2,-1,-1,0
41755213779,0,-2,-6,-3,-4,-2,0,-2
41755213779,1,0,1,1,3,2,1,-1
41755230231,-1,-1,-1,-2,-3,-3,-2,-2
41755230231,-1,-5,-8,-6,-3,0,-2,-1
41755236275,0,2,11,7,3,1,-2,1
41755236275,-1,-3,-7,-1,-2,1,0,0
41755251812,2,2,9,-1,-2,0,0,0
41755251812,-1,-3,-5,4,5,-1,-1,-1
41755252570,-2,-6,-21,-12,-13,-4,-1,-2
41755252570,-4,-15,-37,5,3,0,-2,-4
41755267627,3,18,86,16,3,-1,0,0
41755267627,3,0,-7,-12,-3,0,1,2
41755273671,-3,-9,-14,29,9,1,-2,-2
41755273671,-2,2,5,-39,-12,0,0,0
41755290170,0,0,-22,3,2,-3,-2,-1
41755290170,-1,2,14,27,4,-1,-1,-2
41755296152,-1,-3,10,0,-1,-1,-2,-1
41755296152,-1,-11,-20,1,0,2,1,0
41755311861,3,12,8,-29,-10,1,2,1
41755311861,-2,-7,-42,-6,1,1,-1,-2
41755312646,1,9,19,-6,-3,-9,-4,-2
41755312646,-3,-5,-16,-11,-9,-1,-4,-4
41755334351,-2,-11,-33,-6,21,9,3,-2
41755334351,0,-5,-9,1,-13,-3,-1,-2
41755335121,-8,-11,-25,-15,-4,-4,-2,-2
41755335121,4,8,2,3,10,-2,-1,1
41755350157,-5,-7,27,24,38,20,3,-2
41755350157,4,6,-1,-20,-25,-17,-1,4
41755356208,-2,-5,-7,8,13,4,-1,-3
41755356208,4,14,29,8,8,2,0,3
41755371936,-3,-10,-37,-3,2,0,-4,-2
41755371936,-3,-1,21,12,15,7,3,-2
41755372700,5,5,12,2,1,0,0,1
41755372700,-1,1,5,-2,2,-4,1,-1
41755394456,-2,-9,-26,13,-18,-13,-7,-3
41755394456,-1,2,-10,-22,0,4,1,1
41755395229,3,10,42,11,3,-3,0,2
41755395229,-2,-2,-4,2,2,-1,-2,-2
41755410270,-2,-3,-10,0,-10,-5,0,-2
41755410270,-1,-10,-13,-3,-3,-2,-4,-2
41755416240,-2,-1,-17,-7,14,8,3,-1
41755416240,-1,0,5,3,-20,-8,-2,1
41755431288,1,3,0,-12,-16,-9,-1,1
41755431288,-6,-6,-9,-3,-1,2,-1,-12
41755438770,-3,-4,-21,-12,-5,3,-1,5
41755438770,-3,-5,5,4,1,-1,-1,1
41755454496,-4,1,10,0,-3,-4,-3,-7
41755454496,12,3,8,0,-2,0,0,17
41755455174,-5,-2,0,-4,-5,-2,-1,-19
41755455174,-3,-3,-1,0,-3,-4,-1,3
41755470276,4,-5,-13,-3,-1,2,3,-5
41755470276,-11,-5,9,3,1,-3,-5,-7
41755476195,15,5,7,-5,-7,2,1,17
41755476195,-3,2,1,3,-2,-3,0,-6
41755491224,-1,1,-6,2,-2,2,0,-1
41755491224,-6,1,23,11,4,-1,-2,-7
41755498720,-5,-1,-15,-8,-3,-5,0,-6
41755498720,1,4,21,7,-4,0,-1,1
41755514377,0,-2,-6,-1,1,-4,-1,1
41755514377,-3,-3,-5,1,1,0,-1,-3
41755515218,-7,-6,-4,-2,-13,-5,-2,-9
41755515218,0,-5,-5,-1,0,-1,-3,4
41755530235,1,8,15,4,1,-1,0,2
41755530235,0,-4,-27,0,0,-1,0,1
41755536302,-2,2,9,-27,-11,-3,-1,-2
41755536302,1,4,24,10,-7,-2,0,-2
41755551170,-3,-4,-5,-6,-13,-6,-3,0
41755551170,-2,0,3,1,1,1,-1,-1
41755558725,2,-1,-14,-2,6,1,0,2
41755558725,3,2,-9,10,11,-1,2,0
41755574399,-3,2,4,-6,-3,-5,-4,-2
41755574399,2,2,-1,-6,8,4,1,2
41755575115,-4,-5,-3,2,-5,-3,-2,0
41755575115,-4,-1,-4,-6,2,1,-2,-6
41755590156,-8,-5,-11,-1,-1,0,-2,-14
41755590156,6,2,9,-3,-1,0,2,19
41755596159,-1,-3,-6,4,1,1,-1,0
41755596159,-4,-2,-2,-2,-7,0,0,-21
41755611194,5,1,-4,-11,-10,-5,-2,26
41755611194,-2,-6,-10,-2,1,0,-2,-7
41755618640,-1,1,3,12,-12,-5,-3,-1
41755618640,0,2,-5,-26,-4,1,-2,0
41755634365,-4,-3,-7,-5,2,0,0,-10
41755634365,-5,-4,-12,-3,-7,-3,-1,-6
41755635121,5,11,69,22,6,-5,0,8
41755635121,-5,-10,-28,-1,-1,9,1,-5
41755650156,1,0,7,0,0,7,3,-2
41755650156,1,5,7,-4,-1,-3,-2,2
41755656176,-2,-4,-29,-7,5,0,1,-7
41755656176,-2,-6,-2,3,-3,-7,-4,3
41755671280,-1,-5,-5,-3,-1,1,-2,1
41755671280,-1,0,1,-8,-5,-2,-2,-5
41755678781,-2,1,4,-1,4,2,-2,0
41755678781,0,1,8,10,4,-1,-1,3
41755694492,1,-2,-4,-1,-6,-3,-2,3
41755694492,-3,4,3,-6,-8,-3,-3,-6
41755695213,1,-3,-7,-3,-7,-1,-2,0
41755695213,-3,-4,-14,-10,1,-2,-2,2
41755710258,-1,-1,17,5,0,-2,-1,-5
41755710258,-3,0,12,9,-3,1,-2,-4
41755716238,0,-2,-21,-24,-7,-1,0,0
41755716238,1,-1,1,18,4,-2,0,-1
41755731290,-1,-3,-17,-14,-1,-4,-1,-2
41755731290,-1,-1,3,-2,0,1,0,-2
41755738903,-1,-3,-10,0,1,3,-1,1
41755738903,1,4,2,-2,-2,-4,1,0
41755754483,-2,-3,-7,-3,-1,-1,-1,-2
41755754483,-3,-5,-5,12,7,-1,0,-1
41755755179,0,3,20,4,1,11,2,-3
41755755179,-1,-6,7,-9,-2,-5,-3,-1
41755770259,5,6,-7,-3,0,1,0,2
41755770259,-1,0,10,-2,5,-1,0,0
41755776227,-6,-9,-24,1,-2,-3,-2,-1
41755776227,-1,1,3,2,-2,0,-1,0
41755791280,-2,-4,-4,8,2,3,1,2
41755791280,-2,-2,-7,-7,-7,-3,-3,-3
41755798806,-1,0,1,0,4,-2,-3,-2
41755798806,0,2,8,-2,-3,0,0,0
41755814457,-2,-1,-20,-1,6,-1,0,-1
41755814457,1,4,43,8,-7,-3,-2,-2
41755815148,1,3,-4,2,4,-1,0,2
41755815148,0,-3,-6,5,-2,-1,-2,-1
41755830215,-1,1,4,-9,-1,1,-3,-2
41755830215,-3,-4,-11,-10,3,1,0,-1
41755836323,-3,-6,-14,-6,-1,-3,-1,-1
41755836323,-2,-1,-2,0,0,0,0,0
41755851202,-1,-4,-13,1,-4,-4,-3,-2
41755851202,1,6,34,9,1,2,0,-1
41755858692,-1,-1,-25,-8,-2,-2,0,-1
41755858692,-2,3,31,5,-2,-1,0,1
41755874423,-5,-5,-5,10,4,-3,-2,-2
41755874423,-2,0,-10,-4,-4,3,-1,-1
41755875130,-1,-5,-9,-21,-9,-1,-1,-1
41755875130,0,-1,-4,0,3,0,-2,1
41755890133,1,3,9,1,1,-1,0,0
41755890133,-3,-4,-12,3,2,-1,-2,-1
41755896124,-1,-2,-8,-3,2,1,2,-1
41755896124,-1,-5,-1,-8,-14,-4,1,-1
41755911148,-3,-4,7,-1,-7,0,-1,-3
41755911148,3,3,-13,0,4,-2,-2,0
41755918645,1,4,21,11,4,-2,-1,1
41755918645,0,1,-12,-14,-1,0,-3,-1
41755934392,-2,-5,-29,-4,-6,-3,0,-1
41755934392,0,0,39,7,-3,-2,0,-1
41755935108,-3,-8,-9,8,6,-1,1,-4
41755935108,0,6,7,-9,-5,1,0,0
41755950184,-1,-2,-3,-7,-6,-9,-2,-1
41755950184,-2,-5,-34,-20,-4,-1,-1,-2
41755956131,2,4,24,19,-3,-5,-3,-1
41755956131,-2,-3,-10,7,3,0,0,0
41755971209,-1,-1,-9,-15,-5,0,-3,-2
41755971209,-2,-1,16,3,-1,-3,-2,-1
41755978652,-1,-3,-9,1,-4,-1,-1,-1
41755978652,0,2,1,0,1,-1,-2,-1
41755994486,-1,-1,1,0,-7,0,-1,1
41755994486,-2,-5,-9,3,8,2,0,-1
41755995252,-1,-1,-4,-11,-1,1,-1,-1
41755995252,-2,-3,-13,0,3,0,1,-1
41756010304,0,3,31,12,1,1,-1,-1
41756010304,-2,-8,-22,-4,5,2,0,-3
41756016337,0,7,23,-3,-6,-1,1,-1
41756016337,-2,-1,-16,-7,1,1,0,-1
41756031264,-1,-3,6,7,3,-9,-1,0
41756031264,3,1,-8,0,3,-1,0,1
41756038812,-2,-7,-19,-3,6,-1,-1,-3
41756038812,-1,-1,6,5,8,2,-1,-1
41756054389,-1,0,-2,-4,-7,2,1,-4
41756054389,-2,-3,-8,-4,-8,-4,-1,0
41756055165,-2,-1,2,-3,-4,-4,-2,-1
41756055165,0,-2,-1,-3,0,-1,0,-1
41756070297,0,0,-2,5,9,4,-1,-1
41756070297,-1,1,8,6,-1,0,-1,1
41756076250,-1,0,1,-1,0,-1,0,0
41756076250,-2,-4,-4,-2,0,-4,-2,1
41756091310,-3,-3,0,-6,-4,3,0,-2
41756091310,-1,0,-4,-5,-7,-5,-3,-2
41756098781,-3,-4,3,4,9,-3,-3,0
41756098781,0,-3,-13,-5,-3,-5,-1,-3
41756114464,4,9,16,3,-2,-2,2,3
41756114464,-1,2,15,4,-14,0,-1,-3
41756115191,-3,-6,-13,-10,-5,1,0,-1
41756115191,-4,-5,0,0,-19,-5,-3,-5
41756130238,-1,-6,-11,-9,10,5,0,-1
41756130238,0,2,0,8,5,-6,-2,-1
41756136320,2,0,-8,-12,-34,10,4,-1
41756136320,-1,-2,1,2,-2,-10,-6,0
41756151249,1,1,8,-3,5,-1,-1,0
41756151249,-4,-5,-13,11,5,0,-1,-1
41756158810,-5,-3,-2,0,-6,-1,-3,-3
41756158810,0,1,8,-1,-2,4,1,-1
41756174470,-2,-4,-11,-4,-10,-4,-1,-2
41756174470,1,1,4,-4,-1,-1,-1,0
41756175216,-1,0,-11,-6,2,-5,-3,-1
41756175216,0,2,-2,9,2,3,1,0
41756190184,0,4,25,3,2,-3,-2,1
41756190184,-1,-1,17,0,-8,1,1,0
41756196208,0,0,6,11,4,1,-2,0
41756196208,-2,-5,-19,-13,13,14,2,-2
41756211161,-2,-7,-14,4,0,0,1,-1
41756211161,0,2,-1,-11,-7,-1,-3,-1
41756218668,3,4,17,4,15,-1,-1,1
41756218668,-2,-2,-3,4,-2,-7,-1,-1
41756234351,-3,-1,-6,-6,-4,-2,-4,-1
41756234351,0,-3,-9,10,4,-1,0,-1
41756235112,-2,-5,-15,-10,0,5,0,-3
41756235112,1,5,7,3,-9,-5,-2,1
41756250218,-2,-1,6,5,-1,-1,0,-3
41756250218,-2,-1,-17,-11,0,-3,0,-1
41756264434,0,0,10,6,2,-3,-2,1
41756264434,0,0,3,-1,4,2,2,0
41756271227,-3,-5,-14,-5,-2,2,0,-2
41756271227,-4,-3,2,-6,-18,-6,-2,-1
41756278742,1,4,7,2,2,6,4,3
41756278742,-2,-2,-1,2,14,0,-1,0
41756294463,0,0,-1,3,7,-1,-2,-1
41756294463,-2,0,-2,-5,3,-1,-2,-1
41756295241,-2,-2,4,-3,-5,-3,-2,-2
41756295241,0,-1,-16,-2,-1,-2,-1,0
41756310267,1,1,14,4,-4,0,0,1
41756310267,0,2,11,-2,-1,5,1,-2
41756316216,-1,-1,-7,5,-2,-9,-2,0
41756316216,-2,0,15,2,2,-2,0,-2
41756331293,0,0,-10,0,-4,-2,-4,-2
41756331293,-1,-6,-12,-12,-10,1,0,-1
41756338685,-4,-6,-7,-5,4,-4,-4,-2
41756338685,-1,-6,-19,3,17,3,0,1
41756353747,2,7,35,-16,-49,-5,1,0
41756353747,0,-1,-3,-1,8,-4,-1,-1
41756361273,-2,1,7,7,-3,2,-1,-1
41756361273,1,-1,7,8,5,-10,-3,-2
41756370245,1,2,-15,-7,6,1,1,1
41756370245,-4,-7,-6,-4,1,2,-1,-4
41756376318,-6,-6,-9,-12,-7,-9,-4,-9
41756376318,3,6,11,11,-2,4,2,1
41756391338,8,1,-3,-5,-4,0,2,8
41756391338,-8,2,0,5,0,-5,-1,-21
41756398821,0,-8,-19,-2,8,-1,0,18
41756398821,6,-2,16,-7,-8,0,-1,-2
41756413800,7,2,4,19,23,4,1,20
41756413800,-9,-5,-5,-2,14,4,-4,-17
41756421171,-1,2,8,18,22,4,3,2
41756421171,4,-6,-21,-30,-32,-9,-1,-2
41756430231,-10,-5,-16,-3,14,-3,-4,-9
41756430231,9,10,58,26,-3,-1,0,22
41756436252,-3,-7,-34,-6,1,0,-2,-8
41756436252,1,18,52,13,2,-3,0,7
41756451227,-5,-8,-29,-17,-10,1,-1,-11
41756451227,-2,-1,8,12,19,6,3,1
41756466794,-2,-5,-8,-16,-30,-17,-9,0
41756466794,-1,0,2,6,9,0,-1,-3
41756475246,-8,-9,-10,-24,-31,-12,-6,-7
41756475246,-3,-12,-68,6,24,11,1,1
41756481258,9,31,96,32,23,5,4,3
41756481258,-8,-12,-12,-18,-31,-7,-5,-5
41756490304,-4,-4,-5,8,21,5,1,-8
41756490304,6,3,10,-22,-15,-2,1,11
41756496253,-2,-11,-40,-3,7,-1,0,-5
41756496253,-4,-2,-22,-1,-18,-5,-1,-1
41756511285,2,5,33,20,29,4,1,2
41756511285,2,-5,-28,-44,-2,-4,-1,-2
41756518815,-4,-4,4,8,-34,-3,-3,-6
41756518815,-2,2,8,12,19,2,0,-2
41756533865,-2,-8,-39,5,-11,-4,-1,2
41756533865,1,3,30,-4,15,-5,-2,1
41756541322,-2,0,-4,-11,3,1,-3,-4
41756541322,-4,-3,-8,-6,5,1,-1,0
41756556942,0,2,-8,5,1,1,-1,0
41756556942,-4,-1,6,9,-13,-2,-1,-1
41756557779,4,3,-10,-15,-5,1,2,3
41756557779,-2,-7,-11,4,-3,-1,0,-3
41756571259,-2,-1,-9,-9,2,0,-2,-3
41756571259,-1,-2,-7,-6,-27,-5,-2,-1
41756578760,1,3,10,-7,-7,0,-1,0
41756578760,1,-3,-6,30,11,0,-1,2
41756593764,1,6,20,-32,-6,-5,-1,-3
41756593764,-3,-4,-23,-5,-8,-5,-4,2
41756601217,-4,-8,-18,17,10,0,-2,-5
41756601217,0,4,23,-12,-9,3,0,-1
41756616947,0,-2,0,7,3,-2,0,0
41756616947,-1,-1,-1,6,1,-1,1,0
41756617736,1,0,2,-15,5,2,3,0
41756617736,-2,-5,-7,-4,-2,2,-2,1
41756631265,-3,-2,1,3,-2,-1,-1,-3
41756631265,2,1,-1,6,6,1,-1,-2
41756638753,0,0,-2,-2,-15,-1,0,-1
41756638753,-2,-2,-11,-11,-1,0,-1,-2
41756653796,-2,-2,5,10,3,-1,0,0
41756653796,0,1,-3,-2,-12,-4,-1,-1
41756661337,-1,-1,-2,2,1,-1,-1,-2
41756661337,1,-1,-6,-11,0,0,-2,-2
41756676894,0,0,4,1,1,3,0,0
41756676894,-1,2,1,-10,-2,-7,-1,1
41756677659,-1,-2,1,25,22,7,1,0
41756677659,-2,-5,-8,-3,5,0,-1,-2
41756691255,2,1,4,1,1,2,1,-1
41756691255,0,-3,-4,-7,-11,0,0,0
41756698808,0,1,0,-17,-12,-4,0,2
41756698808,-3,-2,-3,-3,4,-3,-1,-2
41756713821,-1,0,-1,1,-1,-1,-2,0
41756713821,-1,-4,-14,2,-5,1,0,-1
41756721282,-2,1,19,10,0,-2,-3,-2
41756721282,-2,-7,-15,-9,-4,1,-2,-2
41756736880,-1,-1,18,2,-10,-5,-1,-2
41756736880,3,-1,-4,3,6,-1,0,0
41756737695,0,8,2,0,0,-1,-1,1
41756737695,-2,-7,-15,-14,-10,-3,-2,-3
41756751255,-4,-8,-31,0,5,-1,-2,-2
41756751255,-1,1,26,-8,-8,-3,-1,-2
41756758797,-3,-10,2,21,7,-2,0,-4
41756758797,3,9,21,-10,-4,-3,0,2
41756773804,3,8,-1,1,1,-1,-1,2
41756773804,-1,-2,-9,11,7,2,0,0
41756781287,0,-6,-17,-21,-8,-7,-2,-2
41756781287,-2,-2,7,15,-7,0,0,-1
41756796949,-2,-2,1,-6,-11,-3,0,-1
41756796949,0,-1,-3,-10,2,2,-1,-2
41756797746,2,2,5,4,-3,-1,-1,2
41756797746,-1,1,-5,1,4,-1,-2,1
41756811311,1,-1,-4,-4,-1,-2,0,-2
41756811311,-2,-3,-10,-6,-2,-2,-1,0
41756818766,-2,4,29,3,-3,0,1,-1
41756818766,-1,-1,-4,2,1,1,-2,-1
41756833810,-1,-2,2,3,-2,-1,-3,-2
41756833810,-2,-5,-10,0,4,0,-2,-2
41756841298,0,5,2,-1,-3,-3,-2,-2
41756841298,-1,-4,-13,-8,0,0,2,1
41756857018,-3,-3,26,1,-2,-1,-1,-1
41756857018,1,-2,-20,18,-1,0,-2,-2
41756857733,1,6,27,2,0,0,0,1
41756857733,-2,-3,-5,-18,-4,-3,-1,-1
41756871342,0,1,-4,1,1,1,1,1
41756871342,-2,0,8,5,1,-3,-1,-1
41756878760,-2,-6,-21,-6,-9,0,-2,0
41756878760,-1,0,-2,15,9,-2,-1,-3
41756893742,-1,-6,-11,-20,-5,-1,-2,-2
41756893742,-2,3,9,3,-3,-2,-1,1
41756901318,0,-3,-16,-7,0,-2,0,-2
41756901318,-1,1,4,6,1,2,0,-1
41756916937,-3,-4,-10,-3,-4,-4,-2,-1
41756916937,0,-1,5,2,2,0,0,-3
41756917723,0,-4,-8,-7,-2,-2,-2,-2
41756917723,0,1,1,1,1,0,-2,-1
41756931257,1,4,9,11,7,0,1,0
41756931257,-2,-3,0,-4,0,-1,-3,0
41756938769,-3,-5,-9,-6,4,0,-1,-2
41756938769,-1,-1,2,0,-3,-3,-1,-2
41756961943,0,-3,-5,5,3,1,-1,-2
41756961943,2,7,-2,-11,-8,0,1,0
41756962746,1,-4,-12,5,-1,-4,-1,0
41756962746,0,3,33,10,3,0,-2,0
41756976932,-1,2,10,8,-1,0,-1,0
41756976932,1,-4,-1,-12,-1,0,-2,-1
41756977738,-4,-6,-13,-7,-2,-1,-1,-3
41756977738,0,0,-9,-4,-4,-1,0,-2
41756991230,-1,-2,-11,-6,-4,-2,0,-2
41756991230,0,-2,4,9,4,2,0,-1
41756998761,-2,2,0,-11,-5,0,-1,0
41756998761,-3,-5,-11,12,2,-1,-1,1
41757013790,-2,1,3,-1,1,-1,-1,0
41757013790,-3,0,-4,-7,-4,-3,-3,-2
41757021338,1,-3,-3,-5,2,0,1,-1
41757021338,1,1,2,-1,4,1,1,1
41757037008,-3,-7,-8,-8,-16,-8,-3,-3
41757037008,0,2,7,0,1,-1,-1,-1
41757037783,-4,-6,-8,0,-3,-1,-1,-3
41757037783,1,2,-8,-2,-3,1,1,-1
41757051284,-1,-2,16,5,1,0,-2,-1
41757051284,0,0,-7,0,1,0,0,-1
41757058695,-2,-5,-9,-1,-1,-2,0,-1
41757058695,-1,-1,20,0,-3,-2,-1,1
41757073772,-2,-5,-31,-8,0,0,-2,-2
41757073772,-1,1,19,9,0,-1,0,0
41757081374,2,7,33,3,-1,2,-2,0
41757081374,-2,-4,-18,-8,-3,-3,-2,-3
41757096985,1,-2,0,-3,-2,-1,-1,-2
41757096985,-1,-1,6,7,2,0,-1,-3
41757097733,-1,-3,-10,-2,0,0,-2,-3
41757097733,-3,0,1,-4,-4,-1,-1,-2
41757111304,-2,-2,-4,-3,2,-2,0,-1
41757111304,-1,-3,-9,3,-1,-2,-2,-1
41757118801,1,4,1,5,4,0,0,1
41757118801,0,-1,-3,-8,-7,-1,0,0
41757133830,1,2,14,-2,1,0,1,0
41757133830,-3,-5,-10,-5,-8,-4,-2,0
41757141326,-4,-4,-6,-8,-2,-2,-3,-3
41757141326,-2,-6,-5,2,0,-2,0,0
41757156919,-1,1,-3,0,1,-1,0,0
41757156919,2,-1,1,-2,4,3,1,1
41757157706,-2,-1,-3,-2,-7,-3,-1,0
41757157706,-1,0,-6,-3,-2,-1,-3,-2
41757171278,-3,-4,-2,0,-2,-1,-1,-2
41757171278,-4,-3,-2,-2,-3,-1,-2,-3
41757178733,0,0,-2,2,0,1,2,-1
41757178733,2,1,1,2,1,0,0,0
41757193818,0,0,4,-1,2,1,-1,-1
41757193818,-1,-2,-2,1,-4,-5,-5,-1
41757201198,-1,-4,-6,-5,0,0,1,0
41757201198,-3,-4,-10,-5,-4,-3,-3,-1
41757216957,0,-4,4,11,0,0,0,-2
41757216957,2,9,3,-10,-2,0,2,1
41757217746,0,1,22,2,-2,0,0,-1
41757217746,-1,-2,-6,-2,3,-2,-3,-2
41757231236,-1,1,-7,7,0,-2,-1,-1
41757231236,-4,-12,-21,1,-1,0,-1,-3
41757238792,0,1,-4,-8,-3,-2,-1,0
41757238792,1,3,9,-4,-3,0,0,1
41757253824,0,-2,-3,-3,-2,0,-1,0
41757253824,0,-1,5,-2,-1,-1,1,-1
41757261313,-2,-7,-11,1,1,-2,-2,-3
41757261313,-1,-4,-1,3,0,-2,-3,-1
41757276980,0,1,0,-2,1,1,-3,2
41757276980,-2,-2,-4,-2,-5,-3,0,-1
41757277715,0,0,5,-1,-2,-2,-2,-2
41757277715,-1,2,-1,3,3,0,1,-1
41757291336,-3,0,0,-4,-3,-2,0,-2
41757291336,-1,1,1,-5,0,1,1,-1
41757298766,-2,-3,-9,5,-1,-3,-1,-1
41757298766,-3,-7,-1,-4,-4,0,1,-1
41757315195,0,1,-3,-11,-6,-1,-1,1
41757315195,0,-2,-10,6,2,0,-1,0
41757321183,-1,-2,3,0,-1,0,0,-1
41757321183,-2,0,7,0,3,0,-1,-1
41757336203,-1,2,2,-3,-3,-1,-1,-2
41757336203,-1,1,4,-6,-4,-1,0,-1
41757352578,0,-4,-16,-4,1,1,-2,-1
41757352578,1,2,-1,-1,1,1,0,1
41757354160,-3,-5,-7,-4,-2,-2,-3,-2
41757354160,-1,-1,1,7,-1,-2,-4,-2
41757358681,2,2,4,-3,5,1,0,1
41757358681,-1,-4,-7,-4,-3,-4,0,-2
41757373744,-4,-2,-1,1,-7,-2,0,-2
41757373744,-1,-4,-2,2,0,-1,-1,-1
41757389503,-2,-7,-53,-22,-5,-1,0,0
41757389503,0,6,67,25,1,1,0,-1
41757396307,0,-1,-17,-12,-1,-3,1,0
41757396307,-2,-1,1,-1,-2,-1,0,0
41757404464,-2,-1,-2,-6,-1,-1,1,0
41757404464,0,-4,-24,5,2,-1,0,-1
41757411272,-1,-2,2,-1,0,2,0,1
41757411272,-1,-1,4,-3,1,-1,-1,-2
41757418800,-3,0,-2,1,-4,-1,-2,0
41757418800,0,0,-12,-6,-2,0,-1,-2
41757433837,1,1,11,-4,-4,0,-1,1
41757433837,0,0,-10,-4,1,-1,-1,-1
41757441325,-1,-1,12,2,-4,-1,0,-2
41757441325,-3,-2,-8,2,-1,-3,-3,-1
41757456246,0,1,-1,-1,-3,-1,-1,1
41757456246,-1,0,3,2,-2,-2,-1,-2
41757464529,-1,0,-5,2,4,-1,-2,-1
41757464529,-2,-4,-6,-21,-7,1,-1,-1
41757471313,1,3,5,16,12,2,2,-1
41757471313,0,2,9,-5,-4,-3,-2,0
41757478857,-1,-2,9,5,-1,-2,-2,0
41757478857,-2,-4,-12,-4,-2,-1,-2,-1
41757493806,-1,-4,-7,-3,-1,1,0,-1
41757493806,-1,-2,8,-2,0,-1,-1,-2
41757501276,-1,0,-2,1,0,-1,-1,-1
41757501276,-1,-3,-5,3,-3,-3,0,-1
41757516289,0,0,-1,-7,-3,0,0,0
41757516289,0,1,-2,7,2,-1,-1,0
41757524513,-1,-4,2,0,1,-1,0,-2
41757524513,-2,-2,-6,-2,-4,-1,0,-1
41757539480,0,2,8,5,0,-2,-2,-1
41757539480,0,-3,-11,-13,-3,0,-1,-1
41757540252,0,0,6,16,5,0,-1,-1
41757540252,0,1,2,-2,0,-2,0,1
41757553806,-3,-5,-12,0,0,-1,-1,0
41757553806,0,-2,-3,-7,0,1,-2,0
41757561284,2,1,8,5,-1,-2,0,-1
41757561284,-2,-2,-5,-12,-1,0,-2,-2
41757576246,0,0,11,0,-2,-1,-1,-2
41757576246,-1,2,-1,0,1,-1,-1,0
41757584414,-1,0,5,-2,-3,1,-3,0
41757584414,-2,-3,-6,-3,0,0,-1,1
41757599373,-3,-2,-4,5,2,-1,-2,-3
41757599373,-2,-1,-2,-2,-4,1,-1,-2
41757600134,1,-2,-8,-8,1,0,-2,-1
41757600134,-2,-1,-3,-2,-4,-3,-1,0
41757613773,0,-2,9,2,-1,1,-1,-2
41757613773,0,0,-6,1,0,0,1,-1
41757621209,-1,1,-3,-3,-5,-2,-1,-1
41757621209,-1,-2,-6,-7,1,2,0,0
41757636184,-1,-4,-6,4,-2,-1,-1,-2
41757636184,1,-2,3,-2,-3,0,-1,0
41757644357,-2,-1,-6,-3,-1,-2,-1,-1
41757644357,-1,-2,-8,-9,-6,-3,-3,-1
41757659486,1,2,4,-5,-8,-3,-1,1
41757659486,-4,-6,-17,-1,2,-1,-2,-3
41757660241,1,5,36,5,1,1,0,-2
41757660241,2,1,2,1,-3,0,0,-1
41757673885,-3,-2,-8,-3,0,-4,-1,-1
41757673885,1,-4,-6,0,-2,-2,-2,1
41757681372,-1,-1,-5,-3,-3,-1,-1,0
41757681372,-3,-1,2,8,4,-1,0,-1
41757696320,-1,-3,-10,-5,0,0,0,-2
41757696320,0,-1,-3,-2,-3,-1,-1,-1
41757704478,-1,-2,11,3,-6,0,-1,-1
41757704478,0,3,3,4,1,-2,-1,-1
41757719218,-4,-2,-9,-2,0,-1,-2,-1
41757719218,-2,-1,5,-1,0,0,-1,-1
41757726997,-2,-1,-11,-10,-7,-2,-2,-1
41757726997,-2,-7,-5,2,1,0,-2,-2
41757733874,3,5,8,-2,-5,-1,1,0
41757733874,-1,5,-1,4,4,0,-1,-1
41757741357,-2,-4,-3,-6,-4,-2,-1,-1
41757741357,-2,-2,3,0,-2,-1,0,-3
41757756218,-1,-5,-7,-2,-1,0,-2,-2
41757756218,-1,0,-2,-3,-5,-1,1,-1
41757764555,0,-1,-7,3,4,-2,1,0
41757764555,0,2,0,-5,-3,-2,-1,0
41757779481,-1,-3,4,-4,-1,0,-1,0
41757779481,-2,0,0,-1,-3,-1,-1,-2
41757780277,-3,-6,-7,4,2,-2,-1,-2
41757780277,2,1,-4,-7,-3,0,-1,0
41757793764,2,1,3,7,9,2,0,-1
41757793764,-2,-1,0,-2,-2,-1,0,-1
41757801198,-3,-5,-9,-6,0,0,-1,-1
41757801198,-1,-1,-3,7,3,0,-1,-1
41757816252,-2,1,-2,-6,-2,-1,0,-1
41757816252,0,-2,4,9,4,1,-1,-1
41757824514,0,1,-5,-7,-4,0,0,0
41757824514,0,3,6,3,2,1,1,-2
41757839447,-1,-2,-7,-2,-2,-1,-1,1
41757839447,-2,-2,11,-1,0,-2,0,-1
41757840234,-2,-1,-10,-1,-5,-1,-2,-1
41757840234,-2,-1,6,1,-2,-2,-2,-1
41757853813,0,0,-1,-4,0,-2,-1,-1
41757853813,0,1,-2,-5,-7,-2,0,-1
41757861335,1,0,3,5,3,0,-1,0
41757861335,0,-2,-19,-10,-3,-2,-1,0
41757876198,-3,-5,1,3,1,-2,0,-1
41757876198,-1,3,18,6,1,-3,-2,0
41757884444,3,7,18,5,0,-1,0,1
41757884444,0,-1,-1,-3,-1,-2,-2,-1
41757899374,-2,-5,-9,-9,-5,-2,0,-1
41757899374,-1,-6,-11,2,6,-2,-2,-3
41757900142,0,-1,0,7,-1,-2,-1,0
41757900142,-1,1,-1,-2,-2,-1,-2,-2
41757913731,2,1,11,-1,-2,0,0,0
41757913731,-3,-2,-9,-1,-3,-2,-1,-1
41757921286,-1,-2,-4,-10,-4,-4,-1,-2
41757921286,-1,-1,-1,4,4,-1,-1,-1
41757936325,-1,2,0,-1,0,0,-1,-1
41757936325,0,-3,-3,-1,-3,-2,1,-2
41757944502,-3,-3,-9,-11,-4,-1,-3,-3
41757944502,-2,-3,2,-1,0,-1,0,-1
41757959485,-4,-3,-3,-5,-5,-2,0,-2
41757959485,0,-2,-4,9,4,1,0,0
41757960225,2,2,7,1,-1,1,0,1
41757960225,0,1,8,1,-4,-2,-1,0
41757973861,-1,-5,-10,0,0,-1,-3,-1
41757973861,-1,5,7,-6,-6,0,-2,0
41757981345,-2,-5,-14,-4,-3,0,0,-2
41757981345,-2,-1,-5,-4,-1,1,1,-1
41757996376,1,-2,3,6,1,-1,0,0
41757996376,-3,-2,-5,-16,-2,-1,0,-1
41758004428,0,-1,1,11,2,-2,0,-1
41758004428,1,2,1,-3,-3,-1,0,-1
41758019558,-2,-3,-22,0,2,-2,-2,0
41758019558,0,3,40,3,-2,-1,0,-2
41758020284,-2,-2,-6,-5,0,0,-1,-2
41758020284,0,-3,-4,8,1,-1,-2,-1
41758033876,1,0,-6,-6,-6,-2,-2,-1
41758033876,-2,-5,-12,-3,-2,-2,-2,0
41758041413,-5,-8,-7,-8,-4,-2,0,-1
41758041413,4,9,14,4,0,1,0,1
41758056310,-1,-1,-2,6,3,2,1,-1
41758056310,0,-1,-2,-18,-8,0,1,-3
41758064575,-2,-4,-8,15,2,-4,-4,-3
41758064575,-1,-4,-13,-27,-11,-2,-1,-1
41758079515,-1,-4,17,7,-1,-1,0,1
41758079515,0,-1,-19,-1,2,0,1,0
41758080293,-4,-2,27,0,-2,1,2,-1
41758080293,-11,-23,-44,-2,1,-5,-6,-9
41758093823,13,30,74,10,3,2,3,8
41758093823,7,13,7,4,-3,-2,-4,-1
41758101322,2,6,-1,-9,-1,-3,-4,-2
41758101322,-5,-10,-19,0,-2,-2,0,-1
41758116289,-5,-11,-21,-2,-1,-1,-1,-1
41758116289,-4,-7,-16,-13,-1,1,-1,-1
41758124469,-3,-4,-17,-11,-1,1,-1,1
41758124469,2,-2,-32,-15,-5,-2,-1,-1
41758139384,0,10,52,16,11,4,0,-3
41758139384,1,1,27,20,-3,-3,-1,2
41758140159,0,-1,-10,-3,1,0,0,0
41758140159,-4,-8,-11,-4,-6,-2,-2,-1
41758153715,-1,-1,-11,2,2,1,0,-2
41758153715,0,-2,-3,-1,3,1,0,1
41758161260,0,3,21,3,-5,-5,-1,0
41758161260,-2,2,13,4,7,2,0,-1
41758176205,-3,-8,-30,-12,-10,-4,-4,-3
41758176205,0,3,4,4,0,0,-3,0
41758184417,1,-3,-11,-3,-24,3,3,1
41758184417,3,7,24,12,34,3,0,1
41758199370,-5,-7,-10,-9,2,-1,-2,-3
41758199370,-2,-5,-17,-6,10,1,1,-2
41758200175,0,0,4,4,-7,2,-1,0
41758200175,2,9,22,14,28,2,0,1
41758213705,-2,-3,-11,-14,-54,-10,-2,0
41758213705,-2,-5,-13,3,31,-2,-3,-3
41758221308,-1,-1,-2,-4,4,0,-1,-2
41758221308,0,1,13,6,-16,0,0,-2
41758236408,-1,1,-13,0,9,0,0,-2
41758236408,-1,0,-1,2,-11,1,1,1
41758244485,-1,1,-1,1,3,-4,-1,-1
41758244485,-2,1,4,-3,-12,-1,0,-1
41758258848,-2,-3,-10,-2,4,0,-2,-2
41758258848,-1,-3,-3,-7,-11,-4,0,-1
41758267056,-2,-5,-2,-1,-6,2,-1,-1
41758267056,-1,-1,2,-2,-6,-4,-1,0
41758273837,-2,-2,-8,-15,1,-2,0,0
41758273837,-1,-2,3,29,2,2,0,-2
41758281287,-1,-1,-9,-10,7,-3,-1,-1
41758281287,1,4,20,1,-3,2,0,-1
41758296357,0,-4,-7,2,-25,-4,-3,-2
41758296357,-6,-5,-6,-5,45,-2,-2,-2
41758304441,2,5,-2,5,-3,-2,0,1
41758304441,2,4,7,3,-16,-4,0,3
41758318764,-5,-7,-9,-9,10,0,0,-2
41758318764,-3,-4,-7,3,-17,0,-2,-2
41758327017,-3,-5,-4,9,5,-1,-1,-1
41758327017,2,3,8,-9,7,0,1,1
41758333846,-2,-4,1,-3,0,1,-2,-3
41758333846,3,9,31,2,-20,-2,1,1
41758341311,-1,-6,-12,-6,9,-2,-1,-1
41758341311,-5,-9,-9,-2,-12,-3,-2,-3
41758356295,1,0,-9,-4,8,-3,1,1
41758356295,1,2,-13,-10,-5,0,1,2
41758364542,1,4,36,10,4,1,-1,0
41758364542,0,0,-15,7,5,0,1,1
41758378901,-1,1,1,10,8,-1,-1,-1
41758378901,-1,-4,-25,-18,-7,-13,-3,0
41758386999,-2,0,22,8,5,-1,0,-2
41758386999,-4,-3,-10,-19,-11,-4,-4,-3
41758393838,5,7,9,6,6,-1,-1,2
41758393838,1,-3,-34,-8,-28,0,0,1
41758401222,0,5,26,6,8,1,0,-1
41758401222,-4,-9,-6,4,7,2,-2,-1
41758416256,-1,-4,-3,-4,-5,-6,1,-1
41758416256,-2,-8,-4,0,3,2,-1,-2
41758424504,0,-2,-18,-4,-13,-3,0,0
41758424504,-3,0,2,-1,3,1,1,-2
41758438724,1,3,-1,6,6,3,-1,1
41758438724,-3,-6,-8,2,-8,-6,-4,-5
41758446928,-2,-1,3,-6,-3,-2,-2,-1
41758446928,1,1,-6,-8,0,0,-1,-2
41758461869,1,0,-2,-3,-5,0,1,0
41758461869,-2,-3,7,-2,0,3,0,-2
41758462628,-2,-2,-12,-1,3,-1,-2,-1
41758462628,0,-1,-12,0,-10,-3,-2,-2
41758476313,-1,0,15,9,3,0,-1,-2
41758476313,1,6,21,0,2,3,1,0
41758484543,1,-4,-27,-8,0,0,0,0
41758484543,0,-1,-14,-1,-4,-2,0,0
41758498813,-5,-6,15,-4,-3,0,-2,-3
41758498813,1,1,5,-9,-4,-2,-3,-1
41758507009,1,1,-7,-1,-1,-5,0,0
41758507009,-1,-4,-13,1,0,2,-1,-1
41758522068,1,0,-5,-3,1,-1,-1,-2
41758522068,-1,-2,4,0,-2,-2,-1,1
41758522779,-6,-7,-6,5,2,2,-2,-4
41758522779,3,3,12,-1,-5,-2,-1,1
41758536337,-5,-3,-3,-2,2,-2,-1,-3
41758536337,-6,-6,-7,6,4,1,-1,-2
41758544550,4,7,-4,-13,-8,0,3,2
41758544550,-3,-6,10,2,1,-2,0,-2
41758558862,1,1,0,2,0,-2,0,0
41758558862,-1,-1,-10,-13,-4,0,-1,-3
41758567003,-1,-2,-1,6,2,1,-1,-2
41758567003,0,1,7,2,-3,-2,-1,1
41758582029,0,-2,-9,-5,-3,1,-2,-1
41758582029,-1,-2,-14,-1,2,0,-1,0
41758582817,-2,1,30,3,-3,-3,-2,-2
41758582817,-1,-3,-8,-9,-1,1,-2,0
41758596360,-4,-3,-3,6,2,-1,-2,-2
41758596360,-1,1,1,5,3,0,1,-1
41758604497,-2,-3,-3,-7,-2,-3,-2,-1
41758604497,-1,-2,-10,-6,0,-1,-1,0
41758618844,0,-3,-8,-5,-3,-1,0,0
41758618844,0,2,3,3,-2,-1,1,-1
41758627083,0,-3,-20,-11,0,-1,-2,-1
41758627083,-4,-1,13,3,-1,-1,-2,-3
41758641966,1,1,-4,-5,-6,-1,1,1
41758641966,-2,-3,5,-2,-2,-2,0,-1
41758642792,-2,-5,-5,23,10,-1,-1,-2
41758642792,0,3,-1,-33,-19,-3,1,0
41758656303,-1,1,-9,1,7,1,0,0
41758656303,2,5,19,2,-10,-2,-1,2
41758664456,-2,-3,-4,-5,5,4,-1,-3
41758664456,-1,-1,1,12,-3,-4,-1,0
41758678780,-3,-5,-16,-6,0,-2,-1,0
41758678780,1,0,-3,-6,-1,0,0,1
41758686874,-3,-3,-12,-10,-3,-3,0,-2
41758686874,1,3,17,18,7,0,2,0
41758701947,-1,2,-6,-5,-3,-2,-2,-1
41758701947,-3,-4,2,1,1,-1,-1,-1
41758702692,-3,-5,-4,-4,-6,-1,-2,-1
41758702692,4,8,13,4,4,2,-1,0
41758716234,-1,-1,-8,1,-2,-2,-1,-2
41758716234,-1,0,3,6,2,0,-1,-1
41758724381,-2,-3,-4,-19,-9,-3,-1,-2
41758724381,-4,-9,-15,11,6,-2,-2,-2
41758738725,-3,-3,-2,13,11,1,-1,-1
41758738725,-1,2,21,-8,-12,-2,-1,0
41758747116,-3,-5,-15,-13,-6,-3,-1,-1
41758747116,-2,1,9,0,1,0,0,0
41758761996,1,4,29,10,-1,-1,-1,0
41758761996,2,1,-5,-1,5,1,0,1
41758762789,0,-3,-7,3,5,2,-1,-3
41758762789,-1,-7,-7,-9,-3,-2,-2,-3
41758785234,-1,-3,-16,-4,-6,-3,0,-1
41758785234,0,-2,-3,-3,-1,-3,-2,-1
41758785987,-3,-3,5,3,2,0,-2,-2
41758785987,1,0,-3,0,0,0,1,1
41758798867,0,-1,3,-1,-8,-4,-3,-1
41758798867,1,2,-7,-5,0,0,-2,0
41758807022,1,4,3,1,-3,-1,1,1
41758807022,-3,-6,-8,-4,4,-1,-2,-3
41758821990,-2,-5,-10,-12,-8,0,-1,-1
41758821990,-3,-8,-5,11,5,0,-1,-2
41758822851,3,5,3,4,-1,0,1,-1
41758822851,0,1,1,-1,-1,1,0,-1
41758836267,1,-4,0,-4,-4,-3,-1,-2
41758836267,2,2,-5,-1,2,0,0,0
41758844550,-2,-1,2,0,-1,-2,-2,-1
41758844550,-1,-3,-4,3,-1,-2,-2,-2
41758858862,-2,-2,-8,-23,-2,1,1,0
41758858862,-4,-6,4,24,5,-1,-3,-3
41758867022,1,7,14,4,0,0,0,0
41758867022,-2,-1,-4,-4,-2,0,-1,0
41758882062,-1,0,1,0,0,-2,-2,0
41758882062,-1,-3,-13,-11,-2,-1,0,0
41758882781,3,2,-8,1,0,-2,2,2
41758882781,-3,-1,6,6,2,0,-1,-3
41758896365,-2,-1,5,0,-1,0,-1,-1
41758896365,-3,0,-6,-7,-4,-1,0,0
41758905314,-3,-2,8,6,-3,-5,-2,-2
41758905314,1,2,0,0,-7,-4,-2,0
41758918849,1,3,13,0,2,1,0,0
41758918849,-4,-4,-9,-6,-2,0,1,-1
41758927793,2,2,3,0,1,-2,-2,0
41758927793,0,1,-5,-4,-6,-2,0,1
41758941296,-3,-3,2,7,1,-1,-1,-4
41758941296,-3,-8,-32,-11,0,1,-2,-2
41758950209,1,7,54,6,-2,0,1,0
41758950209,0,1,-2,-3,-4,1,-1,-1
41758956300,1,-1,0,12,5,-2,-1,0
41758956300,-3,-6,-6,-9,-3,-3,-2,-3
41758965226,-2,-2,-14,-1,1,-1,-2,0
41758965226,1,-1,-1,-6,0,-2,-1,-1
41758978750,2,9,18,7,0,0,1,0
41758978750,0,-2,-8,-3,-5,-1,0,-1
41758987743,-2,-3,-2,0,-5,-1,-2,0
41758987743,-5,-9,-5,-1,6,3,-1,-3
41759001362,-4,-11,-22,-3,-7,-3,-2,-4
41759001362,9,18,33,4,-3,-2,2,4
41759010376,-1,-3,-13,-4,2,0,0,0
41759010376,-2,-1,3,0,1,-2,-3,-1
41759016322,-2,-4,-10,0,5,2,-1,0
41759016322,-6,-7,-3,-4,-1,-1,-3,-3
41759025275,0,-4,-9,-6,-6,-2,0,-1
41759025275,1,1,-1,5,3,1,0,-1
41759038867,-2,-3,0,-4,-3,1,1,-2
41759038867,0,2,16,6,1,-2,-1,-2
41759047812,-1,-4,-15,-12,-2,0,-2,-3
41759047812,0,-3,-4,0,-1,-4,0,-1
41759061269,0,2,3,0,-3,-1,0,0
41759061269,0,-1,1,1,0,-1,-2,-2
41759070269,-2,-5,-22,-5,-1,-1,-1,-1
41759070269,0,4,29,4,-2,0,1,-1
41759076331,0,-1,-8,10,5,-2,-3,-3
41759076331,1,5,32,6,4,-1,0,0
41759085221,-1,-2,-12,-9,0,1,0,1
41759085221,2,1,-8,-5,-7,-1,-1,1
41759098841,-4,-8,-8,-2,4,2,1,-1
41759098841,-3,-6,-19,-15,-8,-5,-2,-1
41759107932,1,1,16,14,0,-1,-1,0
41759107932,-2,3,16,6,2,-1,-1,-1
41759121334,2,3,2,-5,0,-1,-1,-1
41759121334,-2,-6,-13,-2,1,0,-1,0
41759130338,-3,-5,-7,-3,-3,-2,-1,-2
41759130338,0,-2,-8,-8,-4,-1,0,-1
41759136368,-4,-6,-7,-2,-1,0,-1,-1
41759136368,2,9,10,-1,-1,-1,1,-3
41759145313,-1,0,8,-1,-2,-1,-3,-1
41759145313,-2,-5,-10,1,1,0,-1,-1
41759158854,0,0,-2,-7,-6,-1,-1,0
41759158854,-1,-4,-7,2,0,0,0,-1
41759167801,-3,-4,-7,-3,0,-1,0,-2
41759167801,-2,-4,-5,1,-1,0,-1,-1
41759181270,0,4,5,-4,2,-2,-2,-2
41759181270,0,0,8,5,1,1,-2,0
41759190311,-1,-4,-18,-2,-6,-3,-1,-1
41759190311,-1,-1,0,-8,-4,-3,0,-1
41759196400,0,2,-2,-1,-4,-1,0,1
41759196400,-1,-6,-9,3,2,-1,-1,-1
41759205341,-2,-2,8,-5,0,1,-1,-1
41759205341,0,-5,-14,0,4,1,-1,-1
41759218850,2,2,15,4,-9,-6,-2,-1
41759218850,-3,-5,-8,-1,1,-1,0,-2
41759227859,-1,-4,-1,-9,1,2,0,-2
41759227859,-2,-4,-14,6,-4,-5,0,-2
41759241367,-1,0,6,-1,2,-1,-1,-1
41759241367,-1,0,8,-1,-3,0,-1,-1
41759250291,0,1,-8,1,-1,-1,-1,0
41759250291,1,3,30,6,0,-1,0,1
41759256254,-1,0,-9,-6,-1,0,-2,0
41759256254,-1,-3,-5,2,0,-1,-1,-1
41759265292,1,-1,-12,-16,-6,-1,0,-2
41759265292,-1,3,8,12,9,-3,0,-1
41759278861,-4,-8,-17,-3,-3,-2,-1,-3
41759278861,-1,-1,2,0,-1,0,-2,-2
41759287837,2,7,37,11,0,-2,1,-1
41759287837,1,3,1,-8,-5,1,0,0
41759301382,0,-5,-3,1,2,-2,-1,-2
41759301382,-1,-4,-11,-6,0,-4,-1,0
41759310284,-2,-7,-12,10,-1,-4,-2,-2
41759310284,-2,2,19,-4,-4,-1,0,-1
41759316290,0,4,2,-6,0,2,0,2
41759316290,-1,-4,-3,-1,-1,2,1,-3
41759325352,-1,-1,-5,2,-2,-2,1,-1
41759325352,1,-6,-18,-8,0,-1,-3,-1
41759338812,-1,-1,6,2,-5,-2,-3,-1
41759338812,-2,1,0,-2,-2,1,0,0
41759347824,-1,-1,2,1,-2,0,-1,1
41759347824,-2,-1,-8,0,3,2,-1,-1
41759361383,-3,-4,-2,-5,-7,-2,-1,-3
41759361383,2,2,3,3,8,-4,1,2
41759370340,-1,0,2,0,1,-2,-2,-1
41759370340,-1,0,-7,-7,-4,-1,-1,-2
41759376412,-1,0,3,-2,2,-3,0,0
41759376412,-2,0,1,2,-5,-1,-1,-1
41759385285,-1,0,-5,-3,-3,5,1,-1
41759385285,-4,-5,-8,1,4,-5,-3,-1
41759398829,0,1,5,1,-2,-7,-1,-1
41759398829,0,-1,0,-2,2,-2,-1,0
41759407799,1,1,0,0,0,-1,0,2
41759407799,-2,-2,-5,2,-5,0,-2,-1
41759421335,0,1,3,5,5,2,0,0
41759421335,-3,-3,-7,-6,-11,-6,-6,-4
41759430267,0,-1,9,3,3,0,0,-2
41759430267,-1,-2,-5,-3,-2,0,-1,-1
41759445275,-2,-4,-9,0,3,3,1,1
41759445275,1,0,-5,-11,-10,-2,-1,0
41759446781,-2,-6,-9,12,12,-1,-3,-1
41759446781,2,9,27,-1,-6,-5,-1,0
41759458836,-3,-2,-7,-1,2,-1,-2,-22
41759458836,-2,-6,-14,-1,-2,-1,-1,20
41759467827,8,4,8,-21,-14,-3,0,6
41759467827,0,-3,-10,14,5,1,1,1
41759481218,-2,-3,2,-1,1,-1,-3,-1
41759481218,-3,-7,-33,-9,-2,1,1,-8
41759490238,-2,6,29,2,-5,-4,-3,-4
41759490238,0,6,15,-17,-11,5,0,3
41759505112,3,3,1,-6,-3,-4,-2,2
41759505112,-2,-3,2,8,7,3,0,-3
41759506721,-4,-9,-26,3,7,4,1,-1
41759506721,-7,-17,-52,-20,-13,-2,-4,-7
41759518768,5,10,51,17,15,5,2,5
41759518768,5,16,39,10,14,1,0,0
41759527746,-6,-4,-38,-31,-19,-6,-5,-14
41759527746,5,3,23,23,19,-1,3,14
41759541287,1,-2,-19,-3,-5,2,2,6
41759541287,-4,-8,-10,-19,-6,-2,0,-2
41759550233,-2,-2,-19,13,-2,-6,-3,-3
41759550233,-3,3,30,25,-3,1,-4,-8
41759565097,0,-2,-6,-9,-8,-8,-2,6
41759565097,-2,1,0,9,7,-2,-2,-3
41759566694,-7,-8,5,-8,-5,1,-1,-5
41759566694,-5,-15,-48,-18,3,-2,-3,-5
41759578874,4,11,39,15,-2,-1,2,5
41759578874,0,-5,-29,0,-8,2,-1,-3
41759587837,-3,-6,-4,-32,6,-2,-2,1
41759587837,1,10,18,-3,0,-2,0,2
41759601274,-2,-5,-23,-1,-1,1,-1,-3
41759601274,-3,-6,-4,-4,-6,-3,-1,-11
41759610362,0,-15,-27,2,-1,-2,-1,16
41759610362,2,11,15,-6,-5,1,0,-4
41759625204,-6,-6,-8,-21,3,-2,-3,-3
41759625204,1,-3,2,9,-4,1,-1,2
41759626747,0,5,24,33,13,2,1,-2
41759626747,-4,-7,-14,-16,-5,0,0,-4
41759638789,-1,-4,-19,-7,-2,1,-2,-1
41759638789,-1,0,8,-2,-6,-4,-1,0
41759647869,2,5,11,0,-1,-2,-3,-2
41759647869,0,-3,-5,-3,-1,-3,-2,-1
41759661366,-3,-6,-15,-1,-8,-1,-2,-2
41759661366,0,2,8,-17,-4,-3,-2,2
41759670343,0,2,-18,8,5,2,0,1
41759670343,-3,-8,14,7,-4,-3,-2,-3
41759685141,2,8,29,7,-6,0,0,2
41759685141,-3,-3,-5,2,6,5,0,0
41759686747,0,3,3,-13,-11,-4,-1,-1
41759686747,-1,-6,-23,2,5,0,-1,-1
41759706792,0,-5,-11,-6,-4,-1,0,4
41759706792,-1,3,10,-3,-2,-1,-1,-2
41759715346,0,-1,-4,5,9,2,0,-2
41759715346,-1,-1,-5,15,1,1,-2,-1
41759721372,1,3,6,-16,-2,1,1,0
41759721372,1,0,-1,8,4,-2,0,-1
41759730369,1,0,5,-9,-8,-2,0,-1
41759730369,-1,0,-1,-4,1,-3,0,0
41759745228,-4,-7,-25,-2,-2,-2,-1,-3
41759745228,-2,-2,13,7,-1,-4,-2,0
41759746751,-1,2,7,5,-2,0,0,-1
41759746751,-1,-2,-1,-7,-1,-1,-2,1
41759758921,-1,-4,-10,2,-1,1,-1,-2
41759758921,1,-1,-3,-6,-2,0,0,1
41759767795,-2,0,6,6,4,1,0,-1
41759767795,1,-4,-8,-13,-8,-3,-1,0
41759781281,-1,1,-17,-4,2,-2,0,0
41759781281,-2,1,9,7,-4,-2,-1,-2
41759790241,0,1,5,-9,-3,0,0,1
41759790241,0,-3,-18,2,1,-1,-2,-3
41759805090,-3,-1,35,7,3,1,-2,-2
41759805090,3,1,-5,-12,-3,-1,-2,1
41759806683,0,-1,-10,-7,-2,-2,-2,1
41759806683,1,-1,-13,9,5,1,0,1
41759818736,-3,-3,3,10,-1,-1,0,0
41759818736,-2,0,2,-7,-5,4,2,0
41759827766,-1,-5,1,-5,-3,-4,-3,-2
41759827766,-1,-2,-1,-4,-3,-1,-1,-1
41759841256,-1,-2,-13,-3,1,0,-1,-2
41759841256,-2,-3,1,1,1,0,0,-3
41759850259,-2,-2,-6,-1,-2,2,0,-3
41759850259,-1,2,12,-6,-6,2,-1,-1
41759865162,2,2,-7,-3,-6,-2,0,0
41759865162,-2,-2,-3,0,2,-3,-3,-2
41759866734,-2,-3,4,7,3,0,-1,-1
41759866734,-1,2,-4,-3,1,-1,0,-1
41759878721,2,1,4,-4,-4,-3,-2,0
41759878721,-1,0,-5,0,1,0,0,-1
41759887740,-1,-2,-6,-1,1,-1,1,-2
41759887740,-3,0,8,10,-3,0,1,-1
41759901315,-3,-5,-8,-11,-6,-1,-2,-3
41759901315,0,-3,-2,3,0,-1,-2,-2
41759910338,-1,-2,-2,0,-1,0,-2,-1
41759910338,-4,-11,-47,-12,-3,0,-3,-2
41759925198,3,18,86,18,6,-1,-1,0
41759925198,-2,-4,-3,0,1,-3,0,-3
41759926774,-2,3,1,2,0,1,1,1
41759926774,-1,-6,-9,-6,-4,-4,-1,0
41759938815,-1,-2,-20,-3,-1,0,-1,-1
41759938815,-1,-2,-5,-5,0,0,-2,0
41759947746,0,1,9,5,-2,-2,-1,-2
41759947746,-1,-1,1,-4,1,0,-2,0
41759961292,-4,-8,-22,-8,2,0,0,-2
41759961292,0,3,10,16,4,-1,-1,-1
41759970369,2,1,-4,-3,-4,-2,-1,0
41759970369,-1,-1,12,0,2,1,0,0
41759985229,-4,-8,-13,-9,-3,-1,-1,-2
41759985229,0,2,3,9,-3,-2,-2,-1
41759986842,0,0,-3,-5,-2,-2,-1,1
41759986842,0,1,9,9,2,0,-1,-1
41759998865,0,-2,-6,-1,2,2,0,-2
41759998865,-1,-4,-12,-17,-11,-5,-1,-2
41760007796,-3,-5,-1,2,2,0,-1,-4
41760007796,3,6,13,-2,0,-3,0,-1
41760021372,-2,-3,-13,6,4,-1,-2,0
41760021372,-4,-8,-19,-11,-2,0,-2,-1
41760030282,5,15,23,9,2,0,1,1
41760030282,-3,-4,-4,-30,-6,-1,0,-4
41760045179,-2,-5,2,29,4,-2,-2,-2
41760045179,1,-1,-3,2,3,-2,0,-1
41760046761,-2,-4,-1,-2,-6,-3,1,0
41760046761,-2,-1,-16,-9,-1,-1,-2,-2
41760058842,-1,-2,-3,-9,-6,-2,-1,-1
41760058842,-2,-1,6,-4,-1,-1,-1,-2
41760067838,1,-1,-10,3,2,-1,-1,2
41760067838,2,1,12,4,-2,-2,0,1
41760081322,-3,-5,-11,-8,-9,-4,-1,0
41760081322,-1,0,0,2,0,-1,0,0
41760090368,0,-2,-1,-5,5,3,1,-1
41760090368,-3,-1,4,3,-4,-4,-2,-2
41760105190,0,0,-12,-3,0,1,0,-2
41760105190,1,1,-3,-4,1,-1,-2,1
41760106755,-4,-4,-1,2,-2,0,-1,-2
41760106755,-1,-5,-5,3,1,-1,-1,1
41760118766,-1,2,-1,-13,-3,-1,-1,-1
41760118766,-1,-1,4,15,5,-1,-1,-1
41760127773,1,2,-4,-4,-3,-3,-1,-1
41760127773,-2,-5,3,-6,-4,0,-1,-2
41760141365,-1,-3,-9,-18,-9,-1,-1,-1
41760141365,-1,-2,4,-1,0,0,-2,0
41760150298,-3,-4,-8,-1,-2,-4,-2,-1
41760150298,1,3,6,7,3,1,0,0
41760164522,1,0,3,8,5,0,-1,-2
41760164522,-1,-2,-11,-8,-4,-1,-1,-2
41760171348,-3,-4,6,2,-1,-2,-3,-1
41760171348,1,8,14,5,2,1,-1,1
41760178827,0,-3,-1,1,-3,-1,0,-1
41760178827,-1,-3,-3,0,-1,-3,-2,-2
41760187873,-3,-4,-8,-9,-4,0,-3,-1
41760187873,-1,-4,-4,-3,-1,0,0,1
41760201410,-1,-1,-1,2,0,0,-1,1
41760201410,-1,0,-3,7,0,0,1,-1
41760216338,1,6,6,-8,-2,-1,1,-1
41760216338,-1,-5,-21,-24,-6,-1,-3,-2
41760224498,0,-2,18,33,7,-2,-1,-1
41760224498,0,-1,-2,-9,-3,0,1,0
41760231306,-1,-4,-4,14,4,-1,-2,0
41760231306,-3,-3,-24,3,3,0,0,-2
41760238813,-1,0,-10,-28,-12,-3,-1,-1
41760238813,0,1,7,-6,-3,0,-1,2
41760253801,1,-1,-6,-6,-1,-1,-1,0
41760253801,1,4,11,12,1,-3,0,0
41760261336,-2,-6,-14,-5,-2,-1,-3,0
41760261336,-1,-2,1,1,2,-1,0,-1
41760270443,-2,-2,5,8,0,-2,-1,-2
41760270443,-1,-1,2,-5,1,-1,0,-3
41760284553,3,6,6,17,1,1,1,-1
41760284553,0,-1,-10,-21,-7,-1,0,-1
41760291358,-3,-2,3,14,3,-1,-2,-2
41760291358,-1,-1,11,2,0,0,-2,-2
41760307764,-2,-2,-6,-6,2,-1,-1,-2
41760307764,-3,-3,-8,-1,-6,-1,0,-2
41760309273,0,1,1,-9,-6,0,0,0
41760309273,-2,-2,1,4,-2,-2,-2,0
41760321332,-1,-2,-3,0,2,-1,0,1
41760321332,0,0,-4,3,1,0,0,0
41760330405,-4,-13,-20,-6,-4,-2,-2,-3
41760330405,5,22,45,-6,-5,-1,0,1
41760344508,-1,-2,-9,6,1,-2,0,0
41760344508,-1,2,8,7,3,0,-1,0
41760351288,0,-2,-4,4,1,-1,-2,-1
41760351288,-4,-11,-22,-2,-4,0,-1,-3
41760367602,-3,-1,14,12,-4,-3,-2,-1
41760367602,-1,-1,2,-34,-4,-1,-1,-1
41760369219,2,5,-5,3,0,1,1,0
41760369219,-1,-5,-25,-5,1,-2,-1,-2
41760381258,0,11,41,4,2,1,0,0
41760381258,-3,-4,-7,17,-2,-2,-3,-1
41760390270,-2,0,1,-14,-4,-2,-1,-1
41760390270,-1,-5,-5,17,4,-1,1,-1
41760404498,-3,-8,-16,-30,-6,0,-1,-3
41760404498,2,5,15,39,13,1,-1,1
41760411266,1,3,9,-6,-7,0,-1,2
41760411266,0,1,1,2,0,0,0,-1
41760427652,-3,-5,-11,-3,0,-1,-2,-2
41760427652,-2,-1,0,-11,-7,-1,-2,-3
41760429267,-2,-3,-6,-5,0,-2,-2,-3
41760429267,1,0,5,4,3,-1,-1,0
41760441298,0,-2,-6,22,1,1,-1,0
41760441298,0,0,-2,-22,-1,-1,-1,-1
41760450336,-1,-1,3,14,-2,-1,-1,-1
41760450336,-2,-1,1,-7,-4,0,-1,-1
41760464602,-2,-5,-9,5,4,-2,-2,-1
41760464602,1,2,2,1,-4,-2,0,-1
41760471365,-2,-7,-4,-5,3,0,-1,-1
41760471365,-2,-1,-2,-12,-12,-3,-3,-1
41760487711,0,0,-21,-10,0,-2,0,-1
41760487711,-1,2,29,6,-2,0,-1,0
41760489254,-2,2,-5,-5,1,0,-1,0
41760489254,-1,-6,-8,4,4,0,-1,0
41760501341,-3,-3,-3,-11,-3,-2,0,-3
41760501341,0,-1,-5,-2,-1,-1,0,-1
41760510270,-1,-2,-3,5,5,-1,-1,-1
41760510270,-1,0,0,-12,-6,0,-1,-2
41760524593,-1,1,-5,-1,-3,-2,1,-1
41760524593,-4,-7,-8,8,4,1,0,-3
41760531395,-1,-2,-1,-7,-9,-3,-2,-3
41760531395,2,4,3,4,4,1,2,1
41760547746,0,-2,-1,-8,-2,-1,-1,-1
41760547746,2,5,7,-5,-3,0,1,0
41760549329,-1,-3,-1,0,1,1,1,0
41760549329,-4,-3,-2,5,0,-2,-1,-2
41760561387,0,-5,-8,-2,-1,0,-1,-1
41760561387,-1,-1,3,5,-1,-1,0,2
41760570438,0,1,-3,-4,1,-1,0,-1
41760570438,0,-2,1,0,-1,1,-2,-1
41760584498,-2,-3,1,9,5,-1,0,-1
41760584498,-1,-2,-12,1,0,-2,-3,-1
41760591330,0,1,6,-16,-2,0,1,-2
41760591330,-4,-5,-2,2,-4,-2,-3,-3
41760607725,1,3,-1,1,-2,-1,-1,-1
41760607725,2,2,4,-10,-1,-1,0,-1
41760609322,0,0,1,4,-2,-1,1,1
41760609322,-1,-2,-6,2,0,-1,-1,1
41760630198,-3,-2,1,-5,-4,-1,-1,0
41760630198,-3,-7,-10,4,1,-1,-2,-3
41760631830,-1,-1,3,9,-10,-2,-1,-2
41760631830,1,3,5,-29,4,-2,0,1
41760644480,3,4,1,-6,-3,0,0,2
41760644480,-3,-2,-1,10,4,-1,-1,-1
41760651246,-1,-5,-4,-3,3,-2,-2,-2
41760651246,-1,-2,-1,3,-3,-2,-1,-2
41760667662,0,-1,-1,-5,0,-1,-1,0
41760667662,-1,-2,-4,0,-1,-1,0,-2
41760669246,0,0,4,-4,-1,-1,-2,-2
41760669246,-1,-1,0,17,3,-2,0,-1
41760681311,-5,-12,-14,-13,-5,-2,-2,-1
41760681311,0,11,27,-4,-5,0,0,1
41760690276,-1,0,-5,17,5,-1,-1,0
41760690276,0,1,12,-14,-6,0,1,-1
41760704456,-4,-5,-31,-6,2,0,-1,-3
41760704456,2,3,54,19,-2,0,0,0
41760711230,-1,0,-8,-9,0,-1,-1,-1
41760711230,0,-3,-3,2,0,-1,-1,-1
41760727624,-2,-6,-9,2,2,0,-2,-3
41760727624,-2,-6,-26,-10,-3,-1,-2,-1
41760729213,1,5,11,-9,-2,-1,0,0
41760729213,0,8,23,10,0,-2,0,0
41760741341,0,2,15,9,-1,0,-1,-1
41760741341,-3,-5,-19,-10,-1,-2,-3,-1
41760750347,-1,-3,-2,-1,-4,0,0,-2
41760750347,-3,-7,-16,-2,2,-1,-2,-1
41760764505,0,2,13,4,0,0,-1,-1
41760764505,0,-1,-7,16,5,1,0,0
41760771300,-2,-3,-8,-3,-1,-4,-1,-2
41760771300,0,-1,-2,-8,-2,-1,-1,-1
41760787777,-2,2,10,-5,-2,-3,0,0
41760787777,-1,-5,-18,-8,-3,-2,0,-2
41760789287,-1,-3,2,0,-2,-1,0,-1
41760789287,1,2,0,3,1,0,-1,-1
41760801361,1,2,6,2,-1,1,0,1
41760801361,-4,-6,-18,-11,-2,-2,-2,-1
41760810272,-2,2,7,2,-1,-1,-3,-1
41760810272,0,1,16,6,1,-1,-1,-2
41760824503,-3,-5,-10,-7,-1,0,-2,-1
41760824503,-1,-1,1,-10,-4,-1,-2,-1
41760831363,0,-2,-12,5,1,1,-2,-3
41760831363,-5,-15,-25,9,-2,-1,-2,-2
41760847682,3,12,15,-9,0,1,1,2
41760847682,2,3,17,-9,0,1,2,1
41760849313,-4,-10,-26,4,-2,-3,-2,-3
41760849313,2,11,22,-4,-4,-2,-1,-1
41760861439,-4,-9,-18,26,0,-1,-1,-3
41760861439,-6,-11,-28,-50,-5,-4,-3,-3
41760870305,2,-5,-27,-4,-1,-3,-1,2
41760870305,6,13,28,13,3,2,3,4
41760884568,-4,-9,-4,0,-1,-3,-1,-3
41760884568,-2,7,18,11,-3,-1,0,-2
41760891419,0,-3,7,-3,0,0,0,-2
41760891419,-2,-9,-16,-12,-1,3,1,-1
41760907717,2,-8,-17,-8,-2,-9,-6,-2
41760907717,-4,-8,-15,5,0,0,-3,0
41760909308,-5,-13,-25,-30,3,14,1,-5
41760909308,10,33,88,30,6,11,4,8
41760921365,-5,-28,-61,-8,-4,-33,-3,-1
41760921365,6,28,74,-10,-8,0,-5,-1
41760930315,0,7,20,15,-3,-9,0,0
41760930315,-6,-20,-56,-23,1,22,3,-3
41760944534,-1,3,20,7,-5,7,-1,-1
41760944534,-2,-12,-45,12,0,-15,-4,-2
41760951347,-4,-3,-10,-12,-11,-3,-4,-2
41760951347,-3,-9,11,18,19,3,-2,-3
41760967747,6,20,15,-9,0,15,3,4
41760967747,-4,-20,-92,-16,-1,-32,1,-3
41760969367,6,39,122,42,-5,7,1,3
41760969367,-8,-35,-123,-8,-9,-15,-7,-6
41760981404,11,42,101,2,4,12,4,5
41760981404,-1,-3,-7,13,4,12,3,0
41760990273,-2,-12,-25,-19,1,1,0,2
41760990273,-7,-8,-23,-9,-8,-12,-5,-5
41761004509,-5,-7,-7,6,6,1,-3,-3
41761004509,4,5,11,-29,-20,5,0,0
41761011268,3,4,6,-17,2,-4,4,2
41761011268,-1,1,12,-6,0,-7,-4,-1
41761027662,-4,-12,-35,-3,-2,-2,-2,-4
41761027662,-5,-4,6,54,8,5,-1,-2
41761029257,1,1,17,-21,-9,-5,-3,1
41761029257,0,1,-9,6,4,-6,-1,-3
41761041277,-2,-2,5,-10,6,5,2,1
41761041277,-3,-7,-21,23,-1,3,-1,0
41761050350,-2,4,8,-21,3,-2,-2,0
41761050350,2,5,21,54,1,-2,0,1
41761064488,-2,-2,-4,-94,-26,-7,-1,-3
41761064488,2,0,14,-19,12,5,-2,-2
41761071283,-3,-9,-26,15,-3,-1,0,-3
41761071283,-1,1,-3,-23,-3,-5,-1,-1
41761087656,-4,-6,-3,38,3,0,-3,-3
41761087656,-2,2,8,4,-4,0,1,-1
41761089283,-1,-3,-9,-8,3,2,3,-3
41761089283,-2,0,1,0,1,-2,0,0
41761101296,0,0,-3,11,-8,-2,-1,0
41761101296,-4,-2,8,2,8,0,-1,-2
41761110307,1,0,-16,-7,-2,-6,-2,1
41761110307,1,6,9,7,-4,4,11,2
41761124467,-1,0,1,1,-6,-4,-12,-4
41761124467,-1,-1,-1,2,1,-1,1,1
41761138910,-5,-6,-11,-9,-4,-6,-9,-2
41761138910,0,-1,0,4,1,1,6,-1
41761147102,-2,1,0,-1,1,3,-10,-3
41761147102,1,0,6,-19,1,-1,8,0
41761153808,-1,-3,-10,35,6,-4,-13,-1
41761153808,0,2,4,-41,-16,-4,-4,0
41761161413,-4,-7,-13,17,10,-5,3,-2
41761161413,-1,-2,-2,-13,-2,2,-3,-2
41761170273,1,3,5,0,-3,0,3,0
41761170273,-1,1,1,-5,6,-1,-4,-1
41761184561,0,-2,-2,27,3,0,4,-2
41761184561,-2,-1,-1,-3,-8,-2,1,-1
41761191385,2,0,-1,14,5,-4,-3,0
41761191385,-1,2,6,-34,-4,-5,0,0
41761207075,0,0,1,9,16,2,-10,-1
41761207075,-1,0,0,-19,-13,4,-3,0
41761213884,-3,-3,-5,17,7,-1,-11,-3
41761213884,-1,-3,-6,9,-3,7,20,0
41761221404,1,1,4,-7,-9,0,4,3
41761221404,1,-1,-7,-17,8,-4,0,0
41761230363,0,0,5,-1,-1,-1,-1,0
41761230363,0,0,-6,7,11,-6,3,0
41761244531,-3,-4,-6,-21,-12,-3,-36,-5
41761244531,0,1,2,-17,-9,-2,-37,-1
41761251391,0,-1,0,51,4,2,25,3
41761251391,0,-2,-3,-20,-8,-4,-19,-3
41761267155,-2,0,4,14,25,17,26,-5
41761267155,-2,-1,-2,4,-13,-9,-1,-3
41761273925,-1,-2,-11,-48,-10,5,10,1
41761273925,-1,-1,3,-4,-5,0,4,2
41761290295,-2,-3,-4,2,1,-9,-15,-1
41761290295,3,3,2,38,3,-2,-4,-1
41761291798,-3,-5,-5,-20,13,-1,5,-1
41761291798,-2,-4,-6,-8,-8,-4,-3,-1
41761304562,1,2,6,29,-3,4,30,3
41761304562,-6,-7,-10,-30,7,-2,-24,-6
41761311422,1,2,7,-8,-14,-7,5,-1
41761311422,1,1,-3,12,5,-3,-12,-2
41761326972,-1,-1,0,23,6,-4,0,2
41761326972,-1,-1,0,-16,0,2,11,1
41761333891,-3,-3,-5,1,-8,7,13,0
41761333891,-3,0,6,5,-21,-10,-17,-5
41761350230,1,2,-8,-14,13,-6,-3,-1
41761350230,0,0,7,21,7,-1,8,2
41761351798,0,0,-1,-20,-22,-5,-7,-4
41761351798,-1,-4,-2,17,7,4,9,0
41761364537,0,1,-1,-17,6,-11,0,1
41761364537,-1,-2,-4,3,-17,-4,5,-2
41761371367,-1,-3,-1,-2,14,0,-8,-2
41761371367,0,2,1,-8,-7,0,-3,0
41761387037,-2,-5,-5,3,-17,0,-7,-2
41761387037,-1,3,8,2,4,0,10,-1
41761393903,-1,-1,-4,-1,12,-1,-6,0
41761393903,-3,-5,-4,33,3,1,-3,-5
41761410231,-4,-4,-4,-55,-14,-1,1,-4
41761410231,2,4,6,8,4,-1,7,1
41761411830,-2,-2,-8,13,10,3,-4,-1
41761411830,1,0,-5,-21,-11,-7,-2,1
41761425334,-1,3,7,17,-9,4,9,3
41761425334,0,-2,-6,-26,-3,0,-21,-1
41761432999,-2,-5,2,34,28,-15,7,-1
41761432999,-2,-1,-3,-16,-13,1,-5,-3
41761447018,-2,-3,0,2,-1,-4,2,-1
41761447018,0,1,3,39,49,1,5,-1
41761453857,-1,-1,-2,-45,-11,0,-8,-1
41761453857,0,-1,-3,12,12,-3,-2,0
41761470249,1,-1,-5,-29,-12,-2,-1,1
41761470249,-2,0,9,43,-11,-4,-2,-2
41761471813,0,0,0,5,19,2,-6,-1
41761471813,-2,-3,-2,-13,-29,5,6,-1
41761484693,-2,-2,-1,2,10,2,-2,-2
41761484693,-1,-1,-2,-6,2,-5,4,0
41761491447,0,1,-2,-11,-17,-1,-2,-2
41761491447,0,-1,-3,1,1,-1,0,1
41761507135,-1,-2,0,14,-18,-5,-2,-2
41761507135,-1,0,0,-5,-30,0,5,0
41761513911,-5,-5,-6,21,52,2,-8,-4
41761513911,-1,0,1,15,24,2,-3,-1
41761530213,1,1,1,-5,-14,6,3,1
41761530213,1,2,0,-27,-13,-1,4,2
41761531834,-1,0,3,8,-28,-1,-2,0
41761531834,-4,-3,1,-1,0,-4,-3,-4
41761543879,-3,-4,-3,-20,9,2,-2,-2
41761543879,-1,-5,-3,25,29,-7,-1,-3
41761552880,3,2,1,-9,-10,-2,-4,0
41761552880,0,3,5,2,18,3,1,0
41761568547,0,-2,-2,-3,-12,-7,0,-1
41761568547,-3,-2,-3,-4,-1,2,1,-2
41761574001,-1,-2,-1,-22,-25,-1,-3,-4
41761574001,-4,-8,-9,5,9,-1,-1,-1
41761590152,-1,-4,-11,-11,3,-2,-2,-1
41761590152,4,11,5,-4,-10,4,2,2
41761591768,3,6,4,7,-26,-2,0,3
41761591768,-1,1,-3,-29,-15,-3,-1,0
41761603915,-4,-4,0,47,1,-2,-2,-3
41761603915,-6,-8,-4,-28,-6,2,1,-1
41761612875,-3,-3,-2,-9,21,2,-3,-1
41761612875,1,0,3,0,8,-2,-1,-1
41761627106,1,1,-1,2,4,-3,-5,-1
41761627106,-1,-1,-2,7,-11,-1,-2,-2
41761633907,1,4,6,14,6,-10,-4,1
41761633907,-2,-5,-4,-6,10,9,7,0
41761650246,-1,1,1,-2,4,-3,-2,-2
41761650246,1,-1,-3,4,6,10,6,0
41761651812,-1,-4,-5,-5,1,2,-5,0
41761651812,-1,0,-2,-6,4,-6,10,-5
41761663819,4,5,8,14,-4,5,11,6
41761663819,-1,-7,-8,-10,-3,-1,-32,-3
41761672892,-1,0,0,11,1,3,5,-1
41761672892,-1,0,0,-19,-1,-5,-11,1
41761687064,-2,1,5,39,25,5,6,-2
41761687064,-2,-5,-17,-41,7,-3,10,-3
41761693873,-1,-4,-1,-12,-20,-3,-5,1
41761693873,-2,2,4,15,28,-8,-4,0
41761710208,-3,-3,0,-15,4,-1,-5,-4
41761710208,0,-2,2,-19,-20,-3,-1,-1
41761711809,-6,-10,-7,30,15,-3,0,-3
41761711809,1,9,3,-28,-22,1,-1,-1
41761723945,0,1,0,-9,4,-1,-3,-1
41761723945,-1,-2,4,3,-24,5,6,1
41761732889,0,-2,-2,-15,-17,8,4,-2
41761732889,-1,-4,-4,11,-20,-7,-3,-1
41761747138,0,0,1,-2,-17,-1,-6,0
41761747138,-2,2,0,8,39,3,3,0
41761753958,-1,-2,-4,3,-4,-12,-5,-2
41761753958,1,-2,2,16,-16,-10,-9,-2
41761770195,-1,0,-4,-13,-2,0,14,-3
41761770195,-1,-6,-6,2,-56,-15,0,-1
41761771836,-1,0,0,-4,14,-1,-1,-2
41761771836,3,5,8,3,-1,2,-12,0
41761794177,-2,-2,-5,-11,-19,-10,-13,0
41761794177,-2,-3,0,13,16,6,24,-3
41761795766,-2,-4,-3,-5,1,7,3,-1
41761795766,0,-3,-2,8,-11,-3,3,1
41761807102,-1,-4,-6,-1,3,3,-5,-2
41761807102,0,-2,1,15,0,3,3,1
41761813891,0,2,-4,-12,-21,-9,1,0
41761813891,-1,-1,-3,-2,16,-2,-15,1
41761830249,-1,0,-3,-6,0,3,-14,-1
41761830249,-1,3,5,9,13,3,-6,-1
41761831780,0,0,1,-15,-17,2,6,0
41761831780,-3,-5,-9,2,3,3,2,-3
41761843925,0,-3,-1,-14,11,-6,15,6
41761843925,-1,2,2,-3,-16,-6,-4,-1
41761852835,0,0,6,26,19,1,-9,-6
41761852835,1,0,-1,-2,-15,-7,10,5
41761867072,-2,-5,-9,-22,-33,-1,0,-3
41761867072,-1,-3,-5,-6,63,5,-3,-1
41761873917,2,4,7,11,-48,4,0,-1
41761873917,-3,-3,-2,-12,18,10,1,-2
41761890230,0,-1,-4,1,-6,6,5,-2
41761890230,0,0,1,0,-9,-3,-5,0
41761891878,-2,0,-1,6,25,2,1,3
41761891878,-3,-3,-3,-6,-21,7,2,-3
41761903792,-3,0,-1,-10,7,-2,-6,-3
41761903792,1,4,0,8,-5,-3,-2,0
41761912833,-1,1,2,5,5,1,-2,-1
41761912833,-1,-3,-10,-4,-2,0,8,0
41761927039,-1,-4,-5,-1,3,-2,4,-2
41761927039,-2,-4,1,13,1,-7,-9,-3
41761933879,0,-2,-4,-9,-14,5,-2,-2
41761933879,-2,-1,2,-2,2,1,2,-1
41761950266,0,3,3,7,4,-8,-5,0
41761950266,-3,-2,0,-1,-3,-4,-3,-2
41761951809,-1,0,0,-12,5,-2,2,-2
41761951809,0,2,2,7,5,-13,-16,0
41761963935,-1,-3,-1,5,-25,13,25,1
41761963935,-1,-2,-3,-2,0,-11,8,1
41761972824,-3,-2,-1,-6,17,-3,-49,-3
41761972824,0,-1,3,0,-3,2,20,0
41761987107,-1,1,3,4,-4,-8,-18,-1
41761987107,-1,-2,-2,-7,-11,3,9,0
41761993911,-1,-2,-5,-1,-5,-1,16,0
41761993911,0,0,1,3,-3,-1,-6,-3
41762010262,-2,-1,-7,-11,-2,-4,-7,-1
41762010262,0,-1,1,3,-7,0,10,2
41762011819,-2,-2,-5,-6,-4,-2,-20,-4
41762011819,-1,0,1,3,22,10,-3,0
41762023776,-2,-5,-3,7,8,-1,5,0
41762023776,-2,-5,-4,-10,-25,1,-9,-3
41762032793,0,1,2,3,-8,1,11,1
41762032793,-1,-4,-1,-15,35,1,2,-4
41762047022,-1,-2,2,4,1,-2,-8,-3
41762047022,0,0,-2,5,-12,0,-2,1
41762061382,1,-3,0,-5,-9,3,7,1
41762061382,-3,-2,-7,-20,-6,5,3,-4
41762069468,1,0,4,14,5,0,-3,-1
41762069468,2,0,0,-7,8,-4,-11,-1
41762076370,-4,-4,-1,10,-7,3,16,1
41762076370,-3,-1,-1,3,6,-4,-15,-3
41762083870,-3,0,-1,-5,-9,-1,6,0
41762083870,0,2,2,5,27,3,-13,-1
41762092794,1,2,2,-11,6,-1,3,-1
41762092794,-1,0,-1,21,-20,-1,-1,1
41762106993,-1,-1,-1,-4,19,0,0,0
41762106993,1,-1,0,1,6,3,-1,-2
41762113768,-2,0,-4,2,-2,-6,0,0
41762113768,-3,-4,-2,-3,-13,-2,10,0
41762129496,-1,0,-2,-2,3,-3,-21,-3
41762129496,-2,-1,-2,-2,1,4,13,-2
41762136391,-1,-2,-2,-5,3,3,26,2
41762136391,1,-2,0,0,-11,-15,-46,-1
41762143854,1,2,2,5,12,8,0,-3
41762143854,-4,-2,-4,-3,0,-1,12,1
41762152867,1,0,0,-7,7,0,-13,-2
41762152867,0,-4,-3,-1,-25,1,9,-1
41762167120,-1,-1,1,1,38,-4,1,0
41762167120,-2,-3,-4,-2,19,0,-10,-2
41762173889,-1,1,-1,-5,-10,-4,3,0
41762173889,1,2,3,15,1,2,7,-1
41762189657,0,-5,-4,-6,-13,-4,-4,0
41762189657,-1,-1,-1,-4,-20,1,2,-2
41762204335,-1,-2,-2,-3,-1,-10,-6,-1
41762204335,0,-1,-1,-10,4,0,4,-2
41762212801,-1,-3,-6,-6,-17,-1,0,0
41762212801,-1,-2,0,0,-10,-7,-5,-1
41762214401,0,-2,-4,3,-19,-6,-5,-2
41762214401,1,0,1,-1,19,-3,-2,0
41762227051,1,-2,0,2,-2,1,21,2
41762227051,-2,-1,1,-2,-11,-9,-9,-1
41762233887,-1,-1,-3,-1,3,3,0,0
41762233887,-3,-1,0,-2,-5,2,5,-2
41762249522,0,2,2,6,-4,-4,-5,0
41762249522,1,0,-1,-6,-5,-7,-2,-1
41762256316,-4,-3,-1,2,5,2,-1,-2
41762256316,-2,-1,-2,0,-14,-3,0,0
41762272677,-2,-4,-3,-8,-1,2,-1,-1
41762272677,-2,-1,-2,0,-7,0,-2,-1
41762274348,1,2,2,-5,-11,-4,-6,-2
41762274348,-4,-6,-2,13,32,8,3,-2
41762287004,0,0,1,-5,-13,-6,-5,-2
41762287004,0,-4,-3,-2,-15,13,3,-2
41762293957,-2,-4,-4,-3,12,2,1,-1
41762293957,1,0,-2,-8,-9,-3,6,2
41762309594,-2,-1,0,3,-8,-5,-16,-3
41762309594,-1,1,-3,-1,5,1,6,0
41762316459,-1,-3,-1,-2,-8,-6,-2,0
41762316459,1,-1,-3,-7,-12,-8,-11,0
41762332719,-4,-4,-5,-6,-6,4,37,-6
41762332719,0,2,1,-2,-9,-9,-22,-2
41762334463,-2,-3,-6,-1,7,-11,-3,3
41762334463,-1,1,-1,-4,-17,-9,-6,-5
41762347102,0,1,1,-2,2,-1,-8,0
41762347102,-1,-2,-1,3,3,0,8,1
41762353885,0,1,2,1,-2,5,-2,1
41762353885,0,0,-1,-1,9,-2,-2,-1
41762369946,-1,0,0,-2,-3,-3,-6,0
41762369946,-2,-1,-3,-6,2,2,-2,-1
41762377797,-1,0,4,9,11,5,-3,-1
41762377797,-2,-1,-3,-5,-11,3,5,0
41762392642,0,0,1,0,5,1,-6,1
41762392642,-1,-2,-2,1,15,1,-4,1
41762394333,-1,-2,-2,-1,10,2,10,-1
41762394333,-1,1,-1,-3,12,5,-2,0
41762407047,-2,1,1,4,11,0,-3,-1
41762407047,-1,-2,-2,-3,-1,1,2,-3
41762413818,0,-1,0,-2,-1,1,10,-1
41762413818,-1,-1,0,0,-12,-7,-24,-3
41762429494,0,0,-1,-3,-9,-4,2,1
41762429494,-1,-3,-2,0,2,7,2,-2
41762436373,-2,0,-2,-2,-11,-18,-18,-4
41762436373,-3,-5,-3,-6,-25,0,2,0
41762452712,-3,-3,-3,0,15,-5,-1,-3
41762452712,0,1,0,0,1,-5,-4,0
41762454357,1,2,2,1,-3,-1,1,-2
41762454357,-2,-4,-4,-3,14,0,7,-2
41762467140,-1,-1,0,1,-5,-4,-12,1
41762467140,-1,-2,-2,-1,-12,-6,3,-2
41762473824,0,-4,-6,-3,15,13,5,-1
41762473824,0,-1,1,-2,-3,0,-1,-1
41762490952,1,1,-1,-1,-7,1,0,-1
41762490952,-1,0,-1,2,6,-6,0,2
41762496516,-1,0,2,2,-1,1,-5,-4
41762496516,-2,-5,-2,-2,-5,2,4,0
41762512786,1,-1,1,3,17,-8,0,-1
41762512786,0,1,-1,1,-5,-5,0,-1
41762514405,0,0,-2,-3,-8,-3,-6,-1
41762514405,0,1,-2,1,1,0,5,-1
41762527154,0,-1,-2,-3,-6,0,-2,-1
41762527154,0,-2,1,-2,-14,-2,1,-1
41762533807,-1,-3,-3,-2,2,-2,2,1
41762533807,-2,0,-1,-2,-8,2,6,-3
41762549653,0,0,0,0,0,3,4,0
41762549653,1,0,1,3,14,-6,-16,3
41762556493,-3,-2,-1,1,0,8,15,-4
41762556493,2,0,2,0,5,-4,-3,0
41762572760,0,-2,-1,1,0,-2,7,3
41762572760,-2,-2,0,0,-2,8,0,-7
41762574323,1,1,1,-2,-6,-15,-10,2
41762574323,-1,-1,-3,0,3,-4,8,-2
41762587141,0,0,-1,-2,-17,-2,-6,-3
41762587141,0,-2,-3,-2,4,-1,-1,-1
41762593827,-2,-2,-1,-2,-20,-2,-4,0
41762593827,0,-1,-1,-1,15,-1,4,0
41762609646,0,-3,0,-3,-13,-6,-16,-1
41762609646,-2,-1,-3,-3,-5,0,0,-1
41762616463,1,0,1,1,7,0,0,0
41762616463,1,3,0,1,-3,-1,-1,0
41762632765,-2,-3,-4,-2,-2,2,0,-1
41762632765,-1,0,0,0,7,4,13,0
41762634417,-2,1,-1,-1,-14,-10,-20,-5
41762634417,-2,-2,-1,-4,-7,4,7,0
41762647118,-1,0,0,-3,0,1,0,-2
41762647118,0,-1,2,0,3,-1,1,0
41762654008,-1,0,-2,-1,-2,2,1,0
41762654008,-1,-2,-2,0,-6,-2,-9,-1
41762669607,-1,1,-1,-1,-2,-4,-1,-1
41762669607,-1,-2,-2,-1,-8,-6,-5,-1
41762676394,0,0,0,0,4,1,-5,-2
41762676394,0,0,-1,4,12,1,-1,0
41762692809,-1,-1,-3,-1,4,4,3,-1
41762692809,-2,0,-1,-2,-11,-6,3,1
41762694327,-3,-2,-2,-3,1,0,-15,-5
41762694327,-2,0,1,-2,-5,0,-2,-1
41762707047,-2,-2,-2,3,10,-2,-2,-2
41762707047,-1,-3,-3,-5,-8,5,2,0
41762713883,0,-1,-1,-1,1,1,6,2
41762713883,0,-2,-2,-2,-13,4,1,0
41762730434,-2,-4,0,-1,-4,6,0,-1
41762730434,0,2,0,1,12,-4,-5,-2
41762736482,-1,0,0,2,8,-1,12,1
41762736482,-1,-1,0,1,6,-3,-4,-2
41762752045,0,-2,-3,-3,-11,3,2,0
41762752045,-1,-2,-2,-1,1,1,-3,-1
41762752796,-1,-1,-1,-2,-5,1,2,-2
41762752796,-1,-2,-2,1,6,-5,-5,-1
41762774517,-1,1,0,7,19,3,1,0
41762774517,-1,-2,-1,-6,-1,-1,0,-2
41762775286,0,0,0,4,4,1,-1,-2
41762775286,-1,-3,-4,-1,-8,1,1,-3
41762798470,1,-1,1,-3,0,-2,-2,-2
41762798470,-2,-3,0,14,-5,-3,-4,-2
41762799257,-2,-3,-6,-23,-7,0,2,0
41762799257,-2,-2,-3,-8,-1,-1,-2,-2
41762811957,-2,-1,-3,9,-1,1,0,-1
41762811957,-1,-3,1,-11,-7,-1,-1,-1
41762812783,1,6,-17,-6,9,-1,0,1
41762812783,-2,-4,-3,6,-12,-2,-2,-1
41762834583,-1,2,22,-5,35,-4,-4,-2
41762834583,-1,3,9,11,-3,2,0,0
41762835306,-2,2,11,-19,-10,-6,-4,-2
41762835306,-3,-8,-19,-9,-4,-1,-4,-2
41762850412,0,-3,-15,-3,-6,0,0,0
41762850412,1,-1,-1,8,-8,-3,-2,-1
41762856521,-2,0,2,22,14,0,-1,-2
41762856521,0,-2,-1,-5,-7,-2,0,-2
41762872074,-5,-7,-17,8,-2,-1,-1,-5
41762872074,0,2,6,-9,3,0,-2,1
41762872880,0,-3,-4,-13,-16,-1,0,-1
41762872880,2,11,18,11,-7,0,2,2
41762894551,-1,-1,-3,10,-8,-1,-1,1
41762894551,-2,-6,-8,11,29,8,2,-1
41762895360,1,6,11,-52,-21,-3,0,1
41762895360,-3,-5,-7,1,1,0,-2,-2
41762910375,-2,-5,-7,-21,-16,-3,-2,-1
41762910375,-3,-5,-16,25,4,-1,1,-1
41762916453,0,1,18,18,3,0,-2,-1
41762916453,2,2,0,-16,1,-1,-2,0
41762932088,1,4,17,9,-5,-2,0,-1
41762932088,-2,-4,-7,4,-5,0,-2,-2
41762932792,-5,-9,-16,6,6,-1,-2,-1
41762932792,-1,0,2,14,5,-6,-1,-3
41762954582,2,3,5,-38,-3,5,0,-1
41762954582,-1,0,4,-1,-16,-5,-2,0
41762955443,-3,-11,-13,1,9,2,-2,-3
41762955443,-3,-1,3,-6,4,-2,-2,-2
41762970429,-4,-6,-28,0,-9,-1,-1,-2
41762970429,6,22,57,4,8,0,4,2
41762976446,0,-4,-8,4,-8,0,-1,1
41762976446,-3,-1,3,-5,-9,-7,-3,-2
41762991517,0,-1,1,12,-2,1,-1,-1
41762991517,-3,-8,-25,-54,17,5,0,-1
41762998974,0,-1,4,60,11,-2,-1,-1
41762998974,-1,-3,0,-36,-20,-3,-2,-3
41763014626,-1,-2,-5,50,13,-3,-3,1
41763014626,0,-1,-11,-22,-8,-3,-1,0
41763015348,-1,-2,-2,5,-3,1,1,-3
41763015348,-1,-6,-5,6,13,2,-1,1
41763030385,3,6,10,-21,-12,-3,-1,2
41763030385,-3,-4,-11,6,-1,1,-1,-2
41763036425,0,-1,6,4,2,1,0,0
41763036425,-1,5,3,-4,-3,-1,-2,1
41763051411,-1,0,4,3,0,-2,-3,-4
41763051411,0,-4,-14,2,-10,-4,-1,-1
41763058806,0,3,11,-6,4,1,0,-1
41763058806,-2,-1,2,3,10,2,0,-1
41763074466,-1,2,10,-20,-16,-4,0,0
41763074466,-1,-1,-11,1,7,0,-1,-2
41763075264,0,-2,-8,-1,-2,-1,1,-1
41763075264,-3,0,6,1,3,-3,1,0
41763090354,-3,-9,-13,-24,-9,-2,-1,-3
41763090354,-6,-10,-10,9,-4,-6,-5,-5
41763096306,3,10,11,13,5,2,1,4
41763096306,2,-2,-7,8,4,0,-2,0
41763111390,0,3,3,2,-8,-3,-3,0
41763111390,-3,-5,1,-26,3,1,-2,-4
41763118810,-3,-8,-10,-13,4,0,-1,-1
41763118810,0,-6,-34,16,0,-2,-6,-2
41763134486,1,7,39,-27,-10,4,3,-1
41763134486,3,4,14,21,2,-3,0,2
41763135262,-4,-4,-17,-1,-11,-8,-3,-3
41763135262,-1,-3,0,-5,2,1,3,-1
41763150357,-1,-7,-25,14,10,-1,0,-1
41763150357,3,11,35,8,-7,1,-2,2
41763156370,1,3,-12,-19,-4,2,2,1
41763156370,-4,-4,-6,4,-1,-1,-1,-1
41763171435,-1,-4,-6,3,3,-1,-4,-3
41763171435,-2,-4,-11,-11,-5,0,-1,-2
41763178819,-1,1,2,1,-6,-3,-2,-3
41763178819,0,2,12,-5,0,0,0,-2
41763195998,0,-1,-8,15,4,-1,0,0
41763195998,-1,-3,-4,8,0,-3,-2,-1
41763196788,-1,-1,3,-15,-5,-2,-1,-1
41763196788,-1,4,12,34,8,-1,0,0
41763210488,-3,-3,-3,-13,2,-1,-1,0
41763210488,-6,-11,-10,-8,-3,-1,-1,-3
41763216503,1,2,-11,-16,3,1,0,1
41763216503,2,1,5,12,-20,-1,0,1
41763231457,0,7,16,-6,-4,-5,1,0
41763231457,1,7,-2,5,3,2,-2,1
41763238955,0,1,1,-11,-2,0,-1,-1
41763238955,-2,-7,-15,-9,11,2,1,1
41763254615,-3,-8,-17,-10,-3,-1,0,-2
41763254615,2,1,-4,18,-5,1,0,0
41763255400,-1,-1,13,3,0,-2,-5,-2
41763255400,0,1,1,-4,5,-2,-2,-1
41763278675,-3,-6,-7,-22,-12,-2,-2,-1
41763278675,0,0,3,-12,0,-3,0,0
41763279394,-3,-4,-5,7,-1,3,-2,-3
41763279394,0,-3,-5,-4,-7,2,-1,-3
41763291479,0,2,9,5,-13,-2,-1,0
41763291479,-1,-1,-7,15,12,-3,0,-4
41763298887,-1,-5,-11,-31,-10,-4,-1,0
41763298887,-2,2,8,-35,-13,-3,-1,-2
41763314574,0,0,-8,39,7,0,0,0
41763314574,2,4,10,-16,7,-2,-1,0
41763315361,-4,-7,-6,24,6,-1,0,-2
41763315361,-2,-2,0,10,1,-1,-2,-2
41763330377,-1,-5,-5,-5,-19,-5,-2,0
41763330377,-5,-8,-24,-12,1,-4,-1,-3
41763336491,0,2,29,38,11,1,-1,3
41763336491,-1,-1,-14,-41,-9,2,2,0
41763351417,0,2,5,3,14,-6,-5,-2
41763351417,0,-1,0,6,-11,-1,0,0
41763358909,-2,-4,-11,1,5,2,0,-1
41763358909,2,7,21,16,-5,-1,-1,-1
41763374684,-1,0,-5,-9,-11,0,-1,-3
41763374684,-4,-5,-4,-3,20,-2,-2,-3
41763375453,-1,1,-4,-28,-18,-2,0,-3
41763375453,1,3,-2,24,-16,-3,-2,3
41763390408,-2,-3,-4,-10,26,3,1,-1
41763390408,2,3,-10,6,-22,-3,0,2
41763396436,1,8,20,6,3,0,1,2
41763396436,-4,-7,-4,-8,3,-2,-3,-2
41763411436,-1,-1,2,0,-1,2,-1,-1
41763411436,-4,-6,-13,-11,-2,0,-2,-4
41763418908,1,-4,-10,12,-12,-3,0,-1
41763418908,1,3,2,-9,12,0,0,1
41763436033,-3,-4,-7,9,4,1,-1,0
41763436033,0,2,-1,1,-8,1,0,2
41763436886,-1,-2,3,-22,-5,-3,-3,-1
41763436886,-1,-6,-7,3,-6,-1,0,-3
41763450337,-1,-1,4,4,2,-1,0,-1
41763450337,0,1,6,-17,-20,0,1,-2
41763456355,-1,-3,-1,11,10,-2,-1,0
41763456355,-3,-4,-10,4,21,2,0,-1
41763471376,-1,0,1,-5,-11,-1,-1,0
41763471376,3,5,13,7,13,0,0,1
41763478865,3,6,-1,3,-7,0,0,1
41763478865,-3,-1,-4,-5,6,-2,0,-3
41763494541,-4,-5,-9,-11,-25,-5,0,-3
41763494541,0,0,4,-7,6,1,-1,-2
41763495365,-2,-5,-7,-5,10,0,-3,-2
41763495365,1,0,4,18,-2,-2,-3,0
41763510348,-3,-1,-5,1,-2,5,0,-1
41763510348,-3,-1,6,-10,2,-2,-1,-1
41763516454,-3,-5,-7,-40,-7,-2,-1,-2
41763516454,-1,-2,-4,24,-6,-1,0,-1
41763531473,4,6,6,5,9,-3,-1,2
41763531473,-1,-3,0,2,-4,-2,-2,-1
41763538988,-2,-2,-5,6,4,-1,-3,-1
41763538988,1,3,5,-31,-10,-2,0,0
41763556077,-1,-1,-2,26,28,4,0,-1
41763556077,-3,-4,-5,-1,-44,-6,-5,-2
41763556875,2,4,3,7,22,-1,-2,1
41763556875,-2,-1,-6,-13,-3,-3,-2,-2
41763570422,1,0,4,0,-10,1,0,-2
41763570422,1,-3,-3,2,22,3,1,0
41763576445,-4,-6,-7,1,-24,-4,-3,-3
41763576445,-2,2,-3,-5,17,1,1,-2
41763591442,2,6,18,1,-2,-2,-3,1
41763591442,-2,-5,-1,19,2,-1,-3,-1
41763598894,-2,-3,-1,-15,-10,-3,0,-2
41763598894,1,0,4,7,-2,0,-1,1
41763614675,-2,-7,-19,-1,3,-1,-1,-1
41763614675,0,0,8,4,-12,-2,-2,0
41763615441,0,-1,7,7,4,1,1,-2
41763615441,-2,0,4,-1,7,-1,0,-1
41763630511,-2,1,-6,-19,-17,-1,-1,-1
41763630511,0,0,-4,3,39,1,-1,0
41763636479,-2,-3,-4,-12,-15,-2,0,-2
41763636479,-2,-9,-10,20,13,0,-2,-4
41763651509,1,2,7,-17,-11,-3,-1,3
41763651509,-1,-1,-8,9,-5,-4,-1,0
41763658953,0,7,8,-9,-5,-2,-1,0
41763658953,0,0,0,-5,-11,2,-2,-1
41763674561,-3,-5,-3,5,8,-1,-2,-3
41763674561,-3,-4,-3,-1,-2,-4,-2,-3
41763675381,0,0,-4,11,-5,-3,1,1
41763675381,0,3,10,-4,4,-1,0,1
41763690437,-2,-3,-2,3,0,-1,-1,-2
41763690437,-4,-2,-1,-17,-21,-2,1,-1
41763696477,-3,-7,-8,4,3,3,-1,-2
41763696477,0,1,2,-3,-5,-5,-1,1
41763711453,-1,0,2,12,8,0,2,0
41763711453,1,-1,-3,-17,-4,-2,0,-1
41763718901,-2,-4,-3,1,4,-1,-2,-2
41763718901,-1,-2,1,-1,-15,0,-1,0
41763734540,3,8,1,-30,-3,0,-1,0
41763734540,-1,-6,-3,31,5,1,0,2
41763735304,-2,-3,-4,-1,-18,-1,-2,-2
41763735304,-1,-2,-8,-13,5,1,-2,-2
41763750363,1,0,6,20,6,-3,0,-1
41763750363,-1,2,1,-10,-1,3,-2,-1
41763756352,-2,-1,-4,-8,1,-6,-2,-1
41763756352,-2,0,0,20,3,-1,-1,-1
41763771359,2,0,0,-2,0,-1,1,2
41763771359,0,4,2,-19,-4,1,-1,-1
41763778820,-1,-2,-1,14,1,0,0,0
41763778820,0,2,2,-7,8,-2,-1,-1
41763794605,-2,-3,-4,-2,-9,-3,-2,-3
41763794605,-1,-3,-3,-5,-2,-1,-2,-1
41763795464,2,4,7,2,3,-1,0,0
41763795464,-2,-3,-2,0,7,-1,-1,-1
41763810460,-3,-6,-10,-7,-4,3,-3,-2
41763810460,-3,0,3,10,6,-2,2,-1
41763816447,-1,-3,-2,6,1,-2,1,-2
41763816447,-2,-3,-3,-20,-25,-1,-1,-2
41763831445,0,0,4,12,0,-2,1,-2
41763831445,1,1,-3,-14,4,5,-1,0
41763838981,-2,0,2,18,3,2,-2,-1
41763838981,-1,-1,-2,-24,-5,6,-1,-1
41763854609,-2,-2,-4,-6,3,-11,-1,-1
41763854609,0,1,3,-18,-6,-3,-2,-1
41763855469,0,0,5,30,9,2,0,-1
41763855469,0,-1,-14,-15,-8,1,1,1
41763878556,0,0,7,22,3,1,-3,-1
41763878556,-2,-3,-3,-7,-4,-2,-1,0
41763879414,-2,-1,-2,-5,2,-2,-1,0
41763879414,-1,-1,1,5,3,-4,-1,-3
41763891461,1,1,-1,-16,-8,-2,-4,2
41763891461,-1,-2,-1,19,-3,-2,-1,-3
41763898959,0,-2,-4,-9,-9,-2,-2,-2
41763898959,-1,-1,1,8,5,-6,-1,-1
41763914535,-2,-4,-9,-29,-4,-8,-1,-1
41763914535,-1,0,5,36,-9,-2,-3,-2
41763915376,-3,-1,-13,-31,-5,0,-1,-3
41763915376,-1,0,5,-12,-11,0,-1,-1
41763930447,0,0,-1,16,12,2,1,-3
41763930447,-1,-1,7,5,8,-3,2,2
41763936468,-2,-5,-7,0,-1,1,-4,-2
41763936468,-1,-2,-4,4,-7,-3,-3,-1
41763951436,-1,2,1,7,3,2,-1,-1
41763951436,1,-3,-7,-31,-9,-1,-3,-1
41763958928,-1,0,2,-3,1,-1,1,0
41763958928,0,-1,5,33,9,-2,-2,-1
41763973955,-3,0,2,-5,-3,3,2,0
41763973955,-3,-2,-9,-27,-7,-2,-3,-3
41763981503,-1,3,9,30,13,0,-1,0
41763981503,-1,-3,-10,-21,-9,0,0,-1
41763990476,-2,-2,1,1,-2,6,-1,0
41763990476,0,0,1,2,7,-10,-2,1
41763996486,1,0,1,-16,1,-1,3,0
41763996486,-3,-3,-1,5,0,0,-3,-2
41764011431,0,-2,-1,3,1,2,1,-2
41764011431,-1,-2,-4,-9,-3,2,-1,-2
41764018826,0,-2,-3,-6,1,0,-1,-1
41764018826,0,0,4,0,-13,-1,1,-1
41764033870,-2,-5,-4,-9,-5,-8,-3,-1
41764033870,-1,0,0,12,5,0,-2,-2
41764041502,0,-1,0,-7,-7,-4,-2,0
41764041502,-1,0,-2,-10,1,0,-2,0
41764050378,0,-3,-2,12,-1,0,-2,-1
41764050378,-1,3,6,50,6,2,2,0
41764056360,-4,-6,-14,-36,-2,-2,-1,-1
41764056360,2,3,11,-22,-7,-2,0,1
41764071377,-1,-1,-12,31,2,-2,-1,0
41764071377,0,-1,6,26,13,3,1,-1
41764078830,-3,-4,-3,-11,-6,-3,-3,-3
41764078830,-2,0,6,28,5,-7,0,1
41764093948,-1,0,-5,-57,-4,1,-1,-2
41764093948,-2,-1,-3,-13,-13,-4,-1,-3
41764101467,1,1,3,17,10,0,-1,0
41764101467,-1,-3,-8,-12,-6,0,0,-1
41764110348,-2,-1,4,7,4,-2,-3,-1
41764110348,-4,-4,-10,-10,-4,1,-2,-3
41764116393,0,3,1,-3,-6,1,0,1
41764116393,0,-1,0,15,3,0,-2,-2
41764131357,-1,-2,-7,-4,-4,-1,0,-1
41764131357,-3,-5,-6,-45,-7,-1,-2,-1
41764138840,1,16,27,51,4,-5,-3,0
41764138840,-1,-5,-28,-16,7,2,0,1
41764153865,-1,-2,3,9,-2,-3,-1,-1
41764153865,0,-1,-5,-35,-4,0,-2,0
41764161426,0,-5,-6,1,-1,2,1,-2
41764161426,-2,-1,4,17,1,0,-1,0
41764177151,-1,1,3,-11,-3,0,1,-2
41764177151,0,-2,-3,7,2,-6,-1,1
41764177859,-1,-1,-1,-7,-11,-4,-1,-2
41764177859,-2,-1,-1,-9,-5,3,0,-2
41764191470,-1,-3,-3,-4,-10,-2,-3,-1
41764191470,1,9,29,46,16,2,2,1
41764198895,0,-10,-31,-13,-7,-1,-1,-1
41764198895,-1,0,6,3,7,0,-1,0
41764214002,-1,0,1,1,-1,-2,-2,-2
41764214002,0,0,3,-12,-11,-2,-2,-2
41764221411,-4,-2,-1,3,0,1,-3,-1
41764221411,-1,1,3,-2,-1,-1,-2,-3
41764237072,-2,-2,-2,-2,1,-2,-1,1
41764237072,-1,-4,-8,0,2,2,1,-2
41764237856,-2,-2,2,-18,-3,3,1,-1
41764237856,-1,0,3,9,2,-3,-3,-2
41764251391,-2,0,4,10,0,-1,0,-2
41764251391,-2,-1,0,-12,-7,0,-1,-2
41764258897,-1,-6,-19,-11,3,-1,0,0
41764258897,1,5,5,17,-2,-5,-2,-2
41764273941,2,0,11,1,1,-1,0,0
41764273941,-3,-4,-22,-4,3,4,0,0
41764289660,-1,0,10,-3,-1,-3,-1,-1
41764289660,-3,-5,-10,-13,0,0,-2,-2
41764297059,4,7,11,16,5,0,2,4
41764297059,1,-3,-9,8,0,-1,-1,-3
41764297829,2,3,2,-42,-7,-1,1,1
41764297829,0,-4,1,26,6,-1,-2,-1
41764319524,-4,-6,-7,12,5,2,-1,-2
41764319524,-1,1,4,-5,-4,-1,1,0
41764320278,-3,-6,-11,10,9,2,0,-1
41764320278,1,1,1,-9,-8,-8,-1,0
41764333917,-2,-2,-2,-9,-3,2,0,-1
41764333917,0,-1,5,8,8,0,-1,-1
41764341491,-1,-2,3,5,-1,-1,-2,-1
41764341491,-2,-1,3,-9,-8,-1,-2,-1
41764357091,-2,-2,-6,2,0,0,-2,-1
41764357091,0,1,-4,-15,-5,-2,-2,-2
41764357857,0,0,2,7,-6,-3,-1,-2
41764357857,-3,-4,0,-6,0,2,-1,-1
41764371598,-1,-1,-4,-17,-9,-3,-1,-1
41764371598,-3,-4,-2,15,5,1,0,-1
41764388393,1,1,7,12,1,-2,-1,-1
41764388393,-2,0,2,14,-1,-1,0,-3
41764393936,-1,-5,-13,-3,4,-1,1,-2
41764393936,0,0,6,-23,-10,-2,0,1
41764401408,1,-1,-8,-20,-3,-8,-1,-1
41764401408,-1,-7,-4,-5,5,-1,-1,-2
41764417006,0,0,-6,-13,0,-1,-3,-2
41764417006,0,0,4,12,-3,-6,-3,-2
41764417794,-1,-1,11,10,-6,0,-1,-4
41764417794,-3,-12,-35,-10,1,-1,-2,-2
41764431384,-1,0,29,-31,-3,-2,-2,-3
41764431384,3,16,13,17,-10,-1,-1,2
41764438924,-2,-5,-1,-18,-10,-3,-1,-1
41764438924,-1,3,5,-29,-1,1,-1,0
41764455158,-4,-7,-15,58,8,0,-1,-2
41764455158,-6,-9,-7,7,-6,-3,-5,-3
41764461380,-3,-2,-1,-2,1,3,-2,-3
41764461380,1,0,5,27,0,-2,0,1
41764477037,1,2,-10,-26,-6,-2,-5,1
41764477037,-3,-7,-9,-14,1,-2,1,-1
41764477767,-2,0,-5,10,2,-3,-4,-1
41764477767,-4,-2,8,6,9,1,0,-2
41764491398,-2,0,2,31,-8,2,0,-1
41764491398,-2,-2,-12,-15,-3,-1,-2,-4
41764498862,-1,-1,2,11,11,5,0,0
41764498862,1,4,10,-28,-23,-5,-2,-1
41764513875,0,-4,-6,-5,1,-1,2,0
41764513875,-3,-4,0,-8,4,-1,-1,-2
41764521384,-3,-2,3,60,2,-2,1,-2
41764521384,1,0,2,-29,-1,1,-3,-1
41764537012,1,2,2,-34,1,-2,-1,0
41764537012,1,-3,0,17,5,0,0,-1
41764537790,1,2,-2,-21,-1,-10,-1,1
41764537790,-1,-3,-12,12,-5,-1,0,-1
41764551411,-1,0,11,6,-1,-1,-1,-2
41764551411,-1,-2,-9,-23,-5,-5,-2,0
41764558892,1,0,2,14,0,2,-1,1
41764558892,-1,1,3,16,1,1,-1,0
41764573908,-3,-2,-9,-31,-4,-3,-3,-1
41764573908,-1,0,4,-4,-6,3,-2,-1
41764581379,-1,-3,-3,-3,1,2,0,-2
41764581379,0,5,1,1,5,1,0,-1
41764597023,-1,0,8,14,0,-1,0,-1
41764597023,-1,-2,-10,18,7,0,-1,-1
41764597759,-3,-5,-3,-28,-8,-1,-2,-2
41764597759,-1,-3,1,16,6,-4,0,-1
41764611396,-1,0,-7,2,1,2,1,-1
41764611396,2,-1,3,-3,-9,-5,-2,1
41764618926,0,-2,-10,-16,-9,1,-1,-1
41764618926,-4,-4,-5,-1,-2,-4,-2,-2
41764633925,-1,-2,-4,8,-4,-2,-2,-1
41764633925,-1,0,5,-14,-5,0,-2,1
41764641359,-1,-2,-12,-8,2,1,1,-2
41764641359,1,4,-1,-41,-5,0,1,2
41764665295,-3,-4,2,13,2,-2,-2,-3
41764665295,0,1,-2,0,2,1,0,0
41764666092,-1,-2,6,0,7,-1,-1,-1
41764666092,-2,-4,-4,14,-10,-3,-1,-1
41764671445,2,5,-2,-45,3,-1,1,1
41764671445,-2,-3,-7,1,1,-1,1,-1
41764678911,-1,-4,-5,-7,-2,-1,-2,-2
41764678911,-3,1,5,5,-3,4,0,-3
41764693989,0,-2,5,18,1,-9,-3,-1
41764693989,1,0,8,-4,9,-10,1,1
41764701521,-3,-4,-18,16,11,4,2,0
41764701521,0,-2,-4,11,-3,-3,-4,-3
41764717024,0,-2,-1,5,2,0,-1,-1
41764717024,1,1,1,-14,0,3,0,-2
41764717906,0,1,7,7,-7,-5,-2,0
41764717906,0,0,4,-19,6,1,0,1
41764731517,-1,-1,-5,3,-4,-1,-1,-1
41764731517,-2,-7,-4,14,1,4,-2,-2
41764738980,0,2,8,-11,-4,-2,0,1
41764738980,1,0,1,10,2,1,0,0
41764753946,-1,-4,-8,-15,-6,0,-1,-2
41764753946,-1,1,7,10,-5,-1,-1,-2
41764761474,0,0,2,1,-2,-3,0,-1
41764761474,-3,-6,-14,1,-8,5,-1,-2
41764777087,2,2,2,11,8,-11,0,2
41764777087,-3,-1,1,-12,-6,-5,-2,-2
41764777852,0,4,4,8,2,2,-2,0
41764777852,-3,-3,2,6,-9,-3,-1,-2
41764791411,-4,-9,-21,-21,-5,4,0,-2
41764791411,4,14,14,-26,-10,-1,1,0
41764798903,-2,-8,-13,40,2,-7,-3,-2
41764798903,-2,-6,0,13,2,0,0,0
41764814015,2,4,15,5,8,4,1,1
41764814015,-4,-9,-24,-2,-2,-5,-2,-2
41764821495,0,3,6,-2,-2,3,-1,0
41764821495,1,2,-14,-53,-5,-3,-1,0
41764837143,-4,-3,3,10,-1,0,-2,-2
41764837143,-2,-5,-7,4,-5,5,-2,-2
41764837925,3,7,8,-8,0,-6,0,1
41764837925,-1,-3,-3,7,5,-1,-2,0
41764851501,1,-1,2,-8,1,0,0,-1
41764851501,-1,-2,-1,4,0,-6,-1,-1
41764858987,-2,-2,-4,-6,-4,1,0,-2
41764858987,1,2,8,10,5,-3,-2,0
41764873902,-1,-1,-8,-10,-16,-1,-1,-2
41764873902,-3,-2,2,0,-6,5,-2,-3
41764881499,1,-1,-5,-31,-2,-4,1,0
41764881499,-1,2,7,40,7,-3,0,-1
41764896505,-3,-2,-9,-1,0,0,-3,-3
41764896505,-2,-3,5,-13,-4,-2,-2,-2
41764904700,0,0,1,-6,-4,0,-1,-1
41764904700,0,1,0,-9,0,1,-1,0
41764911479,-1,-2,-3,-3,-1,4,0,-1
41764911479,0,1,3,5,6,-9,-1,-1
41764918924,-2,-1,-3,11,1,2,-1,-1
41764918924,-1,0,-1,-23,-8,-5,-2,-1
41764933927,-3,-3,2,16,-3,-2,-3,-2
41764933927,0,-2,-4,-2,10,1,3,1
41764941394,-3,-2,4,10,-7,2,-2,-2
41764941394,1,-2,-4,-18,-4,-7,-2,0
41764956419,-2,-1,-3,-9,-5,-4,1,0
41764956419,-1,-1,0,22,5,3,-1,0
41764964616,0,-2,-9,-22,-6,-4,-1,-2
41764964616,-2,-2,-4,30,18,5,2,-1
41764971394,1,0,2,14,-4,-4,0,1
41764971394,-1,-3,-11,-9,6,-1,-2,-2
41764987189,-1,-1,3,-6,-5,0,-1,1
41764987189,0,-3,-1,-15,-7,1,-2,-3
41764994002,0,0,-2,2,6,3,2,0
41764994002,2,0,-4,6,-4,-4,-2,0
41765001526,-1,-2,2,-5,-2,-5,-4,-4
41765001526,-1,-4,-10,-14,-11,0,-1,-1
41765016484,-1,1,8,11,14,0,0,1
41765016484,-1,0,-2,-2,-6,1,-1,0
41765024566,-3,-2,-3,-13,0,-1,-1,0
41765024566,-3,-6,-4,11,-7,-1,-3,-2
41765039606,0,3,6,-3,-6,-2,-1,-2
41765039606,-3,-2,-1,6,-2,2,-1,-2
41765040355,1,-1,-11,-28,1,-2,0,1
41765040355,-2,-1,-5,2,-4,0,1,-1
41765053934,-4,-4,1,-7,-2,-4,-2,-1
41765053934,-2,-2,-9,9,10,3,0,-1
41765061391,2,1,10,-14,-10,-3,-3,-2
41765061391,0,-2,-1,13,4,-2,-1,1
41765076453,1,-4,-2,-5,-5,-2,-3,-1
41765076453,-1,-2,4,-23,-5,-3,-2,1
41765084659,-3,-1,1,23,4,1,1,-1
41765084659,0,1,-1,-13,1,-2,1,0
41765099536,-2,-2,-2,-6,0,-1,-2,-2
41765099536,-3,-1,-1,0,-3,4,0,-2
41765100372,-1,1,-1,20,3,-7,-1,-1
41765100372,-2,-1,4,9,5,2,0,1
41765114057,-1,-1,-14,-2,-5,-3,-3,0
41765114057,0,1,13,-15,-9,0,0,0
41765121497,-1,-4,-3,9,5,4,-1,-2
41765121497,1,1,1,-7,-5,-2,-3,0
41765136482,1,-2,-1,3,4,2,-2,-1
41765136482,-3,-4,-12,-3,2,-5,-2,0
41765144672,-2,-1,-6,-24,-7,1,0,0
41765144672,-1,-1,8,18,2,-1,-1,-3
41765159597,-4,-3,-6,-12,-10,-1,0,-1
41765159597,1,2,0,11,2,-1,1,1
41765160442,0,-3,8,-4,3,0,-1,-2
41765160442,-2,-3,-7,-17,-4,-1,2,0
41765173901,-1,-1,1,-10,-4,-1,0,2
41765173901,0,-1,-1,8,-1,-2,-4,1
41765181474,-4,-1,0,4,-2,1,-1,-10
41765181474,2,2,2,-7,-5,-3,-1,3
41765196494,2,0,-7,2,0,1,-1,5
41765196494,-2,-4,-1,4,3,-1,0,-2
41765204619,0,4,8,4,2,0,-2,1
41765204619,-3,2,-3,-9,-14,-2,-1,-3
41765219605,-2,-1,1,9,12,-1,-2,-6
41765219605,-1,-12,-31,0,2,-4,0,2
41765220394,-1,6,16,-2,-3,0,0,-1
41765220394,5,-2,-19,-1,4,-1,-1,0
41765233967,3,4,31,-4,-7,5,2,-2
41765233967,-4,0,5,17,2,-4,-1,-4
41765241498,-7,-15,-31,2,0,-7,-3,-2
41765241498,-2,-5,6,-10,-1,-1,1,-2
41765256468,3,4,-10,8,-2,-6,-7,-1
41765256468,1,-3,17,-10,-6,9,1,-1
41765264648,11,3,1,0,-4,-11,0,3
41765264648,-15,-9,3,0,-1,-1,-3,-8
41765279680,-2,-4,-17,-9,-9,-6,2,-2
41765279680,-9,-11,-17,-2,-18,-4,-3,-3
41765280443,4,16,20,11,26,7,0,11
41765280443,13,7,10,-27,-11,2,3,3
41765293971,-5,-4,7,21,45,12,1,-1
41765293971,7,0,-10,-7,30,-2,-1,3
41765301497,-9,-10,-16,5,-23,-5,-3,-7
41765301497,2,2,0,-4,-23,-1,1,3
41765316382,0,4,6,-2,-15,-3,0,1
41765316382,1,-1,-1,-3,5,-1,-2,-6
41765324579,2,-4,-7,3,-2,13,5,0
41765324579,-2,0,8,7,2,-5,-8,-3
41765339539,-3,-8,-12,-14,-14,-6,-2,-3
41765339539,-1,8,9,0,-1,-1,-1,-4
41765340346,1,-1,-1,-6,-8,-4,0,-2
41765340346,-5,-3,-5,10,7,13,2,0
41765353882,0,-2,-4,-7,-1,-9,-2,-1
41765353882,-1,-1,-7,-5,-15,-8,-5,-1
41765361373,-1,5,18,5,8,0,0,-2
41765361373,-3,-4,-5,2,5,-6,0,-4
41765385234,-1,-1,-1,3,2,17,3,-3
41765385234,-3,3,3,-4,8,-5,-2,-1
41765386001,-1,-9,-14,-8,-5,1,4,1
41765386001,-1,5,8,-1,-11,-2,-1,-3
41765399557,0,-1,1,17,3,-3,-6,-1
41765399557,1,0,1,-21,-29,-1,-1,0
41765400338,-1,-6,-9,-7,12,-2,-5,-1
41765400338,-3,-2,-2,-1,4,4,-3,-1
41765413868,-1,0,0,0,-10,-2,2,-1
41765413868,-1,-1,3,2,-5,2,0,-2
41765421491,1,0,-2,-4,-14,-2,-2,1
41765421491,-1,-1,1,17,3,-4,-1,0
41765436450,-2,1,-3,-6,7,1,-3,-2
41765436450,1,2,5,5,6,-3,1,0
41765444646,-1,-2,-2,-7,-8,-6,-4,-1
41765444646,-1,-1,2,-6,14,1,0,-1
41765459662,1,-3,0,7,-3,-3,0,-1
41765459662,0,1,-2,-1,-7,-10,-1,0
41765460431,-3,-3,-2,3,-1,0,-4,-4
41765460431,-1,-1,-6,-8,-5,-4,-2,0
41765474025,-1,-2,-1,-18,-4,1,0,-1
41765474025,0,1,3,17,-5,-13,-2,-1
41765481404,-2,-2,-1,3,-5,8,1,-1
41765481404,-1,-1,-3,7,8,0,6,-2
41765496474,-1,-1,-1,-10,5,-2,-6,1
41765496474,0,-2,-1,-4,-11,9,2,1
41765504707,-2,0,-3,-1,28,-10,-3,-3
41765504707,0,-2,-7,5,3,-2,-1,0
41765519599,-1,-3,7,0,-15,-12,0,0
41765519599,0,-1,11,2,10,1,1,0
41765520397,1,1,-4,-6,-14,1,-1,0
41765520397,0,-1,-1,1,-4,1,-3,-1
41765533984,0,-1,-4,1,6,-7,-4,0
41765533984,-2,-4,-6,-4,-5,2,-3,-2
41765541484,1,1,1,-5,-1,0,1,-1
41765541484,1,0,0,24,5,-2,-4,-3
41765556489,-3,-2,-6,-23,-7,3,0,0
41765556489,-1,2,-1,-5,-2,0,1,-1
41765564641,-2,-2,0,16,-8,-1,-2,-2
41765564641,-3,-2,-2,-8,22,1,-2,-2
41765579624,0,0,-1,-4,-18,-1,-1,-2
41765579624,-2,1,-1,5,13,4,1,-1
41765580432,-1,0,1,-4,-1,0,-3,-1
41765580432,-2,-3,-11,-8,-21,-6,-3,-1
41765593950,1,1,13,7,6,0,3,-1
41765593950,-1,0,2,10,1,-5,-3,0
41765601437,-1,-1,-6,-11,0,-6,-2,-1
41765601437,1,0,0,-13,3,-1,1,1
41765616533,-1,-1,-4,19,5,0,-1,-2
41765616533,-1,-2,-2,-6,-10,2,-1,-1
41765624669,0,-1,1,-4,2,-5,-2,2
41765624669,-1,0,-1,-2,-9,-4,-2,-1
41765639629,0,1,-1,0,7,2,1,-2
41765639629,-3,-3,0,12,-11,6,2,-1
41765640447,-1,0,-1,-5,11,1,0,0
41765640447,-1,-1,1,-5,-20,-5,-3,-2
41765653980,0,-1,-4,-3,6,-1,-1,0
41765653980,0,-2,-4,-4,-10,2,-1,0
41765661508,-4,-1,-2,-2,2,2,1,-1
41765661508,-1,-3,-5,3,-7,-1,-3,-1
41765676414,-3,-1,-3,-10,-4,1,0,-1
41765676414,0,-1,0,-4,21,-2,-2,0
41765684670,-1,-3,-4,12,-3,3,1,-1
41765684670,-1,-5,1,-10,1,-1,0,-1
41765699624,0,-3,-11,1,-9,-3,-2,0
41765699624,0,2,3,-6,-1,-2,0,-1
41765700435,0,-4,0,-7,-3,-2,-1,-1
41765700435,-2,-1,-1,2,-5,0,-1,0
41765713981,2,0,0,-2,-6,0,-2,1
41765713981,-2,-2,-6,5,-3,0,-2,-1
41765721448,0,0,-2,-10,-27,2,0,-1
41765721448,-2,-4,1,3,28,1,0,-2
41765736417,-3,0,-6,-7,-2,1,-2,-2
41765736417,0,-1,2,3,11,-7,0,-1
41765744574,-2,-2,-1,8,-6,0,-3,-3
41765744574,0,0,-4,-8,-8,0,-2,-1
41765759564,-2,-2,1,6,-1,-2,1,0
41765759564,-1,-3,-3,-2,5,4,0,-2
41765760344,-1,-1,0,3,1,-3,0,0
41765760344,-1,3,0,-8,0,0,1,-1
41765773867,1,0,-1,8,5,0,0,0
41765773867,-1,-4,-6,-19,-15,-1,-1,0
41765781387,-2,-3,-4,4,4,4,0,-1
41765781387,1,4,9,4,10,-2,0,0
41765796437,-3,-2,1,13,-10,-1,-1,-1
41765796437,-3,-6,-5,-6,-5,1,-3,-3
41765804674,-1,4,-8,-1,1,0,0,-2
41765804674,-1,-1,-4,-1,-2,1,-1,-1
41765819533,-2,-3,-1,-6,-14,-4,-2,-1
41765819533,-2,-6,-6,-11,7,1,-2,-1
41765820346,1,1,6,15,3,-3,-1,1
41765820346,0,0,2,-2,-1,-1,-1,0
41765833905,-1,-2,-4,6,-4,1,0,-1
41765833905,-1,8,23,-3,-3,-4,0,-1
41765841576,-3,-6,-9,-5,8,-5,-2,-1
41765841576,0,3,-1,-11,-8,-6,-2,-2
41765856429,0,-8,-13,4,2,3,-1,-2
41765856429,-1,-3,-12,4,5,1,0,-1
41765864624,2,10,15,0,-10,0,2,2
41765864624,0,0,0,5,13,-11,-4,2
41765878999,-1,-2,-1,-12,-2,0,2,-1
41765878999,1,-1,-1,12,-5,-2,-1,1
41765887230,-2,-9,-37,-13,-4,-3,-2,-3
41765887230,-2,-1,46,18,-5,3,1,-1
41765893978,-3,-1,-6,-23,-1,0,-4,-1
41765893978,2,7,5,2,6,-2,2,3
41765901399,-3,-9,-16,18,7,2,-1,-3
41765901399,2,5,-6,-17,-4,2,1,-2
41765916535,-1,-2,12,3,3,-8,-4,-2
41765916535,-1,1,-4,-15,-1,3,-1,-3
41765924600,-1,-7,-5,-5,-3,-2,1,1
41765924600,-4,-7,-13,13,0,1,0,-2
41765938916,-1,4,11,-2,0,-1,1,-1
41765938916,-2,-5,-17,-6,-7,0,-1,-3
41765947121,1,7,17,2,2,-8,-1,1
41765947121,-2,-5,-4,-6,-4,-1,-2,1
41765954037,-2,-1,-9,-15,-15,1,-1,-1
41765954037,-1,-2,-1,10,8,4,0,-1
41765961539,-3,-6,-1,-41,15,0,-2,-5
41765961539,-3,-9,-34,12,1,5,-3,-3
41765976510,5,7,11,18,-4,0,1,3
41765976510,2,9,35,-5,0,-3,0,1
41765992145,1,8,6,2,-13,-1,-2,0
41765992145,-4,-7,-13,-13,-3,-3,-2,-3
41765999061,-3,-8,-21,-2,13,3,-1,-3
41765999061,0,0,-1,15,-6,-5,-3,-2
41766007152,2,8,16,13,34,-8,-3,3
41766007152,-1,-7,-9,-15,-22,-4,-2,0
41766022204,-1,-4,-8,-2,-5,-2,-2,-2
41766022204,-3,-6,1,8,2,-3,-1,-2
41766022860,-2,-3,12,0,-15,-2,-1,-3
41766022860,-2,1,5,1,3,0,0,-3
41766036539,1,3,6,-2,15,-5,-2,1
41766036539,-3,-6,-15,2,0,0,-2,-3
41766044688,1,1,3,15,-11,-2,1,2
41766044688,1,3,8,-18,2,1,0,0
41766058977,-1,-1,2,3,-1,-3,-2,-2
41766058977,-2,-3,-10,-10,-20,-5,-3,-2
41766067078,-1,-3,-4,2,10,6,0,-4
41766067078,3,2,4,13,16,2,3,1
41766082176,-2,0,-1,-3,-4,0,-2,-2
41766082176,-2,-3,-6,-6,-10,10,1,0
41766082952,-1,-1,-1,-7,18,-1,-1,-1
41766082952,1,1,0,10,-15,-6,-2,1
41766096502,0,0,0,-8,-4,-1,0,-1
