timestamp,emg1,emg2,emg3,emg4,emg5,emg6,emg7,emg8
450502805019,-2,0,-4,4,2,2,-1,5
450502805019,-1,2,2,-1,1,-1,2,1
450502805802,0,2,-4,-4,3,1,0,0
450502805802,1,-1,2,6,4,-4,-2,1
450502808722,5,-6,-3,1,-4,-6,-2,-5
450502808722,-3,-2,-4,2,2,-3,0,1
450502809643,2,-4,1,2,0,-13,-2,1
450502809643,0,-1,-4,-6,0,-3,0,1
450502817211,0,-3,3,-8,-2,1,-4,-2
450502817211,2,-6,-2,-7,-9,4,-5,-4
450502823200,-2,0,0,-1,-2,2,-4,-3
450502823200,-1,2,1,3,-3,6,0,-3
450502832259,-3,-2,-2,-4,-1,-4,-2,-1
450502832259,1,1,-2,-6,0,-6,-3,-3
450502845717,-5,0,-1,-2,-7,1,-3,-4
450502845717,1,-2,-2,-1,-7,-3,-2,-1
450502854703,-1,0,-1,1,2,3,3,-3
450502854703,-1,2,3,4,1,0,6,0
450502868217,-5,-2,-4,1,-2,-2,-3,1
450502868217,-1,7,-1,-6,-1,1,-3,-1
450502877170,1,6,-1,1,-4,-2,0,3
450502877170,0,8,0,-2,-8,-1,-6,2
450502883155,3,-2,-1,0,1,-4,0,1
450502883155,-3,-7,3,-2,-2,-2,1,2
450502892138,4,0,-3,-4,3,2,-1,-1
450502892138,4,-6,2,2,5,3,2,1
450502905721,0,-3,1,-6,-5,3,-3,-1
450502905721,-4,-6,-2,-3,0,-1,0,-8
450502914711,2,4,2,-2,-1,0,-4,-1
450502914711,-4,0,0,3,3,-1,-3,3
450502928198,1,-1,-2,0,-2,-5,-4,-3
450502928198,0,-8,0,-3,1,3,2,0
450502937179,1,-3,1,3,-4,3,-2,-3
450502937179,-5,-3,2,2,2,-1,-2,-4
450502943211,-4,3,4,0,3,1,3,-5
450502943211,0,-2,-1,-1,-3,-3,0,2
450502952207,-6,-2,1,0,-3,1,0,-1
450502952207,5,3,-2,-2,-3,3,-5,-1
450502974522,-1,-4,-1,2,4,1,2,2
450502974522,-5,1,-1,-3,2,-3,-6,1
450502976120,-3,-1,1,1,1,1,4,0
450502976120,-2,1,3,5,2,-3,1,-1
450502988222,1,-3,-2,-1,-2,-3,3,1
450502988222,0,-3,-2,-1,0,-4,-1,0
450502997201,-2,-2,-1,0,-4,-2,1,1
450502997201,-5,-9,-5,-2,-4,-2,1,0
450503004394,0,1,-2,2,-3,0,-2,1
450503004394,-3,1,-4,-1,2,3,2,-1
450503019681,-7,-2,-4,-4,-1,-1,-4,-1
450503019681,-3,4,-6,-7,-7,-2,-7,-3
450503025647,-4,-3,-4,-7,-2,-2,0,1
450503025647,1,-4,1,-3,-8,-1,-2,-1
450503034676,-2,0,1,-3,-2,-2,-1,-4
450503034676,-2,-6,-4,-1,4,0,-2,0
450503048156,-5,-5,1,3,3,2,-1,-1
450503048156,1,0,0,-1,-4,0,-3,-2
450503057212,-3,2,-2,-5,-1,-4,-4,-3
450503057212,-2,-1,0,0,2,4,1,-2
450503063161,-3,5,3,-4,-3,5,-3,-1
450503063161,1,4,0,-1,0,-1,-3,-1
450503078187,-1,-1,0,-2,-2,-1,-2,-1
450503078187,-3,5,0,0,3,-1,0,-1
450503085682,0,3,-1,-1,-2,-3,0,0
450503085682,0,6,-3,6,5,2,0,2
450503094698,4,3,-1,-2,4,-2,1,-7
450503094698,5,0,5,0,5,-3,-2,-1
450503108141,-1,-9,-3,-3,1,-6,0,2
450503108141,-8,-2,1,2,1,-7,2,0
450503117160,-3,-6,-3,-3,-7,-1,2,1
450503117160,7,0,3,2,-4,-3,-1,-3
450503123179,-1,2,-2,-5,0,3,-3,0
450503123179,1,-1,0,-4,2,1,-2,-4
450503138250,-2,1,-2,4,8,0,4,4
450503138250,-4,0,0,4,-1,-5,0,0
450503145720,1,1,5,1,1,1,-1,-4
450503145720,1,-4,-2,-2,0,-3,-4,-4
450503154778,-4,5,0,1,0,-4,-5,-3
450503154778,-1,-5,-5,-11,-7,0,-3,0
450503168216,0,0,3,6,3,1,2,2
450503168216,-2,-5,-5,-1,-8,-5,2,-3
450503177246,4,0,0,-2,-5,-3,-2,1
450503177246,-2,-5,-3,-6,-3,0,-1,4
450503183184,-2,-1,-1,0,-3,-2,-5,0
450503183184,-1,-8,-2,-2,-4,0,-3,-2
450503198136,-2,-3,-2,-3,-1,2,-1,2
450503198136,0,-3,3,-3,-4,-4,-1,-5
450503205686,-1,1,-5,-4,-1,-1,-2,-3
450503205686,2,0,-1,-4,4,0,-5,3
450503214618,2,-3,-5,-6,-7,-1,-3,-4
450503214618,-2,0,-2,-2,-1,-4,-4,-3
450503228142,-3,-2,0,-2,3,0,0,-2
450503228142,1,2,-2,5,1,6,-1,-1
450503237197,1,-1,0,1,1,0,-3,-1
450503237197,-4,-5,-11,-9,-4,-2,-4,-9
450503243156,0,2,1,-3,-5,-5,-2,-3
450503243156,1,-5,-3,-5,-5,-3,0,-3
450503258175,-5,-4,-1,-6,-4,0,-1,1
450503258175,-2,-2,-3,0,-1,4,0,0
450503265640,-1,6,-1,-6,-8,1,-3,0
450503265640,-2,0,-3,-3,-5,-1,1,-1
450503274609,3,-4,-2,-1,5,-3,-3,1
450503274609,-2,4,2,-3,0,-1,3,-2
450503288238,1,0,0,-2,-5,-1,-4,-1
450503288238,1,3,1,0,1,-1,1,2
450503297204,3,-2,1,3,-1,0,4,-1
450503297204,-5,-2,2,-4,-1,1,-3,1
450503303296,1,-3,-1,0,1,-1,-1,2
450503303296,-1,0,0,0,-2,-2,-2,0
450503318142,4,3,2,0,-6,1,-5,-5
450503318142,-5,-4,3,0,-2,-5,-1,-4
450503325780,-2,-4,-6,-1,-6,-6,3,-4
450503325780,0,-4,4,-4,-2,-1,-2,2
450503334745,-6,-6,-4,2,2,-3,-2,0
450503334745,2,-4,0,6,5,2,-1,-1
450503348220,-1,4,5,2,-1,2,-1,-3
450503348220,-5,4,0,0,-7,-3,2,0
450503357209,-2,2,-4,-2,0,1,0,-3
450503357209,-1,-1,1,-1,-4,2,2,3
450503363197,-1,-2,-5,-2,2,-3,-4,0
450503363197,-3,3,-1,-1,-1,-2,-3,1
450503378196,-3,-2,6,-1,-4,-1,1,2
450503378196,-8,-1,-5,-3,-6,-3,0,-2
450503394624,-1,-4,1,0,-3,2,0,-2
450503394624,-2,0,-4,-5,-3,1,-3,-1
450503396129,-3,-5,-4,-6,-1,-2,-6,1
450503396129,0,-2,-2,0,-5,1,3,2
450503417038,-5,-3,-2,-2,3,-2,-2,-2
450503417038,-6,-1,4,-2,0,-1,-6,-5
450503418654,-1,-4,-1,-4,-6,-2,-4,1
450503418654,0,4,0,3,4,0,-3,3
450503423212,3,-2,-4,-2,-2,1,0,1
450503423212,0,1,0,7,-1,2,3,2
450503438301,-2,4,-1,1,4,3,8,1
450503438301,2,-2,5,-2,-3,0,1,-4
450503445781,3,-1,4,-4,1,0,2,-1
450503445781,-3,-6,-5,-6,-4,-1,-4,-2
450503454672,-2,-5,-4,-6,-4,2,-3,2
450503454672,0,1,-2,0,2,-4,-2,3
450503468245,0,-9,-5,-4,-4,-2,-2,-1
450503468245,-1,-3,-4,-3,-6,-2,-2,0
450503477236,1,2,2,5,2,1,2,0
450503477236,-2,-4,-1,-7,-1,-2,-5,-7
450503483210,-1,0,-4,-1,0,1,-6,-1
450503483210,4,0,-1,1,4,-3,1,-3
450503498179,-5,0,-1,-1,3,1,2,-2
450503498179,0,5,-1,0,1,0,-8,-1
450503505680,-1,-4,-4,-2,-5,-3,1,-3
450503505680,1,0,-1,-2,4,3,-1,0
450503514738,-4,-2,2,0,-2,-4,-4,-4
450503514738,1,-3,1,5,4,0,1,-1
450503528247,-5,0,-2,-2,-4,-1,0,-2
450503528247,-1,-5,-5,-4,-3,0,5,-1
450503552032,-3,3,3,-5,-3,-4,-3,-2
450503552032,-2,-1,-3,-2,-7,1,5,1
450503552859,-3,-3,-2,-3,0,3,-3,-3
450503552859,0,-2,0,-1,-2,-2,-2,-1
450503558233,5,-1,-2,7,4,1,1,1
450503558233,1,-1,-1,-1,-7,0,-1,0
450503565733,-5,-7,-2,-7,2,3,-1,0
450503565733,-3,2,3,-1,-6,0,-4,-5
450503574707,-2,-2,-3,-6,-7,2,-5,-6
450503574707,-6,-1,-2,-5,-2,-3,-1,-3
450503588245,-3,1,4,-4,-5,-5,-5,0
450503588245,-4,3,0,-3,2,-1,1,-1
450503597219,1,0,-4,-1,-2,2,-1,1
450503597219,-1,1,-5,-5,-2,4,-3,1
450503603230,3,4,1,5,-2,2,2,-3
450503603230,-1,-5,2,-1,2,0,1,3
450503618184,-2,-2,-3,2,6,-3,0,-1
450503618184,4,-1,-2,-1,-2,-1,-3,-2
450503625691,1,4,-3,-1,4,1,1,-3
450503625691,0,2,-3,0,-4,-1,-1,-4
450503634724,2,-1,0,-1,-1,0,-2,-4
450503634724,2,0,2,1,3,1,2,-2
450503648229,-1,-8,-6,-2,-3,-5,-2,8
450503648229,-2,-2,-1,0,-1,-1,0,0
450503657232,-4,1,5,0,-1,-3,-2,-2
450503657232,0,-4,-3,-1,-1,3,6,0
450503671401,-2,5,2,1,-1,-2,1,-3
450503671401,-1,4,0,2,2,-4,-5,-2
450503678181,2,-1,1,-3,-3,-2,-1,0
450503678181,-3,-2,-2,-4,-2,-3,-3,-3
450503685614,2,-5,0,1,-7,0,0,1
450503685614,1,-3,-3,-2,1,-2,-1,-2
450503694734,0,0,-1,-4,-5,0,-2,-1
450503694734,-4,1,-1,-5,2,-6,-2,-2
450503708232,-4,3,3,-2,1,0,0,3
450503708232,2,-5,-3,-7,-5,-3,-8,1
450503717214,-6,0,-5,-7,-4,-3,0,-2
450503717214,-5,-1,0,-2,-1,2,-2,-3
450503731418,1,-2,-4,-1,1,4,-1,0
450503731418,-2,0,1,4,3,-2,3,-1
450503738264,2,-3,-3,2,4,1,5,1
450503738264,-2,-4,2,6,-2,-1,-3,1
450503745732,-2,-6,-3,-6,-1,-11,-3,-3
450503745732,-2,-2,-1,0,-4,4,0,0
450503754742,-2,-2,-2,-3,0,-2,-4,0
450503754742,-3,-3,-2,-2,-11,-6,1,-1
450503768236,-1,8,0,3,-2,-2,1,1
450503768236,-1,2,0,-5,-3,-3,-3,-2
450503777130,0,-3,2,-1,4,0,1,0
450503777130,-2,0,-2,0,2,-3,-3,1
450503791421,-2,-2,1,0,5,-1,0,-2
450503791421,-1,-4,0,3,-2,-1,-1,3
450503805706,0,-3,-3,0,-4,-3,-2,-3
450503805706,0,-2,1,-2,1,-5,2,-3
450503814545,0,-1,4,-2,2,1,2,3
450503814545,-1,4,0,2,3,-1,-4,-2
450503816188,-1,0,-3,-3,-4,-4,-2,-3
450503816188,-1,-3,-1,-2,-4,1,1,0
450503828220,-5,-3,-3,0,-7,-4,-2,-4
450503828220,-5,-5,-1,-5,2,-3,-1,-6
450503837185,0,-5,5,5,5,4,-1,2
450503837185,-2,0,3,-2,-1,0,-2,2
450503851447,2,-3,-1,-2,-5,-3,-3,-4
450503851447,-3,-2,0,-2,-8,1,-5,1
450503858196,0,2,-4,-2,-1,2,-2,3
450503858196,-3,4,2,1,2,0,0,1
450503874556,1,5,1,5,2,3,0,-7
450503874556,5,0,-2,0,0,4,7,3
450503876201,-5,-4,2,2,0,-3,2,1
450503876201,3,0,0,-2,1,1,-5,1
450503888226,-3,-1,0,-2,-1,4,2,-3
450503888226,0,2,-5,0,-7,-1,-3,0
450503897218,-1,-1,0,0,-4,0,-3,-1
450503897218,-3,-1,-2,1,-1,-1,-2,1
450503911449,4,-3,3,4,-1,0,1,4
450503911449,-4,-11,1,-4,1,-3,-1,2
450503918303,-4,0,2,-2,4,0,-4,0
450503918303,-2,-4,0,-1,1,-1,2,-1
450503934623,2,3,-3,0,-1,3,-1,-1
450503934623,2,5,2,-5,-3,0,-2,0
450503936185,-1,7,-2,0,0,1,2,4
450503936185,2,-2,-2,-6,-3,1,-1,-2
450503948207,4,0,-6,1,5,-3,-1,7
450503948207,-2,-2,-2,1,-3,-4,5,-5
450503957290,1,-4,1,-3,-6,-5,2,1
450503957290,2,6,-2,3,-2,-1,1,-1
450503971407,-7,0,-1,-5,1,-7,-2,-6
450503971407,1,2,-1,4,10,8,6,0
450503978203,0,3,1,4,2,2,1,0
450503978203,2,-3,-3,-1,-4,-3,-2,-4
450503993920,0,-3,-2,-2,-1,-5,-2,0
450503993920,2,-4,4,-1,2,-2,-2,-5
450504000747,-2,-2,-6,-2,0,1,1,-2
450504000747,3,-3,0,2,2,-6,-1,1
450504008218,-1,-3,2,-1,2,-1,-2,-2
450504008218,8,6,-4,-3,-1,0,-5,1
450504017155,0,-1,-2,-5,-4,-2,3,1
450504017155,-7,1,-2,0,3,8,-1,-2
450504031378,0,1,-2,-7,-1,-3,-4,-1
450504031378,-5,-3,1,0,2,-3,-3,-1
450504038166,3,-1,6,1,2,-3,-5,-7
450504038166,1,-5,1,0,0,3,4,3
450504053673,0,0,-2,1,-3,-4,-5,-4
450504053673,-4,0,-1,-4,3,4,2,-3
450504062179,-3,2,-7,-1,-3,-6,-2,0
450504062179,0,0,-7,0,4,-5,-1,0
450504077023,0,-2,-3,-4,-2,-1,-1,1
450504077023,-1,-3,-1,-1,-2,-1,1,0
450504078633,-2,-4,-1,1,2,1,1,-1
450504078633,3,-4,-1,0,-1,-3,4,-3
450504091354,-5,-6,0,-2,-2,1,0,0
450504091354,-4,-1,0,2,-2,-6,-4,-2
450504098173,2,4,-4,-6,0,-2,-6,0
450504098173,3,4,-4,-4,-3,2,-3,-1
450504113925,-4,-2,-5,-2,2,2,1,2
450504113925,-2,-2,1,0,-1,1,-1,-2
450504120676,-1,0,-2,-1,-4,0,-3,-1
450504120676,-3,3,3,-1,0,-2,-7,-3
450504137037,-3,1,-2,-2,-4,0,5,-2
450504137037,2,3,2,0,-4,-2,-5,0
450504138669,-1,-7,-5,-5,-6,-2,0,-1
450504138669,-1,-1,-2,-3,-5,-1,-1,-1
450504151334,-1,-2,-2,2,-1,-3,0,1
450504151334,-2,0,-1,-4,-5,-1,-6,1
450504158172,2,-6,0,-3,3,1,0,-5
450504158172,-6,-1,-2,-3,-1,1,-3,-1
450504173851,2,1,1,-13,-13,-1,-3,-3
450504173851,-1,-2,-7,1,0,-2,2,0
450504180680,-2,-5,2,0,-1,-2,3,1
450504180680,-2,-5,-1,-4,-1,-6,0,-3
450504197020,-1,-1,0,-1,3,1,-1,-1
450504197020,-1,-5,-4,-1,0,0,1,-3
450504198642,-3,5,-3,0,-1,2,-6,-1
450504198642,-2,-3,-7,-2,0,3,1,0
450504211360,3,4,1,2,0,-3,0,2
450504211360,-1,0,0,-7,1,-2,-3,-3
450504218211,2,1,0,3,3,-1,2,-1
450504218211,-4,-4,4,-4,-3,-2,5,0
450504233852,0,-1,-2,-2,-3,2,-3,-1
450504233852,-1,2,-1,0,1,2,3,-4
450504240706,-1,2,-2,2,-1,5,2,6
450504240706,-1,2,-1,-1,-5,2,-2,-1
450504257029,2,-3,5,3,2,-3,6,-4
450504257029,0,-3,-3,-5,-7,-5,2,3
450504258637,0,4,2,1,1,0,3,-2
450504258637,-1,-2,1,1,-2,2,-1,-2
450504271433,-4,1,0,-3,-6,0,-5,-1
450504271433,3,-4,2,-1,0,-3,-1,2
450504278177,-2,-4,-4,3,-1,-3,4,-3
450504278177,-1,0,2,3,0,1,-1,2
450504293873,-3,-1,-2,3,8,0,2,-3
450504293873,4,6,3,11,7,3,-1,1
450504300701,-2,-3,-1,1,-1,-2,1,1
450504300701,3,-3,-3,0,2,-1,3,3
450504316998,0,2,2,-5,1,-5,-1,0
450504316998,-2,1,-3,-3,-4,-2,-3,-5
450504318616,-3,-2,0,-4,-3,1,-5,-3
450504318616,2,8,-4,-1,-7,0,-1,-2
450504330657,-1,3,-1,-5,-6,-1,-1,0
450504330657,-2,4,-2,0,-2,-1,-2,3
450504339674,3,5,2,4,-2,2,-7,-5
450504339674,-5,-2,1,2,6,-2,-3,2
450504353862,0,-6,-4,-1,-1,1,6,0
450504353862,-4,-1,0,-1,0,-3,3,-2
450504360665,4,-3,-2,-4,0,0,0,-2
450504360665,2,3,-1,-5,-2,-3,-5,-3
450504377007,-2,-7,0,1,3,3,-4,1
450504377007,0,-7,-1,-3,4,-1,0,2
450504378588,1,3,-3,-1,0,-3,0,2
450504378588,-2,-7,-3,-6,3,-3,1,-2
450504390670,-1,-3,-4,3,0,-4,3,-1
450504390670,2,-5,3,-1,-5,2,3,0
450504399679,-4,-3,3,-5,-7,0,4,-1
450504399679,-2,0,2,1,4,4,-2,-1
450504413927,-1,0,-2,2,0,7,5,-1
450504413927,-1,1,2,3,0,1,-3,-3
450504420653,-6,-2,3,-2,2,-5,0,-5
450504420653,0,-4,1,-1,0,-2,-3,-4
450504437060,2,-2,-4,-1,5,2,-8,3
450504437060,2,3,-2,-1,-2,-1,1,2
450504438656,-3,3,1,2,1,-2,0,0
450504438656,-1,-4,-5,-1,-4,-2,2,1
450504450731,-6,-3,1,-3,-4,-5,-7,-4
450504450731,-5,-4,-1,-3,2,-3,-2,-5
450504459653,-3,-4,-6,-4,-2,-6,-6,2
450504459653,6,0,-1,-2,-2,-7,3,0
450504473858,-2,3,-5,2,-3,-1,-1,-1
450504473858,-1,0,-6,-5,-2,0,-1,3
450504480616,3,-1,1,2,4,-5,-1,-1
450504480616,-2,1,-3,2,0,-1,-5,-5
450504497693,0,2,0,-3,-2,-3,-1,-5
450504497693,0,-3,-1,1,1,-1,-1,0
450504499251,1,-6,-1,1,2,1,-4,-3
450504499251,2,1,3,3,-2,-5,-3,3
450504510718,0,0,2,1,3,-4,-3,0
450504510718,-2,-2,-7,0,-2,-2,2,1
450504519667,4,4,-4,-3,-5,-1,-4,-1
450504519667,-5,1,-4,-2,5,0,1,0
450504533903,2,0,1,-1,0,-1,-6,3
450504533903,-1,-1,-4,-4,-4,-1,-1,-3
450504540689,0,-1,-4,-3,-8,0,-6,0
450504540689,-1,-4,-3,-3,2,-1,3,-3
450504557063,1,-1,-4,-1,-3,-4,1,2
450504557063,0,0,1,-5,-3,-5,-6,-4
450504558653,0,-3,0,-2,-1,3,2,-1
450504558653,2,-1,-5,1,-3,0,-1,-2
450504570622,-2,9,0,-2,0,0,2,2
450504570622,-2,-3,-1,-2,0,-1,0,-3
450504579653,-3,-6,-8,-1,1,-3,0,1
450504579653,-3,0,1,-9,-4,-8,-5,-3
450504593861,3,-4,-4,-3,-1,-1,-2,-1
450504593861,-2,0,4,5,-2,-1,-3,3
450504600688,-6,0,3,-2,0,4,-3,-5
450504600688,-5,-3,-3,-3,0,0,-2,2
450504617015,0,-2,-3,0,-1,0,0,-4
450504617015,2,4,-3,-8,-1,2,-2,1
450504618676,1,-2,2,-2,-5,-6,2,-1
450504618676,1,2,-2,-5,-3,-4,-4,3
450504630672,-5,-11,5,-5,1,0,3,-1
450504630672,2,1,0,0,-4,0,-1,5
450504639704,-2,0,-2,-3,0,-3,0,-3
450504639704,-3,5,1,0,-4,7,-1,-5
450504653921,3,4,-2,0,-2,0,-5,-6
450504653921,-5,-2,-4,-6,-1,-2,2,-1
450504660688,-1,1,2,-4,-3,1,-2,-2
450504660688,4,-4,0,1,5,0,2,-1
450504677067,-1,-1,-5,-4,-2,1,1,4
450504677067,3,-1,-3,2,-1,-5,1,-6
450504678646,-2,3,-4,-3,-2,-3,-1,0
450504678646,1,-3,3,-1,-1,0,-2,1
450504690681,-2,-2,3,-4,-5,1,3,-3
450504690681,1,-2,2,-2,0,0,-3,-4
450504699667,2,1,-1,-2,1,-6,1,2
450504699667,0,-1,-1,-2,-1,-5,-2,-4
450504713968,-1,-8,1,5,1,-5,-1,-3
450504713968,-2,-6,6,-2,4,-4,-2,-5
450504720662,-1,-1,0,-1,5,-2,-1,0
450504720662,-4,1,2,-3,-7,-1,-6,0
450504736124,-7,-1,-2,-3,2,0,-2,-1
450504736124,0,-3,0,-2,1,3,-3,-3
450504744671,3,0,1,-4,-2,-5,-1,-1
450504744671,-1,0,0,2,0,-1,0,-2
450504750671,1,2,-2,-2,3,0,-4,0
450504750671,-2,0,2,2,-3,-2,-4,1
450504759678,2,-1,0,0,0,2,3,1
450504759678,1,-5,-2,2,1,0,5,-2
450504773865,1,2,1,-2,-2,-2,-2,0
450504773865,1,3,-1,0,-5,2,2,1
450504780682,-2,-7,-1,2,2,4,-5,-5
450504780682,0,-1,-2,-2,-6,3,6,-1
450504796391,-1,1,2,-2,-4,-3,-3,-3
450504796391,1,1,-3,-1,1,2,3,0
450504803234,-1,-2,1,-5,-8,1,-6,0
450504803234,-3,-3,-5,1,3,-2,2,2
450504810712,-1,2,0,-7,-4,-1,-4,-2
450504810712,2,0,0,-4,-5,3,-3,-3
450504819670,-2,1,-6,2,-2,0,1,-3
450504819670,0,1,4,-3,-1,1,-5,-4
450504833868,-1,0,-3,3,-2,1,6,1
450504833868,-7,3,0,2,0,-3,1,-4
450504840716,-3,-2,0,-1,-2,-4,-2,-3
450504840716,-2,1,-2,-1,-2,-1,-2,0
450504857031,5,-1,0,2,-2,4,0,-3
450504857031,-5,-2,-4,0,2,-1,0,2
450504858620,0,0,-2,0,1,2,1,-3
450504858620,0,0,-1,1,1,-1,-1,0
450504870696,-5,-6,-1,-2,-4,1,-2,0
450504870696,0,0,-4,-2,0,-3,-2,-2
450504879727,-1,-2,-2,-2,1,0,-4,1
450504879727,3,2,4,1,3,1,0,1
450504893859,-1,-1,0,-4,-7,-1,-3,-3
450504893859,-1,-2,-2,-2,-5,-6,0,-4
450504900696,-5,-2,-1,-3,-4,6,7,1
450504900696,-2,-3,0,-4,1,-2,0,2
450504916406,-5,-1,-4,0,4,1,3,-1
450504916406,-1,0,1,-2,-3,2,2,0
450504923193,1,1,0,0,-2,1,-4,-3
450504923193,-4,0,-1,-4,-5,2,1,-2
450504930692,1,-1,-3,-8,1,-8,-2,-4
450504930692,-2,-5,-1,1,6,0,1,3
450504939663,-1,-1,1,0,3,-5,1,-4
450504939663,0,-5,1,-2,-1,2,-5,-3
450504953908,-3,0,-2,-2,-2,1,2,-1
450504953908,0,3,0,-8,-8,0,-2,-1
450504960700,1,1,5,1,-3,-1,1,3
450504960700,0,-1,-1,-1,1,-1,1,-1
450504976385,0,-1,-2,2,1,0,1,3
450504976385,-2,-1,-2,-4,-1,-1,-7,1
450504983188,-2,-3,-3,-2,-2,3,0,-2
450504983188,4,-6,-5,-3,-3,-3,3,-1
450504999559,-4,2,2,-3,-4,-3,-4,0
450504999559,0,0,1,0,3,1,1,0
450505001113,-3,-5,-1,-2,-2,-6,-2,-1
450505001113,-1,1,-3,-2,-1,-1,0,-1
450505013859,0,-1,-1,-2,-3,3,-2,-2
450505013859,-1,4,-2,-1,-3,1,0,-5
450505020712,0,5,-2,2,-2,-5,-3,6
450505020712,-5,-6,3,-2,-1,-1,-1,0
450505036358,1,-3,-2,0,0,1,-5,0
450505036358,-1,-1,1,1,-1,-2,1,0
450505043219,7,1,0,-2,0,-2,2,-5
450505043219,-3,5,1,2,1,2,-2,0
450505060120,4,1,0,-2,2,-2,-1,-1
450505060120,-3,-1,-3,-3,1,-6,-2,-2
450505062439,-3,0,-4,0,3,2,2,-1
450505062439,-3,-2,-1,-5,-4,-1,-2,-3
450505073855,2,2,0,2,-3,-1,-2,3
450505073855,4,-1,-2,0,-4,5,1,1
450505080697,-1,0,-5,-3,-2,-1,-4,-3
450505080697,-1,-1,1,-2,-3,-3,1,1
450505096386,-3,-2,-1,1,-1,0,0,-2
450505096386,-5,-4,-4,-2,0,-1,-1,3
450505103172,0,-4,-2,-2,1,2,-2,-2
450505103172,1,-1,-5,-3,-5,1,-3,2
450505119525,-1,-7,-2,0,7,1,-1,1
450505119525,0,3,-1,0,0,-3,2,-3
450505121115,1,0,5,-3,-9,-1,4,1
450505121115,-4,0,-6,-2,3,-5,-5,-6
450505133866,-2,0,-2,1,4,-1,1,-1
450505133866,5,-5,3,2,0,0,-6,1
450505140716,1,0,-2,-2,-1,-1,0,2
450505140716,0,2,-5,-4,-7,-1,-2,-6
450505156420,-3,0,0,-4,2,2,2,-1
450505156420,-2,-1,-3,-2,-4,-1,-3,3
450505163216,-3,-2,0,-5,-2,1,-1,-6
450505163216,0,1,2,-4,-3,-1,-3,3
450505179590,2,1,-2,-2,1,-4,-1,-4
450505179590,-2,-2,-3,-1,-3,2,1,-2
450505181141,-3,-2,2,-4,1,0,-1,1
450505181141,-2,3,-1,4,5,1,4,2
450505193893,1,1,1,-3,-3,-4,3,-3
450505193893,-3,-2,1,-5,-1,-1,-7,-2
450505200695,-3,-3,-5,2,1,-5,-4,-3
450505200695,0,-1,-2,-2,-2,0,-1,0
450505216405,1,-2,-3,-5,-5,-4,-3,6
450505216405,1,-3,-3,3,1,-3,0,2
450505223168,-1,-7,-3,-4,0,-2,-5,-3
450505223168,0,-1,0,0,1,-5,3,-3
450505240067,-3,-4,-7,-3,-6,-6,-1,-4
450505240067,-8,2,-1,-1,-1,1,-3,-6
450505241607,2,4,0,0,-3,1,-3,-1
450505241607,-1,-2,1,0,-5,0,-1,-1
450505253222,1,1,1,0,0,1,-5,-3
450505253222,0,5,-2,-4,-2,-2,0,0
450505262178,-2,-3,1,-1,-8,-1,-3,-6
450505262178,2,-1,-2,-2,-2,-3,-6,-2
450505276431,-4,3,-2,0,-2,-3,2,-2
450505276431,-3,0,1,-5,-7,-4,-6,2
450505283233,1,3,-2,-2,3,-3,3,1
450505283233,-3,0,-2,-3,-2,0,-3,-4
450505299570,-3,0,0,-3,-2,0,-1,0
450505299570,-1,-4,-2,-2,-4,-5,-3,1
450505301160,0,0,0,2,4,0,-1,0
450505301160,0,-5,-1,-2,2,-2,-4,-1
450505313202,-1,-1,1,3,-2,-3,-2,5
450505313202,2,-8,-2,1,-1,-6,0,-4
450505322190,-9,-1,-2,1,-3,-4,-3,4
450505322190,2,1,-4,5,4,3,5,-2
450505336356,1,0,1,-4,-3,-3,-6,-5
450505336356,5,1,-1,0,6,3,3,-2
450505343193,1,1,2,0,3,1,-1,-1
450505343193,-1,-6,-1,0,1,-1,1,0
450505359515,-2,-7,-4,-6,-11,-6,2,0
450505359515,2,-3,1,0,-2,1,-4,-1
450505361147,-2,-4,-1,-6,-2,-1,-1,-3
450505361147,-5,-3,-2,-2,0,-4,-2,-1
450505373218,2,-1,1,1,4,-1,-1,-1
450505373218,-1,-4,-3,-6,1,3,2,-4
450505382143,1,-4,-4,0,-2,3,-1,5
450505382143,-3,4,-1,-2,-2,2,-1,3
450505396451,-6,-4,-2,0,2,4,1,-4
450505396451,-2,-3,-4,-4,0,0,-4,1
450505403272,1,-3,-3,-3,-4,-1,-4,-7
450505403272,-1,-4,1,-1,2,1,0,2
450505427162,2,0,-5,-3,5,3,-2,0
450505427162,-3,1,0,-4,1,-4,-1,-7
450505428689,-1,-1,2,-1,-4,0,-2,0
450505428689,1,-1,2,-2,-3,-1,-1,5
450505433199,1,-3,-2,1,-2,0,-5,0
450505433199,-3,2,-2,-2,-1,2,0,-3
450505442277,-3,-4,3,-2,-2,3,-3,-3
450505442277,-3,-1,1,2,-5,-2,-1,-2
450505456474,1,4,-1,-1,-1,-4,-2,0
450505456474,0,-1,-2,-1,-1,-2,2,-3
450505463265,-3,-1,-3,1,1,-2,2,3
450505463265,3,1,-3,-6,-2,-2,-3,-1
450505479613,1,1,0,2,-3,0,-7,-2
450505479613,-1,-4,3,-3,-1,0,-1,2
450505481189,-3,3,0,-2,0,-4,-2,-6
450505481189,-3,3,-5,-4,-2,0,-2,-4
450505493256,0,-2,-1,-3,-5,3,3,3
450505493256,-7,-1,-3,-3,-5,-4,-5,1
450505502227,3,0,-4,0,-3,-4,-2,-2
450505502227,2,-9,-2,-2,2,-2,4,-5
450505516445,-4,-5,-3,-8,-1,-1,-3,-1
450505516445,2,-1,-3,-2,-1,3,-2,0
450505523296,-4,-2,-2,0,-1,-2,2,3
450505523296,-7,-4,-4,-3,-3,2,0,0
450505538925,-3,-3,0,-5,-2,-4,-2,-2
450505538925,1,0,2,-5,-5,0,-2,0
450505539636,0,13,-1,1,6,0,-6,2
450505539636,4,2,2,-2,-2,-1,-3,1
450505561389,0,-1,-2,-7,2,-5,-4,-1
450505561389,2,-1,1,4,2,4,2,0
450505562147,2,-2,-1,-5,-4,-1,-4,2
450505562147,-1,-1,-2,3,0,-5,-1,2
450505577197,1,-1,4,0,3,-2,2,-2
450505577197,-2,1,0,-3,-6,-7,-3,-2
450505583259,3,0,2,-7,-6,-5,2,-5
450505583259,-1,-4,-5,0,0,-2,1,-1
450505598887,0,0,-6,-5,-1,0,5,-4
450505598887,-2,1,-1,-7,-4,-3,-4,0
450505599644,-4,-4,-5,-4,-3,0,-4,-2
450505599644,-3,-2,-4,-3,-3,0,-5,-4
450505621469,-3,7,2,2,-4,-1,-1,2
450505621469,0,1,-1,2,-2,2,3,1
450505622284,-3,-5,-3,-5,-5,-3,-10,-2
450505622284,0,-1,0,-3,-6,-2,-3,-1
450505637275,-1,-5,-4,-2,0,-1,-2,-5
450505637275,2,-3,-1,7,4,0,3,1
450505643264,0,-2,3,-2,-6,-2,-2,2
450505643264,-5,4,-1,3,1,1,-3,-2
450505658924,3,1,-5,-1,-6,1,-3,1
450505658924,-1,-1,2,4,3,-5,4,-3
450505659731,1,-2,-2,-1,-3,-2,2,-5
450505659731,1,-1,-2,-6,-8,0,-3,-1
450505681443,-2,-2,-1,1,-1,6,1,1
450505681443,0,1,-3,-6,-4,-1,1,-1
450505682246,1,2,-3,-1,2,-2,1,1
450505682246,1,3,4,-1,0,4,-4,3
450505697327,-4,-1,0,-3,-5,-4,-2,-1
450505697327,0,-4,-5,-3,-4,2,-6,-5
450505703227,-1,-3,-1,1,-1,0,2,-3
450505703227,-1,-4,-2,-3,-4,0,-2,1
450505718938,-4,-1,1,-2,1,-3,-2,0
450505718938,-3,-3,-3,-5,0,-4,-2,-1
450505719765,1,-3,-3,0,0,1,4,1
450505719765,1,2,0,1,0,-3,4,-4
450505741387,-4,0,0,1,2,-3,-3,-2
450505741387,-3,1,-1,5,-1,-1,2,1
450505742201,-1,-1,2,4,2,0,0,1
450505742201,2,-2,-3,0,6,-2,-4,1
450505757281,2,0,-1,4,0,0,2,0
450505757281,4,-6,-2,-3,0,-5,-3,-2
450505763267,-4,-4,-1,-3,0,-6,-6,3
450505763267,-2,-1,0,1,-3,-3,-3,0
450505778885,-1,0,-3,-1,0,-2,1,0
450505778885,-3,0,0,-2,-5,1,-1,1
450505779658,-1,3,-1,-4,-6,0,-1,-5
450505779658,3,-4,1,-5,-1,0,1,0
450505801447,4,-6,-2,-5,-5,0,-1,1
450505801447,-1,0,0,1,-1,0,1,0
450505802228,-2,-1,1,5,1,1,1,2
450505802228,-4,7,-4,2,5,3,3,0
450505817280,2,1,2,9,7,-2,4,3
450505817280,1,-1,-2,-1,2,-1,2,4
450505823172,-4,1,-1,-6,0,3,-4,-3
450505823172,1,1,-5,-2,-7,-2,-3,0
450505838914,0,0,2,0,-1,1,-1,-1
450505838914,1,-4,-2,-3,3,-1,0,-2
450505839692,-1,-3,-2,0,2,3,2,-5
450505839692,-5,-6,0,-4,-1,-4,-3,-5
450505868881,1,-5,-7,-3,5,-1,-5,-1
450505868881,-2,3,3,1,-2,-4,-2,-2
450505869664,-3,-3,0,4,3,1,-2,2
450505869664,-3,-4,-2,0,7,-4,2,3
450505877201,0,-6,2,1,-6,-5,1,1
450505877201,-1,-2,-2,-4,-1,3,1,-5
450505883272,3,1,-2,-2,-3,-1,-3,0
450505883272,1,2,2,-2,1,-2,1,-4
450505898216,-4,2,-4,-7,-5,0,-4,-5
450505898216,-1,5,3,4,-1,3,0,-3
450505905735,3,1,-2,-3,-1,-5,-1,0
450505905735,-1,-2,1,2,-4,-1,0,1
450505921448,-2,-1,-1,-5,-3,-2,-2,0
450505921448,2,3,-1,-6,-4,-4,0,-2
450505922183,1,0,-2,3,0,0,4,1
450505922183,1,-1,3,0,-4,3,-1,0
450505937271,-7,-2,1,-3,-2,1,2,1
450505937271,0,-6,-5,-6,-8,-4,-4,2
450505943378,0,-3,-6,-7,-2,-7,1,5
450505943378,1,-1,-2,-4,-1,1,3,1
450505958314,3,1,-4,-4,1,-2,-2,-2
450505958314,-4,0,1,1,-1,-3,-3,-5
450505965826,-1,2,1,-1,2,-1,1,-4
450505965826,-4,-2,0,-2,-1,1,-2,-1
450505981358,5,4,3,1,0,-1,-1,2
450505981358,-5,-2,-2,0,3,0,-5,-3
450505982195,2,2,-3,-1,-4,-1,-7,-2
450505982195,-1,-2,0,-4,-1,-3,-4,0
450505997284,-2,-1,0,-3,-3,2,-1,0
450505997284,0,-1,-5,5,0,1,0,2
450506003259,-3,-4,-3,-3,-1,0,2,-2
450506003259,-1,-3,-2,1,-3,0,-4,0
450506026440,0,-3,1,0,-4,-7,-3,-2
450506026440,-4,-3,2,-5,-2,-1,-4,1
450506027207,0,-2,-2,-1,-1,-1,1,-5
450506027207,-3,4,-6,0,3,-4,-2,-5
450506041419,0,-4,-4,0,0,-3,3,-2
450506041419,3,0,-5,-2,1,2,4,3
450506042175,-4,-5,2,4,1,0,0,3
450506042175,4,1,-1,-1,-6,-6,-3,-5
450506057248,-5,2,-4,0,-1,0,0,-4
450506057248,-2,1,-3,-2,-6,2,-2,-3
450506063298,-3,-8,-1,0,0,-2,-3,-2
450506063298,-5,-5,-4,-1,-1,-1,4,2
450506078285,-5,-5,-6,-4,-3,0,-1,-4
450506078285,-4,-5,-5,-2,-2,-1,5,-1
450506085757,-2,4,1,-2,-6,0,-1,-3
450506085757,-2,-1,2,-2,-5,1,-4,-2
450506101398,-4,0,0,2,-1,-5,-3,-2
450506101398,-4,4,1,-9,-1,-6,-4,-4
450506102156,0,2,-2,1,-1,2,-1,0
450506102156,1,-1,-1,-1,0,-3,4,2
450506123916,-2,-1,-1,-1,3,2,1,0
450506123916,6,-5,1,0,-3,-2,-2,-1
450506124748,1,1,-2,-1,-4,-3,2,-4
450506124748,-1,-2,0,-4,-2,3,5,-4
450506138284,-2,-2,-2,-5,-4,-2,-2,2
450506138284,-2,-1,1,0,5,-2,-5,-2
450506145789,0,-3,-4,-7,-7,-2,0,-2
450506145789,3,0,1,3,3,-2,0,4
450506161419,-1,0,2,0,-5,1,-1,-2
450506161419,0,3,3,-2,-1,-5,4,0
450506162241,-2,0,1,-3,-3,-2,-4,-1
450506162241,2,0,0,0,-2,-1,0,2
450506177196,-1,-1,-3,3,1,-2,7,2
450506177196,0,-4,-2,4,-3,-2,-3,-1
450506183317,1,0,-5,-3,4,3,2,1
450506183317,-4,-4,-3,-4,-1,-2,-2,-2
450506198267,2,-2,1,2,3,-1,-2,0
450506198267,-3,-4,7,-6,-4,-1,4,-2
450506205740,-7,-4,0,-5,-4,-6,-7,-2
450506205740,-4,4,-4,-3,-5,-3,-7,-3
450506221443,-3,3,1,-1,-3,1,2,-1
450506221443,2,0,1,5,-1,0,-3,3
450506222263,-2,-2,-1,0,-2,-4,-1,-1
450506222263,0,-2,-1,-3,1,-2,-1,-1
450506237214,0,2,-1,-6,-3,0,-1,0
450506237214,-2,-4,-2,1,3,0,5,0
450506243234,5,0,0,0,3,-1,0,0
450506243234,-3,-1,0,3,-1,2,1,0
450506258237,2,-2,2,3,0,-2,-1,0
450506258237,-2,-2,2,-2,0,0,-2,0
450506265776,2,-1,1,4,3,1,3,0
450506265776,-4,0,0,0,-2,-1,1,0
450506281446,-2,0,3,1,-1,0,-3,0
450506281446,-8,-2,-2,-5,-4,-1,-2,-3
450506282214,-2,1,-4,0,0,2,1,1
450506282214,-4,6,3,1,-1,1,0,-3
450506305419,-4,-1,-2,-7,-9,-3,-5,1
450506305419,5,-1,-4,-2,-4,-2,-4,-3
450506306177,-2,-3,0,-2,2,1,-1,-2
450506306177,1,-1,-2,-4,-2,1,-2,-4
450506318275,-3,-4,-4,-1,0,3,-3,-4
450506318275,-4,-1,-2,1,-5,-1,2,2
450506325697,2,0,5,-1,2,0,-1,-2
450506325697,2,-1,1,-2,-1,-1,0,-3
450506341389,-1,0,-3,-2,-2,-2,-4,-1
450506341389,-2,-2,0,2,7,1,0,-3
450506342140,-4,2,2,-2,-6,0,1,-1
450506342140,-4,-2,-3,2,0,-3,-1,-2
450506357272,-4,4,1,0,1,-2,-2,-6
450506357272,0,-2,-1,-5,-1,-7,-3,-4
450506363232,2,-2,-4,-2,-4,3,-5,4
450506363232,-1,-6,-5,-2,7,-5,2,0
450506378286,3,3,-4,-5,-2,-3,-3,-4
450506378286,-4,2,-7,0,-6,0,2,3
450506385808,-2,-3,-4,0,-2,-4,2,1
450506385808,2,-3,0,-3,-6,-2,-1,-1
450506401400,0,1,1,1,1,-1,5,3
450506401400,1,1,-4,-2,-2,-1,1,-3
450506402241,-5,-2,-2,-4,-7,-6,-3,-1
450506402241,-2,-4,-5,-7,-6,-3,-5,-4
450506417282,1,-8,-3,-3,-5,1,0,0
450506417282,0,-1,-5,-1,1,1,-6,-4
450506423269,-1,-2,-3,0,-1,-4,1,-3
450506423269,2,1,0,-2,-2,0,-2,1
450506438257,2,-2,4,4,1,3,6,-1
450506438257,-3,0,1,-2,-7,-5,-1,0
450506445744,-1,-1,-1,1,6,-2,0,0
450506445744,2,-5,1,1,-2,3,-3,-1
450506461440,3,-3,2,-5,0,2,-2,-1
450506461440,-5,-1,0,0,-1,0,1,-4
450506462288,-3,1,-1,3,2,3,2,1
450506462288,-2,0,0,-2,-2,0,-1,0
450506477309,-3,-2,-4,-5,-2,-6,-5,-2
450506477309,-3,-1,2,3,0,-4,0,1
450506483294,-1,-3,-4,-6,-2,2,0,-1
450506483294,3,9,-6,0,2,-1,-2,0
450506498283,-4,-3,0,-1,4,1,-1,3
450506498283,2,-4,1,-2,4,2,-4,3
450506505842,-2,-2,1,-2,-2,0,1,3
450506505842,-5,-5,-3,1,0,2,0,6
450506521496,-2,2,-2,-1,0,-4,1,-1
450506521496,1,1,3,-1,1,0,-1,2
450506522213,0,-1,-1,-1,-1,2,-6,-4
450506522213,4,-3,3,1,-1,0,4,2
450506537296,-2,-2,4,-1,-3,1,-5,-2
450506537296,-1,2,-3,-3,-3,2,2,-1
450506543341,1,-1,-3,-4,-4,-1,3,-1
450506543341,-3,-1,-1,1,5,1,-2,2
450506558319,-2,-4,-1,-2,-3,-1,-1,-1
450506558319,2,-4,-1,3,-1,0,-4,2
450506565844,-4,-7,3,3,2,1,1,-2
450506565844,-1,2,-5,-2,0,0,2,-2
450506581455,-2,-1,-7,3,3,0,-1,-1
450506581455,-4,-3,1,-4,0,0,0,1
450506582200,-2,9,2,1,-2,-6,-1,1
450506582200,2,-1,0,1,2,-2,0,2
450506597253,0,-6,-3,3,-2,2,4,-2
450506597253,-2,0,-1,0,0,2,2,-3
450506603284,-3,1,-2,-1,1,-1,-2,-1
450506603284,-3,-2,0,0,-1,-1,5,1
450506618263,0,-1,1,-7,-7,0,-3,-2
450506618263,-2,0,-5,-7,-6,-1,-1,1
450506625735,-1,-9,0,-3,1,-1,3,-3
450506625735,-2,1,-3,-2,-3,-2,-1,-3
450506641453,-1,-2,0,0,3,-2,2,3
450506641453,0,0,3,1,-7,-2,2,1
450506642188,-2,-6,-3,1,3,6,2,-2
450506642188,0,-3,1,-4,0,-1,-3,-1
450506657228,-2,2,0,2,0,-2,-7,-1
450506657228,2,-1,-4,-2,2,1,3,0
450506663300,-1,6,-4,1,-2,-5,2,1
450506663300,2,-2,-2,-1,1,0,-1,-2
450506678256,0,3,0,-2,0,-1,3,1
450506678256,-5,-5,-3,-2,3,-3,-2,1
450506685758,3,1,1,3,1,-1,2,-3
450506685758,-3,-3,0,-2,-3,-2,0,-2
450506701500,0,-2,-5,-5,-5,-4,-3,-3
450506701500,1,1,-2,-4,0,-4,-6,-2
450506702226,-3,1,-4,5,0,2,-5,1
450506702226,1,3,2,1,0,-1,-1,2
450506717278,-4,3,-2,-5,-2,0,2,-1
450506717278,2,4,-1,6,2,-5,-6,-6
450506723326,-1,0,1,-1,0,1,1,0
450506723326,-5,-5,-5,3,-2,3,-2,0
450506738325,2,-7,0,3,0,1,-1,-1
450506738325,-6,-5,-3,-2,-1,1,5,-1
450506745787,5,-4,-1,-2,-4,-2,-8,-4
450506745787,-4,-5,-4,0,-3,-3,-3,-3
450506761461,-1,-2,1,2,2,2,-4,-1
450506761461,-1,-1,0,3,-5,1,0,-3
450506762251,3,-2,4,-4,-3,0,0,2
450506762251,-1,-1,-4,-3,-2,-1,-3,-2
450506777308,-2,-5,-1,-5,-5,-5,-1,-1
450506777308,2,-2,-1,-5,-6,0,1,0
450506783284,-2,4,2,-3,-3,2,-1,0
450506783284,0,-2,-2,-4,0,-5,-3,-2
450506798281,2,5,-4,0,-2,2,-7,3
450506798281,-2,1,6,1,1,-1,3,-6
450506805762,-3,-5,-3,-7,-5,-7,-2,-5
450506805762,-4,-7,2,5,4,-1,2,-2
450506820846,-3,-4,-3,-4,-3,-1,4,0
450506820846,1,0,-4,0,-1,-2,1,3
450506828339,-6,-4,0,3,2,-2,1,-4
450506828339,-2,-3,-1,-2,-7,-1,2,-1
450506837342,-2,-1,4,1,0,-7,2,2
450506837342,4,-2,0,-3,4,-3,-1,2
450506843308,-5,-5,-2,-4,-3,-3,-1,-5
450506843308,-1,3,-1,-3,-7,-1,-3,-2
450506858292,0,1,0,1,3,-4,1,-4
450506858292,1,-1,2,3,3,1,-3,0
450506865845,0,2,2,1,1,0,-1,0
450506865845,2,1,8,4,5,-5,0,-2
450506880740,-6,-3,-4,3,1,3,1,0
450506880740,-6,-1,3,-3,-4,-2,-3,-2
450506888265,-1,-1,-3,-1,-1,-2,-4,2
450506888265,-3,1,-1,-3,-5,0,-1,-3
450506903933,-3,-6,-1,-8,-6,0,-2,0
450506903933,-1,-4,-5,0,1,5,3,0
450506904716,-2,-5,-2,-2,-5,0,0,0
450506904716,1,3,0,-3,-1,0,2,1
450506918248,3,-6,1,-7,-5,-4,-3,0
450506918248,2,-4,1,-5,-1,0,1,-3
450506925848,2,-10,-2,-7,-3,-2,-5,0
450506925848,1,4,-5,-6,-4,1,-2,0
450506940798,-2,4,-2,-2,2,-8,-4,-1
450506940798,-2,1,-3,-3,-4,0,-4,-3
450506948267,2,2,5,0,-1,4,1,0
450506948267,0,2,-2,-5,-4,-3,1,-3
450506963926,1,0,1,-4,-3,3,0,-3
450506963926,-1,0,-2,-5,-4,-2,-4,2
450506964728,-4,3,2,1,2,-4,3,-2
450506964728,-5,-7,0,-2,-2,1,-3,-2
450506978254,1,-4,-9,-2,3,6,0,-3
450506978254,-4,-2,-2,1,-6,-4,1,-1
450506985804,3,5,-4,-1,1,1,-3,0
450506985804,3,-1,4,-1,-3,-2,0,3
450507000841,-3,-5,0,1,0,2,0,0
450507000841,-8,-5,-2,-7,-4,-1,-1,-2
450507008281,-3,1,-1,-6,-4,-3,0,1
450507008281,-4,-2,-2,-2,-3,2,1,1
450507023967,-1,-4,-1,-2,-1,-1,0,-1
450507023967,4,-2,-3,-1,0,1,0,-2
450507024722,-1,-2,-1,-3,-6,-3,2,-5
450507024722,-5,-1,0,-2,-5,-2,-1,0
450507046435,-3,-3,2,0,0,-6,-2,0
450507046435,-3,-7,-2,-1,5,0,1,-1
450507047249,-4,-5,-4,-3,-1,-3,0,-3
450507047249,4,0,-4,-5,-9,-4,-2,-1
450507060852,2,5,-2,-1,-5,2,2,-1
450507060852,-2,3,1,-3,-7,-4,-4,0
450507068281,-1,-1,-1,-3,-6,-5,-4,0
450507068281,-2,1,6,0,1,-6,-3,-5
450507083982,-2,-2,0,-4,-4,-4,1,3
450507083982,-2,2,1,-2,-4,-5,-4,-1
450507084778,2,-2,-3,-6,-9,2,0,0
450507084778,2,-1,-3,-2,0,0,0,5
450507098229,1,-3,0,0,-2,0,-1,-3
450507098229,-2,2,6,4,0,-2,-1,1
450507105735,-2,-2,1,5,-2,-4,2,3
450507105735,1,-5,-3,-5,-3,2,1,-5
450507128991,-3,-2,-3,-1,-1,-2,-3,-2
450507128991,-4,-3,-5,-2,-2,1,-2,1
450507129780,1,3,0,-1,-2,3,0,0
450507129780,-3,-5,0,2,-1,-2,-1,-2
450507143910,-1,0,-1,4,0,-1,2,-3
450507143910,1,1,0,-4,-6,-4,2,-1
450507144736,-2,-5,-4,-2,2,-2,-2,-1
450507144736,-1,-3,2,1,-3,-7,0,-2
450507158207,-5,-1,-4,-1,2,1,0,3
450507158207,1,-1,-2,1,-1,-3,-1,-1
450507165772,0,1,2,3,1,0,-3,-1
450507165772,1,0,-1,-4,-5,-1,-3,-2
450507180852,-2,-2,0,-1,-2,-6,-2,-1
450507180852,2,-2,0,1,0,1,-2,-3
450507188359,-4,-3,-2,-2,-1,-5,-4,0
450507188359,-1,1,-4,-3,0,3,-2,-1
450507203896,3,-3,-2,-4,-10,-3,-6,-3
450507203896,-4,-1,-4,-7,-1,-5,-2,-1
450507204707,-2,-2,-5,-1,2,-1,4,-2
450507204707,-1,-4,1,1,5,5,-2,5
450507218306,3,3,-1,-1,2,-2,1,0
450507218306,3,0,-2,0,0,3,-2,2
450507225840,-5,-2,0,-3,3,-1,-4,2
450507225840,-1,-4,-5,-2,-3,-2,-5,-5
450507240717,-3,0,3,-6,-5,-3,3,-2
450507240717,-3,-4,-2,-3,-4,-1,-3,3
450507248318,1,0,0,-4,5,-7,2,-3
450507248318,0,-2,-3,0,1,-4,5,-1
450507263934,-1,-5,-1,1,-2,3,-1,-3
450507263934,1,-2,2,-3,-2,-2,-1,-6
450507264687,0,-1,-4,1,-3,4,-2,-1
450507264687,-2,-4,0,-2,0,-4,1,-1
450507278288,-2,-1,-6,-3,0,-2,-6,0
450507278288,-3,0,1,-3,-1,-5,2,1
450507285786,0,-3,1,2,-1,4,0,-2
450507285786,0,-3,-4,-4,2,-3,-1,-3
450507300787,3,0,-1,4,-1,3,2,1
450507300787,1,0,-1,-4,0,-1,-4,-2
450507308319,1,5,2,-4,-2,-1,-6,0
450507308319,-1,3,0,3,0,5,0,3
450507323964,1,-1,0,1,5,-4,1,1
450507323964,-1,1,-2,3,3,3,1,-3
450507324715,-2,-4,-1,3,-5,-3,-3,-6
450507324715,-2,-5,0,-4,-3,-1,-4,0
450507338248,-2,1,0,-5,-5,-2,1,0
450507338248,0,-3,2,3,0,2,1,2
450507345817,-1,-1,-4,-5,-3,-2,-3,-1
450507345817,2,-3,0,0,-4,0,1,4
450507360793,-6,-4,-2,-4,2,-3,3,-1
450507360793,-3,-2,-8,-4,-1,-2,4,2
450507368188,1,5,3,2,-3,3,1,4
450507368188,2,0,5,0,-4,-2,-2,0
450507383934,-1,2,-4,-8,-4,-1,-4,1
450507383934,1,-1,-1,-5,-2,2,-4,1
450507384739,1,5,0,-1,-4,3,5,-2
450507384739,-4,-2,0,1,-4,0,1,0
450507398347,-1,4,0,-6,-2,-2,-5,-2
450507398347,-2,-4,-1,-4,-1,-3,-2,-3
450507405751,-2,-3,-2,-2,0,-3,-4,-2
450507405751,-6,1,-2,-5,2,-2,-1,-6
450507420833,-2,-7,-2,1,4,3,2,-3
450507420833,-2,0,-1,-3,-6,-2,0,0
450507428319,-1,-2,2,-7,-3,-2,0,-2
450507428319,2,7,-1,0,2,0,0,2
450507443935,3,-2,2,-1,-12,2,1,0
450507443935,1,-1,-2,-5,1,-4,-3,-3
450507444728,-5,-4,-3,1,8,1,-2,2
450507444728,-2,0,-2,-5,0,0,-6,-3
450507458351,-1,6,2,4,5,3,-2,0
450507458351,2,-7,-2,0,-1,3,0,5
450507465779,-1,-2,-5,-6,-7,-3,-4,2
450507465779,-4,-2,-8,-9,1,-4,-2,-4
450507480765,-3,1,-4,0,-2,-4,-2,6
450507480765,-1,-2,-5,1,-3,-7,-2,-8
450507488296,0,2,-2,2,1,-3,-2,-2
450507488296,-6,-2,1,2,0,3,-3,3
450507503941,-4,-3,0,-2,-3,-1,-1,-4
450507503941,-4,1,-5,6,-1,2,1,0
450507504746,3,-5,-1,-1,-3,-3,0,1
450507504746,-1,1,1,0,-3,1,-3,1
450507518363,6,-4,3,-2,-2,0,-1,0
450507518363,-8,-7,1,4,1,-2,-6,0
450507525764,-6,1,-4,-3,-6,1,3,-4
450507525764,-3,-7,-1,-2,-2,1,3,-1
450507540808,1,3,-4,1,-1,-3,2,-5
450507540808,3,-1,0,-1,3,0,2,-3
450507548357,-2,-4,-4,-2,-1,3,-2,0
450507548357,0,-2,-3,-1,-4,0,2,-1
450507564012,-2,-3,1,1,-5,2,-2,-1
450507564012,0,2,-2,-7,-2,0,0,0
450507564790,-1,-7,-3,-2,3,-1,0,-2
450507564790,0,1,-2,-1,0,3,-3,0
450507578263,1,0,-3,-1,0,-1,-2,-2
450507578263,-2,-2,0,-6,-5,1,-6,-4
450507585764,1,-1,3,6,2,3,1,3
450507585764,0,0,-5,0,3,2,-2,-4
450507600841,-5,-2,1,2,3,-2,0,-1
450507600841,1,1,3,1,0,-1,-1,3
450507608300,-2,2,1,3,6,2,0,2
450507608300,2,-5,0,1,3,2,-6,2
450507623990,-2,-4,-3,0,1,1,2,-2
450507623990,2,-1,2,4,-2,-3,-2,-2
450507624793,1,1,4,4,0,-2,3,-2
450507624793,1,0,1,-1,6,-6,4,2
450507638272,2,1,-5,-3,-2,2,-7,1
450507638272,2,0,-2,1,2,0,-8,1
450507645815,-2,-2,-3,-2,-2,-6,1,-3
450507645815,0,-1,2,3,-3,1,4,-3
450507660863,1,-3,0,-3,-6,-2,3,-1
450507660863,-4,-5,0,-1,0,-1,5,-3
450507668348,-2,-1,-2,-3,-1,6,0,-2
450507668348,0,-4,-3,-3,-11,-4,1,-2
450507683765,-2,-1,-2,-1,-2,-1,-5,-4
450507683765,2,4,-2,-2,-5,-2,-5,0
450507691546,2,1,1,-2,-3,1,0,0
450507691546,-2,-2,0,0,-1,-2,-2,0
450507698319,0,-4,0,-1,1,-2,-1,-1
450507698319,-1,1,-3,-5,-3,1,0,0
450507705772,-4,-7,-3,-1,-2,1,0,-3
450507705772,0,-2,0,-2,-4,-4,-2,0
450507720785,-1,0,-3,-3,1,-5,-5,-4
450507720785,-2,-2,-1,3,2,5,4,0
450507728337,2,5,2,1,1,0,-5,-6
450507728337,-3,0,-2,0,3,5,2,0
450507743294,-2,0,5,-1,1,2,-3,3
450507743294,0,-2,3,5,1,1,1,-5
450507751464,-3,2,-6,5,1,1,-2,0
450507751464,1,-1,-3,0,1,-1,-3,-2
450507758344,0,-2,0,-7,-4,0,-6,0
450507758344,-3,2,0,-4,0,2,2,0
450507765802,-3,2,2,-2,-3,0,6,2
450507765802,2,2,1,0,0,-2,-3,-3
450507780877,-5,-4,-4,-2,1,-2,0,-2
450507780877,-2,-2,-1,-1,4,-1,1,-3
450507788396,0,-1,-3,-3,1,-7,-2,-2
450507788396,-1,0,1,-1,-2,-1,-5,-4
450507803222,-5,-3,-4,0,1,3,2,0
450507803222,0,1,-3,-2,-6,-5,0,-1
450507818998,-2,2,-4,-9,-1,-1,0,-4
450507818998,1,1,4,-3,0,-3,1,-3
450507826433,-3,3,-1,6,1,1,-1,-1
450507826433,1,1,1,-4,-4,-2,0,2
450507827229,-1,-4,-5,0,-2,-5,-3,-2
450507827229,-1,-2,-4,-1,-2,0,0,-1
450507840782,0,-2,-1,-7,-1,-2,3,-1
450507840782,-1,4,2,-2,-5,-3,-5,-1
450507848321,-1,-2,1,1,-1,5,0,3
450507848321,-2,0,-1,-4,0,3,3,1
450507863302,-1,-2,-5,-4,-5,-6,-2,-5
450507863302,-6,-7,1,-5,-1,4,3,3
450507871542,0,-1,2,-4,-7,-5,-4,0
450507871542,-5,-1,-3,0,1,2,-1,2
450507886468,3,4,6,0,-7,3,-2,-2
450507886468,-2,-3,-1,-3,1,-6,0,-1
450507887264,1,0,-1,1,0,-2,-2,-8
450507887264,0,7,3,2,-6,1,0,3
450507900812,3,-4,-1,-1,-1,1,0,-3
450507900812,5,-5,-3,-3,-5,-2,-4,-1
450507908363,1,-3,-1,-5,-6,-1,2,-4
450507908363,-2,-3,-7,-4,-1,-1,1,-2
450507923373,2,5,1,-2,-4,0,4,4
450507923373,-3,3,-6,-1,-7,-3,-1,-1
450507931511,1,-2,6,-5,-3,3,-4,1
450507931511,-1,-1,1,-4,-7,-2,-5,-4
450507946455,1,1,-2,3,-2,0,0,-6
450507946455,-3,-1,1,1,1,-4,1,-2
450507947253,3,0,1,2,0,-2,0,2
450507947253,1,2,4,3,1,-2,1,3
450507960843,2,-4,2,2,4,4,0,0
450507960843,3,1,-3,0,-4,-1,1,-2
450507968304,-4,-1,-4,-7,-9,3,0,-3
450507968304,-1,0,-2,-5,2,-1,1,0
450507983314,-4,-2,-3,-6,0,0,1,-4
450507983314,0,0,-2,3,2,2,1,1
450507991434,1,-6,-4,-7,-3,-4,1,-2
450507991434,1,-2,-4,-3,0,-4,-2,-1
450508006578,-4,0,2,0,4,1,-2,0
450508006578,4,-2,0,-5,-3,-1,-1,-4
450508007247,-1,1,3,1,-1,-6,-4,0
450508007247,-3,-8,-1,-6,-7,0,-3,-6
450508020806,1,-2,-2,-1,-5,-3,-6,0
450508020806,-1,3,2,-5,-3,4,-2,1
450508028353,-2,2,-2,1,1,-1,-3,-2
450508028353,0,0,-1,3,-2,7,3,1
450508043335,-3,-4,-3,0,1,-1,4,0
450508043335,1,-2,-3,1,-2,-2,-1,-1
450508051550,1,-4,2,3,3,1,3,5
450508051550,3,2,-1,0,-1,-2,0,2
450508066494,-2,-4,-2,-2,0,-1,0,4
450508066494,-6,-2,0,-1,-3,3,3,-2
450508067285,-5,-2,0,2,4,-4,-8,-1
450508067285,-1,0,0,-2,-4,2,-2,1
450508080819,-2,-3,-1,0,4,-3,0,0
450508080819,-1,-2,1,-2,-3,2,-1,1
450508088303,1,0,2,-2,0,-2,1,-1
450508088303,-4,-1,-5,5,3,-2,0,2
450508103280,-1,-3,0,3,0,0,3,1
450508103280,3,4,3,-4,1,-2,-4,-3
450508111524,-2,-1,-5,1,-5,1,0,-1
450508111524,0,3,4,-4,0,-3,-2,1
450508126426,-4,3,-7,-7,-4,-5,-3,-2
450508126426,-2,1,-1,0,0,1,-1,-4
450508127187,1,-4,-2,-2,-3,0,-1,-1
450508127187,-1,3,4,1,5,0,-1,-2
450508140825,0,-2,-3,-4,-2,1,-4,0
450508140825,-3,-2,-2,-3,0,-3,-5,-2
450508148320,0,1,4,-5,-3,3,-1,-1
450508148320,-1,-1,0,-2,-6,0,-5,-4
450508163335,0,-1,1,-5,-3,-4,-1,-1
450508163335,0,0,-1,-4,-4,-4,-3,-1
450508171550,2,3,-3,3,2,3,-2,0
450508171550,-5,-6,-4,-3,-3,-3,-3,1
450508186411,0,-4,-1,-1,0,0,0,5
450508186411,-3,-4,0,-1,-1,-2,0,1
450508187251,1,-2,2,5,1,-4,1,-1
450508187251,1,1,1,2,-1,-1,5,3
450508200846,1,3,3,0,1,-2,0,-2
450508200846,-1,-2,-6,-1,-5,-2,2,1
450508208307,-1,-2,0,-3,0,-2,-3,3
450508208307,1,-6,-4,-1,3,1,-7,-4
450508223291,0,1,-3,2,0,2,3,-2
450508223291,0,2,-4,0,-1,2,-4,1
450508231499,-3,1,-2,-3,-1,3,0,-4
450508231499,-3,2,-1,-2,-3,-1,-4,0
450508246526,2,3,0,-3,-5,-5,0,-3
450508246526,0,-4,0,-2,-2,-6,-4,4
450508247282,0,-6,-7,-6,-6,-2,0,2
450508247282,-1,0,-1,-5,-5,-5,1,0
450508260784,-3,-2,1,-2,-4,-1,-2,-2
450508260784,0,-6,-4,-2,0,-4,4,-5
450508268305,-6,-3,-2,-3,-3,-6,-5,1
450508268305,-1,0,-4,1,-1,0,0,0
450508283343,-4,-8,-2,-8,-5,-6,-1,-2
450508283343,0,2,0,-4,-4,-3,0,-1
450508291489,4,2,-1,-4,-3,-1,-4,0
450508291489,2,1,3,4,-1,2,-2,-2
450508306452,-8,-1,0,-1,2,-3,-6,0
450508306452,-5,4,2,-7,-7,-4,-4,-2
450508307248,-1,1,-4,-2,-1,0,0,-1
450508307248,-5,-3,2,-1,-1,0,-6,0
450508328958,5,4,-2,2,-4,3,-2,-1
450508328958,-1,1,-4,2,6,-1,-3,0
450508329750,-2,-1,5,-3,-6,1,3,-1
450508329750,-2,-6,-2,-11,-11,-8,0,-4
450508343281,-3,2,0,-2,0,-1,-9,-3
450508343281,-4,-11,-3,-3,-6,3,-1,-6
450508351436,-2,-1,2,-6,-6,-2,-2,-1
450508351436,4,-1,1,3,3,2,2,0
450508366480,2,-3,0,1,-4,0,-6,-1
450508366480,2,0,-2,-3,0,1,1,2
450508367229,0,4,1,0,9,1,-3,-3
450508367229,1,-2,-2,0,2,-2,-1,-2
450508380843,0,-2,1,-3,-2,3,2,0
450508380843,-2,0,-3,0,-1,-3,-1,1
450508388395,-1,-3,-5,-2,-1,-3,-3,1
450508388395,-5,8,0,-3,-8,0,-3,-1
450508403327,-3,1,-1,-2,-2,-5,-1,1
450508403327,-3,-4,0,0,-2,-2,-1,-1
450508411486,-2,2,-2,-5,-7,-2,3,-4
450508411486,-3,0,-6,-2,0,5,-2,-3
450508434625,-3,-2,1,-3,1,-5,0,-2
450508434625,-3,0,-2,-7,1,1,-2,1
450508435484,0,-8,1,0,0,-4,2,1
450508435484,3,-2,-3,-2,-6,-5,-2,0
450508440807,4,1,-4,2,0,1,-1,-1
450508440807,-2,-2,0,-2,-1,0,1,0
450508448275,-6,1,-2,1,1,1,3,0
450508448275,-3,0,-1,-1,-2,0,1,-1
450508463337,-1,-3,1,-7,-9,-3,-4,2
450508463337,3,3,-1,4,-4,2,2,-1
450508479045,2,2,-2,-1,-1,2,-1,-5
450508479045,-3,-7,2,-5,2,-3,2,-3
450508486546,-5,-4,0,-2,-3,2,2,-1
450508486546,0,0,-1,2,6,2,-3,-2
450508487238,-3,0,-5,2,-2,1,-3,2
450508487238,2,1,1,1,2,-2,-2,-1
450508502300,-2,0,-2,-4,7,-2,-1,-3
450508502300,0,1,2,-3,-3,-5,-5,-2
450508508306,5,1,-1,-3,-1,-1,0,-5
450508508306,0,-2,-2,-3,-3,-2,0,-3
450508524781,4,-3,-6,-4,-6,-3,-1,-2
450508524781,-3,0,-3,0,-3,-2,0,1
450508531545,-4,-3,2,-2,0,-4,-5,1
450508531545,-3,2,2,-2,-4,-2,1,-2
450508546496,-4,1,2,2,-5,-3,2,3
450508546496,3,-4,1,1,2,-4,0,1
450508547218,0,-3,-3,0,-2,1,2,3
450508547218,0,0,-1,-3,-1,-3,-4,3
450508568969,1,3,2,5,2,1,3,3
450508568969,-2,1,1,-1,1,2,-3,2
450508569755,-1,2,-1,-3,-3,1,-3,-3
450508569755,0,-4,-4,-2,-1,-4,-4,0
450508583238,2,3,0,-5,-5,1,-2,-6
450508583238,-7,3,-2,-6,-5,-3,-1,-2
450508591547,-4,-4,-2,0,5,-2,1,-3
450508591547,-3,0,-1,-2,0,-1,-4,-3
450508606509,1,-1,0,3,2,1,1,-3
450508606509,-1,-4,-1,0,2,1,-3,-3
450508607262,0,-3,-3,0,1,0,-3,-1
450508607262,1,2,-5,2,2,-2,2,-3
450508620792,0,-3,-3,1,7,3,0,2
450508620792,0,-3,-4,-3,-5,1,0,-3
450508628320,-3,-2,1,-1,-5,1,-6,4
450508628320,1,-2,1,0,2,2,6,-3
450508643322,-4,-3,2,5,-7,1,-2,1
450508643322,-7,-3,-4,-3,-3,1,0,-4
450508651545,2,-1,-2,0,-2,2,-1,0
450508651545,1,-3,-2,1,0,-2,1,0
450508666491,-3,-1,-4,-8,-3,-4,-2,-4
450508666491,2,1,2,-1,0,-3,-2,4
450508667255,0,1,-2,1,0,1,-3,-4
450508667255,0,1,0,-4,-3,-2,-4,0
450508680804,-3,-3,-6,-6,-7,-3,1,-6
450508680804,1,-6,-3,1,0,0,4,-5
450508688319,1,-2,2,-4,-1,-6,2,1
450508688319,3,3,-2,-3,-2,0,-5,0
450508712229,-3,1,-5,-4,1,-2,-3,2
450508712229,0,-1,0,1,2,-5,-3,-3
450508712977,-3,1,-1,4,1,-2,6,2
450508712977,1,0,0,3,6,3,2,5
450508725821,2,1,-1,1,-3,-2,-2,1
450508725821,3,-1,-1,-3,2,4,1,1
450508742253,-4,-4,-5,-1,1,0,-1,0
450508742253,-1,-8,0,1,1,0,1,-4
450508743728,1,0,0,4,5,1,-1,0
450508743728,0,-2,-5,-3,-3,0,1,-1
450508748384,2,6,3,0,-4,-3,1,-4
450508748384,-3,3,0,-5,-5,-6,-1,-4
450508763285,-1,0,3,2,6,2,5,0
450508763285,1,1,3,6,4,-2,1,1
450508771507,5,3,0,-1,-1,-1,-1,-5
450508771507,-4,1,-3,6,1,4,1,3
450508785887,-1,0,2,-5,-5,-2,1,4
450508785887,2,3,-5,-1,-6,-3,0,-1
450508794463,-1,-5,-2,-3,1,-2,0,2
450508794463,-6,-5,-3,-3,-6,-2,-2,-4
450508808995,-1,-3,-4,-4,2,0,1,1
450508808995,-1,1,-1,-3,1,-1,-2,1
450508809786,1,-1,1,-3,-4,0,-2,0
450508809786,-4,-5,-1,-6,-3,-1,0,-1
450508823308,-1,-1,1,0,5,3,0,4
450508823308,0,0,-1,-2,-9,-1,-5,-1
450508831460,-3,-1,2,0,1,-3,0,0
450508831460,-1,-1,-1,0,0,3,0,1
450508845822,1,-2,-1,-1,-2,1,-3,-1
450508845822,-4,0,0,2,-3,4,1,2
450508853965,0,2,-3,0,-1,-1,-4,0
450508853965,-1,-1,-3,0,2,-1,-2,-1
450508868992,-1,-2,-2,-1,-1,-2,2,-2
450508868992,3,1,3,1,-3,-3,3,0
450508869748,-1,-2,-1,3,3,2,3,3
450508869748,0,0,-2,0,-7,-5,-2,0
450508883347,-4,2,-6,-4,-7,-5,-2,-5
450508883347,-3,-4,-3,1,2,-3,0,2
450508891522,2,1,-1,-3,0,-2,3,-4
450508891522,1,2,1,-3,-3,3,-6,-2
450508905785,2,-6,-3,2,-2,0,0,-2
450508905785,-1,1,-4,-3,1,3,-2,1
450508914001,-5,-2,-3,-6,-4,0,-1,0
450508914001,0,-1,0,-3,0,-5,0,4
450508928993,-2,5,1,-4,-7,-3,-4,-4
450508928993,-4,-10,-2,-5,2,-3,-2,-2
450508929758,0,0,-7,1,-3,-2,0,-2
450508929758,-4,-4,-2,-2,5,-3,-4,-4
450508943282,-5,-5,-1,-4,-1,-3,-4,-2
450508943282,-4,-3,-5,-6,2,2,-1,-2
450508951512,1,1,0,-2,0,-4,-4,-5
450508951512,0,-3,-3,0,-6,-1,3,0
450508965841,-3,2,-1,1,2,-1,0,0
450508965841,-2,3,-1,0,-1,-4,-1,-1
450508974006,0,-6,-2,-3,-2,-5,-3,-1
450508974006,-1,3,1,0,2,4,2,-4
450508989044,-1,-1,2,-3,-4,-2,-3,-4
450508989044,1,1,1,-3,-6,-3,2,1
450508989769,-3,2,0,6,2,3,1,-2
450508989769,-2,-1,-3,-4,-3,-7,0,-2
450509003365,-5,0,-4,0,-1,-2,0,2
450509003365,0,-2,-2,-4,-5,-3,-2,0
450509011465,0,-1,-2,0,-6,-2,-2,-2
450509011465,-2,-2,-6,-5,-3,0,1,-4
450509025843,-2,-2,-3,-7,0,-4,-4,-1
450509025843,-2,-6,-2,-4,-8,-1,-4,-4
450509034008,4,0,0,-4,-5,0,-1,3
450509034008,1,2,0,-1,-1,-2,-7,0
450509049017,2,-2,0,-8,-3,2,0,-6
450509049017,1,2,4,3,2,-2,3,-1
450509049806,-5,-3,-3,-1,-3,-1,-3,1
450509049806,-2,3,0,-1,-4,0,1,3
450509063337,6,1,-3,0,1,1,-1,-2
450509063337,-2,0,1,-4,3,-5,-3,-4
450509072336,-2,-2,1,-1,-5,-6,0,-7
450509072336,0,3,3,0,-3,-4,-4,-3
450509085836,-1,4,-1,4,1,-8,-3,1
450509085836,0,1,-4,3,-1,2,-2,3
450509094810,-4,-1,-1,-2,-2,1,2,1
450509094810,1,-2,-1,-3,-5,-1,-2,0
450509108269,-1,3,-2,-1,-2,-2,-1,3
450509108269,1,-4,4,-3,-4,0,-1,-2
450509117359,-7,-3,0,-3,5,0,0,4
450509117359,-4,-1,1,0,1,-3,-1,3
450509123335,6,0,3,10,2,7,1,7
450509123335,-2,0,-2,-6,-4,2,-4,0
450509132310,3,2,1,-3,-1,0,-1,3
450509132310,1,-1,-1,-3,-3,2,-5,-1
450509145800,0,-2,0,-2,0,0,-2,1
450509145800,1,0,-2,4,-1,-2,-2,1
450509154748,3,1,5,2,2,-1,-2,-3
450509154748,-2,-2,1,-1,3,-3,-1,3
450509168345,-1,-3,1,3,-2,0,-1,-2
450509168345,4,1,2,-2,-2,-3,0,0
450509177422,-4,-3,-5,-3,0,-1,-2,0
450509177422,-3,0,-2,-3,1,5,2,-2
450509183371,-3,-2,-3,-1,-3,-5,-6,-3
450509183371,-2,0,-5,-1,3,-1,-2,4
450509192312,-2,-1,3,-2,-3,-1,3,-4
450509192312,3,1,0,3,2,0,1,2
450509205811,-7,-1,-1,-9,-3,-4,-5,1
450509205811,0,-3,-1,0,2,2,2,-1
450509214858,3,-4,-2,-8,-2,-3,-9,-2
450509214858,-3,-5,-6,-3,-1,-1,-4,1
450509237195,1,-1,-1,1,2,2,0,-3
450509237195,2,5,3,-1,1,2,-1,-2
450509238803,-6,-7,-5,-2,2,2,-1,-1
450509238803,5,-1,1,-2,-5,-4,-3,-4
450509243304,-1,-1,2,-2,-2,-5,1,-3
450509243304,-1,-1,1,-1,-2,0,-6,-1
450509252349,4,3,-1,1,2,-6,2,1
450509252349,1,-5,0,-2,2,3,-1,-1
450509265902,4,1,-5,-3,-6,0,-3,-2
450509265902,-3,-6,-3,-4,-3,1,4,-1
450509274851,4,4,-1,0,-6,3,-2,-2
450509274851,-1,-1,-2,1,0,-5,0,2
450509288331,-3,-2,-1,-5,-3,-4,2,-4
450509288331,-10,0,0,0,0,-6,-6,-2
450509297337,-1,-4,0,-2,0,0,2,-1
450509297337,-2,-4,0,-3,-3,-1,1,-2
450509303357,3,-1,2,0,-3,4,2,1
450509303357,2,0,1,1,1,-2,0,1
450509312356,-6,-1,-3,1,-1,-2,0,1
450509312356,0,-1,-3,-8,-8,-4,-6,-7
450509325862,-4,-4,2,-4,0,-3,-4,-1
450509325862,-2,-1,0,-7,-6,-4,-2,0
450509334851,5,0,3,-4,-2,2,-4,2
450509334851,-1,2,1,1,0,3,4,-1
450509348333,0,-2,1,1,-3,0,-5,-3
450509348333,0,-2,-4,0,-4,-3,-7,-3
450509357369,-2,2,-2,0,1,0,0,4
450509357369,2,0,-4,-3,-5,-1,0,-2
450509363388,-4,-5,1,-1,-1,-1,3,0
450509363388,1,-2,0,-2,-3,0,4,-2
450509372297,-2,5,-1,2,-3,-2,-3,-2
450509372297,-1,-1,0,-2,-5,-4,-3,-5
450509385879,-2,-3,-7,-1,2,-1,2,1
450509385879,-3,-3,-1,-3,1,1,2,-3
450509394803,-3,-3,-1,-4,-6,-4,-3,-5
450509394803,-6,-3,1,5,5,-3,-4,1
450509408370,-1,3,-5,-1,-5,-2,0,-2
450509408370,5,-4,-2,-2,-3,-1,-1,-2
450509417376,-3,-6,-5,-2,-3,-1,-3,-1
450509417376,-1,2,2,-5,-2,-3,2,-5
450509423371,2,0,0,-5,-6,-3,0,0
450509423371,-2,0,-5,-2,-5,-2,-3,-1
450509432291,-1,2,-1,-1,-4,1,2,0
450509432291,-4,-2,1,-6,-1,-4,-6,5
450509445832,-4,-2,-3,0,-2,-2,-5,0
450509445832,-3,-3,-3,-7,-4,-1,0,0
450509454781,1,1,-1,-7,0,-5,-1,-4
450509454781,-1,-4,-6,-2,-1,-2,0,-1
450509468372,-4,-3,-2,-3,-1,0,-2,2
450509468372,0,1,-3,-1,0,-7,-4,-1
450509477350,-2,-1,-2,2,-4,-5,1,-2
450509477350,2,-4,-1,1,0,-1,1,-1
450509483378,-3,-4,-1,3,2,5,-2,-3
450509483378,-3,-3,-3,-1,0,0,-1,-1
450509492264,-2,-3,-1,-4,1,2,-4,2
450509492264,-7,3,-5,-2,-2,0,0,-1
450509505796,-1,-1,-4,-2,-3,0,-1,-1
450509505796,-2,2,1,-4,-2,-3,-2,-2
450509522317,4,1,0,-3,3,1,-1,-5
450509522317,1,-3,0,0,-3,-2,-5,0
450509528340,2,-1,0,-4,-5,-5,0,0
450509528340,-1,-1,-1,2,-1,2,3,2
450509537365,-2,0,0,1,-6,-2,3,2
450509537365,-3,-2,-1,-3,3,4,-2,-1
450509543338,2,-1,3,-3,-2,-3,1,1
450509543338,6,-1,-1,8,-3,4,-3,-4
450509552382,0,-7,-2,-3,-3,1,-5,2
450509552382,1,-4,0,3,-4,-2,-7,-2
450509565805,-2,-1,0,3,7,3,4,2
450509565805,-4,2,1,-1,-2,-2,-2,-2
450509574884,-5,-4,-2,-2,-1,0,-1,0
450509574884,0,0,-3,-3,1,1,0,0
450509588381,5,2,0,2,0,0,-2,-3
450509588381,-1,4,-3,2,0,0,-1,1
450509597319,2,3,-2,-1,-2,-2,-2,-2
450509597319,-1,0,2,-3,-3,-2,1,-3
450509603340,-2,0,-1,-2,-4,-3,0,0
450509603340,-4,-2,-3,0,-1,0,-2,4
450509612369,-1,3,2,-2,0,-3,0,3
450509612369,-2,1,2,5,2,1,0,-4
450509634684,0,-3,-2,-6,-1,-2,-5,-2
450509634684,0,-2,3,-2,-4,-1,3,-1
450509636309,-3,-4,-7,-4,1,2,1,-2
450509636309,2,-1,-1,1,-1,-4,-2,0
450509648384,2,3,-3,-1,0,-1,2,-1
450509648384,0,-1,1,0,-3,-2,3,2
450509657347,0,1,-1,5,1,6,7,2
450509657347,-1,6,3,-2,0,-1,0,-4
450509663390,-3,-1,-6,-3,0,1,0,1
450509663390,0,4,1,-2,7,-1,-6,0
450509672294,0,1,3,5,0,1,3,2
450509672294,0,-7,-4,-3,-4,-4,5,6
450509685782,-3,-5,-1,2,3,0,1,2
450509685782,-2,-6,-5,-4,1,-1,-2,-6
450509694774,-1,-5,-5,-3,0,-7,2,0
450509694774,3,0,1,-1,3,4,3,-1
450509708338,-2,1,-6,0,-7,-1,-5,-4
450509708338,-3,4,-3,-3,-4,-3,1,-4
450509717385,-2,-4,-1,-1,-2,0,-3,4
450509717385,-2,4,-7,-1,-1,0,-3,-2
450509732209,-2,-1,-1,1,-5,-1,-2,0
450509732209,2,1,2,-1,-3,-3,0,-3
450509733860,-4,1,-6,-6,-6,-3,-4,-6
450509733860,-1,3,2,1,-2,1,0,2
450509745795,-1,1,0,-4,0,-1,0,-3
450509745795,0,0,0,1,-1,1,0,1
450509754894,-1,0,-1,-6,-2,-8,-8,-9
450509754894,0,1,-2,-3,1,-3,0,4
450509768380,0,-1,-2,-1,-4,-1,-1,0
450509768380,1,-2,1,-1,-4,-3,0,1
450509777353,-3,-4,1,0,-3,-3,2,-2
450509777353,0,-1,0,-2,-4,-5,3,0
450509792181,-3,3,3,-1,0,-1,-2,-4
450509792181,0,2,-5,-3,0,1,-4,3
450509793776,5,3,0,3,-3,2,-3,-2
450509793776,-3,0,1,1,-5,3,-4,-2
450509814810,-1,-2,-2,-1,2,0,1,-7
450509814810,-2,-1,2,1,-1,1,-3,-2
450509816298,-2,3,0,-6,-7,3,-6,-6
450509816298,0,2,0,-3,-2,3,1,1
450509828381,-1,-2,0,-5,-6,-6,-2,3
450509828381,-1,-2,0,-2,-5,-2,-2,-6
450509837396,2,-3,0,-2,1,-4,-2,0
450509837396,0,-1,-1,-4,-1,-2,-3,-4
450509852217,-1,-2,-2,-1,0,-3,-3,-2
450509852217,-5,-1,-4,-1,-4,-5,0,-4
450509853841,1,1,0,-1,-2,1,1,2
450509853841,-2,-7,-6,-5,-5,-4,-2,-1
450509865839,-1,-2,3,0,1,-3,-1,-1
450509865839,-1,2,-5,-4,-8,1,-1,0
450509874860,-5,-2,1,0,-1,-5,1,-2
450509874860,-6,-1,-5,-4,-3,-2,-1,0
450509888357,-1,1,1,-1,-4,3,-1,-2
450509888357,0,0,0,1,4,1,-3,0
450509897332,-1,3,-3,1,-1,1,3,4
450509897332,-5,-2,-6,1,-3,-1,-4,4
450509912165,0,4,4,2,1,-1,1,2
450509912165,1,-2,0,-3,3,0,-1,-2
450509913802,2,1,-1,3,4,2,1,1
450509913802,0,-2,-1,2,2,4,1,-4
450509925765,-2,-7,-3,0,-1,-4,-3,-6
450509925765,0,0,-1,2,2,-4,-6,1
450509934841,-2,-4,-3,0,1,-2,3,-1
450509934841,4,-5,0,1,4,-1,0,-1
450509948305,0,3,1,0,-3,3,-1,-2
450509948305,-1,-2,4,-2,-3,-2,0,-2
450509957385,-4,0,1,-2,2,0,-3,-4
450509957385,4,1,0,-5,-1,3,3,-3
450509972210,-4,1,-4,-1,3,4,1,4
450509972210,-1,2,1,0,3,2,-2,3
450509973800,0,-2,0,0,1,-1,-1,2
450509973800,-2,-1,2,2,1,0,-1,4
450509985808,2,-2,-2,-1,-5,-2,1,-1
450509985808,-3,-3,-7,-4,1,2,2,-3
450509994824,1,-3,-4,-3,-3,-3,-7,-2
450509994824,-1,-3,-1,4,1,0,0,-1
450510008393,-2,-4,-4,-6,-2,-5,-1,3
450510008393,-5,-6,-5,-2,-2,-2,3,2
450510017276,2,-3,2,2,-2,2,-2,-2
450510017276,0,-3,-1,-3,0,-1,-1,0
450510032162,1,2,0,4,0,-3,-3,-1
450510032162,2,-3,-3,-2,-4,-1,6,4
450510033733,-4,4,-1,-2,-3,0,1,-1
450510033733,1,2,5,2,-1,-3,4,-4
450510045840,-2,3,-3,-5,-5,2,-2,1
450510045840,2,-1,5,0,-1,0,-5,-4
450510054835,-1,-1,0,-2,-2,-2,-3,1
450510054835,1,0,2,5,-1,-1,-2,4
450510069055,-1,-5,0,-1,2,0,3,-5
450510069055,2,0,-1,1,3,-2,2,-4
450510075789,0,-4,-4,1,-6,1,3,0
450510075789,-3,0,-3,-8,-1,-2,-2,-1
450510092213,-2,-4,-2,-2,-5,2,-1,-1
450510092213,-1,4,1,3,2,0,1,1
450510093808,1,2,4,0,3,-1,-3,-1
450510093808,0,4,-1,-2,-5,3,4,-2
450510105743,2,3,-4,4,-1,1,0,4
450510105743,0,-4,-5,-2,2,2,0,4
450510114835,-3,-4,-2,4,5,6,7,2
450510114835,1,3,2,1,-4,-3,-1,4
450510129055,-2,-1,3,-6,-5,-1,-5,-5
450510129055,2,-3,0,-2,-7,0,-4,-2
450510135869,-3,0,-1,-3,-2,-3,-1,-1
450510135869,0,-1,-2,-2,-1,0,-5,-5
450510152216,-1,-4,-1,-1,-2,-1,-1,3
450510152216,2,0,2,-1,-4,-6,1,4
450510153778,2,-5,-1,-5,-4,-3,2,-3
450510153778,-2,-6,-3,-2,-3,1,1,-3
450510165830,-6,-3,-2,-6,-1,-4,-4,0
450510165830,1,1,-3,-1,-4,2,-2,-3
450510174802,-3,-2,-4,-3,0,-2,-3,1
450510174802,-2,10,-4,2,0,-1,0,-5
450510189041,-1,2,1,-1,-1,0,0,-3
450510189041,-2,-5,-1,0,1,2,-4,-3
450510195889,-1,-2,0,-1,2,-4,0,-2
450510195889,5,-1,0,2,2,-1,-3,-2
450510212214,2,-2,-2,1,3,-1,-2,2
450510212214,-3,3,-1,0,3,3,1,0
450510213803,1,1,1,-2,-5,-2,-1,-6
450510213803,-3,-8,-1,2,2,-2,0,2
450510234682,-1,2,0,-1,-2,4,3,-2
450510234682,0,-3,3,-1,-4,-5,0,-6
450510236320,0,-2,2,0,0,-5,0,2
450510236320,0,-10,1,-4,0,2,4,3
450510248982,-1,-3,-3,0,1,-2,-2,-1
450510248982,-5,-6,-3,-2,-1,-2,2,0
450510255908,0,1,-1,-1,-4,2,-2,2
450510255908,-3,-1,4,-5,-4,-5,-2,-1
450510272218,-1,-2,-2,2,1,2,1,-3
450510272218,-2,0,-1,0,3,1,-3,-2
450510273764,2,0,-5,1,3,2,1,-2
450510273764,-2,4,0,-2,-5,0,-2,-6
450510285808,3,-2,0,0,-1,-5,-1,-5
450510285808,-4,6,-1,0,-4,-3,-6,1
450510294809,0,-3,-3,-1,4,1,-3,-2
450510294809,3,2,1,-2,1,-1,-7,1
450510308300,1,-2,-3,-1,1,-5,-3,-1
450510308300,-2,0,1,-2,-2,-4,-2,-5
450510317326,2,1,1,2,0,-2,-2,0
450510317326,-1,-1,2,1,-3,2,0,2
450510332206,0,1,3,3,5,2,4,-1
450510332206,-2,-3,-3,-9,-4,1,-4,1
450510333835,-6,1,-2,-2,-4,-3,1,-6
450510333835,-2,1,-2,1,-3,1,-2,0
450510345923,2,2,6,-6,-2,0,1,-1
450510345923,5,-4,-6,3,1,0,3,1
450510354860,1,-5,0,0,1,0,-4,4
450510354860,-2,-1,-3,2,-2,-1,0,-1
450510369033,-5,-4,-3,-1,1,3,-1,-1
450510369033,-1,1,1,-1,0,-1,-1,0
450510375851,-1,0,4,0,-2,-2,-1,0
450510375851,-4,1,-4,1,1,-4,0,-5
450510391267,-3,3,-3,-1,-5,-3,-2,0
450510391267,2,3,-3,0,3,-3,-3,-1
450510399818,1,-1,-2,-1,-2,3,-2,-3
450510399818,1,-1,-1,-3,1,-2,-1,2
450510405860,-4,-1,-3,-1,-5,-2,-3,0
450510405860,-2,-3,1,-4,-4,-7,-4,-2
450510414857,2,2,-1,-2,0,-1,-4,-1
450510414857,1,-6,-2,0,2,-2,-1,3
450510429050,0,-3,-3,-6,-3,-1,4,3
450510429050,-6,-3,-1,3,0,-1,1,1
450510435843,-5,-1,-2,-6,-6,0,-3,-1
450510435843,-1,2,-1,-6,-5,-4,-4,-6
450510452342,2,0,-3,2,6,-4,0,1
450510452342,-1,2,3,0,-2,1,1,5
450510453830,-1,6,1,2,1,0,1,-5
450510453830,-4,0,-5,1,3,3,1,-1
450510465865,1,1,-1,-7,-8,-1,0,0
450510465865,2,3,-1,-2,-2,-2,1,0
450510474838,-2,-4,-2,-4,0,0,-5,3
450510474838,3,0,-4,-3,-3,0,-5,-2
450510489103,1,0,2,1,0,-5,-5,-5
450510489103,2,-10,-2,1,2,-2,1,-4
450510495878,1,-6,-5,0,2,-3,1,-1
450510495878,-2,-5,-1,-7,-6,-3,-1,-1
450510512247,-5,-1,3,1,1,-2,0,-2
450510512247,-5,2,-2,1,-1,3,-1,-1
450510513792,0,1,0,-1,-7,-4,1,-3
450510513792,-1,-1,4,-9,-3,-4,3,-3
450510525954,1,-2,2,2,1,4,-2,-2
450510525954,-1,3,0,-4,-5,-2,-2,-5
450510534821,-3,-2,-2,-4,-5,-2,0,-3
450510534821,3,0,-2,2,1,-1,1,1
450510549060,-4,0,-1,1,-3,0,0,-1
450510549060,-2,-4,-2,-5,-6,0,1,-2
450510555867,-4,2,0,1,2,0,-2,0
450510555867,1,-3,-2,0,3,-2,-3,-2
450510572209,-3,-3,-4,-4,1,0,1,0
450510572209,-4,-4,0,-3,-5,-6,-8,-2
450510573762,-3,0,-2,1,-1,0,-1,-1
450510573762,-6,-3,-1,-1,-1,-3,4,0
450510585857,1,0,0,2,0,2,1,-1
450510585857,-1,-1,-1,-4,-3,4,-3,-3
450510594908,0,-1,1,-3,0,-5,-2,0
450510594908,-3,-4,1,-3,-3,1,-5,-1
450510609062,-5,2,-2,-4,-3,-4,-8,-2
450510609062,3,0,1,-2,3,-1,3,-3
450510615819,2,6,4,-3,5,1,-3,0
450510615819,0,4,-2,-3,0,0,-1,-2
450510631595,1,-2,-2,-2,-4,3,-3,0
450510631595,1,-1,-4,0,0,1,1,1
450510638390,1,-4,-1,1,-2,-3,0,-6
450510638390,0,1,-2,-3,-3,-2,-3,2
450510645870,-1,-2,0,-1,3,3,2,0
450510645870,-1,-1,-1,2,2,-1,0,3
450510654882,-2,-3,-2,-1,0,-1,-7,-3
450510654882,1,1,-3,-3,-3,1,0,2
450510669103,-4,-2,-4,-8,-7,-6,-2,-5
450510669103,-2,-4,1,-3,1,-4,-4,-4
450510675904,-4,2,-1,2,2,-1,-1,4
450510675904,0,-6,-2,-5,-3,0,-6,-6
450510691563,3,-1,-4,3,4,-4,-3,-3
450510691563,0,4,-3,-1,-4,-1,1,-2
450510698343,-4,1,-4,-8,-9,-1,-4,2
450510698343,-1,-1,-2,2,4,-1,0,3
450510714758,-2,-1,-5,-1,0,0,2,0
450510714758,3,2,0,-4,-1,0,-1,0
450510716274,0,0,-5,0,-1,1,3,-5
450510716274,-1,2,4,-1,-2,-1,-4,-4
450510729068,-1,-3,2,2,0,-1,-4,0
450510729068,-2,-7,-3,1,0,-4,-3,-1
450510735904,4,-1,-6,-2,-7,-5,1,7
450510735904,-1,2,0,5,-3,-1,1,2
450510751606,-2,1,3,-5,-8,-1,-3,-4
450510751606,2,4,1,-2,-2,-5,2,-3
450510758391,-1,-2,0,-1,4,2,6,-3
450510758391,-3,1,-1,0,0,-1,-7,-6
450510774736,2,0,-1,0,-2,0,1,-2
450510774736,0,-3,-3,-3,-1,3,0,-3
450510776352,0,-1,-2,2,2,0,-1,1
450510776352,1,-4,-3,-4,1,2,0,-3
450510789063,-1,4,-1,-5,-10,1,2,0
450510789063,2,-4,-3,3,7,1,-4,0
450510795860,-4,-3,2,-6,-9,-3,-3,-6
450510795860,-1,-5,-2,-2,-3,-5,-2,1
450510811609,0,-6,-6,-6,2,-6,-4,0
450510811609,-2,-3,-4,1,0,0,3,-1
450510818361,0,-5,-3,-1,-2,0,-3,3
450510818361,-3,2,-5,2,3,-2,5,-2
450510834778,-3,-1,-6,-4,1,-1,-3,-3
450510834778,-6,1,2,-6,-3,2,-1,-1
450510836326,1,-2,-1,0,4,3,-5,0
450510836326,0,5,-1,-1,1,-1,-2,1
450510849071,0,-2,-3,-1,3,-4,-5,-6
450510849071,-1,0,-2,-1,1,0,-3,-1
450510855860,-3,3,1,-2,-8,1,0,-2
450510855860,1,-2,-1,0,2,1,0,2
450510871580,0,-4,5,-1,-2,-4,-1,2
450510871580,-1,0,1,2,1,-5,-2,2
450510878362,2,-7,3,2,-3,0,2,-2
450510878362,0,-1,-2,-4,-6,-5,-1,0
450510894742,1,-5,-4,0,-6,-4,-1,0
450510894742,2,-6,-3,-3,-4,-2,0,0
450510896377,-5,-7,-3,0,2,2,2,3
450510896377,2,-6,1,-2,-4,-2,-6,0
450510908281,1,1,0,3,3,1,4,1
450510908281,0,-2,-3,-2,-6,0,0,-3
450510917391,-1,3,-2,-2,0,-4,-3,-3
450510917391,-1,1,7,0,1,0,-1,-4
450510931556,-1,4,0,-3,1,1,-4,2
450510931556,-2,-1,1,-3,-2,1,-3,-1
450510938385,2,3,2,0,4,-1,2,-2
450510938385,0,2,-1,-3,0,1,-3,-3
450510954671,0,0,6,1,-1,-4,0,2
450510954671,-2,0,-3,-1,0,-1,-4,-2
450510956313,2,1,-2,-6,-2,2,-7,-2
450510956313,-1,-4,0,-2,-9,-3,-1,-1
450510968391,-6,0,-1,-4,-3,-4,1,-2
450510968391,-3,-2,0,2,-2,-3,-2,-1
450510977359,-2,-1,-5,-2,0,-4,1,-5
450510977359,0,-3,-2,-2,-1,-1,-1,1
450510991580,1,-4,-1,-4,-7,-3,-1,2
450510991580,1,0,2,3,-4,-3,3,-2
450510998383,2,0,-1,4,5,8,4,1
450510998383,-4,5,-2,3,3,2,1,0
450511014686,-6,2,-1,-3,3,2,-1,4
450511014686,-4,3,-5,-5,2,2,-2,-5
450511016294,1,3,-5,-2,2,-3,-6,-2
450511016294,0,-7,-2,1,0,1,-1,-2
450511028400,3,-2,2,-1,-2,4,1,1
450511028400,0,-1,-3,-1,1,0,-2,0
450511037372,-2,-1,-2,-2,-4,-3,-2,3
450511037372,3,-1,-1,1,7,3,0,-1
450511051559,4,-4,-3,4,1,3,-6,-1
450511051559,1,0,3,1,1,-1,3,0
450511058394,0,-6,-2,-2,-4,-5,-2,0
450511058394,-2,-2,-3,0,-2,-4,-1,-2
450511074709,-3,-9,-3,-4,0,-4,1,-2
450511074709,-2,-1,-2,-2,2,-1,-1,3
450511076349,0,0,-2,-2,-4,-2,1,-2
450511076349,0,0,0,-2,2,-2,-3,-1
450511088358,-2,1,1,-3,1,-1,0,-4
450511088358,-3,-1,-2,3,2,2,-1,0
450511097338,-9,-4,0,-4,2,3,4,-4
450511097338,3,-3,1,-2,0,-1,-1,-4
450511111574,-1,-1,-6,3,3,-1,2,2
450511111574,0,-1,0,-5,-3,-5,-4,-1
450511118338,0,-1,0,0,-8,0,-5,1
450511118338,0,-1,1,-1,-8,-3,1,-2
450511135179,3,-4,-1,1,3,2,1,1
450511135179,3,-1,2,-1,-6,2,-2,0
450511140882,8,2,0,1,5,-4,1,-2
450511140882,-2,-3,-3,-4,-3,-5,-2,-1
450511148417,-6,2,3,0,-3,4,-1,-6
450511148417,2,4,-3,-1,-1,2,0,-4
450511157393,-2,2,4,-3,0,2,1,-2
450511157393,2,-1,-5,-4,2,5,-3,3
450511171575,1,-4,-1,-3,2,-8,-3,-3
450511171575,2,-8,-2,-3,2,-7,-7,-1
450511178383,-4,-7,6,-1,-4,-9,0,2
450511178383,-2,0,-2,-1,3,-1,3,-4
450511194683,-1,-5,-11,4,0,2,5,0
450511194683,0,7,1,-3,-3,-2,-1,0
450511196318,-2,-1,-1,-2,0,-3,-2,-1
450511196318,0,0,-3,-4,-2,1,-1,-3
450511208398,0,8,6,0,-6,-5,-1,-2
450511208398,0,2,-2,-4,2,-3,3,1
450511217416,-1,-7,-3,-1,-8,-4,-2,-2
450511217416,-1,5,3,-2,2,-7,-3,-1
450511231555,7,3,-2,-4,2,-3,-7,4
450511231555,-3,0,0,-3,-2,4,1,-4
450511238393,-8,-3,-1,-1,3,1,0,1
450511238393,1,-12,1,2,-7,4,4,1
450511254707,-2,2,-4,-3,-3,-4,2,-3
450511254707,4,6,0,2,0,-2,-1,0
450511256338,4,0,0,0,2,-2,-2,-4
450511256338,1,-7,-1,-1,-4,-5,3,1
450511268384,-2,-1,3,-2,1,2,-1,1
450511268384,-5,1,-3,-1,-2,2,1,-4
450511277354,-2,2,-2,1,-5,2,-1,-5
450511277354,-1,-1,-2,-2,-3,1,-3,-1
450511291522,2,-10,3,2,3,0,0,4
450511291522,-2,-7,-1,0,-4,-6,4,4
450511298331,1,3,-7,-3,-1,4,0,0
450511298331,-2,6,-2,1,-1,1,-2,3
450511314685,1,5,-3,-2,-5,-3,3,-3
450511314685,1,-1,3,2,-2,-3,-3,5
450511316315,2,-6,-3,0,0,-3,-4,-1
450511316315,-5,9,-2,-3,-1,0,-3,-6
450511328352,2,1,-5,-4,-7,1,-1,-6
450511328352,-1,-5,-1,-8,-5,-5,0,0
450511337356,2,-2,-1,-1,-1,-5,0,-3
450511337356,-3,-6,4,10,4,-6,1,1
450511351622,-9,0,-1,-1,-2,-3,0,-2
450511351622,-5,-3,-1,-5,-4,0,-4,0
450511358392,-3,5,0,-4,2,-1,0,3
450511358392,0,-5,-5,-3,-1,4,0,0
450511374725,-2,2,2,2,5,6,1,0
450511374725,6,2,-3,2,-1,-2,2,1
450511376289,-2,0,1,0,9,0,-2,4
450511376289,-4,-3,-2,-3,1,-2,-3,-2
450511388347,-3,-10,0,1,-2,-9,0,-2
450511388347,-1,-9,-2,2,-2,-5,-1,-5
450511397348,5,2,0,2,-1,-1,-2,2
450511397348,0,3,0,1,0,3,1,-3
450511411560,2,-6,-3,-2,0,3,-5,1
450511411560,1,2,0,1,7,4,2,2
450511418395,-4,-4,4,0,0,-2,0,-3
450511418395,0,3,1,-3,0,-1,-4,-6
450511434779,1,6,0,-8,-12,-3,2,-2
450511434779,-1,0,-5,2,-6,0,-2,-1
450511436289,-2,1,-3,0,-3,0,0,3
450511436289,-2,-3,-6,-4,0,-4,2,4
450511448423,-1,-8,5,-2,-3,-2,-2,2
450511448423,-3,0,-1,-2,-3,1,-5,-1
450511457302,1,3,-1,-3,-6,1,-3,-8
450511457302,2,2,-1,-2,-1,2,0,0
450511471653,2,3,1,-1,-4,-2,-5,-8
450511471653,-1,-4,1,-3,0,-3,-4,-1
450511478420,-2,-5,-2,-3,-4,-2,0,3
450511478420,-1,0,1,3,3,-2,0,1
450511494734,-2,-1,-3,0,5,0,0,-2
450511494734,-1,7,0,1,1,-2,-3,0
450511496318,-2,1,-4,2,6,1,0,0
450511496318,0,2,0,1,-5,2,-1,-1
450511508277,4,-2,-1,-3,4,6,-4,-1
450511508277,-1,-7,0,-3,-1,-4,2,-2
450511517377,1,-4,2,-1,-4,-7,-1,-7
450511517377,-2,-10,-2,-1,1,-6,3,-3
450511531593,-3,2,-5,1,-4,-1,-5,-1
450511531593,-2,3,-2,5,3,1,3,0
450511538394,0,0,-5,-3,-1,0,0,1
450511538394,2,2,-1,3,-2,0,1,-1
450511554094,-1,-2,-3,2,-4,1,2,-2
450511554094,-3,-2,0,-7,-1,-4,-3,1
450511560914,-2,0,-1,-1,3,-3,-2,3
450511560914,-1,-3,-2,-3,-5,-6,-4,2
450511568378,0,-1,-2,2,4,0,0,4
450511568378,0,-10,0,-5,-6,0,-2,3
450511577345,-2,2,3,-2,-3,-2,0,-3
450511577345,-2,-6,0,-4,5,2,1,0
450511591555,-4,0,1,0,3,-3,4,-3
450511591555,-2,-7,-5,-7,0,-4,-4,1
450511598317,5,-1,1,4,-1,3,-3,1
450511598317,-2,1,4,-4,-2,-1,-2,-1
450511614063,-4,1,-3,4,-2,1,-1,1
450511614063,-3,2,1,-7,-6,-5,0,-3
450511620960,-2,-3,-1,2,1,0,-1,0
450511620960,3,-2,1,1,-7,-3,-4,1
450511637209,-1,-3,-2,1,1,2,2,0
450511637209,3,4,5,1,0,2,0,-4
450511638774,-3,7,-4,-4,-5,1,-5,-6
450511638774,-3,3,3,-6,-8,2,-4,-5
450511651590,0,-1,-1,-1,-1,0,-6,1
450511651590,-2,-3,-2,-1,-5,-1,1,-4
450511658450,-2,-8,-3,-1,-3,-5,3,-1
450511658450,1,1,-2,-6,0,-2,-4,-3
450511674103,-3,0,-2,-2,-4,-1,-2,-2
450511674103,-3,-4,-4,1,-3,-2,-3,-4
450511680890,-3,-7,-2,-3,-3,-2,1,-3
450511680890,0,4,-6,-3,2,-2,2,0
450511697214,1,4,3,-5,-5,-6,-2,0
450511697214,-5,7,-1,-3,3,8,-1,-2
450511698870,-4,-2,0,0,-5,-2,-6,-2
450511698870,-5,-6,-6,-3,-4,-2,3,-2
450511711555,0,3,1,-3,0,-3,-1,-7
450511711555,-3,2,0,4,1,0,4,0
450511718361,3,4,3,-1,2,0,-4,-1
450511718361,0,0,-1,-1,-5,5,1,1
450511734044,0,3,2,-2,0,3,2,-1
450511734044,0,0,1,-2,-3,-1,1,-4
450511740880,4,-3,0,-2,1,2,-1,1
450511740880,-3,4,-4,2,2,-5,-4,0
450511757208,1,-5,0,1,0,-1,-1,3
450511757208,-1,-4,-4,-5,-1,-6,-3,5
450511758797,-4,-3,0,0,-2,-1,2,1
450511758797,0,-9,2,3,1,2,4,-1
450511771598,2,1,2,3,6,-5,4,0
450511771598,-1,4,4,3,7,0,2,0
450511778411,-3,3,-1,3,3,4,4,-6
450511778411,0,0,-1,1,1,-4,-4,1
450511794119,-2,1,-2,0,-1,0,-1,-2
450511794119,-1,-3,-5,-1,1,-1,-2,-1
450511800882,-4,0,-1,-6,-3,-1,-1,-1
450511800882,-1,-6,0,-7,1,-2,-5,-2
450511817237,-2,-2,0,-2,-5,-1,-2,-3
450511817237,2,3,0,-2,1,-3,-5,-1
450511818827,2,2,-2,-3,-2,-4,-3,-1
450511818827,1,10,1,6,3,3,4,2
450511831585,-1,-1,-3,-2,0,3,3,0
450511831585,-2,-8,-2,-1,-4,-3,-2,-1
450511838355,1,-3,3,-5,-2,-10,0,-3
450511838355,4,3,3,-2,-1,1,0,-6
450511854098,1,-7,2,-4,2,-4,-7,-4
450511854098,-6,2,2,-4,-8,3,1,-1
450511860902,2,3,-6,-2,-2,0,2,3
450511860902,-1,-8,-3,-2,1,-2,1,0
450511877199,-2,0,-3,-6,-3,-2,0,3
450511877199,4,-7,1,1,-1,-9,-1,-2
450511878812,-2,-4,-2,-1,-5,-6,-4,-5
450511878812,-1,-8,-2,-6,-5,-4,2,3
450511890883,-2,-3,3,-1,4,-2,-1,1
450511890883,1,4,1,-2,1,0,-9,1
450511899935,1,1,-1,1,-1,3,-6,0
450511899935,-2,4,2,1,-2,2,-1,-3
450511914157,-1,-4,-4,-5,-4,-3,-5,-7
450511914157,0,0,0,0,1,-2,-2,1
450511920922,-1,3,4,0,1,-3,-1,0
450511920922,0,2,-3,-7,-7,3,0,0
450511937213,-1,-2,-1,-6,0,2,0,-1
450511937213,2,2,-2,-5,-2,5,0,-4
450511938829,-5,0,-2,-5,-4,-2,-1,0
450511938829,-2,-2,-2,-6,-2,-2,-2,-3
450511950859,0,-4,-4,-2,-2,-3,-3,0
450511950859,-1,-5,-1,-2,-2,-1,0,2
450511959923,0,-5,2,-6,-7,-5,2,0
450511959923,-3,-10,-2,-2,0,-3,-4,-2
450511974040,-2,1,-4,0,-1,-1,0,0
450511974040,2,2,-3,0,-2,7,-2,-2
450511980857,0,3,2,3,1,3,1,3
450511980857,2,-1,-5,-2,1,-5,0,-1
450511997247,0,1,2,-4,-1,-4,1,-6
450511997247,-1,-2,4,3,2,-1,3,2
450511998862,-2,-1,-2,2,-1,4,5,4
450511998862,-7,4,1,4,6,-1,-1,1
450512010914,-5,1,-2,4,5,3,4,1
450512010914,-5,0,1,4,4,-1,4,-4
450512019918,-3,-3,-2,-7,-4,-4,-3,-3
450512019918,-1,-1,-2,0,-1,0,-5,1
450512034065,0,-3,-4,-7,-8,-5,0,4
450512034065,-2,-6,-5,-7,-2,0,-1,-1
450512040914,0,0,-2,2,5,0,3,-5
450512040914,0,0,0,-4,-5,-1,-5,-4
450512057265,-1,-4,-5,1,-2,-2,-1,5
450512057265,2,0,-1,-5,-4,-4,-2,1
450512058876,5,-1,2,1,3,-2,1,-1
450512058876,2,-1,2,0,-3,3,0,1
450512070875,2,-7,3,-5,0,5,-1,0
450512070875,-4,2,-2,0,0,-5,-2,-6
450512079867,-2,-8,0,-4,-1,1,-3,-2
450512079867,1,2,2,-3,-3,-2,1,-6
450512094089,3,4,5,2,1,-6,-2,2
450512094089,2,-1,0,2,2,0,0,-2
450512100934,-1,-2,0,-3,-3,1,-2,0
450512100934,-2,-2,0,-2,-1,1,2,-2
450512117184,-3,-5,4,0,-3,-2,-8,-2
450512117184,1,2,-1,-2,-6,-5,1,-1
450512118828,1,4,1,1,-5,-1,1,-3
450512118828,1,0,2,0,-1,2,-3,4
450512131003,-2,8,5,-1,-1,-2,-8,0
450512131003,-5,-3,-3,-2,1,-2,1,-1
450512147436,0,-2,2,-3,6,-3,-5,-5
450512147436,-4,-3,0,-1,-4,-4,3,-2
450512154098,-4,2,-6,1,-1,1,3,-3
450512154098,2,-1,1,0,2,4,-3,0
450512160942,-3,4,-4,-2,3,-2,-3,-1
450512160942,-2,0,1,4,0,-2,-3,0
450512177344,-1,-2,-1,-5,0,2,2,-3
450512177344,2,0,3,-2,-5,-2,-2,0
450512178858,-1,-5,-7,-2,-2,0,-1,-2
450512178858,0,-2,0,3,2,-4,1,-1
450512190912,1,-1,1,0,-4,-5,0,3
450512190912,-2,2,-4,2,3,-3,1,3
450512199950,1,-1,2,-2,-2,-5,-1,1
450512199950,-4,0,-2,-2,-4,-2,1,-2
450512214089,1,1,0,-1,-1,-3,-3,-1
450512214089,-6,-5,-2,-7,1,-5,-1,-6
450512220882,0,0,-1,-3,-5,-1,-2,0
450512220882,2,-3,2,-3,4,-1,-3,-3
450512237258,-1,-6,0,-4,1,3,-2,0
450512237258,2,-5,-2,-5,-2,-1,-1,0
450512238872,0,-2,-2,1,-4,0,0,0
450512238872,-4,0,2,0,-6,0,-2,-2
450512250909,-2,4,0,-4,-3,-4,0,-3
450512250909,1,1,-2,1,-2,0,1,1
450512259931,-3,-2,0,3,3,-1,0,-2
450512259931,-4,-6,0,-4,-2,0,1,3
450512274098,2,-2,2,-6,-6,-2,2,-4
450512274098,-2,7,2,0,0,-1,-1,-3
450512280909,0,-2,0,-1,1,3,3,4
450512280909,2,2,-2,-1,-1,-3,-3,-2
450512297235,-2,0,-2,2,-4,2,0,-1
450512297235,0,1,5,6,1,2,-3,-1
450512298810,-3,-6,-3,-5,-4,-1,-2,-2
450512298810,-4,0,0,-5,1,-1,1,1
450512310903,4,3,-7,-1,1,-2,-2,2
450512310903,-1,-7,-3,-6,-3,1,-1,2
450512319898,1,2,-2,1,-1,-2,-1,-3
450512319898,3,3,-2,0,-1,-2,-1,1
450512334116,-10,-5,-2,-3,1,-2,-4,-2
450512334116,-1,-3,-2,-4,-4,-1,6,0
450512340886,-3,5,3,-4,-7,-2,1,-3
450512340886,2,-4,-4,-7,1,1,-3,-2
450512356336,0,-7,2,5,-2,5,-1,-2
450512356336,1,2,-1,-2,-3,-8,-5,2
450512364870,-3,-5,-2,-2,-1,-1,-1,1
450512364870,2,-3,-3,1,-2,1,-3,-5
450512370828,0,4,1,-1,4,-3,-4,-2
450512370828,-7,-3,-1,-7,-4,2,-4,-3
450512379936,1,-2,0,-1,1,-2,-1,0
450512379936,-1,3,-2,-5,0,-8,-7,1
450512394048,-4,-4,2,1,-4,-1,-1,-3
450512394048,2,-3,2,1,-5,4,-2,-1
450512400941,-1,2,-2,-8,-3,-5,-3,-5
450512400941,-2,1,0,-2,3,2,-1,1
450512417291,3,-1,-1,1,-3,-1,2,-1
450512417291,2,4,-4,-3,-4,-8,-1,-4
450512418832,-1,-2,-5,-2,1,-1,-1,1
450512418832,0,-1,5,-4,-8,-2,-1,-1
450512430895,3,-1,-1,0,3,-2,1,-1
450512430895,-3,-4,4,-3,-5,-3,-3,0
450512439912,-1,-5,-2,0,-2,3,-2,-3
450512439912,-1,-2,-3,-2,-5,3,0,-4
450512454880,1,2,1,0,0,-3,2,4
450512454880,-2,-2,-4,-2,-1,8,1,2
450512460939,-4,2,1,5,-1,-2,2,-4
450512460939,-3,1,2,4,1,-2,-3,1
450512477213,-2,-2,0,-4,-6,-2,-2,-1
450512477213,-1,1,-1,0,-1,-1,2,1
450512478824,3,0,2,-2,-2,-1,-3,1
450512478824,-1,-5,-3,4,-3,-4,5,3
450512490936,-1,0,-3,-4,-1,-1,2,3
450512490936,-5,-6,1,-3,1,0,-4,-4
450512499934,-3,0,2,0,0,4,3,-3
450512499934,-1,-2,-2,-2,3,-4,1,-4
450512514120,-1,0,-6,-3,0,4,1,0
450512514120,-4,-2,-5,-1,5,-3,2,-5
450512520932,-1,1,-1,-2,-3,2,-5,2
450512520932,-1,1,-2,-6,-1,3,-2,0
450512536650,-1,-1,-1,3,1,3,-1,-2
450512536650,-5,3,1,-3,-3,-3,-2,-2
450512543417,0,0,-1,0,4,0,-5,0
450512543417,-1,-4,-2,1,0,-1,4,-2
450512559732,-3,-1,-4,-2,-1,0,-2,1
450512559732,4,5,4,8,4,0,-1,1
450512561319,3,4,-2,2,-3,-3,1,2
450512561319,-3,-1,-1,-4,-3,1,-3,0
450512574123,-3,-6,-3,-6,5,-3,-2,-3
450512574123,2,-2,0,2,-2,1,1,0
450512580916,-1,0,3,-1,-3,0,0,-1
450512580916,1,2,-1,-1,2,0,-2,0
450512596557,-1,1,0,0,-3,-4,-4,3
450512596557,1,1,-2,-1,-2,0,3,2
450512603485,1,1,0,0,-1,0,-3,1
450512603485,0,-2,-3,-2,-3,1,1,5
450512619037,-3,-6,-4,-7,1,-4,1,-3
450512619037,-3,0,4,-2,-4,-1,-1,7
450512619832,-1,-1,-1,-2,2,-2,4,1
450512619832,-4,-1,1,2,-2,2,-2,-2
450512634915,-1,2,2,-2,2,1,0,-5
450512634915,2,3,-4,-1,0,3,-3,-4
450512640995,-1,1,-2,1,-4,-2,-4,2
450512640995,1,3,-2,-1,-4,-3,-1,-4
450512657394,1,-4,1,-3,-6,-3,-1,-1
450512657394,1,3,-2,-1,3,-6,0,-2
450512663440,-1,-2,0,-2,-13,-2,-5,-1
450512663440,-1,1,2,-2,-1,-1,-2,-2
450512679032,3,-3,-4,-2,-3,-1,0,0
450512679032,-4,-8,-3,-7,-2,-1,-3,-2
450512679832,-2,-3,-1,-3,-1,-5,-4,-4
450512679832,-1,-2,-4,0,2,0,-2,-2
450512694884,-6,1,-3,0,-2,-1,-5,-2
450512694884,2,-1,-1,-7,-8,-4,-5,-4
450512709215,-5,-5,-3,-4,2,0,0,-1
450512709215,-3,-1,-4,-4,-5,-6,-4,-1
450512715909,0,5,-4,-1,-3,-2,1,-1
450512715909,2,-3,-5,-1,-7,1,1,-1
450512723409,-7,3,-3,-2,-5,2,-2,-4
450512723409,-1,-2,0,1,-2,1,2,0
450512739061,2,-1,1,2,0,2,1,0
450512739061,-1,-3,0,-3,-3,-3,-4,1
450512739865,-3,-5,-2,-8,-4,-2,-1,-1
450512739865,-1,-3,1,0,-4,-2,-2,1
450512754874,2,4,0,-1,3,1,-2,-1
450512754874,2,-7,-2,5,4,1,2,-1
450512760928,3,2,0,-3,-1,0,0,0
450512760928,-2,-2,1,4,5,1,0,1
450512775930,0,-5,0,0,0,-7,6,2
450512775930,-2,0,0,-1,1,-1,-1,-3
450512783468,2,-4,-2,2,4,-1,1,2
450512783468,0,4,3,-1,-3,0,0,-4
450512799080,-2,0,0,-3,-6,2,0,-5
450512799080,-2,3,2,4,-1,1,-1,3
450512799811,0,-6,-2,3,-5,-4,-7,-4
450512799811,2,-4,-3,-3,-1,-3,-5,-4
450512821568,-4,-6,-3,1,2,-3,2,-1
450512821568,-6,-2,0,-5,3,-3,-2,-3
450512822375,2,1,-2,2,0,1,1,-1
450512822375,-2,-4,-2,0,0,-1,-6,0
450512835929,-5,-1,3,-4,-2,-1,-3,-4
450512835929,0,-1,2,-1,0,2,-5,-1
450512843415,-6,-2,-3,0,2,0,-10,-2
450512843415,-1,-3,-4,1,6,1,-1,2
450512859058,1,3,1,5,0,1,0,4
450512859058,-3,2,-1,2,0,-2,-3,-1
450512859810,-3,-2,-3,-8,1,-1,-4,-3
450512859810,5,0,2,1,0,-2,0,0
450512874924,0,3,-3,1,1,-2,-3,0
450512874924,1,-2,0,-3,-1,-2,5,-2
450512880886,0,-5,0,-2,-2,-2,-3,3
450512880886,-2,-5,-3,-4,-4,-8,-3,-2
450512895882,1,1,2,-3,3,-3,-5,-2
450512895882,-3,-3,-4,-3,-6,0,0,0
450512903313,-4,-4,-2,-2,2,-1,6,2
450512903313,-2,0,2,2,1,3,-2,3
450512919121,0,1,-3,-2,-7,2,-6,-4
450512919121,2,3,-4,1,4,1,-4,2
450512919801,-4,5,-1,-5,-1,-1,-4,-1
450512919801,3,-2,-1,-1,-1,4,3,1
450512941530,2,2,3,0,1,-2,-5,-2
450512941530,3,2,-1,4,-2,-3,-2,-1
450512942276,2,-6,-1,2,2,-1,3,1
450512942276,1,-1,-2,-5,3,5,2,3
450512955909,3,-2,-3,1,1,2,2,4
450512955909,-2,1,-4,-6,-9,0,1,-5
450512963407,3,1,8,3,2,1,-3,1
450512963407,-5,2,1,4,0,-5,-2,-6
450512979044,1,-7,-3,-4,-1,2,0,4
450512979044,4,1,1,2,4,-3,1,-1
450512979801,2,1,-3,-5,-5,-4,-1,1
450512979801,-2,0,-3,-4,0,0,2,-5
450512994877,-5,-1,2,0,-6,1,1,-4
450512994877,-4,-1,-2,0,-4,-2,1,2
450513000939,-3,-2,-1,3,0,1,2,-2
450513000939,-3,-4,1,-1,2,0,-3,1
450513015830,-2,-3,-4,-2,4,-2,-3,-3
450513015830,0,-5,3,1,1,-3,-1,2
450513023406,-3,2,-3,0,3,-1,2,1
450513023406,-2,-3,-3,-2,-3,-6,-2,2
450513039108,-1,3,0,1,2,-2,1,1
450513039108,-1,-6,-4,-6,-4,-1,-1,2
450513039838,-1,0,-2,2,-2,1,-1,2
450513039838,-4,-1,-2,1,-6,-2,-2,-3
450513054883,2,-3,-1,-2,-2,0,1,-3
450513054883,-2,-2,-3,-2,-2,-1,-5,-3
450513060920,0,-4,-6,-4,2,-2,0,-1
450513060920,-4,-4,-2,-3,0,3,4,-4
450513075906,-2,4,-5,0,0,1,-2,1
450513075906,-1,-4,-2,-2,2,-3,-3,0
450513083432,-2,-1,-3,-3,-6,-4,-1,-5
450513083432,3,1,-2,-1,-3,-4,-3,1
450513099061,-5,-4,-4,-4,-7,-3,-5,-5
450513099061,-2,0,-4,0,1,2,2,0
450513099862,0,4,-2,-3,-2,3,-1,-3
450513099862,1,4,2,-1,-4,-2,0,0
450513114884,-3,-6,-4,-3,-2,-1,-1,2
450513114884,2,-1,-6,0,-2,5,-3,0
450513120929,0,0,3,4,3,1,-1,3
450513120929,1,4,-1,2,4,4,0,-1
450513135925,-2,4,2,-2,0,2,0,3
450513135925,-3,0,-2,7,-1,-4,4,-1
450513143427,-5,0,0,4,3,0,-1,-2
450513143427,-2,-2,-1,0,-2,-4,-1,0
450513159104,-3,-6,-8,-3,-3,-3,-1,0
450513159104,4,-2,5,0,2,-1,-1,-2
450513159839,1,-4,0,2,-1,-1,-4,-2
450513159839,-1,-2,-3,-4,-2,2,1,0
450513174936,2,-2,0,0,0,-1,3,-4
450513174936,-2,1,-4,-4,1,5,-2,-1
450513180882,2,0,3,0,-2,0,0,-1
450513180882,1,5,2,1,-5,0,0,-3
450513195976,-1,-4,4,-3,-2,-3,-2,-3
450513195976,-4,-1,2,-1,2,-2,-3,0
450513203408,1,-1,1,1,-3,-1,0,-3
450513203408,-2,-7,-1,-3,-4,-2,-5,1
450513219081,-3,0,-2,-2,-6,0,1,2
450513219081,-7,-1,0,-2,0,-3,2,-1
450513219872,-3,-1,-3,0,3,-4,-3,-6
450513219872,0,4,-1,3,2,-3,-3,1
450513234872,-1,1,0,2,5,-1,-3,-2
450513234872,2,1,0,-5,-2,0,-2,-3
450513240847,0,-1,-6,-5,-4,1,-1,4
450513240847,-2,-1,-3,-1,-3,2,2,1
450513255922,-1,0,1,1,-2,0,1,-1
450513255922,1,-1,-4,0,0,1,-1,-2
450513263468,2,2,2,-3,-2,-1,-1,1
450513263468,0,-3,-4,-1,1,-6,-5,-1
450513279095,-2,0,-1,2,-2,-5,-2,0
450513279095,2,2,2,1,-3,1,-2,-2
450513279901,-1,-1,-4,-2,0,-5,2,-2
450513279901,2,-4,1,-2,2,2,3,1
450513294984,0,0,0,-1,3,-1,3,-4
450513294984,-1,-3,0,-5,1,-2,-5,-3
450513301004,1,-5,-2,-1,-2,1,-5,3
450513301004,-1,1,5,-1,1,-3,0,-6
450513315997,0,4,-2,-1,2,-1,0,-1
450513315997,-2,2,0,-2,0,0,0,0
450513323368,0,1,4,1,-2,-2,2,-3
450513323368,-1,-4,-4,0,1,2,-1,0
450513346641,3,2,-2,0,-4,-3,0,-1
450513346641,1,0,-1,6,0,1,-1,4
450513347386,-2,2,-4,3,1,0,-1,4
450513347386,-1,-3,-4,1,3,2,3,-1
450513354868,-1,-2,6,1,1,-1,4,-2
450513354868,-3,-1,1,1,1,-3,-3,2
450513360934,-1,-4,4,-3,1,-1,1,-4
450513360934,-3,0,-4,0,3,3,-4,2
450513375888,-4,-2,-6,-7,-5,-1,-8,-3
450513375888,2,-2,3,3,4,0,1,4
450513383384,0,-2,-1,-3,-3,1,1,-1
450513383384,-4,-2,-5,-3,3,-6,-2,-3
450513399091,1,-4,0,-3,-2,0,-1,1
450513399091,0,-4,-5,0,-1,0,3,-1
450513399825,-3,1,-2,2,2,-3,-4,-6
450513399825,1,-2,-3,-3,-5,-3,-1,-4
450513414871,-1,-3,-2,-2,2,2,-1,-2
450513414871,-1,-2,-2,-6,-4,0,-2,-7
450513420906,-2,-2,-4,-3,-4,1,3,0
450513420906,-3,1,1,2,0,-2,0,-1
450513435946,0,-5,4,0,2,-3,-6,0
450513435946,-4,4,-2,-4,-10,-4,0,-2
450513443388,1,-3,0,-4,2,-5,-2,0
450513443388,-2,-1,-3,-2,1,6,-3,1
450513458412,1,0,-3,3,0,-1,2,0
450513458412,-2,0,-7,0,5,-6,1,-4
450513465946,-4,-3,2,-5,-4,1,2,-2
450513465946,1,0,-1,-1,-2,-4,-2,-4
450513474970,-3,-1,-2,-2,0,-6,-2,-2
450513474970,-4,0,-1,-1,6,-1,0,-5
450513480908,5,-4,-3,2,-1,-2,-1,1
450513480908,1,0,7,-2,-3,1,-2,5
450513496019,1,-1,0,-1,-6,1,0,2
450513496019,3,-1,-1,0,-6,0,1,-2
450513503434,2,6,-2,0,-4,-3,-3,0
450513503434,-2,-1,0,1,2,-1,-2,-1
450513518466,1,0,0,0,-1,-3,-5,-4
450513518466,-3,-1,-1,1,0,-4,-2,-2
450513526017,-2,-1,-1,3,2,2,-1,2
450513526017,-4,2,-1,1,2,-1,0,-2
450513541522,0,1,-1,2,2,-1,6,2
450513541522,-1,-3,3,7,5,6,2,-1
450513542279,-2,-2,-3,0,1,-2,-1,1
450513542279,-3,-1,-1,2,1,-5,1,-4
450513555865,-2,-5,0,-2,1,4,-4,0
450513555865,-1,-2,2,-4,-9,-6,-2,-2
450513563374,-1,1,-3,5,3,3,-3,-1
450513563374,1,-3,-2,2,-2,1,3,2
450513578436,0,3,-3,-3,-5,-2,-2,1
450513578436,-4,0,-2,-7,-4,2,-1,-2
450513585928,-1,1,2,-6,-4,0,2,-1
450513585928,-2,-1,-4,-6,-4,-8,0,2
450513601624,-1,1,-4,1,3,0,-3,-1
450513601624,1,-5,-2,1,2,2,-1,4
450513602351,-2,-2,-3,0,-1,2,0,-2
450513602351,1,1,0,-2,-2,1,-6,-7
450513615949,-4,-1,-5,3,1,-1,2,-3
450513615949,2,4,5,-4,-4,-1,-7,2
450513623435,0,-4,-3,-3,1,-4,-3,-3
450513623435,1,0,0,-2,-4,0,-2,1
450513638387,-2,-4,4,3,-1,0,-1,2
450513638387,-2,-2,1,-2,-2,-2,1,5
450513645945,-2,4,-2,-2,-1,1,-1,2
450513645945,-2,-2,-3,-2,-1,-3,-2,-4
450513661561,-1,0,-4,-3,2,-1,-2,-5
450513661561,-1,-5,-5,-4,2,-2,0,4
450513662372,-1,-5,2,-1,-2,-2,-3,-2
450513662372,4,2,4,6,0,1,4,1
450513675891,-3,-2,-2,-7,-7,1,3,0
450513675891,2,2,0,2,2,1,3,-5
450513683439,-2,1,-3,9,6,2,0,-3
450513683439,-1,-2,-3,-3,2,-1,-4,-2
450513706596,-2,0,2,-1,-4,0,-1,-2
450513706596,-2,0,-6,-1,-4,2,-2,0
450513707378,2,-3,0,-8,-1,0,-4,1
450513707378,2,-3,3,-1,-4,2,-1,2
450513721636,0,-2,-1,1,4,0,-1,1
450513721636,-2,0,1,-2,0,-2,-2,-1
450513722389,-1,-2,0,-6,-3,-2,3,-1
450513722389,-2,-1,-6,-4,-3,0,0,1
450513735939,0,0,3,-3,1,1,-1,-3
450513735939,1,0,2,2,-3,-2,-4,-7
450513743468,2,2,2,1,1,-3,3,-2
450513743468,-1,2,5,-2,-2,-3,0,-1
450513758474,4,2,-4,1,-1,-1,3,5
450513758474,0,-5,0,1,3,-4,-2,-3
450513765970,-3,-3,0,-6,-8,1,-3,0
450513765970,-2,2,-3,1,0,2,1,-6
450513781613,3,4,-1,1,-2,-1,3,-1
450513781613,-1,-3,0,-5,-1,-3,0,0
450513782372,-7,-5,-5,1,3,-3,2,3
450513782372,-5,-4,3,-1,0,-5,2,-4
450513797463,-5,-5,2,-4,-5,3,-2,1
450513797463,1,-3,-3,-2,1,4,8,0
450513803427,-1,2,1,1,3,-1,-5,-4
450513803427,-3,-6,-3,-4,-1,0,-3,-4
450513819909,-6,-3,-4,-4,0,-5,-7,0
450513819909,1,0,1,-2,-6,-1,-1,0
450513825949,1,1,-2,1,1,-1,1,0
450513825949,5,-1,-3,0,-3,0,-3,2
450513841621,0,-1,0,-5,-2,-4,-5,-5
450513841621,-3,0,-2,-1,-3,0,-4,-2
450513842419,-1,0,-2,3,-4,0,0,0
450513842419,-1,1,-3,-3,-4,-5,-2,1
450513856022,3,-6,3,-4,-3,-3,-3,-2
450513856022,0,-2,-6,1,3,-1,1,3
450513863443,0,1,1,3,-2,1,2,-1
450513863443,-3,-3,-3,2,-1,-2,3,5
450513878405,-1,0,0,2,2,5,2,1
450513878405,0,3,-4,1,1,-5,-2,1
450513885915,1,1,1,-4,-5,0,0,0
450513885915,0,-2,-2,2,3,-2,-1,-2
450513901585,-2,-2,-2,-4,-2,-1,2,-3
450513901585,-2,1,-2,-4,-3,-4,-4,-2
450513902379,1,-2,3,1,-1,0,-3,1
450513902379,-3,2,0,-1,-2,0,-1,-2
450513915941,-4,1,0,-1,-4,-2,-1,-2
450513915941,-4,-4,-3,1,-4,0,-1,1
450513923409,-1,0,-4,-4,-3,0,1,-1
450513923409,-6,-2,-1,-5,-2,3,0,-3
450513938465,-3,-3,-3,-4,-6,-3,-2,0
450513938465,-6,-2,-1,-2,-5,-1,-4,1
450513945941,-4,1,-2,6,7,-2,-2,-1
450513945941,2,-2,-3,-2,-1,-3,-2,-1
450513961676,-1,1,-2,-2,3,-2,2,1
450513961676,-1,-2,1,-4,-2,0,0,-4
450513962433,-1,-4,-1,-2,0,0,-3,0
450513962433,-3,2,-3,-2,-1,-2,-4,-2
450513975924,-1,2,-3,2,-4,-2,-2,1
450513975924,3,-1,-4,2,2,1,0,1
450513983382,-5,-2,-2,0,7,3,-2,0
450513983382,4,-2,-1,-6,1,-1,0,2
450513998416,-2,-5,-7,-3,1,0,-1,-3
450513998416,-3,-1,1,1,1,1,1,-4
450514005913,0,-1,-1,-8,-7,-6,-3,-4
450514005913,-1,-1,-5,-1,1,-1,-3,0
450514021618,-1,1,4,2,2,2,5,1
450514021618,4,0,-1,-5,-4,-3,6,3
450514022405,-1,-5,-2,1,-3,1,3,-3
450514022405,1,1,3,1,3,-2,1,-2
450514035943,0,4,-3,-1,-3,0,-3,-1
450514035943,-3,5,-4,-1,-1,-1,-6,0
450514043483,0,5,0,5,3,-1,5,1
450514043483,1,3,-3,-3,-4,2,0,0
450514058475,3,-1,-5,5,5,5,2,0
450514058475,-2,-3,-3,-5,0,-3,0,2
450514074177,-2,-1,-1,-7,-4,-1,-2,-3
450514074177,-1,4,-3,1,-2,0,-4,-1
450514081585,-2,-1,-1,-1,0,-4,0,0
450514081585,-2,-4,-1,-1,-7,2,5,-4
450514082376,-1,-7,-6,-6,1,-2,-3,-1
450514082376,0,-1,4,0,-2,4,4,1
450514095984,4,-3,-2,-10,-6,4,-4,-5
450514095984,-1,-3,7,4,4,2,-3,4
450514103394,-1,0,-1,-3,-2,1,-3,-1
450514103394,-4,-4,-1,-4,2,-4,-5,-2
450514118489,-4,-3,-5,1,-3,-3,0,-2
450514118489,-3,1,-2,4,6,3,-1,-2
450514125930,0,0,2,0,-4,-1,-4,1
450514125930,1,1,3,0,1,0,1,2
450514141607,-2,4,4,0,-1,-1,-4,-1
450514141607,-1,0,-4,-7,-9,-6,-6,-1
450514142382,-3,-5,-4,3,1,1,5,3
450514142382,-3,-4,-2,-4,-6,2,0,4
450514155918,5,-2,0,-2,0,-3,-2,-4
450514155918,2,-2,3,-3,-4,-1,1,-4
450514163445,-5,-6,-4,3,6,5,3,-4
450514163445,3,-3,0,-4,-6,-7,-6,-6
450514178430,-4,-1,-3,-2,0,-1,-1,-4
450514178430,-4,-6,4,-5,-3,3,-4,0
450514185960,4,0,-3,-6,-8,-3,2,3
450514185960,0,-6,1,2,0,-1,3,2
450514201577,-2,0,-3,2,-4,-2,2,-1
450514201577,4,-1,-6,0,-3,0,-3,-2
450514202374,0,2,5,-3,-7,-5,-4,-4
450514202374,-3,-2,0,1,3,3,1,-1
450514215997,-2,-8,-5,-9,-4,-1,3,-2
450514215997,-1,-2,-1,-1,-5,-3,0,-1
450514223552,-2,-4,0,-7,-2,-4,4,0
450514223552,-3,3,-7,-4,3,2,-1,-4
450514238431,-1,0,-1,0,-3,-2,0,5
450514238431,-1,0,-2,-1,3,-1,2,0
450514245946,2,2,-4,4,0,-4,-4,-1
450514245946,-7,0,-4,-3,-4,1,-1,-1
450514262217,2,-2,-2,5,3,1,-2,1
450514262217,-2,0,-3,-3,0,-2,1,-2
450514262981,2,-1,0,-5,-4,-6,-5,1
450514262981,4,-5,0,2,-3,-5,-1,-1
450514275967,-1,0,-3,-1,0,-4,-1,0
450514275967,-4,-1,-4,-1,-2,-4,-2,-3
450514283411,-2,-1,0,-3,-2,-3,1,-4
450514283411,-2,-2,-3,-5,2,0,-1,-1
450514298355,-2,-3,2,-6,-6,2,-5,-1
450514298355,-2,1,-2,2,5,-3,-1,1
450514305897,-1,3,-5,2,3,2,-6,1
450514305897,1,-4,-4,-1,-4,1,-4,-6
450514321608,-1,-1,4,-2,-5,-3,-1,-1
450514321608,-6,1,-5,-10,-8,-1,-3,-3
450514322405,-1,-5,0,-1,-7,-2,-6,-5
450514322405,5,5,-2,8,4,-3,4,4
450514335960,2,1,1,-2,3,-1,-4,-3
450514335960,1,-5,2,1,4,0,-2,1
450514343456,0,-2,1,0,-1,0,1,-7
450514343456,-4,-4,5,1,-4,-2,0,0
450514358413,-2,-3,-2,0,1,-2,1,4
450514358413,-2,-3,2,0,-4,0,3,2
450514365910,-2,-2,2,-4,-4,1,0,-4
450514365910,2,-3,-1,-2,-2,-2,-2,2
450514380906,1,-1,-2,2,6,2,0,-2
450514380906,1,-3,0,1,4,0,0,-1
450514389176,-2,5,0,4,5,5,5,-2
450514389176,-5,6,-2,-5,-1,-1,-1,0
450514395990,-3,4,3,4,5,3,0,-5
450514395990,-1,3,0,7,5,3,-1,0
450514403355,-2,-1,-4,0,2,-1,0,4
450514403355,-1,-1,-4,-5,-3,-2,-4,2
450514418430,3,0,-6,-3,-3,-1,-4,2
450514418430,-3,0,-1,-3,1,-4,-5,-6
450514425876,0,0,-2,-1,0,4,1,0
450514425876,-3,-4,2,1,4,4,3,-3
450514440980,-3,-4,-3,2,-2,-3,1,1
450514440980,2,-4,-2,-2,-7,-3,-1,-5
450514449134,-2,-4,-1,2,1,-1,-2,3
450514449134,0,-2,-3,-4,-1,4,-2,-1
450514464109,1,0,-4,-2,-1,-3,0,-2
450514464109,2,1,-5,-2,-4,-1,1,1
450514464862,2,-2,-3,-1,5,-2,0,1
450514464862,-1,-1,-5,-2,0,1,3,0
450514478468,-2,4,2,-4,-8,0,-2,2
450514478468,2,-2,-2,4,3,1,2,3
450514486009,0,3,-5,-2,-7,-2,-4,-2
450514486009,-5,7,3,-3,-2,1,2,-1
450514500819,1,-3,-1,-1,-1,0,4,1
450514500819,0,4,1,-2,-5,1,2,-1
450514509136,0,-3,-2,2,-1,-4,1,-1
450514509136,1,-8,0,1,0,-5,0,-3
450514524106,3,-1,4,1,-1,-1,0,-6
450514524106,0,-2,-4,-4,1,-2,1,-2
450514524926,-5,-1,-5,-4,-2,2,-7,2
450514524926,-1,4,-5,-1,-9,1,-2,-2
450514539948,-4,3,1,-2,1,4,-2,0
450514539948,3,4,2,-1,-4,-2,-3,0
450514545981,0,3,1,-4,-2,-1,1,-3
450514545981,4,-1,0,-2,0,-1,-1,-3
450514560974,-3,1,-1,-4,3,-3,-3,-1
450514560974,-2,3,2,-4,2,0,-7,-1
450514569154,0,-4,-1,-2,0,-2,0,3
450514569154,0,0,3,5,-2,5,1,2
450514584158,-4,-2,-4,-2,-5,-4,-1,-2
450514584158,-3,-8,-4,-1,-4,-2,-3,-1
450514584908,-5,-9,3,-3,0,-5,-1,-3
450514584908,0,-5,-1,-1,-2,-4,-1,0
450514598387,-3,-6,-1,-3,-6,-1,-5,2
450514598387,-3,-2,0,-2,-2,-1,2,-3
450514605961,-1,-2,0,-7,-4,-5,-1,-3
450514605961,0,-2,-3,-1,-3,-1,-5,-2
450514620909,3,-2,-4,-4,-4,2,2,0
450514620909,2,3,-2,-2,-7,-4,-2,-1
450514629201,2,-2,0,-1,-6,2,-2,-3
450514629201,-2,0,1,-4,2,-4,2,-2
450514644136,0,-4,-7,-1,-4,-3,-4,-5
450514644136,-1,-2,-1,-4,-6,2,0,1
450514644942,1,0,1,5,3,1,0,-3
450514644942,-2,1,-4,-10,-5,-2,-3,-8
450514658418,-4,-1,0,-1,-4,-2,0,-4
450514658418,-3,-4,1,1,0,-2,-2,-1
450514665924,-4,-3,-2,0,-5,-4,-3,-4
450514665924,-2,-6,2,-2,-9,-5,-1,1
450514680938,-1,0,2,1,-4,0,1,-3
450514680938,-2,-2,-1,-5,2,0,1,0
450514689143,-1,1,-1,-3,-5,2,0,0
450514689143,-4,1,0,-1,2,-2,-2,-2
450514704102,-1,-2,-4,-1,2,2,-1,-3
450514704102,-1,0,0,0,3,-1,-2,-1
450514704819,0,5,-1,0,1,4,-1,-1
450514704819,0,-6,1,-1,1,-3,-3,-2
450514718527,-3,-3,2,1,4,-5,-2,3
450514718527,0,-7,-4,0,-6,-3,-2,-4
450514725910,1,-2,3,-3,-3,-6,5,6
450514725910,1,0,-1,-1,-4,0,1,-6
450514740931,1,-2,-1,-1,2,-1,-2,-4
450514740931,-1,0,-2,1,-2,-1,1,-3
450514749146,-4,2,-1,1,-3,-2,-3,0
450514749146,-1,0,-4,-1,-1,2,3,0
450514764109,1,0,1,0,-2,1,0,1
450514764109,1,-1,-2,-4,-2,-2,-1,2
450514764905,1,3,-4,-5,-4,-2,-1,-5
450514764905,0,-2,3,-3,2,0,-3,1
450514778435,-5,-1,-5,-2,0,3,-4,1
450514778435,2,-3,-1,-2,-4,1,-2,-3
450514785936,-1,-3,-1,0,-1,2,-3,-4
450514785936,0,-2,-3,2,0,-2,-5,0
450514800995,2,-1,3,-1,-4,-5,2,-2
450514800995,-3,-2,1,-1,3,0,-1,-1
450514809111,4,0,1,4,-2,0,-1,-3
450514809111,0,3,-3,0,1,0,4,0
450514824179,2,-3,-2,-2,-4,-5,1,-6
450514824179,0,0,0,-5,-3,-4,1,1
450514824920,-2,2,2,2,3,-3,5,-2
450514824920,1,-2,0,-1,-3,-3,-4,0
450514838459,-2,-1,-4,-11,-5,-4,-4,1
450514838459,-4,2,0,-5,-3,-4,-4,-2
450514845941,-2,-3,-4,-2,-8,-4,-3,6
450514845941,1,-2,-1,1,-4,4,4,1
450514861026,4,-4,2,-3,1,5,-3,1
450514861026,-2,-5,-1,2,-2,3,3,1
450514869137,2,-6,3,-1,0,1,-2,1
450514869137,1,0,1,-4,-3,-4,-1,-4
450514884110,1,6,-2,1,1,-2,-2,-4
450514884110,-2,5,-3,1,0,2,3,-5
450514884931,-3,5,-5,-2,-2,5,-3,-2
450514884931,2,1,-1,-4,-2,-7,-10,-4
450514898540,-4,0,-3,-2,1,0,0,5
450514898540,0,-5,-3,1,-2,-9,1,3
450514905993,3,-4,-1,-8,-3,-3,3,-3
450514905993,-2,-7,1,5,3,-6,2,2
450514921013,-4,2,0,2,-5,0,0,3
450514921013,2,2,-2,0,3,2,-2,-8
450514929166,-3,1,-2,3,1,5,-2,0
450514929166,0,6,-5,-6,-2,5,0,1
450514944089,6,2,2,5,8,2,2,0
450514944089,3,3,1,-4,-13,-6,-2,-3
450514944877,-2,-2,3,-1,-1,-6,4,-4
450514944877,-1,-5,-1,-2,1,-2,-5,-1
450514958435,-2,-3,-1,-1,-6,-3,-3,-5
450514958435,-1,3,-5,-5,0,3,-4,1
450514965948,0,1,-2,0,3,-4,1,0
450514965948,-1,1,-2,0,-3,-4,-2,-2
450514989786,-4,-6,3,-1,-4,-3,1,-5
450514989786,5,-12,-1,1,-3,-3,0,2
450514990682,0,-5,2,-9,-6,-8,0,2
450514990682,-1,-1,-1,0,-1,-1,0,0
450515004112,-3,-3,0,0,-8,1,-3,0
450515004112,-1,4,-1,3,0,1,0,1
450515004843,2,6,-3,2,-1,8,-3,-2
450515004843,1,8,-3,-5,-6,1,4,-1
450515018365,0,0,1,-2,1,0,-4,-2
450515018365,3,-2,5,-3,-3,2,1,1
450515025894,0,-7,0,4,2,-1,-7,-2
450515025894,-1,-3,-1,-7,-5,-2,-1,-2
450515040894,3,6,-2,-4,-1,-7,1,0
450515040894,-5,-4,-3,-3,3,-3,-1,-1
450515049135,-6,-1,-7,-1,-3,-5,-2,-4
450515049135,0,-4,1,1,-5,-2,-3,5
450515064045,1,-11,-7,-3,-5,-8,-4,-3
450515064045,-3,-6,-1,-4,-4,-3,-3,-2
450515064821,3,-3,-3,-1,-2,-1,4,0
450515064821,-1,-3,-4,2,-1,-3,-1,-3
450515078415,0,4,2,-3,-5,4,0,4
450515078415,1,5,0,-5,-4,3,-2,0
450515085944,0,0,-1,-1,-3,3,-6,-2
450515085944,-2,6,1,1,5,2,-2,0
450515100847,0,0,0,-1,-1,2,2,-2
450515100847,-4,4,-4,-3,0,-3,-1,-1
450515109153,0,-1,-2,-4,-5,-5,-3,3
450515109153,1,-2,-1,-3,0,4,4,1
450515124022,-6,0,-3,-3,1,0,-6,-1
450515124022,2,5,3,3,0,-1,-3,0
450515124818,-1,-6,1,0,-6,-6,2,1
450515124818,-5,-8,-2,1,-4,-5,-4,-2
450515138384,2,-3,1,2,2,-2,1,3
450515138384,-6,-9,0,1,-1,-4,1,1
450515145896,-2,-9,3,1,2,0,-2,3
450515145896,0,-2,2,-4,-7,0,0,-3
450515160918,-1,-2,-1,-8,-1,-1,-5,-5
450515160918,-5,0,-2,1,3,3,-1,-1
450515169051,0,4,2,1,-2,2,2,1
450515169051,-2,1,-4,-5,3,3,-2,-1
450515184078,-3,4,-4,-3,-5,-3,1,-2
450515184078,3,1,-2,-2,-2,-2,0,-3
450515184868,-2,-2,-2,-2,1,-7,-7,0
450515184868,-2,-3,0,5,4,-5,6,3
450515198433,-2,-6,-2,0,1,-1,-4,-3
450515198433,3,-4,-3,0,-4,0,-1,-1
450515205914,-1,5,-4,2,3,0,2,-2
450515205914,0,0,0,-1,-1,0,-5,0
450515220932,-1,3,-5,-3,-3,4,-1,0
450515220932,-4,-3,2,3,9,4,0,-2
450515229115,-1,-3,-4,-3,3,-1,6,-5
450515229115,1,1,-3,2,-1,0,-1,-4
450515244106,0,-3,6,2,3,-7,3,1
450515244106,2,-2,1,1,9,-4,-1,0
450515244878,-2,-5,4,2,0,3,-3,0
450515244878,-2,4,0,-1,4,-1,-2,2
450515258439,-5,0,-1,1,-3,0,3,0
450515258439,1,5,-4,0,-6,1,-5,-4
450515265926,1,-8,-2,-1,-2,-3,-1,-2
450515265926,3,-4,0,-2,-3,-3,1,-5
450515280875,2,-5,-3,1,0,-2,0,4
450515280875,-1,-7,1,-2,-3,-4,4,-5
450515289135,-2,-3,2,2,0,-3,-4,-1
450515289135,-3,0,-3,-1,-2,1,-3,3
450515304087,-1,0,5,-3,0,0,0,-7
450515304087,-1,2,-4,-3,0,0,-4,-6
450515304865,-3,13,-1,-3,-1,3,1,-4
450515304865,1,5,1,0,1,3,-3,-2
450515318402,-3,2,1,4,5,2,-4,0
450515318402,-3,-1,-3,-3,-3,-2,2,-1
450515325892,2,-1,-2,1,2,1,5,-1
450515325892,-5,-3,-1,-5,-5,-5,-2,-2
450515340878,-4,-2,-1,1,0,2,-2,0
450515340878,-2,-2,-2,-5,-7,-3,-3,5
450515349114,0,2,-2,-4,-5,2,-1,0
450515349114,3,-4,0,4,0,-2,0,2
450515363414,1,0,2,-2,-6,-2,4,-3
450515363414,-2,-6,-2,1,1,0,-3,-1
450515371642,-1,-3,-2,-4,-5,-2,-4,-3
450515371642,-3,-3,-4,2,-3,2,0,2
450515378395,-3,2,-2,-3,-3,-4,1,1
450515378395,1,3,-2,2,0,2,-1,-2
450515385895,-4,5,1,-8,-1,-4,0,-1
450515385895,0,6,6,-1,-2,-1,-6,-1
450515400930,2,7,-1,0,0,0,-4,0
450515400930,-2,3,-1,-3,-6,-2,0,-2
450515409084,-1,0,-5,-4,-7,2,1,-2
450515409084,-1,2,-1,-1,-2,1,-1,0
450515423407,-2,-3,-1,2,-5,-5,2,-4
450515423407,-4,-8,-2,1,1,-2,0,4
450515431673,1,-7,-1,3,-4,-4,0,0
450515431673,-2,-15,-5,-1,1,-7,-2,-4
450515446504,1,-6,-6,0,0,-4,1,0
450515446504,2,-5,1,3,2,-1,-2,2
450515447330,-3,-1,1,2,-1,-5,1,-4
450515447330,-1,-3,-3,-2,2,0,3,3
450515460888,0,-1,3,-4,-2,0,1,-2
450515460888,-3,7,5,0,0,-2,1,-4
450515469138,1,9,6,1,6,2,-3,-2
450515469138,1,10,3,-1,-6,-2,-1,-5
450515483393,0,4,4,0,2,1,-3,-1
450515483393,3,2,4,-3,3,-2,1,1
450515491646,-2,-3,-3,1,3,1,-5,0
450515491646,-3,-4,0,-1,3,0,-1,-11
450515506587,0,-6,-5,1,1,-2,1,0
450515506587,-4,-5,-4,-3,-3,-6,-5,-3
450515507326,-1,0,-4,-6,-2,-3,-3,1
450515507326,2,-3,-2,-3,0,-5,-7,-2
450515520893,-4,-5,-4,-2,-1,-7,-4,-3
450515520893,-3,0,0,2,-4,-2,1,-3
450515529121,1,-1,0,-1,-1,-5,-2,0
450515529121,-4,0,-1,-1,3,-1,0,3
450515543354,-4,3,-3,-3,-5,2,3,-2
450515543354,8,9,0,-6,-7,1,1,0
450515551661,-1,2,-1,1,-1,1,1,1
450515551661,-6,2,-5,-3,-5,2,0,-3
450515566647,1,3,2,-1,4,4,-3,1
450515566647,0,-3,0,-1,1,-4,-1,-7
450515567381,-2,0,0,-3,-5,-4,-1,-1
450515567381,-4,1,3,2,-4,4,1,5
450515580886,1,-4,-2,-2,1,-2,0,6
450515580886,-1,-4,-1,-1,-5,-1,-2,0
450515589100,-1,-9,-4,0,-5,-3,-1,2
450515589100,-1,-7,-3,-5,-5,-4,2,-4
450515603440,-3,-2,2,-3,-5,-2,-8,-2
450515603440,0,-9,-3,-4,0,-3,2,0
450515611605,5,0,0,-2,0,-3,2,-3
450515611605,2,4,1,2,0,0,-1,-2
450515626646,1,-1,-3,0,1,-2,-2,-4
450515626646,0,7,-1,-2,-5,4,1,0
450515627404,1,6,2,-1,4,3,1,-5
450515627404,2,2,4,2,0,3,-3,-1
450515649726,2,0,-1,2,0,-3,0,-1
450515649726,-3,-1,0,6,6,0,1,4
450515650497,0,-2,1,-4,-3,1,-1,2
450515650497,0,-3,-5,1,1,-1,-2,1
450515663423,2,-1,3,2,-3,-1,1,2
450515663423,-2,3,-1,4,-3,1,-1,2
450515671647,-8,-2,-3,0,1,0,0,0
450515671647,2,-9,-2,1,3,1,2,2
450515686556,-2,-2,1,-3,0,-2,1,1
450515686556,-2,-3,2,-2,4,1,-5,-1
450515687333,-1,0,-3,2,-3,0,-2,0
450515687333,-1,4,-3,1,-1,3,2,-2
450515700937,0,4,0,-2,-7,2,-1,-1
450515700937,0,-1,-3,-2,-4,-2,-3,2
450515709136,-2,-5,-8,-3,-1,0,0,0
450515709136,-5,-8,-1,-3,2,-6,5,0
450515723448,1,-12,-7,-4,-4,-8,-1,-3
450515723448,1,-6,-2,-3,-5,-3,-2,-1
450515731662,3,1,0,4,0,-4,2,-1
450515731662,-5,-6,-3,-6,-5,-7,-10,-3
450515746582,-6,4,-2,-5,1,5,0,-3
450515746582,0,7,-4,-6,-2,4,-6,-5
450515747464,-3,1,2,-1,-2,5,-2,2
450515747464,4,6,-4,-3,-5,-2,1,1
450515760906,-3,-5,0,-5,-5,-1,4,-1
450515760906,-4,-3,-2,-6,1,-4,4,0
450515769116,1,-9,-5,0,2,2,-4,2
450515769116,5,-1,1,-1,-2,1,0,3
450515783871,-2,6,1,0,-2,3,-6,0
450515783871,0,11,-5,-4,-3,3,0,-3
450515791678,2,9,-2,-5,-1,4,3,-3
450515791678,-5,7,2,1,-4,4,-2,-2
450515806581,-3,-3,-3,-2,-2,-5,-1,0
450515806581,-2,-12,-1,0,0,-5,2,-1
450515807319,-1,-14,1,2,-4,-10,1,-1
450515807319,-4,-10,-3,0,1,-7,-1,-3
450515820955,1,-7,-1,-2,-2,-4,-1,-3
450515820955,3,0,-1,2,-5,-2,-3,-2
450515829125,0,3,-1,-7,-2,2,0,-1
450515829125,-7,7,-2,-7,-4,6,-2,-2
450515843394,8,10,2,3,-3,6,-1,2
450515843394,-2,2,-1,1,5,2,-3,3
450515851620,-3,3,4,0,0,-2,-8,1
450515851620,2,0,3,2,-3,-7,4,-2
450515866647,-5,-7,-5,2,5,-1,-2,3
450515866647,-3,-11,1,-3,-7,-5,2,0
450515867409,1,1,1,-3,-6,0,1,2
450515867409,3,-3,-5,-2,-2,-1,-2,0
450515880890,-4,1,-1,-1,-4,-1,-1,-2
450515880890,0,-5,-5,2,-1,-4,2,-3
450515889075,-1,-8,-3,1,0,-9,0,2
450515889075,-3,-6,2,-11,-1,-4,4,-2
450515903485,-1,1,-2,-2,5,-4,-1,-4
450515903485,-3,0,-3,-5,-2,0,-2,-1
450515911638,2,2,-4,1,-6,3,2,0
450515911638,0,-8,-5,-3,5,5,-3,-1
450515926634,1,1,5,-1,3,-1,-3,0
450515926634,-1,1,-1,-4,1,0,-1,-4
450515927364,-7,-2,0,-5,2,1,-4,-11
450515927364,-5,9,-3,0,0,3,-5,4
450515940888,4,4,-7,2,-7,0,4,-1
450515940888,0,4,-3,-5,-4,4,5,-1
450515949124,-4,1,-3,1,-1,1,3,-5
450515949124,-1,1,3,4,-3,-1,0,-5
450515963493,0,-3,3,3,3,-7,2,2
450515963493,2,-8,3,3,-5,-3,2,1
450515971635,-3,-5,-2,0,2,-6,-1,1
450515971635,5,4,0,3,0,-1,-4,4
450515986667,2,2,-4,-3,1,2,0,1
450515986667,-5,-5,-10,-1,1,-2,-5,3
450515987359,-1,-5,-3,-6,-4,-2,0,3
450515987359,-6,-11,0,-6,-1,-2,-5,0
450516000920,-5,-12,-7,-11,-3,-1,0,-3
450516000920,-1,-8,-3,-6,0,-6,-3,-2
450516016665,0,-5,-2,-3,-1,2,-4,1
450516016665,-1,-1,-5,-3,2,-1,0,-2
450516023439,-5,-9,0,-2,-6,-1,-2,-5
450516023439,-6,6,4,2,-3,9,-1,0
450516031639,4,13,4,0,2,1,-2,3
450516031639,1,16,5,-3,-6,2,-3,-1
450516046604,1,16,3,-1,-4,3,-3,5
450516046604,1,12,4,3,-6,4,4,0
450516047340,-4,-4,-2,-6,-3,-4,0,1
450516047340,-4,5,-6,-3,-4,-2,-1,0
450516060946,-2,7,1,0,1,4,2,4
450516060946,-1,-7,0,-4,-1,1,-3,-2
450516069100,2,-16,-8,1,-2,-6,1,0
450516069100,1,-20,-4,-1,-4,-8,3,1
450516083441,-5,-25,-6,-3,-2,-14,-2,1
450516083441,-2,-14,-1,4,5,-9,6,-7
450516091652,-1,-15,1,0,-5,2,1,-2
450516091652,4,-7,2,2,0,6,1,2
450516106647,-2,4,2,-3,-5,-1,-4,-5
450516106647,1,13,4,0,-2,0,-2,4
450516107365,0,15,4,5,-4,8,1,0
450516107365,3,2,5,-3,-6,1,-2,5
450516120975,-4,8,-3,-1,-4,-9,0,1
450516120975,2,-2,0,3,2,-1,1,2
450516129099,0,-2,-1,0,3,-3,4,-2
450516129099,-2,-6,-4,1,-5,-5,-2,-2
450516143417,-3,-4,4,2,2,9,0,-5
450516143417,-2,1,-1,-6,1,-3,2,1
450516151356,-2,7,-3,-1,-3,-2,-2,-4
450516151356,-3,-2,-1,-4,1,-1,-5,-1
450516165938,-1,-4,-3,1,-2,0,0,-7
450516165938,1,3,-5,-5,0,3,-5,3
450516174862,-2,-6,2,-6,-3,-7,-4,-4
450516174862,-2,-6,3,-1,6,7,0,-3
450516180904,3,-5,-3,2,-2,7,3,4
450516180904,-1,4,-3,-4,-2,-5,-5,0
450516189926,9,3,-5,0,2,-6,3,4
450516189926,0,-9,-2,3,-2,-5,1,-1
450516203405,-2,-6,-6,7,3,-1,-2,-6
450516203405,-1,-2,-3,-3,-11,-11,1,-7
450516212402,-3,-3,-2,-5,-6,2,1,0
450516212402,-3,7,-3,0,-18,-1,1,-6
450516225954,-2,8,10,-4,9,-3,-8,-3
450516225954,7,10,4,-1,-15,16,-3,3
450516251929,-3,13,4,-1,0,-2,-3,-2
450516251929,0,11,-5,-3,2,-2,-1,-5
450516252714,-1,-6,-1,0,-3,-9,-2,1
450516252714,-3,3,1,-1,4,7,1,-6
450516255904,7,-17,-3,2,0,-4,-2,5
450516255904,-1,16,-3,-5,-6,5,1,-1
450516263416,-2,-6,-5,-3,-3,-2,2,-5
450516263416,-1,-10,-8,-2,6,-7,-1,-1
450516272404,-8,-8,-2,-1,2,3,-3,-4
450516272404,3,-17,-6,-1,0,-8,0,3
450516285959,-2,-4,-1,-4,-6,-3,-1,1
450516285959,0,-2,5,2,0,-2,0,-1
450516294926,3,4,5,4,-1,-2,1,-1
450516294926,-4,-3,1,5,7,-3,-2,-2
450516300927,-2,-2,6,1,-2,-1,-2,3
450516300927,-1,-8,1,-3,-4,3,2,-2
450516309951,0,3,-1,-1,3,-3,-1,-1
450516309951,0,-1,1,-5,4,3,-3,-3
450516323481,3,5,-3,1,0,1,3,2
450516323481,-1,1,1,-7,5,-4,0,-4
450516332405,-3,4,0,-5,-3,3,0,0
450516332405,-2,12,0,1,6,3,1,-2
450516345913,5,8,-7,1,1,4,-3,-6
450516345913,-3,1,-4,-1,-3,1,-3,3
450516354907,0,4,-2,1,-7,9,-2,-1
450516354907,2,-8,1,-2,-8,-3,-1,-2
450516369760,-4,-4,0,-4,-10,2,1,-2
450516369760,-4,1,0,-2,-4,-9,-2,-3
450516371375,4,-4,1,0,-2,-3,-3,-5
450516371375,1,-1,-1,-3,-1,-1,1,1
450516383456,3,3,-6,-4,-2,2,-1,-3
450516383456,-7,-3,-4,-1,-1,2,2,-2
450516392427,-1,2,-6,-4,2,-4,1,-2
450516392427,2,-7,-1,2,4,-4,2,5
450516405895,0,-6,-5,-3,-4,-8,2,1
450516405895,1,-6,0,0,2,-5,0,1
450516415013,-4,-1,-1,-2,0,-2,-2,-3
450516415013,1,3,2,1,1,-2,-7,-2
450516429855,4,7,1,-2,4,0,-1,-2
450516429855,1,1,-4,-5,-4,3,-3,0
450516431484,-3,-6,-6,-1,-1,2,-3,-4
450516431484,-8,-8,2,-4,-2,-7,1,-3
450516443504,-1,-4,1,-7,-8,1,-4,1
450516443504,-1,-3,-6,-4,-3,-8,-4,0
450516452496,0,0,-3,-3,0,-2,-2,0
450516452496,-4,5,-3,-5,-5,4,-4,-4
450516466053,2,1,-1,0,6,-8,1,-3
450516466053,1,-4,0,5,-2,-7,2,2
450516474987,-4,2,-5,2,2,-4,-2,2
450516474987,-3,-7,-2,4,0,-4,3,1
450516489863,2,-14,0,1,-6,-3,-3,3
450516489863,-4,-6,0,0,-5,-4,-5,-7
450516491437,-2,-5,-3,-3,-3,4,1,-3
450516491437,1,-2,-2,-2,1,2,-1,-3
450516503538,-4,-3,-2,0,-5,0,-1,-1
450516503538,0,3,-5,-4,4,-1,-5,2
450516512412,2,-5,4,-1,5,3,-3,1
450516512412,-4,7,-20,-12,-15,5,-7,1
450516526039,-7,1,-8,0,-4,6,-3,0
450516526039,-6,5,-7,-2,4,-3,1,-2
450516535037,-3,4,-1,-2,-6,-14,-3,3
450516535037,2,-1,6,0,10,-6,0,0
450516549887,-2,-6,-3,-2,0,0,-6,-1
450516549887,-2,-21,0,1,-5,7,0,2
450516551410,-5,-7,-3,-3,4,1,5,-3
450516551410,7,-3,-2,1,-2,-3,5,-1
450516563464,-1,11,-2,-4,2,2,0,-4
450516563464,-2,1,2,-1,-8,-1,0,-6
450516572514,-3,-2,-2,-6,-7,3,0,1
450516572514,1,-6,5,-2,-3,1,-3,2
450516586010,-1,-4,2,-3,-3,-3,5,2
450516586010,-5,7,5,-2,-4,-2,-3,1
450516595034,1,0,0,-4,-10,0,-3,-2
450516595034,-6,13,-5,2,4,-2,-1,2
450516609863,2,4,0,-7,-5,-7,-9,-1
450516609863,2,4,-2,0,5,1,1,0
450516611405,3,-2,-2,4,-2,4,-3,-1
450516611405,-1,-16,3,-4,2,2,-1,-3
450516623523,-6,-10,-6,-2,5,0,-2,1
450516623523,2,-5,-8,-5,-1,-1,1,-1
450516632484,-3,-5,-3,-6,-5,-8,-6,-4
450516632484,0,-2,0,1,-4,0,-2,0
450516645996,-1,5,4,0,-2,-2,1,0
450516645996,-1,4,6,-2,-11,-4,-2,-1
450516654909,-3,-2,3,-4,-1,-2,1,3
450516654909,1,2,2,5,-2,-4,3,0
450516669910,2,5,1,3,-3,-2,0,-3
450516669910,1,-7,2,6,5,-4,-2,2
450516671450,-4,3,-2,8,-1,-4,4,2
450516671450,-1,0,-3,-6,-6,0,1,1
450516683520,3,-1,-5,-4,0,3,0,-3
450516683520,0,4,4,-1,3,4,-1,0
450516692467,0,8,-2,2,-2,7,-3,-3
450516692467,-2,1,2,6,3,2,0,-2
450516705960,-1,-8,-2,2,-3,-11,-2,5
450516705960,7,-10,-5,0,0,-3,0,2
450516714951,-3,-13,1,0,6,-2,-3,-2
450516714951,-6,-5,-5,-4,-1,-7,-2,-4
450516729828,-3,-4,-1,0,7,-2,2,-2
450516729828,-1,5,-9,-2,6,4,-4,2
450516731416,1,8,2,-1,5,6,-7,-5
450516731416,0,5,-1,-2,4,7,-5,-2
450516743510,-1,3,-6,0,0,3,3,0
450516743510,0,-10,-4,-1,-2,-9,-2,0
450516752463,-1,-3,1,5,-5,-14,5,0
450516752463,1,4,5,-2,-11,-8,-5,-1
450516765987,-6,4,2,-2,-4,0,1,-3
450516765987,-1,2,-4,-5,-10,4,-2,-1
450516774907,3,7,-2,-2,-1,2,-3,-5
450516774907,0,7,0,5,-7,1,1,2
450516789805,-1,-3,-1,-3,0,-2,-3,-3
450516789805,3,5,4,1,1,-1,1,-1
450516791392,0,-8,2,-2,2,-1,1,3
450516791392,-6,0,-1,-4,3,-3,2,1
450516803408,2,-14,-1,-3,1,1,3,-2
450516803408,-7,-5,-3,-4,0,8,-6,-3
450516812478,4,5,-7,-7,0,-1,-2,-1
450516812478,-3,3,-2,-9,0,5,-5,-2
450516826008,-7,5,-2,-7,-2,0,-5,-1
450516826008,0,5,-6,-2,2,-6,-1,-1
450516835002,1,-5,-1,0,3,-4,3,-1
450516835002,3,1,-1,4,8,-4,4,4
450516849874,-3,-4,1,16,5,-9,-4,-4
450516849874,-1,-18,2,9,4,-8,2,-4
450516851431,-6,2,-4,-1,1,3,-2,-5
450516851431,5,-1,-1,2,-2,-10,1,2
450516863562,5,15,3,-3,-9,8,-5,-1
450516863562,-2,5,0,-2,-1,0,-2,0
450516872534,0,-9,-3,-1,-7,1,0,0
450516872534,0,-6,2,-3,2,-2,-1,-3
450516886076,3,-9,-5,-4,-3,-3,-5,-2
450516886076,-3,-10,-3,0,3,-3,2,-4
450516894931,2,2,-6,1,0,3,-2,-1
450516894931,-5,0,2,0,3,-1,1,-3
450516909844,-1,2,-11,-3,-1,-2,-2,1
450516909844,1,-2,-1,-6,-8,-5,-1,-3
450516911380,1,-4,5,-2,-1,2,-2,-2
450516911380,0,-12,-8,-3,-9,-3,-1,-5
450516923516,-1,9,10,-3,0,2,4,-1
450516923516,4,0,-3,0,1,-2,-1,-1
450516932587,-2,1,0,-5,-2,2,-4,5
450516932587,-7,-5,-4,-3,-8,-4,-2,-3
450516946005,0,-3,2,-3,-5,1,6,0
450516946005,-5,11,1,-4,0,6,-1,-2
450516955031,0,-4,-2,-6,-3,-8,-3,-7
450516955031,-3,-8,-3,-1,3,1,-5,-3
450516969874,-5,-8,-5,0,-1,-4,1,-3
450516969874,-1,-4,-1,-1,-3,-3,4,-1
450516971482,4,1,2,4,3,-5,3,1
450516971482,3,0,0,3,-4,1,-2,3
450516983431,2,-6,-1,1,1,-1,-2,-4
450516983431,-2,-7,0,-2,-4,-1,-4,-2
450516992514,-4,-1,0,-3,-3,-1,-2,1
450516992514,3,-1,1,-2,-1,0,-2,0
450517006036,4,0,4,-4,-1,-3,-3,3
450517006036,1,5,1,-2,1,-7,0,5
450517014969,-2,1,-5,2,1,4,3,0
450517014969,-5,-2,-1,-2,-1,4,-6,-4
450517029835,-5,-6,-4,-4,-4,0,-4,-1
450517029835,0,-2,-3,-6,-2,-1,-3,-5
450517031460,-5,1,-1,-8,-12,-4,2,-3
450517031460,2,0,-6,-2,5,-3,0,-3
450517043530,-4,-2,-8,-7,-1,-4,-1,1
450517043530,-1,0,-4,5,-5,-4,2,0
450517052411,-2,-1,-3,-1,-1,-3,2,-1
450517052411,2,-4,-1,0,-1,1,2,1
450517065990,6,5,3,0,6,-1,-3,-7
450517065990,-2,4,-2,2,-2,3,-2,-3
450517075050,4,3,-4,1,-3,0,3,-2
450517075050,-3,3,-2,-5,-3,-2,2,2
450517089860,-1,-1,1,1,-1,1,-3,1
450517089860,-1,-1,0,-1,-1,4,-5,0
450517091460,4,3,-1,-2,1,0,-4,-5
450517091460,-4,-9,-9,1,3,0,-2,2
450517103493,0,-7,2,1,0,5,3,-2
450517103493,4,1,-1,-2,-3,-1,1,-2
450517112520,-4,-3,1,-4,1,-1,-3,-1
450517112520,0,0,-4,-1,-2,1,2,-1
450517125959,-5,-1,-4,1,-5,3,-1,0
450517125959,2,-6,7,-3,-11,8,3,-3
450517135006,-2,0,-1,3,6,-5,-3,2
450517135006,1,6,2,1,2,5,0,-2
450517149837,0,-1,2,-1,-4,-6,2,2
450517149837,-1,8,0,3,5,2,-3,-2
450517151457,2,1,-3,3,-4,-1,1,3
450517151457,3,4,3,4,2,3,4,1
450517163511,1,-3,-1,0,-1,1,-2,2
450517163511,1,-8,-5,-3,0,1,-2,1
450517172540,-3,-6,0,-2,-1,1,-4,-1
450517172540,-2,-4,0,-3,-1,-4,-1,-4
450517186026,-6,-4,-2,-2,-2,-3,-3,-4
450517186026,1,4,5,4,1,-1,-1,-3
450517195029,2,3,2,-3,4,-1,-1,2
450517195029,-6,-5,3,0,-5,-4,1,-1
450517209831,-1,1,-1,-2,1,-6,0,0
450517209831,-3,-2,-2,-7,0,-6,0,-4
450517211518,-3,-5,2,-1,-5,-2,2,1
450517211518,0,5,-2,-2,0,-2,-4,-3
450517223491,1,6,3,-2,0,-5,6,2
450517223491,-2,-2,0,-2,0,-5,-2,0
450517232564,0,-4,1,2,4,0,0,-4
450517232564,3,2,-2,3,5,-1,1,4
450517245998,-1,-1,-1,-1,-5,1,-1,0
450517245998,-6,-1,-2,-3,-1,-3,-5,-1
450517255006,-4,0,-1,-4,-6,-4,2,-4
450517255006,3,-3,3,4,3,4,-3,3
450517269179,-2,-2,2,-2,1,3,-1,0
450517269179,-3,-1,-2,0,1,-1,2,2
450517276008,-3,-3,-4,-1,1,3,1,-2
450517276008,2,-1,-1,0,0,-4,4,-2
450517283500,0,-3,-1,2,6,-1,2,1
450517283500,-4,-5,-1,-2,-1,1,3,-4
450517292520,-2,-4,2,0,-5,-1,-1,-2
450517292520,-3,-3,-2,-4,-2,-8,-6,0
450517306035,3,0,-3,0,3,-2,-2,-2
450517306035,-1,-3,-1,-9,-7,-2,0,-3
450517315029,0,0,-2,0,-6,0,-4,-3
450517315029,0,-2,0,3,1,-8,0,-6
450517329230,2,2,-3,-1,-3,-6,1,3
450517329230,-2,0,-1,3,5,0,0,2
450517335906,1,-3,-3,-2,2,-3,-2,-3
450517335906,0,-8,-5,-7,-1,1,-6,0
450517352338,-1,1,-1,-2,-1,3,1,-5
450517352338,0,2,0,1,0,-3,-5,1
450517353908,-6,0,1,2,5,1,-2,3
450517353908,-1,-4,2,-3,0,-3,0,-2
450517366008,-2,-5,-1,-4,-1,2,1,-3
450517366008,0,2,-3,-3,-6,-2,-4,-4
450517375036,1,-1,-2,0,0,4,0,5
450517375036,1,2,1,-3,-1,-2,-1,-1
450517389251,-7,0,4,-1,-5,2,-2,-4
450517389251,-3,-6,2,3,-2,-1,0,-1
450517395986,-3,1,-1,-1,4,1,1,-2
450517395986,-2,-6,-1,-3,-3,0,-1,-2
450517412404,-1,-5,-5,1,-1,-1,-4,4
450517412404,-2,-9,-3,-4,2,5,-3,0
450517413981,2,-2,-1,-3,0,-5,-1,-1
450517413981,0,-1,4,7,-7,1,1,0
450517425957,5,-3,-4,2,-5,-1,-7,-5
450517425957,-5,3,-5,-2,1,-5,1,-5
450517435032,-1,4,2,-3,-3,-5,1,2
450517435032,-4,2,0,-2,3,2,1,5
450517449184,-1,-4,-4,-3,0,-7,-4,0
450517449184,-1,-6,2,-1,-6,-1,0,4
450517456001,2,-2,-2,-1,3,-2,-1,0
450517456001,0,4,-6,-2,0,-2,1,-1
450517472338,-6,-1,-1,3,0,-2,2,1
450517472338,-3,-1,-4,-6,-6,1,-3,-3
450517473951,-2,-1,4,1,-3,2,3,-3
450517473951,-2,-1,-2,-4,2,-3,-3,1
450517486053,1,-1,-2,0,3,0,-2,3
450517486053,-1,0,-4,0,-5,0,-1,1
450517494946,3,-3,-7,1,-2,0,-7,-2
450517494946,-2,-3,-2,-1,-4,3,1,-2
450517509240,-2,-2,-5,2,-2,-2,3,0
450517509240,1,-2,-1,3,2,-1,1,-1
450517516009,-2,-3,3,-3,-3,1,-5,-2
450517516009,1,-2,0,1,3,-1,-3,-1
450517532375,0,2,-2,-2,-1,0,0,0
450517532375,-4,-4,-5,1,-1,5,4,-1
450517533955,-3,-2,-2,0,0,-1,-1,2
450517533955,0,4,4,5,2,4,1,-2
450517545957,-6,-1,2,-4,-2,-2,1,-5
450517545957,2,5,2,-2,4,-4,-5,-2
450517554979,0,-1,-5,2,0,-3,2,0
450517554979,0,-3,-2,-6,-3,-1,-3,0
450517569219,0,-1,0,1,6,3,-2,1
450517569219,0,-2,3,-2,6,-9,1,0
450517575995,3,-2,0,-4,-4,-2,1,-2
450517575995,-1,-5,-4,-4,-3,-4,-5,-4
450517592368,-3,-2,0,2,2,-2,-4,-2
450517592368,-2,-5,-2,-4,-3,3,-3,3
450517593907,2,-5,2,-2,2,2,1,-4
450517593907,0,-1,-5,-4,-4,-2,0,0
450517606053,1,0,0,-3,-2,-4,-3,0
450517606053,-1,1,-2,0,-4,-3,-2,3
450517615014,-2,-3,-4,-1,1,-4,-5,-4
450517615014,0,2,5,5,9,5,1,2
450517629168,-1,0,-4,2,1,-5,3,-4
450517629168,2,1,1,1,4,2,1,-5
450517636006,-8,-5,-3,-1,3,1,-2,-1
450517636006,-1,5,1,5,-3,-1,-2,0
450517652404,-1,-3,-5,-5,-7,-2,1,-5
450517652404,-2,0,0,-5,4,-6,1,-2
450517653943,2,0,-3,6,2,-2,-1,0
450517653943,5,-6,-5,-4,-4,-9,2,-3
450517666012,-2,-5,-3,-5,0,-6,-8,3
450517666012,-1,1,-1,-3,-3,2,-2,0
450517675035,-1,-5,-2,-1,0,1,-1,-1
450517675035,-2,-1,0,4,2,2,-2,-3
450517689238,1,5,4,-4,-1,-3,-7,0
450517689238,0,-2,-1,2,-3,0,2,1
450517695988,2,8,-4,1,1,1,-5,0
450517695988,-1,-5,-6,-2,-4,2,2,4
450517712338,-1,-1,-4,-3,-1,0,6,-2
450517712338,1,-2,-1,-1,3,0,1,-1
450517713982,-5,-1,-4,0,1,-7,-1,-3
450517713982,-3,1,-4,-3,0,-3,2,-4
450517725983,1,-4,-1,4,1,1,1,0
450517725983,1,-3,-6,-3,-3,-5,-6,0
450517735058,-2,-2,0,-5,-3,2,1,-1
450517735058,-2,-4,0,-3,-2,-3,-3,-2
450517749216,-2,-7,-2,-2,-4,0,0,0
450517749216,3,1,1,1,-1,-4,-3,-6
450517756023,-4,0,0,-4,-1,1,3,2
450517756023,-4,-4,-6,-4,3,-4,1,0
450517772334,1,3,2,-1,3,2,-1,-3
450517772334,-3,3,-2,3,1,-2,0,-1
450517773899,-1,-1,-3,-1,-2,1,-3,4
450517773899,2,0,2,-2,1,-5,-4,-2
450517786045,-2,-1,1,3,8,4,-2,-3
450517786045,3,-1,-2,-2,-2,2,-2,-1
450517795028,2,-1,-1,-3,-3,-2,1,1
450517795028,-7,0,-3,-7,-4,0,-5,0
450517809269,7,-6,-3,1,0,2,-2,2
450517809269,1,0,-2,1,4,-5,-2,-2
450517816065,5,1,3,3,-2,2,-2,-3
450517816065,-4,-4,-2,-1,6,8,-3,-4
450517832142,-5,5,0,-1,-10,4,-1,0
450517832142,-6,-2,-3,-3,-2,-7,3,0
450517846725,0,-1,-2,-4,-10,-7,-2,-2
450517846725,2,6,1,-3,-4,-9,0,1
450517847458,-1,-6,-2,-5,-8,-8,-2,-1
450517847458,-6,-16,2,1,0,3,2,-4
450517861035,-3,-4,-1,6,5,2,5,1
450517861035,5,0,-1,7,-1,-7,2,-2
450517869215,0,11,-4,1,6,3,-1,-4
450517869215,-2,8,-4,-3,1,2,-7,-2
450517875981,-1,-3,-5,-1,3,1,-3,2
450517875981,-4,-12,0,-2,1,-2,-3,-3
450517892382,-3,-7,-1,-6,-1,-4,5,0
450517892382,1,3,2,2,1,1,-2,0
450517893974,1,9,2,-6,2,1,-1,-2
450517893974,1,4,0,-1,-5,0,-2,0
450517906021,2,-3,-4,-4,-1,2,0,-1
450517906021,-1,-5,-4,-6,-6,2,0,-3
450517915035,-2,2,-6,-5,-2,-4,-4,-5
450517915035,-1,-2,-3,-4,-4,1,0,-2
450517929229,-4,-8,-2,-2,1,-4,-1,-2
450517929229,-1,-2,-2,2,-3,-6,1,-3
450517936037,-2,-6,-1,-1,0,-4,0,1
450517936037,-3,-1,-4,-2,-4,-1,-1,-2
450517952393,-2,4,3,0,-3,1,-2,-2
450517952393,2,0,2,3,2,2,-1,2
450517953969,-2,0,-1,3,-1,6,-4,2
450517953969,0,-1,3,1,-3,0,-2,0
450517966057,2,1,0,-7,-4,-2,-8,-6
450517966057,2,2,0,0,1,-7,-1,0
450517975022,-1,1,-1,-1,0,1,2,1
450517975022,-6,-1,-3,-5,-2,3,-3,-1
450517989271,-4,4,-3,-2,-5,-1,-6,1
450517989271,0,-1,-1,1,2,3,-2,0
450517996013,3,4,4,-1,-3,-3,-6,-1
450517996013,2,2,-5,-3,0,-2,-3,-3
450518012323,-1,-4,-5,-1,-1,-5,-1,0
450518012323,-1,-7,-3,-7,-9,-6,-2,3
450518013944,-3,-11,-2,-6,-5,-2,-1,-6
450518013944,-3,3,-3,-2,1,0,5,-3
450518025995,1,0,6,-1,-7,-2,-2,-2
450518025995,-6,2,-9,-6,-8,-2,1,0
450518034972,-3,-3,2,0,3,-4,1,-1
450518034972,-4,-7,-6,-3,1,-1,2,0
450518049190,0,-1,-4,1,4,3,2,2
450518049190,-1,-8,-7,-1,-1,-8,-3,0
450518056036,-3,-6,2,0,-4,-11,-7,-1
450518056036,-1,-5,-1,1,-1,-3,-6,3
450518072328,-7,-12,-5,-2,0,-6,-3,-7
450518072328,-10,-6,1,8,4,3,-9,-11
450518073934,-29,-24,5,11,1,-21,-29,-31
450518073934,35,-6,-32,-33,-25,-28,31,31
450518085935,-3,62,20,-33,-17,48,29,16
450518085935,60,10,-35,-13,2,4,31,53
450518094991,-13,80,11,-24,4,77,-4,-6
450518094991,-34,99,12,9,11,29,-34,-29
450518109218,-11,-11,-7,11,-4,-10,-19,-13
450518109218,3,-24,5,-11,18,-39,16,17
450518116024,31,-80,-9,19,-25,-45,24,17
450518116024,-33,-35,34,2,20,-21,-17,-7
450518132268,-2,-29,-14,24,-8,-33,-5,-20
450518132268,-9,-41,12,8,8,-14,-10,13
450518133963,11,13,-30,-8,-16,11,21,17
450518133963,29,20,-4,8,1,15,5,42
450518146101,-51,78,4,5,22,86,20,-87
450518146101,-57,1,18,11,16,-28,3,-15
450518155087,86,-78,-26,-13,2,-56,40,-19
450518155087,-10,-109,29,-13,-11,-75,-2,29
450518169232,62,-65,3,29,-34,26,-35,46
450518169232,-15,-19,36,0,-2,18,10,-24
450518175991,16,4,23,19,24,-33,-48,-4
450518175991,-15,28,8,8,20,-26,34,-30
450518191731,39,66,-4,-6,13,-26,-8,-7
450518191731,-44,75,10,6,7,84,-27,-17
450518198548,-10,107,-11,-13,-15,85,10,13
450518198548,-5,12,-37,-28,-19,5,-12,1
450518214840,-27,-100,-19,-2,4,-33,3,51
450518214840,40,-91,-37,4,-17,-59,33,28
450518216416,-13,-40,5,-11,-5,-63,-10,32
450518216416,30,4,-2,4,9,-26,-13,-7
450518229242,-77,106,18,-7,0,36,-19,-99
450518229242,-51,70,13,3,3,41,-40,-75
450518236058,-43,40,-17,12,1,50,-10,-8
450518236058,53,-42,-21,-11,-25,20,16,48
450518251709,64,-84,4,-13,-8,17,16,73
450518251709,-10,-2,26,2,7,4,1,-8
450518258472,-55,-66,13,4,24,-92,-11,-25
450518258472,-4,-66,-7,6,-7,-43,17,-5
450518274871,45,-79,-22,-17,-6,-64,26,44
450518274871,36,-8,-10,1,-21,53,1,22
450518276477,13,73,24,-11,11,95,12,11
450518276477,-26,108,-2,12,8,35,-31,-39
450518289241,12,48,0,-20,4,-10,13,27
450518289241,35,23,-11,-5,-17,-16,7,24
450518296013,9,-26,9,-5,-5,-5,-1,-8
450518296013,8,5,12,-1,1,23,4,1
450518311638,-13,14,2,3,13,-31,2,8
450518311638,16,-15,-23,-2,-10,-28,0,11
450518318539,10,-31,-17,0,-15,-3,-7,13
450518318539,23,17,9,13,14,68,46,-60
450518334830,96,-92,38,26,39,-85,61,-44
450518334830,116,-100,-28,-17,-35,-66,51,-17
450518336480,11,32,32,-8,-9,-55,0,58
450518336480,-53,-82,34,35,-19,48,-27,-16
450518349156,-48,19,64,-32,25,-10,-18,-29
450518349156,-13,-33,-35,6,16,11,-74,26
450518356033,17,16,15,-28,15,26,77,-10
450518356033,14,33,-45,-10,20,-38,1,5
450518371769,-29,-3,11,10,-16,106,-5,0
450518371769,-41,42,-6,-23,0,1,4,-13
450518378509,-9,11,-48,24,-20,-12,-49,3
450518378509,-10,-45,19,-20,10,-53,-49,30
450518394879,-28,102,-40,4,-40,-12,-13,18
450518394879,-39,34,30,-4,1,20,-33,-5
450518396485,-59,13,-7,12,-8,28,-24,-17
450518396485,-1,-5,-10,-3,2,-51,11,12
450518409236,-5,46,-50,2,-19,-24,-8,-5
450518409236,6,-15,24,-5,19,12,3,-1
450518416051,-2,-17,0,2,-8,36,-13,-32
450518416051,-16,73,8,-3,9,25,5,21
450518431662,-59,49,-16,-9,-4,-1,-15,3
450518431662,-25,105,-44,-6,1,-34,-8,1
450518438523,33,-6,-18,-10,-13,13,16,-10
450518438523,14,-3,-10,0,-15,93,-7,1
450518454896,-3,-2,9,2,-4,56,-15,22
450518454896,4,15,6,-7,3,23,-55,-35
450518456451,-49,23,35,18,-3,65,-45,-20
450518456451,81,-83,-18,-5,-25,-24,1,18
450518469269,1,-70,24,-25,-8,17,15,33
450518469269,-19,14,44,-2,25,76,-12,-15
450518476064,8,-103,43,-24,29,-87,34,40
450518476064,-28,108,-66,-5,-32,10,-8,-8
450518491732,30,-128,20,7,-12,28,-35,20
450518491732,6,-27,14,17,-19,24,-5,-2
450518498546,1,-10,5,-2,9,-9,16,-4
450518498546,17,-50,31,-1,19,-8,9,-27
450518515363,7,-50,-25,-12,28,-50,-4,-20
450518515363,-10,11,1,-2,-23,3,33,17
450518516944,15,-2,-23,3,-2,27,14,10
450518516944,-22,11,11,6,-4,-26,-2,2
450518528554,6,18,-26,6,1,-51,-11,-20
450518528554,25,-19,-1,7,6,-43,28,11
450518537571,4,8,0,-3,-4,13,7,6
450518537571,-11,-28,3,-4,6,13,9,0
450518551752,-9,2,-8,-2,-1,0,-11,-7
450518551752,-2,45,-2,-6,-1,-10,5,-12
450518558535,14,17,-15,-1,-1,-26,0,-8
450518558535,-25,35,2,-2,0,36,-13,-7
450518574880,-7,36,1,4,0,13,-1,-14
450518574880,-2,0,-7,1,-2,-9,14,1
450518576479,18,-20,-11,6,2,-49,-27,-12
450518576479,-2,-29,17,1,1,-40,-8,0
450518588587,9,-13,11,4,-3,2,15,-7
450518588587,8,9,2,-3,1,-13,18,14
450518597611,21,-31,-8,-4,0,22,15,-11
450518597611,-37,51,-2,-4,10,11,-5,7
450518611776,10,8,-16,4,-6,7,11,-14
450518611776,-39,57,-3,-15,8,10,-8,12
450518618538,27,-35,-13,8,-23,24,0,9
450518618538,-26,50,3,-13,19,15,-8,-1
450518634937,31,-18,-6,12,-21,-21,2,-6
450518634937,-10,32,1,-8,19,-21,-9,21
450518636454,1,-62,3,8,-24,-38,9,35
450518636454,9,-29,8,-2,21,15,-8,-4
450518648513,-24,-9,3,-3,-17,-12,17,-13
450518648513,37,-28,-18,2,1,-11,3,-14
450518657536,-32,14,2,-3,-5,-29,3,3
450518657536,19,-2,-13,3,11,4,-8,-5
450518671440,-44,57,5,-7,-7,6,8,11
450518671440,15,39,-16,-7,10,33,-23,-21
450518679944,-23,-12,8,1,-4,0,2,2
450518679944,15,36,-21,-5,-7,14,7,-25
450518694881,5,-3,10,5,-2,-34,-10,12
450518694881,6,9,-3,-5,0,-2,0,-20
450518696485,1,-11,8,1,-5,-12,7,5
450518696485,-3,-16,-5,3,3,-10,-23,4
450518708495,6,-24,4,0,6,1,4,6
450518708495,-8,-21,3,11,-4,-1,-5,8
450518723519,-10,14,3,1,13,12,-12,-20
450518723519,14,5,-3,-4,-13,-10,15,4
450518731708,0,18,-7,-4,8,3,0,7
450518731708,2,-63,-1,12,-3,4,13,1
450518746082,-5,38,-10,-7,11,5,-7,-16
450518746082,2,-13,9,0,-6,2,17,6
450518754863,-1,6,-6,-5,6,-5,-5,1
450518754863,2,-36,0,2,-12,-14,7,6
450518756444,3,17,-2,-1,9,-5,-13,-2
450518756444,4,-15,-3,1,-18,-10,2,-4
450518768530,-4,11,2,2,9,15,-18,-2
450518768530,-4,-14,2,-1,-13,2,-6,-1
450518777595,-2,65,-4,-3,7,7,-7,-2
450518777595,-2,-4,1,3,-5,-20,-4,2
450518791782,9,-9,-4,-2,12,4,5,-6
450518791782,0,-9,1,1,-7,-6,12,-2
450518798535,5,6,-8,-4,5,1,-4,-4
450518798535,-10,-23,1,-2,-4,-7,14,-7
450518814880,-2,-1,-3,0,5,10,-4,5
450518814880,-9,-29,2,-5,-10,-2,5,-1
450518816519,-13,12,-1,0,6,6,-7,-3
450518816519,5,-33,1,5,-11,-16,0,7
450518828507,4,5,-6,-6,4,-6,-8,2
450518828507,3,-23,3,0,-13,-14,-3,-1
450518837530,2,11,-1,-1,6,7,-2,-7
450518837530,-1,-3,5,2,-10,8,2,-6
450518851709,0,27,-1,-1,2,14,-4,5
450518851709,-4,12,6,-1,-7,-2,5,2
450518858542,0,5,-7,-6,-1,9,4,-3
450518858542,-12,-9,0,-2,-2,-7,-3,1
450518874908,7,-7,-1,-4,-1,-5,3,4
450518874908,1,-11,-3,-1,-1,-8,1,4
450518876457,0,-10,0,2,-1,-7,3,-1
450518876457,5,-3,5,-6,-4,-2,1,1
450518888591,-1,4,4,-3,-4,10,-26,1
450518888591,-1,3,0,5,0,10,-7,-16
450518897443,-1,20,0,0,-6,-2,-9,-11
450518897443,2,18,6,-1,1,3,-3,-4
450518911735,-6,1,-3,4,2,-2,3,-5
450518911735,-2,-4,-10,-5,9,-8,1,14
450518918548,-8,-14,-9,-4,-1,0,-6,-5
450518918548,-7,-15,-5,0,4,-4,5,6
450518934894,2,-13,1,-5,-4,-7,4,-1
450518934894,1,-3,-3,-11,-4,-19,-4,-8
450518936479,8,-2,0,-5,-10,4,-7,-13
450518936479,-3,0,3,0,1,-10,-2,8
450518948528,6,1,-11,2,0,12,-6,-13
450518948528,-13,3,3,-1,-1,-3,3,9
450518957566,2,21,-5,5,2,14,-1,1
450518957566,-6,-10,-3,-3,3,4,-1,-13
450518971679,1,10,-8,0,-3,0,1,0
450518971679,-2,-7,5,-2,-3,7,2,0
450518978460,-5,12,-1,-6,4,-8,-8,-7
450518978460,1,-3,0,1,-1,-1,0,4
450518994844,-3,1,-1,-4,1,-4,9,2
450518994844,1,-4,6,5,-3,-3,4,-2
450518996457,6,-10,5,1,0,-8,6,3
450518996457,-4,14,1,1,-7,-5,-1,-3
450519008553,7,0,4,-5,2,-2,3,3
450519008553,1,6,-5,-4,-8,11,-8,1
450519017508,2,-11,-3,-4,1,-6,3,-5
450519017508,-2,7,-9,2,0,5,2,4
450519031692,-13,-6,2,-4,-5,-2,-1,5
450519031692,22,-18,-8,-5,1,1,3,2
450519038626,-14,-12,-2,-9,-1,-15,2,8
450519038626,18,20,-7,4,-10,11,10,0
450519054908,-23,-20,-4,-1,-6,-24,3,2
450519054908,7,-20,3,2,-5,0,-6,-12
450519056537,6,38,12,-3,5,7,-8,1
450519056537,-13,7,13,-5,2,-13,-15,-10
450519068535,14,-8,8,-1,-4,4,-5,-8
450519068535,-5,-13,-3,-4,-4,-3,0,6
450519077544,9,-21,-12,5,0,13,3,-3
450519077544,-3,-2,-4,-4,1,-9,2,4
450519091703,2,30,5,3,3,12,-1,1
450519091703,-10,4,4,5,4,-8,-1,-8
450519098569,-10,-3,6,1,0,-1,-4,0
450519098569,4,-25,-6,0,-3,14,1,2
450519114212,4,-13,-8,-8,-2,-11,-1,3
450519114212,0,11,5,1,1,3,2,-5
450519121079,5,10,1,1,1,1,-2,2
450519121079,7,-7,3,1,-2,-1,3,-1
450519128506,-1,12,-4,3,7,3,4,-5
450519128506,-3,8,-2,-1,0,-6,1,0
450519144991,0,-8,0,9,5,0,7,1
450519144991,-4,0,6,2,-1,2,-5,-1
450519151704,-3,-6,0,2,-1,-6,-4,-5
450519151704,-2,-7,-7,0,4,2,-3,0
450519158507,2,-7,-4,-6,-8,-5,1,1
450519158507,-1,-6,-1,3,5,3,0,-6
450519174250,-1,8,6,-3,-9,5,-3,3
450519174250,-1,14,4,-3,-6,3,-2,-4
450519181009,-1,2,2,-3,1,-1,-1,5
450519181009,2,3,-7,-5,1,-4,-5,-1
450519188504,1,-7,-4,-1,1,-5,-2,-1
450519188504,-3,-3,-3,3,5,2,4,6
450519197495,-2,-9,0,2,-6,-4,1,-3
450519197495,-3,-7,-3,-2,0,0,1,-4
450519211696,1,1,4,9,8,-1,-2,2
450519211696,-5,2,1,-4,-5,-8,-2,1
450519218545,-3,2,-4,-3,-2,4,-3,-2
450519218545,0,-5,-2,4,0,1,3,5
450519234192,2,2,-3,2,-5,-1,0,-5
450519234192,-1,-4,-3,0,-1,-4,-1,3
450519241066,1,-3,-4,-3,-4,-5,2,-1
450519241066,0,-1,2,0,1,1,4,-2
450519257482,-4,-7,-2,0,-1,-1,2,-1
450519257482,2,1,-2,-3,-1,3,-2,-1
450519258988,-2,-3,-1,-2,1,-2,1,-2
450519258988,1,3,-2,3,4,2,-4,1
450519271777,-1,-4,-5,-6,0,2,-1,0
450519271777,0,-1,0,1,-2,2,1,-5
450519278629,-5,2,-3,-2,3,3,-2,1
450519278629,-1,2,-1,-3,-1,-1,-4,-3
450519294272,3,-2,0,4,1,1,3,-1
450519294272,2,6,1,4,4,1,-1,3
450519301088,-1,-4,-3,-1,-4,1,-2,1
450519301088,-2,-3,2,0,3,3,1,0
450519317354,-1,0,-3,1,-1,-3,3,3
450519317354,-5,5,0,-2,0,-4,-3,-5
450519318962,-2,-3,0,1,-3,-1,0,-5
450519318962,-2,-2,-1,-3,-7,-1,1,-1
450519331736,-4,-1,-3,-2,1,0,-2,1
450519331736,-2,-1,-2,-5,3,0,-3,-5
450519338505,4,-1,1,2,0,-1,0,4
450519338505,2,1,3,-7,-5,-8,0,-4
450519354206,-3,0,0,-3,-4,-5,1,-5
450519354206,1,1,-1,-2,-7,-4,-4,-2
450519368585,-1,4,1,2,6,0,3,1
450519368585,-3,-3,-5,-1,-4,-2,0,0
450519377357,-3,-2,-1,-5,-1,0,-1,-1
450519377357,-2,2,1,-5,-4,1,0,0
450519378993,3,0,-2,-1,-5,-4,3,-5
450519378993,-3,-4,-5,0,-4,2,-2,2
450519391755,-4,2,0,-6,-4,-8,-5,-1
450519391755,0,-1,3,-2,-6,0,2,0
450519398503,-3,-1,1,-4,1,3,2,-1
450519398503,2,1,-1,-7,-1,2,-7,-3
450519414305,-2,-2,-1,-5,-7,1,-3,0
450519414305,-2,2,-3,-4,-2,0,1,1
450519421043,-2,-1,-4,-6,-8,-3,-5,-1
450519421043,-1,1,1,4,-3,-2,4,-3
