timestamp,emg1,emg2,emg3,emg4,emg5,emg6,emg7,emg8
611041466490,-9,4,2,33,-1,16,1,-5
611041466490,-36,10,-51,-89,34,37,7,1
611041467221,9,-1,13,12,-11,-10,-4,-3
611041467221,18,0,37,76,-26,0,-3,1
611041468116,-10,1,-14,-48,12,7,3,2
611041468116,11,-5,8,-7,-9,-25,-1,-3
611041472220,26,-12,36,64,-28,-24,-3,4
611041472220,-12,-1,-20,-35,14,6,0,-4
611041474669,-10,2,-24,-59,19,-5,3,0
611041474669,17,-4,25,48,-20,-15,-5,-2
611041478034,-19,10,-13,-17,15,15,3,-1
611041478034,-22,4,-30,-57,22,14,4,1
611041489393,10,-2,18,22,-15,-10,-3,-3
611041489393,7,-1,21,44,-14,0,-2,-2
611041501648,-11,3,-19,-42,10,13,2,0
611041501648,8,-2,1,-10,-4,-11,-3,-3
611041509423,21,-8,24,42,-20,-12,-2,2
611041509423,-6,2,-6,-12,6,3,2,-3
611041523735,-11,-1,-19,-36,10,0,-2,-4
611041523735,6,-1,12,16,-8,-7,-3,-1
611041531604,-1,2,-6,-1,2,4,-2,5
611041531604,-11,-1,-14,-22,7,6,-3,-7
611041538103,7,-1,4,5,-3,-2,2,0
611041538103,2,-2,2,12,-3,2,-3,0
611041585484,13,-4,18,23,-14,-12,-6,0
611041585484,19,0,42,87,-29,4,-6,-2
611041586226,-14,3,-21,-48,13,15,1,-1
611041586226,8,-6,4,-11,-7,-14,0,1
611041587048,30,-5,49,72,-36,-23,-7,-4
611041587048,-14,3,-24,-41,14,5,1,1
611041590195,-15,-5,-24,-51,14,-8,-1,0
611041590195,13,-5,19,36,-13,-10,-3,2
611041597840,-19,3,-24,-17,14,13,1,-2
611041597840,-28,5,-38,-69,24,14,5,-1
611041606789,18,-4,23,39,-17,-11,-2,0
611041606789,1,5,9,27,-6,11,-2,-2
611041612809,-14,2,-23,-47,15,5,2,1
611041612809,10,-4,7,2,-8,-12,-1,-3
611041637469,17,-4,33,55,-24,-14,-5,1
611041637469,-10,-2,-12,-27,10,6,0,1
611041638258,-10,-2,-17,-34,10,-2,0,-1
611041638258,10,-2,10,19,-10,-8,-4,-2
611041644318,-6,4,-6,0,2,2,1,-1
611041644318,-16,-2,-25,-38,11,6,-2,-1
611041666656,5,-2,4,7,-4,-6,-1,-1
611041666656,-3,3,4,10,-3,3,1,2
611041668232,-7,2,-9,-16,4,2,-1,-2
611041668232,3,2,6,3,-4,-2,-2,-3
611041672773,5,-5,11,17,-9,-2,0,-1
611041672773,-5,-1,-5,-13,3,-4,-1,-7
611041689246,-2,-4,-2,-5,0,-7,-2,-2
611041689246,3,2,3,8,-6,-5,0,-3
611041695228,-4,1,-8,-12,7,5,0,-2
611041695228,-3,-5,-12,-19,6,-3,4,2
611041704240,3,1,6,12,-9,-4,-1,-3
611041704240,-6,1,-6,-7,6,8,-2,-3
611041717741,-9,0,-10,-15,5,2,0,-5
611041717741,2,2,3,4,-3,-4,-5,1
611041726725,6,-3,7,10,-4,1,-3,-1
611041726725,0,0,-5,-8,2,-2,1,-2
611041732723,-3,-3,2,1,-5,-5,-2,-1
611041732723,6,-4,4,8,-2,-5,-1,1
611041749225,-3,-2,-3,-7,3,-2,0,-3
611041749225,-5,2,-8,-10,5,-1,0,0
611041755224,1,-1,1,-1,-4,2,0,0
611041755224,-5,-1,-5,-6,3,1,1,-3
611041770247,-3,-1,-7,-7,3,4,-1,5
611041770247,-1,-1,2,4,-4,-1,-3,-5
611041777731,3,1,2,0,-2,-1,1,4
611041777731,-1,-2,0,-3,0,0,0,3
611041786744,4,-1,5,4,-8,-5,2,-1
611041786744,2,-4,4,8,-4,-11,-2,-1
611041792747,1,-1,-4,-8,1,2,-1,-1
611041792747,-1,-2,-3,-5,2,0,-1,0
611041809247,0,1,-2,0,-1,-1,-2,-4
611041809247,-4,0,-6,-11,3,2,4,2
611041815232,-5,1,-5,-10,3,4,-3,2
611041815232,3,-3,2,9,-3,-2,-2,3
611041830249,-5,-1,2,-2,-2,3,-4,-3
611041830249,-2,-1,0,-4,-2,-4,4,-1
611041837768,3,0,3,5,-4,-4,0,-5
611041837768,2,0,2,5,-3,-9,-6,-5
611041846709,-1,-2,-5,-7,3,-1,-2,0
611041846709,-2,-1,-5,-2,0,-3,-1,3
611041852744,-5,-1,0,-3,-1,-3,-2,-2
611041852744,-5,-3,-7,-9,4,0,0,1
611041869251,-1,1,-4,-10,0,3,0,-2
611041869251,1,-7,0,8,-3,-2,0,-3
611041875230,2,-2,-2,-5,1,8,1,0
611041875230,-2,-2,1,-1,-5,0,-5,-2
611041890329,4,-5,5,9,-4,-4,-2,-3
611041890329,4,-2,5,10,-3,-4,-2,-2
611041897747,2,1,-3,-3,-3,-4,-5,6
611041897747,-3,-4,0,-1,-6,-6,0,-3
611041906733,3,2,-1,2,-2,-2,0,0
611041906733,-5,0,-6,-11,3,-1,-2,-3
611041912755,-1,2,-4,-9,4,6,0,-3
611041912755,3,-1,1,2,-1,0,0,-1
611041929305,-4,4,-3,-6,0,6,1,5
611041929305,0,1,-1,-6,-1,2,-4,0
611041935330,3,-4,6,5,-3,-4,-1,1
611041935330,3,0,5,5,-5,-4,0,-3
611041950269,-2,0,0,-8,1,-3,2,-2
611041950269,-2,-7,-1,2,-6,-9,-2,-5
611041957759,-3,-4,0,1,-7,-4,0,-1
611041957759,-6,-2,-7,-12,2,0,-1,-2
611041966762,-4,-3,-6,-10,2,4,-1,-3
611041966762,3,-3,2,6,-1,4,-2,1
611041972846,-8,3,-6,-5,5,9,2,2
611041972846,0,-1,-2,-7,4,0,1,1
611041989270,-1,-1,6,7,-7,-6,-3,-1
611041989270,5,-2,6,1,-3,-3,-1,4
611041995289,0,-2,-2,-3,0,-3,1,-4
611041995289,4,-7,1,2,-5,-8,-1,2
611042010240,1,-4,-1,2,0,-3,0,-2
611042010240,-5,1,-6,-14,-1,-1,0,1
611042017771,-6,-2,-5,-6,3,0,-2,-1
611042017771,-2,2,-1,1,-1,3,0,-3
611042026750,-11,2,-9,-5,4,8,2,0
611042026750,-1,-4,-1,-3,3,1,0,-5
611042032760,6,-1,7,10,-7,-5,-1,2
611042032760,1,2,5,0,-6,-2,-3,-1
611042049273,0,3,-2,-4,-1,-1,-1,0
611042049273,3,-1,3,1,-2,-6,-2,-4
611042055265,2,-2,4,4,0,-5,0,1
611042055265,-4,-1,-7,-10,3,0,-3,-2
611042070385,-2,-3,-4,-4,3,0,-1,0
611042070385,-4,0,2,-2,-2,4,0,0
611042077884,-6,2,-8,-6,4,5,-1,-4
611042077884,-3,4,-2,-4,0,6,0,-2
611042086850,2,0,6,9,-6,-4,-2,-5
611042086850,3,3,2,0,-5,0,-2,5
611042100278,-2,-5,-3,-6,-1,-1,0,-1
611042100278,3,-9,4,2,-3,-10,1,-2
611042117403,5,-2,2,4,-2,-4,-2,1
611042117403,-6,2,-8,-14,4,-2,-1,-1
611042118243,-5,-2,-4,-5,-3,-1,1,-3
611042118243,-4,0,-3,2,-3,0,-3,0
611042130284,-6,-2,-9,-5,9,3,-1,-1
611042130284,2,-3,-2,-5,1,2,-3,-1
611042137732,6,1,5,8,-2,-2,-1,-1
611042137732,-1,4,2,0,-1,1,-1,2
611042146778,1,0,1,-5,-4,-2,0,-2
611042146778,5,-1,4,2,-3,-9,0,-1
611042160219,-8,-1,-4,2,-1,-2,-3,-6
611042160219,-1,-2,-4,-11,1,-7,0,-1
611042169249,-2,1,-6,-5,1,0,-3,0
611042169249,-3,-2,-1,2,-1,-2,1,1
611042175233,-5,2,-6,-9,5,2,0,2
611042175233,-6,-3,-3,-4,1,1,0,-2
611042190255,0,4,4,6,-4,-3,-4,0
611042190255,-1,0,1,1,-5,4,-1,-3
611042197757,3,0,-2,-4,-1,3,0,-1
611042197757,4,-4,6,1,-4,-7,0,1
611042206778,2,-2,2,2,-4,0,-3,-4
611042206778,-5,-2,-5,-10,1,-3,2,-1
611042220274,-4,-4,-5,-5,1,-7,-3,-3
611042220274,0,1,-2,2,-3,0,-3,2
611042229257,-10,1,-10,-10,4,3,2,-3
611042229257,-2,-3,-2,-4,0,-5,-2,-2
611042235241,6,1,4,5,-4,3,-1,4
611042235241,-1,-3,2,3,-3,-4,0,-4
611042250253,2,-4,-2,-6,0,-4,0,-2
611042250253,3,1,4,0,-5,-8,-2,-2
611042257777,-2,-1,1,0,0,-5,-3,-4
611042257777,0,-3,-6,-10,4,-1,-2,4
611042266729,-8,-5,-6,-6,-3,-3,-4,-10
611042266729,-4,-1,1,2,0,-4,-2,0
611042280731,-7,-2,-8,-13,4,4,1,-3
611042280731,-8,-1,-2,-8,-1,0,0,-7
611042289278,3,-2,4,3,-3,-1,0,8
611042289278,2,3,-1,3,-3,1,-4,0
611042295269,-1,0,-1,-6,-5,-4,-3,2
611042295269,6,2,4,5,-3,-6,0,-4
611042310253,1,-4,5,-1,-1,-6,3,3
611042310253,-4,0,-5,-8,2,-2,2,-4
611042317779,2,-2,-1,-6,1,-8,-1,-1
611042317779,-2,-3,2,3,-3,0,-1,-1
611042326733,-4,-1,-8,-11,7,4,1,0
611042326733,-1,0,-3,-5,2,0,-2,-3
611042340276,2,-1,3,10,-3,5,-1,-1
611042340276,4,-4,-2,0,1,2,0,-3
611042349238,-2,-1,1,-3,0,3,3,1
611042349238,7,-4,4,9,-7,-5,0,0
611042355322,-2,1,0,2,-3,-3,-1,0
611042355322,-2,-4,-2,-10,-1,-2,-3,-1
611042370324,1,-1,-2,-4,1,-1,-3,1
611042370324,-3,-2,0,-3,2,1,-1,-2
611042377836,-8,0,-9,-14,7,1,-1,-3
611042377836,-1,5,-3,-5,1,2,0,1
611042386809,-1,-2,2,9,-3,-2,-1,-4
611042386809,-1,-3,1,0,-3,1,0,-1
611042400404,-1,-4,0,-3,-3,-2,-1,2
611042400404,4,-2,5,6,-7,-3,-2,0
611042409283,1,-5,2,0,-6,-6,-4,-2
611042409283,-2,0,-5,-12,0,-2,-4,-4
611042415349,-1,-1,-1,-4,0,-6,2,1
611042415349,-2,1,-1,-2,0,2,1,-1
611042430320,-9,2,-10,-11,5,0,-1,-3
611042430320,-2,1,-2,-5,1,5,2,7
611042437820,0,0,2,9,-1,-4,-1,-3
611042437820,5,3,0,-3,-3,4,0,2
611042446851,4,-2,0,-1,-3,-4,0,3
611042446851,2,-1,6,6,-5,-4,-3,-5
611042469185,6,-2,3,6,-3,-2,-2,-1
611042469185,-3,-4,-5,-11,0,-5,4,3
611042470798,1,2,-1,-3,1,-3,-1,-1
611042470798,-3,3,-2,1,0,2,1,1
611042475278,-4,1,-8,-8,4,0,-2,0
611042475278,-6,5,-3,-7,-3,2,2,-4
611042490245,-1,-1,3,5,-1,-1,-3,0
611042490245,-10,-5,-4,-5,-2,4,0,-4
611042497824,1,-1,3,-4,-1,0,-2,-2
611042497824,7,-2,6,11,-6,-3,-2,0
611042506841,2,0,3,9,-4,-7,0,2
611042506841,2,2,-2,-7,0,-1,-1,2
611042520412,0,-3,-4,-2,-2,-3,0,0
611042520412,-6,0,-3,-5,2,0,-1,-2
611042529306,-5,-3,-6,-10,5,0,1,-1
611042529306,-2,-2,-7,-8,3,5,-1,3
611042535314,0,4,2,7,-1,0,-1,1
611042535314,-7,1,-4,-4,4,9,0,-3
611042550332,5,1,0,-4,-1,-1,1,0
611042550332,5,-3,7,7,-5,-5,0,-3
611042557863,3,-2,3,6,-1,-2,-1,2
611042557863,-3,-4,-1,-6,0,-7,-2,-3
611042572848,-1,0,-1,-1,-2,-7,-3,-4
611042572848,-5,-2,-1,3,1,-3,-2,-1
611042580355,-8,0,-9,-13,3,3,-2,-4
611042580355,-2,0,-5,-6,4,2,-3,0
611042595950,0,-3,-1,3,-3,-1,1,-2
611042595950,-5,4,-4,-7,3,9,2,-4
611042596741,-2,-1,-2,-7,-3,0,0,-2
611042596741,3,-2,6,5,-6,1,-2,-3
611042610389,3,-4,1,2,-7,-3,-5,-1
611042610389,1,-5,-2,-8,-2,-7,1,-2
611042617781,0,-2,1,1,-2,-10,0,1
611042617781,3,-3,0,1,-1,-3,2,2
611042632841,-4,0,-7,-12,2,2,0,-2
611042632841,-3,-2,-4,-9,-1,2,-1,0
611042640328,-1,-1,1,4,-3,2,-1,-1
611042640328,-4,5,-6,-6,6,7,-1,-1
611042655997,-3,-2,-2,-5,-2,-1,-1,1
611042655997,1,-2,5,7,-4,-2,-7,-5
611042656794,0,-1,2,-1,-4,-4,1,1
611042656794,-2,-2,-2,-5,0,-4,-1,-2
611042670249,4,-4,0,3,-5,-9,-3,0
611042670249,0,-3,1,5,1,-7,-5,-5
611042677813,1,-4,-5,-13,5,0,2,4
611042677813,-7,-1,-6,-4,0,3,-1,-5
611042692844,-2,1,3,2,2,2,1,0
611042692844,-7,-2,-10,-6,4,6,0,-1
611042700312,-3,2,0,-6,-2,2,0,-3
611042700312,7,-4,5,6,-6,1,-2,1
611042716003,2,0,4,-2,-3,-3,-5,-4
611042716003,-3,0,-2,-3,-3,0,-1,2
611042716741,2,-3,4,3,-4,-7,-2,-3
611042716741,1,1,0,5,-4,-3,-5,2
611042730256,-5,3,-7,-12,8,-1,0,-2
611042730256,-2,-1,-5,-5,1,1,1,1
611042737807,-2,-3,-2,3,1,3,-1,-2
611042737807,-7,0,-8,-5,3,3,1,-1
611042752733,-1,2,-2,-3,1,9,-1,-6
611042752733,6,-2,3,7,-9,-2,2,2
611042760256,3,2,2,-2,-7,5,-4,-2
611042760256,-2,1,0,-5,2,-3,-2,1
611042775937,3,-4,3,3,-4,-8,-2,0
611042775937,0,0,3,4,-2,-1,0,1
611042776705,-8,-5,-9,-13,1,-6,1,-1
611042776705,2,0,-1,-4,2,-2,0,-1
611042790255,-1,2,-2,3,-1,1,0,-2
611042790255,-6,-1,-10,-8,5,4,0,0
611042797764,-2,1,-3,-5,-1,-1,2,0
611042797764,2,1,4,6,-4,-1,-2,-2
611042812775,0,0,4,-2,-5,-1,1,2
611042812775,2,-4,1,-5,-1,-4,-1,2
611042820272,3,0,4,1,-2,-4,-3,-1
611042820272,1,-6,0,1,-5,-4,1,-4
611042835949,-3,-3,-5,-11,4,0,-1,-2
611042835949,-2,-3,-7,-5,0,-3,0,2
611042836732,-5,-4,-1,3,2,0,1,-1
611042836732,-8,1,-7,-9,6,2,2,3
611042850282,0,-2,-3,-4,-1,0,-1,0
611042850282,6,-1,7,6,-4,-1,-2,-1
611042857782,-2,0,1,0,-4,-1,-3,-1
611042857782,2,-4,-1,-4,0,-1,1,1
611042872766,5,-2,4,1,-5,-6,-1,1
611042872766,-1,1,-2,-2,0,0,-2,-3
611042880234,-1,-2,-4,-9,-1,0,0,1
611042880234,-3,-3,-3,-6,1,-1,-4,-1
611042895901,0,-4,-2,5,-1,1,-3,-1
611042895901,-6,1,-7,-9,4,3,0,-2
611042896701,-3,-2,-3,-6,0,-1,-1,-2
611042896701,-1,-2,1,4,-3,3,-1,0
611042910287,-2,-1,0,3,-6,5,2,3
611042910287,-2,4,2,-6,0,0,-1,-1
611042917870,6,-1,4,3,-4,-3,0,-3
611042917870,-1,-2,2,-2,-1,-4,-3,0
611042932879,-1,-3,-6,-11,1,-1,4,1
611042932879,0,-1,-5,-5,0,-5,-2,-3
611042940339,1,-4,-1,3,-6,-2,-1,1
611042940339,-10,4,-10,-12,4,4,-3,-1
611042956007,-5,-1,-3,-6,-1,-3,-1,0
611042956007,2,0,5,8,-4,0,2,-1
611042956741,-1,-1,1,2,-1,4,-2,-2
611042956741,1,-2,-2,-4,-1,-2,1,-2
611042970295,4,-3,7,7,-4,-7,-3,1
611042970295,0,-6,-1,-2,-3,-2,-2,3
611042977826,-2,-1,-5,-10,-1,-2,-1,-3
611042977826,3,1,-3,-4,-3,-5,1,0
611043001016,-1,-1,4,-1,-1,-3,-2,0
611043001016,-9,2,-12,-12,8,2,-2,-8
611043001767,3,0,-4,0,1,-1,1,2
611043001767,0,-2,1,8,-2,-1,-3,0
611043015283,3,3,-1,0,-3,-1,0,1
611043015283,-1,-2,-1,-6,-3,-4,-1,-2
611043023587,4,-4,9,7,-3,-5,0,0
611043023587,4,-3,2,1,-4,-8,-3,-3
611043038584,-3,-3,-4,-9,0,-5,0,-3
611043038584,-1,-3,1,-4,-2,-1,-3,-3
611043039309,0,2,1,2,0,1,-1,-3
611043039309,-10,-1,-7,-10,2,2,0,0
611043052825,-5,-4,-5,-8,3,6,-3,-5
611043052825,0,-3,6,9,-7,-2,-1,3
611043060326,-4,0,1,-3,0,-1,1,-1
611043060326,4,-1,1,-3,-1,-2,-1,0
611043075366,3,-2,4,7,-6,-6,-3,-2
611043075366,1,-4,0,3,-1,-6,-3,-4
611043083541,-4,-2,-4,-11,2,2,-5,-1
611043083541,-3,2,-1,-2,-2,-2,0,-2
611043090342,1,0,-1,-1,-1,0,2,0
611043090342,-9,-2,-12,-13,6,-3,4,0
611043097846,-3,-4,-3,-7,1,3,3,5
611043097846,-1,-1,2,5,-4,0,-1,-2
611043112811,-2,6,0,-5,-3,8,-1,-1
611043112811,0,-2,0,-4,-1,-4,0,-1
611043120269,7,1,5,4,-6,-4,-1,0
611043120269,4,-3,4,6,-5,-5,-1,0
611043135275,-5,-3,-4,-5,1,-1,0,2
611043135275,2,0,0,-3,0,3,0,0
611043143850,-4,1,-3,-2,-2,0,-3,-3
611043143850,-5,-5,-8,-13,8,0,2,0
611043151762,-3,1,-8,-5,3,6,3,1
611043151762,-1,6,2,5,-4,-2,-2,1
611043157733,-4,2,-1,-6,3,8,-1,-3
611043157733,3,-2,0,-2,0,1,0,0
611043172728,1,0,5,7,-3,-2,-1,-5
611043172728,1,-3,4,9,-7,-5,1,2
611043180239,1,2,-4,-9,-2,-2,3,1
611043180239,-4,2,-2,-1,-4,-5,-4,-2
611043204125,-2,-1,-1,-2,-1,-1,-3,-2
611043204125,-3,-1,-7,-10,5,2,-3,-4
611043204894,-4,-3,-6,-12,3,-1,2,2
611043204894,-3,-4,2,3,-2,-2,0,-1
611043218472,-6,4,-3,-9,1,11,0,-3
611043218472,0,0,-1,-5,0,-3,-1,3
611043219249,-2,-4,4,9,-5,-5,-3,-5
611043219249,4,-4,4,6,-4,-5,1,-2
611043232727,4,-3,-2,-8,-1,-5,-2,0
611043232727,0,-3,-1,0,-1,-7,0,1
611043240953,-4,1,2,-1,-1,-5,-7,-9
611043240953,-6,-2,-10,-14,4,1,-2,-2
611043255328,-3,0,-4,-9,4,0,-1,-5
611043255328,2,1,1,3,-3,3,-1,1
611043263477,-7,4,-8,-5,-1,10,0,1
611043263477,0,2,-2,-3,1,2,0,-2
611043278462,3,-1,8,6,-8,-4,-2,-1
611043278462,3,-1,3,2,-1,-1,0,-7
611043279251,2,-4,1,-6,0,-1,-1,3
611043279251,5,-2,1,2,-3,-10,-4,-1
611043292779,2,2,2,1,2,-5,3,4
611043292779,-4,-7,-9,-15,3,-3,-1,-1
611043301033,-5,0,-7,-7,0,1,0,-1
611043301033,-5,0,2,1,-3,6,2,-3
611043315345,-7,-1,-6,-5,4,4,-3,4
611043315345,-1,-1,-1,-6,-2,6,0,-3
611043323521,5,-3,5,10,-8,-1,-1,-5
611043323521,2,-3,4,1,-5,-4,-2,3
611043338469,1,-3,-2,-4,-1,-4,0,0
611043338469,-2,-1,2,2,-3,-10,0,-3
611043339235,2,-4,1,4,-2,-4,-4,1
611043339235,-4,1,-8,-13,2,-3,1,-2
611043352825,-7,0,-6,-8,3,3,0,-2
611043352825,-3,-2,-1,-1,0,1,-4,0
611043361017,-5,1,-6,-7,5,5,3,-1
611043361017,0,2,-1,-4,1,2,-2,0
611043375398,0,-5,3,10,-8,-6,-3,-4
611043375398,5,-2,6,1,-4,0,-1,0
611043383516,1,2,-4,-7,-1,-1,-1,-1
611043383516,5,-7,4,3,-5,-10,-1,0
611043398502,2,-1,1,6,-1,-1,2,-1
611043398502,-7,-1,-6,-14,4,-5,-2,-1
611043399265,-3,-2,-7,-4,2,-2,1,-4
611043399265,-1,2,1,3,-3,4,-1,0
611043421691,-5,-2,-7,-4,4,0,2,1
611043421691,-1,-3,-2,-8,0,1,-1,0
611043422456,3,-1,9,10,-5,-5,-2,-2
611043422456,-1,2,0,-1,-3,1,-2,-7
611043435287,1,-3,-1,-6,-3,-10,2,-2
611043435287,3,-2,5,4,-6,-6,-6,-3
611043443466,2,-5,2,3,-2,-3,1,-1
611043443466,-3,-1,-5,-13,2,-3,-3,0
611043458424,0,-4,-2,-6,2,-1,-3,1
611043458424,-6,4,-2,3,-1,0,-3,-5
611043459211,-8,1,-7,-6,4,1,0,1
611043459211,-5,-1,-4,-5,2,0,0,-2
611043472837,3,-3,5,8,-6,-1,-2,-3
611043472837,-1,1,1,2,-2,3,1,2
611043480995,0,-1,-1,-6,-1,-1,-2,0
611043480995,5,-2,-1,1,-2,-11,-4,-4
611043495319,2,-1,1,-3,-4,3,0,2
611043495319,-7,-5,-3,-12,1,-1,-2,-13
611043503546,-6,0,-5,-6,2,-3,-1,2
611043503546,-6,-2,-1,0,-2,-3,1,1
611043518554,-5,3,-13,-11,6,4,0,-1
611043518554,0,1,-3,-6,-1,0,2,2
611043519339,3,-1,3,10,-5,2,-1,0
611043519339,-1,1,1,4,-1,4,0,1
611043532848,-4,5,-2,-4,-1,1,0,-3
611043532848,7,-2,6,1,-6,-3,2,3
611043541043,-2,1,0,-2,-3,-1,-4,0
611043541043,5,0,0,-11,1,-1,-3,5
611043555371,-5,-1,-2,-5,0,0,-2,0
611043555371,0,2,-3,1,0,-4,-1,1
611043563544,-10,0,-9,-13,3,1,0,-2
611043563544,1,1,-2,-1,1,3,0,-1
611043579028,3,0,3,9,-2,0,-5,2
611043579028,2,-2,1,5,-3,-1,3,0
611043579749,3,2,-1,-7,-2,3,1,4
611043579749,2,-5,8,5,-6,-6,-2,-2
611043592927,-2,0,2,-1,-2,-4,0,2
611043592927,-7,1,-4,-9,0,0,-5,-3
611043601001,1,-4,-1,-5,-2,-2,1,-1
611043601001,-3,-4,-3,3,0,-2,0,-2
611043615396,-11,-1,-11,-12,4,4,-1,-2
611043615396,-2,-2,-1,-4,1,4,0,4
611043623562,-2,2,5,8,-3,2,1,-2
611043623562,1,-4,-1,2,-3,5,-3,-3
611043638530,2,0,2,-3,-3,1,-2,-3
611043638530,3,-1,5,6,-7,-8,-1,3
611043639333,1,-2,0,-1,-1,-4,-2,-4
611043639333,0,0,-5,-11,-2,-3,-1,4
611043652864,-2,1,-4,-6,2,-3,0,-2
611043652864,-1,-1,0,2,0,-3,-2,-1
611043660985,-7,1,-11,-13,8,1,-1,-2
611043660985,-5,1,-1,-3,1,1,1,-1
611043675355,2,0,2,8,-5,-2,0,1
611043675355,-2,1,0,0,-2,1,-8,-2
611043683444,1,-3,-2,-3,0,-4,-3,-2
611043683444,3,3,2,6,-8,-3,-2,-1
611043698465,3,-6,3,2,-2,-5,0,-2
611043698465,0,-6,-4,-10,3,0,2,1
611043699234,0,-1,-2,-3,0,-3,1,-1
611043699234,-1,-1,2,-3,-1,2,-2,-2
611043712789,-7,-2,-11,-9,5,1,-2,-5
611043712789,-3,-1,-4,-7,2,3,2,4
611043720934,1,-3,1,5,-5,-7,0,-8
611043720934,-2,1,-2,-3,0,5,-1,3
611043735311,3,-2,0,-3,-1,-3,-3,0
611043735311,2,0,4,7,-7,-5,0,-4
611043743438,3,-3,3,6,-8,-5,-1,1
611043743438,-5,-1,-3,-8,2,-4,-2,0
611043758458,-1,-4,-4,-4,-2,-5,-3,-2
611043758458,8,0,0,3,-2,0,-2,1
611043759217,-7,-3,-7,-8,4,0,0,-4
611043759217,-7,3,-2,-4,2,0,-1,-2
611043781640,0,-1,4,6,-2,-2,2,5
611043781640,-5,2,-2,-6,1,2,0,-1
611043782424,1,-1,0,-3,-1,-3,-1,1
611043782424,6,-4,9,5,-6,-5,-3,0
611043795275,6,-6,4,11,-3,-8,3,-1
611043795275,-10,-1,-3,-10,0,-1,-1,-7
611043803512,-1,-2,-3,-3,-1,-3,-2,0
611043803512,-1,-1,-2,-1,-1,2,6,-1
611043818943,-5,-4,-6,-13,3,-1,0,-2
611043818943,-5,0,-6,-8,2,2,1,0
611043819672,-1,-1,2,7,-1,-4,-1,0
611043819672,-6,1,-3,-6,1,6,0,-4
611043832758,-2,-4,0,-5,0,-1,0,-3
611043832758,7,-2,5,8,-8,-7,-3,1
611043840960,3,-3,4,6,-5,-5,-3,-6
611043840960,-1,-2,-5,-7,-1,-5,5,3
611043855323,-3,-4,-3,0,-2,-9,-3,-6
611043855323,-1,-4,-1,2,-1,2,-1,-3
611043863458,-4,0,-10,-14,6,5,0,0
611043863458,-1,-2,-8,-13,2,1,-1,-2
611043878494,2,1,2,1,-3,4,1,5
611043878494,-3,6,-5,-8,1,10,3,2
611043879297,2,-3,-1,-5,-5,3,-2,5
611043879297,6,-4,6,5,-6,-6,-2,-3
611043892941,2,2,4,3,-4,-1,-1,-2
611043892941,-2,0,-3,-9,5,-2,-2,-1
611043901045,1,-3,2,1,-5,-7,0,-2
611043901045,0,-6,0,3,-4,-2,-2,-7
611043915367,-6,1,-9,-12,2,5,-2,1
611043915367,-6,-1,-5,-8,4,0,-1,-2
611043923546,-1,4,2,1,2,4,-3,2
611043923546,-8,2,-9,-5,5,8,-2,0
611043938520,-2,1,-3,-6,-1,1,-1,-5
611043938520,7,-4,7,13,-6,-4,1,0
611043939307,3,-2,4,2,-6,-2,-4,2
611043939307,0,-3,-1,-4,2,-3,-2,0
611043952802,1,-3,2,2,-3,-10,-2,0
611043952802,-3,-3,0,-1,-5,-8,-5,-6
611043961040,-5,-2,-6,-14,3,-3,3,2
611043961040,-6,3,-7,-6,4,4,1,0
611043975291,2,2,0,3,-2,3,-5,0
611043975291,-5,1,-9,-6,4,3,3,1
611043983531,-4,-2,-2,-5,-1,5,-1,0
611043983531,1,-1,6,8,-9,-2,-2,-3
611043997902,3,1,4,-1,-2,-3,1,1
611043997902,1,-6,-2,-5,0,-2,-1,0
611044006048,5,-4,1,2,-5,-7,-2,-1
611044006048,-1,0,4,0,-2,-6,-2,2
611044012850,-2,-5,-7,-11,2,2,-1,-2
611044012850,-6,0,-4,-5,4,0,-3,0
611044021028,-2,-1,-1,0,0,2,0,-4
611044021028,-6,1,-10,-5,2,5,1,-1
611044035368,1,3,-3,-5,1,3,1,0
611044035368,6,1,5,6,-7,-2,0,1
611044043488,-2,2,2,0,-5,1,-4,-6
611044043488,1,-1,-2,-4,-2,-5,-1,-1
611044057820,1,-1,3,2,-7,-10,-2,1
611044057820,2,-2,3,4,-2,-1,0,-2
611044065998,-2,-1,-8,-8,1,-6,-1,5
611044065998,-3,-2,-5,-3,0,2,2,-1
611044072783,-1,-3,-1,3,1,2,-4,-1
611044072783,-11,2,-8,-7,5,1,2,2
611044080935,-2,1,-2,-4,1,0,0,-3
611044080935,4,0,4,6,-3,-1,-5,-1
611044095333,-1,0,1,0,-3,0,2,-2
611044095333,2,2,-1,-6,-4,-2,-4,-3
611044103507,4,-3,5,3,-3,-4,0,-1
611044103507,1,2,3,4,-1,-4,0,0
611044117802,-3,-5,-5,-10,1,-4,-1,-2
611044117802,-3,-3,-5,-3,3,2,1,-4
611044125982,0,-2,2,2,-1,1,-1,1
611044125982,-8,-1,-9,-9,5,3,-1,1
611044141642,-1,-3,0,-4,0,-1,0,1
611044141642,0,-4,4,6,-6,-3,-2,-2
611044142450,1,-2,0,1,-1,2,-3,-3
611044142450,-1,-2,-2,-7,1,-4,0,-2
611044155264,4,-3,5,1,-5,-7,-4,1
611044155264,-1,-2,3,0,-1,0,-1,2
611044163475,-2,-2,-6,-12,1,-4,-1,0
611044163475,0,-2,-4,-3,1,-2,1,0
611044177817,-1,-2,0,5,0,-2,1,-2
611044177817,-4,3,-11,-14,3,0,4,-3
611044186020,0,0,-1,-6,-1,2,0,-1
611044186020,0,-4,2,6,-4,0,-3,0
611044201681,0,3,5,3,-4,2,1,1
611044201681,-2,-1,-2,-5,-1,-1,-4,-7
611044202449,0,-1,3,-1,-4,-10,-2,-4
611044202449,-3,-1,0,-1,-1,1,-2,-1
611044215350,0,-3,-4,-11,1,0,-3,-3
611044215350,0,-5,-3,-5,4,-3,-2,2
611044223437,-4,-2,-1,5,-2,-3,0,-5
611044223437,-10,1,-11,-12,4,3,1,-10
611044237947,-9,-1,-5,-6,-1,2,0,-5
611044237947,2,2,3,6,-4,2,2,2
611044246127,2,-2,2,3,1,0,1,1
611044246127,2,-2,1,-6,-2,-4,-1,2
611044261726,6,1,6,5,-6,-6,-3,-1
611044261726,2,-1,0,-2,-3,-2,-2,2
611044262540,-3,-4,-4,-12,1,1,-1,-1
611044262540,1,-3,-2,-5,-1,-3,-2,-1
611044275400,-3,-3,0,1,-2,1,0,-2
611044275400,-5,3,-10,-9,4,4,-2,5
611044283564,-5,0,-5,-6,0,1,-1,3
611044283564,3,-4,4,7,-3,2,0,-2
611044297901,-2,0,0,-1,-3,0,-1,-3
611044297901,0,1,-1,-4,-2,-3,0,-1
611044306068,4,0,4,7,-6,-2,1,-1
611044306068,1,1,3,2,-3,-6,3,0
611044321730,-1,1,-3,-10,1,-5,-2,2
611044321730,-3,-2,-3,-5,3,-3,2,-2
611044322544,3,2,0,0,0,0,-4,-1
611044322544,-5,0,-10,-10,5,5,2,2
611044335328,0,0,-5,-7,0,4,3,0
611044335328,-4,-3,2,8,-3,-1,-4,-3
611044343513,-1,-1,-1,-1,0,-3,-1,-1
611044343513,-1,1,-1,-2,-4,-5,-4,2
611044357803,3,-3,5,6,-6,-5,-3,-3
611044357803,7,-4,3,3,-4,-2,-1,1
611044366058,-2,-3,-4,-10,-1,1,-1,1
611044366058,0,-2,1,-4,-1,-1,-2,2
611044381765,-3,4,-3,1,3,0,2,1
611044381765,-6,-2,-8,-10,3,1,1,-2
611044382489,-5,0,-2,-6,2,5,-1,2
611044382489,1,-2,2,4,-1,1,-2,-1
611044395317,-2,2,0,-4,-2,3,-1,-1
611044395317,0,-6,0,-5,0,-4,4,-2
611044403548,8,-1,4,7,-4,-1,-2,-3
611044403548,0,-1,5,9,-4,-10,-3,-3
611044417808,0,0,-5,-9,4,-1,-2,2
611044417808,-2,0,-3,-3,-4,-4,-4,-3
611044425999,-2,-2,-1,-1,0,4,2,-2
611044425999,-3,-5,-10,-11,4,-1,0,0
611044440300,1,0,-5,-6,2,2,3,-3
611044440300,1,0,3,9,-4,0,-2,1
611044449303,-5,5,-2,-6,1,3,-2,0
611044449303,0,-6,-1,-3,0,-1,1,1
611044455267,2,0,6,8,-5,-5,0,-2
611044455267,6,-1,3,8,-3,-9,-1,2
611044464303,-6,1,-5,-9,1,-1,-2,-4
611044464303,0,0,-1,-1,1,-5,1,1
611044477811,-6,-4,0,-1,-2,-3,-2,-6
611044477811,-3,-3,-7,-12,6,1,0,-2
611044486777,-3,-1,-6,-10,0,2,1,2
611044486777,4,-1,3,3,-2,-5,-2,0
611044500335,-7,-1,-6,-8,2,9,-1,0
611044500335,-1,0,0,-5,-2,-3,4,0
611044509275,6,-1,7,7,-10,-5,-3,-2
611044509275,5,-3,2,5,-4,-1,1,-5
611044515297,0,-6,-3,-7,-1,-4,-2,4
611044515297,-1,-3,0,-1,0,-7,-6,-1
611044524313,-1,-2,-1,1,-5,-6,2,-3
611044524313,-7,-1,-6,-10,4,0,-3,-3
611044537851,2,-3,-5,-12,6,2,1,3
611044537851,-3,2,2,7,-5,0,-1,4
611044546784,-8,1,-7,-6,5,8,2,-6
611044546784,0,2,0,-1,0,0,1,2
611044560340,7,-1,7,7,-7,-3,0,0
611044560340,1,-1,4,1,-4,-6,-1,-1
611044569272,-2,-4,-2,-7,1,-5,1,3
611044569272,2,-4,0,0,-5,-11,-4,1
611044575327,-1,3,3,2,-3,-2,1,3
611044575327,-5,-2,-8,-15,2,4,-4,-2
611044584292,-7,-1,-1,-7,4,1,-4,-3
611044584292,1,-1,-2,0,-3,5,2,-1
611044597961,-7,-1,-5,-6,4,7,-1,-4
611044597961,0,6,-2,-6,-1,5,-5,-4
611044606798,5,1,3,8,-3,-6,-3,0
611044606798,1,0,4,-1,-3,-3,-4,-1
611044620412,0,2,-2,-3,0,-3,-1,-3
611044620412,2,-7,2,3,-6,-7,1,-3
611044629434,-2,-3,-1,2,-1,-6,-2,-1
611044629434,-3,0,-7,-18,5,0,1,-1
611044635446,-5,0,-10,-6,1,-1,-2,0
611044635446,-3,-2,-2,0,1,7,0,-4
611044644402,-3,2,-6,-5,3,8,2,-1
611044644402,-4,4,-1,-5,-1,0,1,-1
611044657865,7,-1,3,13,-8,-3,0,3
611044657865,3,-2,3,-1,-5,-1,3,4
611044666870,1,0,-2,-4,-2,-4,-4,2
611044666870,4,-1,5,3,-4,-5,-5,-2
611044680366,-1,-2,0,3,0,-5,-3,-2
611044680366,-4,-2,-8,-13,4,-3,-1,-4
611044689367,-2,1,-6,-5,2,1,-1,1
611044689367,-4,0,-1,4,0,-2,-1,-3
611044695364,-8,3,-7,-6,6,2,-2,-6
611044695364,-1,-1,-2,-6,1,3,2,-1
611044704319,2,-1,6,8,-5,-1,0,-2
611044704319,3,-1,2,0,-5,2,-3,1
611044717901,0,-7,-1,-6,-3,-3,-3,-3
611044717901,1,-4,4,3,-2,-7,-2,-1
611044726863,1,1,0,4,-3,-7,-3,-4
611044726863,-2,-4,-5,-11,2,0,-1,-1
611044740405,-4,-2,-4,-5,4,0,3,0
611044740405,1,1,1,3,-1,-1,2,-4
611044749336,-6,0,-7,-6,5,1,1,1
611044749336,-3,-1,-4,-4,1,3,0,1
611044755324,-1,3,6,7,-6,1,-1,0
611044755324,3,0,2,1,-3,1,-1,4
611044764362,1,0,1,-7,-1,2,1,4
611044764362,5,1,5,0,-5,-7,-1,0
611044777815,2,-1,3,0,-3,-1,1,3
611044777815,-4,-1,-7,-11,-2,-3,-4,-6
611044786804,1,-2,-6,-6,2,-2,-1,-2
611044786804,-2,-4,-1,2,-1,-2,0,-2
611044800322,-8,-3,-9,-10,5,5,-1,0
611044800322,-2,-5,-1,-4,2,0,0,0
611044809314,1,-3,3,5,-3,6,-3,-1
611044809314,-4,0,2,1,-7,1,2,-2
611044815295,0,0,0,-3,-2,-2,0,1
611044815295,4,-1,4,0,-7,-6,-2,0
611044824343,2,-3,-2,0,-1,-1,3,0
611044824343,-1,-3,-4,-10,0,-2,-1,0
611044837888,-2,-3,-5,-6,-2,-5,-2,-1
611044837888,0,-1,1,3,0,-2,-5,-2
611044846818,-8,2,-8,-10,6,0,-2,1
611044846818,-2,-2,-5,-7,0,0,1,2
611044860288,0,-2,4,4,-3,0,-5,-7
611044860288,-1,-2,2,4,-2,1,0,2
611044869309,-4,1,-3,-7,-1,0,-2,-4
611044869309,6,-5,5,6,-6,-8,-4,-3
611044875293,0,-4,2,2,-2,-5,-3,0
611044875293,-1,2,-5,-11,-2,-4,4,-3
611044891790,-2,-8,-1,-5,0,-6,1,1
611044891790,1,-2,2,3,-3,-2,-3,-1
611044897747,-6,2,-12,-12,6,7,-1,-1
611044897747,-2,-1,-3,-7,2,0,-1,-1
611044906844,2,0,7,8,-4,0,1,-1
611044906844,-5,2,0,1,-2,0,-1,-4
611044920329,4,-1,2,-4,-2,-5,0,2
611044920329,3,-2,3,6,-9,-7,-6,-3
611044929332,0,-2,3,-1,-7,-5,1,-5
611044929332,1,-3,-5,-10,5,-3,-1,0
611044935291,-1,-8,-2,-6,0,-4,-1,-1
611044935291,0,2,1,-1,0,3,0,0
611044944307,-5,-1,-9,-10,5,2,5,7
611044944307,-8,-1,-1,-4,0,3,-4,-2
611044957952,2,1,3,5,-5,1,2,-2
611044957952,-3,-3,2,0,0,-1,-3,3
611044966959,0,-1,1,-4,0,0,-5,-4
611044966959,5,0,3,4,-6,-2,2,-3
611044980298,0,4,2,3,-5,-5,-6,-1
611044980298,1,0,-3,-8,2,-3,0,-1
611044989384,-1,-1,-3,-3,-1,-2,-3,-3
611044989384,-2,1,1,-1,1,0,3,0
611044995472,-8,-2,-12,-13,6,4,-1,-2
611044995472,-5,0,-5,-7,1,7,0,-2
611045004363,0,2,3,4,-3,-2,-2,-1
611045004363,-4,0,-1,-3,0,3,-5,-2
611045017886,-3,-1,1,-3,-1,-2,-1,-1
611045017886,6,-2,8,7,-4,-5,-2,-2
611045026875,2,-7,3,5,-3,-3,-1,-2
611045026875,1,2,-4,-10,1,2,0,0
611045041492,-1,0,-4,-4,-1,0,2,0
611045041492,-1,1,-2,-1,0,2,-3,1
611045047888,-5,4,-10,-10,5,1,-4,-3
611045047888,-2,1,-5,-5,2,1,2,-2
611045055399,1,-1,2,9,-3,0,-2,-2
611045055399,-11,2,-1,-5,3,11,1,-2
611045064392,1,-4,0,-6,-3,-6,1,-3
611045064392,4,-2,4,6,-6,-2,-1,-3
611045077899,5,-2,3,3,-4,-10,-1,-2
611045077899,-5,0,-4,-9,-1,-2,0,4
611045086911,-2,-6,-3,-2,0,-3,3,-6
611045086911,-3,1,-4,1,-1,-1,0,2
611045101145,-4,-5,-4,-10,6,0,3,-1
611045101145,-2,0,-9,-9,1,-2,0,-2
611045107871,0,-2,3,8,-4,0,-2,-2
611045107871,-6,4,-1,-7,1,10,-1,2
611045124239,1,-2,-1,-3,-1,-4,-4,2
611045124239,5,-2,6,7,-6,-4,-1,0
611045126185,3,-2,3,9,-4,-4,-2,0
611045126185,-2,-1,-5,-7,-1,-1,2,-2
611045137848,1,0,2,0,-2,-3,2,-4
611045137848,0,-1,-1,-1,0,-3,-3,1
611045146795,-8,-2,-8,-11,1,-1,0,-1
611045146795,-2,-2,-4,-10,3,1,-4,0
611045160999,-6,2,-2,0,-2,1,-3,-3
611045160999,-6,0,-5,-6,1,9,1,-5
611045167773,3,3,0,-6,0,-1,-1,-1
611045167773,-3,-1,-3,-11,0,0,-3,0
611045184172,-18,5,-23,-36,16,21,5,2
611045184172,18,-4,15,22,-16,-11,-2,0
611045185771,26,-2,46,70,-35,-15,-10,2
611045185771,-12,-1,-15,-22,4,1,4,0
611045197827,-3,-11,-8,-25,-2,-23,-8,-12
611045197827,10,-8,16,31,-8,-13,-2,4
611045206788,-11,5,-21,-29,17,11,4,1
611045206788,-17,-3,-30,-41,19,1,1,-2
611045220972,10,0,14,28,-10,-2,0,2
611045220972,-8,3,1,8,1,11,-2,-3
611045227809,-15,3,-24,-43,17,15,-1,1
611045227809,12,-5,18,23,-11,-13,-3,-1
611045244206,18,-1,24,39,-18,-10,-3,2
611045244206,-12,0,-17,-30,10,-1,1,-2
611045245831,3,-3,-7,-18,-1,-11,2,2
611045245831,11,-4,16,33,-13,-15,-4,0
611045257785,-7,3,-6,-8,4,4,2,-1
611045257785,-11,0,-23,-34,15,1,0,1
611045266906,-2,-6,6,8,-5,-6,-1,-2
611045266906,0,-2,7,17,-6,3,-3,-1
611045281064,-5,4,-12,-17,6,2,-1,1
611045281064,2,-3,1,4,-5,0,-3,-1
611045287788,6,-1,12,19,-9,-4,0,0
611045287788,-3,-4,-4,-7,-1,1,-1,-2
611045304190,0,-5,2,-5,-1,-7,-1,2
611045304190,0,-5,2,7,-3,-5,-3,-6
611045305785,-6,0,-8,-6,5,4,-3,-4
611045305785,1,1,-8,-11,7,1,1,4
611045317956,2,-1,3,5,-5,-1,0,-2
611045317956,5,1,2,3,-7,0,1,5
611045326830,-4,1,-6,-12,4,2,-2,-8
611045326830,2,1,4,3,-3,0,1,-2
611045341186,-1,-4,3,12,-7,-4,-5,-5
611045341186,-3,0,-4,-8,3,-1,1,-3
611045347952,2,-1,-3,-5,-2,-4,2,4
611045347952,-1,-1,2,7,-5,2,-2,0
611045364199,-2,-3,-1,-4,5,3,3,0
611045364199,-9,-3,-8,-13,5,-1,-6,-6
611045365807,-2,-4,2,1,0,1,-1,4
611045365807,2,3,2,5,-2,6,0,-6
611045377829,1,2,-3,-3,0,4,2,4
611045377829,1,-2,-3,0,-3,-5,1,2
611045392923,-1,-2,-1,5,-3,-2,-1,-2
611045392923,-1,2,-2,-2,0,-4,-3,-2
611045401040,2,-3,-3,-5,-4,-3,-1,-1
611045401040,-2,1,2,2,-1,0,1,-1
611045407899,-2,0,-1,-1,0,-3,-1,2
611045407899,-3,2,-4,-5,2,-4,2,-1
611045424256,-3,-1,0,0,1,0,-4,-2
611045424256,-3,-1,-2,-2,1,3,-3,-4
611045425867,-4,-3,-3,0,0,1,0,-1
611045425867,0,-1,1,3,1,1,-1,1
611045437869,4,0,1,3,-2,-1,0,-3
611045437869,1,0,0,1,0,3,0,0
611045446939,-1,1,-4,-5,0,0,-1,-3
611045446939,-2,-2,0,1,1,1,-2,-1
611045461050,-1,0,-3,0,-2,0,0,4
611045461050,-4,-2,-4,-6,-1,-3,-3,-6
611045467908,2,-4,-2,-3,-3,0,1,-2
611045467908,-1,-1,1,5,-2,0,-1,1
611045484273,1,-3,0,0,2,0,0,2
611045484273,-1,0,1,0,-1,1,0,-5
611045485783,-2,-2,1,-2,-3,-2,-8,-2
611045485783,3,1,-1,2,1,-1,-2,-1
611045497883,-1,-1,-3,-1,1,2,2,0
611045497883,0,-1,-1,0,-1,-3,1,3
611045506840,-4,-3,-1,-1,0,-3,-2,-1
611045506840,-3,-2,-4,-3,0,3,0,-2
611045521026,-2,-2,0,-4,-2,-2,-4,-1
611045521026,2,1,-2,1,-2,1,1,0
611045527835,1,0,0,1,0,-1,1,0
611045527835,-2,2,-1,-3,-1,-2,-4,-1
611045544150,-1,-2,-1,2,-2,-5,0,-2
611045544150,-2,0,2,2,-1,-1,1,2
611045545743,3,0,0,0,0,0,1,-1
611045545743,-1,-3,-1,-3,-2,-1,-1,0
611045558281,-1,-3,-2,1,-1,0,-2,-4
611045558281,-2,-1,-3,0,-2,-5,-2,-6
611045566893,-1,-3,-3,3,-3,1,0,1
611045566893,0,-5,-2,3,-2,-1,2,2
611045581019,3,0,-2,0,2,1,-4,4
611045581019,-9,-5,-4,-1,-3,-3,2,-5
611045587803,-1,-4,1,1,-2,-3,-2,-4
611045587803,-2,0,-1,2,-2,-4,0,0
611045604176,0,-1,2,-3,1,2,-2,3
611045604176,1,-1,-3,-3,1,-1,-1,1
611045605783,-4,-2,-3,-1,0,-5,-2,-1
611045605783,1,-4,-1,-2,0,-5,0,0
611045617887,-4,1,-3,0,0,-3,-3,-3
611045617887,0,-2,-1,1,-1,0,-4,-1
611045626813,-3,0,-2,-1,-1,2,-1,-2
611045626813,1,2,0,0,-3,-3,-1,-2
611045641014,-2,-3,1,0,0,-5,-1,-2
611045641014,1,-3,3,1,0,-6,-2,0
611045647837,1,-1,0,1,-1,-7,2,2
611045647837,-3,-2,0,-3,-5,-10,-4,0
611045664130,0,-1,0,0,-1,-2,1,-4
611045664130,2,-1,-2,-2,2,-1,4,1
611045665771,-1,0,-1,-4,0,-7,-4,-2
611045665771,1,-1,-1,2,0,0,-1,-2
611045677861,0,2,-2,0,-2,-2,-2,-3
611045677861,-1,-5,-2,-5,-2,-3,-4,0
611045686914,0,0,-1,2,-3,2,-2,-1
611045686914,3,-1,-2,1,-1,-6,-3,-1
611045701139,-2,-3,0,1,-2,0,2,2
611045701139,-2,1,1,-1,1,0,2,-1
611045707839,1,-3,2,0,-4,-2,0,0
611045707839,-1,-2,-3,-5,-1,4,-1,-4
611045724304,-3,1,-3,-4,0,-2,-1,0
611045724304,3,1,0,3,-1,0,1,1
611045725848,-2,0,2,1,1,1,-1,-2
611045725848,-1,4,0,-2,-2,3,-1,-2
611045737879,1,-2,-1,1,-1,-4,0,1
611045737879,-5,-1,-4,-1,-1,5,0,-4
611045746858,2,2,-3,0,-2,4,-1,3
611045746858,-2,-1,-1,0,-1,-3,0,0
611045761002,-5,0,-1,-4,-4,-5,-2,-8
611045761002,4,-2,2,0,0,-4,0,3
611045767957,-4,-3,-2,-3,2,2,-2,0
611045767957,2,0,-2,-1,-2,-1,2,1
611045784256,-3,2,-2,1,-3,-2,1,-4
611045784256,2,-1,0,0,-1,-1,-2,1
611045785827,-1,1,1,-2,-1,3,1,-5
611045785827,-1,0,-1,1,0,0,-3,0
611045797899,2,-2,3,-2,1,-1,-5,0
611045797899,-1,0,-1,1,0,-2,-1,2
611045807035,3,0,-1,0,-1,-1,0,-1
611045807035,-3,3,-3,-3,2,1,-3,-6
611045821184,-2,0,-4,-5,-1,1,1,1
611045821184,1,1,2,1,-3,0,-2,0
611045827844,-1,-1,-3,-1,0,0,3,1
611045827844,2,-5,-1,0,2,1,3,2
611045843641,-3,-2,-2,1,-2,-3,-2,-1
611045843641,-2,2,-1,0,3,2,3,-3
611045850488,-2,0,-3,-3,0,-2,-2,-2
611045850488,-2,-1,1,-1,0,0,1,1
611045857894,0,1,0,5,-4,-6,2,0
611045857894,-1,-3,-4,-4,-2,2,-1,-2
611045866916,-3,-2,-2,-4,0,-3,1,-5
611045866916,2,-3,-1,-1,0,-2,-2,0
611045881043,-2,-2,-3,-3,-2,5,-1,-7
611045881043,-2,-1,-1,-1,-2,1,-3,2
611045887829,2,1,0,4,-2,-1,-5,3
611045887829,-1,1,0,0,-3,-1,1,-3
611045903544,0,-3,0,-2,2,-2,-1,1
611045903544,-1,0,-3,-2,-1,1,0,-1
611045910312,1,1,-1,2,-2,-1,-1,1
611045910312,-1,-1,-1,0,-1,0,0,3
611045917801,0,2,-3,0,1,1,0,3
611045917801,-1,-1,-1,1,-2,-1,0,-3
611045926901,-1,-2,-1,0,1,-5,-1,2
611045926901,-3,-5,-2,-1,-5,2,1,-2
611045949197,1,-2,-2,1,-2,-1,-3,-3
611045949197,0,-3,-1,1,2,-3,-2,0
611045950815,0,-3,-3,-2,-1,0,-2,-5
611045950815,-7,2,0,4,-1,1,-2,-2
611045963502,2,2,-1,3,0,-3,3,5
611045963502,-3,-3,-4,-5,-1,-5,-2,-4
611045970342,0,1,-2,-7,1,-2,-2,-2
611045970342,-1,1,-4,0,1,-3,0,-2
611045977847,-1,-2,1,2,-2,0,-2,-2
611045977847,-2,-3,-4,-2,-2,0,0,4
611045986811,0,-2,-1,3,0,0,2,4
611045986811,0,-4,-1,0,0,-2,1,-2
611046001521,-4,-1,-4,-5,1,-2,-2,-4
611046001521,0,-2,1,3,-1,-3,1,-1
611046007843,-4,-2,-1,0,-1,-3,-6,-6
611046007843,-1,-3,-1,-2,-3,-5,-1,-1
611046023671,1,-3,-1,-2,2,-5,-2,0
611046023671,-3,0,-1,0,-2,-4,-2,-2
611046030410,0,-2,-3,0,-1,-3,2,1
611046030410,0,-1,0,1,-1,-5,-4,-2
611046046839,-2,1,0,-1,-2,-1,0,-1
611046046839,-1,-2,1,0,-2,-1,-1,-4
611046048376,-3,-1,-2,-3,1,-1,-3,0
611046048376,-2,-4,2,0,-1,-3,1,2
611046061146,2,-4,0,0,0,-3,-5,-1
611046061146,0,-2,0,-2,-1,-3,-2,-2
611046067878,-1,-1,-2,-1,-2,-1,1,-2
611046067878,-1,-1,-2,0,-1,-2,-3,-4
611046083603,2,-2,-1,-2,-1,-2,-1,0
611046083603,-3,2,-1,-5,-2,-1,-2,0
611046090397,-3,-2,0,-1,-2,0,1,0
611046090397,2,-3,0,-1,-1,5,-2,0
611046106743,0,2,-1,0,1,-2,-1,2
611046106743,4,-1,0,0,2,-2,-1,-3
611046108386,-3,0,0,0,-2,-2,-3,-10
611046108386,-3,0,-3,-3,1,3,1,1
611046121097,-8,1,-1,-3,0,5,-1,1
611046121097,1,-1,0,-1,-4,0,1,-2
611046127865,-3,0,-3,-1,1,-1,0,3
611046127865,-1,-1,0,-3,-1,0,-1,-3
611046143613,3,0,-2,0,-3,-1,-1,-2
611046143613,-3,-1,-2,0,1,-1,-2,-2
611046150457,1,0,-2,-2,-4,2,3,1
611046150457,0,-1,0,2,1,-2,-2,-5
611046166771,-4,-3,0,0,-2,-1,2,-2
611046166771,0,-3,-4,-2,3,3,-2,-1
611046168413,1,-1,-3,0,2,-2,0,-3
611046168413,2,0,-3,-3,-4,-3,-3,2
611046181122,-4,-3,-2,0,-1,2,-4,-4
611046181122,7,2,-2,-2,0,-2,2,6
611046187887,-7,-1,0,0,-4,0,-3,0
611046187887,3,1,-2,0,1,0,-2,-2
611046203527,-2,2,2,-3,1,-2,2,-3
611046203527,3,-2,1,3,-1,-3,-1,0
611046210388,2,0,-2,-1,0,-1,2,-5
611046210388,-3,2,-1,0,0,-4,0,4
611046226700,0,0,-4,-3,-2,0,-2,5
611046226700,-3,1,-1,-1,-4,0,-3,-2
611046228293,0,0,-2,-4,0,-1,0,3
611046228293,-2,2,-3,-2,0,-5,-3,-1
611046241029,1,-4,-2,3,0,-3,1,-1
611046241029,-5,1,0,-1,1,-1,3,-1
611046247798,0,-4,0,0,-1,2,-2,-1
611046247798,-3,1,-1,1,-1,-5,1,-1
611046263553,1,-3,-1,1,-1,-3,-2,-1
611046263553,-4,1,-2,0,0,1,-4,-3
611046270346,-3,3,-1,-1,2,1,0,-4
611046270346,-1,-4,1,1,-1,0,0,-2
611046286691,1,-2,-2,-4,-1,1,-1,0
611046286691,-4,-3,-3,-3,0,-1,1,-4
611046288268,3,0,1,-1,-3,3,-3,-1
611046288268,-3,2,1,1,0,0,2,0
611046301098,-1,-1,-1,0,0,1,-1,-1
611046301098,0,-3,-1,-1,-2,-6,-1,-1
611046307830,-1,0,-1,1,-1,-1,-1,-1
611046307830,0,-1,-3,-1,2,0,-3,-2
611046323550,-3,-3,-1,-4,-2,-3,0,-3
611046323550,-2,1,-2,6,-1,1,-1,0
611046330318,1,-1,-4,-4,2,-2,-1,2
611046330318,-1,-2,-3,-2,-1,-1,0,2
611046347177,1,1,0,4,-3,-3,-2,0
611046347177,-1,-1,0,0,1,2,2,-1
611046348779,-5,0,0,0,-1,-2,-2,-4
611046348779,1,1,-2,1,-3,-1,-1,0
611046361035,-2,-4,-1,1,-1,-1,-4,1
611046361035,-5,-3,-3,-3,-1,2,2,0
611046367829,-2,-3,-1,1,0,-4,0,-1
611046367829,1,-1,-1,-1,-4,1,-1,0
611046383596,1,0,-1,0,-1,-2,1,2
611046383596,-2,0,-1,-2,0,-3,-3,1
611046390329,3,-1,1,4,-1,-1,0,0
611046390329,1,-2,-2,0,0,-2,-1,1
611046406679,-7,1,-1,-1,0,-2,0,-3
611046406679,5,0,1,0,-2,-3,-2,2
611046408272,0,3,0,2,0,-2,1,1
611046408272,0,-4,0,0,-2,-1,-1,-4
611046421101,3,3,2,-2,0,-2,0,-1
611046421101,-4,-2,-2,-3,-3,0,0,-3
611046427960,2,-2,-3,-3,0,-3,-5,0
611046427960,-5,-2,0,-1,0,-1,-3,-2
611046443631,1,0,0,5,1,0,3,-1
611046443631,4,2,-2,-4,-1,-1,-3,-3
611046450459,-4,-3,1,-1,0,-1,3,6
611046450459,3,-4,1,0,0,-2,0,-2
611046466817,0,-3,0,1,0,-5,-1,-2
611046466817,-5,-3,-2,-1,1,-1,-1,-2
611046468377,-1,-6,-2,0,0,1,-1,-2
611046468377,0,2,0,1,0,-2,-2,-1
611046481101,-2,-3,-4,-3,-1,1,-1,-1
611046481101,0,1,-5,-2,0,2,-1,2
611046487936,-1,1,1,-2,-5,0,-3,-3
611046487936,-2,-1,-3,-1,-1,0,0,-1
611046503650,-2,-2,-2,-4,2,1,-2,0
611046503650,-2,-4,1,2,0,0,-1,-4
611046510395,2,2,1,3,-4,-2,0,1
611046510395,-1,-5,0,-3,-1,-1,-3,-6
611046526744,-1,-1,-1,-1,0,-1,0,-1
611046526744,3,0,-1,3,-2,0,-2,-1
611046528350,-7,-1,-4,-4,2,-3,-3,-4
611046528350,-3,0,-3,-2,-4,-4,-3,-7
611046540421,-1,1,0,2,0,0,-3,1
611046540421,0,-7,-1,-1,1,0,-1,-1
611046549393,-2,-2,-3,-2,1,1,2,0
611046549393,2,0,1,-1,0,-2,-3,3
611046563693,-3,-1,0,2,-4,-4,0,-9
611046563693,-1,-1,3,-2,-2,-1,1,1
611046570488,2,-2,-3,-2,-1,-2,0,4
611046570488,-1,-1,0,0,-1,-2,-1,0
611046586830,-1,-2,-3,-3,-3,2,-3,-2
611046586830,0,-2,-3,-1,-3,-2,-1,2
611046588413,3,-4,0,0,-3,-5,-3,-1
611046588413,-1,0,-4,-1,1,2,3,1
611046600447,-1,0,-2,-3,0,0,1,-1
611046600447,1,-4,1,1,1,-4,0,1
611046609441,-5,-4,-1,2,-3,1,-4,-3
611046609441,-2,3,-1,0,0,-1,-3,-2
611046623620,0,-2,1,0,-3,-1,1,3
611046623620,-1,0,-1,2,0,-1,2,1
611046630391,-5,-2,-1,-2,-3,-1,0,-5
611046630391,-1,-3,-4,-4,3,0,1,2
611046646777,-2,-1,0,-1,0,-1,-3,-1
611046646777,-4,-2,-3,-2,-1,-3,-3,-5
611046648332,2,-2,-3,-1,4,-4,2,2
611046648332,0,-1,-1,0,-4,0,2,3
611046660426,5,-2,1,3,-2,-1,0,5
611046660426,-2,1,-3,-3,0,-1,-2,0
611046669424,1,-1,0,2,3,-1,2,1
611046669424,-3,0,1,1,-2,-2,0,-2
611046683699,0,-3,-2,-2,0,-1,-2,0
611046683699,0,3,-1,-2,-2,0,1,0
611046690391,-1,-1,3,5,-5,-1,-3,-6
611046690391,-2,0,-3,-4,-2,2,-1,-1
611046706795,-3,0,-3,-1,2,-4,-1,-1
611046706795,0,0,1,2,-1,-1,0,0
611046708354,-1,-2,-3,-2,-3,-4,-1,-4
611046708354,-1,-2,0,0,3,0,2,3
611046720398,-3,-4,-2,3,1,-4,-2,0
611046720398,-2,-2,1,-2,-3,-1,0,-2
611046729443,2,-3,-1,-4,-1,2,-1,3
611046729443,1,-5,-1,-3,0,-4,-2,-2
611046743626,-3,1,-3,-1,-2,-4,4,0
611046743626,1,0,-2,1,1,-2,-1,-5
611046750489,-2,2,0,-3,2,-3,2,2
611046750489,-2,-2,-2,4,-1,-2,-3,-1
611046766795,0,-1,-1,1,-3,-1,-1,0
611046766795,-4,-3,-3,-4,-1,-1,-2,-5
611046768424,2,1,-2,1,-2,1,0,-1
611046768424,0,0,-2,1,1,-8,0,0
611046780442,0,1,1,-1,2,0,-3,-1
611046780442,1,3,-2,1,0,-1,-7,-2
611046789415,-2,-6,-2,0,0,-3,-1,-2
611046789415,0,2,0,-2,-4,3,0,0
611046803573,-5,-4,-2,-3,-2,-2,-1,-5
611046803573,0,0,-2,1,-1,-1,-2,1
611046810433,-2,0,-2,2,0,-4,-2,0
611046810433,3,2,-1,-2,-3,-1,0,0
611046826090,0,1,-1,-1,-2,-1,0,-2
611046826090,-1,-3,-1,2,-3,-1,2,2
611046832970,-1,1,-2,-3,-1,0,0,-10
611046832970,0,-4,0,1,-2,-3,1,6
611046840354,-2,-1,1,2,-1,1,0,-3
611046840354,0,-1,-3,-2,0,2,0,1
611046849318,0,-1,1,0,1,0,2,1
611046849318,-1,-1,1,-2,-4,-2,-1,-6
611046863561,-1,-2,-1,0,-2,1,0,0
611046863561,1,0,-1,0,1,-3,-1,-3
611046870349,0,2,-2,2,-3,-1,-1,3
611046870349,0,-2,-1,-2,4,-1,-3,-5
611046886116,-5,-2,-3,-2,-4,-7,-4,-5
611046886116,-4,1,-1,0,-1,-2,3,-5
611046892859,-5,0,-2,-1,-1,-2,-3,-4
611046892859,-2,-4,-1,-2,0,0,-2,-1
611046900327,3,1,-2,-4,0,-1,0,0
611046900327,-3,-4,-1,3,1,0,-3,2
611046909368,-1,-3,2,0,1,0,-1,-1
611046909368,-1,1,-1,2,0,-5,-3,-1
611046923586,1,3,-2,-1,1,-1,0,-1
611046923586,-3,-4,-1,2,-3,-4,-1,0
611046930320,2,0,-2,0,-5,0,-1,5
611046930320,-5,-1,-6,-4,2,-2,-1,-6
611046946047,-4,-2,1,-1,-3,-1,-2,2
611046946047,-2,0,-3,-4,0,-2,0,2
611046952832,1,-2,-3,-3,0,-5,1,3
611046952832,-2,-2,-3,0,-3,0,0,-1
611046960346,3,2,-2,5,0,-3,0,4
611046960346,-2,3,0,-3,2,1,-2,1
611046969385,-2,-2,-1,-1,0,-2,-1,-2
611046969385,-2,0,1,1,-4,0,1,0
611046983529,-2,-4,-2,-3,1,-1,-1,0
611046983529,0,-3,-3,-3,-1,-4,-3,1
611046990364,-3,-3,0,2,0,-1,-3,1
611046990364,1,-4,-1,-2,-3,-4,2,-5
611047006081,-2,-2,-1,-2,0,-1,-4,0
611047006081,-5,-2,1,1,-5,-2,1,-2
611047012850,2,3,0,0,1,-2,1,-3
611047012850,2,-1,-2,-5,0,-1,-4,3
611047029199,2,-1,1,4,3,-2,-1,-3
611047029199,-3,0,1,3,0,-3,-3,-6
611047030801,-3,-2,-1,-1,-1,3,0,-2
611047030801,-3,-1,-1,-3,-1,0,1,-4
611047043544,1,1,-2,-3,-2,-3,0,-1
611047043544,6,1,-2,-4,-3,-2,-1,5
611047050354,-6,-3,1,-4,-3,-1,-3,-4
611047050354,1,-1,0,4,0,-1,1,0
611047066037,-3,-1,-2,-1,-4,-1,-3,-6
611047066037,-5,0,-5,-3,1,-1,2,-2
611047072937,3,-2,-1,2,-2,-3,0,0
611047072937,-3,1,1,1,-1,-2,-3,0
611047089225,-1,0,-3,-1,-4,1,-1,1
611047089225,1,-3,0,1,-1,-2,1,-2
611047090773,-1,4,-2,0,0,-2,1,-1
611047090773,-3,-1,-4,-3,-1,1,-3,-5
611047103608,-3,-3,-4,-3,0,-1,0,-7
611047103608,0,-3,-2,1,0,-2,-4,-3
611047110378,-2,-1,-2,-1,-1,1,-1,-1
611047110378,-4,0,-2,0,-1,0,-1,1
611047126109,0,-4,3,-1,-3,-2,-1,0
611047126109,-3,-2,2,1,-2,-1,4,-2
611047132890,-3,-1,-2,-2,1,1,-1,1
611047132890,0,-2,-1,0,-1,-5,-3,-1
611047149212,0,-2,-1,3,-1,-2,0,-1
611047149212,-3,-1,0,-3,0,-1,0,0
611047150933,2,0,-3,0,-3,-1,2,3
611047150933,1,-4,1,2,-3,-5,-3,3
611047163575,0,-2,-1,-4,0,1,3,3
611047163575,-3,-1,-2,-2,-1,0,2,-8
611047170368,0,-3,0,1,0,-3,-3,0
611047170368,3,-2,-1,2,-5,1,-1,-2
611047186049,-1,0,-2,0,-1,0,-2,2
611047186049,1,2,0,0,-4,-1,-5,0
611047192856,0,-3,2,-1,1,1,5,-2
611047192856,-1,-2,-3,-4,1,-4,0,1
611047209210,-3,1,-3,-2,-1,0,-4,-4
611047209210,-1,-4,-3,-1,-1,1,1,2
611047210820,1,0,0,0,-2,-2,-3,-3
611047210820,-5,-1,-2,-2,0,-4,3,2
611047223607,0,1,-1,-4,0,-5,-4,-9
611047223607,2,0,-2,2,-3,-3,-1,3
611047230371,-4,-1,-2,-2,-2,3,-3,-3
611047230371,-2,-3,0,-1,0,3,-1,-2
611047246079,1,0,-2,-1,-1,-2,1,2
611047246079,-4,1,0,-1,0,-2,-6,1
611047252948,0,-2,-4,-1,-2,-1,-3,-1
611047252948,1,-1,0,0,-2,0,-2,0
611047269270,-4,2,-2,-1,0,1,-1,-1
611047269270,0,-4,-2,2,2,0,1,2
611047270899,-4,0,0,0,-4,-1,-4,-2
611047270899,-5,1,0,2,0,1,-2,-5
611047283570,4,0,-1,-2,1,0,0,5
611047283570,0,1,0,-1,-2,-4,2,-3
611047290350,2,-3,-1,2,-1,-7,0,-1
611047290350,0,-1,-2,-4,-1,-2,-3,-4
611047306070,-3,-3,0,-4,0,1,0,0
611047306070,1,1,-1,1,0,-2,-2,1
611047312854,-5,-3,-2,-2,0,-1,0,-6
611047312854,1,2,0,0,0,0,3,0
611047328273,1,-3,-1,2,-2,0,0,0
611047328273,-1,1,0,5,-4,2,-1,1
611047336903,0,1,-1,-1,1,-5,-2,1
611047336903,2,1,-2,3,0,0,-2,1
611047343558,-1,-2,0,2,0,-5,-2,-1
611047343558,1,-2,-3,-3,-1,0,0,-1
611047350376,-8,-5,-4,-6,-1,4,-5,-10
611047350376,-1,-2,2,4,-2,-2,3,4
611047366071,-2,-2,-2,0,-1,0,-1,1
611047366071,-1,1,-1,-4,-2,-4,-3,-3
611047372951,1,1,0,1,2,1,3,2
611047372951,-1,1,0,-1,1,-2,-3,0
611047389252,-7,0,1,0,-3,-3,1,-5
611047389252,-1,-6,-2,-1,1,-2,-3,-10
611047390847,3,0,-1,0,-3,2,1,1
611047390847,-1,-1,-1,-3,-2,-3,0,-4
611047403605,-3,-1,-3,0,3,-2,0,0
611047403605,3,-1,0,1,-2,2,-1,0
611047410401,-4,-1,-3,-2,-1,-5,-3,-1
611047410401,2,-3,-1,-3,0,2,0,0
611047426109,-4,1,-3,0,-3,1,-1,0
611047426109,-1,0,1,0,-1,-3,5,-1
611047432944,-1,-1,-2,-3,-3,-1,-2,-1
611047432944,0,-5,-1,3,1,-3,0,3
611047449241,1,-3,-2,-1,-1,-1,0,-1
611047449241,-6,2,-1,-1,0,0,2,1
611047450924,1,-2,-1,0,0,-2,2,-1
611047450924,-4,-1,-4,-1,0,-4,-3,-2
611047463589,3,-1,-1,3,1,-3,3,0
611047463589,0,-3,-2,1,2,0,-3,-1
611047470368,-1,0,0,0,-4,-3,3,1
611047470368,-1,-3,-3,0,2,1,-6,-3
611047486073,2,2,0,-2,-2,-3,-4,3
611047486073,-6,-4,-2,0,-4,-2,-6,-7
611047492883,3,-1,3,4,-2,-1,-1,4
611047492883,-1,1,-3,-2,0,1,0,-1
611047509229,2,0,-2,-3,-1,-7,-2,-1
611047509229,0,-4,2,1,-2,-6,2,0
611047510814,-1,0,1,-1,2,-3,0,-2
611047510814,1,0,0,0,-1,-2,0,-5
611047522938,1,-4,1,2,-2,1,-1,1
611047522938,-2,-2,-5,0,-2,0,1,-1
611047531920,1,-1,-1,-1,-1,-3,1,0
611047531920,1,-2,3,1,-3,-2,-2,-1
611047546104,-4,-5,0,2,-1,-2,-2,-3
611047546104,1,0,-2,-2,1,-3,1,1
611047552957,-1,2,-1,-1,-3,0,-2,3
611047552957,-2,-4,1,-2,-1,-4,-3,-2
611047569259,1,-1,0,1,-1,0,1,1
611047569259,2,0,-1,1,1,0,-2,-1
611047570886,-2,-4,-1,-1,1,0,-1,-2
611047570886,2,-4,-1,-2,-2,2,-1,2
611047582860,-4,0,-1,-3,-1,-3,-2,1
611047582860,4,-4,2,1,-2,0,-3,1
611047591915,-10,-1,-2,0,-4,-2,-2,-9
611047591915,0,-1,-2,1,-2,-5,0,-2
611047606067,2,0,1,-1,-1,1,-2,0
611047606067,-3,-3,-2,-3,0,-3,-1,-2
611047612860,-2,-4,-2,-5,-1,-2,-3,-1
611047612860,-1,-1,0,-3,-2,-3,1,1
611047629241,-6,-3,-2,0,-2,1,-3,-3
611047629241,-3,3,-2,0,0,-2,0,-1
611047630909,0,0,0,-2,1,3,-1,2
611047630909,-3,-1,-1,1,-2,1,0,-5
611047642957,3,2,1,2,-3,1,-1,4
611047642957,1,3,1,-1,-2,0,0,3
611047651934,2,-4,0,0,2,-6,-4,-2
611047651934,1,3,-2,0,1,-3,-1,1
611047666166,-10,-2,-5,-4,-3,-2,-3,-10
611047666166,-1,-3,0,-2,1,0,-2,0
611047672977,1,4,0,1,0,-1,1,1
611047672977,-1,-1,-2,-3,1,1,-1,0
611047689279,-3,0,-4,-5,1,-2,-1,-3
611047689279,2,0,-2,4,-2,0,1,5
611047690928,1,-1,0,2,-3,-2,-2,0
611047690928,-5,-1,0,-2,-4,-3,-2,-2
611047702892,4,-2,1,0,0,-1,1,2
611047702892,-1,-1,-1,-3,-2,3,-5,-2
611047711922,0,3,-5,-2,-1,4,2,3
611047711922,-2,0,-3,0,1,-1,1,-3
611047726110,-2,-1,1,1,-2,-1,-1,1
611047726110,-1,0,0,-1,0,1,-2,-8
611047732887,-2,-2,-1,-3,0,-2,-1,2
611047732887,-2,0,-1,-1,-4,4,-1,-1
611047748577,1,-2,-2,-1,1,-5,-1,1
611047748577,-3,-1,-5,-1,0,-5,-5,-3
611047755372,0,0,0,1,-2,-1,1,-3
611047755372,-4,-2,-1,-2,-2,0,0,-4
611047762884,2,2,0,0,0,-3,-2,0
611047762884,0,-2,-3,-3,-2,0,2,2
611047771928,-2,-3,0,0,0,-4,-1,-1
611047771928,-4,0,-4,-4,-1,-3,1,0
611047786087,1,-1,-3,-2,0,1,0,-1
611047786087,-5,-2,-1,0,-2,-5,2,-5
611047792866,0,-2,-2,1,0,1,-1,0
611047792866,3,0,1,-3,-2,2,1,-1
611047808318,-4,-2,-1,-1,-3,-2,-5,-1
611047808318,-1,-3,1,1,-2,1,-2,-4
611047816934,-1,0,-4,-4,-1,-1,-2,-3
611047816934,0,-1,0,1,2,-2,-1,0
611047822955,0,0,-3,1,0,-1,1,-3
611047822955,0,0,-1,-1,-3,-1,-1,3
611047831929,-1,-3,-2,-1,-2,-4,-3,-3
611047831929,1,1,0,1,-5,-3,0,2
611047846081,0,-1,0,-2,-1,-1,-4,-1
611047846081,-2,-4,-3,-1,2,1,2,-2
611047852859,-3,-3,0,-2,-3,-1,-1,-3
611047852859,0,1,0,5,2,-7,0,3
611047868585,-2,-3,-2,-2,-3,-3,-1,-1
611047868585,-3,0,-3,-2,2,-1,2,4
611047875420,-1,2,-1,1,-3,-6,-1,5
611047875420,0,-4,0,-1,0,1,-4,-2
611047882946,-1,3,0,0,0,-2,1,-4
611047882946,1,0,2,3,1,-5,-1,2
611047891924,-3,-2,-3,2,-3,1,0,-1
611047891924,-3,-1,-3,0,-2,0,-1,-1
611047906077,1,-4,-2,-1,-3,-5,-3,-2
611047906077,2,2,0,2,-3,-2,-1,1
611047912944,2,-1,-2,-1,1,0,0,0
611047912944,1,-4,1,-4,0,-4,2,2
611047928564,1,-2,2,1,-1,0,0,0
611047928564,-2,2,1,0,-3,-1,-5,-3
611047935420,1,-2,0,0,3,-3,1,1
611047935420,1,-1,0,0,-4,-4,-2,-2
611047951804,-2,-3,0,3,0,-4,0,-3
611047951804,2,-2,-2,-2,0,-3,0,0
611047953346,0,-1,0,-2,-1,-1,-2,-3
611047953346,-2,-2,-2,0,-1,1,-3,-2
611047966097,-1,-1,-1,-2,1,-1,-1,0
611047966097,-3,-1,0,-3,0,-5,-1,-1
611047972945,1,-3,-3,-1,1,-3,1,1
611047972945,-3,-2,-2,-3,-1,0,-1,1
611047988605,-1,0,-4,-3,-1,-1,-1,-4
611047988605,-5,1,-2,-3,-3,0,-4,-8
611047995400,1,1,-2,2,-3,-2,1,1
611047995400,2,-1,-1,-1,2,3,-4,-3
611048011535,0,2,-2,1,-1,0,4,-1
611048011535,0,-1,-1,0,0,1,3,2
611048017877,-2,0,-3,-1,-1,-2,-5,-3
611048017877,0,-1,-1,-1,0,-1,-1,0
611048026099,-1,0,-1,3,1,0,1,-1
611048026099,-2,0,-2,0,2,-2,-1,-1
611048032913,-2,-2,1,-2,-1,1,-1,-1
611048032913,0,2,-1,1,-2,1,2,2
611048048618,0,-2,1,2,0,0,-2,1
611048048618,0,-3,-3,-3,0,-1,-1,-1
611048055382,-6,0,0,0,-1,2,-4,-3
611048055382,1,-1,1,0,-5,-3,-4,-5
611048071037,-3,-4,-1,-2,-1,0,6,-1
611048071037,-1,-2,-2,-3,0,1,0,1
611048071898,-1,-5,2,0,0,-4,-1,0
611048071898,-7,-2,-1,-1,1,-1,0,-1
611048086922,-3,-1,0,-3,-2,4,-3,0
611048086922,1,-4,0,2,-1,1,0,-1
611048092951,3,-1,0,-2,-3,-4,0,0
611048092951,-2,1,-2,-2,1,-4,1,-1
611048107945,-3,-3,2,2,-1,-2,0,2
611048107945,2,-2,-2,3,-5,-4,-3,-3
611048115390,-4,1,-2,-2,-3,1,2,1
611048115390,-2,-3,-2,-4,-1,-3,-5,-4
611048131107,0,1,-1,0,0,0,-3,2
611048131107,-1,1,0,0,0,0,-1,0
611048131902,1,0,-1,-4,-2,-1,0,2
611048131902,-7,0,-1,1,-2,2,-2,-7
611048146933,0,0,-2,-2,-2,-3,-4,-3
611048146933,-4,-5,0,-2,0,-2,0,0
611048152959,0,-2,1,2,-1,-1,1,-3
611048152959,0,-2,-1,2,-1,-1,3,2
611048167931,-2,-1,-3,-3,-2,-3,0,-2
611048167931,2,3,-3,-4,-2,-2,1,-2
611048175426,-4,-2,0,0,-1,-1,-3,-1
611048175426,-2,-3,-3,-3,-3,-2,1,2
611048191073,0,-2,-3,1,1,-2,-2,-1
611048191073,-2,1,-2,1,0,-1,1,1
611048191904,-4,-4,-2,-1,0,1,-1,-3
611048191904,1,2,0,1,-3,-2,-1,1
611048206899,-2,-1,-1,-1,-1,-4,-1,0
611048206899,0,-1,0,-3,1,-5,-5,-4
611048212954,4,-1,-1,-2,1,0,0,0
611048212954,-7,-1,-2,-2,-2,-1,-3,-2
611048227912,1,-1,-1,0,-3,1,-4,-2
611048227912,-4,0,-2,-2,-3,0,1,-1
611048235440,-2,0,1,1,0,-5,-1,-5
611048235440,1,0,1,-1,-2,-6,-2,-1
611048251047,0,1,-1,1,0,-2,0,0
611048251047,-4,-4,-1,0,0,-2,-1,-1
611048251800,1,-2,-1,-1,-3,0,-1,-3
611048251800,2,-1,0,1,-1,0,1,1
611048266901,0,-3,-2,-2,-1,-3,-2,-4
611048266901,0,-3,-1,0,-1,0,0,0
611048272950,1,0,-1,2,-3,-3,-3,5
611048272950,3,-4,-1,-1,3,-3,-3,-2
611048287874,-4,1,1,-1,-1,-3,-5,1
611048287874,-1,-2,-2,0,-4,-6,-1,-3
611048295348,-1,-4,1,-2,0,1,-1,-2
611048295348,5,-3,-3,-3,1,1,1,0
611048311056,-6,-3,0,-1,-3,-4,-2,-1
611048311056,-2,0,0,2,-1,0,-8,-8
611048311809,0,1,-1,0,0,0,3,3
611048311809,-3,-4,-2,-1,-1,-3,0,-6
611048326902,1,1,0,1,1,0,2,-1
611048326902,-2,1,-1,-5,-3,0,2,0
611048332836,2,1,-3,-5,-2,-2,0,2
611048332836,-7,-1,3,0,-1,-2,1,-5
611048347946,3,1,-3,1,-2,0,2,2
611048347946,0,2,-1,1,-2,-2,0,1
611048355399,-1,-1,1,2,0,0,-3,-3
611048355399,2,3,0,3,0,-1,-4,2
611048371047,-1,-3,-1,-2,0,1,2,0
611048371047,0,1,0,0,1,-5,0,1
611048371904,-6,-2,-4,-2,1,-3,-3,-4
611048371904,-1,-4,-3,-3,-1,2,0,0
611048386919,-2,2,0,-4,2,1,-1,-2
611048386919,0,-4,1,0,1,3,3,1
611048392973,-4,-1,-1,0,-2,3,-3,-1
611048392973,3,1,-3,-2,1,2,-2,0
611048407943,-1,-1,2,2,-5,1,-1,1
611048407943,-2,-1,-2,0,-2,3,-1,-2
611048415411,0,4,1,1,-1,-5,1,-4
611048415411,2,2,-1,0,0,0,0,4
611048430827,-3,0,-1,0,-1,0,0,-4
611048430827,1,-1,0,1,1,-4,-1,0
611048437951,0,-1,-2,-1,-2,-1,-1,4
611048437951,-2,-1,-1,-3,-4,0,-2,-5
611048446901,0,-2,-2,1,5,-6,-4,-2
611048446901,-2,-4,0,-2,-1,-5,-2,2
611048452938,-3,0,-2,0,-3,-5,-5,-5
611048452938,0,-1,1,5,-1,1,-3,0
611048467883,-2,-3,-3,-4,0,3,-1,-3
611048467883,-1,-1,0,1,0,-2,-3,-3
611048475436,1,-4,-1,0,0,-2,-2,-3
611048475436,-5,-1,-2,-1,-1,-6,-1,2
611048491079,-3,1,-1,-2,-1,3,0,-4
611048491079,0,0,-2,3,-3,0,-1,0
611048491926,-7,-3,1,-1,1,1,-1,-2
611048491926,1,0,-1,-5,-2,-5,2,-2
611048506905,1,-3,-2,3,-2,-2,-2,-2
611048506905,-1,0,-3,0,-3,-2,-2,-1
611048512874,-4,-1,-3,-3,1,-3,2,1
611048512874,4,-1,-1,0,-2,-1,-3,2
611048529370,1,0,0,1,-2,-8,0,-1
611048529370,2,-2,-1,2,-5,-2,-5,-1
611048535443,-1,-1,-1,-2,1,0,2,1
611048535443,-7,0,1,0,-3,-2,-1,-6
611048551037,0,3,-1,-2,4,0,-1,1
611048551037,-3,-1,-2,-5,-2,-1,0,-4
611048551827,6,3,0,-1,0,2,-3,-1
611048551827,-1,-3,-1,0,1,-3,-3,0
611048573586,2,-3,-1,-1,-3,-3,-1,2
611048573586,-8,-2,-1,-3,0,0,-4,-7
611048574348,0,-1,0,3,-2,1,0,1
611048574348,2,-3,-1,-1,0,0,-1,-1
611048587912,-6,1,-4,-2,1,-1,-2,-4
611048587912,-1,2,-1,1,2,1,-1,-1
611048595396,-3,2,-2,-3,1,0,3,-4
611048595396,-3,1,-1,-3,-1,-3,1,-2
611048611041,-1,1,1,2,-2,-2,-4,3
611048611041,2,2,2,2,-3,1,4,1
611048611965,-2,-4,-1,-4,0,-3,-2,-3
611048611965,-2,0,0,2,2,-2,3,2
611048626897,-2,-3,-3,1,-5,-4,-1,-3
611048626897,1,-4,-1,-2,3,0,1,-1
611048632899,1,-3,-1,0,0,-2,-3,0
611048632899,1,-2,1,4,0,-2,0,-1
611048647911,1,-5,0,-1,1,-4,1,-4
611048647911,-2,1,-3,-3,0,1,-1,0
611048655400,-3,-4,-1,1,-1,3,-2,-1
611048655400,-1,1,2,-1,-2,-1,0,-5
611048671070,-4,-3,-3,0,-1,0,-1,1
611048671070,-1,-3,-5,-2,2,-2,-2,-7
611048671914,0,0,1,1,-1,-4,-2,2
611048671914,-1,-1,-1,-2,-3,-3,-3,0
611048686930,0,-1,1,-2,-1,0,1,-2
611048686930,2,-2,0,2,-2,-5,2,5
611048692958,-1,1,0,-2,0,0,-1,-2
611048692958,-2,-2,1,-2,0,-1,-3,-3
611048707965,2,1,1,1,-2,3,1,-3
611048707965,2,0,-1,1,0,-1,-1,0
611048715413,-4,0,-2,-4,-5,1,-3,-4
611048715413,-1,4,-5,-1,2,-3,1,2
611048730395,-1,0,-3,0,-3,-3,-4,0
611048730395,-3,0,-4,-1,-3,1,-3,2
611048737935,-1,3,-4,-3,-2,0,2,-3
611048737935,0,-1,0,2,1,2,-4,0
611048746899,-2,-2,0,-3,-1,1,0,0
611048746899,-5,-2,-2,-3,2,0,-1,-5
611048752949,-2,2,-1,2,-2,-2,-2,2
611048752949,0,-4,2,2,-4,1,-2,-1
611048767920,-2,2,-4,0,0,2,0,-3
611048767920,1,-2,2,-1,-3,-4,1,1
611048775405,1,0,-1,3,-1,-4,-1,-2
611048775405,-3,1,-2,-2,1,1,0,-3
611048790353,3,-2,-2,-3,-2,-3,0,4
611048790353,-3,1,-1,2,-2,1,2,-2
611048797932,1,1,0,2,-1,1,1,1
611048797932,1,0,-3,-3,0,1,-3,5
611048806934,-2,-3,2,-1,0,1,-1,-2
611048806934,1,-1,-1,-2,0,1,-4,4
611048812934,-1,-1,-6,-2,-4,-1,-1,-3
611048812934,-1,0,-1,2,-3,-2,1,1
611048827949,1,-1,2,3,-1,-4,-2,-4
611048827949,1,0,1,-1,1,-2,-1,1
611048835422,-4,-3,-1,-3,-1,-1,-5,-3
611048835422,-1,0,-1,3,-2,0,0,-3
611048850435,-3,-1,-1,-2,1,-3,-2,-3
611048850435,-1,-1,-5,-3,0,-1,-1,-3
611048857959,-3,-3,-5,-1,-2,-3,-2,1
611048857959,-4,-2,-4,-2,-1,2,-4,-1
611048866896,-1,-2,-6,-2,-2,0,3,2
611048866896,-2,-2,3,3,-1,-8,0,-4
611048872956,2,-4,2,1,2,-1,2,0
611048872956,1,4,-2,0,-2,-3,2,0
611048887927,0,0,-1,-2,0,-1,-1,-1
611048887927,-1,-2,3,1,-3,-2,-1,-1
611048895424,-1,-1,1,-2,3,-3,-1,-3
611048895424,1,-2,1,0,-1,0,-4,-2
611048910393,-4,-1,0,2,-1,0,-3,0
611048910393,-2,1,1,-2,-3,-1,1,2
611048917946,-2,-6,-3,-2,-1,-1,-2,-4
611048917946,3,1,1,-1,-1,-1,2,-2
611048933581,0,-1,1,3,-1,-4,-1,0
611048933581,0,-1,-6,-2,-1,0,-1,3
611048934350,-1,-1,-6,-2,0,-3,1,0
611048934350,-2,-2,-7,-2,0,-1,-2,-1
611048947953,-2,-1,-3,-2,0,0,-2,-1
611048947953,-3,-3,-3,-2,1,3,1,-1
611048955437,1,-2,0,0,-2,-1,0,-2
611048955437,-4,0,1,1,0,-2,0,-1
611048970445,0,-2,0,-2,0,-1,-2,2
611048970445,4,2,4,0,2,0,-2,0
611048977981,0,0,2,5,-1,0,-1,2
611048977981,-1,-3,-3,-3,-1,-1,1,-6
611048993537,-2,-2,0,0,-3,-2,-4,-2
611048993537,-3,-1,-1,3,-4,-3,-2,-3
611048994320,-5,-2,-3,-5,0,-3,-3,-2
611048994320,-3,-3,0,-2,-2,-3,-1,-2
611049007933,4,-1,-2,-3,0,-3,3,-3
611049007933,-2,0,-4,-2,1,-4,1,-1
611049015362,-4,3,-1,1,-2,2,3,1
611049015362,-2,-4,1,5,-3,-1,-3,1
611049030423,-2,0,1,0,3,1,-3,-6
611049030423,-2,0,-2,-1,1,3,-3,0
611049037935,5,-1,3,1,-5,-3,0,4
611049037935,0,-5,-3,2,-2,-1,2,6
611049053616,-1,-1,-1,-3,-2,-4,1,0
611049053616,-1,-1,-1,-3,1,1,-2,0
611049054356,0,0,-1,1,0,0,-3,-3
611049054356,0,-1,-3,-1,-4,-3,1,-3
611049067921,-8,-1,-4,0,-2,0,1,2
611049067921,1,-1,-2,-1,-2,-1,2,0
611049075409,3,-1,0,5,0,2,-1,2
611049075409,-2,1,2,-3,-2,-4,-1,-2
611049090450,0,-3,-3,-3,-4,-4,-3,-2
611049090450,-6,-1,0,-2,-2,1,-1,-3
611049097950,-2,-1,0,-2,0,2,-1,0
611049097950,-3,-1,-2,-4,4,-3,-3,1
611049113574,1,1,0,1,-2,-1,-4,0
611049113574,-2,1,-3,-1,-1,0,-1,-2
611049114360,0,1,-3,-4,-1,-2,0,-2
611049114360,-3,0,2,-2,-1,2,-4,0
611049127965,-3,-2,-3,0,0,-1,-1,0
611049127965,3,-1,-5,-2,0,1,4,0
611049143623,-3,-2,-1,0,-2,-2,-3,-4
611049143623,0,1,-2,2,1,-1,0,-1
611049150417,2,-3,-3,-2,1,0,-1,0
611049150417,-1,-2,-1,1,-3,3,-1,4
611049157926,-5,-1,-2,-1,0,-3,-2,-4
611049157926,-2,0,-2,-2,0,2,1,-2
611049173549,-3,-2,-1,-2,0,-1,1,0
611049173549,-1,-3,-1,0,-2,0,-2,-3
611049174326,-2,-1,-1,1,-2,-1,-3,-1
611049174326,2,-2,-1,-2,0,-1,3,0
611049187924,0,-3,1,0,-1,-1,0,-1
611049187924,-2,0,0,1,-5,-2,-1,-3
611049195428,1,-2,-1,-4,3,3,1,0
611049195428,-4,-1,-3,-2,-1,-2,-3,-2
611049210417,-1,-1,0,0,-3,-2,0,-1
611049210417,-4,-2,-3,-2,3,-2,-3,-3
611049217956,-1,0,-3,0,0,-1,1,-3
611049217956,0,-1,1,-1,-4,-3,-3,-2
611049233643,1,4,1,2,-2,2,-1,-4
611049233643,0,-4,1,0,-1,-5,-2,4
611049234376,-1,0,0,0,1,-3,2,-4
611049234376,-1,-2,0,3,-1,-5,3,0
611049247948,-3,0,-1,-2,0,-1,-3,3
611049247948,3,-1,-1,-4,-2,-1,0,-4
611049255455,2,-4,0,0,-4,-3,-4,0
611049255455,-1,-2,-4,-1,-1,0,2,-4
611049270399,-3,0,-2,0,1,3,0,0
611049270399,1,0,0,2,1,-2,-1,-1
611049277946,-1,-1,-1,0,-3,1,0,0
611049277946,3,-2,-2,-5,1,1,-1,3
611049293585,0,-2,2,6,-5,-5,-1,-6
611049293585,-4,0,-2,0,-2,-5,-3,-2
611049294349,-3,0,-2,-5,5,1,-1,-3
611049294349,0,-1,1,0,-1,2,-2,1
611049307950,2,-3,-2,-1,-1,-1,2,2
611049307950,-4,-2,-3,-5,-3,-1,-2,-5
611049315408,-2,0,-2,-1,0,1,-1,3
611049315408,-3,-2,-3,0,0,-4,-2,-4
611049330411,1,0,1,-1,-2,0,-1,-2
611049330411,-3,2,0,-1,1,2,-1,0
611049337932,-1,3,1,-1,-3,-3,0,0
611049337932,-1,-3,-2,0,-1,-1,0,-1
611049353605,-1,-1,-3,-1,0,-3,0,-1
611049353605,1,2,0,0,1,-1,-4,3
611049354369,0,-1,0,0,-1,-1,0,0
611049354369,-1,1,-4,-1,1,1,-3,-2
611049367927,-1,0,-3,1,0,-3,-1,-2
611049367927,-1,-1,-1,0,0,-1,-1,-2
611049375380,0,1,-1,1,-5,-3,-1,-1
611049375380,-3,-3,-1,0,-3,-3,-1,0
611049390411,-1,-3,0,-4,-3,-1,0,0
611049390411,2,-4,1,1,-1,0,-1,-1
611049397908,0,-3,0,-1,0,-5,-1,-2
611049397908,3,0,-3,-4,1,0,-2,-1
611049413550,-4,-2,1,2,-1,-1,-3,-10
611049413550,-2,1,-4,-2,1,-1,-1,0
611049414353,-1,-2,-2,-2,-1,-4,0,-2
611049414353,0,-5,0,-1,-1,2,3,1
611049427910,-1,-2,-1,-1,2,-1,0,6
611049427910,-2,-5,0,2,-2,-3,-2,-3
611049435465,0,-1,0,3,0,-2,-1,1
611049435465,1,2,0,1,-1,-5,-5,-2
611049450577,-4,-2,-1,1,0,0,0,1
611049450577,0,-3,-2,-5,1,0,2,-1
611049457996,2,-4,1,-2,-2,-1,-2,4
611049457996,1,-2,-1,0,2,-3,-1,-2
611049473657,-3,-2,-3,-5,-2,-4,-1,-3
611049473657,-1,3,-1,1,-1,-4,0,-1
611049474376,0,-4,0,0,-1,2,1,-1
611049474376,-1,2,-2,-2,-2,-3,-2,-1
611049488063,5,-2,0,2,-2,-1,0,2
611049488063,-1,-2,0,0,-2,-5,0,-1
611049495443,2,0,0,1,-4,3,0,2
611049495443,0,-3,0,0,1,-10,-3,-1
611049510516,2,2,-3,-1,-2,-1,-1,-1
611049510516,-2,-1,-2,-3,-1,2,-1,0
611049518049,-4,-2,-3,-4,1,3,0,-1
611049518049,0,0,1,3,-4,18,0,-1
611049533684,1,3,-2,0,1,7,-1,-1
611049533684,-1,0,-2,-2,1,2,-2,2
611049534447,-2,2,-3,-1,-2,-4,-2,-3
611049534447,1,1,4,3,1,1,0,-5
611049547919,-2,-4,-4,-4,-1,-2,1,-1
611049547919,-1,0,1,0,-2,-1,-3,2
611049555439,-6,0,-3,-3,-1,-4,-2,-6
611049555439,0,-1,0,-3,-2,-7,0,3
611049570543,-4,-5,-3,-5,-1,-5,-4,-8
611049570543,0,-1,-2,4,-2,-3,3,0
611049578011,0,-1,-2,-1,0,-3,1,0
611049578011,-3,-3,-4,-5,-2,-1,1,-1
611049593618,-1,0,2,1,1,0,1,-2
611049593618,-3,-4,0,1,0,-5,-3,-2
611049594443,1,-1,-1,-2,-1,0,0,0
611049594443,-4,-3,-1,-3,-1,-6,0,-2
611049607987,2,1,1,4,1,2,1,4
611049607987,0,2,-4,-3,-2,-3,-1,-4
611049615416,2,-4,-1,-2,-2,-1,1,-1
611049615416,-3,-3,-1,1,-1,0,1,-2
611049630459,0,1,0,0,0,1,-1,2
611049630459,-1,-1,-1,0,-2,0,-1,0
611049637928,-1,-1,0,0,-1,-3,-4,1
611049637928,-1,1,0,1,-3,-3,-4,3
611049652910,-1,-1,-2,-2,-3,-3,2,7
611049652910,2,-4,1,3,-1,-3,-2,2
611049661059,-3,-1,0,0,-1,1,-1,-3
611049661059,-1,-3,-1,-1,1,0,0,0
611049667948,0,0,0,-4,-1,0,-4,1
611049667948,-5,-2,2,1,-2,1,1,-2
611049675532,-2,-3,0,-5,2,-2,-2,-1
611049675532,0,1,-4,-1,-1,-1,-1,-1
611049690450,1,2,-2,0,-1,0,-2,-8
611049690450,1,-1,1,2,-5,-3,-1,-1
611049698021,-3,-3,-1,0,2,-2,0,2
611049698021,-3,-3,-2,-2,-2,-1,0,-6
611049712942,-1,-5,1,1,-2,-4,0,-1
611049712942,2,-1,-2,-3,2,4,-2,0
611049721166,-1,0,-5,-2,3,1,0,-3
611049721166,-2,-2,-2,0,-2,-3,-3,-1
611049727976,-3,-1,-6,-1,-2,-4,2,1
611049727976,-2,0,-1,-2,-1,-2,1,-3
611049735467,-2,-2,-1,1,-4,-3,-1,-1
611049735467,-1,0,0,0,-1,-6,2,-2
611049750494,-5,-2,-3,1,0,2,-2,-5
611049750494,-2,-1,-1,0,-3,-3,0,1
611049758030,2,1,-1,-1,-2,-3,0,5
611049758030,-9,2,-5,0,-1,1,0,-1
611049773001,2,1,0,1,-1,-1,2,3
611049773001,-1,-1,-1,3,-2,-2,-1,-1
611049781192,-2,3,0,0,0,-3,-1,-4
611049781192,1,-3,3,-1,-1,1,-1,2
611049788034,1,-2,-2,-1,-2,-4,-2,-1
611049788034,-4,0,-1,-2,-3,-2,-3,-6
611049795526,2,-1,2,1,1,0,2,-1
611049795526,-1,0,-3,0,0,-3,-2,3
611049810534,3,-3,0,4,-2,-3,-2,-3
611049810534,1,-4,-2,-3,1,0,-2,-1
611049818034,-3,-3,0,-1,0,1,-1,-1
611049818034,3,1,-1,-2,1,-2,-2,-6
611049832993,3,1,-3,-1,2,-1,3,7
611049832993,3,0,-4,-3,-2,0,2,-1
611049841120,-2,-1,4,3,-1,1,0,2
611049841120,4,-3,2,7,-4,0,-1,3
611049856046,-1,-1,0,-4,1,-2,-3,-2
611049856046,-1,-2,2,-1,-2,-3,2,0
611049856892,-1,2,-5,0,-5,0,-4,-1
611049856892,1,0,3,0,1,0,-1,1
611049870394,-3,-3,0,-4,-1,-3,0,-3
611049870394,2,-4,-1,2,-2,-1,0,-1
611049877903,2,-2,-3,-4,1,0,-1,-3
611049877903,-2,1,-2,-3,-1,0,1,-1
611049892932,-3,-2,0,-1,-1,-1,-4,-3
611049892932,-1,-2,-2,1,0,1,1,0
611049901168,-4,-2,-2,-1,-2,0,-1,-1
611049901168,0,2,-1,1,2,-1,-1,-2
611049916080,-3,-3,0,2,-2,-1,-2,-2
611049916080,-3,1,0,-3,-4,-1,-3,1
611049916891,-3,0,-3,-4,0,-1,0,-2
611049916891,1,-1,-1,0,-1,1,1,-2
611049930541,-3,-2,-2,-4,-2,3,2,-1
611049930541,-5,-1,-1,-5,1,-1,-2,-2
611049938052,2,-2,-2,2,0,-3,-3,-4
611049938052,-1,1,-2,2,-2,-1,-2,5
611049961848,0,1,0,-2,-1,-3,2,-2
611049961848,1,-3,1,0,0,-3,-1,2
611049962660,-4,-2,0,3,-2,-4,0,0
611049962660,1,-1,-1,1,1,0,-1,0
611049976142,-2,0,-4,-2,3,1,0,-3
611049976142,-3,1,-1,-1,-2,-5,-1,0
611049976944,0,-2,-1,-2,1,-1,1,-1
611049976944,-3,-1,-3,-5,-2,-2,-2,-3
611049990499,-3,1,1,3,1,-1,0,-1
611049990499,-2,1,-2,1,0,0,2,-2
611049997993,1,-3,-2,-3,0,-4,0,-1
611049997993,1,-1,-2,0,-2,-1,-2,-2
611050012936,0,-4,0,2,-2,0,-1,1
611050012936,-2,-4,-3,-1,-3,-2,2,-4
611050021267,1,1,-2,5,-1,-1,-2,0
611050021267,-1,-3,-3,-2,-3,-3,-2,-6
611050036094,-2,-1,-2,-3,2,-3,-2,1
611050036094,2,0,-3,-6,3,0,-4,0
611050036976,2,-1,3,1,-3,-5,-2,-1
611050036976,1,-3,-1,-1,0,2,2,-2
611050050467,2,2,-1,1,-1,1,-1,-2
611050050467,2,-2,1,2,0,-2,0,-1
611050058006,0,-2,3,1,1,-1,-1,-5
611050058006,-1,3,-2,-3,0,-1,-1,3
611050073071,0,-2,-2,-1,0,-1,-5,-3
611050073071,-7,-1,-2,1,-2,1,-1,-1
611050081182,-4,1,-4,-3,-1,-4,-1,0
611050081182,-1,-2,-2,-2,0,-7,1,-1
611050096199,-3,3,-1,-2,-2,-19,-1,-1
611050096199,0,2,2,-1,2,-25,1,-1
611050096950,-2,-1,-2,-4,-3,9,-1,1
611050096950,-3,-1,2,0,-3,19,1,-2
611050110461,-2,-1,1,7,0,20,-2,-2
611050110461,2,-6,-4,-2,-2,18,-4,-1
611050117935,-2,0,-4,3,0,3,0,-2
611050117935,-1,-2,-2,1,2,1,-1,2
611050132977,-2,-2,-2,-7,-2,-6,0,-2
611050132977,3,2,1,-3,1,-8,-1,-1
611050141150,2,-2,-1,1,-3,-7,-1,6
611050141150,-7,2,-2,3,-5,-9,-6,-9
611050156103,-2,-1,-3,-2,-1,-8,0,1
611050156103,-2,-2,-3,1,0,-2,-1,-2
611050156894,4,-5,0,-1,-3,1,1,2
611050156894,2,-4,-1,-2,4,-5,2,0
611050170494,0,0,0,0,-4,-6,1,0
611050170494,4,0,0,4,-2,1,-2,-1
611050178010,-2,0,-4,-5,0,-1,0,-2
611050178010,-4,-4,-3,-3,-2,-2,0,0
611050193019,1,1,0,1,-4,-1,-1,-2
611050193019,0,2,-1,-1,1,3,1,2
611050201195,-4,3,-2,-2,0,-5,1,-2
611050201195,2,-2,2,1,-4,-4,-1,0
611050216122,1,-3,1,2,-1,3,-2,-2
611050216122,-2,0,-2,-1,-2,1,-2,-1
611050216980,-1,-1,0,3,-1,0,-4,-1
611050216980,0,-1,-1,3,0,-2,-4,1
611050238612,0,-3,-2,-3,-1,-1,3,-2
611050238612,-3,-1,0,-6,2,1,1,-1
611050239459,0,1,0,0,2,-1,-2,-2
611050239459,1,4,1,2,4,1,1,-1
611050252995,-2,-2,-1,-11,-5,-1,-2,-1
611050252995,-2,-2,0,3,-4,-3,-4,2
611050268664,6,0,6,8,-2,-2,-1,-2
611050268664,-3,-2,2,-6,-2,1,-3,-1
611050276240,0,-1,2,19,10,1,1,1
611050276240,0,0,6,12,3,0,-1,-2
611050276990,-1,-1,-21,-54,-24,-5,-1,-1
611050276990,-3,-3,-3,-5,2,1,-1,-1
611050290522,-2,-3,3,13,5,3,1,0
611050290522,-2,2,-5,-4,3,3,0,0
611050298022,-4,-1,10,21,6,3,1,0
611050298022,2,0,6,12,-4,-6,2,-1
611050312968,-5,0,-4,-22,-10,-2,-3,-3
611050312968,-2,-4,-7,-8,-5,-2,-1,-2
611050321165,-4,-4,-13,-1,-1,-4,-1,-2
611050321165,2,1,-12,-16,-6,2,0,3
611050336177,-3,-7,-2,15,6,-1,0,1
611050336177,-3,0,-3,9,1,4,1,-1
611050336995,-2,-3,-3,1,6,-3,-4,-1
611050336995,-3,-3,-2,-19,-11,-4,0,-3
611050350428,2,0,-3,-4,-4,1,-1,0
611050350428,1,-2,-4,-1,-2,-2,-1,-1
611050357959,-1,0,0,7,1,3,1,1
611050357959,-1,0,-3,6,4,-7,-1,0
611050372936,2,-1,-4,-10,-2,-1,1,-2
611050372936,-1,0,7,-2,-6,-6,-4,0
611050381149,-2,-5,8,7,1,-4,-1,-1
611050381149,-3,-6,-4,-5,-1,3,0,-3
611050396066,-1,-2,6,1,-2,-2,-1,-1
611050396066,3,0,5,1,-1,-3,1,-1
611050396902,-3,-2,4,8,6,4,-2,-4
611050396902,1,3,-3,-8,-8,0,-8,-6
611050410405,0,3,4,4,7,0,3,2
611050410405,-3,0,1,-4,-4,3,-1,-2
611050417905,0,0,-14,-2,1,-1,1,1
611050417905,-2,3,-8,9,3,-8,-4,-4
611050432932,-2,3,-12,-8,-5,3,-1,-2
611050432932,-2,-1,-22,-8,0,-1,-2,-1
611050441080,-1,1,-10,-4,0,0,0,-2
611050441080,0,1,17,3,3,-3,-2,-2
611050456073,2,-1,4,-2,0,2,0,0
611050456073,-2,-1,10,-1,-1,-1,-2,0
611050456896,-3,1,14,-1,-4,-6,-4,-2
611050456896,1,-5,-2,7,7,-1,0,3
611050470599,0,-6,-7,-2,-2,-6,-1,2
611050470599,-2,1,-4,-3,0,6,2,1
611050478017,1,0,-5,-4,0,-2,-3,-1
611050478017,-1,-1,-6,7,3,3,2,1
611050493059,-1,0,-7,-1,-5,-6,-7,-3
611050493059,-1,-1,-12,-6,2,1,4,2
611050501192,-1,-1,-5,7,0,1,1,1
611050501192,0,-2,-1,-3,-3,-8,1,0
611050516215,-3,-3,1,-5,-5,2,-5,-5
611050516215,1,-1,1,-5,-4,-3,-3,-3
611050516964,0,-4,5,-5,-3,-5,-1,0
611050516964,-1,-1,6,10,-2,-1,2,1
611050530518,-3,-3,3,5,3,-5,2,1
611050530518,1,0,1,1,-1,-6,-4,-2
611050538017,3,-2,2,-6,-2,3,-3,-2
611050538017,0,0,-5,-2,1,0,2,2
611050553013,-2,-1,-3,-6,2,-1,-2,-3
611050553013,-3,-1,6,3,-1,-2,-2,-1
611050561232,-3,2,0,6,-2,-1,0,1
611050561232,-1,4,0,2,3,4,0,-1
611050575564,1,3,5,1,-2,-5,-4,0
611050575564,-6,-9,-1,-3,-5,-6,3,-2
611050583675,-5,-4,-2,-4,-1,0,1,-3
611050583675,-4,-7,2,1,2,2,-2,-1
611050590406,4,-2,4,7,2,2,-4,0
611050590406,6,-2,-1,4,3,4,-4,-5
611050598030,0,2,-2,-3,-4,-4,-3,-3
611050598030,-2,0,-1,2,-2,0,0,-1
611050612989,3,1,-6,1,0,3,0,2
611050612989,-1,-3,-5,-12,-8,3,0,0
611050621190,2,-4,4,2,1,1,4,3
611050621190,1,0,-1,1,-2,2,-2,1
611050635469,-5,-3,-2,2,1,-2,3,3
611050635469,-4,3,1,0,2,2,-3,-2
611050643673,2,1,0,-1,2,-2,0,-8
611050643673,-2,-2,-5,-7,0,-7,-2,-10
611050650464,-3,-1,-5,-10,-4,1,2,-24
611050650464,3,3,3,3,-2,-2,-1,3
611050657982,-2,-6,-7,-1,-4,-2,-5,29
611050657982,0,0,-5,-2,1,1,-3,30
611050672928,-3,-4,3,3,-3,-3,-2,13
611050672928,-1,0,-3,4,-1,-3,0,2
611050681196,1,0,1,1,1,0,4,-11
611050681196,-1,-4,-2,-3,-1,-2,1,-14
611050695416,0,-1,0,0,-7,-1,-2,-6
611050695416,-2,-3,-1,-1,3,3,-2,-11
611050703634,-4,-1,-3,2,-2,-3,0,-7
611050703634,0,-2,1,-2,-3,-2,-4,-5
611050710476,0,-1,1,2,0,4,1,2
611050710476,0,-4,-3,-2,0,0,-3,-1
611050718041,3,1,-1,-4,1,-1,-5,-2
611050718041,-2,-2,4,3,-2,-3,5,0
611050733018,-5,-3,-1,2,-3,0,-5,2
611050733018,-2,1,0,2,-1,-2,3,3
611050741207,2,3,-1,2,1,0,-3,-3
611050741207,1,-2,-4,-3,0,-3,-3,-1
611050755546,-1,0,-1,-2,-1,-4,3,5
611050755546,1,2,-1,2,1,0,-5,-8
611050763769,-3,1,-1,-2,2,4,2,-1
611050763769,1,3,-3,-5,-1,-3,-3,-1
611050778705,-2,-3,1,0,-3,-16,1,2
611050778705,0,-5,0,1,-4,-13,0,-3
611050779468,2,-3,0,0,-1,7,3,0
611050779468,1,-2,-1,2,-3,16,2,0
611050794471,3,-1,-5,-4,3,12,-3,1
611050794471,-2,5,-3,-1,2,5,-1,0
611050801268,-6,2,-4,-1,1,-5,-2,-3
611050801268,-4,-1,-4,-6,1,-5,0,-2
611050815585,2,-2,-5,-3,0,0,-1,3
611050815585,-7,-3,-1,0,-3,-6,0,-3
611050823733,4,1,-1,3,-5,-4,0,2
611050823733,0,-1,1,2,-2,-6,1,-3
611050838691,-1,-4,-1,-2,0,2,1,-4
611050838691,0,1,3,-1,2,2,-4,5
611050839451,-5,-4,4,0,-5,-1,0,-3
611050839451,2,-1,-4,-2,3,-1,-1,-2
611050852993,-3,-1,0,-2,-3,1,0,-3
611050852993,1,-5,-3,1,-4,3,1,2
611050861230,-1,-2,-3,-3,1,1,-2,1
611050861230,-4,1,-2,-2,-1,-3,-3,-2
611050884343,-2,2,1,5,-5,-3,-1,-1
611050884343,-1,0,-3,0,0,-6,-1,-7
611050885109,-5,3,-1,-4,0,-15,-2,0
611050885109,2,-3,2,2,-1,-5,1,1
611050898570,-4,1,-2,-2,1,-6,-1,-4
611050898570,0,-1,-8,0,0,-4,2,0
611050899392,1,1,0,-2,-3,0,-2,0
611050899392,0,-1,2,7,-5,3,1,0
611050912926,-5,-1,-7,-3,3,5,-4,-2
611050912926,1,2,3,-2,0,11,0,4
611050921131,-4,-9,-2,1,1,9,-2,-8
611050921131,-3,-2,-1,0,3,2,-7,-8
611050935443,-2,3,-2,-3,1,-1,-1,-3
611050935443,3,0,-1,-6,-4,-10,0,4
611050943673,-4,-3,-3,-4,3,-12,2,-4
611050943673,4,-2,-1,-8,1,-6,-1,3
611050958611,-1,-1,2,5,-5,-5,1,0
611050958611,2,-5,4,6,0,15,-1,6
611050959372,1,3,-6,1,1,7,-1,-3
611050959372,-3,2,-3,-3,-2,-5,0,1
611050972918,1,0,1,-2,1,0,-2,2
611050972918,-3,-4,0,-1,1,-7,-1,-1
611050981224,1,-3,2,1,-3,4,4,0
611050981224,1,-2,0,-1,-4,-2,0,0
611050995556,0,-2,0,-1,0,-3,1,0
611050995556,-5,-3,1,1,1,-8,0,-1
611051003669,-3,1,1,2,3,0,2,1
611051003669,-1,-1,-1,-5,-5,0,-2,-4
611051018667,-1,3,-5,-1,0,0,0,-5
611051018667,3,0,-2,-3,1,-5,-3,2
611051019486,-1,3,0,-3,-5,1,-3,3
611051019486,-3,1,4,12,-1,1,1,-5
611051033061,-2,1,1,7,6,6,-1,-1
611051033061,-11,2,-6,-26,-14,-1,-6,-9
611051041239,3,0,5,-8,5,-1,0,7
611051041239,-10,2,-1,-2,-5,-5,-2,6
611051055482,6,-3,-7,15,-4,1,1,-7
611051055482,11,1,-1,6,1,-5,1,-6
611051063777,9,-2,-12,-3,-1,2,-5,-4
611051063777,-5,-4,-11,-1,-2,4,6,21
611051078682,-7,-4,0,13,-2,-2,-8,-7
611051078682,-1,-6,-3,1,3,6,-36,0
611051079359,-2,1,5,-10,0,1,3,-2
611051079359,4,-4,3,-7,5,1,17,-3
611051092999,-6,-2,3,2,-3,-7,21,3
611051092999,-2,0,-2,8,6,-9,18,-4
611051101180,-2,0,-2,-19,-16,4,-9,1
611051101180,-5,1,9,20,5,1,-5,-11
611051116005,0,-4,-6,-14,-3,-8,-5,-2
611051116005,-6,4,-1,-28,-7,2,-1,0
611051123653,-2,-1,-5,17,7,-1,0,-1
611051123653,6,0,-11,-2,-10,0,-4,-12
611051138673,4,3,6,-3,3,3,-6,0
611051138673,2,3,4,27,8,3,2,11
611051139465,-2,-5,-11,16,7,-1,-8,4
611051139465,-2,-4,-18,-44,-16,0,-20,1
611051152985,1,0,-3,-14,8,4,6,1
611051152985,-8,-3,5,-18,-3,-2,18,-2
611051161181,-8,-1,10,-6,-4,-3,21,-5
611051161181,-4,-1,15,13,10,5,3,-7
611051175489,-1,4,9,1,5,1,-7,-2
611051175489,4,-2,-3,4,-4,-2,0,-7
611051183621,-2,0,-12,-29,-20,-10,-9,0
611051183621,5,-2,4,22,8,-3,-6,7
611051198622,-6,-5,-8,-5,-12,1,-2,4
611051198622,2,-3,-1,31,9,-1,0,3
611051199392,4,-2,0,15,3,-6,-10,0
611051199392,1,-4,2,-9,-6,-4,-1,-1
611051213033,-1,-2,-3,-3,-4,3,0,3
611051213033,-8,-8,-2,7,0,1,-2,6
611051221199,-4,-1,-4,11,0,0,-1,-1
611051221199,2,-4,-13,-2,-2,-1,-30,1
611051235597,6,-8,-1,7,4,-4,-7,-6
611051235597,0,1,0,-3,-1,0,25,-6
611051243656,1,-1,7,0,0,-1,29,-2
611051243656,-1,-2,3,2,4,2,28,-3
611051258785,-3,4,-7,-4,-2,-6,-9,0
611051258785,2,-2,-7,-2,-2,-1,-18,-1
611051259489,-4,0,-4,-13,-2,0,-1,-1
611051259489,-2,1,-1,-1,0,-3,-5,-1
611051273045,0,-4,-2,1,-2,-3,-7,3
611051273045,-2,-5,-2,-3,-2,-4,-4,-2
611051281227,-1,1,3,10,2,1,-6,-2
611051281227,-4,-2,6,3,0,-3,2,0
611051295621,2,-3,-1,-5,0,-3,1,0
611051295621,0,5,4,-8,0,0,1,3
611051303693,3,-3,-1,-4,2,-4,-9,-1
611051303693,-9,-3,-2,5,-4,-5,-2,-9
611051318707,1,1,2,-2,8,2,10,0
611051318707,-2,-2,-9,-20,-12,1,-3,-3
611051319438,4,-2,2,-6,3,0,-1,-1
611051319438,-2,-1,-3,-9,0,-7,-10,-6
611051333081,-13,3,0,16,-3,-2,-2,-7
611051333081,-6,-7,-1,9,-1,-2,-8,-10
611051348713,-2,-3,2,2,-5,2,-1,2
611051348713,5,-1,-2,4,6,2,7,4
611051355525,-5,0,9,-7,-9,-8,-1,-2
611051355525,3,-5,-24,-3,-6,-4,-4,-1
611051363646,-2,2,2,10,0,-2,1,-4
611051363646,-1,2,-1,3,-2,-2,0,-1
611051378771,9,1,4,4,-1,0,-1,6
611051378771,1,-1,8,5,0,3,2,2
611051379456,-1,-3,-4,-4,-3,3,-6,-4
611051379456,-1,4,-1,9,3,3,0,2
611051392982,-2,-4,-9,-21,-4,0,-1,-6
611051392982,0,1,2,-12,-4,-2,-2,-2
611051401179,-1,0,1,11,2,-4,-2,1
611051401179,-4,0,-3,-5,-5,0,0,-1
611051415464,-2,-3,-4,5,2,3,4,0
611051415464,0,1,0,3,5,-1,-1,0
611051423663,0,1,2,1,0,-2,-2,1
611051423663,-3,-2,-5,-7,-3,0,0,-1
611051438603,1,-2,-1,5,1,0,-1,2
611051438603,4,2,2,3,-3,-1,-2,2
611051439365,-5,-2,-2,-2,-6,2,-4,-3
611051439365,-1,4,1,-3,-2,-1,0,1
611051452950,0,-5,-5,0,-1,-2,0,1
611051452950,-3,-3,3,-3,1,-1,-4,0
611051461171,-1,-2,-4,-4,1,-3,-1,-2
611051461171,1,1,0,0,1,1,2,0
611051475453,-3,-2,-1,-10,-3,2,-5,-3
611051475453,1,-1,-2,2,-3,2,6,5
611051483664,-3,1,-6,0,0,-5,-3,1
611051483664,3,-5,-1,-5,0,-1,1,2
611051498610,2,-1,-1,-2,-2,-3,0,1
611051498610,0,-2,2,0,4,-1,-3,-5
611051499371,0,-2,-3,1,-1,1,-1,-1
611051499371,-1,0,3,3,1,-4,-2,0
611051512962,-1,-2,-2,-1,0,-1,1,2
611051512962,-1,2,-2,1,4,1,-1,-1
611051521145,-1,2,2,-4,-4,-5,-3,0
611051521145,-1,-6,-4,-5,-1,0,-3,-1
611051535416,-4,2,-1,1,-2,2,1,-3
611051535416,-3,3,-3,-4,0,-3,1,-2
611051543628,-2,-2,1,5,3,0,1,-2
611051543628,5,2,-4,-3,-1,2,6,5
611051558029,1,-4,0,1,-4,-5,-7,-5
611051558029,1,3,5,8,-3,1,1,2
611051566182,-3,-2,-2,-7,1,1,-1,-1
611051566182,-4,1,-2,-3,0,-4,-1,-2
611051573020,3,3,2,12,5,-4,-1,3
611051573020,1,1,-6,-13,-1,-6,-3,0
611051581264,1,-5,-6,-18,-4,0,-4,-3
611051581264,-3,-3,-1,2,-2,2,-2,-1
611051595508,-3,2,2,-3,-1,2,-1,-3
611051595508,-5,-4,1,9,3,-3,-3,-4
611051603715,-2,0,-1,4,2,-1,1,1
611051603715,0,-2,-2,-5,3,0,-2,-4
611051618052,-2,-6,-8,-3,0,-6,0,-2
611051618052,-2,-1,-7,0,0,-3,3,8
611051626222,-2,-2,-16,-3,-1,-1,-3,-18
611051626222,1,-1,0,3,-1,-2,-3,-1
611051633057,-2,3,-8,-4,-1,-1,0,-2
611051633057,6,-3,-4,-4,4,1,1,4
611051641225,-5,-3,-2,8,-7,-5,3,13
611051641225,-8,-3,3,8,-9,-3,-7,-25
611051655635,12,0,7,-8,5,-1,0,10
611051655635,-2,-2,1,-9,-2,-2,-1,8
611051663713,-17,-2,4,16,-7,-4,-3,-18
611051663713,-2,-2,-1,-5,4,0,-1,-9
611051678000,-4,-2,19,-6,-2,1,1,0
611051678000,4,-3,9,11,1,1,1,0
611051686191,3,-3,-6,-6,5,-2,0,2
611051686191,-6,-5,-13,8,-1,-4,-4,0
611051693104,6,3,-22,10,-2,3,-3,-6
611051693104,-2,-3,-1,-6,0,1,-5,-5
611051702007,6,4,9,-5,-2,-6,-3,-1
611051702007,2,2,14,7,-6,-3,-2,2
611051715575,1,-1,-1,-1,-2,-3,1,8
611051715575,-5,-8,-9,-15,-7,-1,-3,-7
611051724539,1,-4,-3,-8,4,0,0,3
611051724539,3,-5,-4,-6,3,-3,1,9
611051738007,-7,-1,4,-2,-5,-6,-1,-6
611051738007,-4,2,9,-7,-2,-9,-4,-7
611051746977,6,1,13,-16,0,6,-5,2
611051746977,1,0,15,-14,7,2,1,3
611051761898,-4,1,9,-8,-3,-1,-2,-5
611051761898,-1,-2,2,10,0,-2,-3,-4
611051763443,2,-1,0,6,2,0,1,4
611051763443,2,-1,-6,9,-4,-1,-2,2
611051775991,-1,-1,-5,17,0,-4,-3,0
611051775991,1,0,-11,10,-2,-1,1,1
611051784570,-1,2,-7,5,-1,-3,-3,-3
611051784570,-2,5,-10,2,-3,4,0,-1
611051806864,1,-3,-6,-3,2,-4,-1,-3
611051806864,-2,0,-3,0,0,-1,0,-3
611051808437,2,-6,-1,9,-2,0,-2,2
611051808437,1,-1,-9,-8,-6,-2,-1,-2
611051821871,2,-3,-1,-1,-1,1,0,0
611051821871,2,2,-1,4,0,-1,-2,-1
611051823486,-3,2,1,3,0,2,-1,1
611051823486,-4,-2,-4,-11,3,1,1,3
611051835554,-3,1,-4,-10,0,3,-1,-6
611051835554,0,2,-1,-7,-2,-5,1,0
611051844615,-5,0,-2,-3,-2,1,-2,-1
611051844615,1,-5,-4,-2,2,-3,2,-2
611051858050,-4,-1,1,3,-1,-3,-2,-3
611051858050,3,-1,1,4,-1,0,-1,-3
611051867014,2,0,2,-3,1,1,4,2
611051867014,-2,2,0,0,2,-5,-6,0
611051881938,-8,0,0,5,-2,1,-3,-7
611051881938,-3,2,0,-4,-1,3,-4,-3
611051883512,-5,-3,-4,-3,0,-2,1,-1
611051883512,1,1,2,0,0,0,0,-2
611051895553,-6,-3,-2,-3,0,0,0,2
611051895553,-3,-3,1,-5,-3,4,-2,0
611051904492,2,5,-2,-1,-2,-5,3,1
611051904492,2,1,-1,3,-1,-1,0,1
611051918053,2,-1,-3,-4,2,-4,-2,-3
611051918053,-6,-2,-2,0,-2,2,-2,-3
611051927005,2,1,-3,-1,-4,0,-4,0
611051927005,-14,-3,0,-3,-4,-6,-6,-17
611051941803,3,-1,-3,0,-2,-2,2,5
611051941803,-7,-2,-3,5,-3,-5,3,-1
611051943494,-3,-1,3,3,2,-2,0,-2
611051943494,5,-1,-1,-2,0,-2,0,0
611051955571,0,-4,-1,-4,-2,0,-2,-1
611051955571,3,-3,1,-1,1,-7,3,-2
611051964520,10,-1,2,-7,3,3,5,12
611051964520,-12,-8,-5,9,-6,-3,-6,-10
611051978021,5,4,-5,4,-6,2,-3,-3
611051978021,2,1,1,-1,0,-4,0,2
611051987069,0,1,-3,-4,1,3,-2,2
611051987069,-2,-2,2,-3,1,-1,-2,-8
611052009333,21,3,0,-1,0,0,8,28
611052009333,-19,-6,-3,4,-7,-7,-15,-28
611052010931,10,1,2,9,0,3,2,-4
611052010931,6,1,2,-1,1,-4,-4,7
611052024326,-5,-3,0,-2,0,-2,-1,-2
611052024326,7,-2,3,-5,2,1,4,8
611052025931,-6,-2,-8,2,-4,-5,-1,-2
611052025931,1,-2,0,1,-1,4,0,2
611052038010,-6,-6,-2,-3,-1,-3,-4,-7
611052038010,7,4,-3,-1,3,1,2,6
611052046937,-9,-5,0,-1,-3,-4,-2,-10
611052046937,0,0,-1,-3,0,0,5,9
611052061804,-4,-1,-2,0,1,-4,-4,-4
611052061804,0,-3,-1,0,-1,1,1,0
611052063417,0,0,-2,0,-1,-4,-1,-4
611052063417,3,-1,-2,1,-2,-1,5,1
611052075487,-4,-5,-1,1,1,-1,2,-1
611052075487,-1,3,0,-1,-1,2,-1,3
611052084432,-4,-2,-1,-3,-4,-3,-3,-3
611052084432,3,-3,-6,-5,0,-1,1,0
611052097986,-5,0,1,-2,-2,-3,-5,-6
611052097986,-1,-1,-3,0,-4,0,-2,3
611052106998,-1,-1,1,-1,-2,-1,-3,-4
611052106998,-2,2,0,0,-1,-1,-1,-3
611052121873,1,1,-1,1,1,-1,1,-2
611052121873,-1,-4,-2,-5,0,-3,0,-1
611052123444,-2,0,0,2,2,-1,1,2
611052123444,-5,-1,-2,-3,-5,-4,1,-4
611052135468,-7,0,-1,-3,-1,-3,-1,-7
611052135468,-5,-4,0,0,-2,1,4,-4
611052144470,-4,0,-4,2,1,-1,3,5
611052144470,1,2,1,1,4,0,3,1
611052157977,-2,-7,-4,-2,-6,-4,-4,-6
611052157977,3,-1,2,2,1,-4,2,6
611052166989,-3,-1,-1,-3,0,1,-2,-5
611052166989,3,2,-1,0,1,4,0,10
611052181832,6,-1,4,-1,3,0,3,2
611052181832,0,-2,-1,-3,0,-3,2,2
611052183436,-5,-1,1,3,-5,-1,-2,-6
611052183436,2,-2,-1,0,2,5,1,7
611052195514,-4,-2,-3,0,0,-2,-2,-4
611052195514,5,1,-6,-1,-6,1,2,10
611052204533,-5,-1,2,-2,0,-3,-2,-4
611052204533,-6,1,-1,0,-2,-1,-2,-7
611052218015,-5,0,-3,-6,0,3,-2,-1
611052218015,3,-1,1,-2,-2,0,4,6
611052226977,2,0,-5,-3,0,-5,-3,-1
611052226977,1,2,0,0,1,1,1,-2
611052241915,3,2,1,-3,0,0,1,7
611052241915,-3,-1,-1,0,2,0,-5,-7
611052243499,-1,-3,-1,-3,0,1,-1,0
611052243499,0,-3,0,-2,-3,-2,-1,-1
611052255562,-5,1,2,3,0,3,-1,-4
611052255562,-1,-1,-3,0,-1,-5,-5,-2
611052264546,0,0,-4,-5,-1,-1,-1,0
611052264546,3,1,2,-1,-1,-3,-2,3
611052278063,1,1,0,-1,0,-2,1,3
611052278063,-5,-2,-3,3,-2,-1,-5,-8
611052287069,6,-5,2,2,-2,3,4,6
611052287069,-2,-6,-1,2,-5,-6,-5,-10
611052301919,1,2,2,0,-2,2,3,3
611052301919,-2,-2,2,-1,0,-2,-1,1
611052303440,4,-3,-4,0,1,-1,-1,0
611052303440,4,2,-1,1,0,-6,1,4
611052315601,-1,0,0,-3,1,2,1,0
611052315601,-9,-1,0,1,-2,-5,-5,-14
611052332056,1,1,0,5,1,-1,2,5
611052332056,1,-3,1,0,-1,-2,2,1
611052338041,0,0,-4,-5,2,-4,-6,-6
611052338041,9,0,-1,1,4,-2,1,10
611052347039,-13,-2,-4,-2,-5,-1,-1,-19
611052347039,0,-1,-1,0,3,4,-6,-1
611052361866,-5,-1,-4,2,-4,-2,-2,-2
611052361866,4,-3,2,1,-1,5,2,2
611052363446,-3,0,-1,-3,2,-5,-3,-3
611052363446,2,-2,-2,-3,-1,-1,3,0
611052375567,0,-1,-2,-2,-3,-3,0,-4
611052375567,-9,0,-5,3,-7,-5,-2,-4
611052384509,2,0,1,0,-4,-7,-3,-1
611052384509,-1,-3,1,3,-2,1,-3,0
611052397970,1,1,-7,-7,-2,1,0,5
611052397970,3,-1,1,-5,2,-3,3,5
611052406961,-10,-3,-2,-2,0,-4,-2,-9
611052406961,-2,-4,-2,1,-1,-5,-5,-8
611052421857,3,0,1,7,-1,-2,2,3
611052421857,-5,1,1,-2,0,-2,-2,-2
611052423441,4,-1,2,-2,-2,3,-4,4
611052423441,1,0,0,-5,2,-2,0,1
611052435927,-1,-3,-2,1,-1,-3,-2,0
611052435927,-9,-1,-6,-1,-4,2,-5,-7
611052444449,-3,-2,0,-3,3,2,-2,-7
611052444449,-5,-2,-3,-1,2,-1,1,3
611052457971,-1,0,0,0,-1,1,1,-3
611052457971,2,-2,4,-7,4,2,-3,0
611052466963,-5,-2,-6,4,-3,-2,-2,-6
611052466963,-10,0,-3,-4,-6,0,-4,-7
611052489357,3,-9,2,1,0,-1,0,0
611052489357,-3,0,-5,-4,-1,0,0,0
611052490950,1,0,-3,-7,-2,2,1,4
611052490950,1,-3,2,4,-2,-6,2,1
611052495479,-4,0,-1,1,-1,-1,0,2
611052495479,2,1,-1,0,-1,6,-2,-1
611052511989,6,1,-2,-1,3,6,-3,2
611052511989,-2,-1,1,-1,-3,-6,1,2
611052517937,-4,-2,-1,0,-1,2,-3,-6
611052517937,5,1,-1,3,0,-3,4,2
611052534448,-3,0,0,1,-5,-3,0,1
611052534448,1,1,-3,1,-2,2,-3,3
611052541153,-9,0,-1,-3,0,-11,-6,-13
611052541153,-7,1,-8,-5,1,-2,1,-9
611052547928,0,4,1,-2,-2,0,2,6
611052547928,2,-4,-3,-6,2,0,1,0
611052564432,1,-2,-4,5,-5,-1,2,2
611052564432,-2,1,0,-1,2,-1,-3,-2
611052565978,1,1,-2,-2,0,1,1,5
611052565978,-4,1,0,0,-4,4,-6,-9
611052586959,0,1,0,-1,-1,2,1,1
611052586959,0,0,0,-3,-2,-1,-2,-3
611052588504,-1,-2,1,0,2,-1,1,4
611052588504,-6,5,-1,-1,-5,7,-6,-4
611052601182,-1,-1,-1,1,3,3,-2,-1
611052601182,-4,-3,-3,-1,-1,-4,-1,-3
611052608073,-3,-3,0,-1,0,-4,-4,-4
611052608073,0,1,-1,0,2,6,4,1
611052631002,2,-2,3,-2,-1,-2,1,0
611052631002,-2,-2,-1,4,0,-3,-1,1
611052640200,9,1,1,4,-2,-1,2,3
611052640200,8,1,-1,-3,2,0,2,3
611052640970,-3,0,-2,-1,-1,-2,0,-2
611052640970,6,-2,2,3,-2,0,-1,4
611052654506,-3,0,-3,-2,-1,-5,2,-1
611052654506,0,-4,-2,-1,2,-2,2,0
611052661264,1,-3,-1,-1,-1,-6,-3,2
611052661264,-3,-1,-5,-1,-1,-2,1,0
611052668069,-2,0,-3,-1,-3,-4,-5,-2
611052668069,-3,-1,1,3,-2,-4,-3,-4
611052684838,0,-3,-1,-1,0,-1,-4,-2
611052684838,1,-2,-2,-2,0,-2,-4,3
611052690601,-9,-4,0,6,-7,-5,-1,-5
611052690601,-3,-3,-3,1,-1,-3,5,2
611052714395,-1,-2,-2,-2,0,-2,0,2
611052714395,3,-1,1,-2,5,3,2,0
611052715994,11,3,-3,-2,1,-4,-7,8
611052715994,-6,-2,5,5,-3,-2,-1,-5
611052721240,0,0,-8,2,-3,2,-2,1
611052721240,2,0,1,0,-2,0,1,2
611052735507,0,-2,1,-1,2,3,2,4
611052735507,-8,-3,-2,2,3,-3,-1,-2
611052744379,3,-2,1,1,2,0,-4,-9
611052744379,4,-3,-1,-1,-3,-7,0,1
611052745976,-3,1,-2,0,-2,-4,-2,-9
611052745976,3,-3,-4,-2,-2,-2,-2,0
611052766855,-4,0,1,0,0,-1,-1,4
611052766855,-2,1,-2,0,-3,2,-1,-4
611052768476,-1,-4,2,-3,0,2,-2,-1
611052768476,-2,-5,-5,-3,-5,-4,0,-6
611052789447,-5,-1,-1,2,-4,-3,0,-3
611052789447,-3,-3,0,-1,-1,-4,-5,-6
611052790996,-2,-7,-2,0,-1,-1,-1,-1
611052790996,4,1,0,-2,1,-3,-2,1
611052805094,1,0,-1,-4,-3,-3,1,2
611052805094,-3,-3,-3,-2,-2,0,-2,-2
611052806696,1,-3,3,3,0,-2,1,-4
611052806696,1,-1,-4,-3,-1,-5,3,8
611052818092,-2,-3,-1,1,0,-3,0,-1
611052818092,-2,-1,0,1,-3,-4,0,-3
611052843419,1,-3,-4,-3,0,-1,0,-2
611052843419,3,4,-1,-4,0,0,0,5
611052844178,3,0,0,-1,-3,-2,-1,2
611052844178,0,0,-3,3,-3,-2,-3,1
611052865042,2,-2,1,6,-1,6,2,1
611052865042,3,3,4,1,3,-4,3,4
611052865804,4,-1,0,-8,3,-4,0,4
611052865804,4,-5,-1,3,-5,0,-1,9
611052867464,-2,0,2,4,-4,-10,0,-14
611052867464,-2,-2,-6,-5,2,2,-3,-3
611052878101,4,1,-1,1,-1,4,1,4
611052878101,5,1,-1,-4,4,-2,-1,7
611052887041,-5,0,-2,-3,-1,1,1,-2
611052887041,-4,-1,0,0,-1,-1,-2,-6
611052909402,-1,-2,-1,0,-2,-1,1,-2
611052909402,-8,2,0,-3,-5,-7,-4,-10
611052911012,-1,2,-4,-4,-1,-2,-2,4
611052911012,-1,-2,-1,1,1,2,-3,-1
611052924354,-6,-2,-3,-6,-3,-1,-5,-1
611052924354,-3,-6,1,0,0,0,-2,-5
611052926039,1,-1,-1,-3,-1,4,0,1
611052926039,2,0,-1,1,-1,-1,2,3
611052938103,-8,-2,-2,1,-1,-9,-5,-5
611052938103,-5,0,2,-2,2,3,-3,-4
611052946996,-1,-2,-6,-7,2,-6,0,2
611052946996,-2,5,0,0,-1,8,-3,-7
611052969469,1,0,0,1,1,-1,1,-1
611052969469,-4,1,-4,-6,0,-3,-2,-1
611052971007,-9,-2,-2,1,-5,1,-7,-5
611052971007,-2,-1,-2,-3,0,0,-2,5
611052991956,-5,-1,-1,6,-5,6,-6,-18
611052991956,-1,2,-1,-4,2,1,7,1
611052993466,4,2,-3,-2,-2,1,-2,2
611052993466,-2,1,3,3,-2,0,1,3
611052998103,-3,1,-3,-3,0,-4,-1,-1
611052998103,-2,-6,-2,1,-5,0,-2,-4
611053014516,-7,0,-2,-1,1,0,-3,-2
611053014516,0,-3,-2,-3,-1,-5,-3,-4
611053021160,0,-1,0,-2,2,-1,1,3
611053021160,2,3,1,2,-3,1,-1,-2
611053045134,3,-1,-1,-1,1,-3,-2,-1
611053045134,4,1,-1,1,-2,2,0,1
611053045834,2,-3,-2,0,-1,-5,3,4
611053045834,0,-2,-2,-1,-2,1,-2,1
611053047475,2,-3,1,1,0,0,4,1
611053047475,-1,-1,-1,-1,-1,0,0,0
611053066880,-1,-3,4,-1,1,4,-1,-1
611053066880,-1,4,0,4,2,-4,1,0
611053068469,-7,-3,-3,-1,-1,-1,1,3
611053068469,-5,-2,-6,0,-8,-5,-5,-15
611053081253,2,2,3,4,3,7,4,10
611053081253,2,0,-2,-9,5,-1,3,0
611053088099,15,0,6,6,-4,-5,0,16
611053088099,1,-1,-3,-2,-1,-3,2,6
611053104428,-12,-3,-2,12,-5,-3,-2,-8
611053104428,3,0,-3,0,2,0,0,6
611053106030,-1,1,-1,-5,2,3,1,-2
611053106030,7,-1,1,-5,4,2,-3,7
611053118084,-8,-2,-7,-8,-4,-4,-3,-13
611053118084,0,-1,-1,1,-3,-6,2,-1
611053127072,-2,1,-1,0,-2,-1,1,-3
611053127072,-3,-2,0,2,-2,-6,-2,-3
611053141283,-2,-2,-5,-6,-1,-1,-3,4
611053141283,-6,-6,-4,4,-2,-7,-1,-5
611053148048,-4,-3,-9,-5,-2,-3,-3,-3
611053148048,-5,-1,1,1,-1,0,-4,-9
611053164897,4,-1,3,1,-1,-3,-1,4
611053164897,0,-3,2,0,-2,-4,1,2
611053166469,-7,-2,-7,-5,-4,-6,-5,-4
611053166469,-2,-5,-5,1,0,1,2,-3
611053178067,4,-1,-4,-2,1,-1,1,3
611053178067,1,-2,2,0,-1,-4,-2,-4
611053194544,0,0,9,2,1,-1,-3,-5
611053194544,0,-1,-2,0,-4,-5,2,1
611053201248,-5,-1,7,-9,-1,-1,-2,-4
611053201248,-1,-5,-25,6,-4,-3,-3,0
611053208144,11,-1,6,1,1,-1,1,0
611053208144,-8,0,2,-2,-1,-5,-5,-6
611053224418,8,-3,0,-2,4,3,1,1
611053224418,-6,-3,6,13,-6,-1,4,17
611053226006,4,-6,-12,-3,-8,-1,2,9
611053226006,7,-1,5,6,4,-1,-1,0
611053238515,1,2,-1,4,-1,-2,0,-5
611053238515,5,2,9,-2,2,-2,-3,-2
611053247089,-7,-2,-1,-2,3,2,-16,-6
611053247089,-2,-1,-1,-7,-3,-1,-19,-5
611053261237,3,0,-2,-2,-2,-6,0,-31
611053261237,-1,4,1,-4,-1,3,11,-6
611053267996,-4,1,1,1,-2,-3,22,40
611053267996,0,0,-7,-2,-4,-4,19,23
611053284403,-3,6,-1,-2,-2,5,-2,27
611053284403,-12,-7,-7,-10,-1,2,-4,-12
611053286008,-11,-1,-3,9,-5,-2,-11,-37
611053286008,0,2,3,1,0,-3,-5,-8
611053298017,2,-1,2,5,-2,-3,-6,-8
611053298017,5,-5,6,-10,6,0,-5,-5
611053307069,6,-2,9,-6,5,-3,-2,0
611053307069,-1,-6,-19,-11,-3,1,0,-1
611053321248,-20,-3,-14,11,-13,0,-2,-15
611053321248,0,3,3,-1,0,2,-4,-3
611053328066,-8,0,-5,1,0,2,-3,-7
611053328066,6,5,3,-6,5,6,10,6
611053344475,-7,-1,-7,-15,0,-1,-5,-15
611053344475,-3,7,1,7,-4,1,-1,12
611053346046,1,1,3,1,0,2,1,-3
611053346046,1,-4,3,2,0,-2,0,-4
611053358086,2,-3,-2,1,-2,-2,-2,11
611053358086,-2,-6,-2,0,-4,0,-6,-4
611053367065,-1,-1,-3,-4,2,1,0,-6
611053367065,-8,0,-7,-2,-3,-3,-1,0
611053381264,-1,-7,2,-3,0,0,0,7
611053381264,7,-2,-1,-2,-2,0,0,-2
611053388091,-2,-2,-5,-1,2,2,-1,-2
611053388091,1,-4,5,8,-1,5,-1,-2
611053404441,3,1,-3,-5,2,-3,6,1
611053404441,-2,2,-7,-7,-1,-1,-2,1
611053406038,-6,0,1,5,-2,3,-1,-7
611053406038,-1,1,-1,0,-2,-6,0,1
611053418068,3,0,3,0,0,-2,4,4
611053418068,2,-1,1,2,1,4,0,-3
611053426999,2,-1,1,2,-7,-2,4,8
611053426999,-8,-4,0,10,9,9,-3,-9
611053441291,7,-1,-11,-14,-11,-20,-3,13
611053441291,0,1,6,10,0,-3,4,0
611053448094,0,4,-4,-6,0,-5,-4,0
611053448094,2,0,6,-4,0,-11,7,3
611053463742,-9,-2,-2,4,4,-18,-5,2
611053463742,-13,-6,-10,-9,-10,-36,-13,-26
611053470653,-6,1,3,6,-3,-4,3,-8
611053470653,-1,-1,-1,1,-3,14,0,3
611053478059,-5,3,-13,-15,5,-18,-12,1
611053478059,-2,-2,-9,-9,-7,14,-6,-6
611053487068,-1,-1,0,6,-5,9,0,-14
611053487068,-2,-3,4,6,-7,5,-1,-2
611053509472,2,-3,11,16,2,33,1,1
611053509472,6,-1,0,6,3,33,-1,9
611053511018,1,-3,-2,-2,-6,10,-1,3
611053511018,-3,0,0,5,-1,10,-3,-4
611053523729,3,0,-5,-1,-1,1,4,-4
611053523729,-7,2,2,2,3,-6,8,7
611053530578,2,-1,-9,-9,3,-8,-8,4
611053530578,14,3,-8,-17,-3,-13,6,17
611053538026,-29,-4,-9,-6,-4,0,-17,-34
611053538026,-5,-1,-15,-12,-6,-2,-1,0
611053547091,-5,-4,0,-2,-3,-10,1,5
611053547091,-2,-4,13,12,3,-12,-4,-5
611053569393,15,-2,-4,-2,-6,-3,7,11
611053569393,6,-8,-8,-25,0,-5,-11,-1
611053571000,0,3,-3,-5,0,-9,1,-1
611053571000,0,0,1,0,3,-1,-4,-1
611053583720,8,2,19,16,1,6,13,9
611053583720,-3,0,-8,7,4,-6,1,-2
611053590657,6,-6,-10,-7,12,-7,2,4
611053590657,-27,-1,-39,-15,-20,-5,-10,-22
611053598071,9,-1,21,19,8,-3,6,10
611053598071,-10,-3,-4,0,-11,4,4,-2
611053607025,-8,5,8,4,0,-3,-10,-11
611053607025,3,-3,3,19,10,-1,4,7
611053621220,4,-1,-16,-26,-18,-1,-9,0
611053621220,-1,-1,3,30,19,3,-4,-1
611053628131,0,1,-29,-28,-22,-6,0,0
611053628131,2,0,3,-7,3,-7,-1,-5
611053643793,-1,2,6,0,4,-1,1,4
611053643793,7,2,22,1,1,-1,3,5
611053650613,-11,-2,13,-5,-4,-1,-4,-6
611053650613,-2,1,18,-8,0,-6,-4,-2
611053667031,-4,1,11,-4,1,2,-3,-6
611053667031,-2,2,16,2,-1,0,4,2
611053668484,7,2,11,12,7,0,3,2
611053668484,-4,-3,3,-2,-5,-1,-1,-4
611053681302,6,-4,-3,9,7,5,7,8
611053681302,2,-1,-9,-2,-4,-5,-1,-3
611053695582,1,3,-9,0,2,0,-4,-7
611053695582,5,-3,-8,-3,-3,-2,-1,-5
611053703768,-9,-5,-12,6,0,4,-2,-1
611053703768,0,-1,-2,5,-5,-6,-4,13
611053710650,-7,-4,-4,14,3,3,0,12
611053710650,-10,1,-11,-2,0,-2,-6,-4
611053726917,6,1,-4,-4,1,1,3,-1
611053726917,-3,2,-3,-10,-2,-1,-4,-10
611053728496,5,2,0,4,7,-3,9,0
611053728496,-1,-5,0,3,2,2,1,-7
611053741029,-5,0,0,6,-1,3,-2,-3
611053741029,3,-3,0,3,4,1,1,-6
611053749575,4,2,-1,1,-5,1,-1,-2
611053749575,-1,-2,0,9,-1,4,1,6
611053772003,3,-7,1,1,-2,1,-1,2
611053772003,5,2,2,9,-1,0,1,7
611053773526,0,-5,3,9,0,0,-4,-4
611053773526,4,1,0,3,-11,-3,1,4
611053787018,0,1,1,6,1,0,2,2
611053787018,-10,-1,-6,-8,-4,3,-3,-3
611053788607,2,-4,-4,-9,6,4,0,-2
611053788607,-2,4,-6,-30,3,-2,-3,5
611053801281,-18,2,-11,-23,4,-7,-1,-18
611053801281,1,1,-13,-29,6,2,3,7
611053808043,-15,-2,-4,-23,-2,2,-9,-14
611053808043,13,2,1,-10,1,-7,8,14
611053823790,-26,-6,-1,8,-8,5,-23,-31
611053823790,16,-3,10,12,13,1,15,14
611053830584,15,-3,-7,6,-11,4,-1,17
611053830584,-23,-1,11,35,-16,12,1,-6
611053846892,13,0,1,16,-5,-2,2,8
611053846892,-6,-6,5,21,-2,-7,-3,-13
611053848536,19,5,-2,-2,-1,-6,3,8
611053848536,7,-2,0,3,5,2,-2,4
611053861872,9,-1,-2,6,0,2,4,10
611053861872,-5,-2,5,4,-10,-1,-5,-4
611053868098,-4,-2,2,6,2,1,2,0
611053868098,-3,-4,-8,-7,-3,-3,-5,-10
611053883800,-5,-2,6,9,6,0,2,3
611053883800,1,1,-6,0,14,6,-6,-3
611053898092,-7,-3,-12,-55,-23,0,-2,-6
611053898092,-5,1,-1,7,6,-1,-2,-4
611053906954,2,-4,-1,-7,2,-4,1,5
611053906954,-4,-1,-4,-10,-10,-1,-1,-1
611053908559,-1,-4,11,30,8,-3,2,2
611053908559,6,-6,-1,-5,-3,-4,1,-2
611053920512,2,-4,-2,-8,-2,-1,4,4
611053920512,0,-2,-1,2,-3,-2,-2,-1
611053929547,-7,1,0,2,-1,-2,0,-4
611053929547,3,-2,-4,-13,5,8,-1,0
611053943795,-2,-5,-1,0,-1,1,-4,-2
611053943795,-5,-2,-6,-10,-4,0,-1,-2
611053950541,-3,-2,-1,3,0,-5,0,-4
611053950541,-3,-5,3,9,2,-5,-2,0
611053966933,6,-1,-2,-1,-6,-6,0,0
611053966933,-3,-3,5,4,-2,5,-3,0
611053968494,-2,-6,-2,8,3,-2,-1,2
611053968494,2,0,0,2,-4,-4,0,-4
611053980571,2,1,-2,-5,-3,0,-2,-1
611053980571,-5,1,-5,-5,-7,-2,-2,0
611053989631,-1,-1,5,15,5,1,1,-3
611053989631,0,0,-2,-7,-3,0,0,-4
611054003739,0,2,-3,-7,2,0,4,4
611054003739,-3,-3,-1,0,0,2,-2,-3
611054010569,1,-1,-2,0,0,-3,-2,7
611054010569,-13,-3,-3,1,-7,-2,-5,-9
611054026932,3,2,2,-6,6,2,2,0
611054026932,20,3,1,-4,5,-5,1,12
611054028502,10,1,-3,2,-4,1,9,14
611054028502,-5,-6,2,1,-2,-2,-8,-11
611054049375,7,0,2,8,2,0,0,-1
611054049375,-3,1,1,2,-2,0,9,12
611054050959,-7,-4,0,-8,4,2,-9,-18
611054050959,4,1,0,-4,1,-4,0,5
611054063701,-4,-3,-2,1,-2,-4,-2,0
611054063701,-4,-1,-3,-3,0,-4,-4,-12
611054070602,-4,-1,-2,3,-1,3,1,-1
611054070602,-2,1,0,2,0,0,-4,0
611054087249,-6,5,-5,-5,-3,-4,-3,4
611054087249,-7,3,-8,-7,-2,1,-4,-8
611054088585,-7,-3,2,6,-1,-1,-4,-14
611054088585,2,0,3,-2,-1,0,2,-2
611054100535,1,-2,-19,-11,-4,1,-2,-2
611054100535,-2,-2,1,3,0,0,-2,-8
611054109592,-1,-1,-4,-2,0,-3,-1,12
611054109592,2,-5,0,-3,3,2,0,5
611054123771,-1,-1,4,1,0,-5,1,-7
611054123771,0,-2,0,6,-1,-1,-3,-19
611054130613,0,-3,-3,2,0,0,-4,-18
611054130613,-1,0,-2,0,-1,2,0,3
611054146955,-3,-2,-1,-1,-2,1,-1,2
611054146955,-2,-3,-4,-6,-4,-4,-1,8
611054148559,-2,-2,5,0,2,0,-3,3
611054148559,2,-2,-2,-5,-1,-3,0,5
611054161069,0,-2,2,3,-1,-4,-2,5
611054161069,1,0,-1,-2,0,-6,-1,5
611054169550,-3,-1,1,1,-2,-2,-3,7
611054169550,2,0,-1,2,-1,-2,1,-2
611054183743,0,-4,-3,-3,-1,-2,0,-1
611054183743,-3,-3,-2,-4,-1,3,2,0
611054190641,-3,1,-1,-2,-1,-4,0,2
611054190641,3,1,-1,-4,-1,-4,-1,-3
611054206880,-2,-3,0,-2,1,0,1,-7
611054206880,2,-3,0,1,-4,-2,-1,-1
611054208457,2,-1,0,0,-2,-1,2,-3
611054208457,9,3,0,-9,7,3,1,4
611054220575,-11,-4,2,8,-7,-4,5,-2
611054220575,18,-1,3,11,-3,3,8,15
611054229630,9,1,-1,-17,5,3,-3,-10
611054229630,-39,-6,-9,7,-13,-5,-13,-29
611054243802,12,2,9,12,-2,0,-3,10
611054243802,7,5,7,1,12,2,9,33
611054258072,-21,-4,-5,10,-2,2,-9,49
611054258072,5,1,-25,-27,-3,-3,5,8
611054265996,-4,1,-9,-21,2,7,-6,-55
611054265996,-5,-5,4,10,-11,-3,-6,-67
611054274592,12,-1,13,21,-7,-4,6,-51
611054274592,-2,-4,15,42,-4,-4,-5,-36
611054280564,-9,-2,-11,2,-5,-4,-5,-1
611054280564,0,2,-9,-21,1,-5,3,46
611054289614,-3,2,-13,-26,3,1,6,21
611054289614,0,2,-2,-11,5,0,8,17
611054303736,-6,0,3,-6,3,2,-8,0
611054303736,5,0,1,-6,-6,-4,-19,-5
611054310603,-4,0,-1,11,1,0,62,8
611054310603,-5,-5,-9,-29,4,2,18,13
611054326952,11,0,7,-2,-1,-4,-30,3
611054326952,-10,-5,2,12,-3,-6,-39,-30
611054328527,0,-1,7,20,-9,-1,-51,-18
611054328527,8,1,-2,6,-3,2,-21,-8
611054340559,2,1,3,11,-2,0,12,12
611054340559,-2,1,-8,-6,-3,0,-6,10
611054349610,7,2,-3,-7,2,-1,9,1
611054349610,20,3,4,-3,3,3,2,14
611054363719,-9,-4,-2,-5,1,-1,-7,14
611054363719,-18,-7,-5,-8,-5,4,8,3
611054370655,5,-15,-10,-8,6,9,2,35
611054370655,44,-6,-20,-33,21,8,5,36
611054386277,-39,0,-10,-1,42,5,-13,-43
611054386277,-32,1,-7,14,34,-9,-11,-51
611054393124,-18,4,4,39,11,-15,-24,-61
611054393124,-5,-1,23,42,28,-19,-21,-10
611054400604,29,2,20,22,45,-19,8,15
611054400604,18,2,-7,-49,-19,-9,23,14
611054409570,-1,5,24,-2,-93,-10,4,30
611054409570,-2,-3,19,12,-128,-9,4,13
611054423834,8,-3,8,6,-115,5,10,-3
611054423834,-4,1,-2,-1,-51,5,7,-20
611054430612,10,1,-25,-30,1,7,-1,-9
611054430612,-9,12,-7,-2,30,14,6,-2
611054446271,-3,4,-4,-2,49,19,12,9
611054446271,1,3,-5,-5,47,11,3,23
611054453125,0,-7,-10,-22,50,5,0,3
611054453125,-15,-5,-2,-7,36,-9,2,-9
611054460599,-3,-11,-4,-1,13,-16,3,10
611054460599,4,0,-8,-10,11,-3,2,7
611054469585,-6,0,-12,-35,18,0,-3,-3
611054469585,-16,-5,-12,-31,21,5,0,-7
611054483791,2,-7,-5,-8,9,8,3,6
611054483791,-3,-10,3,-8,-2,2,1,4
611054490597,0,-1,8,26,4,0,-2,-3
611054490597,0,0,1,1,-4,1,-1,-2
611054506329,4,5,-8,-6,-21,-21,-5,0
611054506329,3,3,2,14,-13,-2,-2,0
611054513112,-2,0,-7,-15,-15,-1,-7,-2
611054513112,-2,0,-1,3,-9,10,-4,-4
611054520602,-1,1,-3,-4,-7,7,5,3
611054520602,-5,5,2,13,3,-1,-1,2
611054529614,0,2,-14,-27,9,-1,2,-1
611054529614,0,2,-2,-3,11,-2,1,-4
611054543827,0,3,0,5,1,0,2,-2
611054543827,2,1,-3,-9,-5,-4,1,1
611054550656,0,2,11,23,-4,0,-2,-2
611054550656,3,-1,17,42,-4,-10,-3,-3
611054566303,4,-3,5,14,-12,-6,-2,3
611054566303,8,-9,12,37,-11,-9,-1,-2
611054573038,6,-4,17,49,-12,-3,-5,-2
611054573038,2,-4,4,22,-11,-7,-5,-7
611054589480,5,0,17,38,-8,1,-4,-1
611054589480,-1,-2,9,40,-12,6,-1,1
611054591024,-2,1,-4,1,0,3,-5,0
611054591024,-14,3,-29,-50,18,7,5,3
611054603803,-5,1,-15,-47,3,0,2,2
611054603803,-7,3,-7,-26,21,1,0,-2
611054610577,-5,1,-12,-43,10,-9,-3,-3
611054610577,-5,-6,-5,-14,0,-13,-5,-6
611054626249,9,0,5,6,-13,-3,-1,3
611054626249,5,-1,11,35,-14,3,-2,0
611054633118,10,-4,23,57,-16,-1,-2,-1
611054633118,6,-1,10,35,-20,-11,-5,-4
611054649508,-2,-4,2,19,-4,6,-1,-1
611054649508,-1,0,-10,-14,-2,-6,-5,-4
611054651017,-3,0,-2,0,16,6,6,3
611054651017,-2,-2,0,0,6,11,0,-1
611054663809,-8,-2,-19,-37,11,0,0,-6
611054663809,-1,0,-13,-51,-3,8,1,2
611054670622,-5,-2,-5,-21,8,5,2,-1
611054670622,-7,-1,-8,-15,3,-1,2,-2
611054686290,0,-1,-2,-7,1,2,2,1
611054686290,-3,0,5,8,7,-1,0,1
611054693098,-1,-3,-4,-15,-3,-10,-3,-1
611054693098,0,-2,-2,-2,-5,-10,-3,-1
611054709453,0,-2,5,6,0,-9,-2,-2
611054709453,2,0,1,4,-8,-9,-2,-1
611054711025,-5,-4,-3,2,-3,-4,-1,-2
611054711025,1,1,6,6,-5,-1,2,2
611054723814,-3,-5,-5,-6,-3,-3,-3,-4
611054723814,-2,-1,-3,-1,1,-2,-1,-3
611054730572,-1,-2,0,-3,2,3,-4,0
611054730572,3,0,0,-6,1,0,-5,-1
611054746302,-1,2,-2,2,8,-1,3,-1
611054746302,-1,-1,-11,-5,-2,-5,-1,1
611054753126,0,1,-8,-5,0,-2,0,-1
611054753126,0,-4,-16,0,-4,3,0,-3
611054769425,5,2,13,10,-2,0,-1,1
611054769425,-4,7,-3,0,1,2,-2,-5
611054771000,-4,12,-5,-15,1,-2,0,-7
611054771000,3,-1,26,12,-2,-1,-1,6
611054783849,-4,-16,12,5,0,-2,-2,-18
611054783849,-3,-12,8,3,-2,-1,0,-11
611054790657,0,-12,17,15,-1,-3,-2,6
611054790657,3,2,-4,-9,-9,-5,3,18
611054806368,-1,6,-4,-5,-4,3,3,23
611054806368,-9,0,-7,-5,3,-5,-2,1
611054813140,5,5,3,-1,-7,1,1,-14
611054813140,-7,-1,-12,-6,4,7,-2,-28
611054829493,-12,4,-31,-16,-7,-7,-9,-20
611054829493,5,5,5,15,9,5,3,-13
611054831037,-12,-8,-30,-9,13,-3,-30,-18
611054831037,-15,0,-14,-24,16,2,-53,42
611054843076,0,-7,6,-22,-1,-2,-29,1
611054843076,22,-4,6,11,-5,4,92,9
611054852116,19,-6,-17,-22,-10,-1,61,0
611054852116,-9,-3,11,12,-6,0,40,-30
611054866337,-8,-1,9,16,-7,-4,-3,-8
611054866337,-18,1,16,30,3,-3,-28,9
611054873111,-6,1,11,11,-4,-2,10,18
611054873111,9,2,27,35,-18,-4,3,10
611054889370,1,2,2,32,-6,-5,-16,-6
611054889370,1,-7,-18,-14,-1,-4,-26,-15
611054891061,8,-6,-2,-6,-4,-4,-28,9
611054891061,7,-3,-5,13,18,2,1,6
611054903107,-2,2,-16,-30,-7,3,7,8
611054903107,5,2,-6,-16,10,1,-33,22
611054912145,-7,1,-13,-44,-13,-2,47,8
611054912145,2,4,-2,5,-1,-3,18,-3
611054926382,5,3,8,19,16,4,14,-1
611054926382,1,0,6,9,-5,3,-25,-6
611054933127,-8,2,0,11,8,8,-36,-9
611054933127,-35,5,-53,-75,92,108,34,-98
611054949516,49,26,-123,73,125,126,67,105
611054949516,96,-78,49,79,127,-38,104,107
611054951029,-30,73,-103,-69,-81,13,-104,122
611054951029,-62,56,116,-86,-80,-83,-75,-60
611054963100,-128,-88,25,-110,81,-115,-38,-120
611054963100,-128,47,-128,0,-112,127,69,-128
611054972128,2,67,127,127,38,84,127,-71
611054972128,-5,-98,-119,117,87,36,127,-32
611054986264,54,23,74,112,-128,-78,-118,-123
611054986264,123,22,-89,119,-67,-128,-128,-122
611054993103,97,37,-128,-58,-128,-119,-127,-128
611054993103,75,127,26,-84,-86,-14,-102,-97
611055009417,26,76,124,-118,23,-8,-5,-10
611055009417,79,-10,127,-128,30,-11,15,112
611055011021,-65,-42,127,-128,47,31,19,113
611055011021,-49,-126,69,-96,50,8,36,127
611055023137,-27,-92,7,-66,40,15,81,113
611055023137,-42,30,18,-17,16,14,8,65
611055032125,99,-81,-25,67,92,-38,16,28
611055032125,-9,-55,-13,80,37,-38,13,42
611055046404,-61,3,-16,103,-38,30,13,17
611055046404,-57,36,10,57,-11,61,-21,-20
611055053070,-40,15,14,70,41,25,5,-30
611055053070,31,27,-29,39,-33,-10,-3,-17
611055069443,40,48,-32,-20,-33,22,5,16
611055069443,-22,8,-7,-62,28,4,-5,6
611055071076,-16,-20,-12,-43,19,-17,6,-8
611055071076,19,23,-26,-27,-19,-9,-13,24
611055083143,4,17,-48,-48,6,8,9,115
611055083143,-6,-11,-17,-80,22,-8,3,-62
611055092082,-12,-15,-4,-4,-16,2,-6,-107
611055092082,11,25,-12,-9,-22,2,-16,-116
611055106317,13,2,-8,12,-3,-12,5,-108
611055106317,-11,-10,-7,48,-2,-14,3,-16
611055113067,-32,-1,2,57,2,11,-9,14
611055113067,13,-5,17,27,-8,7,-3,39
611055129518,32,-17,19,-50,-17,-10,-2,25
611055129518,9,-22,22,-43,-16,-8,-13,38
611055131069,-13,-8,15,24,17,10,2,30
611055131069,-13,13,-2,127,25,-54,1,41
611055143078,-9,4,-39,127,14,4,9,-1
611055143078,-10,9,-10,-80,11,11,-4,0
611055152093,-6,7,-10,-106,-10,-7,-5,0
611055152093,9,6,-11,-128,-28,17,-3,7
611055166272,13,4,-16,-128,-25,14,-5,-17
611055166272,-21,-3,6,-101,-12,-8,-7,-29
611055173160,-1,-4,20,-59,0,1,5,17
611055173160,0,6,-5,3,16,-27,-6,9
611055189518,0,7,-18,103,10,-44,8,-18
611055189518,-7,-1,-9,127,14,-37,0,8
611055191111,-45,-5,-4,105,12,-40,11,19
611055191111,-4,-1,8,55,4,12,-12,-26
611055212096,7,-2,18,12,11,25,11,-2
611055212096,27,-13,-1,20,2,33,-5,-1
611055213529,33,-7,-8,40,-10,21,-6,-4
611055213529,-1,-6,-7,121,-15,8,-4,6
611055226059,-20,9,-14,127,12,1,11,16
611055226059,-18,6,47,-33,15,-10,7,8
611055234559,-15,1,19,-93,2,-21,-10,-11
611055234559,21,-10,-5,-128,-12,12,-3,-8
611055249453,16,-9,6,-128,-38,4,-16,-46
611055249453,3,5,-35,-68,-32,-9,-6,6
611055251003,-8,0,-11,-89,-17,-7,-1,10
611055251003,-5,-5,-27,-83,-9,14,0,24
611055263180,0,2,-21,4,6,-5,1,-3
611055263180,-6,2,-13,97,20,15,3,-15
611055272101,-2,-3,-3,127,18,8,2,-14
611055272101,-16,5,9,127,4,2,6,-1
611055286331,-28,-1,17,91,9,11,6,-9
611055286331,16,-7,27,38,-7,3,-4,6
611055300571,49,10,14,13,2,2,3,33
611055300571,56,0,24,6,-1,-7,-2,24
611055309411,-5,-1,3,10,-19,-13,-17,13
611055309411,-26,-9,-1,26,-10,-9,7,48
611055311021,-29,-6,10,27,-1,-4,-14,-83
611055311021,0,4,-34,22,-15,5,4,-40
611055323221,70,-2,81,3,-29,6,-6,-37
611055323221,-2,-4,97,74,-19,11,-3,-24
611055332113,7,-7,86,74,-31,-2,-18,10
611055332113,-11,-6,53,99,-21,-6,-12,0
611055347096,-11,-18,-40,108,-58,4,-34,-39
611055347096,19,-21,13,121,-103,4,-57,-22
611055353120,47,90,-92,-44,68,-30,86,105
611055353120,-91,113,-103,-104,98,24,99,-17
611055368141,-109,-48,88,-128,101,-21,-6,127
611055368141,-50,119,-118,-128,98,-103,-10,71
611055375625,56,-86,-60,114,-117,96,-114,17
611055375625,122,-54,110,112,-124,-28,-93,2
611055391336,115,-30,70,127,-94,23,-23,-54
611055391336,42,-69,127,127,-96,25,-23,-34
611055392067,23,-7,127,93,-23,-28,-4,-18
611055392067,28,-7,19,76,-10,14,2,-4
611055407119,2,-9,-17,47,-32,16,-7,-36
611055407119,11,-17,-4,10,17,-5,11,-16
611055413102,-24,7,-45,-48,15,-13,14,-42
611055413102,-2,-32,127,-33,22,4,17,14
611055436238,-29,18,71,-68,30,-11,8,9
611055436238,3,3,-5,-73,25,3,21,-8
611055437040,-11,-10,-76,-33,1,7,9,-12
611055437040,-31,-21,-112,-6,-11,-13,-16,8
611055451245,6,24,-98,-16,5,-18,2,3
611055451245,13,7,-76,-16,14,27,9,-11
611055452024,-17,-19,9,-15,7,-6,-6,-15
611055452024,-10,-5,15,-45,4,-14,-12,0
611055467093,8,17,1,-14,20,-9,14,4
611055467093,13,-18,41,-10,10,13,11,6
611055473022,-16,-1,-20,-8,13,-8,9,5
611055473022,3,-1,-28,-11,-3,-10,-4,4
611055488098,8,9,-27,-36,18,-1,17,-2
611055488098,-16,-11,-14,-33,2,2,-11,-20
611055495566,-21,5,-10,-35,-11,-9,-3,-24
611055495566,-8,0,-5,11,7,4,-4,-5
611055511321,8,-7,-31,6,-11,-1,-7,-21
611055511321,8,-2,16,16,-6,5,0,21
611055512067,-10,-1,38,21,-1,4,-2,-4
611055512067,1,3,30,0,-4,-2,0,15
611055527087,-21,-5,28,-9,-11,-2,-4,-9
611055527087,-6,3,-13,-36,1,6,4,-21
611055533067,-7,-2,-14,-31,2,11,-5,-33
611055533067,-7,-7,-14,-19,-4,-2,-2,-12
611055548051,9,7,-34,8,-7,-3,-3,25
611055548051,4,1,-24,9,-8,7,-12,10
611055555623,-4,-5,20,-4,3,-5,2,37
611055555623,-10,-1,15,-5,16,-6,7,10
611055571296,-12,-1,-34,-8,-14,11,-1,-14
611055571296,-3,-6,-29,6,5,-30,6,-15
611055572085,12,-3,-39,-4,-2,75,-4,-23
611055572085,-8,3,-53,12,7,21,-1,-21
611055593717,3,0,-26,15,-16,12,-5,-24
611055593717,4,0,45,55,14,-10,17,13
611055594560,-5,-6,66,16,3,-24,-5,32
611055594560,7,2,58,11,-12,-7,-1,38
611055609655,1,3,52,13,8,0,9,24
611055609655,4,4,7,-20,5,8,-1,-10
611055615599,8,0,13,-4,3,-14,4,14
611055615599,6,-3,-3,-19,-11,0,2,13
611055631267,12,2,2,-10,13,-14,18,27
611055631267,2,-4,-26,-40,-7,18,65,-35
611055632094,16,1,-2,-13,9,2,6,-51
611055632094,-12,-1,25,24,9,-10,-22,-45
611055647140,-3,4,7,68,-9,1,-43,-29
611055647140,-10,0,-25,107,-30,9,-45,-20
611055653087,-5,9,-51,123,-25,15,-16,-18
611055653087,7,6,-59,48,-20,-38,-23,-24
611055668115,-19,-3,18,-92,-17,-8,-33,-16
611055668115,-42,-18,37,-76,66,-65,-23,4
611055675561,-35,-1,31,60,37,-17,4,107
611055675561,-12,13,-7,63,30,37,32,83
611055691328,23,0,4,35,40,33,50,-65
611055691328,13,-7,20,-59,-21,23,-16,-87
611055692016,-4,-28,71,-128,-70,6,-49,-112
611055692016,-13,-21,33,-128,-76,10,-57,-66
611055707569,5,16,-13,-84,-52,-6,-44,-29
611055707569,15,50,-53,-54,-18,20,-8,-31
611055713129,8,43,-78,112,56,-23,35,3
611055713129,1,-1,-38,107,19,-4,46,38
611055728180,-2,-44,0,-26,26,-19,42,44
611055728180,8,-51,12,-66,29,11,9,52
611055735615,8,-19,10,-128,-16,-7,3,32
611055735615,-3,-4,-5,-68,-2,0,11,10
611055751252,-9,-12,-30,79,-4,13,12,17
611055751252,-5,-2,-21,92,-38,17,9,26
611055752045,-2,3,-27,-15,-5,-4,14,2
611055752045,-3,1,-30,-52,26,-6,4,-22
611055767069,-7,17,-10,-21,29,-4,0,10
611055767069,16,12,66,114,-52,9,-28,-11
611055773139,14,1,96,100,-47,-6,-22,-32
611055773139,13,6,65,103,-17,1,-17,-16
611055788060,-1,6,18,73,3,-15,-5,23
611055788060,-8,0,-24,-2,17,-7,5,19
611055795639,-4,-1,-27,-19,11,0,2,-1
611055795639,-2,-4,-12,-29,23,3,0,-6
611055811264,-4,3,-21,-31,22,6,1,-3
611055811264,-4,0,-44,-92,7,4,3,5
611055812063,1,-5,-5,-33,24,4,10,2
611055812063,-2,-3,-2,-42,2,9,3,0
611055827169,-3,1,-2,-3,1,0,0,-5
611055827169,2,1,4,9,4,4,-4,4
611055833133,-1,-1,-5,-26,-11,1,-4,-1
611055833133,3,0,1,-11,-3,-2,-2,-5
611055848136,0,-2,12,16,-17,2,-2,-8
611055848136,-3,-1,-6,30,1,-3,6,7
611055855526,-5,-1,-5,9,6,-10,3,1
611055855526,0,-6,12,-4,-12,-10,-2,-12
611055871269,2,5,9,-32,-40,-7,-10,-8
611055871269,2,3,23,41,-4,-8,-8,-3
611055872079,0,4,-9,7,1,-8,1,-3
611055872079,2,2,10,23,-16,-8,-12,-10
611055887153,3,0,18,53,-11,1,-8,-5
611055887153,2,3,6,17,23,5,-2,1
611055893005,-2,2,-2,45,15,4,0,-5
611055893005,-2,5,-17,-17,19,8,4,-4
611055908114,-11,7,-60,-39,34,-2,10,-3
611055908114,-10,9,-56,-93,14,-2,9,-99
611055915671,-13,3,-30,-96,34,5,5,25
611055915671,-14,6,-61,-128,14,17,11,44
611055931269,-12,-29,-53,-120,-6,19,11,79
611055931269,-8,-66,-28,-82,-13,14,7,72
611055932108,5,-72,-19,-84,-3,13,9,13
611055932108,1,-35,21,-36,-5,1,4,-20
611055947099,15,5,39,39,7,-2,-5,-26
611055947099,-8,32,38,44,-9,-7,-7,-12
611055953118,-7,22,52,57,-24,-13,-13,-32
611055953118,1,20,39,98,-8,-18,-8,-5
611055968114,4,23,62,110,-13,-12,-12,-30
611055968114,11,9,35,89,-17,-5,-5,5
611055975621,32,10,15,69,-18,-5,-6,4
611055975621,29,0,1,50,-9,-1,-9,-9
611055991292,54,-2,1,29,-8,-4,-3,-7
611055991292,-14,-3,4,24,-9,2,0,10
611055992091,-52,7,0,32,-2,1,-5,-6
611055992091,-46,2,11,18,-17,-4,-5,-10
611056007128,-29,-2,13,23,-4,5,-2,-8
611056007128,4,0,5,-15,-27,-4,-6,2
611056013116,-4,-1,-16,5,10,2,1,-21
611056013116,-2,-8,-17,-9,10,-2,-10,-9
611056028140,-4,-8,-11,-13,12,1,2,20
611056028140,11,1,-15,-4,16,3,2,38
611056035585,13,0,-23,-33,0,-4,3,25
611056035585,11,0,-3,-17,-4,-3,-5,3
611056051218,-7,3,-13,-20,4,-4,2,-14
611056051218,1,7,-17,-29,7,2,9,-16
611056051995,5,5,-1,-20,-4,4,16,-12
611056051995,7,-2,-1,-1,7,7,10,-4
611056067615,-1,-1,-2,-10,8,4,-40,-5
611056067615,-6,-5,-4,-1,6,3,-17,2
611056073175,7,-1,-1,-11,-1,-2,21,2
611056073175,3,0,6,4,-2,-1,27,-1
611056088105,-6,-3,-3,-10,-6,-2,31,-1
611056088105,2,1,5,15,5,-4,11,-1
611056095641,1,2,-5,-12,3,0,-13,-4
611056095641,-3,-1,-11,-8,3,0,-16,-6
611056111274,-2,-2,3,-8,-1,3,-11,0
611056111274,-5,-4,-4,10,4,0,-11,1
611056112075,0,-3,-12,-28,-11,-3,-3,-2
611056112075,-5,0,-15,-32,-3,-5,9,-91
611056127080,-1,0,-3,-13,-4,-9,5,-43
611056127080,-8,3,9,7,-3,-5,16,40
611056133098,-6,3,16,32,0,4,8,75
611056133098,6,3,11,22,-2,6,-11,94
611056148124,2,1,3,13,-2,9,-1,43
611056148124,7,-2,5,13,-2,4,0,-5
611056155600,-1,-3,-7,-18,-15,-1,-11,-2
611056155600,-7,-3,-5,3,4,-2,-6,-14
611056171257,-8,-2,-7,-12,1,-8,-4,-18
611056171257,-9,-1,-12,-22,11,-3,-3,-17
611056172058,-3,-3,-17,-44,0,-5,-9,-27
611056172058,0,-1,-3,-15,-6,2,-4,-8
611056187120,0,0,-5,-1,6,-2,7,-3
611056187120,1,-4,1,-15,-18,-3,-4,-4
611056193114,3,4,3,19,5,-2,-5,-16
611056193114,-1,-2,8,18,0,-4,5,1
611056209567,-3,-3,-2,4,-4,-2,3,4
611056209567,1,4,3,-6,-2,0,0,-8
611056215601,-3,-3,3,14,12,-1,1,-7
611056215601,-2,1,-4,-7,-5,-3,3,8
611056231269,-1,-3,-1,-10,-1,0,2,6
611056231269,0,0,-1,-10,-14,0,-5,-8
611056232038,-2,0,-45,-1,12,13,-6,-23
611056232038,-29,4,-109,-98,58,76,-53,-77
611056247073,105,-3,-128,-128,115,-13,105,92
611056247073,100,19,-128,-128,-60,-92,58,107
611056253049,-70,53,-57,-105,112,-24,-78,127
611056253049,-98,-83,94,-2,18,30,-35,2
611056269571,-128,-55,114,104,-102,47,-80,-122
611056269571,-51,-30,127,127,-85,70,10,-100
611056275645,57,85,30,127,-128,-1,32,-60
611056275645,39,127,-76,117,-39,-58,-83,-81
611056290618,18,6,-97,113,41,6,-93,-106
611056290618,29,-97,-14,72,10,-34,-75,-128
611056298131,45,-108,62,-97,-82,-16,-39,-128
611056298131,45,-47,54,-128,-65,-19,46,7
611056307137,22,29,26,-128,-49,-30,48,88
611056307137,-24,63,-56,23,51,18,19,106
611056313126,-23,-7,-86,32,84,27,51,76
611056313126,-2,-48,-66,22,78,-1,51,76
611056328123,-3,-11,-17,34,17,-11,14,38
611056328123,-24,5,-7,-25,49,15,-11,47
611056335610,-9,0,11,12,10,7,10,13
611056335610,17,18,14,66,-24,-8,21,28
611056350673,-2,11,10,56,-12,0,-7,9
611056350673,-8,9,6,20,10,41,-4,-1
611056358180,3,-1,18,32,-5,28,3,-25
611056358180,-2,-5,-8,-6,-7,-5,-5,7
611056367115,2,-2,3,-21,-2,-12,-4,0
611056367115,-5,6,0,-29,-11,-33,-5,-1
611056373191,-1,-8,-17,-21,-5,-45,-1,-14
611056373191,-1,-7,-20,-42,15,9,8,17
611056388172,-6,7,-3,-51,-8,16,5,0
611056388172,-14,5,-33,-63,13,6,-2,-14
611056395571,-2,-9,-22,-19,16,-2,3,5
611056395571,-1,-2,-20,-24,8,-5,15,11
611056410687,2,2,-7,-36,-2,-25,-1,-6
611056410687,-8,-4,-6,-62,6,-7,-7,-5
611056418072,-7,-12,-10,-44,3,4,-10,-10
611056418072,-1,2,12,-35,-10,-14,1,-4
611056427160,0,-5,-8,76,-10,4,-3,-10
611056427160,-5,0,-12,109,14,-20,4,-7
611056433120,-9,-4,-37,127,40,21,15,-16
611056433120,4,3,9,-33,3,-1,0,-5
611056448137,2,-11,39,-122,-20,-5,-15,14
611056448137,0,-2,32,-128,-29,-1,-13,16
611056455665,7,3,49,-128,-47,-18,-15,19
611056455665,0,-3,1,-101,-30,-4,-9,6
611056470639,-1,-1,-8,-119,1,12,3,-4
611056470639,-4,2,0,-86,5,8,2,-6
611056478124,-3,-7,-13,1,9,-11,-1,-9
611056478124,0,0,-14,115,5,-10,6,-1
611056493771,-7,6,-19,127,16,2,3,-12
611056493771,-3,0,-16,127,8,5,-1,-13
611056494614,-2,-1,-3,115,5,25,1,0
611056494614,-12,0,9,83,0,0,-6,-16
611056508151,10,0,4,46,-8,-1,3,11
611056508151,-1,-5,4,24,-3,5,-5,6
611056515604,-2,-9,12,-17,-1,-1,-4,-14
611056515604,6,-4,5,-10,-20,-2,-1,8
611056530573,0,-7,-4,-1,2,-7,-1,-1
611056530573,-10,-3,-10,-17,6,-2,-8,-18
611056538094,-2,1,7,-19,2,-7,-2,9
611056538094,3,-1,6,-3,1,-7,1,5
611056553749,-4,2,3,-3,-1,0,-4,4
611056553749,1,-6,-1,-22,8,1,6,9
611056554505,3,1,1,-21,-8,-3,-2,-9
611056554505,2,2,-4,-8,-3,1,-4,-13
611056569606,-2,3,-5,-13,-4,-6,-1,-14
611056569606,1,3,9,2,-4,1,-3,-10
611056575577,0,3,6,4,-6,-2,1,-4
611056575577,1,-6,-2,-3,-4,5,0,6
611056590621,-1,-3,-2,-3,-9,2,-2,4
611056590621,1,5,-4,-4,3,1,1,3
611056598133,2,-30,4,-15,-7,11,1,14
611056598133,2,-3,9,-5,1,-1,0,9
611056622012,-2,4,7,-1,6,-16,0,0
611056622012,1,5,0,3,10,1,-1,-1
611056622776,-3,12,-3,-2,6,-4,-2,2
611056622776,-1,4,-6,11,-5,6,-3,-8
611056628141,3,1,-5,6,1,9,3,13
611056628141,-15,2,-7,4,-12,-7,-9,-20
611056635640,5,5,-6,1,2,-9,7,3
611056635640,-7,3,4,19,-10,-3,-11,-25
611056650643,2,3,-3,9,-4,1,3,10
611056650643,2,-3,4,6,4,5,0,1
611056658143,2,5,1,-1,-6,-3,-1,-4
611056658143,0,1,-3,-6,4,-6,3,3
611056673726,-3,-3,-3,-4,-2,-5,-2,-11
611056673726,3,-1,0,-3,2,2,4,2
611056674532,-5,0,-6,-5,-3,-2,-4,0
611056674532,3,-2,-7,-10,3,-2,-1,8
611056688154,1,0,2,-2,2,2,0,2
611056688154,5,-1,-5,-7,0,-3,7,9
611056695677,-4,4,0,-5,3,-2,1,2
611056695677,-1,-1,-6,-8,2,-4,3,6
611056710712,-1,2,-3,-7,-2,5,1,-5
611056710712,-1,-1,-6,-11,-4,0,-5,-4
611056718120,-1,3,-2,-5,-2,-4,-4,-4
611056718120,0,-1,2,0,-1,0,5,0
611056733792,1,-2,5,18,-9,-3,-9,-8
611056733792,2,-2,6,22,-1,1,0,0
611056734615,-6,5,-6,-7,-1,2,-2,-8
611056734615,2,-2,-2,-1,6,3,3,-2
611056748111,-4,-1,-12,-18,6,-3,6,-86
611056748111,-5,-5,-5,-9,3,-3,-8,-12
611056755575,5,-3,-2,-1,1,-2,-4,93
611056755575,-2,5,5,-3,2,-4,-7,38
611056770593,-6,-4,1,2,-2,2,0,33
611056770593,7,0,-2,-4,5,1,4,-16
611056778043,-3,1,-23,-36,11,2,12,-27
611056778043,-6,-7,-8,-28,6,0,1,25
611056793702,13,2,10,15,-7,-7,-3,17
611056793702,4,1,12,25,-13,-2,5,0
611056794471,2,-5,25,60,-28,0,-12,-27
611056794471,3,-3,21,58,-21,3,-11,-21
611056808026,6,3,8,30,-6,2,-6,-3
611056808026,-5,-5,5,21,0,2,1,8
611056823777,-3,0,-11,-9,4,-6,-1,-26
611056823777,-5,-1,-15,-17,5,0,0,-45
611056830633,-10,-3,-13,-23,10,2,-1,-33
611056830633,-6,9,-15,-33,3,0,1,93
611056838162,-5,-1,-3,-19,8,1,6,20
611056838162,2,0,2,-20,-5,-4,1,30
611056853839,-12,0,5,0,6,-3,-17,-23
611056853839,10,-9,2,19,12,-6,-4,-25
611056854592,7,-1,-19,0,-44,-4,-1,-40
611056854592,11,3,24,22,0,-3,11,-13
611056868125,-1,-3,13,27,0,-1,11,21
611056868125,-3,-1,-1,65,2,2,-7,-14
611056875632,-20,8,-42,120,45,-4,-7,14
611056875632,-5,-1,-42,-2,19,-3,20,16
611056890682,4,-7,13,-92,-24,1,7,24
611056890682,14,-5,47,-128,-37,-2,-3,-1
611056898077,18,-4,53,-128,-37,-3,-11,-3
611056898077,0,4,14,-67,-18,2,-18,-14
611056913850,-6,2,-11,24,7,-3,-4,8
611056913850,-9,2,-22,74,5,-4,3,-19
611056914552,-7,1,-14,127,17,3,4,-1
611056914552,-13,1,-20,114,19,-3,-6,-17
611056928126,5,2,-19,66,18,6,1,18
611056928126,1,-2,-25,39,8,1,7,14
611056935718,-4,5,-9,-2,4,1,-13,-20
611056935718,-2,3,1,-8,2,-5,3,5
611056952112,7,0,1,-4,-9,-6,-10,-13
611056952112,17,13,-1,-7,13,0,5,6
611056958151,-21,-6,19,6,-21,-9,-1,1
611056958151,10,-1,11,0,-9,9,4,2
611056973860,-1,1,-2,-1,2,-5,-4,0
611056973860,-11,-3,-4,-23,-7,2,-7,-12
611056974600,8,-4,1,-35,6,3,4,-1
611056974600,-6,1,-1,-11,-8,-2,-5,-3
611056988122,-8,-2,-2,-2,-3,1,4,5
611056988122,-2,-3,-6,-8,0,-5,-5,-7
611056995654,3,-6,2,-22,1,-4,4,-1
611056995654,2,-4,-2,-14,-8,0,-4,-2
611057010594,1,-1,-3,-3,2,-2,-2,0
611057010594,-7,-1,-1,-17,-18,1,-3,-4
611057018105,5,2,4,6,5,1,0,-1
611057018105,-1,-12,-6,-9,-5,33,-4,-3
611057041933,-4,-3,-6,-8,-4,8,3,0
611057041933,-7,3,1,10,4,0,-4,-6
611057042698,-1,-1,2,0,3,-7,1,4
611057042698,4,4,3,1,0,-8,1,1
611057048037,-1,-3,2,6,-2,0,0,1
611057048037,-3,-6,-4,0,-6,1,1,-5
611057055565,2,1,1,1,0,8,2,-3
611057055565,-3,3,0,7,0,-5,1,-2
611057070608,-3,0,-3,0,-4,-1,-1,2
611057070608,-4,0,-2,0,4,-5,-4,-6
611057078188,-1,-1,0,-6,2,3,1,0
611057078188,1,1,-1,3,1,-1,-3,-1
611057093826,-3,1,-3,-6,-3,-7,2,1
611057093826,-2,-2,-4,-3,0,-2,-1,1
611057094625,2,2,-1,-7,-1,2,-3,-2
611057094625,2,2,1,4,1,-4,-2,1
611057108197,-5,-2,-2,-1,1,2,3,-4
611057108197,1,-2,-5,-2,-2,1,-5,-3
611057115728,1,-3,2,1,1,7,-1,1
611057115728,-5,1,3,2,0,-7,-3,-3
611057130679,-1,-1,-2,-2,-2,2,-3,-2
611057130679,-2,0,-1,-2,0,1,1,-2
611057146319,-3,1,0,0,3,-3,-1,-2
611057146319,9,-2,-5,-13,-6,-2,6,11
611057153815,-15,-2,-3,-3,1,2,-14,-34
611057153815,13,0,4,4,-4,-2,4,13
611057154588,12,1,0,-3,7,-1,1,4
611057154588,-21,-5,-6,1,-9,-12,-2,-2
611057176317,18,-2,-1,9,-6,-6,6,18
611057176317,-5,-1,11,19,0,-4,-2,-16
611057177071,-2,0,3,8,-3,0,-5,-10
611057177071,6,1,-3,-7,-1,1,-4,3
611057190706,1,4,-4,-3,4,4,-1,5
611057190706,-3,-2,-1,-2,1,4,2,-3
611057198202,4,-2,0,3,7,2,3,10
611057198202,-2,-5,1,2,1,-1,-4,-13
611057213160,-6,-4,-3,-4,-6,-1,-4,1
611057213160,0,-2,-4,-17,-1,-1,-1,-4
611057221390,-6,-4,-8,-11,-7,-3,-5,-6
611057221390,1,-2,-1,-3,-3,-4,-2,1
611057228093,-2,-1,4,4,1,-3,1,-2
611057228093,-3,-4,-1,3,5,-6,2,5
611057235598,3,-5,-4,-5,-5,-1,4,2
611057235598,3,0,1,5,-2,2,-1,-2
611057250647,1,1,1,-2,5,4,4,5
611057250647,-8,-3,-4,-2,5,1,-1,-5
611057258180,0,-3,-2,-5,-3,1,-3,1
611057258180,2,3,0,-1,1,2,3,-1
611057273115,-3,-1,-1,-2,-2,0,-1,0
611057273115,-4,2,-1,0,-3,-2,-4,0
611057281263,-2,1,-3,-1,-1,-2,0,-3
611057281263,2,-7,-2,0,-2,-1,-4,-2
611057288127,1,0,0,2,1,0,0,-1
611057288127,-3,1,1,0,-2,-2,-1,5
611057295627,-5,-1,1,5,-4,-1,-1,-6
611057295627,0,-1,4,0,6,-1,4,8
611057310602,-9,-3,-7,2,-13,-7,-4,-6
611057310602,4,-1,-3,2,-1,3,2,2
611057318092,0,-1,1,1,1,-2,3,5
611057318092,3,1,-2,1,-5,-5,-7,-10
611057334606,3,-4,3,2,4,1,2,10
611057334606,-2,-4,-3,0,-3,0,0,1
611057349510,1,-2,-2,-1,-1,-6,-2,-3
611057349510,-7,-3,-2,3,3,3,4,-2
611057351049,1,-2,2,-1,2,-1,-2,3
611057351049,-2,0,-3,-5,-4,-1,-2,-8
611057355567,2,1,-1,-1,-2,0,2,1
611057355567,-3,0,0,0,-4,-3,-4,-2
611057370593,-3,-2,-2,-1,-1,-4,0,-1
611057370593,3,3,1,0,0,-2,-1,-1
611057378074,-3,-1,-3,-2,-1,-4,-1,0
611057378074,-6,-2,1,0,0,-1,1,-1
611057393153,-1,0,0,-2,1,-3,1,-4
611057393153,0,0,-5,-6,-4,-2,-6,0
611057401375,-4,0,1,-4,-2,1,-2,-1
611057401375,-1,3,-1,0,2,-2,-1,-3
611057416260,4,-1,-2,0,0,-2,1,2
611057416260,-3,-3,-1,3,0,-2,-4,-15
611057417099,-9,-2,-3,-2,0,-3,-7,-12
611057417099,8,-1,3,-2,9,3,2,11
611057430601,-12,-4,-6,-2,-1,-2,-1,-1
611057430601,-4,1,-6,1,-11,-1,-16,-34
611057438113,3,-1,1,1,1,1,2,6
611057438113,-3,1,-1,0,-3,-1,-3,-6
611057453085,8,5,3,-2,4,0,0,-1
611057453085,-1,0,0,-1,1,1,5,12
611057461330,-3,-3,-2,0,0,1,-2,-2
611057461330,2,1,-1,-2,0,1,0,-3
611057476247,1,0,-1,-1,-2,-1,-1,-1
611057476247,-4,-2,-1,1,0,1,1,8
611057477000,5,-1,0,2,1,-2,0,0
611057477000,-3,-2,-1,2,-3,-4,2,4
611057490656,-1,-1,-2,-1,-1,4,-1,-1
611057490656,0,0,0,-2,3,-1,-1,-5
611057498178,0,-2,-3,-1,0,2,1,3
611057498178,-3,-1,-2,1,-2,0,-5,0
611057513119,-5,0,2,-3,0,-3,-5,-9
611057513119,2,0,2,3,3,-1,4,16
611057521341,1,-1,-4,-3,-3,-1,-2,-1
611057521341,-6,1,-1,-1,-3,-5,-5,-10
611057536318,5,-1,-2,-1,-2,-2,-2,1
611057536318,-1,1,1,-5,1,-1,2,2
611057537049,-2,2,0,2,1,-2,0,0
611057537049,-2,1,-4,1,0,3,0,-3
611057550687,1,-1,-2,-7,-6,-3,-1,-2
611057550687,-1,-3,0,2,-1,-3,2,-1
611057558140,-1,-4,-4,1,-4,1,2,3
611057558140,0,-1,-3,-5,2,-2,-4,-4
611057573085,13,-3,1,3,0,-2,3,15
611057573085,-15,-1,-5,-2,-4,-4,-10,-30
611057581403,0,2,3,1,2,-1,3,6
611057581403,1,-4,-1,1,0,-5,0,2
611057596291,2,-3,2,-3,1,0,-3,-3
611057596291,1,-1,-2,-2,1,-4,2,9
611057597084,-1,-1,1,-1,1,-2,-2,-2
611057597084,1,-3,-2,-2,-1,1,-4,-5
611057610673,-5,-1,0,4,0,1,-2,-1
611057610673,1,-4,-1,2,1,0,1,6
611057618107,-3,-1,0,-2,-2,3,-5,-9
611057618107,3,3,-1,0,-2,-2,5,9
611057633135,-6,-1,-3,1,-2,-2,-1,-5
611057633135,1,-4,-2,0,-5,-1,-1,5
611057641249,4,-3,2,3,3,-3,1,3
611057641249,-1,-2,-1,-3,-3,-4,-4,-4
611057656263,-5,-1,2,-1,0,0,-1,-2
611057656263,5,-3,0,-2,0,-1,-1,1
611057657032,-4,2,-2,-2,-1,0,-1,2
611057657032,-2,-4,2,2,-2,-2,0,-6
611057670598,-6,-2,-5,2,1,-1,0,-4
611057670598,5,-1,2,-3,1,-2,1,5
611057678074,-3,-4,1,0,-1,-7,-5,0
611057678074,-2,0,-3,-3,-1,-2,2,2
611057693061,9,1,-1,-2,-1,1,3,2
611057693061,-9,0,-5,3,-2,-2,-1,1
611057701280,3,1,-2,-1,-2,-1,-1,-2
611057701280,-2,0,0,-1,-2,-1,-2,3
611057716286,-2,0,1,2,-2,1,-5,-3
611057716286,4,-2,2,-1,3,0,-1,2
611057717043,-6,-1,-3,-3,-3,-2,-3,-9
611057717043,-3,0,-2,-1,-2,-1,-2,-2
611057730522,1,0,-3,-1,0,0,-2,3
611057730522,-4,0,-1,-2,2,1,-3,-10
611057738046,1,-1,-2,-3,-4,2,0,1
611057738046,-4,2,-2,0,-3,-3,1,0
611057753071,-5,-1,-1,-2,-2,-1,2,0
611057753071,2,0,0,0,-1,2,1,4
611057761280,-3,1,0,4,2,3,-1,-3
611057761280,-1,-3,-2,-4,-1,1,-1,-2
611057776229,-1,-3,-2,-2,-3,-2,-1,-3
611057776229,-1,0,2,-1,0,1,-4,3
611057776999,-3,0,-1,-6,0,-2,-1,-2
611057776999,0,-2,2,3,2,3,2,6
611057790602,-5,-4,-4,-1,1,-2,-3,-6
611057790602,1,4,1,-3,-2,1,2,3
611057798071,0,-5,-2,0,0,-3,0,-3
611057798071,-1,-4,-1,-3,-2,-1,-3,-1
611057813056,2,1,-2,0,-1,-2,-5,-1
611057813056,-6,-2,-3,-1,-5,0,-1,-2
611057821307,2,5,-4,-3,3,-2,-2,1
611057821307,-2,1,-2,2,-2,-2,0,0
611057836316,-1,-1,1,1,5,2,1,3
611057836316,-12,-5,-5,-6,-5,-4,-2,-17
611057837113,-2,-4,-1,0,3,0,1,5
611057837113,2,-1,-1,-3,2,1,-1,-6
611057850604,1,4,-1,0,0,-1,6,2
611057850604,-2,3,-3,-2,1,-2,-7,-4
611057858168,2,0,0,-1,-1,-1,2,-2
611057858168,-3,-4,-1,3,-2,-3,-3,3
611057873260,-4,-1,-2,-2,-1,2,3,-2
611057873260,6,-2,0,-1,2,1,3,4
611057881355,-1,-3,-1,-4,-6,-1,-3,-1
611057881355,0,-2,-1,3,0,1,1,-2
611057896352,-1,-2,0,2,0,-2,-1,0
611057896352,1,1,-1,-3,-4,2,2,1
611057897110,-1,1,-1,1,-1,-2,3,1
611057897110,-1,-1,0,2,-1,-2,1,-1
611057910594,-4,0,-1,-4,-2,-2,-4,-4
611057910594,3,-3,0,3,0,-2,1,3
611057918168,-2,-3,0,0,0,0,0,-4
611057918168,1,-1,-2,-1,0,-2,-2,0
611057933168,-2,-3,-2,3,-5,-3,-1,-1
611057933168,0,-2,-2,2,4,-5,-1,0
611057948952,1,-1,-1,-2,-3,0,-2,-2
611057948952,3,1,0,0,-2,-2,-1,3
611057956316,-4,-2,-3,-3,0,-2,-3,-6
611057956316,2,0,0,0,-5,0,1,5
611057957135,-5,-2,-4,2,1,-3,-2,-2
611057957135,3,3,-1,-4,0,3,1,-3
611057970759,6,-5,0,3,-6,-6,-1,5
611057970759,5,-1,4,4,2,0,-2,4
611057978205,-4,-2,-2,-3,-2,-2,-5,-1
611057978205,-1,0,0,3,-3,1,-3,-4
611057993163,-1,-4,1,-4,-1,1,-3,-2
611057993163,2,-1,0,-2,1,-4,0,-2
611058001370,2,-1,-2,4,-4,-1,2,2
611058001370,-6,-3,-1,-3,3,-3,1,-2
611058016348,-5,2,0,-3,-3,1,-2,-3
611058016348,0,-3,-2,1,-1,-5,1,-4
611058017098,1,-2,-1,0,-1,1,-2,0
611058017098,1,-3,-2,-3,-2,-1,-5,-2
611058030601,1,4,-1,-3,-2,-1,2,2
611058030601,-1,-4,-1,-2,-3,-4,-1,-2
611058038114,3,2,0,4,1,0,0,0
611058038114,-1,-3,-1,3,1,-5,-2,-4
611058053089,-2,0,-7,-12,-8,0,-6,-5
611058053089,-1,-1,2,5,3,-1,-2,1
611058061329,1,-2,0,-1,0,-3,0,-3
611058061329,-1,-1,2,1,2,-3,0,3
611058076268,3,2,0,2,2,0,2,-2
611058076268,-4,-1,-4,-1,-6,-3,0,0
611058077024,0,-1,0,-1,-3,-1,-3,-3
611058077024,-2,0,0,-1,1,0,-2,-3
611058090558,0,-6,-3,1,-2,1,-1,0
611058090558,-14,0,-2,-3,-3,1,-3,-1
611058098053,1,-1,-2,-3,2,-6,-2,1
611058098053,0,-1,-3,-3,-3,0,2,1
611058113079,-1,-4,0,1,2,0,-1,-1
611058113079,2,2,0,1,0,1,-1,-3
611058121284,-4,0,-4,-2,-4,-1,1,-1
611058121284,-2,-2,2,0,-1,-1,-4,-2
611058135580,-2,-1,-3,2,0,0,-4,0
611058135580,6,0,0,0,-1,-3,0,3
611058143800,-2,-1,0,1,0,1,2,-3
611058143800,2,-2,0,-2,-1,-3,-2,-3
611058150584,-1,-2,1,2,0,3,2,-1
611058150584,-1,2,-1,-4,2,-3,-3,0
611058158099,-1,2,-4,-4,-3,-2,-3,-1
611058158099,-1,-4,-3,0,-3,2,1,-1
611058173136,-1,-1,1,-2,1,-7,-2,-4
611058173136,1,-4,-3,-2,0,0,1,-1
611058181284,-3,-1,-2,-1,-2,2,-2,-4
611058181284,-4,2,-2,-1,0,1,0,-3
611058195614,0,0,1,1,-1,1,2,1
611058195614,1,-3,0,-6,1,4,2,-1
611058203809,-3,1,-6,-2,-5,-2,-2,-4
611058203809,-10,-2,-6,-3,-4,-2,-1,-7
611058210589,-2,0,-2,-4,1,-1,-3,-5
611058210589,-2,1,-2,1,2,1,1,-5
611058218100,-1,-1,1,-2,1,-2,0,-1
611058218100,5,2,1,1,3,0,2,2
611058233109,-12,-1,-5,2,-5,-6,1,-1
611058233109,2,-1,1,0,1,-1,-3,0
611058241268,0,-1,1,0,2,-1,-1,2
611058241268,0,1,-4,-2,1,-1,-1,-2
611058255611,2,-1,-3,0,1,-4,-1,1
611058255611,0,1,0,3,-1,0,0,2
611058263761,-2,-4,1,0,0,2,3,0
611058263761,0,-2,-4,-2,-1,1,-1,-4
611058270645,6,0,4,1,1,-2,0,6
611058270645,-2,-1,-6,-2,-5,-2,-2,-4
611058278136,1,-1,1,1,2,-4,-2,0
611058278136,-2,0,-2,-1,-2,-4,-3,1
611058293099,1,-3,0,1,2,-5,-1,-3
611058293099,0,0,-2,-3,-3,-1,-2,-2
611058301075,3,-1,-1,2,1,-4,-2,4
611058301075,-3,0,-1,-1,-3,1,1,0
611058315685,1,-3,0,0,1,-1,1,-1
611058315685,-4,-1,-4,-3,-3,0,-5,-8
611058323879,2,-2,-3,1,-5,-3,2,12
611058323879,0,-3,2,1,0,-1,-2,-1
611058330712,-2,-6,-2,-1,-2,0,-1,1
611058330712,-8,-3,-2,-1,-3,-6,-5,-8
611058338170,-3,-2,0,1,-1,1,-3,1
611058338170,2,-1,0,-1,-3,-3,1,4
611058353147,-1,3,1,-1,-2,0,-4,-5
611058353147,-1,-3,1,0,1,-1,-1,3
611058361316,-1,-3,1,0,1,-1,-1,-6
611058361316,-3,-2,1,-1,-1,-2,2,-1
611058384575,2,-1,-3,-3,-3,-2,2,0
611058384575,1,-2,-3,-1,-3,0,-1,2
611058385334,-2,-1,-2,-2,-1,-1,-1,-5
611058385334,0,-2,-1,-1,-1,-4,-3,-2
611058398880,-1,-2,0,1,0,0,1,-2
611058398880,1,-1,2,2,1,-3,2,-2
611058399664,0,-1,2,-5,-3,-2,-3,-5
611058399664,-2,-5,0,1,1,-2,-2,-4
611058413100,0,3,0,-2,-1,1,-2,0
611058413100,-2,-5,-2,-2,0,-4,1,3
611058421383,0,-3,-1,2,-2,-2,-4,-3
611058421383,2,-2,0,-2,-1,1,-2,2
611058435710,0,-1,-1,2,-1,-3,0,6
611058435710,3,-2,3,-6,5,2,-2,-9
611058443875,-10,-5,-6,1,-11,-4,7,26
611058443875,6,0,2,6,-6,-2,-1,-7
611058458805,2,-1,-3,-2,0,-3,0,1
611058458805,-3,1,-1,-4,-6,-4,1,3
611058459579,1,-1,0,0,4,-2,-1,-6
611058459579,-1,-3,0,-2,1,1,-1,1
611058473085,-8,5,-3,-1,-6,0,-5,-8
611058473085,3,-1,-3,0,1,-3,0,2
611058481287,-2,0,-1,-4,-2,0,-3,-10
611058481287,-3,-2,-4,-1,0,-4,-2,1
611058495623,0,-4,0,-4,1,-2,-6,-6
611058495623,1,2,-2,1,-1,5,-4,3
611058503806,1,1,1,0,1,4,-2,-1
611058503806,-4,-2,-2,-3,-3,-2,-2,-9
611058518776,3,0,0,1,-2,0,4,3
611058518776,-3,-4,-3,0,-3,-1,-2,-5
611058519541,-1,0,1,2,1,-2,0,-1
611058519541,3,3,-3,-4,-2,-1,-2,0
611058533150,-3,0,-1,2,-2,0,-3,-2
611058533150,1,3,-1,-1,0,-2,-3,2
611058541260,1,2,0,-4,1,-2,-3,-4
611058541260,2,0,-1,-1,3,2,-1,0
611058555622,0,0,-1,0,-4,-1,1,-1
611058555622,-2,-1,1,1,1,1,1,0
611058563761,2,0,-3,-3,0,-3,-2,-2
611058563761,2,3,-1,-2,-2,-2,1,8
611058578805,-10,-6,-1,2,2,-3,1,-2
611058578805,10,-1,2,2,1,2,5,11
611058579583,-10,0,-5,-3,-5,-1,-5,-14
611058579583,1,1,-1,-1,0,1,-2,-2
611058593150,1,-2,4,1,3,1,-3,-2
611058593150,-2,-2,-4,-4,-5,-5,1,-1
611058601307,0,0,-1,-1,1,1,-1,-1
611058601307,-2,0,0,1,0,-2,1,4
611058615606,-2,-2,-3,-1,0,0,-6,-3
611058615606,0,0,1,0,-2,-1,-4,-1
611058623859,1,3,-1,-1,1,1,0,2
611058623859,-3,-2,0,0,-1,-1,1,-2
611058638791,1,2,-1,0,0,-3,3,0
611058638791,-1,-1,1,2,-2,-2,0,2
611058639637,3,-2,2,-2,-1,4,-2,-1
611058639637,-1,-3,-5,-5,0,-1,-3,1
611058653201,-8,-2,-5,4,-4,-5,-6,4
611058653201,2,-2,-2,-5,1,1,-1,-5
611058668868,5,0,0,0,-2,-2,0,3
611058668868,-2,-2,1,1,-3,3,-2,0
611058675691,1,1,-4,-3,1,2,1,-5
611058675691,-4,-1,0,1,-1,-6,2,-2
611058683895,-4,-2,-4,-4,1,3,-2,-3
611058683895,-2,-1,-1,1,-3,1,1,-2
611058698858,4,-1,-1,0,-1,0,-3,6
611058698858,-6,0,0,2,1,-2,-5,-6
611058699606,1,-3,1,0,1,-2,3,0
611058699606,-4,2,-5,1,-1,-2,-2,1
611058713235,3,0,1,-3,-4,0,1,-8
611058713235,-3,-4,-4,-3,-4,-4,-1,0
611058721386,-2,1,0,1,-3,-4,-4,1
611058721386,-2,-2,-3,-1,2,-4,-3,-3
611058735676,1,3,1,-1,1,0,1,1
611058735676,5,1,-1,-1,2,0,-4,8
611058743916,-12,-2,-2,-1,-5,-5,-4,-11
611058743916,3,1,-1,1,0,0,3,2
611058758861,4,-1,0,-2,2,0,-1,-6
611058758861,2,0,0,1,-1,-1,-2,2
611058759612,0,2,-1,0,2,-4,0,1
611058759612,-2,-2,0,0,-2,0,-3,2
611058782085,-5,0,1,-1,-4,0,-1,-4
611058782085,-3,0,0,3,-2,5,0,1
611058782843,4,-3,0,0,-1,-5,-2,2
611058782843,-2,-1,1,-1,-1,-5,-2,-6
611058795670,0,2,-1,0,0,3,2,2
611058795670,-2,-3,-2,0,-7,-5,-2,2
611058803851,2,-3,-2,-1,-3,-2,0,-2
611058803851,-3,-1,3,2,-2,3,-3,1
611058818783,0,-3,1,3,-5,-4,0,4
611058818783,-3,0,-2,-3,3,-2,-1,-6
611058819577,-5,-5,0,-3,1,-1,-2,-3
611058819577,6,-3,-5,-2,-3,-4,-1,2
611058833102,-7,0,-5,0,-4,-4,-2,-10
611058833102,1,-2,-3,-2,2,2,-1,-4
611058841279,5,-2,0,3,0,0,2,5
611058841279,4,-3,1,-1,1,-3,1,-5
611058855617,-4,2,-1,-1,0,0,1,2
611058855617,-1,0,0,1,-4,-3,-2,-3
611058871325,-2,1,-2,0,1,-1,-2,-1
611058871325,-6,1,-1,-2,-3,-2,0,-3
611058887008,4,-3,-3,-1,1,-1,0,6
611058887008,-6,1,-1,-1,0,0,-3,-10
611058887749,-1,-1,0,-2,2,0,1,-2
611058887749,-6,-1,0,1,-2,-2,-2,3
611058893082,3,3,2,-2,2,1,-1,2
611058893082,-1,-3,-4,-1,-2,-3,-3,-2
611058901345,-2,2,-7,-6,-5,1,-3,-9
611058901345,-2,-1,2,-3,3,-4,-2,-1
611058915625,-1,-6,0,-3,-2,-1,-1,-7
611058915625,-1,-1,1,-2,-1,-1,-1,1
611058923863,1,-1,-2,0,-1,1,-1,4
611058923863,-3,0,-1,0,-3,4,-1,0
611058938776,-2,0,0,-4,0,0,-3,1
611058938776,0,0,-3,1,0,-2,3,0
611058939535,-2,-2,-2,-1,-3,-1,-2,-3
611058939535,-2,1,-2,0,-1,3,-1,-5
611058953138,-5,-3,-5,4,-1,1,-1,-2
611058953138,-1,-1,-3,-3,-2,-2,0,-1
611058962120,2,4,-2,-3,1,0,-4,1
611058962120,2,1,0,-1,1,1,1,2
611058975704,-2,-3,-2,-2,-2,-1,-2,-7
611058975704,1,2,1,-1,1,-2,-1,2
