timestamp,emg1,emg2,emg3,emg4,emg5,emg6,emg7,emg8
152168846641,2,-1,-2,-6,-5,-2,0,-1
152168846641,-2,2,-1,2,2,0,-1,2
152168852946,0,-2,0,5,2,-1,0,1
152168852946,-1,-6,-3,-4,-2,-7,-1,-6
152168853776,-4,0,-1,3,0,3,-3,1
152168853776,-3,1,-3,-1,3,-2,-1,-2
152168854542,-3,0,2,-4,-2,-5,-1,-4
152168854542,-1,2,-5,7,-1,-3,6,-3
152168858782,-4,-2,2,0,-2,-2,-2,-1
152168858782,-3,-6,-5,-9,-5,2,2,-3
152168873759,-1,-1,-1,-6,2,0,-6,-3
152168873759,0,-4,-3,-5,-2,1,-2,3
152168880155,2,-2,-5,-11,2,-4,-5,-1
152168880155,-1,-1,5,1,0,-2,-3,-3
152168891585,-3,-2,-1,12,-2,2,-2,0
152168891585,-2,-1,-2,-2,0,-2,0,2
152168903799,-4,-2,0,-3,0,-2,4,2
152168903799,-2,-7,-2,-13,-3,1,-5,-8
152168911625,2,-2,-2,-6,0,-1,-5,-4
152168911625,2,0,0,-1,1,2,-2,2
152168918744,-4,-3,-4,-4,0,-1,0,-2
152168918744,-2,-1,-2,-11,-3,-6,-1,-1
152168933746,0,-4,-8,-11,0,0,-5,1
152168933746,1,-2,1,-4,-2,1,-2,2
152168963915,-2,-1,-5,6,-1,-1,-3,0
152168963915,-1,-1,-2,-2,4,2,3,-3
152168972718,-3,-1,-1,-8,-2,0,-3,1
152168972718,-3,0,-3,-5,1,-3,0,-4
152168973510,0,2,-1,-5,1,-2,-3,-6
152168973510,-2,-4,-1,-18,-4,-2,-4,-3
152168974313,-1,-2,-2,0,-1,-1,-6,-1
152168974313,4,-3,1,1,0,0,-3,4
152168985655,-5,2,1,-13,-3,-4,-1,-2
152168985655,-1,1,0,-2,-5,0,3,-1
152168992410,-1,0,-2,-1,0,-5,-4,-3
152168992410,-2,-2,-1,-8,0,-2,-3,-2
152168999944,0,-1,0,5,-6,-1,0,-1
152168999944,1,-1,-1,-2,6,-2,-3,1
152169014865,-2,-2,1,4,-1,-5,-1,-1
152169014865,1,4,0,-6,0,-4,-6,-2
152169022412,3,-2,-4,-1,-2,-1,-6,1
152169022412,-2,-2,0,0,1,-7,1,-2
152169038865,2,-4,-1,-4,-1,7,5,-1
152169038865,-3,-3,-1,2,-2,-4,-1,-3
152169045595,-3,-1,-1,8,5,2,3,-1
152169045595,2,1,-1,4,-3,0,-3,-2
152169052457,-1,1,4,6,1,-4,0,-1
152169052457,0,0,-2,1,-4,-1,3,-1
152169059991,-1,-4,0,-4,1,-2,1,-3
152169059991,-3,5,-1,4,-2,0,-7,0
152169074877,1,1,1,0,-1,-2,-1,-8
152169074877,-2,3,-2,0,0,-1,-4,-1
152169082363,3,1,-1,-1,1,-4,2,-2
152169082363,1,0,1,19,-2,0,3,0
152169091421,0,2,-4,10,2,-1,-3,-1
152169091421,-2,0,0,6,-1,1,1,4
152169105625,-1,0,2,-3,0,0,-5,-2
152169105625,-2,-1,1,4,-3,0,-2,-2
152169112406,2,-2,-2,-5,0,-1,0,1
152169112406,-5,-2,2,3,-2,0,3,-1
152169119907,1,-1,-4,8,-2,0,1,0
152169119907,-1,0,-3,0,-1,2,1,2
152169134875,-2,2,0,9,0,4,-1,1
152169134875,0,1,-3,1,-4,1,-1,-1
152169142407,1,-2,2,8,3,2,-2,3
152169142407,-4,-1,-6,-11,-2,-5,-4,-4
152169151436,-2,-2,-4,-6,-1,-1,-2,-5
152169151436,2,-2,-3,5,2,0,1,-3
152169165615,-2,0,-1,5,-5,1,-1,2
152169165615,0,-1,-2,0,-2,-4,-3,-2
152169172414,-4,-4,1,4,-3,-5,2,-2
152169172414,-1,-6,1,5,-3,-2,-3,2
152169179938,-3,0,1,-1,0,-7,-3,-2
152169179938,4,-4,2,1,1,0,-3,-3
152169194964,-2,2,-3,-3,-2,2,2,-2
152169194964,1,1,-3,4,1,-4,0,-3
152169202431,3,-2,-1,4,0,1,0,0
152169202431,-1,2,2,-1,-3,-3,-5,-2
152169211420,0,-3,-2,-15,0,-1,-7,1
152169211420,-2,-2,-1,1,0,-1,0,-1
152169225626,-2,-1,-4,9,-1,0,-6,-2
152169225626,3,-2,-1,6,1,0,-2,0
152169232440,-4,1,-3,-7,-1,-1,-2,-2
152169232440,0,2,0,5,-2,-4,-3,3
152169239934,-5,-4,-1,-8,-1,-3,0,1
152169239934,-4,0,-4,14,3,-1,3,0
152169256419,0,-1,1,4,2,-4,0,0
152169256419,1,-1,-1,-5,1,-1,-2,-2
152169262404,1,-2,-1,-1,0,-4,-4,-4
152169262404,-3,1,2,1,-1,2,-4,-2
152169271421,2,-3,2,1,0,2,-4,2
152169271421,-2,2,-4,0,-2,2,-3,0
152169285682,0,3,3,-1,-1,-1,-2,-2
152169285682,0,-3,-6,-10,-1,-2,-1,-2
152169292536,3,3,-3,2,-4,-6,-3,-5
152169292536,1,-5,-1,3,0,1,-3,2
152169299903,-2,0,-4,-10,-4,0,0,1
152169299903,-3,2,3,-3,-2,-4,-2,3
152169314913,-1,0,0,0,-3,0,2,-1
152169314913,3,-2,0,-3,2,-2,-1,-8
152169322471,-2,-4,-6,-8,0,-2,0,-1
152169322471,1,-5,-2,3,0,3,-2,1
152169331396,-3,-3,0,0,-2,9,-5,-1
152169331396,-4,-3,1,-8,-1,-2,-3,-1
152169345660,-3,2,2,-7,0,-1,-4,-5
152169345660,-2,0,1,-1,-2,2,1,-1
152169352467,-3,-3,-1,5,-3,-2,-5,1
152169352467,-2,0,-1,0,-2,1,6,0
152169360291,3,1,-3,-4,-3,-4,0,0
152169360291,-1,-3,0,-8,-3,-3,-1,-3
152169374929,-2,2,1,12,3,1,-3,-1
152169374929,-4,-1,1,-1,0,0,-2,3
152169382873,2,1,2,11,1,3,2,3
152169382873,2,-1,-1,7,-1,0,-3,-3
152169391422,-2,0,1,4,0,-2,1,1
152169391422,-1,-3,-4,-6,-2,-1,-5,-4
152169405571,-2,-1,3,2,1,2,1,3
152169405571,1,-1,-5,0,2,-4,0,7
152169412412,1,2,3,-1,-3,0,-3,-7
152169412412,2,2,1,1,-3,0,-2,1
152169419910,-4,-3,-1,3,-3,2,1,-2
152169419910,3,1,1,2,1,-3,5,-2
152169434886,-4,-5,-5,-8,-2,-3,3,3
152169434886,1,1,1,2,-1,-4,-3,1
152169442428,1,-2,-3,-1,1,-2,-6,0
152169442428,1,0,0,11,-1,-3,0,-4
152169457399,0,0,-6,10,3,-3,3,-1
152169457399,-2,-1,1,-8,-2,-4,-6,-6
152169465624,-1,3,-2,1,-2,-4,-3,-1
152169465624,-4,-2,-5,-5,-1,-3,-2,-4
152169472390,1,-5,0,0,0,3,4,3
152169472390,0,1,-3,14,0,1,4,0
152169479914,-1,-6,-2,0,-1,3,2,1
152169479914,-1,0,0,-7,-1,-3,-1,5
152169494906,-3,0,2,0,-2,-1,-5,-2
152169494906,1,-3,-5,-2,-1,-1,2,0
152169502469,-2,-3,1,3,0,1,-2,-3
152169502469,-1,-1,-1,7,3,1,4,-2
152169517431,0,0,-1,11,0,-2,0,2
152169517431,-1,-1,2,6,1,1,2,0
152169525648,-1,-1,-2,7,0,-2,3,3
152169525648,1,-3,0,-1,-3,2,-2,1
152169532436,-3,-1,-1,8,-1,-6,-1,0
152169532436,-3,-3,0,5,0,-1,1,-3
152169539966,1,-1,1,1,0,-5,1,-3
152169539966,-2,0,0,9,-1,-1,-1,4
152169563118,-2,-1,0,-3,-2,-6,-5,-1
152169563118,-1,-1,-2,4,0,-1,2,-1
152169563872,-2,-1,-7,-2,-4,1,2,1
152169563872,0,3,0,1,0,-5,-2,-3
152169577479,-3,0,-3,-5,1,-4,0,-2
152169577479,1,0,0,-3,-2,-3,-1,-3
152169585587,-1,-2,-2,2,1,1,1,-1
152169585587,3,-4,-1,-5,0,1,-2,-2
152169592428,1,3,-1,-5,-1,1,0,-2
152169592428,-2,-7,-2,0,-2,-1,-6,-2
152169599899,-4,0,2,-6,0,2,0,-5
152169599899,1,-2,-1,-3,-3,0,-1,-2
152169614907,-4,-5,-1,-15,1,-5,-3,-6
152169614907,-1,2,0,2,0,0,-1,0
152169622433,1,2,1,3,0,1,-5,-4
152169622433,0,0,0,0,0,-2,-3,0
152169637423,4,0,0,-11,-2,-2,-3,-7
152169637423,-2,2,-2,2,-1,-2,-2,3
152169645651,-2,0,-4,-2,-1,-5,-5,0
152169645651,-2,0,2,5,3,-2,0,-2
152169652468,3,-3,2,5,-1,2,2,2
152169652468,0,-3,0,5,2,-1,1,-4
152169659950,-2,0,0,-3,-2,-5,0,3
152169659950,3,0,-5,1,-2,0,-2,-3
152169674963,3,-2,-3,-2,-2,-4,-5,1
152169674963,0,1,3,-5,1,-2,-3,-1
152169682439,3,-3,2,1,-1,-4,-3,-1
152169682439,-5,-5,-3,-5,-1,-1,-2,-3
152169697388,-1,-1,1,-4,0,1,0,3
152169697388,0,1,-2,-7,-5,0,-8,1
152169705627,2,3,1,5,1,-2,-1,-3
152169705627,-4,-1,-2,-5,-2,-2,-1,0
152169712405,2,-1,-6,13,2,4,4,0
152169712405,-1,-2,-1,-7,1,-2,-3,-5
152169719899,0,-4,2,-2,1,-2,0,-1
152169719899,3,-1,-4,8,0,2,-3,1
152169734948,-5,1,-5,11,-1,-5,-2,1
152169734948,0,-2,0,-1,-2,-1,-3,-2
152169742411,1,0,-3,-10,-2,-3,-5,2
152169742411,-1,-4,-3,4,0,0,4,-1
152169757421,-2,-2,0,8,-2,7,-2,1
152169757421,0,0,-2,10,1,2,3,3
152169765642,0,1,-1,1,-2,-5,-1,-1
152169765642,2,2,6,2,-2,1,1,3
152169772413,2,2,-2,4,-2,-5,0,-1
152169772413,-4,-1,-2,11,1,0,-1,0
152169788822,-2,2,1,12,0,7,3,-1
152169788822,-5,-2,-9,1,-1,-2,-5,-6
152169794963,-3,0,2,-3,1,-1,0,1
152169794963,1,0,-3,6,-1,-1,-1,-3
152169802455,-5,-5,-5,4,-3,1,3,-1
152169802455,-1,-4,1,-9,-3,-1,-1,1
152169817472,0,0,0,7,-2,0,3,2
152169817472,0,-5,-2,3,-1,-4,-5,2
152169825623,-2,2,3,13,-1,2,6,0
152169825623,-3,0,1,3,-1,3,1,4
152169832406,-1,-1,-1,8,-1,5,4,-1
152169832406,2,0,-1,6,-1,3,0,2
152169848084,0,1,-4,13,0,3,2,-3
152169848084,2,0,0,4,-3,-1,1,-2
152169854968,-5,0,2,3,-1,-2,2,2
152169854968,0,1,1,7,-3,-2,6,0
152169862480,2,-5,-4,-3,-1,-2,-3,-1
152169862480,-1,0,-2,7,0,2,0,-1
152169877373,4,-2,-1,14,2,5,-2,0
152169877373,-2,1,-1,15,3,1,-1,2
152169885610,1,-6,-3,-11,0,2,-5,1
152169885610,-1,-2,0,7,-1,-4,-1,-3
152169892382,-1,-1,-5,5,3,-4,0,-4
152169892382,0,0,-1,-2,-3,-2,3,-3
152169908163,-1,-5,5,8,2,-2,0,-3
152169908163,-5,3,0,3,2,0,-3,1
152169914909,2,1,-2,5,-1,-4,-1,-1
152169914909,-1,3,-8,-7,-2,2,-2,-1
152169922452,-3,-2,-2,-7,-3,0,-4,-3
152169922452,0,2,-1,1,0,-1,0,-2
152169937423,3,-1,1,-2,-2,-8,-6,-1
152169937423,-1,-4,0,-8,0,-5,-1,-2
152169945639,2,-1,-5,12,-3,-5,0,6
152169945639,6,0,0,4,0,-1,-3,0
152169959917,-1,-1,0,-9,-1,-1,0,-6
152169959917,0,1,-1,10,-1,-4,3,-1
152169968151,-4,-1,0,-1,-1,-1,-7,-3
152169968151,-3,-1,1,-6,-1,-3,0,0
152169983121,-2,-5,-3,-4,0,-2,-3,-3
152169983121,-3,-5,1,-10,-1,-2,-6,-2
152169983923,3,7,-3,5,0,0,1,4
152169983923,-2,-5,0,8,4,0,2,0
152169997424,1,-1,-2,-17,0,-3,3,-2
152169997424,-2,-1,-4,-1,-4,3,4,4
152170005644,0,-2,-1,11,3,1,1,1
152170005644,2,0,-3,1,-1,-5,-1,-2
152170019986,1,-3,3,3,1,3,-1,0
152170019986,0,-2,-1,-4,1,-3,0,-3
152170028130,0,1,0,7,0,-2,2,-1
152170028130,-1,1,1,7,-3,3,-3,3
152170043129,-4,-3,-5,0,-3,-2,-4,2
152170043129,-2,2,-2,2,3,0,-1,3
152170043893,-2,0,3,4,0,-2,3,-2
152170043893,0,-3,-5,-6,-3,-5,-2,-1
152170057441,-1,2,4,3,-3,0,-4,-1
152170057441,-2,-2,-1,-2,0,0,0,1
152170065683,-1,-5,-6,-12,-3,-2,-5,-8
152170065683,-1,0,1,-5,-2,-2,-3,-3
152170080054,2,3,-3,17,1,0,4,0
152170080054,0,2,2,3,-1,0,-3,-3
152170088172,0,-2,2,1,-1,-6,-2,3
152170088172,-1,0,-1,8,-1,3,2,5
152170103120,-2,-4,-4,0,-1,-1,0,-2
152170103120,-2,-3,-3,-8,-1,-1,-3,1
152170103906,0,-4,-4,-10,-5,2,-2,-1
152170103906,-1,-5,-4,-12,-1,-1,-3,-8
152170117526,-4,2,0,0,-4,-2,0,-1
152170117526,1,-1,0,0,-2,5,1,-2
152170125680,0,3,1,0,-2,-4,1,-4
152170125680,0,2,-2,-3,-4,-3,-3,3
152170139968,-2,-4,-4,-9,-2,-4,-4,0
152170139968,2,-1,2,4,-1,-3,3,-1
152170148060,1,0,-6,7,-1,2,-4,1
152170148060,0,-3,-3,-3,0,-2,-2,-1
152170163124,1,0,1,-7,-3,-1,1,-4
152170163124,0,0,-4,6,-3,1,-4,-1
152170163955,-1,-2,1,-5,-2,-6,-2,-3
152170163955,-2,2,0,2,1,-5,-1,-4
152170177526,1,0,1,10,1,-1,-2,1
152170177526,-2,2,0,-2,0,-4,-3,-1
152170185609,0,4,1,6,-1,1,5,-1
152170185609,-3,-5,2,6,3,2,-1,2
152170199992,1,-2,4,8,-1,3,1,4
152170199992,2,0,0,5,-1,-4,2,0
152170208240,-1,1,0,1,0,0,-2,-5
152170208240,-3,2,0,2,-2,2,-1,-3
152170223196,-4,-3,-3,2,-1,-2,-1,4
152170223196,0,3,-2,6,0,2,3,4
152170223974,1,1,1,3,-2,0,-7,1
152170223974,1,0,-3,4,-1,-3,0,0
152170237530,-5,-2,1,-2,0,-6,2,-1
152170237530,1,-1,-6,3,1,-1,-3,0
152170245701,-2,-4,1,-3,-3,4,-3,0
152170245701,-3,0,1,6,-3,1,-3,1
152170259907,-1,1,-4,7,0,2,-1,5
152170259907,-4,1,-1,2,1,-2,-6,-6
152170268208,3,2,0,11,0,-2,2,2
152170268208,-1,3,0,-3,-2,-4,-1,1
152170283190,-1,2,-1,3,0,-5,-4,4
152170283190,-4,-1,-2,6,0,0,-3,-4
152170283970,-4,0,-2,1,-1,-2,-2,0
152170283970,-1,-3,-3,-11,-1,2,1,-7
152170297512,-5,1,-2,-8,-1,0,3,-5
152170297512,2,1,-1,6,-3,1,1,0
152170305702,-1,1,-4,-4,-1,0,-1,-2
152170305702,0,-1,-2,6,2,-4,1,1
152170319982,0,0,-4,-4,-2,-3,-2,-1
152170319982,-2,-2,-3,-4,-1,-4,-1,-5
152170328216,0,-6,-9,0,0,-2,-2,-5
152170328216,1,-5,-8,-8,0,2,-3,-5
152170343082,6,0,1,14,2,-3,-4,-6
152170343082,1,-2,1,3,0,-2,1,0
152170343863,-1,3,-4,4,-1,-1,4,-2
152170343863,0,3,1,9,0,-3,4,-3
152170357426,0,-2,-2,-3,-2,1,0,1
152170357426,-5,2,-2,3,-2,1,-3,0
152170365713,-4,1,4,7,-3,-3,1,-1
152170365713,-3,4,4,1,-1,-4,-5,1
152170379991,-1,1,3,2,2,1,1,0
152170379991,0,0,3,1,0,-1,2,-2
152170388192,-3,-5,-3,-6,-1,0,-1,3
152170388192,3,1,-3,7,0,1,0,4
152170403166,1,-2,-2,-1,-2,-4,-1,-1
152170403166,-1,-4,3,-6,-1,-3,-4,1
152170403853,0,-2,-2,2,2,-1,0,4
152170403853,0,0,-1,-10,-1,-1,0,-1
152170417452,-1,3,-5,4,1,1,2,0
152170417452,0,0,-1,3,0,1,2,-1
152170425672,-3,-2,3,0,1,-1,-2,-2
152170425672,-6,-2,-2,-2,-3,3,1,-3
152170439948,1,-7,-6,-1,-1,-2,-3,0
152170439948,-2,-3,-3,-3,1,-2,-1,-2
152170448182,-1,2,-2,-2,-2,-5,-1,-3
152170448182,-1,-2,0,0,-2,0,-2,1
152170463187,-1,-1,-1,-10,-1,-3,-1,-4
152170463187,-4,-5,-2,-1,-1,-3,1,-4
152170463974,3,1,4,-1,1,-3,-5,3
152170463974,-5,-3,1,-5,-3,1,-1,-4
152170477478,0,-2,0,6,-3,1,3,3
152170477478,-2,-2,0,-4,-3,-5,0,2
152170485634,-1,-3,-3,-3,-5,-3,0,-5
152170485634,-3,-5,-1,3,2,-1,0,0
152170500103,1,0,1,-4,-1,-3,-2,-5
152170500103,-4,0,1,-1,1,-1,0,3
152170508177,0,-2,-2,9,-2,2,2,3
152170508177,1,-1,-5,-1,-1,-5,0,-2
152170523213,-5,-4,-2,1,1,1,-5,1
152170523213,0,-2,-2,-8,-1,-1,0,-3
152170524010,-4,-4,-1,-5,-2,1,0,-2
152170524010,1,-2,0,2,-1,4,5,3
152170537490,-5,0,1,1,1,2,3,-2
152170537490,-2,-3,0,-13,-3,-2,-5,-3
152170545631,-2,-2,-2,-8,-1,-3,1,0
152170545631,-1,2,-1,2,-2,-2,-5,-2
152170560031,1,0,-2,-9,-3,-2,-4,-5
152170560031,1,-2,-2,3,1,-3,2,3
152170568235,3,3,-1,-1,-1,0,-1,-3
152170568235,-3,-3,-1,-5,-1,-1,-1,-1
152170583158,-4,-3,-2,1,-1,-2,0,-1
152170583158,0,-2,-1,-3,-3,0,1,2
152170583978,0,-3,-1,3,-2,4,-1,1
152170583978,2,-5,4,14,3,-2,3,-1
152170597462,2,0,-2,1,0,-3,1,3
152170597462,2,-1,-3,3,-2,0,-1,-4
152170606501,-1,0,1,5,3,-1,-5,1
152170606501,-1,-2,-1,-3,-3,-1,-5,0
152170620002,-1,-2,0,-1,-2,3,3,0
152170620002,1,1,-2,10,0,0,-4,1
152170629003,-3,-5,1,-8,0,-4,0,-4
152170629003,2,0,-2,3,-1,-1,-5,-7
152170642564,0,1,1,1,-3,-3,-2,-2
152170642564,-1,-2,1,3,-2,0,3,1
152170651439,-4,1,-1,-5,-1,-1,-3,-3
152170651439,-1,-1,-1,1,2,-2,2,1
152170657500,5,5,3,12,0,0,1,-1
152170657500,-2,2,1,10,1,0,-1,-4
152170666456,-2,-2,-5,8,-3,-3,3,-2
152170666456,1,-1,0,1,1,-4,0,0
152170680043,0,0,3,5,-1,-2,3,-3
152170680043,-1,2,-4,0,-3,-2,-1,-1
152170689004,1,1,-2,4,-2,1,0,-3
152170689004,-1,1,4,-5,-3,2,-4,2
152170702568,0,-3,-2,3,0,1,-4,-4
152170702568,-1,2,1,1,0,-4,-1,-6
152170711477,-2,1,0,3,-1,2,3,2
152170711477,0,1,-3,6,-2,1,0,0
152170717443,1,-4,-1,2,0,2,-3,1
152170717443,2,-2,1,-4,-4,-3,-1,2
152170726456,-5,-4,-3,-116,-110,0,-17,-20
152170726456,0,-1,2,99,-40,2,3,-3
152170739957,1,3,-2,100,77,2,4,4
152170739957,3,0,1,115,95,-2,-4,17
152170748999,2,1,-3,65,94,-4,2,4
152170748999,0,-2,-1,-19,26,3,0,-1
152170762532,-2,-5,-4,-32,-19,-3,-4,0
152170762532,-2,-2,-2,-21,-12,-5,-4,-2
152170771534,2,2,2,-9,-6,-4,-3,-1
152170771534,-3,-1,-4,-39,-15,-6,-7,-5
152170786418,-1,-2,2,-11,-15,0,0,2
152170786418,-4,-1,-4,-43,-25,0,-8,-1
152170787992,5,2,-1,10,-3,-2,1,4
152170787992,-3,0,-3,-11,6,-3,2,1
152170800029,-1,-1,0,-19,-9,-4,-3,0
152170800029,-3,1,0,-14,-24,-3,2,-7
152170808905,-1,-2,1,15,2,3,0,4
152170808905,1,2,-2,1,11,-2,-1,1
152170822576,-5,6,1,-13,-11,-7,-6,-2
152170822576,-4,0,-1,-13,-13,-1,1,-3
152170831446,3,2,0,19,12,0,0,2
152170831446,4,1,1,-13,4,-3,-1,0
152170846348,2,-4,1,-4,-9,-3,-3,-5
152170846348,1,-3,-2,-3,-6,3,2,-1
152170847930,-5,-1,-3,0,7,-5,-1,-1
152170847930,-4,-2,1,-7,-2,-1,-1,-5
152170860041,-2,-3,-3,-6,-5,2,-2,-3
152170860041,3,0,0,-3,-3,0,-1,0
152170869052,2,-4,-2,11,1,-2,0,3
152170869052,0,-2,-1,-1,3,0,-3,-1
152170882459,-4,0,-2,-10,-4,-2,2,-1
152170882459,-3,-7,-2,-6,-3,0,-2,-4
152170891557,-2,1,1,8,-3,0,-3,1
152170891557,3,-1,0,-2,1,-2,-4,-4
152170906495,-1,-4,0,-7,-1,-4,-1,-2
152170906495,4,4,-4,-2,-4,-4,-4,-4
152170907951,-2,0,-1,-4,1,-7,0,-4
152170907951,-2,-3,-1,0,1,-4,-3,2
152170920067,-4,-2,2,-2,-3,-2,-1,3
152170920067,-2,-3,0,-6,-6,0,-2,0
152170929027,3,0,3,15,5,0,-3,0
152170929027,0,-3,-2,-2,0,0,-2,-3
152170951331,0,-3,-1,-7,-2,-1,-4,-2
152170951331,0,1,-3,-4,-2,-2,-2,2
152170952941,-1,-8,0,-6,0,-6,3,-3
152170952941,-6,-4,5,-5,0,3,2,-6
152170966351,0,-1,-2,-4,-3,-2,-5,-5
152170966351,1,-3,2,17,0,1,1,-1
152170968024,-1,-1,-1,2,-1,0,0,0
152170968024,-4,0,-6,-8,-2,0,-3,3
152170979966,-3,-3,0,-1,0,-2,2,-4
152170979966,1,-2,2,-2,-1,-2,-3,0
152170988979,1,-4,-8,1,0,1,-1,-1
152170988979,2,7,1,8,2,-2,3,-1
152171002437,-1,-5,1,-1,-2,1,0,-1
152171002437,-3,-2,1,-5,-2,1,1,-3
152171011459,1,0,0,2,-3,0,-4,-4
152171011459,-1,-3,-6,-4,0,-2,1,5
152171026311,-2,-2,-3,-7,-3,-4,1,-3
152171026311,0,1,4,0,-3,1,2,-4
152171027937,1,-3,2,9,-1,5,1,-2
152171027937,-2,-3,1,6,-1,-2,-2,3
152171039982,-3,1,-1,4,-3,3,-1,4
152171039982,0,-1,-4,1,0,-1,0,-4
152171048917,2,0,-2,14,2,1,9,2
152171048917,2,0,0,-5,0,-3,-2,-5
152171062476,-2,0,-6,4,0,-4,-5,5
152171062476,2,-1,0,-3,-2,1,-5,-7
152171071527,-5,1,1,-7,-1,-2,-5,0
152171071527,2,-2,2,-2,-3,-1,-4,0
152171086287,1,-2,-2,2,0,3,0,-4
152171086287,-4,0,-1,10,-1,-1,-2,6
152171087921,-3,0,-1,3,-1,3,-1,0
152171087921,-4,-1,-4,-9,-1,-2,-4,-4
152171099941,2,1,-1,3,0,-2,-6,0
152171099941,-2,-5,1,4,-2,-2,1,0
152171109012,3,-1,2,4,-3,1,0,0
152171109012,-1,-5,-4,6,0,3,1,-3
152171122433,3,2,2,-5,-1,-3,-5,-3
152171122433,-1,-1,-3,3,3,-3,-5,-6
152171131458,1,2,-1,4,-3,-2,2,-1
152171131458,-1,-2,1,7,0,2,4,1
152171146292,0,-2,-1,1,-1,0,1,0
152171146292,2,-1,0,-2,0,-2,-1,4
152171147917,-2,-3,-1,-7,-1,-5,-1,-6
152171147917,4,1,-1,10,-1,1,-4,3
152171159956,-3,2,-5,6,0,-1,5,0
152171159956,0,-3,0,-4,2,1,-2,1
152171168994,-3,-3,-5,-3,-3,-3,-5,2
152171168994,-2,0,-2,-5,-1,-4,-4,-2
152171182466,-3,-3,3,-5,-3,-2,0,3
152171182466,1,1,3,-7,-3,1,-1,-1
152171191466,1,0,-2,-4,-2,-1,-5,-1
152171191466,-3,-1,0,-2,1,-5,-5,-2
152171206304,4,3,0,0,1,4,1,-3
152171206304,-3,-3,-2,0,-3,-4,-5,0
152171207914,2,1,1,-15,0,-3,-5,-3
152171207914,-1,0,-3,8,0,-4,-2,3
152171228890,-1,-4,-1,-5,0,-6,-2,-2
152171228890,-2,2,-5,-4,0,-8,2,-1
152171230453,-6,-1,-2,3,0,-2,2,1
152171230453,-1,-3,0,-4,-2,1,-4,-3
152171242548,1,-1,-2,-8,0,-2,2,-1
152171242548,-5,-3,-3,-2,-1,-1,0,5
152171251530,-2,1,2,2,-1,-2,2,3
152171251530,4,-3,1,5,0,-2,3,-1
152171266361,0,1,-2,15,0,-2,2,-1
152171266361,3,3,-1,-1,-1,0,2,-3
152171267947,-2,-2,-3,1,-1,4,-2,2
152171267947,-1,6,1,9,-2,3,7,1
152171280002,-1,4,1,7,-1,-1,-3,1
152171280002,2,-3,2,3,0,-1,0,0
152171288912,-2,-6,-2,1,0,0,0,0
152171288912,-1,-1,-1,5,-1,1,1,2
152171302452,0,-1,4,-5,-2,-4,-2,-4
152171302452,-2,0,-1,-4,0,-4,-3,-1
152171311466,0,0,1,3,-1,1,-2,-3
152171311466,-1,-1,-5,-2,-3,0,1,-2
152171326431,2,-1,-1,3,0,3,0,2
152171326431,-4,-1,2,-5,-2,1,-6,-5
152171327983,2,1,-2,-1,1,-3,1,-1
152171327983,-3,-3,-1,9,2,0,0,2
152171339926,-5,1,2,2,-1,1,-5,2
152171339926,3,2,-3,14,0,0,1,-2
152171349019,2,-1,0,9,-2,-5,-2,-1
152171349019,-2,-5,-1,-5,-3,-2,-1,-2
152171362485,-1,0,-3,1,-2,-1,-3,-1
152171362485,-3,2,-2,-4,0,-1,-3,-3
152171371471,1,-4,1,1,-1,-4,-1,-3
152171371471,-3,-7,-2,-12,0,-4,-5,-2
152171386383,0,-5,-2,-4,-3,-2,-2,3
152171386383,-1,-4,-5,2,-1,-1,2,2
152171388002,2,-3,-3,4,-2,0,-4,1
152171388002,1,-1,1,-3,-1,-3,-2,-5
152171400034,1,-5,-4,3,-1,-1,-2,1
152171400034,-1,-5,-5,0,-1,3,-2,-3
152171408903,4,0,-2,1,-1,-1,1,0
152171408903,-2,0,-3,-8,2,-2,-9,-2
152171422441,1,-4,-2,-5,-2,0,0,-3
152171422441,-1,-4,1,-1,-2,-5,-2,-2
152171431498,-1,0,-1,-4,0,0,-6,-5
152171431498,-9,-4,-3,-12,-4,-1,5,0
152171446333,-2,-3,-8,-1,1,-1,-1,1
152171446333,0,-2,-1,-1,-1,-2,-2,4
152171447971,-4,-1,3,-2,-2,-1,-2,-1
152171447971,0,2,0,-4,0,-1,-4,0
152171460021,-5,-3,0,-1,1,0,-4,-5
152171460021,-3,-3,-1,-5,-2,-3,1,-2
152171469054,-3,4,2,-8,-2,-2,1,0
152171469054,4,-3,-1,9,-1,2,5,0
152171482465,-3,-1,3,-7,-3,1,-3,-2
152171482465,-1,1,-1,6,2,-6,6,0
152171491451,-2,-2,0,-4,-3,-4,-5,0
152171491451,4,5,1,9,0,0,4,-3
152171506355,1,-2,2,2,-1,0,3,0
152171506355,-2,2,3,8,-1,1,-3,-3
152171507954,-7,-3,-1,-8,1,-3,-1,1
152171507954,0,0,-2,0,0,0,-1,-2
152171519992,-3,-3,-1,3,1,2,2,-3
152171519992,-4,2,-1,-4,-2,-2,-3,-1
152171536516,-2,-2,0,-5,-1,-1,-2,0
152171536516,2,3,3,4,-2,-1,-1,-3
152171542510,2,-1,-3,-8,0,-7,-4,-4
152171542510,-2,-5,0,-13,-3,-4,-5,-5
152171551524,0,-1,-3,-6,-1,-1,4,0
152171551524,-4,-7,1,2,-4,-6,-1,4
152171566338,-1,1,-3,-8,-2,-3,-3,3
152171566338,1,0,-7,-4,-1,1,-3,-2
152171567951,-4,1,-4,-7,0,2,1,-1
152171567951,-4,4,-2,0,1,-4,-4,-8
152171580063,-1,2,-8,7,-2,1,5,0
152171580063,1,-7,-4,-10,-2,-1,0,-3
152171589066,2,0,-1,6,0,0,2,-4
152171589066,0,2,3,7,-2,4,0,-3
152171602447,-3,2,-1,-1,0,-2,-2,3
152171602447,-2,1,3,6,-2,3,-3,2
152171611492,1,-2,-4,4,-1,1,-5,0
152171611492,-3,2,-1,0,-2,1,5,2
152171626403,2,1,5,3,-3,0,-8,-4
152171626403,2,-2,-1,2,1,0,3,3
152171627905,0,-2,-2,8,2,0,2,1
152171627905,-4,-6,-4,10,1,-2,-3,1
152171640013,-1,0,-2,5,0,3,1,0
152171640013,0,-2,2,10,0,5,5,2
152171648973,3,1,0,4,0,0,-3,-2
152171648973,3,0,-4,5,2,0,-3,3
152171662485,1,-1,2,9,0,1,6,-1
152171662485,-1,-2,-1,2,-2,2,0,-1
152171671482,-4,-3,3,6,3,0,3,-7
152171671482,0,-3,0,-1,-3,-4,-4,5
152171685631,-2,-3,0,0,0,-5,-1,-6
152171685631,-3,3,-2,2,0,-4,-1,-3
152171692489,-2,-1,-2,9,0,3,4,3
152171692489,0,-2,0,7,-2,0,-2,0
152171700007,1,-3,-1,0,2,-3,-2,-1
152171700007,-3,1,3,2,-1,0,1,0
152171709067,1,-3,2,4,1,-1,-2,1
152171709067,1,-1,3,4,-2,5,-1,-1
152171722475,0,2,-3,2,-1,-2,-6,-3
152171722475,1,-5,0,6,-1,1,-3,0
152171731430,-1,-1,-3,1,-2,1,1,5
152171731430,0,0,1,5,0,4,-1,-4
152171745715,-1,1,3,4,-3,2,-2,2
152171745715,0,0,-2,5,0,1,-3,3
152171752556,-5,-4,3,2,-4,-2,-2,-2
152171752556,2,2,-5,-2,2,-2,-3,2
152171768869,0,-7,-2,1,1,0,2,-2
152171768869,0,2,1,11,-1,-2,4,3
152171770509,0,-1,-3,5,-3,2,2,0
152171770509,-2,0,-1,-1,0,-2,0,-3
152171782499,-1,2,-2,8,-2,3,0,-2
152171782499,-4,-1,-3,-17,-1,-4,-5,-4
152171791500,-2,-4,-1,-9,0,-6,-7,3
152171791500,-3,-1,-1,-2,0,-4,-5,4
152171805645,1,-1,-1,3,-1,1,0,-1
152171805645,2,-2,-2,5,-2,-2,-4,3
152171812523,1,7,-1,10,0,2,-4,-4
152171812523,1,-5,-5,-10,-2,0,3,0
152171828811,-1,2,-3,3,1,1,4,0
152171828811,-3,-3,0,-5,0,-5,-3,-9
152171830502,-1,0,-2,5,-2,1,4,-1
152171830502,-4,5,2,-2,-2,1,3,-3
152171842579,-2,-4,2,1,0,-1,1,-2
152171842579,-1,-3,1,10,0,0,3,0
152171851538,0,-5,-3,-2,-1,0,-2,3
152171851538,-5,-6,-5,-11,2,-5,4,-5
152171865666,2,0,-3,-6,0,1,-1,0
152171865666,-2,-1,-3,-1,0,2,-1,2
152171872568,-3,-2,0,-11,-1,-5,-8,-6
152171872568,-3,1,-2,4,2,-3,0,-1
152171888938,-2,-1,0,-5,0,-2,-3,0
152171888938,-1,2,1,0,-2,-1,-2,-5
152171890481,0,1,0,-1,0,-1,-5,-1
152171890481,2,-3,0,4,1,1,-1,0
152171902501,-6,-6,-3,-4,-2,-2,-3,0
152171902501,-5,-8,-4,-8,-2,0,-5,-5
152171911498,-1,1,-4,-1,0,-1,2,1
152171911498,-2,0,-1,0,-2,-1,-1,0
152171925654,0,-1,-1,-4,-3,-3,-5,0
152171925654,-3,3,-1,2,3,0,0,-2
152171932443,-5,-1,-3,-12,-3,-2,1,-3
152171932443,-2,-1,-1,1,-2,-4,-3,-1
152171948931,-4,1,-3,-1,2,-5,-3,-1
152171948931,1,0,-4,-6,2,-4,-4,3
152171950494,2,-3,-2,-7,0,-2,-3,-6
152171950494,-5,4,2,-1,-1,-1,-3,1
152171962527,-1,0,-1,-3,-4,-3,0,1
152171962527,0,2,1,-6,-3,-4,-3,0
152171971473,-3,-5,-3,-8,-2,-1,-4,-3
152171971473,-2,-5,-1,-1,-1,0,-1,-5
152171985725,3,0,0,12,1,-2,5,0
152171985725,0,-2,2,2,-1,-4,2,0
152171992549,0,5,-1,-1,0,-2,3,2
152171992549,1,-8,-6,-4,-4,2,-3,4
152172008860,-3,0,0,4,-2,-3,-1,1
152172008860,1,-3,-3,0,-2,2,3,-1
152172010436,2,2,2,0,2,0,-4,-6
152172010436,2,0,-2,5,1,-4,1,4
152172031389,-1,-3,0,0,-2,3,0,0
152172031389,1,-4,-3,0,-2,3,-3,-2
152172033001,2,3,-4,2,-3,-3,-2,-1
152172033001,0,2,-2,9,-1,5,0,0
152172045718,-1,1,-2,-4,-1,1,-5,3
152172045718,-1,-1,-3,0,0,-4,-3,-3
152172060065,-1,2,0,10,0,1,-2,1
152172060065,2,3,2,3,-2,-2,2,-3
152172068848,1,3,-3,2,1,-3,-1,-5
152172068848,-6,-2,0,2,0,-4,-2,-1
152172070450,-2,-8,-5,-7,-1,-2,-1,-3
152172070450,0,0,2,5,-1,0,0,-2
152172082533,0,0,-1,6,-2,-1,-1,1
152172082533,5,3,0,2,0,0,-1,1
152172091577,-3,0,1,7,0,-3,0,5
152172091577,1,-3,-2,1,-1,3,6,-3
152172105744,-4,-1,0,-3,-1,2,-1,-3
152172105744,1,-2,-2,11,0,3,0,2
152172112562,2,-2,-2,10,0,-2,-1,8
152172112562,2,-2,0,-4,-2,-5,-4,-3
152172128831,-2,-5,-2,-3,-2,-2,1,-1
152172128831,-4,-3,0,-3,-2,-1,3,2
152172130444,0,-2,-2,7,1,1,4,-3
152172130444,-4,-1,-1,-1,0,-1,-8,-3
152172142506,5,-6,-3,5,1,-3,-1,-1
152172142506,-1,2,-1,-4,-3,2,-5,1
152172151556,-2,-2,2,3,-2,0,0,-3
152172151556,-2,-1,1,7,1,1,-3,3
152172165748,-3,0,0,3,0,-3,2,-1
152172165748,2,-2,-1,0,0,-3,-1,1
152172172470,2,0,1,5,-4,3,1,0
152172172470,2,2,-1,-7,-2,-5,-5,-3
152172188811,-3,-1,-5,4,-2,1,-5,1
152172188811,1,1,0,3,0,-3,-1,-2
152172190444,1,1,-2,5,-2,-2,0,-3
152172190444,1,-2,-7,-5,0,0,1,1
152172202583,1,1,5,9,-1,0,2,1
152172202583,-1,-2,-5,-6,-1,1,-1,-2
152172211492,-2,3,-1,-1,0,-3,-3,3
152172211492,-2,-4,0,-5,0,-1,1,-5
152172225769,1,-4,-5,-13,-2,-5,-3,-3
152172225769,2,-1,-1,4,-1,5,-1,0
152172232529,-3,0,-1,-12,0,-6,-7,-5
152172232529,-3,-1,-1,1,-3,0,5,3
152172248859,-1,0,2,8,-1,1,-2,-1
152172248859,1,4,4,5,0,-1,-3,0
152172250464,-1,1,-1,5,-1,1,2,-2
152172250464,-1,0,-6,-5,0,-1,-7,-1
152172262500,-3,2,2,2,-2,0,-4,0
152172262500,-1,5,0,8,1,-2,-3,-2
152172271436,-1,-2,0,9,2,-1,4,2
152172271436,3,-4,-2,-1,0,-2,-2,-1
152172285685,3,-3,-1,-7,1,-1,-1,-2
152172285685,-1,-1,-2,2,0,-2,-1,2
152172292453,-4,-3,-4,-8,-4,0,-3,-2
152172292453,-1,-2,-2,1,-1,-2,-1,0
152172308841,-2,2,-7,-2,-1,-1,-1,3
152172308841,2,0,-1,2,-3,-4,2,2
152172310430,-3,-4,-3,-5,-4,-3,0,-1
152172310430,-3,-4,-7,-18,-5,-1,-3,1
152172322497,2,-1,3,13,0,-1,1,-2
152172322497,-2,-1,5,4,-5,0,-1,2
152172331444,-3,-3,-1,-5,0,0,-2,1
152172331444,0,3,1,7,1,1,-2,0
152172345673,-4,-5,-4,-5,-3,-3,0,0
152172345673,-4,-3,0,0,-5,3,2,-1
152172352473,-1,-3,0,-18,8,3,-4,-6
152172352473,-5,4,2,6,1,2,5,-2
152172368884,-2,1,1,-5,3,4,-3,0
152172368884,1,-3,-6,-11,-6,0,-1,-4
152172370503,1,-2,-5,-2,5,-5,-4,-4
152172370503,1,-2,1,6,-3,0,-1,-2
152172382484,0,-2,-5,-2,-4,3,-1,1
152172382484,-4,0,0,-2,3,-3,-1,0
152172391468,2,-2,-2,-4,-3,0,-4,-1
152172391468,3,-2,-1,12,2,-5,0,-2
152172405703,-2,-2,3,13,2,1,-3,-2
152172405703,-3,-1,0,0,25,2,0,0
152172412498,8,-1,-1,3,17,-1,-3,0
152172412498,1,0,1,-1,27,-5,-1,3
152172428880,3,-8,-1,-11,6,-1,0,-2
152172428880,-2,-1,-2,-7,8,-5,4,1
152172430506,-4,-4,2,-5,-10,-2,7,2
152172430506,2,3,6,2,-11,2,-5,-2
152172442499,-4,0,-1,-9,0,1,1,-3
152172442499,-1,-2,-3,8,10,-4,-1,0
152172451519,-1,7,4,7,-36,-3,-4,-2
152172451519,-2,-2,0,1,-80,-2,1,-2
152172465702,-4,-2,-9,18,-21,-3,-6,1
152172465702,4,0,0,17,-23,0,2,-9
152172472554,-3,2,-3,-4,-32,2,-5,2
152172472554,-3,-1,-4,-10,1,3,-2,-1
152172488928,1,-1,5,0,6,1,0,2
152172488928,2,0,0,13,-7,3,-7,4
152172490530,-2,-4,1,1,20,1,6,0
152172490530,-2,-2,-7,-4,15,2,0,-3
152172502519,-2,0,5,14,6,2,2,3
152172502519,-1,-5,1,1,-2,0,-1,-3
152172511488,4,0,7,4,-1,3,4,3
152172511488,2,-1,-2,-4,1,-3,-2,-4
152172525678,3,5,3,-2,7,-5,-4,-7
152172525678,-4,-2,-7,-4,-2,-6,-4,-1
152172532471,-4,-5,-15,3,8,0,-6,1
152172532471,-3,0,-1,1,1,-5,-1,-1
152172548879,3,2,-3,-4,5,0,-2,3
152172548879,2,-1,-1,-10,2,1,-4,3
152172550528,-1,-1,-6,-2,-4,-6,1,-4
152172550528,-1,-3,-2,-2,13,-1,-4,1
152172562557,-2,1,-2,-5,-4,2,0,3
152172562557,-5,0,-7,-5,-4,2,-4,-3
152172571546,1,-1,9,6,7,2,3,3
152172571546,1,-3,-2,-1,2,-4,4,-2
152172585718,-1,1,4,4,0,-1,0,0
152172585718,-2,-1,1,-8,7,-1,1,-4
152172592613,2,-1,2,5,0,1,1,1
152172592613,-4,-2,0,1,3,2,2,2
152172608173,0,1,5,0,0,-1,2,1
152172608173,1,0,4,0,-3,0,1,0
152172615061,-2,4,16,9,9,3,2,-2
152172615061,2,3,7,8,6,-3,-4,-1
152172622548,-2,-4,-2,0,2,-5,-3,-8
152172622548,0,2,5,5,-7,1,0,4
152172631507,-2,2,-8,-2,-2,-6,-4,-1
152172631507,-4,-3,-14,-5,-2,3,3,0
152172645756,3,1,1,3,4,-3,-1,-4
152172645756,-1,-3,5,0,2,2,0,-2
152172652557,1,2,-4,0,2,-2,-7,-1
152172652557,3,1,-1,5,12,2,0,2
152172668257,-7,-4,-8,-5,2,-2,-3,-3
152172668257,-4,-5,-5,-3,4,0,1,1
152172675059,3,-4,-2,2,-8,-1,0,0
152172675059,-3,-2,2,-2,-2,-2,-4,-4
152172691447,3,-3,0,-2,-3,1,-1,-4
152172691447,1,0,7,5,6,-5,-1,-1
152172693000,-3,0,-1,1,7,3,3,-2
152172693000,-4,0,-2,-1,1,-6,-5,-1
152172705770,0,-4,-3,-1,8,-2,4,0
152172705770,1,3,3,4,1,-3,-3,-5
152172712637,0,-1,-3,-2,-10,-1,0,0
152172712637,2,-1,10,8,-3,4,4,3
152172728195,0,2,-1,-3,-3,-2,0,4
152172728195,0,-2,1,5,8,0,1,-1
152172735078,0,-1,1,-2,5,-2,1,0
152172735078,0,0,-1,2,2,4,1,-2
152172751345,-1,3,-3,-6,-13,0,-5,-1
152172751345,-1,2,6,-1,-5,3,4,0
152172752978,-3,1,-2,-1,-2,1,-8,-6
152172752978,-4,-4,-6,-5,2,-4,-3,-1
152172765718,-3,0,5,8,6,0,0,0
152172765718,-4,1,-8,-1,-2,-6,1,-2
152172772562,-1,-6,-4,-2,-1,-4,0,-1
152172772562,1,2,7,0,-2,-2,0,2
152172788275,1,-2,1,3,4,3,-2,1
152172788275,-2,-2,5,2,-4,-1,1,-3
152172795084,-3,-1,2,1,3,0,-1,3
152172795084,-1,1,0,1,2,-2,3,-6
152172811428,0,-2,-3,-4,1,-4,3,-2
152172811428,0,0,0,1,5,0,-2,1
152172813014,1,0,-2,0,1,-2,-3,-1
152172813014,0,-3,0,-2,-3,0,0,2
152172825806,-1,1,1,2,4,-3,1,3
152172825806,-2,-1,0,4,1,-1,0,1
152172832528,-2,-1,7,4,-5,-3,3,-2
152172832528,2,-1,2,2,0,2,1,1
152172848287,-2,-2,-2,1,5,3,4,-1
152172848287,0,-1,7,5,3,1,1,0
152172855080,-5,2,-3,-2,-5,-4,-3,1
152172855080,2,-2,7,6,-1,0,2,-2
152172871380,-3,-4,3,0,0,0,-1,-1
152172871380,-1,-3,2,1,4,0,-2,-3
152172872991,0,-1,-5,-6,1,2,-3,-6
152172872991,-3,-2,-8,-6,-3,-3,-6,-3
152172885765,2,-2,-2,-1,-5,-4,-4,-2
152172885765,1,0,-1,-1,2,1,-2,-2
152172892541,2,4,3,2,3,2,3,1
152172892541,0,-1,0,3,0,-4,0,4
152172908213,-4,4,0,5,-3,3,3,4
152172908213,-1,-1,-5,-5,1,-1,-2,2
152172915092,0,2,-4,2,6,4,-2,0
152172915092,-3,2,2,-4,-1,-3,-3,1
152172931321,0,1,-7,-8,0,-1,-6,-3
152172931321,0,1,-1,2,-3,-3,5,2
152172932963,-2,2,-1,5,-2,-4,-1,-1
152172932963,0,-3,-4,2,-2,-1,-2,-3
152172945808,2,-6,1,8,1,-2,-1,-2
152172945808,-1,1,-4,-4,1,-6,-3,-4
152172952467,4,-4,0,0,0,-1,0,-1
152172952467,-1,3,2,4,3,2,-7,-5
152172968212,-5,-2,-5,-4,-2,-1,-4,-1
152172968212,1,-1,-6,-10,-6,-2,-4,-4
152172974961,0,0,1,0,1,-2,-1,0
152172974961,-3,-1,0,-1,0,-5,-3,-3
152172991387,2,-2,-2,-4,3,3,3,-1
152172991387,-1,-4,-2,-3,1,2,-3,0
152172992963,2,-5,-1,-2,-3,-7,-8,-7
152172992963,3,-3,-6,3,0,3,3,-1
152173005849,-5,-1,-4,-7,0,-3,-6,-4
152173005849,5,-3,-4,6,0,0,-1,2
152173012534,1,-1,0,4,-2,4,-1,2
152173012534,-1,-1,-4,2,-2,1,-1,-2
152173028236,-3,-5,-1,-12,-4,1,-1,-4
152173028236,-2,-1,-6,2,-5,-3,-3,-1
152173035003,-1,-4,0,-10,-3,-6,0,-3
152173035003,1,-1,2,2,2,0,0,2
152173051473,-1,-1,0,-2,-2,-3,-4,1
152173051473,-2,-1,-2,-1,-4,1,-1,-3
152173052955,-2,-5,-3,-3,0,-1,-1,1
152173052955,-3,2,-6,-7,-3,0,-2,0
152173065839,3,3,-8,-2,1,-2,-3,-1
152173065839,2,0,-2,2,-1,1,-2,-4
152173072557,-1,-4,-1,1,-1,-5,1,-2
152173072557,-4,-3,-8,-6,-2,0,1,-4
152173088286,1,-2,-9,-9,0,-5,-3,-7
152173088286,-1,-4,-6,-9,-1,-3,-1,-3
152173095061,-1,-3,-11,-11,-2,-3,-5,0
152173095061,0,-1,-3,-9,-2,-7,-4,0
152173111451,-3,-3,0,-6,0,-1,1,1
152173111451,1,-1,-4,-7,-2,-5,-3,-3
152173112991,0,2,-5,0,-2,4,-3,-2
152173112991,-4,-1,-6,-6,-2,1,-3,-1
152173125677,4,-1,-6,0,-3,-3,2,-1
152173125677,-5,-1,-2,2,-3,2,-2,-4
152173132532,-2,-1,-1,7,15,4,4,0
152173132532,3,2,2,11,-2,-1,-2,-3
152173148272,-1,4,1,3,0,1,3,-1
152173148272,1,-6,-1,-6,-3,-4,1,1
152173155006,-3,-1,0,-1,-2,3,2,3
152173155006,-4,0,-1,1,3,-2,-1,-2
152173171469,-2,-3,-1,5,-4,0,-2,0
152173171469,-3,-1,-1,7,3,-2,0,1
152173172985,-2,-1,0,-3,-2,2,-4,-4
152173172985,-1,-1,-4,2,3,1,4,2
152173185100,1,2,2,5,-4,1,-2,3
152173185100,-2,6,-1,0,7,1,1,0
152173194030,-4,0,-8,-9,17,-4,-4,0
152173194030,-1,-2,-2,-13,17,-5,-2,1
152173208252,2,1,4,6,18,-3,-3,2
152173208252,0,-2,-3,-8,0,-4,-2,1
152173215052,1,2,4,10,18,5,3,5
152173215052,-3,-2,-1,-8,1,-1,-2,2
152173231411,-8,-3,-8,-5,-15,-2,-1,0
152173231411,1,-2,-2,12,6,0,-1,2
152173232998,-4,-4,5,8,-28,-2,-1,1
152173232998,8,2,12,13,-13,4,-2,-1
152173245052,-3,1,3,24,12,-1,-1,1
152173245052,-1,1,2,10,-26,0,1,1
152173254077,1,2,-4,7,-17,-5,2,0
152173254077,3,-2,-1,18,-34,-2,-2,0
152173268273,1,-4,-1,3,-5,-1,2,-3
152173268273,1,-2,2,2,16,2,1,3
152173275074,-4,-6,-3,2,11,2,0,2
152173275074,-2,-1,-7,-1,-10,-3,-3,2
152173291350,1,-2,0,5,-2,1,-1,-5
152173291350,-3,-1,-3,3,13,0,-2,1
152173293004,-1,3,19,14,-18,5,4,-2
152173293004,-2,2,5,9,-12,2,-2,2
152173305054,2,-2,12,8,-5,-4,1,-2
152173305054,-1,-1,2,3,5,2,-2,-4
152173314053,2,0,-4,6,2,-1,-4,-3
152173314053,-6,0,10,10,19,-2,1,-3
152173328233,1,1,-5,-7,4,-6,-6,-1
152173328233,-1,3,17,-2,5,4,0,0
152173335015,-2,1,10,5,10,3,1,0
152173335015,-1,-4,1,-10,25,1,-3,-3
152173351471,0,-4,1,-13,0,1,0,-2
152173351471,-6,0,-3,2,-11,0,6,1
152173353017,1,3,35,11,6,-3,-5,-1
152173353017,-1,-6,-15,-2,0,-2,-3,-2
152173365063,2,-3,-13,0,-30,1,2,-3
152173365063,-1,-4,-11,-4,-24,-4,-7,-2
152173374115,-2,-3,-1,-11,-25,-3,5,-2
152173374115,0,7,-5,4,15,-5,-2,-5
152173388280,-5,3,41,7,11,-1,-1,-1
152173388280,0,-7,-25,-9,4,-2,-1,1
152173395038,-1,-1,-6,-5,1,1,-5,1
152173395038,0,-9,-17,-8,-40,-1,0,-2
152173411414,-2,-7,-18,-7,-10,-1,0,-3
152173411414,1,2,45,9,-3,-1,0,0
152173413026,-2,-12,-16,-6,2,-4,0,-4
152173413026,4,-9,-29,-7,-10,2,3,0
152173425086,-2,-8,-2,-2,-16,1,0,3
152173425086,3,-5,-17,-10,-28,-2,-2,-6
152173434045,1,14,15,10,11,-5,-3,-7
152173434045,0,15,38,16,20,-3,-2,-3
152173448269,-1,-2,-10,-1,12,0,-1,0
152173448269,-3,0,11,2,11,-2,-2,-2
152173455087,-2,-10,-31,-14,-15,-2,4,-2
152173455087,-5,-18,-25,-21,-28,-2,-1,-5
152173471470,2,9,26,9,6,-1,-4,-2
152173471470,-3,-1,-13,-3,-6,-5,-1,0
152173473040,0,-3,25,1,-1,-4,-2,1
152173473040,0,-8,-20,-6,-4,1,-2,-1
152173485068,0,-13,-45,-13,-3,-2,-3,-4
152173485068,0,-13,-49,-12,-3,-2,-1,-4
152173494081,-1,-7,-26,-9,-11,0,-2,0
152173494081,0,1,-6,-7,-25,-3,-5,-5
152173508351,-5,-3,-12,-7,-26,2,-2,1
152173508351,2,-6,-6,-6,1,0,-6,-3
152173515089,-1,-2,-13,-5,-33,-1,3,0
152173515089,1,10,48,12,5,4,-2,4
152173530448,-1,-5,-16,-5,-2,-3,-2,-1
152173530448,0,7,10,3,-2,-3,0,3
152173539043,0,-3,-15,-6,-2,3,1,4
152173539043,4,0,2,2,3,-1,3,0
152173545048,1,4,-15,1,-5,0,2,-1
152173545048,1,0,6,-1,-34,0,1,-4
152173554012,-2,18,43,16,17,1,-4,-2
152173554012,-2,-3,-11,-5,-10,2,-6,1
152173568298,0,-6,-19,-11,-31,1,1,1
152173568298,-4,2,-6,1,-12,0,-3,0
152173575030,3,5,29,5,-8,0,-4,1
152173575030,-4,-3,-10,0,3,-1,1,-4
152173590769,-1,5,13,3,16,-1,2,2
152173590769,-2,1,10,6,11,1,2,-2
152173597483,-1,-2,-7,-2,-1,-2,-6,-3
152173597483,-3,2,25,6,7,-7,-2,-3
152173605129,2,-4,14,3,14,1,-2,-1
152173605129,2,4,8,5,4,0,0,-1
152173614031,0,-1,17,4,9,-5,3,-1
152173614031,-1,9,34,6,-3,1,0,3
152173628288,-1,-2,2,-2,5,-2,1,-2
152173628288,-5,-6,-4,-3,15,1,1,0
152173635032,1,-2,-13,-4,-7,-1,-4,-5
152173635032,-1,3,-3,1,-13,-2,-3,3
152173650728,-1,7,17,4,-9,-1,3,1
152173650728,-3,1,9,1,-2,2,0,1
152173657595,0,1,2,2,1,-3,0,-1
152173657595,0,1,5,3,-3,-1,-3,-3
152173673917,-3,-3,-5,-5,-5,-3,-4,-2
152173673917,-2,-1,0,-2,-9,0,0,-2
152173675511,-2,-1,-6,1,-5,0,4,2
152173675511,0,1,4,1,0,-3,6,3
152173688299,1,2,8,4,3,1,-2,-1
152173688299,0,0,12,4,5,0,-4,-2
152173695090,1,7,1,-1,0,-2,-1,-3
152173695090,1,-1,-1,0,-2,-4,0,-2
152173710811,-3,-1,8,0,4,0,0,0
152173710811,-3,0,1,1,-1,-5,1,3
152173717552,0,-2,-2,2,4,-2,-6,-1
152173717552,-1,-4,0,2,-5,3,2,0
152173733926,-5,5,3,-2,-1,-2,-3,-2
152173733926,2,2,13,0,8,-3,-2,0
152173735499,-5,-6,-11,-7,2,-2,1,-3
152173735499,-1,-3,-5,-3,7,3,-3,0
152173748254,1,-2,-5,-2,3,-4,-5,-2
152173748254,1,-2,0,-7,10,1,-2,2
152173755086,0,1,1,2,0,-6,-6,-1
152173755086,-8,-3,-10,-9,-6,-3,-3,-2
152173770750,3,0,3,5,-9,0,0,0
152173770750,0,3,-4,0,1,-2,-3,-4
152173777531,-4,-3,-5,-7,-1,3,2,-6
152173777531,3,2,-4,-2,4,-6,-4,1
152173793847,-3,-2,-4,-7,3,-3,3,1
152173793847,0,-3,-11,-4,-2,-1,-1,-4
152173795481,-3,0,-3,2,-5,-2,-2,-2
152173795481,-1,-2,-5,-5,-4,1,-3,1
152173808290,-3,5,5,10,-3,3,1,4
152173808290,3,-2,-6,-10,-4,-4,-3,-1
152173815077,-4,-3,-7,-4,-3,2,-5,0
152173815077,-3,-2,-6,-4,-6,-1,-1,-4
152173830801,-1,-2,-6,3,3,0,0,0
152173830801,-2,1,5,5,-7,1,0,0
152173837554,2,-3,-7,-5,1,-2,2,-4
152173837554,1,3,-4,-5,0,-1,2,2
152173853996,1,-2,-10,-8,-2,-5,-5,-3
152173853996,0,-3,-2,4,1,-1,5,-1
152173855495,-4,1,-4,-7,-3,-1,-2,-2
152173855495,0,0,-1,7,-5,3,0,-1
152173868209,1,-5,-3,-2,-3,-3,7,2
152173868209,-1,-2,-2,-2,0,2,-5,4
152173875049,-1,-6,-9,-3,-1,-2,0,2
152173875049,1,-3,-8,0,1,0,1,-3
152173890833,1,3,-4,-5,-3,1,-2,-5
152173890833,-2,4,0,7,2,-2,2,2
152173897527,-1,2,-4,5,-1,1,1,2
152173897527,-5,-4,0,-4,-3,-2,-5,-4
152173913913,-2,-1,-1,-4,-3,-1,0,-2
152173913913,1,-5,0,-2,-3,-1,0,-3
152173915524,2,1,3,5,-3,0,-3,-5
152173915524,-3,-2,-10,-1,0,-2,0,3
152173928225,-2,-2,-6,5,-2,-2,-1,0
152173928225,0,2,-3,2,2,-3,4,-1
152173935082,1,-1,9,1,-1,-1,3,5
152173935082,0,-3,-3,-2,-3,-3,1,0
152173950809,-1,2,6,-2,-2,-3,-2,-1
152173950809,-2,0,9,-4,-5,-1,1,1
152173957582,2,1,7,6,0,-4,1,3
152173957582,-3,-4,3,0,-3,-2,0,-1
152173973978,2,1,1,2,0,0,0,-3
152173973978,-2,-1,-3,2,3,-4,0,0
152173975511,-1,-3,2,3,1,2,-2,-3
152173975511,-1,-4,4,8,1,5,-3,0
152173988272,-2,-5,0,6,-1,-3,-3,2
152173988272,-3,0,-5,6,0,-1,-1,-2
152173995087,1,-1,0,2,-2,-1,-2,-2
152173995087,0,5,0,-4,-1,-5,-5,-5
152174010833,3,-1,-4,-4,-1,-1,-6,1
152174010833,4,-1,-2,8,-1,0,-1,1
152174017562,-1,0,-3,2,0,-1,-1,-1
152174017562,0,1,-2,-8,0,-3,3,0
152174033955,-2,-3,-2,5,0,3,-2,0
152174033955,2,-2,-6,2,-1,1,-1,0
152174035555,0,2,-4,-2,-3,2,-1,-1
152174035555,0,1,-4,0,-1,-3,1,-1
152174048238,-3,0,0,2,-2,1,2,-6
152174048238,-1,-1,1,-2,-2,-1,-2,-3
152174055057,-2,0,0,7,0,-6,0,-2
152174055057,1,7,2,10,-3,2,-1,0
152174070677,-5,-4,2,1,0,0,-2,3
152174070677,-2,-1,2,5,3,-1,-1,-3
152174077578,-2,-3,-1,10,2,2,-4,2
152174077578,-3,-5,-4,-3,1,0,0,0
152174093938,-1,-1,-3,12,2,2,1,1
152174093938,-3,-2,5,9,1,1,-4,5
152174095536,-2,-2,-1,1,-1,1,-1,-3
152174095536,1,-4,-3,-1,1,0,3,-2
152174108245,-2,5,-4,4,-1,3,2,-4
152174108245,-1,-3,1,1,-3,-3,-6,-8
152174115013,0,5,2,-4,-4,0,-5,-7
152174115013,2,-5,1,-3,-2,-4,-2,2
152174130831,-3,-4,-3,-2,-3,-2,-4,-2
152174130831,0,3,0,-1,0,-3,-5,-3
152174137554,-2,0,-3,8,-1,2,-2,-3
152174137554,0,-1,-4,-3,-2,-4,-3,-5
152174153912,-2,-1,-3,2,-2,-5,0,0
152174153912,2,0,-2,-1,-4,0,4,-3
152174155504,0,-1,3,-2,2,0,1,2
152174155504,-7,4,1,10,1,3,1,-1
152174167579,0,-2,0,-1,1,-3,-3,-5
152174167579,-4,-4,-5,1,1,-4,-2,-5
152174176536,-3,-5,-1,-22,-3,-8,-1,-3
152174176536,3,-4,-2,1,-2,-2,2,-5
152174190670,1,1,-3,-6,1,-3,-5,-4
152174190670,1,0,-3,-7,0,1,0,0
152174197580,0,-2,3,3,1,1,2,2
152174197580,-2,0,2,9,1,-1,-3,2
152174214053,-3,-5,-1,-1,-2,-2,-1,0
152174214053,-6,-3,-2,0,-1,-2,0,-1
152174215529,0,-3,-5,-4,-2,3,-4,-4
152174215529,-2,-1,2,0,2,-3,1,1
152174227585,-1,2,-1,7,-1,-3,2,-2
152174227585,-1,-4,0,-3,-3,-4,-3,0
152174236601,1,5,-4,7,-1,-1,-1,0
152174236601,0,-3,-3,-3,-2,2,-3,1
152174251552,5,-2,1,-5,0,3,-1,2
152174251552,-2,-1,-3,2,0,5,-2,1
152174257541,-1,-2,-1,-1,-1,-2,-2,-3
152174257541,-1,-1,-2,1,-1,0,-8,-3
152174273027,3,0,-2,-1,-1,-2,1,2
152174273027,0,-1,1,3,-1,2,-2,0
152174280099,-1,0,-3,0,1,1,1,-3
152174280099,-4,0,-5,1,0,-3,-5,-2
152174295812,0,-3,1,3,-1,2,-2,0
152174295812,2,-4,0,0,-1,5,-1,-1
152174296530,-3,-3,-5,-2,0,-4,-5,-1
152174296530,-4,0,-1,-4,-3,-3,1,-4
152174311644,-1,-6,0,-9,0,-4,-1,-2
152174311644,-7,2,-5,-2,-1,-2,3,0
152174317622,-1,-4,-1,6,-1,6,3,1
152174317622,3,-1,-2,1,-1,3,2,1
152174333250,1,0,-3,-4,-1,-1,-3,-2
152174333250,2,-2,-1,9,-1,-2,-4,0
152174334021,-4,-2,-2,-1,1,-5,-1,-2
152174334021,2,-3,1,-1,-2,-4,2,-2
152174355800,-3,4,0,8,-2,-1,1,-4
152174355800,-2,5,-5,-5,-2,-1,-2,1
152174356518,4,-4,0,3,-1,-1,-5,-4
152174356518,0,0,1,1,1,-2,-1,-1
152174371557,-2,0,0,2,0,-2,-4,-2
152174371557,2,-5,0,4,-1,1,2,-2
152174377556,-3,-6,0,10,-2,-2,1,5
152174377556,1,-2,1,1,-1,3,0,-2
152174393216,-4,-5,0,-10,-1,0,-3,-1
152174393216,-2,0,-1,6,1,-2,-1,-4
152174393962,-2,1,0,-3,-1,-3,-4,1
152174393962,0,-2,-3,-5,-1,-3,-5,-3
152174415672,1,-2,-1,8,-1,5,1,2
152174415672,2,-5,0,-5,-2,-1,-4,-3
152174416554,-2,1,2,1,0,0,-5,-4
152174416554,-2,-2,-2,-5,0,-3,-4,-1
152174431611,-2,-3,-2,4,0,-1,1,0
152174431611,4,4,2,3,1,-5,1,-2
152174437521,-4,-1,0,-17,-1,-7,-3,-4
152174437521,0,-4,1,4,-1,0,-2,-5
152174453232,3,1,-4,6,0,-1,1,1
152174453232,0,-4,1,-1,-2,3,0,1
152174454006,-1,-3,-7,5,0,0,-1,-2
152174454006,-1,-2,0,4,1,4,0,0
152174475724,1,2,-3,-1,1,-3,-1,-3
152174475724,-2,-1,0,4,-1,2,0,1
152174476501,1,1,2,4,1,0,-3,-3
152174476501,-3,-1,0,-2,-1,-1,1,7
152174491623,-3,-4,0,-3,-2,-2,0,-2
152174491623,0,-3,-2,-3,-1,-5,-1,-4
152174497553,-2,-3,0,-1,-1,0,0,4
152174497553,-2,0,-3,-3,0,0,-2,0
152174512583,-2,1,-1,-2,-3,-2,1,-3
152174512583,-4,0,-3,3,2,3,-4,1
152174520075,2,-1,1,-2,-1,2,-1,2
152174520075,-1,-3,-5,1,1,3,-4,-3
152174535817,0,0,-2,3,-1,-1,-1,-1
152174535817,-2,-4,-5,-9,-4,-5,-3,-4
152174536504,-2,-1,0,0,0,-3,1,-3
152174536504,-2,-1,-2,-9,1,-2,-3,-6
152174551560,-3,-3,-4,-7,-1,-3,-1,0
152174551560,0,-3,0,1,1,1,-1,-4
152174557620,0,-3,-3,-2,-2,2,-3,3
152174557620,2,-3,1,-6,-4,-2,1,-5
152174572587,-7,0,-3,-4,0,0,1,0
152174572587,-1,0,-1,-5,-3,-3,1,-5
152174580104,0,-1,5,5,-1,5,1,-1
152174580104,0,-3,-4,2,0,0,-2,-3
152174595805,-1,-2,-2,-5,-1,-1,-2,0
152174595805,0,3,-4,6,1,1,3,2
152174596525,-1,-2,-5,-4,-1,-5,-1,-3
152174596525,-1,6,4,10,-1,-2,4,-2
152174611623,4,4,5,13,-3,-1,-4,0
152174611623,0,-1,-1,-8,-1,-4,-3,-1
152174617546,-2,3,-6,4,-2,2,-5,-2
152174617546,-1,2,-2,6,2,0,3,1
152174632607,-2,2,-3,-1,-1,-1,0,-1
152174632607,1,-5,-1,6,1,1,-2,0
152174640105,4,-2,-3,1,1,-3,-6,-4
152174640105,-1,-1,-1,-6,0,-2,-1,-1
152174655687,3,1,0,10,0,2,-3,1
152174655687,-3,1,0,1,1,-6,0,5
152174656533,0,1,2,-8,-1,0,6,0
152174656533,-2,-2,-3,3,-1,4,-1,-2
152174671528,0,-8,3,3,-2,2,-4,-6
152174671528,1,1,3,-13,-2,-1,-6,-4
152174677603,-4,-4,-3,-3,-3,-5,-2,3
152174677603,0,-2,1,1,-1,-3,-2,0
152174692589,0,2,-1,1,2,1,-2,1
152174692589,-3,0,0,5,2,1,-1,1
152174700054,-1,-1,2,7,-1,2,0,0
152174700054,-1,5,2,1,-2,-3,-2,3
152174715767,0,-5,-1,6,-1,-2,0,-2
152174715767,-2,3,2,-3,-5,-1,-3,-2
152174716563,4,1,0,-7,0,-2,0,3
152174716563,-3,-2,-2,-7,0,3,-4,-3
152174731556,1,0,0,1,-2,2,-1,-1
152174731556,0,2,-5,-4,-4,5,2,0
152174737589,3,-3,0,5,-4,-3,2,2
152174737589,0,-4,-3,5,-1,0,2,-1
152174752637,-1,1,-2,-7,-2,-3,-1,0
152174752637,1,-4,-4,-11,-1,-1,-7,1
152174760121,-2,-3,-4,3,5,3,2,0
152174760121,2,0,-4,-9,-7,-6,-2,-1
152174775813,-1,1,-5,-10,13,-3,-3,1
152174775813,-3,-2,6,5,4,-2,5,2
152174776479,4,2,-3,-14,1,-3,5,-3
152174776479,0,-3,4,-5,4,0,1,0
152174791622,0,0,0,10,-6,4,1,1
152174791622,-1,-1,-4,10,-9,1,-1,-3
152174797633,-2,0,-3,-3,-2,-2,5,-2
152174797633,-2,2,1,5,3,1,-2,1
152174812583,1,-1,-1,-2,-4,-1,1,-1
152174812583,-1,2,4,19,12,1,0,2
152174820082,-3,-4,-2,-7,38,3,-1,3
152174820082,-1,-3,-3,-5,38,-4,-5,1
152174835806,0,0,-5,-15,37,-4,-1,0
152174835806,-1,-1,0,-21,43,-2,0,-5
152174836533,-5,1,-3,-16,-10,-4,-1,-1
152174836533,-1,0,-1,23,-95,3,2,1
152174851594,3,-5,1,23,-40,1,-4,1
152174851594,-1,-2,-3,20,-66,-2,-3,-1
152174857573,-1,-3,-1,31,-22,-1,-4,-5
152174857573,0,-4,-1,-4,-16,-4,2,-5
152174872612,-3,1,-4,14,-38,-4,4,-2
152174872612,-6,-4,-2,1,-17,-1,-4,-2
152174880138,1,4,-7,7,16,-1,-6,-7
152174880138,-1,-2,0,14,32,-5,-3,2
152174895864,-3,0,16,6,45,3,0,-2
152174895864,-1,4,16,-3,44,-1,2,-4
152174896549,1,4,16,11,31,-1,-4,-1
152174896549,0,2,12,7,17,3,2,-2
152174911538,-1,-2,5,-3,9,-6,2,3
152174911538,0,-3,11,-2,26,-6,-4,1
152174917637,-2,-4,2,-1,6,-4,-3,0
152174917637,2,-10,-28,-18,-10,0,-2,-4
152174932674,-6,-1,5,-8,-3,0,-5,-1
152174932674,4,10,34,15,-7,0,5,-2
152174940108,0,-13,-51,-23,-38,0,3,0
152174940108,3,-9,-1,-8,-13,-2,-1,-5
152174955739,-2,-5,32,5,-13,1,0,-6
152174955739,1,-15,-12,-4,-12,-3,-1,1
152174956519,-5,-3,-24,-6,-19,-2,-5,-3
152174956519,-5,-16,-12,-11,-38,0,-1,-3
152174971610,3,2,-9,-8,-22,-4,2,1
152174971610,-2,6,-12,-3,-12,5,2,0
152174977611,-4,-10,4,0,-7,-3,0,1
152174977611,1,-1,-4,2,15,1,1,0
152174992572,-2,11,8,6,-3,-7,-1,-1
152174992572,-4,-12,-47,-12,-5,-3,-1,-1
152175000009,2,0,-2,-3,-18,1,0,-4
152175000009,-1,5,-5,0,9,-2,-1,1
152175015727,-2,-9,-29,-15,-34,1,-4,-3
152175015727,-1,13,48,12,-6,-2,-1,-4
152175016554,0,-11,-27,-6,-13,0,-4,-3
152175016554,-4,0,18,11,3,-1,-3,-2
152175031531,-4,-14,-47,-13,-4,0,-6,0
152175031531,-3,-22,-62,-22,-11,-8,-7,-3
152175037637,-2,17,24,14,-5,-2,3,-3
152175037637,1,5,0,1,3,0,-3,-3
152175052611,-1,-3,5,1,0,-2,0,-2
152175052611,2,-11,-26,-10,-13,-2,-1,0
152175060070,-2,7,-2,4,35,1,-4,-5
152175060070,3,16,40,12,-3,-1,-1,3
152175075802,-1,-7,-29,-3,16,-5,3,-7
152175075802,-2,31,39,29,22,-2,1,2
152175076561,-3,-6,0,-9,-16,1,-1,0
152175076561,0,1,9,6,6,-4,-2,3
152175091621,0,-10,-32,-17,-33,1,-2,3
152175091621,1,4,4,1,-6,0,-1,-2
152175097585,3,-4,9,-1,-10,-3,-4,0
152175097585,-4,9,-15,4,-1,-1,0,-1
152175112648,1,4,14,3,9,1,2,4
152175112648,-2,-12,-30,-14,-6,2,-3,-3
152175120055,-3,6,3,4,2,0,-2,-2
152175120055,-7,-6,-26,-13,-15,0,1,2
152175135769,-3,-4,-9,-5,2,-3,1,-7
152175135769,2,1,-10,-8,-1,2,2,-1
152175136539,0,-11,-16,-5,-35,-1,1,-2
152175136539,-3,3,-7,3,2,2,-1,-1
152175158318,0,3,-6,-3,-31,3,0,-3
152175158318,-1,-3,20,6,-1,2,0,2
152175159083,-2,12,19,4,4,-6,3,-1
152175159083,4,-5,-18,-8,-10,0,1,-6
152175172644,2,-1,-1,0,-8,-4,-5,1
152175172644,3,-1,-11,-3,-10,-2,-2,4
152175180112,0,-4,37,9,-10,3,3,3
152175180112,-2,-9,-40,-13,-15,-3,-3,-2
152175195781,0,9,48,18,13,-3,1,0
152175195781,-2,13,6,14,25,-2,-7,1
152175196452,-1,-8,-16,-5,12,-3,-2,-2
152175196452,-3,-7,-38,-11,-32,2,-2,1
152175211578,0,1,34,10,6,0,-4,-1
152175211578,1,12,70,15,-12,-2,0,4
152175217573,3,-11,-21,-8,-13,2,1,0
152175217573,0,1,25,7,5,-4,4,-3
152175232655,0,-6,-35,-12,-12,-5,-5,-3
152175232655,-3,-11,-27,-9,-3,3,8,-5
152175240131,2,6,-4,1,-23,-5,-5,0
152175240131,0,-4,13,2,1,-3,-6,-3
152175255732,0,3,10,3,6,1,3,-1
152175255732,-2,5,-8,1,-9,-5,-1,-1
152175256525,-3,10,21,11,6,1,2,2
152175256525,-1,-1,44,9,8,-1,-6,-3
152175271590,3,-15,-21,-8,9,-2,-1,-2
152175271590,-2,0,-19,5,-17,3,2,1
152175277625,0,1,-10,-3,-25,-3,3,1
152175277625,-2,13,4,12,10,-2,-2,0
152175292636,-1,0,-31,-3,-1,1,-1,-3
152175292636,1,-7,-22,-5,-17,-4,-1,-7
152175300124,-1,-4,-7,0,12,1,-3,-2
152175300124,-1,-7,-24,-9,-33,-2,-1,-2
152175315804,-3,-5,44,5,-12,0,-3,1
152175315804,3,-8,-13,-6,-2,-5,-6,-3
152175316552,-3,-3,-17,-4,2,-1,-1,-3
152175316552,-3,-3,-12,-4,8,0,0,-4
152175331572,-2,-1,-18,-5,-11,2,-5,-1
152175331572,-2,-6,-9,-3,9,1,1,3
152175337554,0,1,9,5,12,-2,-3,-3
152175337554,2,0,-5,-7,5,4,-2,2
152175352615,0,0,-15,-9,4,-3,-1,-1
152175352615,-4,-10,-12,-4,12,6,0,-5
152175360085,0,1,10,1,-7,1,-2,4
152175360085,-2,-1,15,4,-13,-3,-1,-1
152175375821,1,8,7,7,-7,-1,0,-1
152175375821,-1,-10,-5,-10,-15,-1,-2,-3
152175376576,0,1,12,1,2,-6,-4,-2
152175376576,1,-1,12,2,-2,-1,1,-3
152175391575,-4,-2,-2,2,-1,1,-1,1
152175391575,0,-3,-6,1,-8,0,-7,-4
152175397594,-1,0,-3,0,-6,-2,3,-4
152175397594,-1,0,-2,-1,1,-5,1,4
152175412611,-5,-6,-4,-8,3,0,5,-1
152175412611,-3,-3,-4,-5,-5,-2,0,1
152175420089,1,-1,3,1,-1,2,-4,3
152175420089,-3,0,5,1,5,-3,-6,-2
152175435139,-3,-2,5,11,11,-3,2,1
152175435139,-4,0,4,-8,3,-1,1,-3
152175442607,0,-2,3,1,-7,3,-1,-2
152175442607,2,0,-1,3,3,-2,-4,-3
152175451597,1,1,-4,1,-7,-2,-3,-4
152175451597,1,-7,-2,-3,-5,-5,2,0
152175457680,-4,1,-4,5,-6,3,-1,2
152175457680,2,-3,1,3,4,-1,2,2
152175472582,-2,2,5,10,-1,3,1,2
152175472582,1,0,2,3,-6,-2,-1,0
152175480006,5,0,-1,4,2,-4,-1,-3
152175480006,6,0,2,16,1,1,-2,1
152175495071,0,-1,0,-3,-4,0,2,-1
152175495071,0,-1,1,1,-11,-2,3,7
152175502545,-5,0,-6,1,-5,1,-1,0
152175502545,-1,2,1,-7,-1,-4,-3,-4
152175511572,1,3,-5,4,-2,-1,-4,0
152175511572,6,-1,2,7,-8,0,-5,-3
152175517564,-4,0,8,1,1,-2,-2,-4
152175517564,-6,-1,-1,-12,-4,2,-2,-2
152175532555,-2,0,-2,5,-1,0,-3,0
152175532555,2,-3,3,4,-2,3,-1,-2
152175540129,4,-2,-2,-1,-5,-5,-1,0
152175540129,1,-1,-4,3,-6,-1,0,-1
152175555081,1,-2,-2,-1,-2,-2,-3,-2
152175555081,-4,0,-2,3,-2,-1,-2,0
152175562542,-3,-1,-1,12,-2,3,-1,-2
152175562542,-2,-6,-4,5,0,-1,-3,-2
152175578167,2,1,2,-1,-1,-3,-3,-2
152175578167,3,2,0,15,-4,-1,0,0
152175578994,-1,-2,-1,-4,-1,-2,-3,-3
152175578994,0,-2,4,0,0,2,-1,1
152175592546,-2,-3,1,-1,-4,-1,-3,1
152175592546,-2,3,-5,2,3,2,2,2
152175600032,5,-3,-1,5,3,0,1,0
152175600032,-3,-3,0,-7,-3,-3,0,-2
152175615044,0,-2,-2,-2,1,1,-2,-6
152175615044,-1,-2,3,3,0,-4,-3,-3
152175622556,-2,-1,-1,5,1,-4,0,-2
152175622556,-5,0,-4,6,-1,1,0,2
152175638223,-3,-1,-2,1,2,0,-2,1
152175638223,2,2,0,2,-1,-1,-5,-3
152175639094,-3,-4,-3,-8,1,-3,-4,-1
152175639094,0,2,5,1,-1,1,0,-3
152175652566,0,-2,-4,-6,-1,-6,-6,0
152175652566,-3,-3,-8,-15,-1,-5,1,-3
152175660070,0,-6,-1,-10,0,0,4,-4
152175660070,3,-3,-1,-1,-1,-5,2,2
152175675022,1,2,-3,-6,1,0,-2,3
152175675022,0,-2,-5,-2,-1,-4,-2,4
152175682583,0,-3,-1,-10,2,4,-1,2
152175682583,-4,-5,-2,-1,3,3,3,0
152175698204,-1,1,-1,7,-2,2,4,-5
152175698204,-1,-1,1,2,-2,-1,2,-1
152175698985,-4,-2,0,-13,-4,-2,-5,-1
152175698985,0,-1,1,1,0,1,-4,1
152175712571,-1,2,-3,-1,-2,0,-3,2
152175712571,-3,-2,2,-7,1,1,-4,-4
152175720073,-3,0,-5,0,-1,3,-3,0
152175720073,5,1,-4,-5,0,-1,-3,-4
152175735069,-1,-4,-3,2,-1,-1,-2,0
152175735069,-2,-1,-1,-1,-1,1,0,-3
152175742626,-2,1,1,2,0,-8,3,0
152175742626,3,-5,-8,-5,-2,-2,1,-3
152175758212,-2,5,-1,-2,1,-2,-1,0
152175758212,2,-4,-3,0,1,-1,-3,-3
152175759060,-2,-3,0,6,0,1,4,-1
152175759060,0,3,0,-1,-3,-6,0,0
152175772678,-2,-3,7,8,0,1,2,-1
152175772678,-3,-2,1,-2,-5,5,0,1
152175780127,1,-2,0,0,-2,-1,-2,7
152175780127,0,3,-3,-3,-1,3,1,-1
152175795046,0,-4,0,-5,-4,-3,1,-3
152175795046,-1,0,-6,-11,-3,-6,0,-3
152175802671,-2,-6,-8,-1,-3,0,-1,-4
152175802671,-2,-2,1,0,-2,1,-3,-5
152175818309,3,-4,0,1,0,-1,-2,2
152175818309,-7,-2,0,-6,-1,2,4,-5
152175818977,-1,3,-1,0,-1,-3,1,1
152175818977,-5,-3,-3,-4,-3,-2,4,2
152175832676,-2,-2,-1,2,0,3,1,-4
152175832676,1,0,-3,-4,1,-2,0,-2
152175840148,-1,-4,-1,1,0,1,-8,-1
152175840148,-3,2,0,14,0,5,5,0
152175855120,-2,0,-3,-4,-1,-2,1,-2
152175855120,-4,-3,2,2,-1,1,5,-1
152175862657,-1,1,-2,-2,0,-1,3,0
152175862657,-1,4,2,-1,-1,-3,-4,0
152175878295,-1,-3,-4,1,-1,-2,1,-2
152175878295,-2,1,2,9,-1,-3,-6,-4
152175879051,1,2,3,0,-3,-5,-4,-1
152175879051,-2,0,-1,-2,-2,-2,0,0
152175892636,1,3,0,4,0,-4,-2,-2
152175892636,-3,-2,-5,-11,-2,-3,-3,-6
152175900042,-3,-2,3,1,-5,3,1,0
152175900042,0,-7,2,3,2,-2,-5,-2
152175915081,-1,-3,1,-2,-2,-1,-1,-2
152175915081,5,-2,0,6,-2,3,-3,2
152175922628,0,3,-2,14,-1,-1,-1,-2
152175922628,0,2,-1,1,0,-1,0,1
152175938257,-2,1,-1,2,-1,0,-4,0
152175938257,1,-2,0,8,0,-2,-7,-1
152175939073,-1,-1,2,-6,0,0,-5,-3
152175939073,0,1,-2,5,0,5,0,0
152175952550,0,-6,-4,-2,0,-3,0,-3
152175952550,1,1,-4,2,-1,-1,0,7
152175960110,-4,-2,-5,3,1,-2,-3,-3
152175960110,1,-3,-1,7,0,-2,1,-1
152175975171,-6,2,-3,-3,-3,-2,-1,-3
152175975171,-1,-2,3,8,1,1,2,1
152175982574,4,-1,-5,0,-1,-4,0,1
152175982574,2,-1,-3,-3,-3,-3,-4,0
152175998311,-2,2,-1,12,-3,-2,0,0
152175998311,-3,-6,-2,-6,2,-3,2,0
152175999045,-4,-1,1,2,2,0,-2,-3
152175999045,-1,1,0,-1,-1,-6,1,-2
152176012581,4,-6,1,-5,0,-5,-1,-4
152176012581,-1,-3,2,-5,-2,1,2,-3
152176020163,0,-2,1,-2,-1,-2,-1,0
152176020163,-2,-7,0,-1,-1,-4,-4,-1
152176035086,1,1,-1,-10,2,-7,-6,0
152176035086,-1,2,0,0,-1,-6,1,-2
152176042514,-1,1,5,1,0,1,-1,-3
152176042514,-1,-4,-6,-2,-3,2,-4,0
152176058256,0,-2,1,-6,-2,-1,1,-2
152176058256,0,-4,-3,-3,0,1,-3,-1
152176059042,1,0,0,-11,-4,-4,0,-2
152176059042,-4,-1,0,-8,-1,-6,-6,-7
152176072611,-3,-1,-2,-5,-1,4,0,5
152176072611,-1,2,-2,0,-2,3,-2,0
152176080145,-1,3,-1,-4,0,-3,1,0
152176080145,-2,-2,-3,-2,2,-1,4,-1
152176095122,-2,-8,-7,-4,-2,4,4,0
152176095122,-2,3,-2,3,-1,-2,-3,-1
152176102593,-3,-1,2,-7,-2,1,1,-3
152176102593,-3,-4,4,-5,-3,0,-2,-5
152176118268,-3,-2,-1,-4,-3,1,-1,-6
152176118268,-3,-4,-1,-16,-3,-8,-1,-4
152176119043,1,-2,-1,12,0,4,0,1
152176119043,-4,-3,1,-5,-1,3,-2,-4
152176132572,-1,3,4,6,0,-3,0,0
152176132572,-1,0,1,1,-1,0,-4,0
152176140054,-1,3,-5,-4,-1,-2,-2,0
152176140054,-4,-1,1,4,-1,2,2,4
152176155083,-3,0,-2,-2,0,-4,2,3
152176155083,1,0,4,7,0,2,-3,-3
152176162598,0,-7,0,-5,-2,-1,-1,-3
152176162598,1,2,-1,7,-2,3,-1,-3
152176178249,1,-1,-1,-3,-2,-3,0,-3
152176178249,0,-4,-1,1,0,0,0,3
152176179001,-6,-1,-3,-7,-1,-1,1,-3
152176179001,-3,-1,-3,-14,-3,-2,-4,1
152176192630,-1,3,2,4,-3,-5,1,-2
152176192630,-5,-1,1,-8,-2,0,1,-3
152176200074,-3,2,0,8,0,1,0,-3
152176200074,-1,-2,-3,-1,0,-2,-1,1
152176215071,-2,-1,1,1,0,0,-1,-4
152176215071,0,-4,-7,1,-2,1,-4,-2
152176222611,-2,0,-3,6,-1,-4,-2,0
152176222611,-1,1,-3,4,2,-1,1,2
152176238212,1,-2,3,-2,-2,-2,-5,-4
152176238212,-3,2,-4,-2,-1,-1,-7,2
152176238989,-1,-4,-1,0,-1,0,2,-2
152176238989,-1,-4,0,5,1,-1,-2,-1
152176252556,1,5,-4,15,3,1,-1,5
152176252556,-3,-1,1,3,-1,-1,-1,0
152176260034,-4,-1,0,-1,-2,-3,0,-1
152176260034,-4,0,-1,1,-2,0,1,-1
152176275064,0,-3,-2,-6,-2,-3,-4,1
152176275064,-1,1,1,-6,-2,-3,-1,-7
152176282538,1,0,2,2,-1,1,-4,0
152176282538,-4,-5,1,-10,-3,-3,2,-2
152176298198,0,4,-2,0,-1,-1,-3,1
152176298198,1,6,-1,3,1,-2,-2,1
152176299013,-2,-1,-1,-5,-3,-2,-4,-5
152176299013,2,1,1,6,0,0,-2,-1
152176312560,-4,-1,-3,-1,-1,-3,-2,1
152176312560,-2,-6,-2,-5,-4,-1,5,2
152176320071,-1,-3,0,-2,-1,-2,2,-1
152176320071,6,2,-3,6,0,-3,-1,0
152176335063,2,-1,2,4,1,3,-2,-2
152176335063,0,-1,-1,9,0,2,1,4
152176342593,0,-2,-4,-5,0,-3,0,2
152176342593,-3,-6,-3,1,-2,-1,1,-5
152176358241,-1,0,-2,-6,-3,-1,0,-3
152176358241,-1,-2,0,-4,-4,-4,0,-2
152176359026,1,-4,-4,2,1,-5,-1,-4
152176359026,-6,-1,1,-6,-1,-7,-3,0
152176372593,-2,1,-1,2,-1,5,-3,1
152176372593,2,-2,-3,-7,0,-1,0,0
152176380047,2,0,-4,8,2,-4,-2,4
152176380047,2,3,-2,10,0,1,0,1
152176395095,-3,-3,-2,-5,1,0,0,-4
152176395095,-4,3,-2,3,-3,-3,-3,0
152176402596,-4,-1,3,1,-1,1,-1,-3
152176402596,6,1,-1,0,0,-1,4,-4
152176417637,0,-1,-2,-7,-3,-6,-5,0
152176417637,-5,-5,-5,-8,1,-3,-4,-6
152176425803,-2,2,-6,-7,-2,-1,-4,-3
152176425803,1,-6,-5,-9,-3,-1,-4,0
152176432646,2,-6,-2,0,-2,0,-2,-1
152176432646,-1,-3,-2,-6,-1,0,-1,2
152176440181,1,-5,-1,-11,0,-2,-4,-1
152176440181,-4,-1,-1,-11,-2,-5,-3,-2
152176455092,0,-6,-1,3,0,-2,0,-3
152176455092,-6,1,-4,-1,0,-4,-2,-1
152176462618,0,-1,3,-4,-4,2,-2,3
152176462618,-6,-6,-2,-1,-1,-4,0,2
152176477636,-9,-1,-2,-9,-3,-3,8,-3
152176477636,1,1,-2,-3,1,-1,-3,1
152176485812,1,5,-1,10,-1,-2,4,6
152176485812,-1,1,-1,2,1,1,4,2
152176500834,-3,-1,0,-5,-3,-4,-3,0
152176500834,3,-1,1,8,-2,3,5,0
152176501460,-1,2,-3,-6,-1,-3,-4,-5
152176501460,0,-4,-5,-4,-1,-1,-6,-5
152176515171,1,2,-5,5,1,-1,-2,2
152176515171,0,0,0,-4,-3,-3,-3,-1
152176522600,-2,-4,2,5,0,1,0,-1
152176522600,0,2,3,0,-3,-5,-4,3
152176537568,1,-3,-3,-5,0,-1,0,1
152176537568,-7,-3,-1,-4,-2,-4,0,-7
152176545833,-2,1,1,7,-1,-2,-3,-2
152176545833,-4,-1,1,1,-1,0,2,-1
152176560846,-1,-5,-1,1,-2,1,0,3
152176560846,0,3,-5,-2,2,-6,-5,1
152176561574,-2,-2,-1,2,-3,-3,-4,2
152176561574,-2,2,-2,3,-2,4,-1,-1
152176575124,2,0,6,1,1,1,-6,-2
152176575124,3,3,-2,6,1,-5,-2,0
152176582650,0,1,-2,1,1,-1,-2,-5
152176582650,-2,1,-6,3,0,-6,1,3
152176597632,-2,2,-2,3,-1,0,-5,1
152176597632,1,3,4,10,-1,0,2,-1
152176605826,-4,-1,-3,-5,-2,0,-1,-1
152176605826,0,0,-1,3,0,0,-4,-3
152176628912,-1,1,0,-1,-1,-1,4,-1
152176628912,6,1,0,3,0,4,-1,2
152176629722,-3,-5,0,0,0,-3,2,-2
152176629722,-2,1,-4,-3,-3,-5,-5,-2
152176635109,-3,0,-2,-2,0,1,-5,-1
152176635109,-5,-2,-5,2,-2,4,1,-1
152176642513,1,-4,-1,-3,0,3,1,-2
152176642513,0,-2,0,4,-1,1,-2,2
152176657624,-1,-2,1,10,9,-1,0,-1
152176657624,-2,-4,0,-10,-4,0,-3,-3
152176665825,1,1,-7,-6,-1,-6,-1,-7
152176665825,0,0,3,5,0,0,0,-1
152176680804,-5,0,-2,12,-4,1,1,2
152176680804,2,2,1,0,1,2,-5,-1
152176681548,-2,0,-2,-2,0,0,-1,3
152176681548,0,0,0,-3,-5,1,0,3
152176695119,-1,0,1,-3,-4,-2,2,-5
152176695119,-5,-7,4,9,3,0,2,1
152176702570,-3,-4,-5,-4,-2,-2,-1,0
152176702570,-1,-5,-4,0,15,-2,0,-3
152176717615,-2,-2,0,-4,1,-3,4,-3
152176717615,-5,-2,-2,-6,-7,-2,1,-1
152176725804,0,1,0,-3,7,-2,-1,1
152176725804,-1,1,-3,-7,2,-4,-5,-1
152176740762,-2,-2,-2,7,7,0,-9,2
152176740762,-5,1,-2,5,10,-2,1,1
152176741561,1,-1,-1,7,-5,-1,-2,-2
152176741561,-5,1,-3,-1,13,0,-1,-4
152176755098,1,0,-1,-7,18,1,1,1
152176755098,2,-2,0,5,7,0,-1,1
152176762627,-1,-6,-3,7,3,3,1,-2
152176762627,5,4,2,13,-8,2,-3,-1
152176777630,-3,-9,1,-15,3,-6,-3,1
152176777630,0,-1,-3,-37,22,-1,-4,-6
152176785763,1,-3,-3,-36,-3,-3,-2,-1
152176785763,1,5,-1,25,-38,-3,1,3
152176800779,-1,-1,-5,21,-42,3,0,2
152176800779,2,3,-4,16,-43,-9,-1,-5
152176801537,-1,-4,-2,20,-15,-4,-2,-3
152176801537,-4,-6,-2,-14,-23,-4,1,2
152176815049,3,3,-5,-27,2,0,4,-4
152176815049,-1,-8,-1,6,1,-2,-3,3
152176822601,1,-1,0,15,-16,-4,-3,-1
152176822601,-3,-2,4,10,-4,6,-3,-3
152176837534,-4,-2,-17,-1,-24,-3,-6,0
152176837534,-2,-5,-7,-13,-6,-2,-4,3
152176845769,-2,3,8,11,5,3,-3,3
152176845769,2,-1,2,-9,6,-6,1,1
152176860752,-2,-4,12,4,1,-3,-2,-1
152176860752,-4,3,39,34,24,7,2,-1
152176861462,-2,-1,-7,9,-9,0,-6,2
152176861462,0,3,11,12,0,5,0,-2
152176875072,2,4,17,7,22,-7,-5,3
152176875072,0,-5,-13,-15,-21,-4,-3,6
152176882541,-2,-4,-19,-10,-34,2,0,0
152176882541,1,0,30,15,29,2,1,0
152176897552,1,7,30,1,12,1,0,-2
152176897552,-1,11,19,6,-11,-3,-2,-2
152176905768,-2,1,-17,-17,-7,1,-5,-1
152176905768,-1,-11,-36,-28,-45,3,1,-1
152176920762,-2,-13,-25,-10,-31,-3,4,1
152176920762,-1,-10,-32,-24,-47,-2,1,-2
152176921516,-1,8,33,1,10,-3,2,-2
152176921516,-1,3,36,9,13,-8,-1,1
152176936642,1,4,38,18,3,2,0,3
152176936642,2,7,36,17,7,-1,1,0
152176942660,2,-13,4,-9,5,1,6,3
152176942660,-2,-13,-2,-2,-8,1,-1,0
152176957671,0,-7,-23,-11,-8,2,5,1
152176957671,0,-20,-22,-23,-41,1,-2,-2
152176965906,2,-9,-16,-7,-21,2,1,-4
152176965906,3,9,10,2,6,-2,0,-1
152176980771,-7,-7,-18,-4,-4,0,3,-2
152176980771,0,2,4,2,9,1,-1,0
152176981530,1,-3,11,4,6,-3,-1,0
152176981530,-2,-1,-5,-8,1,0,-4,0
152176995066,-1,-8,-15,-10,-28,0,-6,-5
152176995066,-1,1,12,1,-4,-2,2,-7
152177002627,-1,-4,-10,-4,5,0,-4,-1
152177002627,3,-4,27,7,2,-3,5,4
152177017599,2,0,-15,1,-22,1,3,-2
152177017599,0,1,36,14,5,6,-1,1
152177025824,2,-3,-20,-6,-22,-1,-4,-2
152177025824,-2,5,17,4,0,0,-2,-4
152177040808,2,-4,6,-2,6,0,1,-1
152177040808,-4,-11,-29,-10,-10,-4,4,-3
152177041569,-1,-1,16,1,-6,-7,-1,-1
152177041569,0,-12,-34,-11,-17,1,-2,-4
152177055134,2,-4,35,10,9,0,-2,-1
152177055134,-2,0,-1,1,14,-1,1,-1
152177062652,-3,6,41,14,6,-2,6,-2
152177062652,-2,-14,-36,-25,-41,0,-3,-3
152177077682,3,-3,-25,-7,-34,1,-4,1
152177077682,3,-2,-7,0,7,0,-4,1
152177085725,2,-16,-40,-28,-71,-2,3,-3
152177085725,-1,-8,-29,-8,-7,-6,0,-4
152177100839,0,0,25,6,-11,0,-2,-1
152177100839,0,-6,-6,-9,-16,4,-2,2
152177101634,-2,13,53,18,22,0,0,5
152177101634,-1,-7,-30,-12,-25,-2,-2,4
152177115096,-1,10,28,6,-1,-2,-5,0
152177115096,-6,-13,-45,-15,-19,-2,-2,-6
152177122676,-3,-5,-19,-5,-7,4,0,1
152177122676,2,6,65,16,-3,0,4,-2
152177137707,-4,2,31,14,14,-2,-5,0
152177137707,-2,-2,-7,-1,-2,-5,-1,-2
152177145798,-4,-6,-13,-7,-17,-3,-6,-6
152177145798,-6,-13,-28,-6,-6,0,-3,1
152177160803,-3,-2,-21,-12,-15,-3,-1,-3
152177160803,2,-16,-18,-5,-10,-5,5,-2
152177161596,0,-8,-27,-7,-8,-5,-1,-1
152177161596,-2,12,-1,3,14,4,-1,4
152177175110,-4,-9,-28,-10,3,-6,-1,-1
152177175110,0,-3,-8,2,-9,-5,-4,-3
152177182627,-2,-13,-39,-14,4,0,-2,0
152177182627,-2,0,58,15,0,2,5,2
152177197585,-2,-11,4,-11,4,-1,-6,-3
152177197585,1,5,39,14,-4,-2,-1,0
152177205783,0,-16,-14,-12,-33,-2,-5,-3
152177205783,1,-10,-40,-10,-3,-1,0,-6
152177220793,2,-4,-1,6,1,4,6,2
152177220793,0,-10,-20,-7,3,-3,-2,1
152177221564,-1,4,2,-1,-3,-5,-3,2
152177221564,-1,-8,-30,-14,-17,-2,-1,2
152177243265,-2,-7,20,1,7,-2,-4,-3
152177243265,-1,-8,-18,-3,7,4,2,-3
152177244055,0,-5,-10,-5,-20,-4,-1,1
152177244055,1,-7,6,-3,-12,-3,-4,-2
152177257609,0,5,9,3,1,-7,0,-5
152177257609,3,7,-4,-6,-19,-2,-2,0
152177265745,-1,17,53,13,12,2,6,2
152177265745,1,-10,-1,2,4,-2,1,1
152177280746,2,-12,-45,-17,-52,-1,2,1
152177280746,0,-4,-4,-6,-17,-2,-3,2
152177281530,-3,-17,-50,-14,-18,3,-1,-7
152177281530,-2,14,46,12,-2,-2,-5,1
152177295119,-2,-14,-12,-12,-45,2,0,-3
152177295119,-5,-2,11,0,-2,1,-2,3
152177302661,2,18,36,21,5,-1,3,5
152177302661,1,4,-17,-2,4,-6,-1,-4
152177317548,1,11,21,10,13,-1,-4,1
152177317548,3,-8,-27,-10,-32,-2,0,-2
152177325810,0,18,40,20,41,0,0,0
152177325810,-1,-14,-30,-11,-15,-5,1,-1
152177340113,-1,18,0,11,13,0,2,0
152177340113,0,6,43,13,14,1,-3,1
152177348269,0,10,1,7,21,1,1,-2
152177348269,0,-11,-25,-9,-5,-1,-3,2
152177355056,2,-12,-27,-7,-3,-2,1,-1
152177355056,-1,9,16,6,2,-1,-1,-1
152177362539,-5,-16,-33,-16,-41,-3,-2,-5
152177362539,2,14,16,8,-11,5,4,2
152177377622,0,3,-19,-4,-1,1,-1,-2
152177377622,-1,-3,-2,-3,4,-4,-2,1
152177385844,1,-3,-10,-3,-21,-3,-1,-3
152177385844,-4,10,29,6,1,-4,-4,-6
152177400113,-1,-6,8,-1,0,0,1,-1
152177400113,-1,3,-7,0,-1,-1,-2,-2
152177408322,2,4,30,11,4,1,0,5
152177408322,2,-5,1,-2,10,3,-2,0
152177423330,0,-3,7,7,14,2,-3,0
152177423330,1,1,11,-2,-3,1,0,5
152177424124,-4,-7,-6,-5,-4,2,-2,-1
152177424124,-2,2,6,4,-2,-1,6,3
152177437615,2,-5,-2,1,3,-1,0,0
152177437615,-5,1,7,3,2,-1,1,-4
152177445828,-2,-2,3,-6,-3,-3,-8,1
152177445828,-1,-1,-2,-5,4,3,-1,-2
152177460209,-4,2,-1,-3,0,-4,0,0
152177460209,-4,0,3,1,1,-1,-1,0
152177468328,-2,-2,8,5,6,3,2,-1
152177468328,-5,-3,-18,-6,-3,-3,0,-3
152177483334,-1,-2,-3,-4,13,2,-4,5
152177483334,1,2,6,-1,4,-2,-3,-4
152177484127,1,-1,3,0,4,0,-1,-1
152177484127,-5,-4,-10,-5,2,-3,-1,0
152177497648,-2,-2,1,-3,2,-2,-1,-1
152177497648,-5,-4,-3,3,0,-1,1,0
152177505865,0,-3,-1,-1,2,-5,-3,-3
152177505865,-2,-3,1,0,-6,-2,-2,1
152177520207,-6,-4,4,-4,0,2,-2,-3
152177520207,-1,0,1,-2,5,0,0,2
152177528736,-1,-7,-5,-2,-9,0,1,7
152177528736,0,-3,-4,3,-5,-8,-2,-6
152177551513,-1,-1,0,7,0,-1,-2,-3
152177551513,-2,-8,-7,-8,-3,-3,-5,-2
152177552237,-2,-1,-4,-3,-1,0,-3,-2
152177552237,0,-6,-5,-9,-2,-2,-5,1
152177557697,-3,-2,4,-2,-2,1,-2,3
152177557697,3,-3,-1,2,0,0,1,-2
152177565833,1,0,3,-4,2,-6,1,-1
152177565833,-4,1,-5,-4,0,1,0,0
152177580213,1,3,-5,-6,-5,-6,-4,-4
152177580213,-4,-2,-4,-7,-2,0,-3,-7
152177588332,-4,-4,-9,-11,-5,0,-2,-4
152177588332,-2,-2,-1,-3,0,2,-3,-5
152177603300,-2,1,-3,2,-1,-1,4,-2
152177603300,-2,2,-3,1,0,-2,-2,-1
152177604073,2,-5,6,10,3,0,0,0
152177604073,-2,-3,4,-1,-6,0,2,-2
152177617717,-1,-3,-4,-11,-2,2,-1,-2
152177617717,3,-2,1,-4,1,-4,3,-5
152177625826,-4,-1,0,-8,-2,-2,2,-7
152177625826,6,-1,4,6,0,-3,2,2
152177640196,-2,-6,-5,-6,2,-5,0,-2
152177640196,1,-9,0,4,-1,2,-3,3
152177648259,-4,-4,-6,-8,-3,-1,-4,-3
152177648259,0,1,0,1,1,-2,2,-3
152177663228,-3,-1,0,4,1,-1,4,-4
152177663228,1,-2,0,8,-1,4,6,2
152177664073,-1,-1,1,9,0,1,1,1
152177664073,3,-5,0,-8,-3,1,-5,-1
152177677725,-3,-2,-3,0,1,2,0,-1
152177677725,2,0,-6,-6,-1,-1,-3,-2
152177685812,-1,-4,-1,-3,0,-4,-4,-2
152177685812,-2,4,-1,8,0,1,4,1
152177700145,2,-5,2,-1,0,-3,-3,-1
152177700145,-2,1,0,-3,-3,0,0,-4
152177708405,2,1,3,-3,-1,-3,-2,-3
152177708405,-1,-1,-2,0,-1,-2,-5,-3
152177723304,0,-2,1,-3,-1,0,-2,0
152177723304,-8,-3,-2,-1,-2,1,-1,1
152177724076,-3,1,0,-7,-2,1,-2,-1
152177724076,-3,0,1,1,-3,-2,-1,-5
152177737648,2,-1,0,8,1,-1,0,0
152177737648,0,1,0,-2,-1,-4,-4,-1
152177745902,0,-2,1,8,1,1,6,-4
152177745902,0,-1,-3,-1,1,3,0,1
152177760123,0,1,2,-2,-3,3,-2,1
152177760123,0,0,3,6,0,-3,2,1
152177768377,7,-3,3,4,3,2,-1,4
152177768377,-3,-1,-2,-2,-1,0,1,0
152177783282,0,3,2,4,-2,-4,-1,-2
152177783282,-1,1,-4,-3,-5,0,0,-2
152177784059,-3,-4,-2,-1,0,1,2,1
152177784059,-2,-4,-5,-8,1,-3,-1,0
152177797667,3,-1,-3,7,0,-1,-1,1
152177797667,3,6,2,-1,-2,-1,1,-3
152177805852,-1,3,0,14,-1,-2,0,4
152177805852,2,-1,2,0,1,0,1,1
152177820135,-2,1,-1,0,-2,-4,1,-5
152177820135,-2,0,3,11,3,0,4,-4
152177828407,7,-4,-3,11,5,0,-2,-2
152177828407,-3,-1,-2,-6,3,0,-2,-5
152177843317,0,-4,5,0,7,2,2,4
152177843317,2,-2,-2,8,3,1,-1,1
152177844064,-2,2,-12,-15,-12,-2,-2,-4
152177844064,-2,-6,-4,6,5,-6,-4,-3
152177859114,-4,2,-8,-6,-3,-1,0,-5
152177859114,0,0,-4,-2,1,3,2,1
152177865788,-6,-2,-1,-4,-5,-4,-5,-1
152177865788,-2,0,-6,7,-4,2,-2,3
152177880132,1,-5,-11,-8,-3,-9,-9,-1
152177880132,0,2,2,3,0,1,-3,-3
152177889112,2,-1,-5,-11,1,-3,-1,-2
152177889112,-4,-2,-4,-10,-13,-5,-2,-2
152177902662,1,-6,0,-2,-6,-2,-1,1
152177902662,-1,-2,-2,4,-8,-3,-5,1
152177911610,-4,1,4,3,-3,0,3,-3
152177911610,-4,-2,2,-1,4,-1,2,-4
152177917683,-3,-1,-3,-2,18,2,2,-3
152177917683,-1,-4,-5,-9,9,-6,0,-5
152177926679,3,5,3,9,27,3,-2,0
152177926679,1,-1,-8,-19,23,3,-3,0
152177940196,-5,0,-2,-15,9,3,2,-2
152177940196,1,-3,-7,-21,15,-2,-1,0
152177949118,-1,-7,-7,-15,-15,3,-2,-5
152177949118,2,-4,-6,12,-26,-4,1,-3
152177962655,-1,-8,-11,17,-46,-2,-2,-3
152177962655,-4,0,-3,12,-33,-7,1,3
152177971663,-1,-2,1,-2,-11,0,4,-1
152177971663,1,0,-2,7,-3,2,0,-4
152177977591,-1,1,-1,-10,3,-2,-3,2
152177977591,1,2,2,-1,-8,1,-4,1
152177986649,-1,-5,-7,9,-15,-8,-2,-2
152177986649,-1,0,6,-6,5,3,0,1
152178000160,-2,0,3,8,9,3,0,2
152178000160,-3,-4,-1,-2,2,-4,-5,-5
152178009179,1,1,2,0,7,2,-4,-1
152178009179,0,-2,-3,6,8,-1,-3,-3
152178022581,-2,3,-5,-2,6,-5,2,0
152178022581,-1,-3,1,4,8,4,0,-2
152178031673,-6,-2,-9,-10,9,-3,-2,3
152178031673,-5,-1,-11,-9,4,1,3,1
152178037700,1,-4,2,1,5,-3,-2,-4
152178037700,-3,-3,-9,-12,8,2,-6,-1
152178046673,-1,-1,-4,-1,5,-3,-1,-2
152178046673,-2,-2,1,3,-7,-3,-1,2
152178060145,0,0,3,-3,2,0,-2,-3
152178060145,3,4,3,5,-1,2,-1,-1
152178069179,-2,3,-2,3,-3,-1,0,-2
152178069179,1,3,12,6,-1,2,0,7
152178082623,1,-3,-8,-8,-3,-5,-3,-3
152178082623,2,2,5,1,4,-1,1,0
152178091680,-4,1,-5,-7,-7,-1,-3,-1
152178091680,-2,-8,-6,-8,-4,-5,3,-3
152178097686,-3,-4,-3,-4,-3,-1,0,0
152178097686,-2,-3,-2,-7,-8,-2,0,0
152178106681,-4,-5,-4,-2,-1,-2,-3,-1
152178106681,0,1,-4,-5,0,-3,-5,-1
152178120186,1,0,0,1,-2,-3,-3,4
152178120186,1,0,1,4,0,-1,-3,-4
152178129202,-1,-3,4,2,2,1,0,-5
152178129202,-1,-1,4,5,4,3,-2,-1
152178142629,-2,6,11,11,3,1,3,0
152178142629,-3,-1,-1,-2,4,-2,-1,1
152178151620,3,-1,-2,2,-2,-1,-1,1
152178151620,3,5,0,-2,-5,1,-4,2
152178166450,0,-5,-1,-8,1,-1,2,1
152178166450,0,-4,-6,-2,-1,2,-1,1
152178168048,1,-1,4,6,-2,2,-5,0
152178168048,0,-3,-3,1,3,-2,4,-3
152178180136,-2,-3,-3,-3,3,-1,-7,-4
152178180136,-4,-2,-2,-3,0,-6,3,-2
152178189077,4,0,-2,-5,8,-3,1,1
152178189077,-3,0,-3,-4,-1,-2,-6,-4
152178202675,1,-5,-4,-2,2,-1,0,-3
152178202675,-3,-7,1,-4,2,0,1,3
152178211588,-4,-1,-1,2,4,1,3,-1
152178211588,2,-2,0,8,1,-4,0,-1
152178217657,2,1,3,10,6,1,2,-3
152178217657,-1,1,-7,-4,3,0,-4,-8
152178226595,-2,-3,3,5,-2,0,3,3
152178226595,3,0,-4,-6,1,-3,-3,-2
152178240668,0,-2,-3,-1,-2,2,1,1
152178240668,-1,0,-4,6,-2,-1,-4,1
152178249130,0,-1,-5,-3,-3,-6,-1,-4
152178249130,-1,-2,-8,-6,1,-2,-2,-6
152178262598,-2,-2,0,5,1,5,-3,0
152178262598,0,-2,6,3,-2,-1,3,-1
152178271663,1,2,-6,-5,-3,-6,-2,-4
152178271663,0,0,1,-6,0,-6,-5,3
152178277628,-4,1,-9,-12,-3,-3,-2,-5
152178277628,-5,-3,-6,-17,0,-4,-6,-2
152178286611,0,0,6,8,1,4,-3,4
152178286611,1,1,1,-2,-5,0,0,0
152178300171,-3,-1,-1,-4,-6,-2,-4,1
152178300171,-1,-2,-1,-5,0,-4,0,-6
152178309225,-2,2,1,-4,-3,-3,-3,-1
152178309225,-4,-8,-10,-13,-5,-1,0,0
152178322685,-1,0,-4,-5,-2,-3,-1,-4
152178322685,-1,0,-3,-3,0,-2,-2,0
152178331632,-1,-4,-6,-3,-3,-2,1,0
152178331632,-5,1,6,5,-1,1,2,0
152178337624,1,-2,4,-6,0,-2,2,-5
152178337624,2,2,1,3,-1,-4,3,-2
152178346668,-2,-2,-2,-11,-4,-1,-5,-5
152178346668,2,1,-4,-7,2,-1,-4,-1
152178360125,-2,0,-4,-2,-2,-2,-4,0
152178360125,0,-3,-5,-2,-2,4,0,2
152178369132,-1,0,-3,-6,0,0,0,0
152178369132,-4,-2,-5,1,-1,-3,1,-1
152178382639,-1,-6,-8,-10,-4,-2,-3,-4
152178382639,0,-1,2,1,-5,3,-2,-7
152178391736,-2,-2,-11,-6,-2,1,-1,1
152178391736,0,-3,-8,-12,13,3,-3,1
152178413986,0,-3,-6,-1,-3,4,-1,-1
152178413986,2,-1,-4,-3,-1,0,2,4
152178415587,-1,2,1,6,-3,0,-1,2
152178415587,0,2,0,1,-6,0,3,-5
152178420068,1,5,-1,6,0,-3,3,3
152178420068,-2,-6,-7,-4,0,-3,-4,-3
152178429115,-2,-3,-2,7,-3,0,2,-3
152178429115,-5,0,5,4,-8,-1,1,3
152178442679,-1,-1,-1,-5,0,-4,0,-4
152178442679,0,-1,-3,-5,-1,0,-3,-1
152178451644,1,-6,-2,-3,1,0,1,0
152178451644,2,1,-2,12,-1,-1,2,-2
152178466550,3,-4,-2,2,1,-1,-4,0
152178466550,-3,2,0,-1,0,-3,-1,-2
152178468067,4,-5,-2,-5,0,1,0,0
152178468067,7,-4,-3,4,-3,-2,2,-5
152178480188,-7,-1,-4,6,2,1,1,0
152178480188,0,3,2,4,1,-2,1,-1
152178489200,-4,2,1,-4,-2,2,-4,-6
152178489200,2,1,-4,1,-4,0,-6,0
152178503408,2,-1,-1,1,0,2,-1,1
152178503408,0,-4,1,-2,-3,-3,0,-2
152178510238,-1,2,5,8,0,-2,0,3
152178510238,-7,-1,-1,-6,-2,-1,0,-5
152178526496,-4,-2,1,-1,-1,-2,-2,-3
152178526496,-1,-4,-4,-4,-3,-3,0,-1
152178528115,-4,-1,-1,1,-1,-1,2,-2
152178528115,-1,1,-3,-1,-2,-3,-1,-2
152178540161,-2,4,5,8,0,-1,3,3
152178540161,0,-1,0,1,-1,-1,3,-1
152178549171,-3,0,-3,-3,-1,1,-1,3
152178549171,-2,-5,3,3,-1,-3,1,-2
152178563409,2,-1,1,2,-2,-1,1,-3
152178563409,-2,-1,1,2,-2,1,-2,0
152178570131,-1,3,7,0,0,-3,-4,-5
152178570131,-3,0,1,7,-2,4,-2,1
152178586477,4,-1,-3,-5,1,-3,0,-3
152178586477,0,-5,1,12,1,3,1,3
152178588045,1,-6,-5,-6,1,-2,-10,-2
152178588045,-1,-2,-2,-2,-1,0,3,-2
152178600310,-1,-1,1,1,-1,0,0,-1
152178600310,-2,2,-2,4,1,-3,2,-4
152178609163,2,-1,-4,8,0,0,1,-1
152178609163,0,-3,-2,6,1,-4,1,-1
152178623383,-1,-3,1,-3,-2,-3,-5,-1
152178623383,-1,0,-2,1,0,-1,-7,0
152178630159,1,-3,-2,2,-2,2,5,-3
152178630159,-3,-1,0,1,-3,-3,-5,-1
152178646546,-1,-5,2,6,1,-5,-4,-4
152178646546,-6,0,-1,1,0,2,0,1
152178648187,2,2,-4,-4,1,-1,-2,-2
152178648187,2,2,2,7,2,-4,-1,3
152178660217,-2,0,-3,5,-1,2,-1,1
152178660217,-1,-7,-1,-6,-1,-7,-2,-1
152178669154,0,1,0,3,1,-4,1,-2
152178669154,-2,-4,1,-1,2,0,-4,1
152178683354,-2,-1,2,5,0,-2,-5,-2
152178683354,0,-2,-6,-5,2,-1,-4,1
152178690155,-3,-1,1,6,-2,0,4,1
152178690155,-2,-2,3,-5,0,-1,-5,-2
152178706547,-4,-2,-4,-7,0,-2,-1,-4
152178706547,1,-5,-10,-2,2,1,-5,-3
152178708077,-5,-4,-6,-10,1,-2,-2,2
152178708077,1,-7,-8,-15,-1,1,-1,-2
152178720651,-1,-3,-3,-4,-2,-1,-2,4
152178720651,0,-3,-7,-10,-4,-4,3,-3
152178729126,-1,0,-8,-6,0,-3,-2,-1
152178729126,0,-10,-14,-22,-1,-1,-1,-1
152178743335,-1,1,-7,-14,0,-3,-3,-3
152178743335,-2,-1,-5,-4,0,1,-4,1
152178750235,-1,-5,-1,2,1,-4,3,-2
152178750235,-6,-7,-12,-19,-3,1,-2,-2
152178766570,3,4,-4,-1,-2,3,4,-1
152178766570,1,3,6,5,-3,-3,1,-1
152178768115,0,2,1,-2,-2,-1,0,-3
152178768115,0,2,-2,-1,-1,2,3,-4
152178780178,-1,-3,-7,-7,-1,-2,4,-3
152178780178,-3,0,-3,-4,-1,0,-4,1
152178789201,4,-4,-5,-2,-1,-1,1,2
152178789201,1,2,3,3,1,-1,-3,-1
152178803355,-1,-2,-9,-6,-1,3,-3,1
152178803355,5,2,2,2,-1,-3,-1,-5
152178810141,-2,1,2,2,1,0,0,1
152178810141,-2,0,7,3,-3,-3,-1,2
152178826549,1,2,6,9,0,0,-2,1
152178826549,2,2,1,10,-1,-3,2,2
152178828113,1,-3,-1,1,-2,-4,-7,0
152178828113,0,2,2,6,-3,-2,1,-1
152178840184,-1,-1,6,-1,-1,-4,0,0
152178840184,-4,0,-3,-11,-3,0,-2,-1
152178849204,-4,-3,1,-4,0,-3,-6,-7
152178849204,-2,7,1,19,1,2,-4,1
152178863335,-1,0,-4,-1,-2,-3,-4,1
152178863335,-1,-1,-3,4,0,-1,4,-1
152178870181,-5,-2,-2,1,-3,2,6,2
152178870181,-1,1,-1,7,1,-2,4,2
152178886560,-2,-3,-3,-2,-1,2,-1,-1
152178886560,1,-1,-1,2,-1,0,-4,-3
152178888205,0,2,2,2,0,-1,-5,-2
152178888205,0,-4,-3,0,-1,3,1,-5
152178900195,1,0,3,5,-2,-1,2,-1
152178900195,-1,0,-2,-8,-2,-1,-1,1
152178909208,1,1,-4,-4,-1,1,-2,-1
152178909208,-2,2,-3,5,1,1,4,1
152178923471,-2,-3,1,5,-2,-5,-1,-4
152178923471,-2,-1,-2,-1,-1,-3,-1,-2
152178930155,-2,3,-1,4,0,-1,0,1
152178930155,1,3,3,13,0,2,-2,1
152178946577,-3,0,-2,1,0,1,-3,2
152178946577,-5,-5,-1,-3,-1,-2,2,1
152178948121,-1,-4,-5,2,-3,-1,-3,0
152178948121,1,-2,-1,7,0,-5,-1,-1
152178968941,-1,1,-4,3,-2,-2,-1,0
152178968941,-2,0,4,9,1,-2,-7,3
152178970555,-3,-4,1,1,1,-4,-3,-1
152178970555,-2,-5,-3,2,-2,4,1,-3
152178983330,-3,6,-2,1,0,-2,-2,4
152178983330,-2,2,1,6,0,-2,-1,-3
152178990201,-3,0,0,6,-3,0,-1,-1
152178990201,1,-2,0,1,0,-6,0,2
152179006484,2,1,0,-3,-2,-1,-2,-4
152179006484,3,-3,-3,2,-4,0,-1,-4
152179008113,0,-1,2,-10,0,-2,-4,-5
152179008113,-2,1,0,7,-1,-2,-3,-4
152179020090,0,-5,-1,3,-2,1,0,-2
152179020090,0,-2,-2,8,-1,1,1,0
152179029123,2,-2,-3,-2,1,-2,3,-5
152179029123,-3,3,0,-4,-3,-5,-2,3
152179043360,-3,-6,-1,-6,0,-1,6,-1
152179043360,1,2,-6,-8,1,0,-4,-1
152179050085,-1,-3,0,1,-2,-1,1,-5
152179050085,-1,-4,-5,-13,0,-3,-2,-1
152179066496,0,-2,-3,-6,1,-1,-2,-4
152179066496,-2,-2,0,3,1,-2,3,0
152179068120,-4,-1,-5,-10,-3,0,1,0
152179068120,0,-4,-2,-11,3,-2,-5,0
152179089002,-3,2,-3,2,0,0,0,-2
152179089002,-5,-6,-4,-17,-3,-2,0,-6
152179090598,2,-2,1,-2,-1,-3,-3,2
152179090598,2,-2,-6,-4,-1,-4,1,1
152179103282,-2,-1,-3,-13,-1,-3,-6,-4
152179103282,-5,-1,-5,-15,-1,-3,0,-4
152179110090,1,1,0,-2,-1,-1,-2,-3
152179110090,-4,-3,-5,-16,-2,2,-5,-2
152179126501,-1,-1,0,-2,1,0,1,0
152179126501,-3,1,0,3,-3,-2,0,-3
152179128083,-2,-1,-5,-11,-3,-2,-3,-1
152179128083,-1,0,0,-7,-3,1,-2,-1
152179140172,-1,-1,-6,-9,-1,-4,0,-2
152179140172,-2,-5,5,-3,0,4,-4,-1
152179149106,1,-2,-5,-2,0,-4,-3,0
152179149106,0,5,1,4,-2,2,1,-3
152179163402,4,-4,0,0,-3,-1,-1,1
152179163402,1,-2,1,-1,0,2,2,2
152179170183,-4,3,-2,1,-1,-1,1,1
152179170183,-3,-6,2,-1,0,0,5,0
152179186566,-2,-4,-5,7,0,2,2,-3
152179186566,3,1,-2,0,-2,-1,0,-1
152179188148,-5,-6,1,10,-1,5,-1,1
152179188148,1,1,0,6,-1,-4,-4,0
152179200199,-4,-2,1,4,-2,-2,5,-1
152179200199,0,0,0,8,1,0,0,3
152179209200,3,-2,3,5,2,0,0,-1
152179209200,0,1,6,14,1,2,2,-2
152179223333,-2,3,3,5,-2,-1,-2,1
152179223333,-1,2,-1,-7,0,-4,-3,-1
152179237657,-2,0,-3,-2,-2,-4,1,-3
152179237657,-2,-7,-2,-2,0,-3,-1,-4
152179245836,-1,-2,-3,7,-2,1,-2,0
152179245836,3,-1,-2,8,1,-2,-3,-2
152179252606,0,-1,-1,1,-2,-2,-3,0
152179252606,-4,-4,-5,-16,-2,-4,-3,-6
152179260099,0,-3,1,-2,0,-2,-3,-2
152179260099,-1,-4,-1,-3,-1,-4,-3,-3
152179276635,-1,0,-2,-8,-1,-3,0,1
152179276635,0,4,1,9,-2,-3,1,5
152179283396,-3,0,-4,-3,-1,2,1,0
152179283396,-4,-2,-2,0,-4,2,-2,1
152179290119,1,-6,-5,0,3,1,-2,1
152179290119,-2,1,-1,2,-3,0,0,0
152179305871,3,1,0,6,1,0,-4,5
152179305871,0,-1,-2,5,-1,-3,3,-6
152179312662,2,2,2,12,0,3,5,5
152179312662,-1,1,-4,4,1,-2,-3,-3
152179328075,-4,-5,0,3,0,-4,2,0
152179328075,-1,5,-2,3,0,0,0,-4
152179336621,2,-3,1,2,1,1,2,1
152179336621,-4,-5,-3,-4,-3,-2,-5,-2
152179352214,-2,1,0,2,-1,4,-1,-3
152179352214,1,-3,1,-5,1,-2,0,0
152179353802,0,-3,3,7,-1,-1,2,-3
152179353802,0,-6,-1,10,-2,3,0,3
152179365859,2,-3,-3,-1,-2,0,0,-1
152179365859,-1,-1,-5,7,1,-2,2,0
152179372686,-5,-5,-4,-5,-3,-2,-4,-4
152179372686,2,-3,-1,4,1,4,4,0
152179389000,2,-2,-5,5,-2,-2,1,2
152179389000,-1,-5,3,5,-1,4,1,2
152179390635,0,1,2,10,-3,1,-3,1
152179390635,-2,1,-2,-2,0,-3,-2,-4
152179403380,-3,2,0,-5,-1,-1,0,-1
152179403380,-2,-3,-1,-7,0,-4,-4,1
152179410156,-4,-5,-3,-10,1,-1,-1,-2
152179410156,-2,-1,-2,-8,0,-5,-1,-5
152179425854,1,-1,1,-5,0,-1,0,-1
152179425854,-3,-4,0,-4,-3,-6,-1,-5
152179432656,-4,-1,-4,-7,0,-1,-3,-3
152179432656,3,1,0,-2,-1,1,-5,3
152179448956,-1,-5,2,3,0,-1,-1,2
152179448956,-2,2,0,-6,0,-2,-1,-3
152179450595,-1,-1,1,-10,-2,2,-2,-4
152179450595,-2,-4,2,-8,0,-2,-4,-4
152179463407,0,-4,-3,-8,-1,2,1,2
152179463407,-1,-2,-5,-5,0,-1,-4,2
152179470137,-2,0,-2,2,-3,-4,-4,-4
152179470137,0,-5,-6,-6,0,-1,2,0
152179485889,-2,-2,2,5,2,-2,1,0
152179485889,0,-5,-4,0,0,0,-4,-3
152179492744,-4,1,-3,-15,-2,-4,2,-5
152179492744,-2,0,-4,2,1,1,1,2
152179509023,0,5,-4,-4,-1,-2,-10,-5
152179509023,-3,-1,0,-1,-2,2,0,-2
152179510650,-1,0,-2,-2,-3,-2,-5,0
152179510650,-1,-3,1,-14,-1,-5,-3,-6
152179523438,-3,0,0,1,-2,-3,0,-1
152179523438,-3,1,-3,-4,-3,0,-2,2
152179530203,2,-2,4,7,0,1,4,2
152179530203,6,3,1,9,-2,2,3,6
152179545880,-3,-2,-2,-6,-1,-4,-2,-6
152179545880,-1,-2,-3,0,0,-2,1,5
152179552666,-3,0,0,2,-2,-7,-1,-2
152179552666,-2,-2,-6,6,-1,-3,0,2
152179569081,-2,-2,2,5,0,1,5,0
152179569081,2,-2,3,6,-2,2,1,-2
152179570583,3,-3,-3,-1,-1,-6,-4,2
152179570583,-4,2,0,3,-4,1,-2,-2
152179583374,0,-4,-3,-6,-1,-5,-2,-1
152179583374,-3,1,-2,7,1,2,4,-2
152179590235,-3,-5,-5,0,-1,-2,-11,-4
152179590235,-4,-2,2,8,-2,1,0,0
152179605899,2,1,2,4,-2,-2,-5,-1
152179605899,5,-3,0,-3,1,-3,-4,-3
152179612760,0,-1,-4,-1,-2,0,7,-2
152179612760,-4,-2,-1,-2,-1,-2,-1,-3
152179629027,2,-1,-6,1,1,0,0,-4
152179629027,-1,-2,-1,-2,-1,-2,-1,0
152179630635,-5,1,-1,5,1,0,2,0
152179630635,1,-1,1,3,-3,-1,-1,-2
152179643348,-6,1,0,4,-2,3,3,0
152179643348,-2,-1,-3,-8,-1,-2,-6,1
152179650164,0,-1,-2,6,-1,3,3,2
152179650164,-1,-2,-1,3,-2,-1,-1,1
152179665859,1,1,-1,5,0,-2,2,-1
152179665859,-1,0,-1,12,0,2,0,-1
152179672676,-5,1,-2,4,-1,0,1,-3
152179672676,-5,1,-4,-8,0,-5,-3,-1
152179688989,-1,-2,-1,3,0,2,-3,-5
152179688989,-4,-1,-2,0,-2,1,4,-1
152179690576,-2,-3,0,-4,-1,-2,0,-2
152179690576,1,1,-3,-2,-1,-4,-1,0
152179703341,-2,0,-2,-4,-1,0,-5,2
152179703341,-2,3,2,-7,0,-2,1,-3
152179710161,2,-4,-3,1,1,2,-1,-1
152179710161,0,-2,0,7,1,2,0,-4
152179725879,0,-3,1,-1,0,-10,-2,3
152179725879,1,-2,-1,1,-2,-3,-1,-4
152179732667,0,0,-3,-5,-4,-4,-1,2
152179732667,0,0,-2,-2,0,2,-2,-5
152179749025,2,-6,-1,-8,-3,-3,-3,-1
152179749025,0,-2,-2,1,-2,0,-1,-4
152179750627,-2,1,-4,-4,-3,0,0,-3
152179750627,-1,2,0,4,0,-3,-3,-1
152179763336,-1,-5,-5,5,1,3,-4,-2
152179763336,4,-2,0,0,-1,-3,-1,0
152179770130,0,-1,2,2,0,0,-5,-1
152179770130,-2,-1,-4,-3,-1,-3,2,1
152179785812,-4,1,1,-8,-2,-4,-5,0
152179785812,-4,-2,-4,-1,-2,-2,-1,-2
152179792636,-5,0,-1,-1,0,1,-2,-4
152179792636,-2,-3,-2,-2,-2,-5,-5,0
152179809019,1,3,-4,-2,-1,-4,1,-4
152179809019,-3,-3,-3,1,-1,3,-1,3
152179810595,0,3,0,2,-1,-1,-1,-2
152179810595,2,1,-1,-2,-2,0,-2,-1
152179822684,-1,0,-2,-2,-3,3,3,-1
152179822684,-2,-1,5,1,-1,2,-2,0
152179831637,0,0,-2,-1,-2,4,3,-1
152179831637,2,-5,-1,3,1,4,2,1
152179845843,-4,-1,-5,-2,-4,0,1,0
152179845843,0,-1,-4,0,1,0,-2,-1
152179852639,0,0,2,7,0,4,-3,-2
152179852639,3,1,-1,-3,0,-3,-5,1
152179868937,0,-5,0,-7,-1,1,-2,-1
152179868937,2,1,-3,3,0,-1,0,1
152179870605,3,-2,-2,-2,0,-3,-3,-2
152179870605,-3,1,-3,2,1,-2,1,-2
152179882663,0,-2,-2,7,-1,0,-1,1
152179882663,-2,-1,-2,-13,-4,-6,-7,-4
152179891735,0,0,-1,6,0,1,2,4
152179891735,0,-4,1,1,-5,-5,-1,-7
152179905912,2,3,3,1,-1,-4,1,-4
152179905912,1,-1,-1,-1,-3,-2,-2,-2
152179912683,-3,-3,-4,-1,0,-1,-1,2
152179912683,-3,-3,3,4,-1,6,1,2
152179929022,-3,-2,-2,1,0,2,1,-1
152179929022,-1,0,-3,3,-1,-4,0,2
152179930644,2,0,-1,2,-3,-4,-1,0
152179930644,-3,-1,-3,3,-3,2,-3,-3
152179942721,2,4,1,6,-3,-4,1,2
152179942721,-3,-1,0,-1,-1,-3,-1,-3
152179951668,0,-2,-1,4,-2,-4,-1,2
152179951668,-3,3,-1,0,-2,0,3,-1
152179965919,0,-2,4,3,0,0,-2,0
152179965919,-3,1,3,10,-1,-1,-2,-4
152179972653,-5,3,3,-4,-3,-3,-3,-1
152179972653,-2,0,0,0,0,0,-5,0
152179989065,0,2,1,2,-1,4,1,-3
152179989065,-2,-2,-3,-2,-2,1,-3,0
152179990645,-1,-4,1,4,2,0,2,-1
152179990645,2,0,0,5,-1,0,3,0
152180002654,-1,-2,4,7,0,-3,-1,-4
152180002654,-2,-1,-3,-3,1,2,-1,-2
152180011688,0,-3,0,3,-1,5,2,-2
152180011688,-2,0,1,0,-1,-4,-4,3
152180025869,-2,-4,-4,-2,-1,0,0,4
152180025869,2,-2,4,12,-1,1,4,-2
152180032621,-3,-4,-7,-3,-2,0,-3,-1
152180032621,0,-1,0,-1,-1,3,8,1
152180049081,-1,-2,-3,4,1,5,-6,4
152180049081,-2,-1,-2,6,-1,0,-3,-1
152180050727,0,-2,-2,-1,-4,-4,-1,-1
152180050727,-1,-4,-4,-3,-3,-4,0,2
152180062734,-2,-5,-3,4,-3,-1,2,-2
152180062734,0,2,-2,-2,-1,-3,1,0
152180071700,-4,0,0,-2,1,-3,0,0
152180071700,1,1,1,3,-1,0,-6,-3
152180085889,-4,-3,-9,-8,1,-6,2,-1
152180085889,-3,-1,3,-1,-2,3,-3,3
152180092710,-6,-2,-7,-8,-3,0,1,-2
152180092710,3,2,-3,-5,-2,7,-3,2
152180109033,1,2,0,2,1,0,-2,-2
152180109033,3,3,1,7,1,-2,3,0
152180110640,0,-3,-4,-2,-1,-5,1,-2
152180110640,-1,-5,-4,-2,1,-2,-4,-3
152180122721,4,3,-3,4,-1,-4,-1,-4
152180122721,2,-3,-7,-6,-1,-8,1,-3
152180137773,2,6,4,10,1,-4,-1,0
152180137773,1,0,-2,2,-1,-3,-1,-1
152180145914,-1,4,0,4,-1,3,2,-1
152180145914,2,0,-4,12,0,-4,1,0
152180152679,2,-2,-2,1,-1,0,-2,-3
152180152679,-2,-4,1,-4,-1,-3,2,-2
152180168361,-3,-1,-1,11,-2,1,1,4
152180168361,-1,-1,-1,1,0,8,-1,3
152180175273,-2,-2,-1,8,-2,-1,1,0
152180175273,-2,1,-1,2,-1,-6,0,-2
152180182708,-2,-1,-2,-3,-3,0,3,-1
152180182708,-4,-4,-2,1,0,-2,3,-3
152180191652,2,-1,-6,-1,1,3,-5,-5
152180191652,2,-3,-3,1,0,-3,-2,-2
152180205860,-1,0,-4,-14,-3,-1,-8,-3
152180205860,-1,1,-3,0,-2,-1,2,-2
152180212732,-1,1,-2,1,-2,3,1,2
152180212732,-1,-3,2,3,-3,1,-2,1
152180228413,-3,-6,0,-3,0,1,-1,-5
152180228413,0,-3,3,6,1,-4,-1,4
152180235259,-1,7,4,14,-1,-3,1,-2
152180235259,0,2,2,7,-2,-1,1,0
152180242670,-1,-4,-1,-1,0,-1,-2,-5
152180242670,1,-1,4,4,-1,2,-4,-2
152180251827,-4,-1,-3,-6,-1,-3,1,-3
152180251827,1,0,-3,-3,-2,2,-1,-3
152180265855,-3,-5,-3,-1,-2,0,1,-2
152180265855,-3,1,-3,-4,-3,-1,-4,0
152180272644,0,-2,-5,3,-1,3,3,0
152180272644,-6,-2,-4,-1,0,1,0,-1
152180288383,1,-1,4,8,0,-2,3,4
152180288383,1,1,0,3,0,-2,-1,-1
152180295152,0,0,-4,1,-1,0,-3,1
152180295152,-1,2,-7,4,0,-2,1,2
152180311537,0,-2,-3,9,0,-4,4,-5
152180311537,2,0,1,8,-1,1,0,4
152180313147,-1,-3,0,-3,-3,-2,0,-2
152180313147,0,-3,0,3,0,-3,1,-1
152180325850,1,-4,-3,2,0,-4,-5,2
152180325850,-1,6,-2,-3,-1,0,-1,-3
152180332609,-2,-3,-4,-3,-2,-4,-7,-2
152180332609,-1,4,2,1,0,2,2,-3
152180348335,-3,-2,-3,1,-1,-1,1,2
152180348335,0,0,0,1,-1,-1,-3,-5
152180355142,3,0,-1,9,1,1,1,1
152180355142,-1,-1,-9,-4,-1,-3,-5,-5
152180371476,2,3,-3,4,-1,3,-3,-3
152180371476,-2,-2,2,6,-3,3,-5,3
152180373096,-1,-1,0,3,0,1,2,-3
152180373096,1,-3,-4,2,-3,-2,0,-1
152180385930,-1,2,3,3,2,-2,-1,-6
152180385930,0,3,-3,-2,-1,-3,0,-2
152180392664,2,-1,-2,5,-1,-1,-2,1
152180392664,-3,-2,3,2,0,-2,-4,-1
152180408341,0,1,-2,-1,-3,6,-1,4
152180408341,1,-2,0,3,-2,3,-2,2
152180415144,0,-3,-2,-5,-3,-1,-3,-1
152180415144,-1,0,-4,2,-1,-1,7,-1
152180431565,0,-7,-3,-1,0,-6,-4,2
152180431565,-2,-5,-3,-1,0,-2,-3,-1
152180433168,1,3,4,9,-1,-4,0,1
152180433168,-3,-4,-2,-2,-2,0,-4,-3
152180445905,1,1,-2,0,-1,-5,-1,0
152180445905,-1,-1,0,6,-2,-3,2,0
152180452678,-2,-4,-11,-15,-1,-4,-4,1
152180452678,-2,-3,0,4,-2,3,-3,1
152180468418,1,-3,-2,0,-1,2,3,-3
152180468418,2,-1,-4,3,-2,-4,0,-2
152180475173,-2,-4,-1,-8,-2,5,-2,-5
152180475173,2,2,3,11,-1,-2,-2,-1
152180491539,-3,-4,-3,1,-2,4,2,4
152180491539,-4,-1,-4,-3,-1,-3,-1,-1
152180493087,-2,4,4,9,0,0,-1,2
152180493087,3,1,-3,-6,1,0,-6,4
152180505869,1,5,1,9,0,-4,0,-1
152180505869,1,-2,0,3,1,0,1,1
152180512768,-3,-4,-4,3,-1,0,-1,-1
152180512768,0,-2,5,1,0,-1,0,3
152180528405,-2,4,0,-4,-3,-4,-1,1
152180528405,-3,1,-3,-2,-1,-2,-2,1
152180535232,-1,-1,-5,-5,-1,-2,0,-5
152180535232,-1,1,-3,-6,1,-1,1,-1
152180551583,-2,-1,2,6,-1,0,0,-3
152180551583,1,-1,-5,-10,1,-2,-3,-3
152180553198,3,0,3,8,-2,-2,-1,-3
152180553198,0,-1,-4,0,-1,5,1,0
152180565846,-3,0,-1,2,-1,1,1,-2
152180565846,-5,-1,3,1,-1,1,0,-3
152180572748,-2,-2,-1,8,4,-3,0,1
152180572748,-2,-1,-4,-3,-2,-4,0,-3
152180588429,1,0,-9,-14,0,-2,-11,1
152180588429,0,-1,-4,-2,-3,5,1,-3
152180595232,3,0,-2,4,-1,3,-1,-1
152180595232,-4,-3,-6,-3,-2,-6,4,-1
152180611458,-1,1,1,5,-2,-1,-3,1
152180611458,-3,0,-9,-2,-2,1,-4,-2
152180613160,1,0,-4,-11,-3,-1,-2,-2
152180613160,-6,2,-5,-3,-1,-2,-4,-2
152180625848,0,-4,-4,-7,-1,-3,3,-3
152180625848,1,2,-5,3,0,3,4,0
152180632657,-5,-4,5,0,-2,0,2,-2
152180632657,0,-6,-1,-1,-3,1,-1,-2
152180648338,4,0,-1,-1,0,1,-2,-1
152180648338,0,0,3,5,-1,-6,-1,1
152180662692,-1,0,-2,2,0,1,-2,-2
152180662692,1,-1,-4,-4,1,-1,-3,-7
152180671509,-3,-2,0,1,-2,2,-2,2
152180671509,5,-5,-1,6,-1,2,-2,-4
152180673088,2,-2,1,-5,1,-4,-3,-5
152180673088,-1,-1,-3,10,0,1,-4,2
152180685871,-3,-2,0,-7,-2,-1,-3,-1
152180685871,-1,0,-1,2,1,1,5,1
152180692653,0,2,-1,6,-3,1,-2,-1
152180692653,4,3,8,11,1,-2,-3,3
152180708459,-2,0,-1,1,-2,2,0,-2
152180708459,-3,3,-2,0,-1,-5,-4,-2
152180715249,-3,-3,-2,-4,-3,-1,0,0
152180715249,1,-3,-2,-8,-4,-7,2,-2
152180731565,-1,2,0,8,-1,2,-2,-2
152180731565,-3,-3,1,3,-4,-2,1,-2
152180733199,-1,1,-7,-1,2,-4,5,-1
152180733199,-5,2,-1,3,-3,4,-1,-1
152180745838,2,2,0,9,4,-1,3,-3
152180745838,2,1,2,-1,-2,-2,-3,-1
152180752656,0,2,1,10,0,0,-1,1
152180752656,1,0,2,6,-1,6,7,-1
152180768332,0,-4,1,9,0,-1,3,-5
152180768332,-1,-2,3,3,-2,0,-3,-1
152180775216,2,-1,-1,8,-1,-1,1,1
152180775216,4,-3,-2,-4,-1,-3,-1,-1
152180791488,0,-2,-3,-2,-1,-5,-5,-2
152180791488,1,-2,-2,0,1,-2,2,-3
152180793095,-5,-1,0,6,-2,-2,-1,4
152180793095,-1,4,2,5,-1,2,-1,-5
152180805174,2,-1,0,4,-3,3,4,-4
152180805174,-1,-3,-3,-3,-2,0,0,4
152180814206,0,-1,-3,-5,-2,-4,-3,1
152180814206,1,2,2,8,2,-3,-2,-5
152180828363,-2,3,-4,2,-3,-4,-4,2
152180828363,3,1,2,12,3,0,2,-3
152180835223,3,3,4,-3,-4,-6,-2,-1
152180835223,-3,-2,-1,5,-8,3,-2,0
152180851541,1,3,-2,-8,-5,-2,-5,-2
152180851541,-1,0,-1,9,1,-1,0,1
152180853166,0,1,0,-5,10,3,-2,0
152180853166,-2,1,-1,2,-6,-3,-2,1
152180865193,-2,-1,-3,14,17,-1,-2,4
152180865193,-6,-2,2,-3,16,3,-1,-3
152180874152,-2,2,4,-7,22,3,-3,1
152180874152,-3,0,-5,-2,23,-3,3,-5
152180888338,3,-3,5,5,19,-1,2,-1
152180888338,3,0,-2,-15,8,-2,0,-2
152180895128,-1,-3,-1,-9,-15,-1,0,-3
152180895128,-3,-3,-1,-21,-3,-2,-2,-2
152180911510,3,1,4,14,-16,1,3,0
152180911510,1,3,1,25,-8,-4,-4,-4
152180913130,-6,-3,1,8,-51,-4,0,-3
152180913130,-2,0,-4,4,-43,-2,-3,3
152180925183,-1,0,-5,14,-13,-2,-1,1
152180925183,-1,0,-4,-23,-13,1,0,0
152180934159,-2,-5,-5,-5,-4,-4,-4,-3
152180934159,4,-4,-3,20,-11,2,3,3
152180948411,-4,-6,-4,4,0,0,-4,-4
152180948411,-4,-2,-5,-3,-5,-2,-2,-1
152180955214,0,1,3,15,11,-3,2,2
152180955214,-5,-7,-3,-4,2,-3,-5,-1
152180971570,1,-2,-5,-29,-2,-8,-5,-3
152180971570,-1,-3,-1,-9,-3,0,0,2
152180973156,0,-2,-1,-10,7,3,-1,-5
152180973156,2,2,2,-2,22,-4,1,1
152180985200,-2,-2,-1,-13,1,-3,-7,3
152180985200,-2,-4,-3,0,3,-2,-5,-2
152180994224,-1,-1,0,6,9,-4,-6,-2
152180994224,-1,-2,-6,-1,6,2,-4,-4
152181008437,-2,-5,-1,-9,0,-1,2,-1
152181008437,-2,3,0,9,2,-1,0,1
152181015163,2,-1,0,-4,1,4,0,1
152181015163,3,1,-1,-5,-4,0,-4,0
152181031573,-6,1,-2,3,-2,0,2,3
152181031573,0,-5,-2,2,1,-2,-3,-3
152181033181,1,1,1,2,-2,0,-6,0
152181033181,-2,-1,0,1,6,0,-2,3
152181045295,-1,-1,-1,-3,2,1,3,-3
152181045295,-5,-1,-8,-8,-2,-2,-4,0
152181054207,-5,2,3,-1,-9,-1,2,2
152181054207,-1,-1,-2,-6,-2,0,2,-3
152181068497,1,1,-2,-5,-12,3,-3,-3
152181068497,3,3,-2,14,4,2,3,-1
152181075171,-1,2,0,-2,1,2,-4,-3
152181075171,1,-1,-2,1,0,-7,0,-4
152181091556,0,0,0,10,6,2,0,-3
152181091556,-2,1,0,-2,-4,0,0,-1
152181093133,3,-1,-1,4,-3,0,-1,1
152181093133,1,-2,-3,0,0,-2,0,1
152181105234,1,3,1,10,4,4,-1,-1
152181105234,-2,2,3,11,4,-2,-1,2
152181114167,-1,-5,-3,8,0,-3,2,0
152181114167,-1,-2,0,4,-4,1,1,2
152181128448,0,0,-3,-6,-3,-4,0,0
152181128448,0,-1,1,7,-4,0,1,2
152181135253,6,-4,-3,3,-9,-2,3,-2
152181135253,-4,-1,1,1,0,1,-3,0
152181150849,1,0,-2,6,-2,0,0,4
152181150849,4,-3,2,7,3,4,2,-1
152181157698,-2,1,-1,9,5,-3,4,3
152181157698,-2,-2,0,2,2,0,-4,-4
152181165182,-2,-4,3,6,0,-5,-2,1
152181165182,-2,2,0,5,-3,0,-6,-2
152181174231,-2,-3,-2,3,1,0,4,0
152181174231,-2,1,0,9,4,4,2,4
152181188368,-3,-1,3,-4,4,-4,-2,-3
152181188368,-2,-2,-4,-1,-1,1,-5,-4
152181195204,1,1,0,0,2,-2,-3,0
152181195204,-1,4,0,15,1,1,3,1
152181210904,-1,-2,-1,-7,1,-4,2,-2
152181210904,4,1,-2,8,-7,1,2,5
152181217680,-1,-4,-2,2,-1,4,-2,0
152181217680,-1,0,2,1,3,-2,1,-3
152181234054,6,0,-3,6,-4,-1,-1,0
152181234054,-3,1,0,2,-5,0,1,1
152181235637,-2,1,0,3,1,-3,-1,2
152181235637,-1,1,0,9,0,0,5,-3
152181248456,0,-1,-2,7,-2,1,2,-2
152181248456,1,-1,4,7,-6,-7,-1,1
152181255226,0,0,0,-2,-2,-2,-4,-1
152181255226,-2,-3,3,-4,-5,1,-5,-3
152181270908,-1,-3,-1,0,-3,0,-3,0
152181270908,-1,-5,0,-3,-1,0,0,0
152181277694,1,-3,-3,-3,2,1,-2,-2
152181277694,-2,-2,-4,-1,-1,-7,-2,2
152181294026,-3,-6,-3,2,2,1,2,-1
152181294026,-2,-2,-2,-5,1,-3,0,-3
152181295623,0,-1,1,1,-3,-2,-3,-4
152181295623,3,-5,-3,1,0,-1,0,0
152181308336,-1,4,-5,0,0,-2,2,-3
152181308336,-1,-5,1,-3,-1,-4,-5,1
152181315135,0,-1,-3,-3,-5,-3,-6,-3
152181315135,-2,-2,-3,-2,1,-3,-2,-1
152181330907,-3,0,-1,7,0,3,-1,2
152181330907,0,4,-1,-7,-3,-4,-1,-5
152181337670,-4,-1,2,1,-1,3,0,2
152181337670,-4,0,0,-1,-1,1,-2,1
152181354026,-2,-1,1,-2,-3,-2,-2,-5
152181354026,-2,-6,1,-3,-1,1,3,0
152181355635,-2,2,-2,4,-1,0,1,-1
152181355635,0,0,-4,-7,-2,0,-5,-4
152181368316,-5,2,0,-6,-3,-2,-1,-4
152181368316,-6,0,0,-4,-3,-2,4,-1
152181375216,-5,-2,2,-5,1,2,3,2
152181375216,3,0,-1,-3,-1,-2,-4,-2
152181390920,-2,-3,1,1,-1,4,-2,4
152181390920,1,-1,1,-7,-2,-2,-3,-3
152181397737,-3,1,-3,0,2,-1,0,-3
152181397737,-1,-7,3,-6,0,-3,3,-1
152181414061,-2,-2,-3,-2,-1,1,-3,-1
152181414061,-1,1,-4,3,-2,0,4,-4
152181415683,1,0,-2,9,0,4,3,-1
152181415683,1,2,1,4,0,-1,-2,4
152181428356,3,-4,2,2,-4,-4,0,0
152181428356,0,-5,-3,-3,-3,2,-5,-3
152181435113,-2,1,-1,-1,-2,-2,4,1
152181435113,2,-1,-4,-1,-1,1,2,-6
152181450864,-2,4,0,5,-5,0,1,0
152181450864,-1,-1,3,3,1,-3,-3,-2
152181457671,4,3,0,3,-4,-3,-5,-2
152181457671,-1,-2,-3,-1,-1,-1,0,-3
152181474097,2,1,-3,4,0,0,-3,-1
152181474097,-6,1,-2,-3,0,-1,-3,-3
152181475716,-3,-2,0,3,2,-2,0,1
152181475716,1,-5,-3,2,-2,0,-1,-2
152181488370,-4,-1,-2,6,-1,-1,-2,-5
152181488370,0,3,2,7,0,2,0,-2
152181495209,-1,-2,1,7,0,-4,3,-2
152181495209,0,2,1,2,-2,0,-3,0
152181510862,-2,-3,0,-6,-3,-5,2,-3
152181510862,-1,-1,-4,8,0,-5,0,1
152181517855,-5,-1,-2,-2,-4,2,0,-1
152181517855,-3,-3,2,1,-1,-4,2,1
152181534112,2,0,0,-6,0,-3,-3,-5
152181534112,0,-6,-2,-5,-1,0,0,0
152181535751,-1,0,1,-5,0,-3,-2,-2
152181535751,1,-4,-2,4,-2,-1,0,2
152181549248,0,1,-1,-3,-1,-3,1,2
152181549248,4,-2,-4,-2,-1,-1,-5,3
152181555232,-3,1,-4,1,0,-2,-4,5
152181555232,2,0,-4,10,-1,1,-4,1
152181570168,2,-1,-2,-2,0,1,-4,1
152181570168,9,-1,-1,23,2,3,-4,2
152181577735,-2,-3,-1,3,-2,0,2,-5
152181577735,-3,2,2,7,0,-1,3,1
152181593467,-1,-1,1,4,-2,0,-3,3
152181593467,-5,2,0,4,-3,3,0,-1
152181594239,2,-8,-3,1,0,-1,-1,-3
152181594239,-2,1,0,1,-3,-1,1,-5
152181609193,-1,-3,-1,12,4,2,-1,-2
152181609193,-2,-6,0,-8,-3,0,2,-1
152181615264,-1,3,0,4,0,-1,-1,-3
152181615264,-3,-6,-3,1,0,-3,-2,-1
152181630213,0,-4,-4,-1,0,-2,-3,1
152181630213,-3,2,1,-1,-1,-3,-4,-1
152181637727,1,0,-1,6,-2,-1,-2,0
152181637727,2,0,-1,-10,1,0,-5,0
152181653351,0,2,1,2,-1,-3,0,2
152181653351,-2,-1,-2,8,-1,-5,0,2
152181654107,-1,0,4,0,-2,-9,-3,-4
152181654107,2,4,-1,4,-1,-2,-3,-1
152181669131,0,-3,2,4,0,0,0,0
152181669131,2,1,-4,2,-3,3,4,0
152181675214,1,-1,-1,-1,0,-1,-1,-5
152181675214,-2,-2,0,-7,0,-3,-3,-2
152181690242,-4,2,-2,-8,0,-4,-1,-1
152181690242,-2,-6,-3,-1,0,-5,-3,-3
152181697909,1,-3,-2,-6,-1,2,-1,-1
152181697909,-4,2,-4,-12,-2,-1,0,-3
152181713428,-2,-4,-3,-4,-2,-1,-4,-6
152181713428,-1,1,-1,-9,0,-3,-1,-7
152181714176,-4,-4,-4,-10,1,0,-3,-2
152181714176,-2,-2,-2,-1,0,-6,-1,-1
152181729185,3,-8,-7,-13,-1,-3,-3,-1
152181729185,1,-4,-2,-2,-1,2,0,3
152181735202,-1,-1,-2,-6,-1,-3,-3,-1
152181735202,-3,-2,0,-10,-1,0,0,-3
152181750177,-4,-1,-6,-2,0,-1,0,5
152181750177,-2,-4,-2,0,0,-1,-3,1
152181757705,-1,-3,-1,-13,-1,-2,-4,-1
152181757705,-4,-3,0,-1,-2,0,0,2
152181773436,0,1,-4,-5,-4,-1,-6,-3
152181773436,-4,2,-3,-10,0,-1,-3,-8
152181774199,-3,-4,-7,-3,-2,1,-2,0
152181774199,-3,-5,-2,-9,-1,2,-2,-2
152181789225,3,-3,3,2,-2,5,3,-5
152181789225,-1,-2,0,2,-4,-2,0,3
152181795204,1,-2,-3,-6,1,3,0,-3
152181795204,-1,0,-3,4,-2,3,-2,-6
152181810232,-1,-1,-4,-2,-1,0,2,3
152181810232,0,-2,1,0,0,4,3,0
152181817686,2,-2,-3,11,-2,0,1,2
152181817686,-1,-2,3,9,-2,4,1,7
152181833464,-2,2,-4,-3,-1,-3,4,-3
152181833464,2,0,-4,5,-1,-1,-7,-7
152181834123,-2,3,6,7,0,1,7,0
152181834123,-1,0,-8,-4,1,-2,-3,-4
152181849258,-3,-1,-3,4,0,3,2,-2
152181849258,3,-3,2,0,1,-1,2,4
152181855252,0,1,0,0,-1,-2,2,-5
152181855252,1,0,7,3,0,-2,1,0
152181870179,-3,1,5,12,0,1,2,1
152181870179,1,3,-1,2,2,-3,-7,0
152181877685,-3,3,3,9,0,-2,-3,-1
152181877685,1,4,5,10,0,-1,1,-2
152181893434,-3,1,4,5,-1,0,-4,-1
152181893434,-3,-6,-6,-4,-2,0,0,-2
152181894258,1,0,3,4,0,-4,-4,2
152181894258,-2,-4,-1,4,-1,-3,-2,-4
152181909211,1,1,3,6,-1,-1,-2,1
152181909211,1,1,-2,2,-2,-3,0,-2
152181915260,-4,0,2,-7,-1,-2,-4,1
152181915260,0,0,-2,-2,-1,-2,-2,0
152181930338,-1,-3,-4,1,1,-1,-2,-1
152181930338,0,-2,3,-3,-2,-1,0,0
152181937764,-2,2,1,5,-1,1,5,-2
152181937764,2,1,-5,7,-1,0,-1,0
152181953357,0,-1,-4,-7,-5,0,-2,-1
152181953357,-3,-5,3,3,0,0,1,0
152181954126,4,-2,-3,-3,-1,-3,-5,-3
152181954126,1,-5,0,3,2,2,3,0
152181969161,-2,-1,1,11,0,-1,1,4
152181969161,-2,3,3,0,-4,-2,3,-3
152181975183,3,-5,-8,4,-1,2,0,-5
152181975183,-2,1,-4,1,1,-6,-6,-6
152181990180,-2,-5,-4,-11,-1,-2,-5,-6
152181990180,-4,-1,-3,-8,0,-2,0,-3
152181997719,-1,1,-1,8,2,4,5,1
152181997719,-3,-1,-2,-6,-1,-5,-4,-1
152182020891,4,3,0,7,-1,-2,-2,-1
152182020891,-5,-3,-7,-8,-1,-2,-5,0
152182021718,0,-3,-4,-8,-3,-2,-2,-3
152182021718,2,-1,0,6,-1,2,2,-1
152182029242,1,-3,2,4,-3,-3,-2,1
152182029242,-3,-5,-6,3,-2,-1,3,-2
152182035148,-3,-4,0,-4,0,-6,1,0
152182035148,-1,-3,1,0,-2,2,-5,-2
152182050228,-1,1,0,5,-1,-1,-2,-4
152182050228,-3,1,1,-2,-1,0,-6,3
152182057732,-2,-2,-8,-2,1,-5,-5,-4
152182057732,1,-1,-1,-15,-4,-9,-3,-1
152182072699,-5,0,0,-3,-1,-2,0,0
152182072699,2,1,0,4,0,-3,-7,-6
152182080139,-2,-2,-4,-9,-3,-2,-5,0
152182080139,0,-5,-5,-4,2,0,0,-1
152182089228,-1,2,-12,-13,-1,-6,-1,-1
152182089228,-1,3,-5,-2,-1,0,-2,0
152182095261,-3,0,0,-6,-1,-3,-5,-3
152182095261,2,3,-7,-8,0,-6,1,0
152182110253,0,-3,-6,-10,-3,-1,0,-3
152182110253,1,-3,2,8,0,-3,2,-4
152182117805,-1,-4,-10,-3,-2,-3,-6,2
152182117805,0,-4,-2,7,2,0,-5,-3
152182132858,-3,-3,1,-1,1,-3,-2,-5
152182132858,1,2,5,7,2,1,-3,-2
152182140201,3,1,-1,1,-2,-1,1,2
152182140201,-2,4,2,7,-1,2,1,6
152182155897,0,-5,1,-3,1,-3,-2,1
152182155897,2,2,0,7,-2,2,1,4
152182156662,-2,1,4,7,0,3,5,0
152182156662,-1,-5,-2,0,-2,-1,2,-5
152182170271,0,0,-2,-1,-1,-3,-1,-1
152182170271,3,3,4,-2,-1,0,1,1
152182177740,0,1,-1,-4,-1,0,1,-6
152182177740,-1,1,4,10,-2,-1,-1,2
152182192792,0,0,2,4,-2,-4,-2,4
152182192792,-3,-4,-6,-5,0,-7,0,-4
152182200232,-1,-6,2,9,0,3,-1,3
152182200232,4,-1,-2,1,-1,1,-3,-4
152182215943,1,-4,-2,7,-3,-1,2,0
152182215943,3,3,0,9,2,0,-4,-4
152182216713,0,-2,-1,-6,-3,-6,-1,-1
152182216713,-3,-1,-2,-3,-1,-4,-3,-2
152182230307,1,0,7,4,1,0,-1,1
152182230307,-2,-4,-1,-6,-5,5,-1,2
152182237809,0,-4,2,2,0,1,-6,-2
152182237809,2,1,1,8,0,4,5,-3
152182252693,1,2,-1,4,-2,1,-2,-2
152182252693,-2,-4,0,4,1,0,0,0
152182260191,0,-6,4,8,3,2,3,-2
152182260191,1,3,-3,2,-4,-2,3,3
152182275798,-3,4,1,4,1,-6,-1,-5
152182275798,-3,-1,0,0,-1,-3,-9,-2
152182276620,-1,3,-3,9,-4,0,3,2
152182276620,-4,0,-2,7,0,2,-4,-1
152182290212,-1,-6,-3,-5,0,3,-1,-3
152182290212,-6,-1,0,6,-1,-3,0,4
152182297703,-4,-2,-3,-2,1,-2,-5,-5
152182297703,-4,-4,-3,-5,-1,-2,-3,-2
152182312777,-4,-4,2,2,-1,3,2,0
152182312777,3,-2,1,2,-3,-2,-4,-3
152182320251,0,4,-6,-3,-4,-4,0,-2
152182320251,-5,5,0,2,-1,2,-2,1
152182335948,2,-3,1,2,-1,-2,1,-3
152182335948,-1,0,-1,-4,1,-2,4,-5
152182336725,1,-4,5,13,1,1,-3,3
152182336725,-1,-3,-6,0,-2,-5,-3,-6
152182350212,-3,-2,-9,1,-3,0,-4,3
152182350212,2,1,1,-3,0,-3,0,-3
152182357845,-3,3,-4,-3,-2,0,-1,1
152182357845,-1,-1,1,3,1,2,3,1
152182372750,-1,0,4,8,-1,-3,-5,-4
152182372750,2,-5,-3,-8,-3,-3,0,1
152182380289,-1,2,-6,-1,0,-2,-2,-1
152182380289,-4,-6,-2,-6,-1,-5,-2,-4
152182395882,0,3,0,0,-1,-2,2,3
152182395882,-1,-1,-9,-15,2,-4,-4,0
152182396650,-4,-4,0,4,0,1,1,-3
152182396650,1,-2,-1,3,-1,2,-2,2
152182410186,3,-1,1,12,0,-1,1,-2
152182410186,-1,-6,-7,-8,-4,-3,0,0
152182417735,-2,-2,3,-3,-1,0,1,2
152182417735,-6,-2,-4,-12,-1,-4,2,0
152182432721,-3,0,2,-4,2,4,-2,-2
152182432721,-1,-6,-8,-6,-1,3,-1,-1
152182440231,-3,-1,-2,-8,-1,-4,-6,-2
152182440231,2,-6,1,0,-1,1,0,1
152182455901,1,0,1,5,1,1,-2,3
152182455901,-1,1,-2,2,0,4,5,-1
152182456757,0,-9,-7,-6,1,-2,0,1
152182456757,3,-1,-4,-2,2,-3,-4,-3
152182470157,-1,-1,-6,-5,-3,-5,-2,2
152182470157,-4,3,1,11,3,4,-3,-2
152182477749,1,-2,-1,4,-1,1,6,1
152182477749,0,-1,0,1,-3,-2,-1,3
152182492693,2,-3,-2,0,1,1,1,1
152182492693,-1,0,1,-2,-5,1,2,0
152182500183,1,-1,3,8,-1,-1,-3,3
152182500183,4,-2,-2,3,-1,-3,0,-3
152182515852,-2,-1,-1,-7,1,-2,2,-4
152182515852,1,-2,1,6,-1,-3,0,-3
152182516611,0,-1,-2,-2,-3,3,1,-2
152182516611,1,1,2,1,0,-3,0,0
152182530216,1,-3,-3,3,1,0,-3,-5
152182530216,-6,3,2,3,0,-7,-9,-1
152182537762,3,-1,1,-1,0,2,0,-4
152182537762,-3,1,-5,-1,-1,0,-10,3
152182552741,-1,-1,1,-3,-3,-1,3,-1
152182552741,2,0,-3,4,-3,-2,4,3
152182560216,0,2,-3,-6,-2,-4,-5,-7
152182560216,-4,0,-2,-4,0,-1,-3,0
152182575868,-2,-3,-3,4,-1,-3,2,6
152182575868,-3,-4,-1,7,-1,3,-3,2
152182576709,0,-3,-5,-1,0,-1,1,3
152182576709,4,-1,0,-1,-2,1,6,-1
152182590184,5,-3,0,5,0,1,-2,1
152182590184,0,1,-2,8,-2,-1,4,-3
152182597672,-3,2,-1,-6,-4,-4,-5,-2
152182597672,-3,-3,0,8,-1,-3,2,-1
152182612693,-1,0,-7,-2,-2,-1,2,-2
152182612693,1,-4,0,1,-1,4,-1,1
152182620175,0,-3,1,4,0,0,-4,-5
152182620175,0,-1,-2,0,-1,3,1,5
152182635867,-3,-2,-4,-3,-4,-3,-4,-2
152182635867,1,-5,0,-1,-1,0,-2,2
152182636612,-2,0,-4,-3,-1,-2,3,-3
152182636612,2,-5,5,5,0,-3,-1,-1
152182650223,-3,-1,-5,-6,-1,-1,-5,-1
152182650223,-1,-2,1,3,-1,-3,1,3
152182657770,-2,-4,-2,-3,-2,-3,-3,-1
152182657770,-1,1,0,-4,-1,0,-2,-1
152182672762,-4,-4,2,-6,-1,4,2,-5
152182672762,-3,-2,-3,-5,0,-4,2,-2
152182680208,-1,-1,1,8,-2,0,-1,6
152182680208,-3,-2,-1,-6,-2,-3,-2,-4
152182695842,-3,-6,-1,4,-2,5,1,-1
152182695842,-2,-2,-1,-1,3,3,-5,-3
152182696584,0,-1,1,-3,-3,-3,4,-1
152182696584,0,-1,-2,5,-1,7,-2,-1
152182710202,2,2,4,2,0,0,-1,1
152182710202,-2,0,-2,-2,-4,-3,0,0
152182717675,-2,-3,-1,0,4,-1,-2,1
152182717675,1,-2,-2,6,-2,2,0,-2
152182732701,2,-4,0,-2,-2,-2,1,0
152182732701,-3,-1,-1,-10,0,-3,-2,-3
152182740211,0,3,-2,3,0,-3,-1,0
152182740211,-4,3,-4,-1,0,-1,2,0
152182755850,3,3,1,6,0,-1,-3,-4
152182755850,3,-4,-2,-5,-2,-3,-2,-4
152182756663,-1,5,-3,4,-1,2,-2,2
152182756663,-2,0,-1,1,1,-2,1,1
152182770231,-3,4,-5,4,-2,-2,3,-5
152182770231,-6,-4,2,-2,-1,-2,-3,1
152182777771,-1,-2,0,-8,-3,1,1,-4
152182777771,3,-2,-2,3,-1,-4,-2,-6
152182792764,0,1,0,1,-3,-8,-5,6
152182792764,3,-3,0,5,4,-2,3,-1
152182800241,-1,-1,2,6,-3,2,0,2
152182800241,-2,-4,-2,-2,-2,-5,-1,0
152182815847,-2,2,-5,-5,-3,3,-2,-4
152182815847,-1,5,-1,1,1,-3,-7,-3
152182816616,-1,-4,0,-4,-1,-3,-5,-4
152182816616,-3,-3,0,-10,-1,-2,-4,-2
152182830145,-4,-3,1,0,0,-1,-5,-2
152182830145,1,-1,-7,-5,-2,-4,-1,-2
152182837696,1,-1,0,-4,-2,-1,-4,-2
152182837696,-3,2,4,-1,-1,0,-3,0
152182852752,4,0,-1,0,-1,-1,0,0
152182852752,0,-2,1,-5,-4,-1,-2,1
152182860187,0,-2,2,5,-1,-2,0,-3
152182860187,3,-2,-4,-3,0,0,2,0
152182884079,-6,2,2,-3,1,-2,0,-2
152182884079,-1,-3,-3,0,-1,3,2,-6
152182884842,1,0,-5,-6,-2,-1,-3,-2
152182884842,-3,0,0,-9,-3,1,-2,1
152182890209,-4,-2,-6,-4,0,1,-2,2
152182890209,0,-1,1,-4,-3,0,3,-3
152182897753,-1,1,0,3,-1,3,2,0
152182897753,0,1,-2,9,0,-3,0,-1
152182912771,-1,-8,-2,1,-1,-4,-3,-4
152182912771,1,5,1,11,1,-1,0,2
152182920217,-3,-5,-1,1,0,1,0,0
152182920217,0,-5,-2,-4,1,-1,-4,-4
152182935893,2,3,-1,5,-1,-5,1,3
152182935893,0,-3,-2,-1,-2,1,-3,-3
152182936703,-6,3,2,-2,-2,-1,2,-1
152182936703,3,3,0,5,-2,-5,-3,-5
152182950193,-3,3,2,3,0,-3,0,-1
152182950193,-5,-2,-6,-3,1,1,-2,2
152182957752,1,0,2,3,-1,-5,-1,-1
152182957752,2,0,-3,1,-1,-1,0,-3
152182972694,-1,-4,2,-3,0,-1,2,-2
152182972694,-1,0,-1,3,-2,4,1,-1
152182980204,0,-2,-4,-4,0,-3,-1,-3
152182980204,-4,-4,-6,-8,-1,-3,-2,0
152182995875,-2,0,-3,5,0,0,-3,-1
152182995875,0,-2,-2,-5,-2,3,-3,0
152182996664,-5,-4,-2,0,-3,-2,-3,0
152182996664,2,-3,-2,3,0,1,-1,-2
152183010215,-2,-1,-1,3,-1,0,4,2
152183010215,2,0,3,-1,0,1,-4,-5
152183017771,0,-1,-5,-1,-1,-2,1,3
152183017771,0,0,1,7,-1,0,0,-1
152183032730,-1,-1,-2,0,2,0,1,-2
152183032730,0,1,-2,8,-3,-3,2,-1
152183040233,0,0,-1,6,2,4,1,-3
152183040233,1,1,-2,2,-1,-2,-1,-2
152183055227,4,1,-2,2,-1,-1,-3,-2
152183055227,-2,1,0,4,-1,-3,-3,-2
152183063392,2,3,-2,5,1,6,1,1
152183063392,-4,-1,2,4,1,-3,4,3
152183070186,-1,-1,0,4,0,1,-4,-1
152183070186,0,-3,-4,11,0,-2,-2,-2
152183077650,1,2,-2,10,-1,-2,-1,-2
152183077650,-1,-3,4,-2,0,0,0,0
152183092683,-5,-3,-3,-3,-3,2,1,-3
152183092683,-2,-1,1,4,-2,1,0,-2
152183100198,4,-2,0,8,0,0,-4,0
152183100198,2,2,1,8,0,1,0,1
152183115198,2,-6,-2,4,1,-5,-3,-7
152183115198,1,-1,-1,-7,-2,-4,0,0
152183123441,-2,-2,2,6,0,-2,-1,-4
152183123441,-4,-2,-7,-5,-2,1,4,0
152183138372,-1,0,4,-2,0,0,-4,1
152183138372,-5,4,-1,2,0,-1,-5,-1
152183139108,0,-1,-9,-4,-1,-3,-4,-5
152183139108,0,-2,-2,5,1,2,5,-1
152183152755,-3,-3,0,0,-3,1,-3,2
152183152755,-1,-3,-2,-5,0,-4,-5,4
152183160209,-1,-5,0,-12,-3,-2,-2,0
152183160209,-4,-1,-4,-2,-1,-1,-8,-2
152183175244,1,-3,-4,-7,-3,0,-1,-1
152183175244,-7,-1,0,-8,-1,-5,2,-6
152183183357,-5,1,2,-2,0,-6,3,-2
152183183357,-5,-1,0,-2,-3,-2,-4,-1
152183198427,0,0,-2,4,-1,-3,-2,3
152183198427,5,-2,2,2,-2,0,1,0
152183199177,-4,1,0,-8,-4,-3,2,-5
152183199177,0,-3,0,-3,0,-1,0,-1
152183212767,-3,-1,3,-4,-3,0,-3,0
152183212767,-2,-4,-2,-6,1,-4,-2,-3
152183220188,-1,1,0,-8,-2,-1,-2,-2
152183220188,-1,-2,-3,1,0,-2,-2,-2
152183235239,-1,1,-5,-4,0,2,-1,-1
152183235239,3,-3,-4,8,-1,1,-1,2
152183243387,-1,-1,-5,3,2,-3,-1,-1
152183243387,-2,3,0,-1,1,0,-1,-2
152183258390,2,-1,-6,-5,-2,-3,-3,-2
152183258390,1,3,5,-3,-2,-6,0,-1
152183259187,3,-3,-5,1,-2,5,-1,2
152183259187,0,1,-2,14,0,1,2,0
152183272770,-4,-4,1,-10,-1,-2,1,1
152183272770,-4,-1,0,-9,-1,0,-2,1
152183280226,1,3,-3,-1,-1,-2,0,-2
152183280226,3,1,-2,-4,-1,-1,1,-4
152183295164,-1,1,0,2,1,6,-2,-3
152183295164,-2,-3,-5,0,-2,2,2,-1
152183303385,-4,-4,0,-3,-1,-3,1,-1
152183303385,-1,0,2,-2,-5,-3,-2,-2
152183318390,-2,-1,0,2,-3,-4,0,-3
152183318390,-2,-2,-3,2,0,1,4,1
152183319163,0,1,1,7,-1,1,-4,-2
152183319163,0,1,-2,-2,1,-4,-5,2
152183332675,2,4,1,7,-3,-3,5,2
152183332675,-3,-1,1,4,-1,-3,0,0
152183340156,-2,-3,2,-2,-1,-3,1,5
152183340156,-7,-2,0,-2,-1,3,-2,-2
152183355178,2,3,2,2,0,1,-1,-1
152183355178,1,1,5,5,-2,1,1,1
152183363396,0,-3,-4,4,-1,-4,-3,-1
152183363396,0,0,1,0,-2,2,2,1
152183378350,-6,-5,-5,-2,3,-2,4,-1
152183378350,-1,0,0,-1,-2,-3,0,0
152183379116,-1,1,1,6,-2,2,0,0
152183379116,-5,-1,-4,2,-4,-3,1,1
152183392748,1,1,-4,17,0,0,3,3
152183392748,1,-3,0,2,-1,0,-2,2
152183400199,-1,1,-2,0,-1,-2,-2,-3
152183400199,-2,2,4,3,0,-4,0,0
152183415184,-1,-3,0,1,-1,-2,-7,5
152183415184,-2,-1,-5,-5,-1,1,-2,-4
152183423407,2,-7,-2,-3,1,-2,-1,0
152183423407,0,-2,-3,0,-2,1,-4,0
152183438848,-5,-3,-1,-5,-1,6,4,-3
152183438848,0,0,-3,2,-1,1,1,1
152183439596,-3,-3,-2,-8,-2,-2,-2,-1
152183439596,2,-2,-4,-2,-1,1,-2,1
152183452769,-3,-2,-1,-7,-2,-3,-1,1
152183452769,-2,1,-3,5,-2,-1,-6,-1
152183460217,-5,-5,-2,-8,-2,-1,-2,-6
152183460217,1,-1,1,6,0,1,2,1
152183475235,3,3,-1,7,1,-5,-2,3
152183475235,-3,1,-2,0,2,0,-6,-2
152183483388,0,3,5,5,0,0,-1,-2
152183483388,-1,3,-3,-2,-2,-2,-2,-1
152183498393,-1,-4,-1,3,-2,-1,-1,-8
152183498393,-4,-4,-1,1,-1,2,2,4
152183499158,-3,-1,1,-9,-1,-7,0,0
152183499158,-5,-1,-1,8,-2,1,2,2
152183512772,1,-3,-2,1,-2,-3,-5,-3
152183512772,-3,-3,-5,-8,-4,-4,-2,2
152183520242,1,1,-4,-1,2,4,-3,5
152183520242,3,-4,-2,2,-1,-3,0,-4
152183535225,0,2,-2,-6,-1,-5,-4,-3
152183535225,0,-2,-3,-2,-1,-5,-4,-5
152183543379,1,-2,-2,4,-2,2,-5,-2
152183543379,2,-4,-1,-10,0,-5,-3,-2
152183558397,0,-1,0,1,0,-3,-7,6
152183558397,1,-4,-3,3,1,-2,1,0
152183559157,-2,3,-1,-4,0,2,0,-1
152183559157,-6,-5,-5,-9,-2,0,0,3
152183572773,-7,-4,3,-11,-2,-3,-1,-2
152183572773,-4,-4,-2,-2,1,-1,-1,-1
152183580203,2,1,-4,0,-3,-2,-6,2
152183580203,2,-2,-1,-5,1,-5,-4,-1
152183595198,-1,0,-1,-13,0,1,-4,-5
152183595198,-1,-1,-1,-2,-2,-1,0,-1
152183603446,0,-2,0,7,-1,4,1,1
152183603446,0,-1,-1,-2,-1,-1,0,-2
152183618443,-1,-5,-3,-6,-2,7,2,1
152183618443,1,-5,1,-6,-1,-1,-6,-1
152183619207,-7,-6,-4,-1,0,3,0,0
152183619207,-1,-4,-2,0,-1,0,1,2
152183632704,-2,-4,-1,-2,1,1,-4,-1
152183632704,-1,2,0,-8,-3,2,-2,0
152183640210,-1,0,-1,-7,-1,-4,-4,0
152183640210,-2,-2,0,10,-1,3,2,-7
152183655200,-3,3,-2,7,1,-1,1,3
152183655200,-1,-3,-2,-12,-1,-3,-7,4
152183663431,3,5,3,3,0,0,1,-2
152183663431,-1,-2,2,4,0,3,-2,-1
152183678391,9,1,0,5,-4,0,2,-5
152183678391,-4,0,-2,3,1,3,4,-3
152183679140,-1,4,0,9,0,2,-1,-2
152183679140,0,-2,-1,-6,-2,-6,-3,3
152183692747,-4,2,-1,11,-1,4,5,4
152183692747,0,-2,-2,-1,0,-3,-4,-2
152183700208,-1,-2,1,1,-2,-2,-4,0
152183700208,1,4,0,-8,0,-4,-3,-6
152183715238,3,-6,-2,3,-1,-3,0,-3
152183715238,2,-2,-2,6,-2,0,-2,-3
152183723437,0,-4,-1,8,-2,0,1,1
152183723437,-2,0,4,9,1,2,4,1
152183738388,5,0,2,-3,1,-1,-4,-2
152183738388,0,3,1,6,-1,-2,2,0
152183739149,-1,-1,-3,-7,-2,-4,0,-2
152183739149,-7,-2,-3,-2,-3,0,-2,0
152183752833,-1,-1,-2,3,0,-3,2,0
152183752833,2,-1,0,8,-2,1,1,2
152183760302,2,-1,0,-1,-1,-1,-6,-1
152183760302,1,0,0,6,-1,4,0,-2
152183775316,-6,-2,2,3,-1,4,-6,4
152183775316,-3,-5,0,-4,-1,-4,-3,-2
152183783471,0,-5,-2,4,1,-2,-4,3
152183783471,-4,3,-6,3,-3,-2,-6,-1
152183798402,1,-2,-2,-1,-3,-1,-4,-5
152183798402,3,2,3,4,-2,2,-2,0
152183799215,-7,0,-6,4,0,-2,4,-1
152183799215,4,-4,0,2,1,-2,-5,5
152183812818,-3,-2,-5,-2,0,-2,4,1
152183812818,-2,-3,-2,-4,-1,-4,0,-2
152183820319,-3,2,-1,0,-3,3,-1,-1
152183820319,2,-1,-4,-1,-2,1,2,-2
152183835331,-6,-6,-2,-10,-2,0,-4,-2
152183835331,0,0,1,7,3,-2,0,-1
152183843454,1,-1,-1,-6,-1,-1,-1,0
152183843454,-2,-4,2,3,0,-4,-6,-3
152183858409,-3,1,-1,-7,-1,-2,1,-2
152183858409,-2,0,-3,3,-2,4,-1,3
152183859182,-3,-4,-1,4,1,-5,2,-1
152183859182,-2,-4,-5,2,-4,2,2,-3
152183872863,-2,-2,-1,-5,-2,-5,-2,-4
152183872863,0,-4,-1,-2,-3,1,3,1
152183880278,-4,-3,-7,-1,-1,-1,-1,-1
152183880278,-1,-1,1,3,-2,-3,-6,-1
152183895252,-1,1,-5,-6,-1,-6,-1,-3
152183895252,1,1,3,3,0,-6,-5,1
152183903412,1,1,1,1,-2,-1,-2,-5
152183903412,1,0,-3,-6,0,-3,1,-2
152183918405,1,-1,0,4,0,0,0,-4
152183918405,1,-3,-3,1,2,-5,4,-7
152183919215,-1,-3,1,-5,-2,-2,-2,1
152183919215,-2,2,-3,-3,1,-4,-5,2
152183940951,0,0,1,6,-1,3,-4,3
152183940951,-4,4,-5,-9,1,1,-1,-7
152183941773,-1,-7,-1,-2,-3,3,-4,-2
152183941773,-2,2,1,-11,2,-2,-3,1
152183955190,-3,-4,0,-1,-2,-4,0,1
152183955190,0,-2,-1,-6,-2,-1,-2,2
152183963427,0,-3,-1,-5,-3,1,4,-2
152183963427,-1,-2,-1,2,0,0,5,-2
152183977763,-4,-2,-2,4,0,-4,2,-3
152183977763,-8,2,-2,-9,-4,-4,3,-5
152183985678,4,2,0,3,1,-1,-2,-2
152183985678,0,-5,-4,-4,-2,-3,3,-4
152183994190,2,0,0,2,-1,-2,-1,0
152183994190,0,-5,-4,-1,-2,-2,-3,-4
152184000210,5,-5,-4,-3,0,-3,-5,0
152184000210,-2,2,2,-4,-3,2,-1,-1
152184015239,2,-1,-2,-5,-3,1,-5,-2
152184015239,-2,-1,-2,1,-2,0,-5,1
152184023452,-2,-1,-5,-9,-1,-1,0,-4
152184023452,2,0,3,4,0,2,3,-1
152184037778,-4,-4,-4,-7,-4,1,-1,2
152184037778,1,-1,0,3,-1,-2,-2,0
152184045921,-3,-1,2,2,-4,-1,1,-1
152184045921,1,0,-1,8,4,0,-2,2
152184060929,-2,2,2,5,-2,3,3,1
152184060929,1,4,0,7,0,1,-1,1
152184061718,-1,-5,-1,1,-2,2,-2,0
152184061718,0,-2,-2,-1,-3,-2,1,-3
152184075257,3,3,0,11,3,2,2,-1
152184075257,2,-4,-3,-2,1,-2,-5,0
152184083525,3,2,5,7,-2,1,1,0
152184083525,-4,0,-1,2,-2,-2,-4,2
152184097804,-1,-2,-1,-3,0,0,-1,-1
152184097804,-2,-1,1,3,0,-1,0,-3
152184106003,0,-1,-3,8,-1,1,-1,2
152184106003,-1,1,1,6,1,0,-5,-3
152184120961,2,0,1,4,1,-2,-5,-8
152184120961,0,1,0,-1,-4,-2,0,-2
152184121807,-4,1,0,2,0,-5,1,-3
152184121807,-2,-1,0,3,-2,1,6,1
152184135330,2,-2,-3,4,1,0,-3,-1
152184135330,-1,-1,4,-3,-2,-1,0,3
152184143504,-3,0,-4,-1,1,-5,-5,-4
152184143504,-1,-3,-3,8,-1,-2,0,4
152184157741,-2,0,0,-1,-1,-9,3,-1
152184157741,1,5,-1,7,-1,5,1,-3
152184165978,-1,-4,3,-3,-3,-6,2,0
152184165978,-3,1,2,-1,-1,-1,-1,-3
152184180985,-2,1,-3,17,1,-1,2,1
152184180985,-4,-7,-1,-8,-1,-4,0,-1
152184181804,-1,0,-2,1,0,-1,-1,-4
152184181804,3,1,1,0,-3,-2,-3,2
152184195339,-2,-5,-3,-9,-3,-2,-2,1
152184195339,-6,0,-1,-3,-1,2,2,-3
152184203472,-4,-1,-4,-2,-1,-3,-1,2
152184203472,2,-2,1,-1,-2,-1,1,-6
152184217846,-2,-4,1,-10,0,-1,-1,5
152184217846,1,1,-1,3,-3,-2,-3,-1
152184225995,0,-1,0,2,3,2,7,3
152184225995,0,-6,-2,1,0,-2,-1,0
152184240919,-3,2,-2,-2,-2,1,-5,-1
152184240919,-3,-1,1,-1,0,-1,3,1
152184241811,5,3,-5,10,0,-1,-3,-3
152184241811,-3,1,-3,-2,-2,-5,-4,-3
152184255278,3,-3,0,5,-1,5,5,2
152184255278,-2,1,-6,11,2,1,1,4
152184263419,2,0,2,12,-2,3,0,2
152184263419,-1,-2,-3,4,-2,0,2,1
152184277806,-1,-5,1,-4,-2,-6,4,3
152184277806,-1,-4,-3,4,-1,-1,-1,-5
152184285937,-1,2,3,-9,-2,-2,-2,-4
152184285937,-6,-1,-5,2,-1,2,1,2
152184300892,-1,7,-3,2,-1,-6,-1,0
152184300892,0,-4,-3,3,-1,1,-1,0
152184301739,-2,1,-1,-1,-1,-2,-4,-2
152184301739,1,-1,2,4,1,0,2,-3
152184315253,-3,1,2,5,-1,-5,0,-5
152184315253,1,-1,-3,-5,-2,-1,-2,-4
152184323425,-2,-2,-4,0,2,-4,-1,-2
152184323425,-3,-4,-5,-11,0,-5,-4,0
152184337821,-2,-3,1,8,0,0,-2,0
152184337821,-1,-2,-2,-1,1,1,-6,0
152184345969,-3,0,1,-8,-2,-2,0,-2
152184345969,1,-4,3,-5,-1,-1,-3,-5
152184360922,1,2,1,5,0,2,0,0
152184360922,1,-1,3,8,-3,-1,1,1
152184361665,-5,-1,0,-3,-1,2,-1,0
152184361665,4,-1,-4,2,0,-2,0,3
152184375214,-4,1,-4,-3,-3,-2,-4,-3
152184375214,0,-1,0,-2,0,-5,-1,-2
152184383460,0,-1,1,-6,-2,-2,0,2
152184383460,0,0,-2,4,-4,1,4,1
152184397760,-1,-1,-2,-9,-2,2,-3,-1
152184397760,-4,-1,-4,-3,-4,-4,-1,-3
152184405957,2,0,2,-7,-6,-3,-3,-7
152184405957,-3,1,-1,-2,0,0,3,-1
152184420905,2,1,0,4,-2,-3,-3,0
152184420905,2,1,1,-2,-3,-3,-1,2
152184421725,-2,-4,-3,-3,1,1,-2,2
152184421725,0,-1,1,-1,-3,-1,-9,-2
152184435224,0,1,-4,0,-1,-4,-3,1
152184435224,2,-1,-3,-2,-1,-2,-5,0
152184443419,-1,1,1,-3,13,-4,0,0
152184443419,-2,1,-1,-7,13,-1,0,-2
152184457727,-1,-4,-3,13,-19,0,-2,-1
152184457727,-2,-3,-3,-11,74,-1,0,-1
152184465913,1,1,-4,16,106,0,3,2
152184465913,-2,-2,3,-11,127,-2,0,-2
152184480884,-1,1,2,-26,127,-6,4,-4
152184480884,-2,-5,-3,-50,-45,1,-3,-1
152184481738,-1,-4,-5,-14,-112,-6,-3,4
152184481738,2,0,2,-44,-125,-3,-4,-5
152184495258,-2,3,2,14,-128,-2,-2,-5
152184495258,-2,0,0,42,-46,-1,-1,-1
152184503490,2,0,2,40,-34,1,-4,-4
152184503490,-1,-3,0,15,-46,-2,2,0
152184517813,-3,-3,-1,15,42,-8,-5,-2
152184517813,2,-1,-3,0,1,2,0,-2
152184525996,-2,11,1,13,39,0,-1,-2
152184525996,-2,-6,-6,0,-39,2,-1,2
152184540993,0,-1,-1,-26,-6,2,-2,-3
152184540993,-1,4,5,31,11,0,0,-5
152184541804,1,6,5,15,34,-4,-1,-1
152184541804,-3,-19,-12,8,-40,3,-1,1
152184555306,1,13,4,21,14,0,-3,2
152184555306,0,-7,-2,-13,-17,-4,-6,-4
152184563559,-2,-6,-4,-29,-13,0,3,-1
152184563559,0,13,4,8,25,4,-2,-3
152184577848,-1,-12,-2,-15,-26,-5,3,3
152184577848,-1,-18,-15,-19,56,-5,-4,1
152184586033,-1,-9,-7,-10,-10,2,0,1
152184586033,-1,3,6,6,54,2,-1,4
152184601002,0,-11,-8,-7,-11,2,1,-3
152184601002,-2,-27,-42,-3,39,5,4,6
152184601763,2,64,82,33,38,-4,-1,0
152184601763,2,-59,-74,-40,-59,-1,3,-2
152184615306,-4,25,45,-11,-103,1,-6,0
152184615306,2,-72,-80,-30,-49,4,-1,-6
152184622846,-3,52,57,46,80,-1,-5,-9
152184622846,-4,97,107,38,3,-6,-7,0
152184637811,-1,-6,3,-41,-128,1,0,-4
152184637811,0,-45,-55,-63,-128,-2,1,3
152184646035,-6,-91,-90,-36,29,2,-5,0
152184646035,2,77,69,52,103,-3,-1,1
152184660892,1,86,110,44,79,-4,-5,-5
152184660892,1,23,18,-28,-123,0,0,-1
152184661752,-3,-128,-128,-80,-97,3,6,4
152184661752,-6,53,61,50,107,-1,0,-1
152184675296,-1,44,25,11,-49,-2,-3,-2
152184675296,-1,-55,-57,-45,-71,-3,-3,-3
152184683542,-3,17,25,26,23,-2,-6,0
152184683542,5,72,74,48,-9,-2,-3,-4
152184697870,1,-28,-37,-33,-62,-3,3,-1
152184697870,-7,-73,-60,-35,1,-1,0,-4
152184706001,4,71,91,56,77,-2,2,-1
152184706001,-1,37,39,-13,-124,-4,-5,-8
152184721015,-3,-128,-128,-72,-63,0,-1,2
152184721015,1,108,126,102,127,-8,-1,-2
152184721854,1,96,87,15,-84,-6,-9,-4
152184721854,-2,-128,-128,-113,-128,3,1,3
152184735227,-1,-65,-53,1,124,4,4,1
152184735227,3,127,127,110,76,-9,-4,-8
152184743454,-2,-16,-32,-61,-128,-3,-6,-3
152184743454,0,-128,-128,-69,-45,3,4,1
152184757754,0,114,124,86,127,-7,1,-2
152184757754,0,-8,-15,-38,-127,-3,3,-2
152184765918,1,-121,-127,-70,-51,2,5,-4
152184765918,3,73,72,69,121,-4,-2,-2
152184780918,2,76,61,22,-80,-1,0,-3
152184780918,-3,-124,-128,-76,-76,1,4,4
152184781734,-2,48,66,57,127,0,-2,-3
152184781734,0,64,65,6,-68,-1,-6,-4
152184795316,2,-128,-128,-93,-59,4,2,0
152184795316,1,89,94,85,127,-1,-3,-4
152184802782,-1,79,72,13,-80,-5,-1,-1
152184802782,-7,-128,-128,-95,-128,1,4,-1
152184817778,-3,-6,-4,28,97,2,0,-1
152184817778,-1,127,127,73,49,-4,-7,-3
152184825942,2,-62,-61,-68,-128,3,1,4
152184825942,-2,-104,-103,-48,-18,1,4,-2
152184840878,-1,30,20,41,60,1,-1,-3
152184840878,0,81,69,30,28,0,-1,-2
152184841720,0,-90,-63,-61,-112,3,-2,2
152184841720,-2,-103,-55,-61,-99,-2,2,2
152184855221,0,-126,-75,-81,-128,6,-3,-1
152184855221,-5,-96,-80,-26,52,3,6,1
152184863427,1,13,-14,-20,-5,0,1,0
152184863427,2,30,34,30,15,-5,-5,-1
152184877766,0,-103,-79,-82,-128,-1,-1,1
152184877766,0,-128,-95,-102,-128,2,0,3
152184885965,-1,-8,-28,5,1,-3,2,1
152184885965,-2,79,14,9,2,-4,-5,-5
152184900913,-2,37,28,14,3,-8,-1,-5
152184900913,-3,-18,-30,-14,-3,2,-1,3
152184901703,-4,95,24,17,-74,-6,0,-4
152184901703,0,-92,-2,-19,-77,6,0,-1
152184915288,-2,-78,-16,-13,-107,8,2,6
152184915288,-1,-128,-126,-96,-128,2,-1,1
152184923485,-4,-128,-51,-65,-115,-7,-6,3
152184923485,-3,94,69,-5,-119,-5,2,-2
152184937794,-1,127,123,30,-109,-4,-4,-4
152184937794,-3,111,126,61,65,-6,-6,-4
152184945981,-3,118,123,102,127,0,-4,-1
152184945981,-4,127,125,119,127,-2,-4,-6
152184960328,-3,127,127,110,127,-9,-3,-2
152184960328,1,127,127,71,33,-9,-11,-6
152184968487,3,109,118,49,-67,-1,1,-2
152184968487,-2,5,-27,-27,-109,-4,-6,0
152184975354,5,-84,-102,-88,-128,-1,-4,2
152184975354,-1,-127,-128,-67,-112,3,3,3
152184983543,-1,-71,-25,0,119,2,0,-1
152184983543,-2,91,115,60,120,-1,2,2
152184997807,-3,120,105,56,32,-6,-6,-8
152184997807,-1,-75,-77,-61,-81,3,0,0
152185005952,-3,82,90,65,81,-5,-6,-4
152185005952,1,-97,-89,-48,19,3,0,5
152185020300,-2,-50,-68,-44,-43,-2,-2,2
152185020300,-3,-16,-14,-12,-54,1,-2,-6
152185028501,-1,-75,-60,-61,-118,-1,2,-3
152185028501,-2,-62,-49,-48,-31,-4,-7,-3
152185044141,1,21,18,-2,36,2,1,0
152185044141,1,22,26,14,-39,-1,2,-1
152185044912,-3,-1,-2,-8,40,0,-1,1
152185044912,2,61,58,17,24,-4,-5,-3
152185057870,-2,12,29,3,15,3,-3,-1
152185057870,-5,-19,-22,-33,-59,1,3,-1
152185066005,0,60,78,65,71,-1,-7,-2
152185066005,4,-63,-57,-39,-72,-1,4,3
152185080267,-5,-24,-22,8,30,0,0,-4
152185080267,-1,127,127,64,49,-8,1,0
152185088466,0,-116,-123,-59,-46,1,-3,0
152185088466,-4,-62,-42,-2,-17,-4,2,-2
152185104096,-3,54,62,49,26,-1,-3,-3
152185104096,-2,127,127,79,39,-1,-2,0
152185104944,-1,-92,-107,-54,-41,-1,4,0
152185104944,-2,1,4,18,18,0,-3,-1
152185117852,-1,-99,-91,-34,4,-2,3,-1
152185117852,-3,-39,-30,13,27,-3,-2,-3
152185126000,-1,-73,-62,-21,2,-2,0,1
152185126000,-3,83,80,44,16,1,3,3
152185140285,-1,125,104,21,-1,-5,1,-1
152185140285,0,-128,-128,-71,-11,3,-2,0
152185148391,-2,-68,-61,-32,-10,0,1,1
152185148391,-1,-21,-21,17,14,-6,-6,0
152185164103,-4,59,38,7,-6,-3,-2,-1
152185164103,0,127,127,51,31,-2,0,0
152185164900,-5,127,127,44,4,-2,6,3
152185164900,-3,-64,-64,-103,-111,3,4,-1
152185177755,3,-121,-122,-71,-101,3,2,2
152185177755,0,41,50,-2,-7,5,1,0
152185185952,-3,127,127,114,101,-3,-7,-4
152185185952,0,-56,-59,-64,-84,-2,3,0
152185200230,-2,-40,-37,-3,-9,-1,-7,-1
152185200230,-5,-18,-46,-1,-13,-3,-1,-4
152185209258,-2,-20,-43,-32,-55,1,0,-4
152185209258,-2,69,67,29,51,-5,-3,-6
152185222782,-3,-39,-61,-30,-48,3,5,2
152185222782,2,-66,-60,-45,-63,1,1,3
152185231781,3,44,66,43,48,1,1,2
152185231781,2,7,3,27,3,-1,-4,-3
152185237747,-1,-23,-20,-26,-28,6,6,3
152185237747,5,51,52,49,72,-6,1,-4
152185246777,-5,-73,-79,-41,-77,-1,0,3
152185246777,-5,49,70,21,45,6,2,5
152185260246,-5,14,29,24,10,-2,-7,-4
152185260246,-3,5,-10,4,32,-3,-7,-5
152185269279,7,40,49,9,20,-2,-1,-3
152185269279,0,127,127,81,121,-8,-3,-3
152185282795,0,-32,-39,-20,29,-1,-1,2
152185282795,-3,63,61,37,-29,-11,-4,3
152185291733,2,108,105,55,95,-8,-5,-4
152185291733,-4,57,46,35,41,4,-2,-4
152185297784,-3,51,49,18,42,-3,1,-1
152185297784,-2,25,22,29,69,-1,-4,2
152185306831,0,64,50,28,39,4,4,-3
152185306831,2,68,73,49,16,-1,0,2
152185320340,2,112,82,70,127,-4,2,3
152185320340,1,6,24,4,28,-1,2,5
152185329329,-1,-82,-20,-27,-88,1,-5,0
152185329329,-2,-91,-54,-43,-80,1,-4,0
152185342802,-4,-56,-13,-9,6,0,-1,-2
152185342802,1,47,-25,14,35,3,1,0
152185351733,1,-11,-85,-44,18,-1,3,2
152185351733,-1,-61,-60,-27,-47,-6,2,-3
152185357849,0,-19,-1,-13,-51,4,0,-3
152185357849,-4,-9,-45,-25,-25,2,5,-4
152185366785,-3,12,-36,-8,-18,1,-1,2
152185366785,-7,-59,-35,-23,-55,0,7,1
152185380369,0,-11,5,1,69,-4,-6,0
152185380369,-2,47,3,25,58,-5,-1,-5
152185389295,1,-73,-33,-39,-84,-2,0,0
152185389295,-4,36,-24,-9,25,0,-6,0
152185402849,1,62,-3,-3,-69,-2,2,-4
152185402849,0,-103,-21,-22,26,1,-5,2
152185411748,-3,-45,-6,-11,6,-4,-2,-4
152185411748,2,44,-8,10,44,-4,3,0
152185417834,1,-36,4,-12,-73,-3,-1,-1
152185417834,-1,23,-15,-31,-101,-3,2,-2
152185426772,-5,26,-18,-9,-33,2,0,-8
152185426772,1,-57,-11,5,52,1,-1,-2
152185440364,1,-31,4,-1,16,-7,-6,-4
152185440364,-1,-15,-3,-5,-24,-6,-2,-6
152185449330,-1,29,-15,6,-44,-3,-7,-2
152185449330,0,112,-11,29,-9,-3,-1,-5
152185462804,-1,3,2,5,22,7,-3,2
152185462804,-2,-58,-13,-31,-67,6,3,3
152185471774,-1,-79,-13,-28,-29,5,3,1
152185471774,4,1,-8,-1,-1,-1,-2,3
152185477828,-3,-22,2,-26,-17,9,5,3
152185477828,0,84,6,45,55,-13,0,1
152185486799,-5,-1,-11,7,15,-12,5,-1
152185486799,-2,-70,-5,-29,-28,9,2,0
152185500301,-3,-6,-1,6,9,-11,-2,-3
152185500301,1,-21,-8,-7,-41,-2,-3,-1
152185509234,2,-25,-9,-2,57,-9,0,-1
152185509234,1,1,-2,-24,-23,-6,-2,0
152185522833,2,38,6,17,-32,-13,0,-5
152185522833,-2,-46,-6,-24,-13,7,-4,-3
152185539951,6,34,-8,-17,15,31,-5,0
152185539951,1,-22,-7,38,55,22,-1,-3
152185540724,0,6,7,5,2,1,1,-1
152185540724,0,-33,4,78,35,2,0,-1
152185546770,-1,-26,3,-10,101,6,4,6
152185546770,1,4,3,-94,58,7,1,5
152185560274,3,-5,-2,-38,93,-12,9,1
152185560274,4,11,-2,32,-10,-7,1,0
152185569262,-3,18,-8,8,-109,-18,-5,-4
152185569262,5,-25,-9,40,-7,-22,2,-1
152185582808,-4,19,5,18,3,-14,-4,-6
152185582808,8,-22,-12,-35,-2,-4,-2,-2
152185591752,-3,-4,-16,17,11,2,-1,-2
152185591752,-13,-20,-3,-7,-23,-1,-3,-3
152185597785,-6,-11,-3,-3,-13,-2,2,-3
152185597785,-4,-7,-2,-17,-19,7,2,-3
152185606771,0,-4,7,7,-13,1,1,-3
152185606771,4,2,5,2,45,-1,4,0
152185620254,9,7,-1,5,-5,10,4,2
152185620254,1,-7,15,-7,0,9,1,1
152185629255,0,9,-12,-15,52,-4,-3,-4
152185629255,-2,-6,-3,5,46,-8,-6,-4
152185642765,7,2,-16,17,20,1,-3,-1
152185642765,7,-11,-14,-21,-5,0,-2,-4
152185651763,3,-5,11,-10,-27,-2,-4,0
152185651763,-4,-3,1,-4,-26,0,-3,-3
152185657773,-3,22,14,12,3,1,1,3
152185657773,-9,26,7,-6,-3,-6,-3,-3
152185666785,-5,-6,2,-7,4,-5,1,-8
152185666785,-10,-33,-16,-11,-128,-3,-2,-2
152185680329,-9,21,3,12,-9,0,-7,-3
152185680329,-1,-10,-8,-9,-8,-3,2,-3
152185689270,4,14,5,4,8,0,-3,-3
152185689270,7,-5,-7,-17,-30,4,4,-1
152185702782,3,13,10,-4,-22,0,0,-4
152185702782,3,-114,-42,-22,106,0,2,4
152185711782,-4,-87,-47,-11,109,6,6,3
152185711782,-4,-126,-100,-57,-59,4,7,7
152185717798,-6,-127,-123,-68,-98,-2,1,3
152185717798,-5,-115,-72,-77,-128,-1,0,0
152185726786,-1,-128,-61,-70,-128,0,3,2
152185726786,3,-126,-113,-74,-90,-6,-2,-6
152185740280,-2,-128,-120,-82,-86,9,-1,2
152185740280,-2,53,25,24,74,0,1,2
152185749236,3,35,46,6,-36,-4,-6,0
152185749236,-1,52,46,44,93,0,-3,-3
152185762771,3,-85,-74,-60,-104,3,-1,-5
152185762771,0,-29,-30,-18,-67,-2,-5,0
152185771745,3,78,68,39,-12,0,-4,2
152185771745,-6,-20,-26,2,-37,0,-2,0
152185777804,1,-50,-43,-35,-49,-3,-2,-3
152185777804,1,-67,-64,-26,-44,-3,1,-6
152185786712,1,-30,-25,7,20,1,-1,-4
152185786712,0,-25,-33,-32,-74,-4,-5,-6
152185800397,-3,57,91,84,127,-3,-4,-2
152185800397,-7,-20,-32,-24,-39,4,0,4
152185809325,-4,59,46,43,46,-6,-2,-8
152185809325,2,-58,-58,-50,-29,2,-3,-3
152185822879,-1,89,95,82,121,-5,-3,-1
152185822879,1,-27,-43,-32,-53,0,-6,-1
152185831852,1,-20,-38,-37,-15,3,8,2
152185831852,0,99,95,74,109,-2,-4,2
152185846632,0,55,48,59,53,-1,3,0
152185846632,-1,41,8,21,-29,-3,-5,-4
152185848229,-6,-5,-62,-4,-42,-4,0,-6
152185848229,3,-6,-23,-6,-44,-5,-3,-1
152185860291,0,-60,-90,-61,-100,4,2,2
152185860291,-2,0,26,12,46,-4,0,-4
152185869266,-4,-17,-58,-11,-22,1,-1,2
152185869266,3,-8,64,13,75,1,2,-5
152185882800,-6,-3,17,9,24,1,-2,2
152185882800,-3,8,34,34,65,-1,-7,-6
152185891853,-1,-44,-48,-19,6,0,-4,1
152185891853,-1,-10,-34,5,11,1,-5,2
152185897812,6,-4,13,12,29,-3,-5,0
152185897812,0,16,-26,11,27,1,1,-2
152185906858,1,-13,47,21,43,-5,-4,-4
152185906858,-3,-10,-65,-14,-52,0,1,2
152185920305,-1,-14,53,-2,5,-4,-2,-5
152185920305,-2,-5,-31,2,5,-3,-1,2
152185935345,1,-25,44,-16,-30,-2,2,3
152185935345,3,11,64,32,68,-3,-1,4
152185942846,2,-5,-64,-4,-1,-4,-2,-2
152185942846,-1,-4,14,25,39,-1,2,-5
152185951824,-3,-9,-51,-31,-38,-2,-2,2
152185951824,-3,12,-1,37,65,-5,1,-2
152185966773,6,10,55,16,14,-7,-5,2
152185966773,25,0,0,9,107,8,1,1
152185968260,-7,18,43,54,127,3,-2,-1
152185968260,-24,1,19,-4,7,-30,1,-4
152185980411,6,-32,71,44,118,-34,4,-2
152185980411,9,-25,-57,-4,99,33,5,17
152185989329,21,17,35,-10,-43,39,11,-2
152185989329,-6,33,79,-5,-79,68,28,-17
152186003514,-47,54,61,-20,15,83,15,-18
152186003514,24,126,41,39,44,-111,-9,-5
152186010326,12,-45,-102,22,127,-69,-30,23
152186010326,-13,-89,-54,-56,74,66,-66,21
152186026639,44,91,-128,-43,-51,108,-23,-1
152186026639,18,54,114,-46,-39,127,-3,-17
152186028199,35,127,-16,19,50,-82,-35,-11
152186028199,19,32,118,-29,-82,37,-67,-51
152186040289,-92,85,-40,14,127,-94,72,-10
152186040289,-27,-69,-105,9,74,76,15,11
152186049286,11,-80,-12,-13,-2,2,48,5
152186049286,-19,-102,95,26,-52,-46,22,40
152186063485,24,-83,64,-37,-120,-20,-17,7
152186063485,10,-30,21,8,-48,-53,19,-16
152186070325,-46,6,-53,32,69,30,-19,-6
152186070325,-1,-3,-97,-19,-21,-28,-1,-8
152186086626,22,47,-45,18,-56,-34,-16,2
152186086626,-8,72,-7,36,37,-42,2,2
152186088245,8,14,17,-23,-55,52,-4,-7
152186088245,-4,122,-8,29,2,2,13,-1
152186100320,9,-45,32,-6,-52,-31,-3,1
152186100320,-14,-59,40,-17,-6,-9,-15,0
152186109254,-19,-65,6,-18,5,26,-1,-3
152186109254,11,-15,-54,14,92,-29,22,-3
152186123479,-1,13,-30,17,67,7,-4,1
152186123479,-9,-67,-4,-20,24,-7,-18,0
152186130243,-2,-43,6,-33,-128,5,9,0
152186130243,10,0,-27,7,15,-14,22,1
152186154126,4,-101,-3,-38,-95,17,-12,2
152186154126,-14,-34,8,-20,-36,-4,-7,-1
152186155793,-4,-29,18,-37,-12,-7,9,-5
152186155793,9,7,-12,-9,22,4,4,0
152186160267,-3,-43,-11,-27,41,11,-5,-2
152186160267,-2,-49,-1,-46,-35,-10,6,0
152186169293,-13,25,10,34,58,8,-1,-4
152186169293,3,7,-17,4,25,-5,-3,-2
152186183515,5,-39,-7,-18,-12,5,-3,-9
152186183515,-6,-31,3,-21,-88,-7,-1,-6
152186190299,2,-55,1,-37,-59,8,-4,-3
152186190299,-1,0,-14,2,18,4,2,9
152186214167,-30,-13,-3,-28,-66,-8,-1,-79
152186214167,0,-10,-5,-34,-12,-5,4,16
152186215717,10,8,17,-21,-7,14,10,69
152186215717,12,-19,-16,-33,-3,-8,3,-33
152186220302,15,-23,-12,-11,48,7,-9,64
152186220302,-8,16,9,22,31,-1,-14,30
152186229326,-8,-2,-9,26,17,-4,-2,26
152186229326,2,-11,-1,-17,12,-10,6,36
152186243498,9,21,4,38,49,3,1,0
152186243498,-8,25,1,-3,-22,-1,4,-13
152186250342,-1,0,8,-13,-30,-3,-4,-19
152186250342,-5,13,-4,7,23,7,4,-15
152186266649,2,4,-2,28,13,0,-4,-15
152186266649,-2,3,2,33,-17,-1,0,-12
152186268273,-3,0,-1,8,27,-6,-1,-27
152186268273,-6,-12,-7,-7,-43,-1,0,-10
152186280387,0,12,4,4,21,-2,-3,10
152186280387,1,11,3,-13,-13,-8,-5,0
152186289311,-2,0,-2,-15,-34,1,-6,-20
152186289311,3,3,-9,1,19,-1,1,1
152186303568,6,11,-2,39,27,-2,0,8
152186303568,-1,8,2,27,-20,-2,-5,-8
152186310330,-8,2,1,19,23,-3,-1,-20
152186310330,-2,-1,-3,18,-17,-1,7,5
152186326672,-2,-14,-2,20,-34,-2,-1,5
152186326672,-1,5,5,0,0,-2,-4,-8
152186328297,1,6,6,-24,-12,0,-2,-3
152186328297,3,2,1,20,-15,-3,-5,6
152186340323,-1,2,4,-13,-7,4,-2,3
152186340323,-2,-1,-6,-15,6,-4,-1,-1
152186349285,-1,2,-1,-13,21,-2,-1,0
152186349285,-6,1,4,18,-4,-1,-4,-7
152186363498,2,6,0,36,3,-3,-2,-2
152186363498,3,7,3,-18,-3,1,4,0
152186370307,-1,-8,-1,-4,-13,-4,1,-3
152186370307,-2,-3,-5,-35,7,3,-2,-3
152186386636,2,-2,-6,-16,7,-2,1,-1
152186386636,-1,2,1,30,-4,0,2,-3
152186388240,2,-2,1,6,-19,-2,-1,-2
152186388240,-5,0,2,-6,-4,7,-1,0
152186400416,1,7,12,-46,4,6,2,9
152186400416,0,4,11,-50,-7,9,0,1
152186409293,-2,-5,-1,-2,-2,4,0,-4
152186409293,2,4,-4,64,2,-2,3,6
152186423504,-1,-2,-10,79,1,2,-1,8
152186423504,-3,-6,-10,26,-19,-3,-2,1
