timestamp,emg1,emg2,emg3,emg4,emg5,emg6,emg7,emg8
605503217713,21,24,1,0,7,-4,0,13
605503217713,-48,-48,-1,-3,-5,8,-1,-25
605503218482,-2,2,-2,-3,-3,-1,-4,4
605503218482,21,25,-7,-10,4,-7,-3,14
605503219295,-4,-4,-7,-4,1,-3,-1,-5
605503219295,1,-2,-1,3,2,-3,5,0
605503220091,29,33,3,1,8,-7,2,15
605503220091,-7,-6,1,-1,0,-2,-3,2
605503230752,-25,-24,3,3,-7,5,-5,-15
605503230752,10,16,-7,0,2,0,-1,7
605503240151,5,2,-3,-4,-1,-7,-4,-2
605503240151,-33,-31,0,0,-7,4,1,-14
605503245693,7,5,1,7,2,19,6,0
605503245693,18,20,1,-3,-1,-7,-6,11
605503261379,-9,-13,4,-1,1,2,-2,-7
605503261379,-4,-6,-5,-1,-5,-3,-2,-3
605503269408,18,28,0,-2,-5,-9,5,14
605503269408,2,5,3,2,-2,0,1,-1
605503275735,-13,-12,3,2,-1,5,-2,-9
605503275735,8,6,5,4,5,4,4,1
605503290830,-3,-4,-4,-1,6,-2,-2,0
605503290830,-14,-15,4,0,0,4,0,-12
605503299326,-3,-4,-2,-3,-4,-3,-2,-5
605503299326,6,7,2,1,7,-5,-3,0
605503338998,-30,-36,-2,-7,-5,5,-5,-17
605503338998,-3,-8,0,6,-3,1,-3,-1
605503339905,43,40,-4,-7,4,-8,-1,24
605503339905,2,8,1,-2,-2,-5,-9,2
605503340642,-15,-15,2,5,-6,4,-2,-13
605503340642,16,19,2,8,3,-6,2,12
605503343751,-12,-16,0,-3,-3,4,-4,-6
605503343751,-29,-38,-4,2,-7,8,2,-16
605503350555,5,4,-2,-1,1,1,-1,1
605503350555,12,9,-6,-6,0,-3,-6,8
605503358719,-33,-34,0,-3,-2,5,-3,-18
605503358719,2,1,-1,-2,-2,-1,2,-1
605503365549,27,32,-4,-1,4,-6,1,17
605503365549,-8,-4,-3,-9,-1,-4,-1,-7
605503381223,-9,-10,-2,1,-10,-4,1,-9
605503381223,17,19,-2,0,3,0,-1,8
605503388088,5,7,3,5,0,-7,-1,0
605503388088,-20,-23,0,-2,-3,2,0,-12
605503395579,-7,-5,-3,2,-2,4,-1,-4
605503395579,3,1,-9,-6,0,-5,-4,-1
605503410588,-11,-14,-2,-1,-7,0,-3,-6
605503410588,-5,-1,1,-3,0,-3,-5,-7
605503418720,12,14,4,1,0,-7,-2,9
605503418720,-2,0,-2,-5,-1,4,1,-3
605503425522,2,6,1,2,0,-1,-8,0
605503425522,9,15,1,0,-4,-2,2,-1
605503441232,-1,3,1,1,-3,-1,1,-5
605503441232,-6,-2,-1,8,11,-5,1,-2
605503448076,0,-3,1,-5,5,4,0,-3
605503448076,-8,-7,-2,-3,5,0,-4,1
605503455579,-5,-9,1,-3,-1,0,1,-8
605503455579,1,5,3,-1,-6,2,-2,3
605503470539,2,1,-1,-10,-1,-6,5,7
605503470539,-5,-6,-5,-1,-3,1,0,-5
605503478738,3,2,-2,5,2,1,0,6
605503478738,6,6,-2,-4,-9,-2,0,3
605503485561,-4,6,5,1,3,2,2,-5
605503485561,1,7,1,2,-4,0,1,0
605503501293,3,1,0,2,0,-3,-1,-1
605503501293,0,-4,2,-2,-3,-5,0,-4
605503508397,-8,-2,1,2,-4,0,1,-2
605503508397,1,-5,0,-6,-3,0,0,-2
605503515553,-5,-2,-1,-1,-1,-3,-4,-4
605503515553,-3,-4,0,-4,-3,1,-1,-4
605503530526,4,0,-6,0,0,1,-2,4
605503530526,-2,0,-2,-1,8,10,-4,2
605503538794,-1,1,0,-1,-3,-4,-3,-3
605503538794,4,2,2,5,-3,-1,-1,1
605503545522,5,1,1,-2,-5,-6,2,-2
605503545522,-3,-6,-1,2,-2,-3,-1,-2
605503561235,-2,-3,-6,-5,-5,0,-1,1
605503561235,6,4,2,1,-3,-3,0,0
605503568022,-5,-10,-6,1,12,-1,-2,-9
605503568022,-8,-7,-4,-3,-8,0,-2,1
605503575515,0,-1,-3,0,7,0,-2,0
605503575515,-1,-4,-4,-6,3,-4,0,-2
605503590526,-2,-4,-1,0,-5,0,-3,2
605503590526,15,9,4,1,2,-4,0,2
605503598062,10,8,2,-1,5,-3,-2,-2
605503598062,-7,-5,2,10,3,0,0,-6
605503607054,8,13,1,-4,-4,-4,-3,2
605503607054,9,8,-1,-5,-4,-4,-3,-2
605503621268,-19,-17,-3,-3,-6,3,-3,-12
605503621268,-12,-16,-3,1,-5,7,0,-4
605503628072,8,4,-4,-1,2,-4,-2,2
605503628072,-9,-6,1,-3,6,2,-1,-7
605503635529,-9,-13,1,-5,6,4,3,-6
605503635529,20,20,5,-14,-1,-8,-4,8
605503650548,17,26,2,-10,4,-6,-1,4
605503650548,-17,-18,-2,0,-4,4,3,-5
605503658053,7,4,2,-7,-3,-7,-2,3
605503658053,2,12,-4,-8,4,-10,-10,2
605503666993,-16,-17,0,8,-5,5,0,-5
605503666993,-17,-25,0,-9,-8,-1,0,-6
605503681220,16,17,4,-2,-6,-4,-4,9
605503681220,-5,-4,-1,6,-1,2,2,-7
605503688073,-10,-20,-5,-12,-6,6,-2,-8
605503688073,17,16,0,5,2,-5,-3,5
605503703793,7,19,4,-7,2,-2,-2,5
605503703793,-12,-15,-3,0,-13,1,-1,-5
605503710549,7,11,4,-7,-6,-3,2,9
605503710549,5,15,-1,10,5,-4,-3,6
605503718046,-14,-17,-3,2,-7,4,-3,-8
605503718046,-5,-8,5,8,4,14,-2,-3
605503727049,7,1,-3,3,-1,0,-9,5
605503727049,-13,-7,2,15,-3,3,5,-4
605503741257,-6,-9,-10,14,-2,-1,-1,-6
605503741257,7,0,-3,-6,-3,-13,-1,5
605503748050,-4,-2,-6,4,5,-9,-1,-6
605503748050,-2,-8,-1,-8,-4,0,-5,-3
605503763791,8,11,-3,11,2,0,-6,7
605503763791,-1,2,-4,-4,3,-7,0,-2
605503770537,-10,-11,7,6,0,-1,0,-3
605503770537,-1,-2,8,-5,-4,-2,2,0
605503778079,3,3,-1,-10,-1,-5,0,0
605503778079,-8,-15,-5,-9,0,-3,-5,-4
605503787050,-7,-11,2,51,-2,2,1,-3
605503787050,2,8,-4,-31,0,-14,1,4
605503801249,-5,-8,-3,-24,1,0,-2,1
605503801249,-4,4,11,-18,-5,2,5,-6
605503808081,3,2,-1,-10,0,-7,3,2
605503808081,1,2,-4,1,0,-4,-6,2
605503823734,-7,-6,-6,19,-2,3,2,-6
605503823734,0,7,-1,2,-2,0,2,2
605503830588,0,0,1,-33,-18,-8,4,-1
605503830588,-6,1,-1,-2,-5,0,1,-4
605503838051,-5,-7,-6,-14,-4,3,1,-1
605503838051,5,4,-1,-1,6,3,1,4
605503847078,-2,-3,-8,10,-1,0,-4,-4
605503847078,0,-5,-1,4,2,2,-2,-2
605503861267,9,3,-1,1,7,8,10,2
605503861267,3,3,-10,-4,4,-10,-19,-3
605503868062,-6,-10,-2,35,8,5,-16,0
605503868062,7,9,6,24,-8,-2,8,5
605503883753,-4,2,3,21,2,3,11,-2
605503883753,-7,-9,4,7,5,7,7,0
605503890538,-2,-13,-9,-7,3,3,4,3
605503890538,0,3,-1,-60,10,10,-34,2
605503898053,-10,-11,3,-23,-5,-9,-4,-2
605503898053,-1,-4,1,0,-3,-29,-24,0
605503907109,8,10,12,3,-14,-15,-4,0
605503907109,-1,0,-1,11,2,-4,4,3
605503921264,-3,2,-17,22,-16,-5,1,-8
605503921264,8,21,8,-2,-1,-17,-7,1
605503928059,-7,1,-18,42,11,25,5,-2
605503928059,-6,-10,-30,2,29,-41,-7,-8
605503943733,5,-5,-9,-71,-17,10,-11,6
605503943733,1,-4,-11,18,1,-5,-22,4
605503950573,-11,-20,14,-36,-11,19,4,-8
605503950573,-4,-51,3,-4,-39,18,1,-3
605503958040,5,15,15,12,30,34,37,5
605503958040,-8,-1,-11,-73,-9,17,9,-4
605503967035,1,16,45,-15,-2,2,13,0
605503967035,13,11,-3,14,-3,-13,-16,0
605503981234,-1,4,-7,34,-34,-3,-12,4
605503981234,-3,-9,6,-11,-25,26,38,1
605503988015,2,-4,-14,-36,2,-12,-3,4
605503988015,-1,11,-1,-2,-2,-12,11,-4
605504003722,-8,-10,-1,-62,-5,-19,-8,-2
605504003722,-8,-8,5,84,34,8,24,-6
605504010607,3,1,-19,6,-17,0,-13,-3
605504010607,1,-6,15,16,0,-5,5,-3
605504018072,-7,-11,11,86,19,9,-6,-5
605504018072,-1,-11,-16,15,6,0,1,0
605504033039,0,11,1,12,-7,-35,-11,3
605504033039,-7,1,6,40,46,59,17,-4
605504041280,4,-6,-16,-18,-35,20,-13,-5
605504041280,1,-3,-6,-40,23,-18,-23,0
605504048069,-10,-6,-23,-33,3,-54,-20,-10
605504048069,-1,5,24,67,-16,-47,-6,-3
605504063738,0,1,4,53,-10,34,12,1
605504063738,0,-2,-10,-24,50,45,13,2
605504070522,2,-17,-9,-21,12,12,7,2
605504070522,4,14,3,-73,12,61,-16,-5
605504078016,-2,17,-43,-21,-21,-29,6,-1
605504078016,-4,1,37,29,-31,-37,-27,1
605504093058,3,-5,-12,-35,19,34,-2,0
605504093058,-6,-8,-4,-6,-20,3,4,0
605504101256,2,-12,-9,-71,-37,-25,18,1
605504101256,2,7,31,-50,-42,24,37,-4
605504108046,3,5,-27,15,0,-82,-68,-1
605504108046,-4,-7,-18,-66,-8,-39,-2,0
605504123748,0,-20,-10,-37,40,3,-30,-2
605504123748,1,2,-4,-74,-21,-15,-9,1
605504130542,-5,23,42,13,-9,31,-12,-5
605504130542,-9,-1,16,46,15,43,18,6
605504138029,3,6,-5,98,57,-72,24,0
605504138029,3,-7,37,93,33,36,-35,-9
605504153059,-7,-33,-79,30,40,-1,71,-2
605504153059,1,31,-30,-43,-38,38,-74,-2
605504161217,-8,25,48,-128,-50,-20,70,-6
605504161217,-6,-4,-39,4,-92,-84,-32,8
605504168090,5,24,-20,-41,-3,-72,0,1
605504168090,7,-54,13,35,-11,-15,1,0
605504183778,-7,-29,-68,74,11,14,-47,-6
605504183778,3,35,49,-27,-41,56,40,-3
605504190570,14,30,1,-45,-22,50,22,5
605504190570,-2,17,14,11,9,13,2,-2
605504198074,-3,1,45,3,6,24,-10,-5
605504198074,6,12,-5,19,16,2,18,-7
605504213099,-2,-12,58,19,8,-49,5,-2
605504213099,-13,-31,11,-39,-12,-2,85,-13
605504221232,6,-9,53,80,23,75,-61,1
605504221232,-3,-7,-22,63,-4,-8,99,6
605504228057,-4,-28,-26,57,30,56,-19,1
605504228057,4,13,-26,5,51,-5,-22,9
605504243701,4,8,-49,-11,3,-12,-25,11
605504243701,-5,-12,-63,-27,4,39,-31,6
605504250632,-4,-22,50,3,-7,52,19,1
605504250632,5,8,-63,-51,-32,-36,1,6
605504258059,0,-9,-13,-49,-4,77,29,-4
605504258059,-6,4,31,-39,5,4,-31,-6
605504273099,-5,6,44,31,2,83,49,-3
605504273099,5,23,51,29,-2,-113,-100,-7
605504281299,-5,-16,6,-22,-42,-87,-10,-6
605504281299,-3,-8,-10,26,31,35,55,-4
605504288109,5,8,-59,-50,-3,-36,-66,-2
605504288109,-1,10,31,26,3,-84,-7,4
605504303725,-5,14,12,35,-18,-32,1,-1
605504303725,7,-4,-39,-36,14,-126,-38,8
605504310541,-3,-6,27,22,14,-51,60,5
605504310541,-2,-24,-38,26,13,113,6,2
605504327078,0,-10,-1,4,-3,-94,-5,-2
605504327078,-3,-9,7,-15,-9,33,10,1
605504333095,-1,-9,-7,33,-33,-79,2,6
605504333095,4,30,13,-28,-8,74,30,5
605504348689,1,19,-3,-36,8,-14,7,3
605504348689,-7,-20,-28,-4,3,-39,-18,-5
605504349495,2,-24,23,1,-11,44,-38,-4
605504349495,2,6,-20,35,-2,52,-3,-7
605504364531,0,1,22,22,13,-11,-18,-3
605504364531,2,5,50,9,25,12,-8,-1
605504370579,2,15,7,-39,19,83,11,-8
605504370579,2,4,-45,-26,-1,-57,36,3
605504387033,-4,-20,-28,31,9,127,55,2
605504387033,0,8,36,4,-15,-87,-49,-6
605504393089,-11,26,1,-2,15,36,-22,0
605504393089,4,7,-17,-81,-55,41,-18,7
605504408711,-1,-5,-7,-76,0,-20,-7,1
605504408711,-4,-32,76,62,45,118,-2,1
605504409525,3,-8,3,49,11,1,-8,-1
605504409525,-18,-16,19,47,55,-45,1,-9
605504424534,1,33,27,8,3,-50,-14,3
605504424534,-7,-1,-36,-16,-25,-28,6,-2
605504430563,3,-3,-32,-11,-17,31,-9,-2
605504430563,-9,-36,-7,18,44,-85,6,-1
605504447078,2,-16,22,4,10,42,-7,0
605504447078,-8,-30,-45,-9,12,11,-1,11
605504453076,-3,22,2,29,9,-11,-6,-12
605504453076,6,-4,-22,38,21,-54,-20,-3
605504468759,-3,85,14,73,-26,-47,-66,3
605504468759,-3,42,-9,-21,-38,-56,49,9
605504469567,-2,-5,-9,16,8,-94,-29,5
605504469567,-2,-4,39,-74,-21,91,-7,-4
605504491257,3,-41,-23,-26,-44,-18,27,8
605504491257,5,16,-14,-54,47,-37,-8,-2
605504492008,-14,31,-19,72,67,-33,-10,-5
605504492008,3,31,-27,1,56,-49,21,-5
605504507080,1,-54,-20,-7,44,-24,5,1
605504507080,6,4,-32,-79,0,44,-3,-5
605504513055,7,-15,-17,-42,-40,54,16,1
605504513055,-1,-27,-12,-33,-21,-26,-17,-5
605504528719,-3,17,-54,-15,33,69,12,-4
605504528719,-6,-10,32,95,-30,-48,-29,-9
605504529502,1,-51,-12,-100,45,-28,2,2
605504529502,-4,-2,12,90,-36,64,13,7
605504545211,-9,-15,-31,-16,-40,91,-5,-10
605504545211,-2,-12,-84,12,19,5,-4,-2
605504550596,-3,36,-2,-5,-39,50,8,0
605504550596,2,22,34,-4,40,-79,13,-2
605504567100,-3,-18,-4,18,58,54,14,2
605504567100,-8,38,13,52,19,83,-6,-2
605504573093,-1,-25,-5,-30,-45,49,26,1
605504573093,1,-9,-44,26,43,19,-8,-2
605504604435,4,29,25,-29,-37,-3,-11,-2
605504604435,2,-7,-21,67,60,1,-5,-8
605504606028,-10,-26,-13,-69,8,-52,-16,0
605504606028,2,-24,26,-29,26,33,29,6
605504625592,-15,-22,-57,-8,42,-26,-2,-10
605504625592,4,22,1,-9,-48,-31,-9,4
605504634611,4,109,-17,13,83,-27,12,-2
605504634611,5,0,23,48,-2,-45,20,1
605504641937,-3,45,72,49,44,27,-1,0
605504641937,-9,-31,-65,25,-61,-24,-11,0
605504642678,-9,-34,58,69,89,38,25,2
605504642678,-10,17,-6,-55,-53,-27,0,-4
605504648739,24,-44,39,27,-28,-32,0,-1
605504648739,-4,-25,25,-18,-23,97,23,-7
605504649525,15,7,50,-29,-97,-74,-14,2
605504649525,4,-11,-12,7,-17,19,-15,0
605504664598,1,2,-18,-59,-42,-10,0,-6
605504664598,7,-13,20,-57,-9,-35,-19,-3
605504670554,0,-10,-37,12,-40,0,-5,-1
605504670554,-2,-9,-52,18,22,13,1,-4
605504700555,-3,30,37,-5,-23,-22,-5,7
605504700555,0,1,-13,4,-46,-39,7,-2
605504709575,5,6,-7,-47,-36,-34,-2,-4
605504709575,0,-16,-28,-23,-51,4,3,-3
605504731925,-2,-4,-12,-59,-12,7,0,1
605504731925,2,-2,-1,-4,22,-10,-3,3
605504733529,5,-1,-8,-63,10,-50,-5,-3
605504733529,2,10,13,39,-20,62,-9,-3
605504761245,3,10,-13,78,17,77,5,0
605504761245,11,-2,-6,-13,-17,52,6,-4
605504769567,-7,-17,-3,49,27,59,-8,0
605504769567,-2,18,24,-33,-12,29,-11,-4
605504784441,-3,9,-28,7,-8,-60,-3,1
605504784441,-1,13,2,20,-16,-1,2,-2
605504786015,-4,-6,7,26,19,9,-3,2
605504786015,-4,-15,-42,-10,-28,-21,-32,-3
605504800222,-7,-7,13,-71,-1,-27,0,1
605504800222,-6,-74,43,40,46,-54,-5,3
605504805701,-1,-84,-13,20,-88,-62,10,1
605504805701,1,-39,-6,-24,21,39,6,-1
605504838408,6,13,1,-5,2,-66,-4,-5
605504838408,3,27,-8,-41,-13,55,1,1
605504840040,-2,60,4,5,-49,-20,-14,-2
605504840040,-13,44,-1,18,28,1,-1,-4
605504867008,3,10,-4,-35,24,-13,0,0
605504867008,12,-1,3,-12,-36,-34,-2,-4
605504876204,15,-27,0,-6,-37,19,-8,-8
605504876204,3,19,17,-31,-51,-12,-1,0
605504905242,6,-17,-3,24,-30,7,4,-2
605504905242,-3,4,-47,2,34,-38,-12,-6
605504912230,-12,1,10,36,13,17,-3,-1
605504912230,5,-13,32,19,-4,-7,3,1
605504934452,-1,-8,-10,25,10,-26,-2,0
605504934452,-12,4,5,-25,12,13,5,2
605504936039,1,2,-25,-28,18,-19,-1,-4
605504936039,-3,-3,17,-10,4,-12,8,-2
605504956296,-3,-26,-15,1,-20,-8,4,-5
605504956296,-1,-5,-3,13,31,17,8,-3
605504964605,-2,2,-53,16,3,11,3,-5
605504964605,2,-8,4,36,-25,24,-1,0
605504986935,-8,-2,4,11,7,43,0,0
605504986935,0,-1,-13,3,7,11,-7,-1
605504988497,6,4,35,-12,-15,1,0,-3
605504988497,3,4,-9,-5,-10,14,3,2
605505008786,1,-11,-5,4,-3,-21,-3,1
605505008786,3,3,-5,-25,-2,-4,-2,-3
605505015581,-1,0,-8,3,2,7,-5,2
605505015581,0,0,0,-9,-4,-13,-3,-3
605505039462,2,-8,-1,-3,5,-8,-1,0
605505039462,-1,0,-1,-17,-2,-5,-2,5
605505041014,1,7,4,-4,-6,13,-2,-2
605505041014,-3,-9,-6,7,12,-8,5,1
605505046929,-1,-2,-4,-5,-5,-19,2,-1
605505046929,-6,-2,-8,2,3,10,-3,-7
605505048535,0,-3,-5,-2,13,-5,-2,4
605505048535,-3,10,5,-12,-8,-11,-5,0
605505053726,-4,-9,-6,6,-4,9,-2,-2
605505053726,2,5,1,-5,7,3,2,-2
605505054492,-1,-1,2,4,9,11,3,0
605505054492,-5,6,-6,-2,-4,1,-2,-1
605505061943,2,-2,17,1,-2,7,-5,-6
605505061943,-12,-2,3,4,-9,-4,-1,0
605505062736,-1,-4,-16,-3,4,5,-2,0
605505062736,-2,7,66,-1,-1,-1,-2,-3
605505068723,-1,5,13,-5,-5,-7,-2,-3
605505068723,2,2,8,-4,-2,-10,-4,1
605505069500,-5,-1,2,8,2,1,0,-4
605505069500,-6,1,-22,0,-4,-1,-4,-3
605505076222,-3,4,-7,1,5,-2,-1,-2
605505076222,0,-6,10,8,6,1,-4,-1
605505076998,0,-1,1,0,6,9,-4,1
605505076998,0,-4,-14,2,0,-13,-1,-3
605505084435,-4,-6,-7,-2,-3,-5,-4,-4
605505084435,-4,-4,-11,-1,-4,0,-7,0
605505086025,-3,0,-1,1,5,3,-5,-4
605505086025,0,-4,-10,-3,-2,-2,-2,1
605505091230,-5,-2,-7,4,4,0,-3,0
605505091230,7,-2,-4,1,2,-2,-7,-4
605505091998,2,-1,2,-7,-4,9,3,5
605505091998,-2,-1,0,1,-1,4,2,-3
605505099431,-4,0,2,3,1,0,1,4
605505099431,3,3,1,3,1,5,4,5
605505100210,1,-1,7,-3,-7,-3,4,-1
605505100210,-4,-5,-10,0,4,0,5,0
605505105572,-2,0,-3,5,3,8,5,5
605505105572,3,3,-1,3,2,-2,-2,-3
605505113076,-1,6,-2,1,-1,-1,-4,-2
605505113076,4,1,-1,-1,-6,-2,1,2
605505128095,3,-1,2,-2,1,-3,0,-1
605505128095,-1,1,0,0,-1,-1,-2,-3
605505135594,0,7,2,1,0,-3,0,1
605505135594,2,8,2,-3,-6,-6,2,-1
605505151286,1,-2,0,0,-3,-1,-4,-5
605505151286,-3,3,0,-3,-4,-6,0,-6
605505152036,-1,-3,-4,-1,0,-7,-2,-4
605505152036,0,-3,-5,-1,3,2,-2,2
605505175261,-1,3,-11,-6,-1,1,-3,-3
605505175261,1,-5,0,-2,-4,1,-2,3
605505176029,-3,-2,-4,0,4,-3,-3,-4
605505176029,5,-4,-5,-2,-4,4,-2,-3
605505188080,4,0,-1,1,1,-1,-2,-2
605505188080,-2,-3,-4,-2,2,-1,-4,-1
605505195575,-4,-1,1,-3,-2,5,-3,4
605505195575,-4,0,-1,-9,2,0,-3,-1
605505211257,1,-5,-2,2,-1,4,-4,0
605505211257,-3,-2,-3,-3,-5,0,0,0
605505212066,-4,-4,0,0,0,0,1,-5
605505212066,2,-2,-4,3,1,-2,-7,-6
605505225609,-4,-3,-4,1,7,-5,-3,0
605505225609,-3,-8,-8,2,6,-1,-4,-1
605505233103,-1,-4,-4,-5,0,-2,1,-3
605505233103,-2,-8,-7,-2,2,-2,3,-1
605505248054,-1,4,-5,-3,-3,4,1,-4
605505248054,-2,2,3,3,1,-4,1,0
605505255637,3,-1,-1,-1,-2,-5,-7,1
605505255637,2,5,-1,-5,-5,-3,-3,-3
605505271208,-6,-1,0,-1,-4,1,-3,-1
605505271208,1,3,1,0,-1,6,-2,-2
605505272002,-3,-7,-1,-2,-1,-2,-2,-2
605505272002,-5,1,-2,5,1,-1,1,-1
605505287076,0,5,0,0,0,-4,2,0
605505287076,-1,-3,0,0,-3,2,3,1
605505293065,-1,1,4,-4,2,-3,-3,-2
605505293065,-1,1,1,6,-1,1,0,-4
605505308073,-1,-2,-4,-1,1,11,1,-2
605505308073,-4,4,-3,2,4,-2,-2,-7
605505315604,-3,0,-2,-4,-4,-4,-3,-4
605505315604,0,-5,2,-1,0,-2,-4,-4
605505331263,-2,-3,2,-4,1,-8,-1,-2
605505331263,0,8,1,1,-3,3,-5,1
605505332046,2,0,-3,3,3,5,-2,-2
605505332046,0,1,-6,1,-3,2,0,0
605505347120,2,0,-1,-5,-3,-9,1,-1
605505347120,-7,-3,0,-6,3,2,5,-4
605505353084,2,3,1,0,1,0,-1,1
605505353084,-5,1,1,2,1,5,-1,1
605505376231,-1,4,-3,5,-4,1,0,0
605505376231,1,0,0,2,3,-5,-2,-2
605505376994,3,4,-2,2,-2,2,3,-1
605505376994,-2,3,2,-2,0,-4,0,1
605505391230,-2,-3,-4,-3,-1,-26,-1,1
605505391230,0,-1,-17,-7,3,1,-1,-3
605505392034,-5,-4,11,-3,-4,0,0,-1
605505392034,-2,-1,4,5,-1,7,1,0
605505407049,0,-8,-4,2,4,-6,1,-3
605505407049,-2,8,3,-2,-6,-1,-2,-2
605505413044,2,6,-12,1,-1,-3,-2,1
605505413044,0,7,0,-4,0,-7,1,0
605505428069,-1,-5,1,-7,-3,0,-4,-1
605505428069,-7,-11,6,-3,2,9,6,-1
605505435689,1,-9,3,0,1,9,3,0
605505435689,0,-7,0,-5,-1,3,2,1
605505451342,3,7,1,-1,-4,4,3,-2
605505451342,6,7,9,-18,-74,-14,-1,1
605505452078,1,-8,5,-1,37,1,2,-1
605505452078,-22,2,2,2,13,4,-2,-1
605505467200,0,9,0,5,3,-1,0,2
605505467200,1,1,11,5,14,-6,-3,0
605505473156,-2,-2,0,0,-20,-4,-4,2
605505473156,-2,2,-8,-7,-6,-20,-4,-2
605505489642,0,-18,-7,-24,1,-10,-4,-1
605505489642,2,10,-9,11,1,6,-1,1
605505495658,-3,7,-4,10,3,-7,-4,-4
605505495658,5,-14,-9,-12,-6,-8,-2,0
605505511293,-2,-1,-19,-1,-8,18,3,-2
605505511293,-6,-11,-24,8,11,43,-25,2
605505512087,1,5,-6,5,-3,97,11,-1
605505512087,2,1,-2,3,-9,69,6,0
605505525691,-1,3,7,1,-3,51,15,0
605505525691,3,-9,11,-7,5,13,10,2
605505533102,2,-4,0,-1,6,-31,-4,1
605505533102,5,-7,2,-2,1,-18,-5,-2
605505548232,-1,4,7,-2,-14,-9,-9,1
605505548232,-3,0,0,-5,8,-35,0,3
605505555685,-1,7,4,-11,-17,-26,-2,-2
605505555685,3,8,8,1,-2,-15,6,-3
605505571323,-5,0,5,7,3,-22,-5,0
605505571323,-2,-18,-10,-7,-10,-11,4,0
605505572139,-7,-1,-6,5,6,-18,-2,-1
605505572139,-5,-5,-19,-12,-23,-40,-9,1
605505585620,-1,-2,9,7,16,22,-4,-4
605505585620,-5,-9,-4,4,-2,-9,16,-1
605505593171,-7,-2,-4,10,-2,16,11,1
605505593171,-2,-3,7,13,7,-16,7,-1
605505608084,-3,-8,-8,0,-5,-15,13,1
605505608084,5,12,-3,17,7,-4,-5,-2
605505615595,-9,-6,0,-18,1,-4,-2,2
605505615595,-2,12,-1,8,7,49,9,1
605505631312,-5,6,3,-5,-3,-30,-10,-3
605505631312,-4,-5,5,8,6,-1,-1,1
605505632092,2,-21,-16,-3,-4,-16,-5,-3
605505632092,3,-5,3,-10,3,17,-10,-6
605505647170,0,4,15,-1,-3,10,-1,-1
605505647170,11,-7,4,-8,5,-3,-4,1
605505653078,-4,3,2,8,-11,-8,0,0
605505653078,0,1,3,-9,-3,-13,-6,-3
605505669700,1,-3,-12,-2,-8,-12,-7,-3
605505669700,2,5,2,1,4,-15,2,-7
605505675755,1,3,5,-9,0,-2,-10,0
605505675755,-9,-4,-9,5,-2,-7,0,-2
605505691351,-1,-6,-8,-18,-4,3,-4,4
605505691351,2,-12,-11,-18,1,39,-4,-1
605505692022,1,5,-23,4,0,-23,-2,-3
605505692022,6,-4,3,5,6,-27,0,2
605505707137,-4,-8,-2,6,3,-2,-1,-1
605505707137,0,3,7,-1,3,-7,3,0
605505713060,-1,-2,21,-2,-9,-15,-2,-2
605505713060,5,0,4,-2,3,-12,4,2
605505728127,-1,2,13,4,-6,-11,-2,1
605505728127,-6,5,-2,2,1,-7,-1,1
605505735663,0,-1,-5,2,1,9,0,-1
605505735663,-1,1,1,0,-9,5,-4,-6
605505751303,1,-2,3,-6,3,3,-4,-4
605505751303,3,0,-1,-2,-3,5,1,-2
605505752110,1,-3,-5,-2,7,-1,0,-6
605505752110,1,-3,-9,-5,2,3,-1,7
605505767116,3,1,-15,-3,-8,6,8,2
605505767116,1,1,-8,0,9,-3,5,-1
605505781312,-3,6,-2,-8,-5,-4,0,-1
605505781312,-1,-2,-3,-6,-10,4,-3,-1
605505788132,2,3,-1,0,1,-6,-1,-1
605505788132,0,-1,4,-1,-6,-4,0,0
605505795697,-4,-4,0,-10,2,2,-1,3
605505795697,-3,-5,-4,-5,-2,0,-3,0
605505811337,3,-6,-3,-13,-2,0,-3,3
605505811337,-1,1,5,-11,-7,-5,0,-5
605505812042,-4,5,-1,3,-5,-5,0,-1
605505812042,0,-7,0,3,7,7,-2,0
605505827106,-2,4,0,2,-7,5,-4,-3
605505827106,-2,5,-5,1,3,7,-4,-1
605505833172,8,3,12,-4,-1,25,2,-1
605505833172,-3,0,-9,-9,-7,-10,-1,-1
605505848144,-4,0,-10,-1,-1,17,-3,-6
605505848144,-2,18,0,-13,-4,-29,-6,-2
605505855766,7,2,-12,-43,-8,3,-3,-6
605505855766,-13,-82,-67,-35,6,-3,-14,-2
605505871355,4,-1,24,57,17,-29,-12,0
605505871355,-6,2,6,16,6,3,-6,2
605505872101,-12,52,-12,-8,-4,21,6,3
605505872101,-7,3,-15,-2,21,-48,12,5
605505887170,-4,-19,-8,19,-2,-87,7,5
605505887170,17,-45,-49,-26,16,-8,8,1
605505893078,4,-27,-14,35,-19,-103,-7,1
605505893078,23,-26,68,83,-44,-53,3,0
605505908190,49,45,-22,-101,-37,-85,6,2
605505908190,-13,22,53,87,-40,-24,40,0
605505915747,11,-13,-6,63,103,-11,-19,1
605505915747,21,8,32,-78,-81,-4,-23,-1
605505930668,-73,16,-11,4,83,85,0,-9
605505930668,-8,34,-9,48,-66,-16,-16,-16
605505938857,-30,55,27,-115,-89,-73,-18,-16
605505938857,-2,-19,-72,-54,-80,56,-20,1
605505953863,11,-82,-28,-70,71,61,-6,-14
605505953863,5,-36,-31,0,89,-68,25,1
605505954572,-11,-53,5,12,81,-29,7,7
605505954572,1,31,-21,-45,12,39,17,17
605505968206,-15,62,-36,-29,85,56,20,-11
605505968206,4,35,-23,-71,49,8,0,5
605505975671,-18,13,18,-79,-91,23,54,6
605505975671,-37,-32,-6,-69,-19,81,71,9
605505990704,41,84,90,-85,-128,-17,-44,-16
605505990704,8,-55,5,-78,-3,91,2,-6
605505998166,34,-60,-57,33,87,-10,-65,48
605505998166,36,-92,4,127,-56,-7,5,20
605506013831,17,-32,28,127,-116,-5,58,65
605506013831,-21,20,38,33,-19,-18,-15,-16
605506014527,25,-28,12,81,-3,21,8,14
605506014527,0,32,0,126,127,-111,-46,-2
605506028185,-6,-24,22,108,81,-74,-45,-1
605506028185,-5,19,47,10,66,-13,-54,4
605506035629,-21,10,-7,33,31,69,28,-8
605506035629,-34,54,46,-53,23,15,7,-27
605506050687,-15,13,-20,-57,-28,30,8,-19
605506050687,0,-2,-29,-85,-36,18,9,4
605506058207,-10,3,4,-77,-11,10,-1,-12
605506058207,-3,18,11,-75,32,4,-2,-6
605506073818,0,-15,-5,-46,37,-27,2,3
605506073818,5,-8,-11,-9,13,16,7,7
605506074569,2,1,22,-1,-8,-15,-10,-4
605506074569,5,9,2,-15,35,-30,-10,-7
605506088244,-5,-27,-8,14,15,-6,-5,4
605506088244,5,0,18,8,-37,-20,-1,10
605506095705,4,31,4,23,-55,-10,5,-11
605506095705,0,24,-21,11,-50,-18,0,-2
605506110669,3,-6,-57,20,-46,-3,11,-3
605506110669,1,7,35,17,-59,-15,2,5
605506118176,5,1,6,22,-14,-17,-1,-2
605506118176,10,16,-2,43,-8,-7,1,2
605506133742,0,-8,1,22,-24,-13,-3,2
605506133742,4,6,-16,20,12,-14,-4,-1
605506134530,-1,-17,-12,17,12,-1,-2,-2
605506134530,-2,9,-26,9,12,-8,1,-2
605506148181,-1,-6,12,-3,22,11,3,-1
605506148181,2,-2,-2,0,26,0,-7,2
605506155644,1,-1,10,-12,5,10,5,-3
605506155644,-5,11,11,-4,8,6,-4,1
605506170691,-4,28,3,-17,10,13,0,-5
605506170691,-1,-4,-22,22,67,1,2,2
605506178089,-5,-2,-10,-35,-41,17,-2,-2
605506178089,-1,2,9,-14,-30,-9,-3,-5
605506193830,3,-18,-2,-20,-13,16,-6,3
605506193830,-3,-2,13,-5,9,0,-9,0
605506194642,1,-5,-8,10,31,-10,-4,-2
605506194642,3,-2,6,15,25,-2,3,2
605506208165,0,-2,13,11,12,-9,-3,-1
605506208165,2,-3,-4,5,-18,-8,-2,-5
605506215654,2,-7,5,10,0,-7,-8,-10
605506215654,-5,7,1,-2,-7,-4,-6,1
605506230732,-1,-8,2,8,-10,-10,3,0
605506230732,-6,-2,-5,-11,-28,1,-1,-1
605506238898,-3,5,-5,1,-7,2,2,1
605506238898,-7,-5,-2,-3,5,1,1,6
605506253850,-1,-2,-5,0,-2,3,-1,-1
605506253850,-3,1,-3,38,-15,-3,1,2
605506254606,5,4,2,-29,2,1,1,10
605506254606,7,2,6,31,10,-2,-6,-4
605506268124,-1,-8,0,-20,5,2,-2,-3
605506268124,-2,-6,-5,-31,-26,8,1,3
605506275621,-9,-1,-4,12,-26,-3,2,-4
605506275621,-3,0,4,-4,7,-2,-4,-12
605506290762,0,-3,-6,24,-13,-3,2,-5
605506290762,3,5,-2,-13,-2,-9,-1,1
605506298221,-3,4,4,-7,13,-2,-2,-8
605506298221,-3,7,2,-29,-19,3,-5,3
605506313857,3,-5,-3,12,-2,-5,-23,4
605506313857,-2,-6,-6,-3,4,2,9,-4
605506314555,-3,-6,3,12,7,0,1,-2
605506314555,-2,-5,0,5,2,2,1,-1
605506328184,-2,4,-15,-11,8,-4,1,0
605506328184,-6,-8,-8,5,8,-1,-4,-4
605506335716,3,4,-3,-5,-5,-3,-2,-1
605506335716,7,2,-8,-3,9,1,1,-1
605506350660,-2,-1,0,-8,-11,0,4,-2
605506350660,3,-4,1,-8,-20,9,1,2
605506358831,5,9,-4,-7,-1,-4,2,0
605506358831,3,1,-1,-1,1,-7,0,-5
605506373793,-5,-7,8,-4,2,-5,-2,-2
605506373793,1,-3,-1,-3,-7,-4,-5,-1
605506374613,-2,0,-1,12,2,-1,-2,-8
605506374613,-11,1,0,-4,0,3,-1,-3
605506388178,0,-2,-3,2,0,-1,5,-5
605506388178,3,5,-1,1,7,0,1,-6
605506395605,-13,-7,-7,-2,4,1,-2,-8
605506395605,-9,-6,4,0,4,2,1,-8
605506410700,3,9,-5,0,1,3,3,19
605506410700,14,10,-1,2,-8,2,12,17
605506418890,18,-11,-5,-11,16,50,16,28
605506418890,14,1,-4,15,16,27,12,23
605506433843,-8,-13,4,34,20,-22,-2,1
605506433843,-14,-13,3,30,25,-44,-9,-12
605506434644,-3,9,3,17,11,-39,-22,-13
605506434644,5,11,-2,15,-13,-27,-13,-6
605506448145,2,7,-2,-20,-26,0,-10,-9
605506448145,-3,11,5,-39,-49,-6,-7,-4
605506455721,-3,20,2,-36,-56,-14,0,-4
605506455721,-13,7,7,-33,-22,-7,-5,-2
605506470645,-15,-6,-4,-10,-17,-3,7,-7
605506470645,-10,-10,-5,9,-6,5,-4,-10
605506478090,-8,-8,-10,1,0,17,-2,-12
605506478090,-15,-15,0,-2,26,16,-3,-2
605506493813,-9,-12,-9,-17,47,14,4,-2
605506493813,-9,-3,-2,6,36,8,4,0
605506494583,-8,-24,-6,17,23,-10,11,6
605506494583,4,-40,-5,21,-4,0,4,0
605506508212,21,11,10,15,5,-14,-4,2
605506508212,21,7,5,14,6,2,-3,1
605506515626,19,10,3,45,0,-27,-12,2
605506515626,13,27,-12,45,16,-11,-8,-5
605506530711,0,5,5,21,-15,20,3,-3
605506530711,-10,-30,-13,-2,55,4,2,1
605506538155,5,-7,-9,-30,7,-3,-3,-3
605506538155,13,5,-13,-31,-4,-16,-7,0
605506553801,-17,-36,14,44,7,-73,-11,0
605506553801,-32,-19,3,98,26,-38,-8,-2
605506554687,-49,24,-11,102,58,4,-5,2
605506554687,-14,-14,-8,50,10,43,6,1
605506568196,37,55,10,-66,-48,35,-17,6
605506568196,21,36,-15,-66,-31,67,31,1
605506575663,10,43,13,-36,-26,-74,-4,0
605506575663,-7,5,1,-38,-58,-47,3,6
605506590668,-8,-22,25,-2,-37,23,20,-4
605506590668,3,-12,-45,-6,-47,-40,15,-2
605506598163,-5,-13,42,-18,21,-42,-8,-5
605506598163,0,8,-55,-46,18,40,-34,5
605506613906,-4,31,-20,50,2,-56,0,-1
605506613906,0,8,-55,-66,-32,-50,59,8
605506614616,3,-37,0,-19,-37,31,35,9
605506614616,-3,12,-17,51,14,-47,15,1
605506628149,-3,-53,-77,-91,19,-36,-42,13
605506628149,-21,23,94,-8,-28,127,33,3
605506635633,4,-80,-15,-49,-53,-54,20,14
605506635633,-3,-86,87,-72,-16,1,2,-1
605506650619,-8,-20,44,16,-60,-48,-4,-6
605506650619,-3,-99,5,57,26,-97,-45,12
605506658127,-5,-45,31,127,-27,76,-48,-4
605506658127,8,84,-83,-14,-21,60,-21,-15
605506673782,0,24,-35,-58,70,2,12,5
605506673782,4,60,57,38,8,23,-68,-12
605506674577,5,-13,-58,-38,63,11,31,-3
605506674577,4,-11,-1,118,-4,79,17,19
605506688152,-10,-9,45,22,-51,127,29,-5
605506688152,7,40,-56,10,35,14,-10,-19
605506695606,-4,5,45,21,22,-77,-23,-3
605506695606,-8,-18,-11,-76,-3,8,12,-6
605506719468,1,-23,-40,15,40,-63,-29,-4
605506719468,0,35,31,23,34,127,10,-2
605506720221,3,-34,40,5,-38,-39,15,-2
605506720221,7,-17,-71,80,18,48,-7,-10
605506733887,-8,30,-15,20,-28,127,10,-12
605506733887,-3,-15,-4,-71,77,-37,-7,-2
605506734618,-10,15,-63,-31,52,33,-12,-4
605506734618,-2,16,46,36,-21,-128,-2,-9
605506748195,-2,18,3,41,10,-74,17,2
605506748195,0,7,27,91,-14,-109,-6,11
605506755737,11,44,-5,13,-77,-23,20,19
605506755737,-1,-19,13,2,22,-64,4,19
605506770718,0,-5,15,30,24,26,0,7
605506770718,18,-7,24,-49,-53,-98,-3,-1
605506778131,-2,18,11,7,5,-39,-11,-8
605506778131,-3,6,-8,-44,8,-3,-17,-8
605506793853,-1,32,21,-70,12,51,-20,-23
605506793853,-5,15,23,-11,-1,125,-20,-34
605506794612,-15,-9,-48,-22,32,127,-32,-36
605506794612,17,-74,0,-7,24,36,-18,-16
605506808169,-4,-40,-29,17,22,-15,0,1
605506808169,-8,-27,-51,26,39,12,-20,3
605506815712,-6,24,39,11,10,-20,1,3
605506815712,-1,1,-9,-30,12,-19,10,3
605506830702,8,13,-18,20,4,-45,14,5
605506830702,5,-4,6,2,-8,-27,9,6
605506838206,25,26,28,2,3,-68,15,3
605506838206,-2,30,57,2,-10,23,14,-5
605506853164,2,-12,30,12,13,-25,17,1
605506853164,-8,-20,-3,-5,-4,26,10,7
605506868926,15,-6,-3,-24,-9,64,14,-2
605506868926,-1,9,17,38,-4,-3,8,0
605506899520,-4,-7,-15,-10,34,-31,-4,-4
605506899520,-5,-6,-1,18,-22,-85,-6,0
605506901176,-8,4,2,83,-5,-25,-2,5
605506901176,-10,2,3,0,-73,-61,-7,-1
605506914541,-8,-9,-19,55,20,-87,-9,0
605506914541,-5,-10,-32,-28,15,-35,-6,-4
605506916110,-12,2,13,-35,-5,48,-7,-8
605506916110,-9,3,48,124,16,102,-5,-4
605506935629,-6,-13,13,78,21,125,-16,-17
605506935629,2,3,28,67,1,125,-10,-13
605506946149,11,25,-6,10,-33,82,5,1
605506946149,7,15,-41,-128,-86,3,9,6
605506967020,1,-2,-2,-56,-15,-4,-1,9
605506967020,2,2,-10,-50,-6,-65,1,12
605506968603,1,-4,-28,-13,-8,-40,-13,8
605506968603,-2,-3,2,13,27,-40,-1,4
605506973874,-1,4,14,10,-16,-15,3,6
605506973874,-8,-12,-6,-9,-1,4,8,-2
605506974667,-2,-2,7,-20,16,-11,1,-1
605506974667,-2,3,-3,16,50,-2,-8,-6
605506981764,0,2,-2,-42,-20,-4,-2,-4
605506981764,1,-1,-4,-10,-71,6,-5,1
605506988178,-5,-2,-16,1,-38,-3,-17,-5
605506988178,-3,7,-8,-17,7,-58,-19,-8
605506996360,-4,1,-14,-13,-13,12,-2,-5
605506996360,-1,-1,0,-1,2,19,-19,-5
605506997171,-7,-15,-16,-1,31,36,-1,-5
605506997171,-3,-33,-16,-34,-3,-4,10,-2
605507012121,0,-7,13,23,14,-8,27,-2
605507012121,4,-6,1,-42,29,-46,31,5
605507018873,-1,11,8,2,6,-22,47,6
605507018873,6,3,31,-9,16,32,43,10
605507033241,1,-3,-10,36,-10,73,40,0
605507033241,3,-10,-22,-22,-1,95,49,7
605507041334,3,-5,-14,-36,10,-42,14,51
605507041334,-2,13,-8,-17,7,-23,7,-15
605507056279,-5,5,-11,5,7,-33,-18,-5
605507056279,-2,9,4,-11,-22,28,-47,-12
605507057106,-3,-4,24,-67,1,-15,-29,-15
605507057106,10,-44,17,40,9,-12,-22,8
605507070750,17,-38,11,-33,-19,-107,9,10
605507070750,6,-55,28,40,-10,-104,17,21
605507078882,-1,16,-69,-9,-1,-97,-4,-5
605507078882,3,68,-54,12,-1,3,-3,-2
605507093262,12,9,7,0,14,-41,-34,-17
605507093262,-17,-71,18,30,27,45,-28,-2
605507101353,11,38,-40,19,41,96,-14,-29
605507101353,11,21,76,-102,6,39,-24,-18
605507116852,39,-69,-6,-38,47,43,-5,17
605507116852,-36,-24,-128,-22,32,74,-16,-6
605507117624,-63,48,59,-37,24,77,-19,24
605507117624,-37,-65,27,63,-30,12,-38,-5
605507130623,7,35,-68,17,-25,1,-19,-23
605507130623,5,8,-19,60,-65,-108,-1,-4
605507138175,32,18,-53,-36,-118,-24,-2,-12
605507138175,1,5,-78,48,-82,-11,17,-3
605507153191,-42,108,32,-44,77,51,1,4
605507153191,-4,48,-80,22,70,30,28,5
605507161383,-74,24,0,62,89,4,25,3
605507161383,-12,-35,-39,-110,-13,-19,31,25
605507176348,-45,18,-43,-3,-46,-21,-3,-5
605507176348,-17,7,67,-37,-66,7,8,-8
605507177140,-14,-45,88,49,-6,-25,-16,-9
605507177140,1,15,54,-72,-42,4,5,-13
605507190733,-32,16,41,43,-81,31,9,4
605507190733,34,110,-17,-23,-84,12,21,-1
605507198841,48,7,-94,-60,30,1,6,-17
605507198841,-74,56,35,23,55,-7,11,1
605507213199,-25,-69,-55,31,-46,12,-12,-4
605507213199,-42,-44,82,27,-31,-32,-28,-7
605507221383,8,-13,-15,15,-55,9,-8,8
605507221383,-36,110,-93,-10,-36,10,1,19
605507236377,-51,-71,8,-19,16,11,10,11
605507236377,-37,-25,-37,-24,94,-6,-5,-9
605507237138,-31,-49,9,31,-44,-16,-8,-11
605507237138,79,29,31,7,75,26,-5,4
605507250696,0,-57,-35,18,69,3,8,8
605507250696,-111,-88,-21,-27,-107,23,9,39
605507258200,9,40,2,18,32,-25,-4,-25
605507258200,-62,-108,32,9,-86,14,43,-10
605507273231,13,74,82,-40,-40,61,1,-3
605507273231,72,-6,-30,-22,90,-8,10,12
605507281383,-13,-75,-103,-33,2,27,-8,6
605507281383,20,-21,24,-32,-58,13,-13,3
605507296355,-52,-6,11,-31,-21,-11,27,29
605507296355,32,12,15,18,-16,-21,20,-39
605507297103,15,86,31,6,-95,-37,-13,28
605507297103,72,28,8,7,0,-25,2,-46
605507310661,9,-56,-109,-34,-46,-13,-17,19
605507310661,24,47,53,26,45,-32,-8,-9
605507318888,-118,-128,-19,30,49,-54,-13,17
605507318888,-58,-125,-85,33,-19,41,2,41
605507333208,-46,-10,43,-5,6,-11,2,13
605507333208,8,-63,2,-5,-64,12,-11,20
605507341346,40,-17,64,-7,-16,19,9,22
605507341346,1,-59,13,-18,6,42,-22,5
605507356412,7,40,-41,-7,-34,-17,10,-6
605507356412,25,32,-27,15,24,-65,5,11
605507357168,13,-24,-8,-33,-36,5,7,-21
605507357168,-57,7,8,35,100,-65,-4,-48
605507370757,35,-27,-1,-67,-33,17,56,-20
605507370757,-51,-21,-12,-46,108,4,60,-15
605507378869,-50,8,2,-29,32,24,-35,7
605507378869,2,49,-47,22,-13,41,17,12
605507393230,0,45,20,20,40,90,-30,-50
605507393230,42,50,-25,-7,-23,-61,57,-20
605507401408,40,-79,6,-54,-70,56,65,24
605507401408,14,31,-36,-48,19,-13,-20,13
605507416419,-47,14,44,-7,-29,25,67,-3
605507416419,36,71,52,-83,-19,35,-23,-30
605507417098,38,14,25,-25,-100,-52,26,-20
605507417098,19,-56,-70,-54,-15,89,21,-39
605507430707,-23,-3,-37,7,59,-128,2,-9
605507430707,-61,-29,-28,11,54,96,41,82
605507438875,-25,40,-58,-45,27,62,-29,-19
605507438875,-29,-7,38,62,-1,-101,-59,4
605507453196,3,-33,1,24,-30,28,-9,-10
605507453196,-45,-57,3,-8,-51,27,11,4
605507461425,-1,21,19,2,120,-62,39,-44
605507461425,-29,7,12,18,-2,-13,9,2
605507476392,26,-42,47,0,7,-112,-45,-11
605507476392,7,-71,-26,-7,53,-46,15,-38
605507477140,113,-16,9,8,-84,71,24,5
605507477140,19,-24,-7,-55,51,14,2,-20
605507490743,-30,17,-47,-41,-6,38,50,22
605507490743,60,-51,-27,-95,-128,-26,-54,-10
605507498241,0,56,18,26,41,-96,-29,-30
605507498241,-34,57,-13,25,74,-21,28,-11
605507513195,23,-51,-34,15,-13,92,-17,1
605507513195,37,20,-29,31,29,-21,-65,1
605507521364,-66,32,6,-25,79,-26,3,14
605507521364,36,65,54,-55,-39,-78,-24,25
605507536430,15,67,-76,-25,66,27,-16,31
605507536430,15,64,54,73,-8,-41,-5,-45
605507537148,75,-60,44,29,44,-10,-22,32
605507537148,22,-49,15,-7,16,-24,20,57
605507550712,52,-14,27,-6,9,8,-34,23
605507550712,41,40,14,29,-22,67,-46,-18
605507558938,-8,33,-6,3,-72,-15,-58,-46
605507558938,38,-14,-14,-12,-6,104,-20,-32
605507573199,89,51,-7,23,-12,77,8,69
605507573199,71,30,10,-8,1,33,32,112
605507581355,-73,23,5,10,28,102,86,127
605507581355,56,-1,27,24,-18,67,31,96
605507596347,-53,-51,4,45,49,91,21,-3
605507596347,-24,-79,-24,-24,-19,4,31,-102
605507597178,7,-85,-43,-46,29,29,40,-104
605507597178,-25,-50,-55,-2,103,43,98,-92
605507610678,-80,-22,-2,-13,109,62,57,-125
605507610678,-113,1,-21,7,39,-76,55,-102
605507618859,-127,12,-20,9,-97,-68,6,-128
605507618859,29,38,-20,-25,-128,-128,-40,-115
605507633235,127,-1,-4,-46,-128,-128,-86,-111
605507633235,-16,13,-17,-38,-92,-59,-94,-60
605507641428,-20,8,-11,2,-49,-70,-82,-49
605507641428,-77,7,-1,10,-54,-63,-61,-11
605507656342,-63,12,16,12,12,-66,-12,7
605507656342,-17,7,21,8,-37,38,-20,42
605507657145,62,19,9,8,-8,33,-9,52
605507657145,21,1,7,-13,2,54,13,54
605507670691,43,0,13,-5,0,14,1,48
605507670691,28,7,12,-7,15,13,-1,49
605507678909,45,-11,0,12,35,25,18,51
605507678909,24,3,-8,8,55,5,8,33
605507693222,17,-1,4,-1,-20,-39,7,28
605507693222,15,8,5,6,5,12,2,35
605507701463,37,8,-1,4,7,9,14,27
605507701463,18,-1,-2,0,-5,-4,1,15
605507716302,18,-1,7,3,-5,-14,-5,9
605507716302,-2,2,5,-5,-1,20,-1,6
605507717093,13,4,-1,4,8,34,-2,6
605507717093,6,-5,-2,-5,-2,16,-13,7
605507739540,-40,-4,3,-5,-7,2,1,10
605507739540,24,5,-5,4,25,14,3,16
605507740318,-28,-3,-2,-1,10,10,5,5
605507740318,65,-13,8,4,8,14,2,2
605507753246,42,-5,15,4,-3,-3,7,4
605507753246,31,-6,14,5,5,13,8,4
605507761366,46,20,4,3,-3,12,7,-1
605507761366,9,37,1,-6,-14,7,1,1
605507776371,80,80,18,8,0,12,-6,8
605507776371,65,100,30,-12,-8,18,-5,2
605507777169,85,74,30,-7,8,25,-5,-19
605507777169,50,-35,33,-7,8,1,9,-2
605507790749,44,-126,-19,-20,1,5,16,12
605507790749,62,-128,112,4,18,9,-1,57
605507798821,127,-22,101,11,37,19,5,77
605507798821,6,95,127,25,73,26,21,44
605507813262,-68,127,90,38,110,67,54,42
605507813262,-120,127,-107,92,127,119,91,-6
605507821374,-122,-60,-127,80,115,127,70,-52
605507821374,0,-116,-128,113,106,127,27,-56
605507835691,-82,-37,-99,84,97,127,-26,-94
605507835691,-113,64,-46,-40,-2,27,-68,-81
605507843867,-83,123,-15,-101,-106,-109,-114,-67
605507843867,-128,44,-72,-125,-94,-127,-124,-18
605507859564,-104,-18,-67,-128,-128,-128,-119,44
605507859564,-120,-80,-107,-95,-47,28,-63,58
605507860314,-128,-109,-85,-83,29,36,9,1
605507860314,-30,-71,0,-57,-115,119,-27,-8
605507873190,-4,-76,-63,-12,-93,-29,59,21
605507873190,-2,-30,-60,35,-128,-128,16,34
605507881434,35,-102,-12,1,-98,-128,15,22
605507881434,-21,-117,-24,26,-31,-61,7,53
605507895742,36,-100,38,27,-30,-35,2,-24
605507895742,110,19,53,16,4,0,9,-68
605507903928,91,82,43,31,13,41,34,-9
605507903928,89,127,38,35,44,56,-17,-46
605507919560,82,127,39,16,32,57,3,-28
605507919560,93,91,35,9,48,32,43,-9
605507920362,64,92,14,43,69,59,20,12
605507920362,86,61,-6,13,43,-6,24,13
605507933251,52,5,37,-10,53,1,13,-3
605507933251,42,-71,36,-8,52,7,-2,18
605507941365,40,-29,23,1,27,4,-25,24
605507941365,-4,-18,26,-3,30,-7,10,13
605507955716,17,-66,17,-2,39,26,-3,9
605507955716,3,-67,13,-13,-30,28,-5,8
605507963864,-14,-70,6,8,50,60,-6,9
605507963864,-21,-48,7,4,10,23,18,11
605507979549,-10,7,-5,3,80,53,-4,2
605507979549,-29,-20,8,0,34,63,-19,-4
605507980236,-50,-28,-1,11,7,-12,-4,-9
605507980236,-44,-13,1,-4,24,63,19,-6
605507993200,-33,4,1,-5,4,40,6,-12
605507993200,-13,-33,3,-6,0,-85,-2,-14
605508001409,13,-41,39,-25,-96,-103,2,-6
605508001409,26,-45,34,-4,-55,-128,17,-4
605508015628,42,-9,4,15,-123,-102,-14,-10
605508015628,61,-39,-31,1,-89,-33,4,8
605508023923,63,18,-64,9,-67,-36,-15,13
605508023923,-33,-20,-60,-28,-30,-56,14,50
605508038168,-86,-45,-56,-5,-26,68,31,30
605508038168,-22,1,-19,-10,21,-9,2,12
605508047198,-55,-55,25,-37,-9,30,0,-9
605508047198,-8,-5,-13,-5,-79,63,38,-34
605508053235,-2,61,41,-23,-96,-53,-16,-31
605508053235,20,60,93,46,42,-61,39,-8
605508062195,13,59,49,-20,-37,-25,16,-11
605508062195,37,-16,-23,28,70,-70,-13,-14
605508075746,14,36,-67,19,111,61,-11,10
605508075746,8,11,9,29,98,122,-27,-4
605508084676,23,127,47,23,127,98,-14,-70
605508084676,-2,70,38,-30,-32,-10,-49,-118
605508098693,77,-9,-61,-51,-66,-112,-28,-102
605508098693,116,-65,-128,-48,-32,-20,-12,-47
605508107180,114,-109,-100,-6,-57,-108,34,-46
605508107180,-11,-66,-45,6,-26,-63,30,58
605508113245,-52,-38,2,22,-28,-44,-11,104
605508113245,-128,-7,95,12,-45,-11,-17,127
605508122119,-91,10,76,31,18,66,-8,127
605508122119,-29,71,68,14,25,48,2,74
605508135670,-13,31,26,-11,24,49,7,22
605508135670,-31,35,-1,-11,3,24,17,-13
605508144627,18,43,-4,-43,-104,39,11,-11
605508144627,0,12,-9,-12,24,6,3,-33
605508150614,32,43,36,10,7,-5,15,-4
605508150614,68,60,1,-11,1,7,0,-11
605508167228,58,92,-7,-11,11,-13,-18,-5
605508167228,-2,101,28,-16,2,12,-6,3
605508173184,-17,2,67,40,10,-21,9,-11
605508173184,-48,-48,20,52,103,45,13,-22
605508182146,-78,-103,-38,114,121,36,-2,-3
605508182146,-25,-98,-12,113,-6,12,2,2
605508188130,17,-55,-35,40,-47,-78,-13,-11
605508188130,-6,-65,2,24,-105,-127,-35,-26
605508204698,-1,-31,-7,-49,-99,-25,-15,6
605508204698,-2,8,-4,-83,-93,15,-11,-11
605508210601,0,25,12,-50,-37,26,4,-4
605508210601,3,39,-38,-81,-75,8,2,-12
605508227155,-29,7,-34,-64,-5,-8,-9,2
605508227155,6,36,-47,-43,-56,5,-5,2
605508233243,-2,16,-106,38,-99,51,13,3
605508233243,-52,19,-71,-76,-126,9,10,-6
605508242252,-49,-8,-67,-53,-128,-2,-8,-6
605508242252,-103,-32,-45,-81,-119,-33,-16,-1
605508248271,-106,20,-72,-102,-52,-76,-29,-10
605508248271,-86,-103,-128,-91,24,-105,-9,-12
605508264726,-19,89,-117,39,93,-96,5,3
605508264726,60,117,-4,-15,78,-70,26,14
605508270683,43,118,84,-72,72,-66,18,0
605508270683,32,91,124,7,60,-91,-28,-8
605508287247,-39,-23,116,29,74,-52,-10,-14
605508287247,106,-128,113,-34,127,82,-10,-6
605508293166,105,-120,38,-91,127,127,17,-10
605508293166,97,-78,104,4,115,127,25,0
605508302180,49,-71,112,99,112,96,15,11
605508302180,37,53,103,127,5,48,-1,11
605508308238,31,24,127,127,-37,79,-9,3
605508308238,47,17,66,109,-61,62,15,8
605508324645,21,-54,-63,55,-128,29,2,7
605508324645,-24,-53,-95,13,-57,-68,-10,-3
605508330757,-34,-128,-128,-44,-78,-118,-59,-10
605508330757,-69,-84,-128,-22,-128,-125,-72,-35
605508347159,-38,-128,-43,-115,-128,-128,-128,-55
605508347159,-75,-128,-29,-63,-44,-58,-126,-19
605508353156,-4,99,71,31,31,91,-88,39
605508353156,-28,6,88,-10,122,32,-118,51
605508362217,-108,92,-56,-11,51,2,-118,44
605508362217,-95,-37,-35,76,121,4,-28,77
605508375731,-35,53,-15,123,124,-17,32,-5
605508375731,-118,127,17,127,96,62,86,43
605508384686,3,123,97,96,60,60,117,76
605508384686,-8,39,100,112,-61,27,83,19
605508390676,7,51,127,127,-113,36,72,-45
605508390676,99,-96,104,5,-128,29,78,-97
605508407187,57,-110,-49,31,-128,16,64,-58
605508407187,53,-102,-64,85,-118,25,45,7
605508413222,49,-84,27,-89,-97,3,44,7
605508413222,53,67,-71,-121,62,0,28,-43
605508422220,35,-105,-11,-128,120,9,88,-72
605508422220,50,-59,-23,-128,127,23,123,-62
605508435768,23,-28,17,-128,127,-6,127,-38
605508435768,1,-128,43,-120,49,-5,127,-22
605508444614,18,111,-53,-88,-93,39,124,7
605508444614,34,81,-81,-114,113,116,-16,-122
605508450728,-14,6,55,-127,46,107,84,-117
605508450728,104,127,103,-16,-93,127,91,-99
605508467147,127,116,127,92,-93,127,89,1
605508467147,-70,-63,-52,-1,-128,105,-10,61
605508473260,110,-123,-128,-76,-36,-56,-128,119
605508473260,32,67,57,-98,107,-109,-128,52
605508482202,-59,67,105,-44,127,-128,-117,-99
605508482202,-83,58,-32,44,127,-128,-115,-71
605508495766,-128,43,-127,123,102,-111,-128,-34
605508495766,-128,27,-128,126,-65,-124,-123,71
605508504700,-113,-60,-125,108,-89,-127,-128,65
605508504700,-106,-18,-53,88,65,-128,-127,23
605508510724,-128,-128,-89,127,-128,-128,-128,60
605508510724,-108,-70,-70,115,-128,-128,-117,127
605508527149,-128,-120,-22,119,-102,-109,-128,118
605508527149,-98,-80,39,96,-98,-47,-124,127
605508533242,-80,-86,34,71,-34,13,-71,95
605508533242,-67,-30,8,24,-7,57,-36,14
605508542135,2,-38,16,-31,42,73,2,-37
605508542135,87,62,62,-49,4,45,86,-56
605508555658,62,83,46,-54,8,34,87,-70
605508555658,39,16,4,-28,-7,50,65,-85
605508564711,66,11,11,-62,50,41,63,-51
605508564711,92,81,38,-60,-23,11,81,-44
605508570708,28,44,19,-32,-19,18,56,-44
605508570708,19,-22,-16,-25,8,21,30,-33
605508587145,24,5,-8,-46,21,22,28,-1
605508587145,24,42,23,-42,-34,0,24,-9
605508593125,3,3,1,-22,-8,6,13,-20
605508593125,6,-25,-11,-5,7,7,15,-11
605508602157,11,9,2,-23,3,7,6,-12
605508602157,11,18,10,-14,-25,1,10,-13
605508615685,6,-3,3,-3,-6,-1,6,-7
605508615685,3,-45,-9,2,-1,-1,14,-2
605508624646,11,21,-5,-10,-1,0,-7,-4
605508624646,21,24,2,-23,-5,-4,9,-13
605508630655,13,7,-5,4,0,-4,12,-6
605508630655,2,0,-11,-1,8,0,5,-6
605508647149,-4,-44,-3,-13,4,-4,2,-10
605508647149,-12,-43,5,-9,-8,-15,3,1
605508653236,-23,-15,-4,-14,0,-15,8,-5
605508653236,-48,-32,1,-3,-20,-17,1,-13
605508662245,-39,13,-3,7,13,-4,-3,1
605508662245,10,18,1,-11,-5,2,4,6
605508675768,21,42,13,14,7,11,-11,4
605508675768,50,54,-4,12,17,14,-7,7
605508684761,38,92,-2,-11,-3,15,-7,-6
605508684761,21,61,-17,1,-18,-1,-9,-17
605508690708,4,21,-6,15,-2,-6,3,-21
605508690708,21,-4,-2,15,14,-8,-1,-27
605508707257,3,-20,5,-1,9,9,-8,-14
605508707257,-11,-7,15,-6,8,4,2,-8
605508713192,16,0,-2,-5,13,30,5,-2
605508713192,-9,0,-3,-2,-6,44,10,-9
605508722181,4,-49,-12,-39,0,22,-1,7
605508722181,7,4,-4,43,-12,-32,-1,3
605508735698,2,0,-11,23,2,-42,-17,15
605508735698,-5,-4,-8,15,6,-46,-15,20
605508744722,-6,-20,-7,-9,-4,-26,-17,18
605508744722,3,-6,8,-20,0,-3,-9,14
605508750700,0,-8,-4,-16,-17,-3,2,8
605508750700,4,6,-3,-6,-10,9,-1,-3
605508767214,-4,-5,0,5,-9,2,7,-3
605508767214,-5,-5,-1,0,7,8,0,-6
605508773195,-2,3,7,0,-3,7,-2,-5
605508773195,2,-3,-1,1,10,9,0,-2
605508782240,16,0,-5,-3,-3,-10,0,5
605508782240,-2,1,-1,-4,2,3,6,1
605508795700,-26,-12,2,-15,4,9,5,-8
605508795700,-28,-7,-9,1,-5,1,0,-11
605508804730,-20,-13,2,-13,2,-5,5,-11
605508804730,-4,-1,3,-1,-1,5,-4,-3
605508810761,-22,-9,2,-18,-8,-2,-2,-4
605508810761,25,0,2,23,0,-1,2,3
605508827287,26,40,5,35,10,5,1,-4
605508827287,23,2,-2,-23,-7,2,-5,20
605508833156,-6,-23,-16,-2,-1,-2,-3,6
605508833156,-9,-36,-1,-28,-2,0,-8,-9
605508842257,-9,-42,-8,-19,-19,4,-2,-15
605508842257,-11,-17,-1,-16,3,-1,0,-7
605508855730,-25,33,40,77,-12,-1,-4,-9
605508855730,-1,15,-26,13,-13,-7,-8,-4
605508864638,-17,-17,28,69,4,2,-7,-7
605508864638,-29,89,-3,-81,-6,-1,-4,-20
605508870619,-11,27,12,45,-7,29,8,-19
605508870619,-17,33,-53,-35,-18,19,5,-16
605508885622,-19,60,34,93,5,27,7,-32
605508885622,-85,19,28,33,8,25,-10,5
605508893137,18,85,48,-23,13,11,-3,-16
605508893137,31,108,-41,28,3,-31,-6,-32
605508902142,29,106,84,-37,5,30,-18,12
605508902142,78,-35,101,8,-37,-19,-40,-36
605508915599,-51,-103,-48,-7,-65,-30,-8,-43
605508915599,-47,-95,56,-79,61,-38,-13,37
605508924645,41,71,2,68,48,-58,1,-1
605508924645,67,5,41,19,9,-59,3,7
605508930638,-14,-77,-38,-116,-25,-54,-21,-46
605508930638,-54,-70,-12,-54,-54,-48,-17,-40
605508945678,-58,-112,15,-37,-63,-11,-5,-13
605508945678,-57,-27,-62,-88,-71,-20,-2,99
605508953156,109,127,-4,58,-26,-47,-13,103
605508953156,-41,11,-32,-57,-11,-31,-18,9
605508962171,72,2,-128,47,19,-95,-4,24
605508962171,5,20,-17,16,6,27,16,-64
605508975674,-4,3,43,42,47,29,22,55
605508975674,-29,38,-24,-18,-10,62,2,-26
605508984649,-43,-48,-21,-51,60,7,-5,-13
605508984649,-60,15,10,122,66,43,-32,86
605508990670,-11,16,-85,14,46,77,7,83
605508990670,62,102,-7,39,24,80,25,41
605509005653,-22,-16,35,43,-33,17,10,22
605509005653,58,-35,43,47,72,36,11,-3
605509013162,20,-47,19,-39,-5,-17,10,-63
605509013162,111,11,19,40,-21,-8,-2,-10
605509022215,-63,16,-57,-61,-110,4,17,14
605509022215,15,31,-49,70,35,-93,34,-76
605509035815,95,65,68,-33,20,-25,-1,-3
605509035815,81,77,77,40,34,34,19,-70
605509044775,7,-30,31,7,-58,-8,-39,-27
605509044775,-22,112,-70,28,17,51,40,97
605509050705,-118,-81,-79,27,10,11,-37,50
605509050705,-124,-82,84,40,7,77,53,66
605509065708,30,22,-38,41,25,14,-60,23
605509065708,-27,46,-80,-116,-1,26,-44,46
605509073300,-20,20,14,-35,63,-13,6,-4
605509073300,-128,-93,-102,-10,12,-5,35,97
605509082219,-66,10,81,11,127,-17,13,-10
605509082219,-104,-38,66,-50,107,52,77,57
605509095658,-34,52,-43,-41,-89,109,-71,-14
605509095658,41,38,-98,-17,114,-19,-47,9
605509104643,65,-5,-128,-73,75,-30,15,-20
605509104643,96,26,-41,79,-107,-5,-50,-30
605509110802,47,-60,-4,71,11,-115,-10,-114
605509110802,109,-23,28,8,-93,-30,-30,-48
605509125738,87,-3,-19,62,5,127,-20,-95
605509125738,81,-122,-47,42,-38,-55,-28,-35
605509141984,-93,-56,38,37,8,89,95,28
605509141984,14,1,40,91,-16,-19,-12,6
605509143688,2,-61,-20,3,99,-12,19,4
605509143688,-5,3,-85,25,-93,32,57,-60
605509155757,104,-101,-11,78,82,92,-4,-71
605509155757,9,-99,71,-15,18,2,49,39
605509164765,-3,17,61,-64,-26,9,-65,-26
605509164765,0,77,110,96,45,15,14,-30
605509179004,105,78,97,-98,-96,-128,-99,12
605509179004,46,112,44,54,-50,16,-14,-76
605509185779,63,-33,-86,44,54,-12,-38,-36
605509185779,4,23,-85,6,105,22,-39,6
605509202123,-76,-4,-24,19,-23,36,29,-59
605509202123,-31,-28,42,-27,82,37,-99,0
605509203722,-41,9,34,-1,-31,19,118,72
605509203722,31,0,15,70,-68,53,40,-30
605509215726,-2,87,56,37,-9,-34,127,83
605509215726,25,54,11,-3,-46,82,-87,-24
605509224735,-26,51,95,-42,-41,69,-43,-74
605509224735,-35,-1,0,-108,39,-72,-70,-66
605509238982,1,-44,-25,64,63,-39,18,60
605509238982,-101,94,33,-21,0,-34,3,56
605509245701,38,-5,-5,-108,-76,-32,22,67
605509245701,12,-14,52,-80,-58,-31,-32,32
605509262055,-65,-100,43,-112,-8,11,24,14
605509262055,-59,84,100,-60,-65,-40,-20,33
605509263570,-13,58,84,25,-4,-70,-17,73
605509263570,-64,35,23,-63,-32,-6,-48,-31
605509275653,-31,-16,-117,-68,-56,-83,-47,-94
605509275653,-22,-46,-81,8,42,-33,-54,-55
605509284572,-36,62,24,-46,-26,-118,-57,-8
605509284572,-28,32,43,-5,7,-28,1,3
605509298838,-4,83,37,-51,-30,-39,-51,-17
605509298838,2,-8,-8,-35,-20,2,-9,-13
605509305662,-2,53,4,-17,-29,66,-7,-1
605509305662,4,65,32,-69,-16,-41,-9,-23
605509336980,21,111,-10,-41,26,9,-36,-15
605509336980,33,39,10,-13,7,-106,53,-9
605509338596,-23,-9,-16,74,5,-18,29,-16
605509338596,-10,-17,-32,110,32,-61,-11,-23
605509359017,5,-44,-5,114,81,60,18,23
605509359017,17,-128,46,127,15,53,50,35
605509365681,-19,-100,68,111,3,-12,19,25
605509365681,28,-96,84,65,-21,13,33,26
605509391009,6,21,31,51,1,-6,0,8
605509391009,14,0,-113,-25,-6,14,44,-43
605509393354,5,-26,9,-21,-23,26,8,-14
605509393354,18,16,-1,-51,-1,5,5,-11
605509396974,11,1,-30,-15,16,30,35,29
605509396974,1,-24,-4,-17,9,-43,19,-15
605509397746,-2,24,8,-1,16,-33,-13,10
605509397746,13,-15,43,73,20,7,5,-17
605509398646,8,103,29,-10,0,7,-31,5
605509398646,21,57,-7,-9,-3,-3,7,14
605509404747,-13,53,-64,-47,-31,22,-14,3
605509404747,18,19,-4,-49,-12,9,-27,6
605509419015,18,2,11,-1,-7,13,-12,13
605509419015,31,35,22,13,-20,-10,-19,-16
605509425706,-14,-19,-53,5,-13,41,64,-14
605509425706,-6,-3,-48,31,-20,-14,-8,8
605509433244,-19,-13,-50,11,102,38,8,-13
605509433244,-36,-29,-83,49,94,-46,-3,28
605509442241,-47,-43,41,12,127,-48,17,-28
605509442241,-45,2,-12,-44,104,-19,19,-2
605509455693,-22,-77,28,-16,-54,7,26,8
605509455693,13,84,44,2,-106,55,-1,6
605509464748,10,9,-11,-63,-61,127,-4,15
605509464748,12,-43,-34,-73,68,127,30,34
605509478977,5,-20,-28,-43,111,91,21,-5
605509478977,-5,-87,17,20,2,-72,46,-39
605509485714,7,-14,83,118,-117,-115,-95,-4
605509485714,5,-3,84,54,-119,-92,-109,-25
605509493171,-12,14,44,31,-90,-80,-47,3
605509493171,-9,-16,-2,-37,-4,14,9,34
605509502235,11,-7,-10,-18,27,-17,45,29
605509502235,-2,-37,52,-12,19,32,28,24
605509515710,10,23,96,64,54,-25,-15,12
605509515710,9,21,117,21,17,-66,0,-12
605509524665,18,60,20,-62,27,-41,30,-12
605509524665,35,37,-51,-31,49,-33,-14,-23
605509538843,16,21,-99,-112,77,73,26,-26
605509538843,23,7,-13,-87,62,90,-11,-32
605509545721,29,85,12,0,73,90,22,-18
605509545721,57,11,-25,-50,-18,-25,48,-49
605509553208,61,-8,-75,121,-21,18,6,-21
605509553208,124,-90,-128,64,-23,83,35,-28
605509562179,-54,-58,-42,29,63,-2,57,-60
605509562179,-77,29,103,17,-47,14,8,4
605509575677,-96,-76,6,20,-97,51,33,9
605509575677,-26,-16,102,-75,-94,-5,-22,67
605509584641,-18,-63,5,-20,-128,-23,-48,84
605509584641,-15,-53,28,-12,-100,-22,-45,76
605509598834,-99,1,94,0,-62,-54,-34,28
605509598834,-84,-28,33,23,-27,-43,-5,-28
605509605724,-26,0,68,-28,5,-17,-25,-9
605509605724,-23,35,11,13,40,-6,7,8
605509613208,46,72,70,-19,34,1,-22,-37
605509613208,18,34,-50,17,77,-12,-1,-26
605509622143,3,70,-46,4,22,-25,-13,-4
605509622143,85,-1,-2,-12,32,33,37,-24
605509635695,24,-17,-15,-39,-21,-101,18,-11
605509635695,5,16,127,17,-15,-95,7,24
605509644619,-69,-101,-34,16,-23,-75,-2,-41
605509644619,-23,-42,-25,-5,-31,29,24,-14
605509658897,-45,21,-44,-7,18,-15,-6,-1
605509658897,21,-10,40,-3,51,65,-11,-12
605509665644,36,12,-48,-37,8,75,-58,33
605509665644,-76,-39,81,30,28,-15,42,-9
605509673245,-26,-34,39,-46,-2,35,17,10
605509673245,13,13,-23,-4,16,45,46,-2
605509688226,-29,-22,82,20,13,-2,17,-17
605509688226,-20,53,119,27,12,46,-10,40
605509695692,-33,11,-41,-53,-14,28,21,48
605509695692,-14,59,-63,93,33,14,-26,80
605509704749,7,-7,-20,9,-22,29,57,-27
605509704749,6,-72,-94,54,13,-41,-4,104
605509718947,27,9,-29,6,7,-6,-32,-26
605509718947,-56,-79,-46,-29,-17,-61,-38,6
605509725794,-61,-10,48,28,4,22,-32,31
605509725794,-65,18,-8,77,33,58,-20,12
605509733289,21,16,43,33,-25,-32,9,49
605509733289,-6,28,39,-13,-34,57,20,-20
605509748220,14,35,-31,-10,-7,-34,-32,23
605509748220,-19,-13,20,-33,-12,-70,45,-36
605509755721,25,12,-17,-1,-10,11,-48,1
605509755721,43,29,-3,5,52,16,-25,-39
605509764721,-48,32,39,18,16,-16,21,19
605509764721,-49,20,-43,-24,-11,-28,-20,-62
605509779022,29,21,13,25,-1,-31,-45,-32
605509779022,-41,-15,14,16,-5,-33,-31,-6
605509785722,41,7,-5,-1,6,0,24,5
605509785722,18,-1,-24,-25,-10,1,18,15
605509793214,-3,-2,36,18,-2,3,30,-12
605509793214,-5,-7,-24,-31,-17,2,-8,5
605509808217,38,0,24,-6,6,35,-29,-17
605509808217,30,-17,-56,-36,-7,34,-9,-10
605509815753,20,-13,-14,4,4,7,15,29
605509815753,-17,0,1,-28,2,-11,9,-9
605509824729,21,-19,6,-11,-8,-6,-9,-18
605509824729,22,2,-64,-2,7,10,-18,-22
605509838979,7,-11,-4,-8,26,15,0,-5
605509838979,-19,-12,-11,-40,-42,-28,0,8
605509845671,16,-5,1,1,-6,44,25,1
605509845671,9,-4,5,-28,-36,47,-12,-6
605509853215,-8,-4,-21,-6,-14,28,15,6
605509853215,-12,11,-8,0,25,-24,-2,-8
605509868252,-2,13,-10,-7,49,-23,7,3
605509868252,5,-4,-19,-15,-29,-66,-21,-2
605509875746,-1,5,19,9,-4,-68,-2,-14
605509875746,-5,-7,14,13,-1,-36,-6,-2
605509884761,7,5,16,8,-27,-82,-27,-10
605509884761,-1,4,7,24,36,10,-5,-15
605509899006,-3,-7,-21,10,6,-13,-4,-6
605509899006,-2,-6,-30,-23,-18,-72,4,-5
605509905713,13,-2,24,-10,-38,4,1,-11
605509905713,13,8,0,-5,-13,-18,12,-1
605509913202,15,-7,-11,21,-13,99,11,13
605509913202,-2,-2,-30,-3,2,118,12,26
605509928154,6,-21,-29,-6,2,62,7,21
605509928154,2,-13,26,-4,-20,7,-46,1
605509935647,5,7,56,-18,2,-25,-37,-5
605509935647,-1,-20,15,-4,-11,-35,-28,-17
605509944625,4,-10,33,0,3,-18,-11,-4
605509944625,6,7,0,-1,12,-10,3,-9
605509958914,-2,-4,5,1,2,-21,0,-16
605509958914,-6,10,18,-1,-10,-4,-31,-10
605509965664,-5,12,-19,-4,0,-44,-5,-14
605509965664,-6,14,0,-1,5,-43,-11,-7
605509973167,-5,-8,15,-7,-30,-98,-28,-16
605509973167,-7,-19,8,-8,-5,-41,-5,-6
605509988200,9,5,8,-20,13,-8,2,-22
605509988200,9,-3,0,-4,13,22,21,9
605509995671,9,-18,-4,1,17,106,11,11
605509995671,10,-32,10,12,0,61,7,20
605510004652,29,19,44,-6,-9,62,1,21
605510004652,5,10,-43,62,20,43,5,5
605510018917,-29,49,-2,26,46,27,5,16
605510018917,4,58,12,79,19,43,12,-11
605510025689,11,-3,-32,-2,24,11,4,9
605510025689,-10,-6,15,-30,0,16,24,2
605510033234,-22,-3,-70,-40,-7,-20,20,-12
605510033234,-37,0,30,-103,-46,-5,30,-3
605510048195,-12,17,-9,-43,-92,-1,16,12
605510048195,-26,17,49,-37,-37,-11,-3,9
605510055692,20,8,10,38,-66,-26,-6,-17
605510055692,11,21,-98,81,52,-4,-6,-18
605510064665,-7,3,87,-35,-18,-2,-19,-11
605510064665,-14,5,25,50,30,-14,3,16
605510078883,-53,-32,54,25,15,-15,-28,-26
605510078883,-3,3,111,-92,18,-14,-33,2
605510085670,-21,-66,-66,60,60,0,-23,35
605510085670,3,-1,-10,73,-33,1,-21,28
605510093152,-52,-34,-5,-23,45,-5,-10,-1
605510093152,79,2,37,127,-52,-24,-7,45
605510108228,-25,-7,52,-4,-8,0,-3,-9
605510108228,-11,-21,-8,45,-8,9,17,30
605510115723,3,-44,-17,-1,52,-8,20,-22
605510115723,0,-40,-21,-111,-94,16,28,22
605510124777,-18,-61,-51,-53,-54,5,-4,9
605510124777,85,2,65,24,-28,-2,7,25
605510138975,79,16,3,-66,-64,15,-7,44
605510138975,2,36,-19,77,85,-5,20,32
605510145745,29,13,9,43,-53,-39,-20,-69
605510145745,-51,-74,32,-23,49,4,16,65
605510153290,49,-31,-2,108,44,-14,-5,15
605510153290,18,33,-6,77,61,9,2,-53
605510168239,-21,33,-41,100,-17,-7,15,-19
605510168239,-38,57,2,73,99,10,-23,-60
605510184631,-14,43,40,-78,-106,-8,-10,-24
605510184631,-8,-34,38,-35,-16,7,3,0
605510186258,-18,5,-43,-37,27,-16,16,78
605510186258,-2,-25,-10,-57,-116,-20,12,-6
605510198972,9,54,-37,-39,78,23,14,35
605510198972,-73,36,-91,-77,-115,0,6,0
605510205712,-29,29,-52,-96,103,28,3,11
605510205712,-17,-10,-111,23,39,-1,-6,4
605510213183,17,44,61,91,28,5,12,-37
605510213183,4,11,70,-34,-51,-3,14,-35
605510228298,36,-6,25,-40,36,-8,-1,3
605510228298,17,58,-60,-99,-41,-2,3,-18
605510235706,9,41,68,-81,-111,-5,10,71
605510235706,70,58,-20,42,50,3,-8,24
605510244773,-10,6,29,25,43,14,-12,22
605510244773,-47,-50,-78,10,10,8,-39,-37
605510259001,31,-24,-65,0,3,39,41,48
605510259001,35,-56,-41,-47,-43,-6,9,-27
605510265766,-75,-57,53,59,64,22,40,-32
605510265766,40,2,127,37,34,-15,-15,22
605510281406,-106,-34,25,66,127,-19,-45,9
605510281406,-30,5,53,-61,121,4,40,-48
605510288214,45,-74,0,42,5,-7,8,-53
605510288214,31,28,65,-18,-26,53,-19,-26
605510295686,-70,-9,87,40,-116,-1,-106,-28
605510295686,66,-33,-102,9,78,47,-66,98
605510304690,25,77,-19,44,-31,22,78,14
605510304690,0,-45,-92,-16,113,-19,17,-16
605510318892,36,11,-75,48,36,4,14,-16
605510318892,-123,-49,-35,-12,23,19,-14,-20
605510325662,-84,22,-93,-17,-27,-20,-28,-14
605510325662,-51,21,-28,-12,-61,34,70,47
605510341356,-123,-53,20,-28,-59,56,86,-42
605510341356,-23,39,-46,56,-100,-45,-26,-35
605510348142,-17,42,-19,-87,46,43,-112,17
605510348142,27,60,-93,-83,-62,-84,-3,51
605510364519,54,78,64,-40,-2,-27,84,-68
605510364519,45,-52,78,56,57,-23,64,-43
605510366145,-63,-74,56,73,-54,-73,-107,70
605510366145,-107,16,72,-45,-21,13,-76,-12
605510378193,115,74,-115,-94,25,96,-22,-5
605510378193,-28,-87,-32,-58,-42,-40,33,-113
605510387235,-88,-24,-17,115,-82,-48,-17,-3
605510387235,-110,-88,56,-95,6,9,-8,-106
605510401585,58,-109,49,56,18,-62,16,115
605510401585,28,-35,34,-64,88,-67,-38,9
605510408246,-11,-53,36,52,10,90,31,-34
605510408246,9,55,-53,13,-37,-29,7,4
605510424664,-23,-7,-128,-45,-13,6,16,24
605510424664,-9,24,-74,-43,-57,20,-12,43
605510426186,17,19,-2,-2,-25,-42,34,11
605510426186,55,-12,5,21,-22,20,1,-22
605510438220,-13,-9,-8,-22,-2,-46,-16,-27
605510438220,-58,47,-17,13,13,27,-43,61
605510447274,40,34,-41,-31,29,2,30,-21
605510447274,16,-34,-36,-14,29,18,29,21
605510461442,-1,-19,34,31,12,-10,-17,-13
605510461442,-51,7,112,93,-28,24,17,11
605510468248,48,40,48,-75,-13,30,7,-18
605510468248,28,8,-21,45,8,-5,27,-19
605510484591,-39,-22,4,54,26,7,0,5
605510484591,3,24,45,66,2,49,1,38
605510486159,32,6,-27,11,6,22,17,-9
605510486159,22,7,21,83,41,27,-4,17
605510498301,-9,15,-25,6,14,5,-10,-9
605510498301,3,9,-15,30,14,28,-23,14
605510507244,22,18,-50,-55,-2,1,-8,1
605510507244,-3,12,12,21,11,-9,12,-10
605510521544,-8,0,10,72,-3,-22,-37,-4
605510521544,-1,13,-8,-49,-82,-39,4,4
605510528370,13,-2,30,88,67,-25,-18,2
605510528370,18,2,41,-4,-112,-30,4,-10
605510544675,-15,4,-26,6,-19,-23,17,0
605510544675,3,12,-34,-9,-25,9,27,16
605510546256,21,20,29,1,-7,-8,3,13
605510546256,17,4,4,34,-33,-13,-6,18
605510558230,6,9,38,-82,-30,-15,16,15
605510558230,-5,-3,20,81,76,18,14,7
605510567312,28,5,-18,37,-38,-7,13,-4
605510567312,16,3,61,65,-14,-32,7,-4
605510581469,0,-7,-15,30,7,41,4,-6
605510581469,-23,0,-48,-90,-84,28,-14,2
605510588274,14,-10,-41,4,86,53,30,-4
605510588274,-6,-8,47,-119,-90,90,12,7
605510604577,-14,-19,28,4,40,27,-10,-13
605510604577,11,-9,1,-89,-65,32,-1,5
605510606207,-6,-15,51,-75,-43,-3,-3,10
605510606207,9,-19,7,-1,81,4,-25,-22
605510618278,-14,-10,0,13,68,-56,-10,-4
605510618278,-9,-10,-61,2,79,4,37,19
605510627176,4,0,-28,-46,30,-3,-31,35
605510627176,-1,-30,-65,-11,36,-16,-6,16
605510641508,-15,-8,-51,8,26,46,-41,-8
605510641508,9,-12,22,-46,-6,-31,-25,-21
605510648265,-20,-15,-46,-86,-75,29,27,-6
605510648265,-10,-18,-32,-47,-5,22,21,5
605510663963,-1,5,-33,53,-37,-27,-21,8
605510663963,-14,-15,-18,16,-74,-21,-29,-21
605510670820,-21,2,-16,-15,-30,-13,35,-42
605510670820,7,-9,70,19,6,-4,-13,12
605510687216,3,-6,56,68,5,57,53,-19
605510687216,0,-14,94,35,40,12,9,3
605510688709,-12,-9,43,-27,-41,15,17,-4
605510688709,-10,-1,-12,-49,-14,9,-8,-51
605510701480,-13,5,-70,-77,-48,-16,-20,-27
605510701480,51,30,67,50,36,-29,-8,30
605510708255,-43,17,-35,-13,9,12,-11,52
605510708255,-9,10,-24,-19,33,-15,-16,12
605510723948,32,-43,-84,-93,44,38,-13,27
605510723948,-45,3,32,-77,40,-30,29,21
605510730820,-10,-31,79,51,17,-17,-6,13
605510730820,0,52,-48,-33,25,-13,-9,-10
605510747131,0,2,12,-6,1,-15,0,-8
605510747131,-5,23,-53,50,-1,-29,-5,-25
605510748673,6,-41,-14,20,-11,-42,-1,-11
605510748673,1,-1,-31,35,-18,5,4,2
605510761421,12,-4,52,11,-43,-65,3,3
605510761421,-2,27,7,-34,-21,-24,5,-27
605510768266,16,34,-21,0,-30,12,15,-24
605510768266,9,31,-55,11,16,35,14,-1
605510784344,-13,1,-46,-34,-33,-22,1,9
605510784344,-8,-23,2,22,2,27,8,2
605510790731,18,-7,57,-36,6,-1,18,-27
605510790731,0,-21,-4,17,-12,-26,6,5
605510829583,-8,8,48,-19,-17,44,-12,-19
605510829583,10,-2,3,-17,1,-35,-38,-4
605510835668,0,4,1,32,-3,-50,0,27
605510835668,14,12,69,48,16,38,13,-10
605510852026,-9,-7,42,-12,-9,7,5,-8
605510852026,-1,-16,76,21,-15,22,10,-12
605510853682,1,10,22,3,3,33,-5,-23
605510853682,15,51,28,19,4,-43,-42,-6
605510858971,-11,-14,-7,-25,-20,-24,-36,-2
605510858971,-13,-15,-34,-21,-12,1,-48,-12
605510859684,-1,-8,9,-11,-16,-36,-63,-5
605510859684,-19,-28,13,-13,-16,-27,-53,-4
605510867093,-3,4,6,-8,-11,-17,-38,-8
605510867093,-8,-4,-46,-9,4,6,-8,2
605510868717,-10,-9,-22,-13,-10,-9,10,-9
605510868717,-18,-29,-20,-32,-16,-16,48,9
605510880766,-7,3,0,6,-2,2,54,1
605510880766,-7,-12,-18,-7,0,17,29,-13
605510889741,26,1,-40,1,-20,8,7,-9
605510889741,1,-14,-11,-3,16,14,43,-13
605510903969,10,12,1,-9,-56,-18,8,5
605510903969,5,-7,-1,6,-21,0,15,10
605510910845,3,10,27,10,6,1,-1,14
605510910845,-11,-18,-8,-1,9,-8,-4,8
605510927152,-7,-9,-9,11,16,-7,-10,-1
605510927152,1,0,11,15,4,3,-23,-7
605510928699,7,10,15,-7,-4,12,-35,-7
605510928699,-6,-11,33,2,-3,-3,-13,1
605510940770,0,-12,-1,-16,5,-9,7,23
605510940770,0,4,-19,-2,7,21,-6,-8
605510949709,-2,3,-19,-1,3,-8,-9,-1
605510949709,-2,-7,-4,2,0,-16,-14,-7
605510963971,-15,3,-6,-4,0,-2,-2,-21
605510963971,3,0,-13,-8,3,-3,21,-1
605510970778,8,14,-9,-8,3,-8,19,-2
605510970778,6,-8,-5,-4,1,-9,6,3
605510987089,15,21,13,-6,13,12,2,-6
605510987089,3,-2,-8,-2,2,-2,10,-4
605510988681,-6,-7,11,-1,4,-2,7,-5
605510988681,0,-12,3,19,-4,6,-3,-6
605511000816,-9,-6,-4,9,5,14,35,-1
605511000816,-10,-9,-5,8,-2,-24,-12,3
605511009709,-3,-4,-2,0,-3,-7,-11,5
605511009709,-2,6,2,-14,-15,-15,-15,-2
605511023904,-1,-2,1,3,-2,1,-4,5
605511023904,1,0,4,11,0,17,-6,-5
605511030767,1,9,9,5,7,14,9,4
605511030767,-1,-1,8,2,0,9,8,7
605511047064,-9,-7,6,19,7,-3,3,0
605511047064,11,3,-1,5,3,12,9,3
605511048677,-5,1,-5,23,10,-2,2,-11
605511048677,-14,0,-19,-17,-21,2,5,-4
605511060690,4,-12,-8,1,-15,8,-14,-3
605511060690,-5,2,-22,10,-15,1,34,9
605511069676,-3,-2,12,-3,-3,-8,12,-9
605511069676,-11,-33,-9,-14,-4,-20,3,0
605511083905,1,20,18,2,-3,-8,-2,-6
605511083905,1,-6,-3,8,4,1,-5,-4
605511090656,-1,9,24,-19,3,-7,-6,23
605511090656,2,-8,-9,2,1,1,-7,-13
605511107035,1,-7,-9,-4,-3,1,-7,-16
605511107035,-4,-13,5,14,8,0,-5,3
605511108660,-7,-13,-12,-11,1,13,-1,-6
605511108660,-1,11,17,5,3,-4,-6,11
605511120744,3,11,15,-21,-20,-14,3,9
605511120744,-7,-3,-37,-53,-8,-25,-20,-13
605511129736,3,11,-24,-8,-11,-8,1,-11
605511129736,10,15,12,16,13,69,63,2
605511144026,5,-3,-29,-10,4,-12,-7,-29
605511144026,-9,-11,-29,3,-11,12,4,-16
605511150774,2,-21,-37,10,-15,-12,-7,-11
605511150774,0,-2,-16,-11,8,-14,2,0
605511167186,-1,-11,8,-4,3,-31,12,-4
605511167186,-10,-14,7,2,-1,26,6,2
605511168726,-10,-41,12,7,2,10,2,14
605511168726,-3,-4,-4,-1,15,39,-11,-7
605511180682,-11,-13,5,-17,9,11,0,11
605511180682,8,8,29,4,16,1,-1,5
605511189765,-3,6,7,-1,10,-2,4,14
605511189765,-6,0,4,2,5,6,-17,17
605511212126,4,-3,-10,11,5,18,-2,11
605511212126,1,13,15,15,13,1,-2,1
605511213749,9,-6,-4,-15,-17,-20,19,4
605511213749,0,2,-31,21,-14,-22,-16,-7
605511227128,11,11,12,58,35,51,2,-4
605511227128,-2,-8,-55,8,-12,-44,-10,-1
605511228693,10,-49,-13,-23,-16,-4,-16,-19
605511228693,3,16,-8,13,-40,17,-12,-17
605511240754,18,28,12,-1,-13,-26,-31,3
605511240754,-5,-14,-24,87,13,7,-1,-40
605511249789,-9,28,-1,34,21,-4,4,31
605511249789,-7,-20,-25,19,-8,-30,13,17
605511263974,-1,12,-23,-12,-13,9,-9,-27
605511263974,6,15,-10,-28,12,-6,8,38
605511270806,-1,9,-42,-2,14,65,-27,-4
605511270806,-13,-18,11,3,-22,17,4,8
605511287126,-3,-4,-53,-43,5,-25,-4,8
605511287126,17,8,-25,-24,7,32,0,-9
605511288722,4,39,52,14,14,10,24,-9
605511288722,3,-40,-24,-40,4,27,27,-38
605511300872,-10,-30,16,17,-8,-30,-11,10
605511300872,4,3,-23,-48,-9,-57,-2,51
605511317319,20,-23,-27,-6,-3,-24,-34,7
605511317319,-3,4,30,40,30,30,-28,-22
605511323929,-13,-15,-3,31,-6,35,20,-15
605511323929,1,-27,-31,-11,5,29,-9,-11
605511330736,-8,-10,-43,-16,11,-14,37,-4
605511330736,-1,29,-24,-39,0,-17,-8,25
605511347080,-5,-13,5,20,32,-1,-4,4
605511347080,-26,29,73,35,21,81,0,-1
605511348672,-18,-15,6,-2,-5,-7,8,-6
605511348672,-10,0,17,-7,11,19,4,-9
605511360715,14,6,25,-32,-4,15,-35,25
605511360715,16,-10,36,-12,-5,-36,-11,-10
605511369708,-5,10,21,16,-10,-8,-18,-10
605511369708,3,12,20,0,3,-59,-18,14
605511383907,-1,12,-29,-21,-11,-13,7,2
605511383907,2,2,25,-8,-4,-8,-3,-2
605511390806,-3,14,1,3,5,-4,-9,10
605511390806,6,29,8,1,8,-2,0,3
605511414583,-12,-26,-106,-15,-2,-2,16,9
605511414583,-10,-5,-51,-2,-7,12,-2,-7
605511416192,-3,2,-28,9,0,20,9,0
605511416192,1,-11,-19,-22,4,1,8,12
605511445310,0,12,31,-10,4,14,12,6
605511445310,-4,-2,10,-2,-13,6,-1,5
605511447764,-1,-2,-6,10,3,14,-2,3
605511447764,-2,-10,6,9,6,2,0,-2
605511467111,-15,-2,-9,-10,-3,-38,-14,-2
605511467111,-1,-2,13,1,1,-30,-17,0
605511468723,-5,4,25,-3,1,0,-10,-12
605511468723,-4,-8,4,-9,-2,-23,-20,4
605511488279,4,6,11,12,2,6,18,-1
605511488279,-6,-7,7,-3,-6,8,-1,-5
605511497213,-12,-2,2,-5,0,-12,-3,3
605511497213,-2,0,-8,3,-7,2,-2,-3
605511520077,-8,-15,4,-4,-7,-4,3,-7
605511520077,-2,3,-1,-10,-5,-3,1,2
605511521641,-1,4,-2,-4,3,7,4,-6
605511521641,-2,1,-12,3,-2,-7,5,-2
605511527124,-1,5,16,4,-1,2,-5,1
605511527124,-1,-6,1,-1,-1,4,-3,4
605511528699,-2,0,-7,-2,-3,8,-1,-3
605511528699,1,6,-2,-4,-3,-10,-1,2
605511533935,1,0,12,-3,-4,-2,-9,0
605511533935,-1,2,-1,-3,-1,1,0,0
605511534718,6,-3,-2,1,-1,4,1,-4
605511534718,-1,-2,-2,-2,0,-4,-1,3
605511540697,4,5,9,3,8,13,1,-6
605511540697,-3,1,-11,1,4,2,2,-3
605511549737,-1,2,-1,-7,-4,-10,-5,-4
605511549737,1,-5,1,1,-1,-2,-2,-3
605511564006,-4,-1,2,2,-3,4,-1,-3
605511564006,1,-6,4,-2,-3,-4,-5,2
605511570784,-4,-1,-1,2,-4,-3,0,-1
605511570784,1,-4,-5,1,3,2,-6,-4
605511586458,-2,0,3,3,4,-5,-3,-6
605511586458,-3,6,2,0,-1,1,-2,-1
605511593274,3,-2,-1,0,1,8,0,-2
605511593274,-2,-3,-4,-1,-3,1,6,-2
605511609597,-4,-3,-4,0,-1,1,3,1
605511609597,0,0,1,4,4,4,1,-3
605511611201,0,0,-1,-2,-1,1,0,0
605511611201,-4,1,-8,-3,-1,-5,-3,-1
605511624048,-3,-1,-6,-2,-2,-3,-4,0
605511624048,-3,-5,4,1,0,0,1,-4
605511630749,-3,-3,1,-8,-1,-3,-3,0
605511630749,0,-5,2,-5,-7,-3,0,3
605511646412,-2,-6,-12,-2,-3,3,4,1
605511646412,-2,-6,-45,-7,-6,-10,-3,-1
605511653273,-7,8,-8,-7,-1,0,1,-4
605511653273,-6,2,9,4,-2,1,-5,-1
605511669676,5,11,0,5,1,-2,-6,-4
605511669676,5,-1,4,1,0,3,-1,-2
605511671226,3,-10,0,1,0,-1,-1,3
605511671226,1,-3,-12,-3,-3,3,-1,-1
605511683977,-1,-3,0,-6,0,0,0,-2
605511683977,0,-3,2,-8,-4,-5,-1,1
605511690808,0,-1,-15,3,7,3,3,-9
605511690808,-2,-1,1,-4,0,-1,-2,-4
605511706476,2,-2,-9,2,-4,1,-5,0
605511706476,0,-3,8,1,-1,1,-3,-2
605511713251,0,-1,-19,-1,-3,1,-1,-2
605511713251,6,-5,-13,4,-1,9,-1,-1
605511729574,-3,-2,-1,-2,-1,-6,6,-1
605511729574,-2,1,-13,-5,-4,0,8,5
605511731194,2,5,-7,-4,1,1,0,2
605511731194,-5,-3,-8,2,-4,2,23,-1
605511743997,1,-2,4,1,-2,-15,-8,-1
605511743997,6,2,31,10,9,3,-8,-6
605511750794,-3,3,41,22,2,-18,-13,-3
605511750794,-3,-2,-4,4,-1,-9,-15,-3
605511765716,-2,-2,-6,14,4,13,14,2
605511765716,-3,1,-24,-6,-6,-6,5,4
605511773277,2,1,34,-19,-7,3,14,5
605511773277,-4,-3,-27,-20,-11,-1,4,-1
605511788971,-6,3,-27,7,-4,0,3,3
605511788971,1,-8,0,-5,-5,-7,1,2
605511789717,6,-5,7,-8,-4,-12,-25,5
605511789717,0,12,21,7,4,-3,-26,1
605511804782,2,-4,10,-20,-12,-23,-31,-3
605511804782,-3,3,8,3,-4,-9,0,1
605511810709,-2,1,-14,0,-1,0,-17,2
605511810709,-3,-12,9,-8,9,13,1,-3
605511825705,-7,-5,7,0,10,8,-11,2
605511825705,-2,-5,13,15,6,16,14,-9
605511833203,-4,-14,-15,8,11,3,13,-2
605511833203,4,2,-1,26,-1,-3,6,3
605511848871,5,4,12,4,-2,3,38,9
605511848871,-1,11,-11,-3,-3,6,-33,1
605511849641,6,4,-22,-6,-8,-4,-3,1
605511849641,3,5,-2,7,-10,-3,5,-6
605511864702,4,2,-3,-5,-6,0,-2,-1
605511864702,-1,-4,10,6,-3,-7,15,2
605511870711,-6,1,-5,2,-6,6,7,-8
605511870711,-5,-12,13,-2,6,-17,-25,0
605511885713,1,0,6,-4,10,7,6,-7
605511885713,10,5,-5,-4,-1,2,-1,-4
605511893173,-2,-6,3,0,2,3,-6,-10
605511893173,-17,-56,-10,-24,3,12,27,4
605511908928,4,6,-23,-6,-11,-2,-25,-6
605511908928,-8,1,-4,14,7,13,47,9
605511909645,-9,-16,-13,-3,-5,2,-9,-10
605511909645,-1,11,2,1,4,0,-14,6
605511924761,-6,-3,-10,11,-2,3,-4,8
605511924761,-12,-14,-5,-17,-6,-13,-67,-13
605511930824,-4,3,-6,-2,-8,-8,-15,2
605511930824,5,-1,-3,-4,-8,-1,-5,-3
605511945853,3,3,11,-10,-12,2,-4,-7
605511945853,20,13,-2,2,-7,-4,40,7
605511953302,-3,-1,-3,17,10,2,71,5
605511953302,3,6,-1,-2,-5,0,-10,-12
605511969013,-6,-3,0,4,4,13,-8,-9
605511969013,-11,-7,7,20,-6,-4,-28,-8
605511969785,12,11,14,3,-11,-2,-19,-4
605511969785,-2,3,-2,12,3,2,-17,-4
605511984815,-6,-12,0,-13,-8,-11,10,2
605511984815,-6,-12,-3,-18,-2,-2,5,1
605511990852,1,-6,-8,1,1,-4,12,4
605511990852,3,14,-8,3,7,-8,27,-1
605512005809,-1,-1,-5,-8,-10,-9,-5,-2
605512005809,2,0,4,-3,10,-6,6,4
605512013245,-5,-2,4,-3,2,-5,-8,-2
605512013245,5,-4,3,-17,-4,-6,6,-3
605512028975,-1,-5,6,-3,1,-1,15,2
605512028975,0,0,-5,1,0,-20,-9,-5
605512029723,3,-6,-5,-15,-9,-9,-9,2
605512029723,2,6,-3,4,-2,1,-5,-1
605512044801,3,-3,-2,7,2,6,-6,-4
605512044801,3,4,-7,-2,5,8,-2,-3
605512050847,3,-6,-4,-7,-3,9,-7,-1
605512050847,5,5,-3,1,4,0,5,-4
605512065807,0,3,2,-6,-1,2,-2,1
605512065807,-4,2,-2,-14,-12,0,-10,-14
605512073282,-7,3,5,-5,-4,1,-2,-10
605512073282,-5,-5,-7,1,-3,-4,0,-4
605512104562,0,-2,7,-7,-3,-8,-4,-4
605512104562,-4,0,-1,-11,-6,-1,-14,-3
605512106144,-1,6,-4,-1,3,-1,-11,0
605512106144,1,8,6,-1,-1,-7,-4,0
605512111405,6,-3,5,-14,-4,-5,-11,0
605512111405,1,2,-8,-1,4,1,-9,0
605512112210,-5,-1,-4,4,9,-1,10,-6
605512112210,-2,8,6,5,-3,0,-15,-10
605512125674,-7,3,1,-15,13,-10,0,23
605512125674,-8,-4,-29,-9,6,-8,-10,5
605512133228,-19,-29,24,0,7,29,-12,46
605512133228,-11,9,9,2,-1,1,0,-9
605512149000,16,-1,-16,46,18,22,-17,-12
605512149000,4,-23,-6,19,52,4,39,-10
605512149720,6,-26,-6,5,20,0,32,-28
605512149720,-24,-4,12,8,36,11,16,-13
605512164775,67,61,-15,-90,-18,2,23,-1
605512164775,11,-40,14,-60,-62,-35,2,-8
605512170773,28,-34,-18,-6,19,-17,-17,34
605512170773,82,-47,-67,6,-16,-26,-15,48
605512185778,-29,-29,-27,9,-1,-17,-24,-9
605512185778,20,0,47,7,-24,11,-43,-15
605512193312,-15,6,5,-5,-22,-12,30,-6
605512193312,-15,-14,8,-23,-19,-4,42,0
605512209018,-26,-40,-14,-17,13,-26,-15,55
605512209018,-59,-37,-17,-17,-13,-25,-7,-33
605512209758,-15,55,-26,-2,-5,-24,-23,62
605512209758,-21,-18,-5,-46,-7,17,-26,43
605512224753,-26,-11,-35,1,-3,-7,19,-16
605512224753,-1,17,2,-10,10,1,-16,-17
605512230728,4,37,-13,-24,-8,-7,-13,-38
605512230728,12,31,-2,4,5,-9,-10,-14
605512245802,-15,-20,18,1,-13,1,-3,-22
605512245802,22,19,-98,-7,1,5,6,19
605512253310,13,-17,16,-29,-15,-13,-8,-4
605512253310,-9,5,26,11,1,-4,-1,1
605512268965,-2,-17,-8,7,-3,7,-3,-7
605512268965,17,4,16,29,9,10,17,33
605512269726,-4,-15,9,8,-6,4,-7,-16
605512269726,-4,-26,-1,-10,-4,-1,-12,-15
605512284733,-13,-3,1,-1,1,2,-2,-2
605512284733,-6,-4,6,7,0,2,4,20
605512290797,1,-7,-6,-5,-8,0,-5,-13
605512290797,0,1,12,0,-3,5,-2,-8
605512305769,-39,-8,7,1,-13,-4,-4,-3
605512305769,-7,-3,12,4,3,2,-5,1
605512313273,-1,-5,-9,0,-8,5,-4,-3
605512313273,-6,-8,-28,-3,3,-11,-4,4
605512328888,11,9,8,4,0,2,5,1
605512328888,0,9,13,-2,0,-5,-3,11
605512329670,-1,-8,6,-7,-7,-3,1,11
605512329670,2,7,-6,-8,-3,-7,2,4
605512344719,16,0,-2,6,2,-1,4,6
605512344719,8,3,14,-3,-4,3,-9,4
605512350713,5,-6,-11,10,0,-3,-8,-6
605512350713,-1,-3,-23,-2,6,3,-4,-17
605512365741,20,2,17,8,0,0,-6,-11
605512365741,-5,4,-15,2,-2,-8,3,-4
605512373200,-1,-3,1,-2,0,-4,-4,-15
605512373200,-3,4,11,-2,-4,-7,-4,-10
605512388879,2,-7,-9,-4,-7,-1,10,2
605512388879,-5,-11,-1,-5,-8,-4,7,4
605512389620,-9,-11,8,0,0,-4,-3,4
605512389620,2,-1,5,-2,-1,1,-1,19
605512404689,0,5,-1,3,-3,-9,-4,7
605512404689,-3,-10,6,-4,-3,2,-11,4
605512410704,2,-11,-5,2,11,2,-7,-2
605512410704,-2,-3,-4,-2,0,-3,-5,-3
605512425825,5,2,6,3,3,4,-11,6
605512425825,8,0,0,-2,3,1,5,0
605512433380,1,-4,-4,-12,-3,2,1,-1
605512433380,-6,-8,0,-11,-9,-9,-2,-5
605512449011,4,0,9,6,2,-1,1,-1
605512449011,3,2,-1,6,6,2,2,2
605512449746,5,-15,-8,8,-3,1,0,-6
605512449746,-1,1,-4,4,1,3,-3,-14
605512464810,8,5,1,5,-2,1,7,-1
605512464810,-4,8,-4,-1,-3,-1,0,-5
605512470862,0,15,5,3,0,2,0,-9
605512470862,4,7,6,-4,-2,3,-2,6
605512485763,5,-12,0,-7,-2,-2,1,5
605512485763,1,4,5,-10,-10,-4,11,5
605512493317,8,3,4,0,6,7,-2,7
605512493317,0,-14,10,-2,-5,-1,2,7
605512509018,-4,-7,0,4,5,5,-1,-5
605512509018,-9,-5,-1,-3,1,3,-1,-1
605512509744,-6,3,-5,7,1,2,5,-2
605512509744,-6,-2,-6,5,-2,-4,10,-1
605512531444,-7,1,7,-1,3,-1,3,-11
605512531444,-2,-1,-2,5,3,1,5,-12
605512532235,-6,6,-1,1,0,1,7,-10
605512532235,-4,-5,0,-3,-4,-6,0,-10
605512545796,1,1,-1,8,11,17,24,-9
605512545796,-6,-9,-11,-5,-3,7,12,-9
605512553244,-5,0,-8,0,3,1,1,-10
605512553244,-5,1,-6,-4,-5,-3,-8,-8
605512568327,-3,8,-4,-5,-2,-13,-20,-13
605512568327,0,2,-3,-5,-3,-12,-24,-11
605512575806,1,5,5,9,2,-1,-11,-4
605512575806,-1,7,0,1,7,-3,-7,-4
605512591466,4,2,-1,-3,1,-7,-6,6
605512591466,2,-4,-1,4,4,-2,-2,9
605512592231,7,-2,2,-2,-2,-10,-6,3
605512592231,-1,-2,0,-10,-5,-5,-6,8
605512605817,4,-3,0,-5,-4,-1,-5,6
605512605817,6,8,12,4,3,-1,1,9
605512613335,3,1,7,5,4,3,2,11
605512613335,-1,-5,-6,9,8,7,9,8
605512628277,-4,-2,2,8,4,1,-2,-7
605512628277,0,-4,0,-3,-1,-6,-7,7
605512635802,-7,0,-4,-1,-2,-1,-4,1
605512635802,1,-4,-5,3,0,3,1,4
605512651415,-1,1,-9,-3,-1,-5,1,3
605512651415,-3,-8,-7,-9,-10,-1,-5,-5
605512652207,1,-7,2,-3,-6,-6,12,5
605512652207,-1,0,-1,2,8,3,7,8
605512665824,3,5,-6,-4,-2,-1,4,3
605512665824,-2,2,6,2,0,1,0,-4
605512673322,2,5,-8,-3,0,-4,-5,-8
605512673322,4,9,4,0,-2,2,-1,-5
605512688276,-7,1,2,2,-8,-1,-3,0
605512688276,-4,0,-5,4,5,2,3,-1
605512695802,-1,2,0,-4,-3,0,1,2
605512695802,1,-4,-3,-2,-1,0,3,-8
605512711484,-2,4,1,-2,-4,0,2,-4
605512711484,-3,0,-3,0,-2,2,3,-5
605512712265,1,4,0,-3,0,-3,-4,2
605512712265,1,3,6,0,-2,-3,-3,3
605512725774,-1,-7,2,-8,-2,-2,2,7
605512725774,-8,-5,-3,-2,-6,-6,-6,-3
605512733273,-5,-6,-1,4,-1,1,-3,-1
605512733273,4,1,3,1,-4,-3,-11,-10
605512748246,-1,-9,1,-1,-1,-5,-10,-5
605512748246,-4,-5,4,3,9,0,-9,-9
605512755730,-13,-8,5,-7,-2,1,-6,-4
605512755730,-1,-1,-3,5,3,0,5,2
605512771379,-12,-7,-5,2,-1,2,4,-3
605512771379,-4,1,0,3,0,4,14,6
605512772173,-9,-1,-3,-3,-2,1,7,0
605512772173,-5,1,9,0,-4,-3,9,-2
605512785727,3,5,2,1,2,-3,-2,1
605512785727,3,7,-6,-2,2,-5,-5,0
605512793260,7,6,-3,1,-2,-3,3,0
605512793260,-7,-4,-4,1,-1,-3,3,-2
605512808328,-1,0,-2,0,-1,0,6,5
605512808328,1,0,-1,-5,-4,-5,14,1
605512815886,0,-1,7,0,-7,-7,-6,-4
605512815886,-6,-3,-7,-4,3,-3,-9,2
605512831541,-2,-1,-4,4,0,-2,-2,-3
605512831541,5,-8,-2,1,1,-3,-9,0
605512832340,8,-1,-2,5,0,2,0,-2
605512832340,-2,-1,0,0,3,2,1,-4
605512845804,-1,0,8,2,2,1,-9,-3
605512845804,-1,-3,2,2,-5,-1,-10,-3
605512853303,-2,3,2,-1,0,-3,-3,-7
605512853303,2,-3,-5,-8,-1,-2,-5,-4
605512868351,-1,-2,-4,-5,-5,-5,-1,-1
605512868351,-5,2,1,2,-3,-1,5,3
605512875803,-7,-8,4,-1,-1,-1,0,2
605512875803,-4,-1,-3,-4,-2,-6,3,4
605512891484,-3,0,3,-2,1,3,-2,-2
605512891484,1,4,3,3,1,2,2,0
605512892228,-3,-1,-5,-5,3,-3,-1,-4
605512892228,4,1,-9,-2,-7,-1,-6,-3
605512905793,7,3,4,2,-2,-1,-2,-2
605512905793,6,7,0,-2,-1,-2,-1,1
605512913342,3,0,-2,0,-5,-3,-2,4
605512913342,2,-7,-7,-2,-2,-1,2,-1
605512928422,6,-3,-3,-1,4,1,-4,-1
605512928422,4,-10,-8,-2,-2,2,-5,-5
605512935854,-4,-5,2,3,-1,4,-7,-4
605512935854,1,0,-1,1,0,-2,4,7
605512951421,0,3,1,-4,0,2,9,6
605512951421,-4,-6,-4,-5,-2,-9,-4,0
605512952191,-8,-1,-2,-6,-8,0,-3,-8
605512952191,-9,-2,2,-1,-4,2,-10,-3
605512965797,-10,-3,-3,-1,-7,-2,-20,-11
605512965797,-10,1,-1,-3,0,-2,-9,-6
605512973312,-3,-1,-5,-1,3,-2,-9,-1
605512973312,1,11,-1,6,3,2,1,-2
605512988244,7,1,-7,-3,-7,-4,12,7
605512988244,11,3,2,1,2,-2,3,3
605512995748,5,-1,-3,4,1,6,10,3
605512995748,4,0,3,-7,-3,-2,5,6
605513011406,0,-2,1,-8,-2,0,4,2
605513011406,0,-2,10,-3,-4,-3,2,3
605513012180,-4,-7,17,-1,-2,-4,2,8
605513012180,-6,-8,30,2,1,-4,4,0
605513025738,-10,-7,-6,-1,-1,0,0,3
605513025738,1,0,-23,10,-2,7,5,5
605513033265,9,16,-50,0,1,2,8,-1
605513033265,10,10,-40,5,7,9,-3,-2
605513048265,6,14,-1,-2,4,-8,-1,-3
605513048265,0,4,10,-7,0,-3,11,21
605513055783,-5,-13,6,0,1,-3,7,9
605513055783,-6,-15,-4,5,1,-3,16,18
605513071384,-1,-15,-5,-3,3,1,22,16
605513071384,-10,-11,-10,-7,0,1,14,23
605513072170,6,3,2,-4,0,-6,6,18
605513072170,-1,12,7,0,5,-1,-10,6
605513085777,-4,7,-2,7,5,0,-19,-5
605513085777,-1,4,12,9,12,0,-26,-20
605513093381,2,3,4,-2,1,-4,-28,-22
605513093381,0,0,5,-4,-3,-1,-25,-38
605513108349,-11,-9,8,-3,-2,-4,-29,-39
605513108349,-8,-6,14,0,-2,-5,-37,-41
605513115832,-14,-10,3,-12,-4,-4,-22,-38
605513115832,-5,-8,-15,8,4,-1,-33,-47
605513131472,-2,-3,-2,-2,-5,-1,-31,-46
605513131472,-3,9,-4,4,0,2,-28,-52
605513132274,-8,7,-7,-1,1,-2,-24,-42
605513132274,-9,0,10,0,-5,2,-37,-39
605513145876,-12,-2,2,3,2,2,-17,-38
605513145876,-18,-9,-1,12,-3,-1,-18,-23
605513153319,-12,-9,-6,-9,-7,-4,-18,-10
605513153319,-8,5,0,-10,-3,-7,-62,-12
605513168348,-8,2,2,-25,-15,-12,-15,-1
605513168348,-3,0,0,-11,-10,-5,34,10
605513175863,15,-7,-6,-6,-3,5,84,56
605513175863,13,-4,4,-7,-4,0,87,49
605513191444,12,-2,-9,5,-9,8,67,37
605513191444,16,10,-3,-1,0,-3,49,26
605513192239,10,3,5,0,-6,6,35,23
605513192239,5,0,0,0,-13,-1,34,26
605513207277,9,-1,5,1,-5,-4,6,12
605513207277,6,1,-5,-1,-6,4,-3,14
605513213378,6,-12,6,4,-3,-1,-14,25
605513213378,2,-9,12,-1,0,2,7,24
605513228381,8,-5,-11,1,6,4,14,14
605513228381,16,-4,-17,-19,-13,4,28,34
605513235827,10,2,-7,-10,-11,-8,29,22
605513235827,10,7,-13,-1,6,7,36,25
605513251408,17,7,-9,5,5,8,32,47
605513251408,0,-8,-2,4,5,-3,-4,14
605513252186,-6,-4,2,11,14,-1,-24,-4
605513252186,-9,-9,-20,3,6,-2,-26,-7
605513265829,-11,-5,-8,6,13,-5,-31,-11
605513265829,-8,-2,-6,2,11,-5,-15,-4
605513273249,-7,3,7,7,10,0,-15,-15
605513273249,-6,0,-7,-2,3,-2,-6,-11
605513288345,-3,-5,7,-4,-7,-5,2,3
605513288345,1,6,3,-5,-8,-3,0,5
605513295762,-1,1,1,-3,-7,-2,-7,-3
605513295762,0,-1,19,-11,-13,-6,-5,8
605513311404,1,-9,-10,-1,-6,1,-12,-1
605513311404,-9,-5,3,1,-3,0,-9,0
605513312210,2,12,1,2,-10,0,-10,-6
605513312210,12,7,3,-8,-13,-7,-6,0
605513325828,-1,7,5,-9,-7,-3,-11,1
605513325828,10,17,9,-13,7,5,-8,-10
605513333342,6,7,9,-6,4,-4,-6,-1
605513333342,12,10,6,-3,2,-1,6,1
605513348370,5,5,-3,-3,5,-3,-3,-7
605513348370,8,7,-9,-4,7,3,-4,-8
605513355853,2,-4,1,10,2,5,-1,-13
605513355853,-1,4,-4,12,8,5,0,-7
605513371491,-5,-3,12,14,6,2,-3,0
605513371491,-9,-19,-14,15,10,4,-4,-5
605513372248,-8,-13,-14,5,7,-2,-2,-8
605513372248,-12,-14,-10,1,6,-2,-2,-10
605513385850,-9,-3,-3,-6,-1,-5,-3,-7
605513385850,-4,-7,5,5,-5,-6,-3,-3
605513393288,-1,-2,2,-2,-8,3,-6,-4
605513393288,-4,-3,-6,2,-5,-2,3,-8
605513408365,0,-1,-9,-8,-4,-3,1,-6
605513408365,2,3,7,-3,-4,-4,3,-1
605513415824,0,1,-9,-4,0,-4,-2,-6
605513415824,-1,-5,-3,0,4,-4,-5,-5
605513431498,-2,-3,6,-3,3,-1,3,-1
605513431498,-3,-1,6,0,0,3,9,2
605513432294,-4,-2,2,-6,-1,-5,1,0
605513432294,-4,-5,-6,3,1,4,9,-3
605513445803,-1,-2,0,7,1,-1,-3,-1
605513445803,-3,-7,-6,-2,-9,0,-3,-6
605513453316,-4,3,-3,-3,-3,-5,-1,0
605513453316,-3,-1,-9,0,2,6,5,1
605513468345,-1,5,-8,-7,-5,-8,1,-2
605513468345,2,1,-2,-1,-3,-4,-1,-2
605513475838,-4,2,-2,0,-4,-3,1,3
605513475838,-6,-3,2,-1,-2,-5,-1,0
605513490876,-2,-2,3,-2,-9,-3,-2,0
605513490876,7,2,4,0,1,3,1,0
605513499051,-2,4,4,-7,-3,3,2,2
605513499051,1,6,3,0,1,-2,1,-1
605513513948,1,2,7,4,1,4,4,2
605513513948,-2,-2,-5,2,-5,-7,-4,3
605513514680,-7,-11,-13,0,-4,-3,-6,-1
605513514680,-8,-10,3,-1,2,-7,-5,2
605513528243,-2,-3,2,-1,7,-1,-4,-1
605513528243,-4,3,0,-4,-3,-4,-2,-6
605513535770,0,1,8,-1,0,1,-4,-3
605513535770,1,6,-15,4,1,1,5,0
605513550725,-3,3,-5,0,-4,1,2,7
605513550725,0,-2,3,-6,-4,2,1,-3
605513558913,1,1,-2,1,4,4,6,4
605513558913,-2,-4,4,-1,-1,-1,-6,-1
605513573916,0,-6,-7,0,0,3,3,1
605513573916,-6,-5,3,0,0,0,-3,2
605513574682,6,0,-6,5,1,-1,3,-2
605513574682,3,0,7,0,-2,4,-2,0
605513588263,-2,3,-6,4,10,2,3,-4
605513588263,0,-1,0,-3,-2,-2,-2,2
605513595733,3,3,7,2,1,-6,-3,-3
605513595733,4,2,3,-1,-2,0,-1,0
605513610771,2,-4,4,-2,-7,0,-2,-1
605513610771,-1,2,0,-3,0,2,-3,2
605513618958,-4,-3,0,-1,4,-2,-1,4
605513618958,1,-6,-2,-10,-5,-2,-1,1
605513634033,2,0,5,3,-4,3,-3,-4
605513634033,-4,-3,-6,0,4,-5,1,-2
605513634713,-5,2,-2,4,-2,3,-5,-1
605513634713,-2,-2,-2,-1,0,3,-6,-1
605513648350,0,3,4,-3,1,-2,-1,-3
605513648350,-2,-3,-3,-7,-4,0,2,2
605513655843,3,5,1,2,3,1,-3,-4
605513655843,-1,7,5,-2,0,-5,1,1
605513670801,0,-3,3,5,1,-3,-3,-3
605513670801,-3,1,-7,1,2,-4,1,-2
605513679027,2,-5,-1,-1,3,-1,-3,1
605513679027,-3,4,-3,-6,-4,1,0,-1
605513694025,2,-4,-9,-3,3,-1,-2,1
605513694025,0,-1,-1,1,1,-3,-2,-1
605513694794,1,-1,-3,0,0,4,6,-2
605513694794,1,-4,-2,-4,-6,-8,-2,-4
605513708245,0,-1,-1,-1,1,3,-1,-4
605513708245,-2,-3,2,2,5,3,-3,-4
605513715796,-1,0,-2,-4,-2,1,4,-3
605513715796,-2,-1,0,1,-2,2,1,-4
605513730796,0,5,2,5,0,0,1,1
605513730796,2,-8,-2,-2,-2,-3,1,0
605513739057,-1,1,11,-1,1,0,-5,1
605513739057,3,5,5,0,4,3,1,-1
605513753971,-1,3,0,-5,-2,2,-1,-1
605513753971,3,1,3,3,0,1,1,-1
605513754775,2,-1,2,-1,3,0,0,-1
605513754775,-4,0,0,2,2,0,-2,1
605513768316,-6,1,3,-1,-4,-2,-2,3
605513768316,3,2,1,-5,-4,-1,-3,-4
605513775826,-1,2,-6,-6,-2,-1,0,1
605513775826,-1,-8,-1,-5,-5,-6,-1,5
605513790817,-2,-7,-6,-2,-3,-1,1,-9
605513790817,-4,1,-3,-3,-5,1,-3,-4
605513799003,-1,-4,-6,1,-2,2,-8,-12
605513799003,-3,-1,-5,-4,2,-1,-4,-10
605513813950,1,3,-2,-1,-4,0,-3,-2
605513813950,-1,4,0,6,1,-4,-1,2
605513814704,-1,1,0,-3,0,0,-6,-3
605513814704,1,-7,1,6,-1,2,1,1
605513828283,-3,-3,-8,-4,-1,-1,-3,-2
605513828283,-4,-2,-4,-15,-3,-2,-2,-5
605513835797,-4,-6,0,-3,-8,-5,-2,2
605513835797,-1,-5,-5,-8,-3,-9,-6,-2
605513850761,0,-2,-3,2,4,10,11,-6
605513850761,5,-3,-6,5,6,-5,-3,1
605513858907,-2,-1,-7,2,4,-5,0,-1
605513858907,-2,1,4,4,-3,4,-1,2
605513873956,-2,0,0,2,-3,-5,-3,3
605513873956,-1,-1,3,6,1,2,3,2
605513874768,0,0,2,-3,-1,-3,1,0
605513874768,-6,-4,0,-1,-3,-4,-3,-2
605513888421,-2,-7,-2,-5,1,-4,-1,-2
605513888421,-4,0,0,-1,-1,-1,-2,-2
605513895816,-3,-1,-2,-6,-2,-6,-3,-1
605513895816,1,1,-1,0,0,7,4,1
605513910923,-1,4,-4,-3,0,-6,-2,7
605513910923,-4,-1,2,-2,3,1,1,-1
605513919042,-4,-1,1,4,0,-3,3,1
605513919042,1,1,1,3,3,1,-6,1
605513933999,3,-2,-2,1,2,-4,-1,-3
605513933999,1,1,-4,-1,-4,-7,-4,1
605513934739,-1,-2,-8,-5,-6,2,1,-1
605513934739,-2,0,2,-1,0,0,2,-3
605513948305,3,4,5,-1,6,-2,-3,1
605513948305,-1,-4,-4,2,-1,2,1,0
605513955842,-3,-3,-1,4,2,-2,-1,-1
605513955842,1,1,0,-2,3,0,3,-3
605513970802,-1,2,2,4,-2,0,0,-6
605513970802,-3,0,-1,-2,3,0,-2,-2
605513979057,2,-3,5,1,4,3,1,1
605513979057,-2,2,-6,0,-1,-4,1,-3
605513994096,-1,-2,4,-2,1,1,-2,-1
605513994096,4,-1,-2,-1,-6,0,-3,-1
605513994828,-2,-1,0,2,-4,1,-4,-2
605513994828,-2,-3,0,-4,-3,-3,-2,-3
605514008349,-1,-2,-2,-1,-1,-1,0,1
605514008349,-4,-5,-1,-3,-5,-6,0,-2
605514015833,-2,1,0,0,0,1,-1,3
605514015833,2,3,0,-1,-3,-3,0,-1
605514030819,-3,2,-6,-2,-3,-1,-3,-1
605514030819,0,-1,-5,-7,-6,-3,1,-2
605514039004,0,0,-5,1,3,-1,-2,0
605514039004,2,2,-2,0,0,-3,2,-2
605514054063,-5,-4,-2,-5,1,-6,-6,1
605514054063,1,2,1,-3,-2,3,-3,0
605514054726,-2,-1,0,0,0,-1,-1,-4
605514054726,1,-1,-2,1,1,0,-1,2
605514068328,-3,-3,0,0,-1,-1,0,-2
605514068328,-5,-4,2,-2,0,1,-2,2
605514075900,3,-1,1,-2,-3,0,3,4
605514075900,-5,-2,-4,-5,-6,-5,-2,-3
605514090768,9,-1,0,0,-3,-5,3,1
605514090768,3,2,2,5,3,4,-2,1
605514098960,-3,0,-2,-3,-4,0,-2,3
605514098960,-2,3,1,-2,-1,1,-3,-2
605514113915,0,0,-2,2,-7,3,-5,-3
605514113915,-3,-3,-1,1,5,3,-1,-3
605514114697,-2,2,1,2,-1,-3,-2,-5
605514114697,-1,1,4,0,-3,1,-5,-3
605514128248,2,4,0,-4,2,2,5,1
605514128248,-1,-2,-2,0,-5,-4,-1,-3
605514135751,2,0,-4,-4,-3,-5,0,-2
605514135751,1,-1,2,-2,-1,-2,1,-1
605514150788,-1,-3,0,-3,8,-2,-4,-9
605514150788,-5,-13,-9,-5,-6,-4,-1,-5
605514158957,-1,1,-3,0,1,1,-1,0
605514158957,0,0,-1,5,1,-5,3,-1
605514173932,-1,-1,-5,0,-1,-1,1,3
605514173932,0,5,6,4,7,2,1,6
605514174695,2,-2,1,-2,1,-4,-6,-5
605514174695,3,-5,-6,1,1,0,-2,1
605514188267,-5,-5,-6,-3,-9,2,-5,-2
605514188267,-1,1,-5,-2,2,-2,-1,-1
605514195778,1,-2,-2,1,5,0,1,1
605514195778,0,1,0,0,-4,1,-1,2
605514210735,1,0,0,-2,0,-3,-1,3
605514210735,1,-1,-2,-1,-2,-3,-3,-2
605514218963,1,1,-8,0,-2,-3,-3,2
605514218963,-3,1,-6,0,7,2,-2,2
605514233928,1,-1,-2,3,-1,-5,-4,-3
605514233928,-3,-3,-2,-1,2,-3,1,-1
605514234727,-4,-4,-2,-11,-7,-2,-1,-1
605514234727,-2,-3,-5,-1,-1,2,0,3
605514248206,-4,-2,-2,-5,-9,-3,-3,-1
605514248206,3,-1,0,2,0,4,-2,-2
605514255762,-3,-5,-2,-2,-2,0,0,-5
605514255762,2,-3,3,2,-1,3,-1,-1
605514272308,-4,-3,-2,-11,-5,-4,-4,1
605514272308,-1,0,0,-2,0,2,0,3
605514278990,2,-2,-1,-1,-3,1,3,3
605514278990,-5,-3,0,-1,-4,-3,1,-3
605514294013,0,-5,6,1,4,-5,-1,1
605514294013,-2,3,0,0,0,-1,-2,-5
605514294753,-4,-3,0,-3,-2,2,-3,0
605514294753,-1,-4,-3,-4,3,-1,-3,4
605514308437,3,-2,2,1,4,3,0,1
605514308437,0,4,2,0,-5,2,-2,-1
605514315880,2,-1,5,2,0,2,0,0
605514315880,-3,2,-2,-1,0,5,2,-4
605514330829,-4,2,-1,-1,1,-3,-5,-2
605514330829,0,0,1,0,0,0,-1,2
605514339066,-2,-1,-2,-3,-6,-3,1,-5
605514339066,-2,-4,0,-3,-3,-2,-1,1
605514354056,1,-3,-1,-6,-3,1,1,-3
605514354056,-3,-1,-3,0,-5,1,-2,-3
605514354784,1,0,1,2,0,2,7,0
605514354784,0,1,2,0,3,-2,-2,-6
605514368221,1,1,-2,3,-7,3,1,3
605514368221,0,1,4,2,3,-2,0,1
605514383970,0,2,2,2,4,0,-1,-3
605514383970,0,-2,2,-8,-7,-2,-2,-4
605514390875,-4,-4,-3,2,1,-2,3,-4
605514390875,0,-3,0,-4,-5,-2,2,-1
605514399073,-3,-7,-3,-6,-5,-1,-2,0
605514399073,-3,0,2,-2,-1,-1,-2,0
605514413385,-3,4,0,3,-5,-1,2,-3
605514413385,-2,0,-6,-5,1,3,3,-1
605514421496,-1,-6,-2,2,7,2,1,-2
605514421496,-1,-2,-3,1,2,-4,-2,2
605514428342,-2,1,1,-4,-3,4,-6,-4
605514428342,-4,-8,-4,-2,-8,-5,0,0
605514435840,-1,-1,-1,-1,-3,0,2,6
605514435840,2,-1,-3,-2,-4,2,3,-2
605514450808,0,0,-5,-5,-4,-4,-2,-3
605514450808,3,1,-1,-3,-3,-6,-2,-4
605514459001,0,1,-6,-3,-1,-2,-2,0
605514459001,1,3,-4,2,-2,-1,2,0
605514473315,-2,-3,-3,-5,2,-2,2,-5
605514473315,-1,0,0,3,9,-3,-2,-3
605514489591,1,-2,1,0,0,2,0,2
605514489591,-4,-7,-1,-4,1,-3,0,1
605514491196,-1,-2,0,4,3,0,-3,1
605514491196,1,-5,-3,0,-1,0,-3,-3
605514495792,-4,2,-9,-1,1,-1,-2,-8
605514495792,3,1,1,-2,-2,-2,5,-2
605514510771,2,0,6,-1,-1,0,2,-2
605514510771,-2,-1,5,-7,-5,-5,-15,2
605514518939,1,-2,-1,2,0,-5,-6,1
605514518939,-7,0,1,-3,5,3,-8,-3
605514533261,2,1,-2,3,2,3,-3,2
605514533261,1,2,-5,-1,-6,7,4,-3
605514541459,-3,-3,2,-7,-5,0,-3,-2
605514541459,2,2,1,3,-3,-2,-3,2
605514556515,-2,-5,-9,-4,-1,1,0,1
605514556515,-3,-6,-1,-2,-1,-5,1,1
605514557224,0,-2,-2,2,-3,2,2,-4
605514557224,-1,-1,-7,1,-3,-3,1,0
605514570915,-3,3,2,-6,-7,-4,0,-3
605514570915,-3,-2,-2,5,5,2,-1,-5
605514579025,0,1,1,1,-3,-2,-1,-7
605514579025,-2,-2,-1,-1,-2,-3,-5,-2
605514593326,1,-3,-3,11,2,-3,-3,1
605514593326,0,1,-3,5,-1,3,3,-1
605514601506,-4,-3,0,-3,-4,-7,-5,3
605514601506,-1,-4,-5,2,-1,-2,-9,0
605514616503,2,-4,-8,-5,-5,-6,-3,4
605514616503,1,0,0,-2,-3,0,0,-5
605514617290,-3,0,-3,-8,-3,-4,-5,4
605514617290,4,1,0,4,0,3,5,3
605514630849,0,-2,12,-2,-2,1,4,6
605514630849,-1,-2,11,-7,1,-2,0,7
605514639030,3,-4,4,-1,-1,-4,0,9
605514639030,1,0,7,-6,0,0,-1,4
605514653309,-2,-5,1,-6,-7,1,0,7
605514653309,-5,1,-6,-3,-5,-2,-1,7
605514661633,2,0,0,-1,-3,4,9,11
605514661633,-1,-4,4,2,-1,1,11,12
605514676573,-1,1,-2,-2,-2,-3,7,7
605514676573,-4,0,2,5,-3,1,6,18
605514677258,-1,0,0,-3,-1,4,10,13
605514677258,3,-6,-1,3,3,0,18,34
605514690824,1,-1,-1,0,-4,-1,17,9
605514690824,3,-2,-5,-1,-1,0,3,2
605514699080,4,0,-4,-5,-1,-5,-4,-18
605514699080,-4,-5,-1,-9,-4,-1,-12,-14
605514713324,0,1,-1,-2,3,-4,-6,-6
605514713324,2,-3,3,-1,4,1,2,-5
605514721509,5,-6,0,-2,-5,-3,-10,0
605514721509,1,3,-2,0,-2,1,-15,-11
605514736472,-2,4,0,2,12,0,-10,-13
605514736472,2,3,-2,1,-7,0,-10,-11
605514737222,-5,-1,-5,1,2,0,-14,-17
605514737222,-2,2,-10,3,5,-2,-10,-15
605514750777,3,3,-5,11,6,1,-13,-6
605514750777,0,0,3,-1,-1,3,-12,-17
605514758978,-2,9,7,2,-2,2,-5,-7
605514758978,-6,-6,1,-2,-2,4,-4,-14
605514773308,-7,-6,-1,-3,-1,3,-5,-8
605514773308,-8,-10,-3,1,-1,-2,-11,-3
605514781517,-7,-7,-4,2,2,-3,-8,-11
605514781517,-6,-9,-2,-6,-9,-4,-8,-15
605514796443,-5,1,2,-2,-6,3,-6,-8
605514796443,-6,3,-2,-7,-3,-5,-11,-21
605514797220,-9,-3,1,-2,1,-6,-8,-24
605514797220,-5,1,-3,-7,-4,-5,-11,-17
605514810760,-3,-4,-4,-1,-2,-2,-10,-19
605514810760,-2,-6,-5,-6,-2,-4,-8,-2
605514819089,4,5,-1,9,5,1,-6,-6
605514819089,5,10,0,4,6,-3,-1,-9
605514833325,3,9,5,3,3,-1,-4,-7
605514833325,-1,3,-2,5,1,0,5,-1
605514841592,-2,-3,-5,5,5,0,5,10
605514841592,-4,-9,-4,-7,0,0,9,14
605514856472,-2,-1,0,-1,1,-1,15,13
605514856472,1,-3,-4,-7,-2,-5,14,9
605514857235,0,4,-4,5,3,2,13,9
605514857235,1,2,4,-3,-12,0,8,4
605514870817,1,-6,0,-4,-10,3,4,2
605514870817,2,4,-5,-4,-3,-4,4,2
605514879093,1,1,2,0,-1,3,-4,3
605514879093,-5,-1,0,0,2,-2,-6,-9
605514893353,-1,-2,-2,-4,1,2,-4,2
605514893353,2,1,-1,-1,1,3,-7,-6
605514901578,-2,-6,-1,1,-6,-4,-7,-3
605514901578,-8,-6,-4,2,0,-2,-6,-3
605514917001,-6,1,-1,-8,4,-6,-2,1
605514917001,-7,-4,1,-3,-6,-8,-11,-1
605514917770,-3,-5,-3,-9,-7,-4,-1,0
605514917770,2,-1,2,-2,-2,0,-2,3
605514930859,-2,-3,2,10,7,-1,-4,3
605514930859,-3,-6,3,-2,4,0,5,9
605514938961,-4,-1,2,-10,2,-4,1,-5
605514938961,2,5,7,1,7,0,7,3
605514953335,-4,-6,-1,-2,-10,-2,6,6
605514953335,-2,7,0,0,-6,-3,2,3
605514961563,0,-1,-9,1,-4,1,9,5
605514961563,0,-2,-10,-9,-11,-5,2,3
605514976523,-1,-1,-11,-8,-2,-9,1,-3
605514976523,5,3,-4,0,0,0,1,1
605514977320,0,4,-3,-5,6,5,-5,-2
605514977320,3,8,-4,1,-1,-3,-7,3
605514990837,2,5,-1,-2,1,4,-7,-6
605514990837,3,3,1,2,-1,-6,-8,-2
605514998954,1,-3,1,1,-3,-5,1,3
605514998954,-4,-4,-5,2,-8,0,1,3
605515013308,1,-4,5,6,-3,4,1,-2
605515013308,-6,-1,4,1,1,3,-6,-2
605515021463,1,-2,5,-3,-1,-6,-4,2
605515021463,9,7,3,2,2,-2,5,0
605515036473,1,2,3,-3,-9,-1,-2,-1
605515036473,0,-10,-2,-1,-1,2,6,3
605515037227,2,5,0,5,-1,7,2,1
605515037227,-1,0,-2,3,4,4,-9,-2
605515050818,1,2,2,0,4,0,3,-3
605515050818,-4,-1,-2,0,-2,0,10,0
605515058957,-9,-4,-11,0,-6,-1,3,9
605515058957,-2,-5,-9,-1,1,3,20,21
605515073291,-1,-9,-8,-6,-10,-1,2,6
605515073291,-1,-1,-11,-8,-1,-2,6,-1
605515081450,0,-2,1,2,1,2,-2,-9
605515081450,2,9,3,1,-1,2,-9,-10
605515096430,4,7,-9,2,2,1,-2,-3
605515096430,3,-1,-7,1,3,3,0,-1
605515097222,1,0,-1,3,1,-1,-5,1
605515097222,-1,17,-2,1,1,2,0,-1
605515110764,0,-5,5,4,8,3,-9,-4
605515110764,-2,-2,-3,5,-2,-1,-1,-5
605515118974,-1,-5,3,-7,0,2,6,6
605515118974,-4,-7,6,-4,-3,-6,-1,2
605515133332,-6,-2,-5,0,1,-2,3,-1
605515133332,1,2,6,4,-3,-1,-1,-1
605515141526,1,-6,-6,-1,2,4,-3,-1
605515141526,3,-4,0,1,2,3,-1,-2
605515156443,3,3,-3,0,-5,4,1,1
605515156443,-2,-3,-10,-3,0,11,0,6
605515157225,-4,3,1,1,-3,3,4,-1
605515157225,-7,-7,-2,-7,-3,0,-1,-7
605515170801,0,-3,-4,3,1,-2,7,2
605515170801,-2,3,1,-3,-4,-5,4,-2
605515179033,2,5,7,-3,-3,-2,0,-4
605515179033,-2,-5,17,3,-7,2,-3,-4
605515193287,1,3,7,-6,-1,-4,2,-6
605515193287,28,-1,-1,2,2,2,-4,-3
605515201511,-4,-7,-11,0,3,-2,-1,-2
605515201511,-1,-5,-3,-4,1,-2,1,-4
605515216465,-4,-2,6,-5,-3,-2,-5,6
605515216465,-12,-5,0,-11,-9,-11,-10,1
605515217239,-4,1,2,0,-1,-2,-3,0
605515217239,4,-1,-5,3,5,-3,-5,-2
605515230832,4,2,-3,-7,0,-4,1,-8
605515230832,-1,0,-3,-3,-6,-5,-3,1
605515239038,-4,-3,5,0,2,0,6,7
605515239038,-3,-1,-4,-5,-2,-4,3,4
605515253273,-5,-5,-2,-7,-3,-6,-4,2
605515253273,-7,-5,-1,-8,-2,-2,3,-1
605515261473,2,12,18,2,-1,-4,-1,-3
605515261473,1,-3,0,0,-3,-4,3,1
605515276460,1,-5,-2,2,0,-1,-1,-4
605515276460,0,6,0,6,2,2,-4,-7
605515277205,4,2,-8,0,1,0,-7,-6
605515277205,-1,-5,-11,-1,2,2,-6,-6
605515290808,-5,-2,-3,2,1,5,-6,-2
605515290808,-7,-2,2,-4,1,-1,-3,-3
605515299014,-1,-4,0,-1,-3,-3,4,-3
605515299014,3,1,-7,0,1,0,2,-3
605515313257,0,0,-3,-2,1,-2,0,-2
605515313257,-4,-4,1,0,2,-2,1,1
605515321498,2,-3,-12,-6,-11,-4,-2,2
605515321498,3,-2,5,-2,-2,-5,-2,3
605515336493,2,1,-1,7,-3,-1,-1,5
605515336493,0,-1,3,3,0,3,3,-1
605515337271,0,1,-1,-1,1,-3,-1,4
605515337271,-2,1,2,2,6,-1,0,-1
605515350757,-1,0,2,-6,-1,1,0,-3
605515350757,-1,2,1,2,6,-4,0,2
605515358982,-1,0,-4,-3,-4,1,-1,-6
605515358982,0,-2,-1,4,2,2,1,3
605515373316,0,-3,-4,-3,-3,-1,3,-1
605515373316,-4,4,-1,1,3,1,1,-6
605515381475,-3,-7,-2,-5,-1,-3,0,-1
605515381475,-4,0,2,-1,-6,-12,-24,-16
605515395798,-7,1,-5,-3,-4,-5,-9,-2
605515395798,1,-3,-6,0,-6,0,-2,2
605515403970,2,2,0,0,-2,-3,-3,-2
605515403970,0,0,-1,6,6,5,1,-8
605515410784,0,-5,5,-3,-4,-3,-7,-5
605515410784,-5,-4,0,2,-1,-3,-3,0
605515419013,0,1,3,-1,-2,0,-5,1
605515419013,3,1,0,-4,-1,8,2,7
605515433323,5,1,1,-5,-7,-5,0,4
605515433323,5,-6,-3,-2,1,3,21,20
605515441506,-5,-5,-5,-2,-2,0,-1,-2
605515441506,-1,3,5,-3,-7,-4,-6,-6
605515455835,1,-2,-5,0,-4,2,-2,-4
605515455835,-5,4,3,0,4,2,-5,-10
605515470832,-1,-6,-4,-1,1,2,3,2
605515470832,-1,-4,-5,-1,-2,1,1,-5
605515478287,-4,-6,-1,-3,-2,-1,-7,-13
605515478287,-3,3,1,-2,-3,-5,-22,-21
605515487304,-11,-5,-3,-5,-4,-3,-7,-7
605515487304,-2,-2,-8,-6,-2,-6,7,10
605515493316,-1,4,0,1,3,-1,17,9
605515493316,-2,-2,-2,-3,-7,-5,-5,-2
605515502306,-5,4,8,-2,-6,-4,-7,6
605515502306,-3,4,5,4,-5,5,-9,5
605515515830,0,-1,-3,6,2,0,1,9
605515515830,5,-4,0,-4,-2,0,4,8
605515524782,3,3,1,7,5,-3,-2,2
605515524782,-4,-3,-2,-7,0,-4,0,-3
605515538335,2,-2,2,0,-5,-3,-1,-4
605515538335,-6,-1,-9,1,0,1,-8,-6
605515547275,-2,-3,-4,-1,1,-2,-3,-8
605515547275,-2,-2,2,0,0,1,3,-3
605515553289,-2,3,3,-3,-7,-2,8,8
605515553289,5,-1,2,3,-2,4,0,0
605515562279,0,4,-4,0,1,2,-2,-6
605515562279,-5,-3,-6,-7,-1,-4,-5,-6
605515575852,-5,5,-5,4,1,-2,-11,-6
605515575852,-5,-8,-1,-3,1,-2,20,19
605515584788,3,2,-5,-2,-6,-15,-2,-4
605515584788,4,-3,-1,2,-1,3,-3,-7
605515598323,-2,-2,7,1,5,3,0,-4
605515598323,-4,-2,10,0,2,-2,2,2
605515607253,-6,1,18,2,1,5,5,4
605515607253,-5,-3,27,4,1,1,7,0
605515613303,-4,-7,-4,-21,-1,-2,-5,-4
605515613303,0,-4,-20,-4,5,-3,-7,-12
605515622282,42,-2,-15,2,9,1,6,29
605515622282,23,2,-35,5,11,-7,4,24
605515635822,-7,4,-20,1,-2,6,3,-10
605515635822,-5,6,5,-1,-2,-1,2,-6
605515644765,-7,-1,3,-6,-5,0,-3,-9
605515644765,-5,0,5,-3,4,3,2,7
605515658267,-4,-13,-1,-2,4,-1,2,-5
605515658267,-5,0,-2,-8,-3,-1,-4,-7
605515667308,-17,-13,-6,-11,-6,2,9,-10
605515667308,-13,-2,-16,1,-7,0,0,-8
605515673304,-7,-23,-3,4,-4,1,-11,-9
605515673304,-3,1,8,2,-9,-4,-3,-12
605515682266,-1,0,20,13,-4,-8,-9,-13
605515682266,-1,2,3,-36,-12,-2,-1,-13
605515695806,7,13,2,-10,-6,-4,-7,-9
605515695806,2,-3,11,4,1,-16,-7,13
605515704880,-1,-12,29,-1,3,4,12,16
605515704880,10,7,32,-20,0,-4,3,16
605515718286,10,13,17,33,14,8,3,47
605515718286,-2,-6,12,-1,-3,1,-2,0
605515727305,-3,17,-16,-20,0,5,14,4
605515727305,-4,-12,-48,-2,3,-3,-8,1
605515733313,-2,3,8,35,-2,2,17,-5
605515733313,-1,12,-14,16,-9,-8,-6,-8
605515742267,-3,5,6,44,-2,0,-5,-13
605515742267,6,2,43,34,-10,-2,3,-14
605515755796,1,7,18,-17,-6,-4,3,2
605515755796,8,4,28,-16,1,7,9,5
605515764927,-1,-2,0,-12,-7,-4,5,0
605515764927,1,-4,6,4,-1,-4,5,4
605515778276,-3,-11,-1,3,5,-3,-7,-1
605515778276,-4,-6,-6,-8,12,7,-10,-1
605515787306,-9,-4,-12,-3,2,-7,-19,-1
605515787306,-17,-5,-10,0,-3,2,-6,-6
605515793283,-2,-1,-19,-17,-5,-6,-4,-9
605515793283,-6,-10,-42,-17,-7,-2,-1,-2
605515802297,1,-2,-27,-9,2,2,-6,-7
605515802297,0,7,-7,4,3,8,13,-3
605515815812,0,-6,-23,-7,-2,-5,1,0
605515815812,5,1,-4,16,-3,1,2,-2
605515824905,1,-5,2,12,4,3,4,1
605515824905,-1,6,0,4,-1,-4,-6,4
605515838327,3,0,0,-5,-6,-4,-8,0
605515838327,4,0,3,4,-2,0,-1,3
605515847310,6,4,1,-9,5,5,4,5
605515847310,-2,-4,17,-12,-4,-4,0,-3
605515853296,-6,-2,20,-18,-4,1,-2,1
605515853296,0,-3,20,-17,-2,-4,12,2
605515862332,-7,-10,-13,-5,-9,-9,2,-2
605515862332,-2,-1,-19,3,2,-8,-4,-5
605515875809,-5,0,-3,12,-1,-3,10,7
605515875809,1,-2,-4,13,8,3,-4,-8
605515884871,-10,-6,19,15,2,-2,-15,-10
605515884871,-5,-31,0,28,-4,-2,-15,-7
605515898303,-3,20,-6,15,-5,-4,-10,-14
605515898303,-5,13,-7,8,2,0,-14,-1
605515907280,10,11,-7,-12,0,6,2,6
605515907280,8,6,2,-23,-4,-4,0,-1
605515913310,7,-6,14,-18,0,0,5,-2
605515913310,4,-1,5,-19,-9,-7,7,2
605515922345,-3,-8,23,-1,-1,0,4,2
605515922345,-7,-8,24,0,-10,2,0,5
605515935817,-12,-14,-11,-8,-4,4,-6,1
605515935817,-10,-4,-9,-8,-9,-4,-18,-12
605515944778,-5,2,-10,-1,1,3,-2,-7
605515944778,-2,5,-32,5,-1,11,2,-1
605515959649,5,-1,-21,4,4,1,-9,4
605515959649,1,-10,-5,5,3,1,0,2
605515961281,0,5,-6,2,7,1,-5,-2
605515961281,1,21,1,7,7,6,4,-3
605515973324,-2,-24,-1,4,5,2,7,-1
605515973324,1,-11,-9,2,-4,4,8,-4
605515982269,-1,-14,0,-3,-8,-6,-3,-3
605515982269,1,4,10,-4,-7,-3,1,-2
605515995817,3,6,15,7,1,-3,-3,-2
605515995817,2,3,9,-5,-5,-7,-8,-1
605516004760,4,6,0,-7,-3,-9,-9,-5
605516004760,-3,-3,4,-13,2,-7,-6,-3
605516018748,0,1,3,-6,-3,-3,-2,2
605516018748,-2,-2,9,-1,2,1,3,2
605516027315,-7,2,-3,6,4,5,3,-1
605516027315,3,-2,-5,-7,0,-3,-8,-16
605516033325,10,17,6,-5,-7,0,0,-2
605516033325,3,1,10,-11,-1,0,-3,1
605516042278,2,7,9,-5,1,-1,3,5
605516042278,-2,-4,0,-12,-3,-4,5,8
605516055828,-6,-20,-12,-1,1,-3,4,5
605516055828,-2,-1,-18,3,-3,-1,4,10
605516064898,-7,-16,-15,-2,-4,-1,-2,-1
605516064898,3,-8,1,2,2,-1,-4,-2
605516078325,-10,-6,12,5,-2,1,-5,-6
605516078325,-11,-8,11,11,-2,-4,1,-7
605516087340,-6,-1,3,10,-5,-1,-4,-7
605516087340,-13,-12,-5,4,-3,-1,20,8
605516093341,-1,16,0,1,-6,-2,-8,-13
605516093341,-2,0,-17,-1,-5,-1,-6,-9
605516102359,3,3,-1,-3,-1,-2,-6,-4
605516102359,6,12,-10,-2,2,6,-1,-5
605516115834,1,2,-14,-1,7,3,0,-3
605516115834,1,-2,1,1,4,0,4,-2
605516124899,12,2,7,-1,1,2,-2,-3
605516124899,-1,0,5,1,4,-3,7,3
605516161530,1,-1,-2,-3,-2,0,-4,-1
605516161530,8,8,0,-1,-2,0,-4,0
605516169888,5,10,2,-12,-7,-1,4,2
605516169888,34,44,3,14,-2,3,9,8
605516184718,1,-3,8,-5,-5,-7,-11,2
605516184718,-4,4,8,10,-3,-4,9,8
605516186291,-11,-17,7,4,-8,-5,-8,0
605516186291,-8,-21,3,11,0,0,-1,0
605516199034,-8,-1,-2,-2,-7,-1,3,5
605516199034,-3,-18,-10,-5,-8,1,8,2
605516205831,-4,0,-15,-21,-6,-6,-2,-5
605516205831,-13,-7,-7,-15,-9,-28,-9,-9
605516213283,-11,-10,2,-6,-6,-10,2,4
605516213283,-6,2,-16,-34,-15,-7,-5,-4
605516221528,-9,6,0,-4,-9,-15,2,-6
605516221528,-13,-14,14,-3,-8,-3,-25,-5
605516236484,9,0,-32,-5,-9,1,-10,-6
605516236484,8,-7,28,29,6,5,1,-12
605516237225,11,1,-63,-30,-1,11,27,13
605516237225,2,6,43,14,1,40,47,-13
605516244680,6,3,-42,-16,0,0,3,13
605516244680,-11,-28,33,-14,-4,-12,-40,-8
605516246281,-1,22,15,73,4,-10,-9,9
605516246281,-24,-48,-46,-49,-7,-8,-33,-24
605516258393,-25,-34,61,54,-3,-13,-35,-16
605516258393,-10,10,-63,-9,0,12,-13,0
605516267330,-9,-20,22,-39,4,3,-10,-19
605516267330,2,11,41,59,-6,-20,-27,16
605516273307,11,18,-30,-39,-8,13,11,-6
605516273307,17,16,5,-35,4,-8,16,-10
605516282339,8,6,-7,36,2,3,1,20
605516282339,13,10,4,-16,-5,6,27,6
605516295803,6,6,-41,-54,4,4,28,11
605516295803,-1,-4,37,39,-3,-7,12,8
605516304786,-1,-8,-17,-13,-8,0,-12,11
605516304786,-9,-11,8,-12,4,-1,21,-15
605516319004,-12,-16,18,37,3,5,-1,4
605516319004,-11,-7,-24,-18,3,11,23,-3
605516325794,-4,-10,40,19,4,2,-13,-11
605516325794,-5,-1,-37,7,-1,1,-9,2
605516333304,-4,-15,19,11,9,1,54,-17
605516333304,-1,0,-6,15,-1,-6,-31,-1
605516342292,0,-8,7,-19,-2,0,13,-10
605516342292,7,19,-1,-3,-3,20,-31,0
605516355858,18,8,-10,-39,-10,-7,-67,0
605516355858,0,-3,11,-21,1,-8,-14,-2
605516364811,3,10,-1,5,4,-11,-35,-5
605516364811,7,-5,-18,-30,-2,-15,-34,-4
605516379051,3,2,4,9,-1,2,9,0
605516379051,-1,14,-23,0,-2,13,20,7
605516385856,-1,25,3,-11,1,10,20,0
605516385856,-31,2,2,29,7,-2,28,12
605516402144,-2,-3,22,-2,2,0,9,-13
605516402144,-8,-21,3,7,-2,-2,18,2
605516403770,-16,-28,7,1,-9,-3,9,-4
605516403770,-14,-18,3,15,4,3,18,5
605516415845,-9,-16,-1,23,2,-3,16,2
605516415845,3,10,5,-1,1,-3,1,1
605516424902,6,9,-1,12,11,13,13,-1
605516424902,12,9,-14,-9,6,1,-1,-4
605516439009,15,21,0,3,-1,0,-21,9
605516439009,20,12,4,15,-1,-3,-24,-1
605516445832,1,-5,-9,4,-2,-5,-19,-10
605516445832,-17,-27,-7,-4,-7,-3,43,16
605516462170,2,4,-5,-15,-5,-6,8,-11
605516462170,5,-3,6,-22,-9,-5,-30,3
605516463838,17,3,-13,-17,-3,-10,-17,4
605516463838,17,59,5,8,-2,-15,-37,-5
605516475856,-23,-25,12,21,-4,-3,8,3
605516475856,0,25,10,-4,-1,1,26,7
605516484782,-3,-56,12,-5,-3,-2,13,3
605516484782,-11,-14,-3,11,4,1,21,9
605516499008,-31,-46,-3,8,1,2,-11,-4
605516499008,-28,-26,5,18,0,-1,-20,-7
605516505800,-14,-24,2,-10,-12,-8,-33,-14
605516505800,-2,-7,16,-6,-6,-6,-29,-11
605516522152,15,25,6,-5,-3,-3,-21,-7
605516522152,6,3,-19,-13,-1,1,-8,0
605516523749,6,26,-11,-12,3,1,12,1
605516523749,10,0,-9,-10,1,-4,-4,-6
605516535823,1,3,3,-4,3,1,-2,0
605516535823,-4,-15,10,6,4,0,17,-4
605516544894,5,0,-7,-16,1,2,38,3
605516544894,18,22,-18,-15,3,8,6,3
605516559062,-2,-8,-6,-28,3,4,24,11
605516559062,-13,-15,-7,0,1,1,33,-1
605516565799,-29,4,18,16,-4,2,-2,-4
605516565799,-24,-35,11,6,0,-2,-12,-9
605516582215,-11,-14,-2,12,0,-2,-13,-9
605516582215,-4,-18,3,6,-1,3,-10,-5
605516583794,-5,-9,-3,7,-1,2,-5,-9
605516583794,3,-9,-4,7,4,0,-13,1
605516595788,9,7,7,5,1,0,-26,-3
605516595788,13,8,-16,4,1,-8,-17,-9
605516604874,5,8,-13,-12,2,-4,-15,-5
605516604874,15,-5,1,-7,-1,4,2,-3
605516619059,15,18,-3,-1,-2,-5,15,2
605516619059,6,11,-8,-12,-3,-2,14,5
605516625815,8,7,15,8,2,1,2,6
605516625815,13,-1,7,-6,-7,1,-2,1
605516642182,-1,9,3,-6,-10,-1,3,3
605516642182,3,-11,-6,3,-1,5,1,0
605516643794,-4,5,1,-14,-6,-4,6,2
605516643794,-5,-2,-2,-8,1,5,28,6
605516670874,5,2,-6,-12,2,1,18,7
605516670874,1,2,-4,-2,0,-2,6,6
605516679890,-2,-13,-8,-7,-5,0,-4,5
605516679890,-1,-6,-10,-5,-4,-5,-8,-2
605516702951,-6,-6,-4,-2,-4,5,4,3
605516702951,-8,-8,0,0,0,-4,-6,-9
605516705303,-1,-11,-1,5,-1,-1,-5,-7
605516705303,-4,-13,0,8,-3,-3,-7,-10
605516723288,-3,-2,0,17,5,2,1,-6
605516723288,-14,3,0,0,-3,-2,-8,-8
605516732333,-5,-9,10,1,-2,-4,-1,-3
605516732333,-5,17,-2,9,5,-1,0,-3
605516738981,-8,6,2,-11,-5,-19,-4,-4
605516738981,1,16,4,-3,-1,-7,-3,-4
605516739754,1,0,-10,-2,-3,3,4,-2
605516739754,4,-1,3,0,3,-1,2,2
605516747206,8,2,1,-6,-6,-3,1,-2
605516747206,3,4,-2,-3,-4,4,11,4
605516748777,4,7,0,3,0,-3,7,4
605516748777,3,-2,-1,-11,-5,-2,0,-3
605516762227,2,5,-9,-2,4,5,6,2
605516762227,6,7,3,-6,-3,5,9,3
605516763809,3,9,-4,0,1,4,4,7
605516763809,-5,6,2,-2,-7,-4,-5,0
605516775924,-7,-2,1,2,-5,-2,-9,-1
605516775924,-6,-11,2,3,1,0,-2,2
605516784904,-10,-5,0,-6,-4,-5,-10,-3
605516784904,-9,-1,0,4,1,-1,-6,-1
605516799043,-11,-10,-8,2,-2,-3,-4,-3
605516799043,-5,-9,4,-2,-2,5,-9,-7
605516805815,0,6,1,7,0,3,-1,-4
605516805815,-2,-13,2,-4,-4,-2,-4,-4
605516822175,-4,-3,-7,-7,-4,-1,-7,-7
605516822175,-3,-3,3,5,-4,-4,-1,0
605516823765,0,0,4,-3,-4,-5,-3,-4
605516823765,-3,11,-1,-8,-2,3,-2,-2
605516835855,2,-11,3,-8,-1,0,-4,-4
605516835855,3,5,-6,4,-4,-1,-3,-1
605516844789,0,-12,-6,-3,1,1,3,3
605516844789,2,-1,-1,3,0,-2,2,1
605516859045,5,3,-1,-1,-3,0,2,0
605516859045,-3,3,-6,2,-1,-4,-1,-3
605516865850,0,7,-1,-5,-7,-2,-3,-1
605516865850,6,1,-2,-4,-4,-6,2,2
605516882181,2,3,-2,-4,1,-4,1,-1
605516882181,2,-1,1,0,-4,1,-2,-3
605516883811,1,-3,-4,-5,-6,-6,-2,-8
605516883811,-1,3,1,-2,0,0,-1,5
605516895828,-5,0,-2,-5,-2,-1,-1,-2
605516895828,-1,-6,1,-12,0,-5,4,2
605516904872,-1,-1,1,0,-1,-2,-2,-1
605516904872,-5,-4,-2,-4,-1,-2,-6,0
605516919040,-2,0,-5,-1,-1,0,0,-2
605516919040,0,-8,-8,-9,-1,-3,-4,-4
605516925823,-3,1,2,-2,0,-1,3,-4
605516925823,-12,-26,-2,1,-4,0,2,3
605516942200,-3,2,7,-2,-4,-5,-1,-1
605516942200,0,0,-2,2,3,0,-8,0
605516943807,-1,6,4,-3,2,1,1,-6
605516943807,-2,-3,0,-3,-2,-2,-1,-5
605516955964,0,-1,1,-3,-3,1,-1,-4
605516955964,1,-3,2,9,6,5,7,4
605516964820,-2,0,-2,-4,-1,3,3,-2
605516964820,1,6,-4,-4,-2,-5,-3,-2
605516978965,-1,-1,-4,1,-2,-3,-2,-1
605516978965,-3,1,-9,-3,-1,1,-4,2
605516985869,-1,4,43,-1,1,0,-3,1
605516985869,1,9,19,2,-2,-2,0,0
605517002195,7,7,15,-2,-4,-5,-5,5
605517002195,10,-1,18,-9,-2,-1,0,-3
605517003880,-4,-2,-19,1,-7,-2,-2,5
605517003880,2,5,-10,-6,1,-1,-5,-7
605517015821,1,-6,3,-6,1,-2,0,3
605517015821,-8,-1,-11,-6,-7,-3,-5,-3
605517024920,0,-4,-6,3,-1,0,-1,-4
605517024920,-3,-2,5,1,-1,-2,-3,-3
605517039057,-3,-3,-6,2,-5,4,-5,-3
605517039057,-7,-2,-14,0,0,-4,-2,-9
605517045830,-6,-5,-15,-3,1,-2,-1,6
605517045830,-1,1,-8,-5,-7,0,0,-1
605517062202,-4,2,-13,-1,3,0,6,-7
605517062202,0,-6,-7,-3,-1,5,8,6
605517063792,3,3,8,-4,-2,0,-1,2
605517063792,3,0,-21,0,-7,3,-1,0
605517075871,-1,0,-10,-3,-4,4,2,-4
605517075871,-2,3,-3,-3,-3,-3,-3,-8
605517084826,3,2,-12,-3,-1,2,2,5
605517084826,2,-3,6,-1,1,-6,5,6
605517099015,6,4,4,-10,-2,-6,-8,-34
605517099015,5,-5,-3,3,2,-1,3,19
605517105925,1,-3,9,3,3,0,8,6
605517105925,-2,11,10,-13,-6,2,-5,1
605517122234,-10,-19,3,2,7,3,-9,5
605517122234,-3,-8,-9,1,-4,-10,-18,-4
605517123872,2,-10,-8,5,-2,1,1,-10
605517123872,8,0,-15,6,6,5,1,-5
605517135840,2,-4,-12,5,5,-8,9,11
605517135840,-4,-9,-3,-11,-4,0,-2,-13
605517144870,-1,0,-13,1,-2,2,-31,-22
605517144870,-2,2,49,2,-3,-7,-11,-19
605517159054,3,8,26,2,5,1,-8,5
605517159054,-6,-3,13,-2,-1,-3,2,8
605517165834,-2,12,-13,5,3,-1,3,1
605517165834,-2,-12,-22,-6,4,6,-5,11
605517182208,-9,-7,6,9,-3,2,6,19
605517182208,-1,6,15,7,-4,2,20,16
605517183781,3,-6,-24,22,-5,3,28,26
605517183781,-12,-7,-19,-30,3,3,19,12
605517195917,-10,-1,-20,-21,-4,1,1,-2
605517195917,6,7,-25,-13,2,0,-22,-18
605517204971,-3,3,14,-10,2,-2,-11,-25
605517204971,13,12,2,3,2,1,-4,-24
605517219033,-10,-6,-26,5,2,3,0,-3
605517219033,-6,-11,-3,4,6,-4,10,-13
605517225947,-13,-8,-14,3,3,-2,-4,-8
605517225947,-4,-5,10,4,-6,0,-6,-10
605517242174,2,4,16,-4,-3,9,4,-15
605517242174,0,1,12,5,-1,1,-4,3
605517243754,1,-4,19,-18,-5,-5,-4,13
605517243754,-7,-4,-10,5,-5,-5,-1,17
605517255864,9,-7,-2,7,8,2,2,39
605517255864,-28,-1,12,4,2,11,-8,-49
605517264925,2,0,14,-15,-5,-5,-16,-29
605517264925,0,-2,7,-3,6,2,-10,-8
605517279053,19,8,8,-2,-11,-7,8,8
605517279053,7,-1,-11,-3,-10,-10,0,34
605517285838,-3,3,-9,1,4,2,-3,1
605517285838,-1,5,-10,0,-4,3,-2,5
605517301563,5,14,-4,3,-1,-3,1,-13
605517301563,13,9,-4,-3,-3,7,11,11
605517308284,1,-1,3,-9,-8,-5,-8,-13
605517308284,3,-3,6,6,-10,-3,4,12
605517324670,-3,-4,4,-7,-4,-5,-3,5
605517324670,-3,-3,0,-1,-3,-1,-2,2
605517326278,-8,13,8,2,1,0,0,-5
605517326278,2,-5,-2,-5,0,-4,5,6
605517339043,-3,-6,-12,3,3,-1,-3,-8
605517339043,6,-6,2,4,-3,-5,12,19
605517345906,9,-3,-4,3,-5,0,19,27
605517345906,33,-3,-14,13,14,17,27,0
605517361620,-15,-13,-4,2,-1,5,31,-14
605517361620,3,10,20,-2,-3,-6,13,-4
605517368421,-21,-4,-14,2,1,-1,11,-28
605517368421,-9,2,-4,-2,-1,-4,6,-2
605517384769,-1,-4,-5,6,-6,1,-12,-10
605517384769,-4,-3,-4,0,4,-5,-23,-5
605517386425,2,-10,1,-8,4,-8,-26,19
605517386425,-3,-5,-3,5,-2,-10,-36,-2
605517399078,4,-3,-4,-5,-6,-6,-25,11
605517399078,-5,-3,3,-10,-8,-7,-19,4
605517405903,-1,-7,-1,-4,-1,-1,1,11
605517405903,-12,-8,10,-3,-4,-6,0,-3
605517421630,-3,0,9,-2,3,3,0,-4
605517421630,1,-8,-9,-2,-3,1,-6,-7
605517428395,2,-2,-4,2,6,6,-3,4
605517428395,-7,0,-6,-5,0,1,-5,-6
605517444744,0,0,-7,-3,5,2,-7,-4
605517444744,-7,-2,-12,-4,0,4,0,-13
605517446409,6,-1,-9,-6,-3,3,5,1
605517446409,-8,-14,-10,-11,1,-4,5,-8
605517459076,-3,1,2,1,-1,-2,-1,-4
605517459076,3,0,-3,4,3,3,1,-4
605517465903,0,3,31,4,-2,-1,8,0
605517465903,-5,-1,-43,3,-1,-1,4,-7
605517481615,-1,4,-26,2,0,-1,-10,-9
605517481615,2,-2,-12,-9,0,-5,-4,-1
605517488456,-2,-5,9,-4,-1,-8,-7,-2
605517488456,0,2,9,-6,-4,-3,-4,-3
605517504726,-2,6,1,-6,-2,-6,1,-7
605517504726,-3,-2,-9,3,3,-3,-1,0
605517506377,0,-2,-26,-1,5,-2,0,1
605517506377,-1,3,-10,3,1,3,0,4
605517519111,-2,-1,4,1,-1,-1,-3,-1
605517519111,-4,1,19,4,0,5,2,2
605517525910,3,1,16,-3,-6,1,3,5
605517525910,-7,-1,14,-5,-9,-4,-4,-1
605517541608,-3,-4,8,-2,-6,-5,-2,2
605517541608,0,1,5,3,-2,2,-2,-3
605517548405,0,-1,3,1,-2,-1,3,3
605517548405,-5,2,6,1,0,4,-2,5
605517564738,-1,1,4,-3,-2,-4,1,3
605517564738,5,5,-1,4,1,2,-3,3
605517566392,1,2,-17,-3,-5,-1,-1,-1
605517566392,0,6,1,0,0,-1,-3,-1
605517579075,-2,-1,-6,-4,-3,2,-1,-1
605517579075,1,-7,-3,-2,-4,-6,-4,0
605517585899,-3,-5,-9,1,-3,-6,-4,-3
605517585899,-1,1,2,7,-2,-6,2,3
605517601505,1,-1,4,3,1,1,-1,3
605517601505,2,2,-5,3,0,0,2,-1
605517608358,0,-2,-14,0,-1,4,2,-6
605517608358,-2,-3,-5,-1,-3,-5,0,3
605517624756,-2,-2,-7,-1,-5,-4,-5,0
605517624756,-3,-4,-3,-1,-2,-11,-2,-6
605517626332,3,-2,-1,-1,4,-4,0,2
605517626332,-1,-6,-11,-8,2,-1,-3,-4
605517639061,2,-4,3,-6,-7,3,2,-6
605517639061,-3,2,-8,-4,-2,1,-1,-1
605517646053,-1,3,-4,1,0,-2,0,1
605517646053,-1,0,10,-1,-3,4,6,-3
605517661619,-2,0,-1,-3,-2,1,0,2
605517661619,0,-3,2,-1,2,4,2,-3
605517668365,-5,-4,-1,-1,0,-2,-3,0
605517668365,0,0,4,-6,-5,-1,-7,-2
605517684769,-3,2,5,-1,-2,-6,-1,-3
605517684769,-3,0,7,-1,0,3,7,1
605517686384,-4,-2,-3,-3,-2,2,2,-2
605517686384,5,0,-8,3,-4,-4,-2,2
605517699179,-5,-2,-6,-1,-1,-5,-1,-2
605517699179,-1,3,4,-5,-7,-5,-7,-1
605517705908,-2,-2,5,-6,-5,-1,-4,-1
605517705908,1,0,10,1,1,2,-1,-1
605517721625,0,-4,-1,-7,-3,1,-2,-1
605517721625,-3,-3,-5,0,2,-2,-2,5
605517728375,-2,3,-6,0,2,-2,-10,-2
605517728375,-3,-4,-6,13,10,-1,-52,-2
605517744712,-1,-5,-1,-3,-6,1,29,4
605517744712,4,1,-5,-6,-2,1,14,1
605517746360,1,1,-4,-6,-8,3,17,-1
605517746360,2,-1,3,0,1,-1,9,-6
605517758434,3,-1,-1,2,1,0,-11,0
605517758434,2,1,3,-2,1,-1,2,2
605517767438,1,2,1,-2,-4,-3,-4,-1
605517767438,-5,1,-3,-8,-2,0,6,-2
605517781647,0,1,-4,2,3,-2,-10,0
605517781647,-3,3,1,-4,-1,-1,1,-6
605517788414,0,0,4,4,2,1,-10,3
605517788414,-4,-2,2,-3,-5,-3,4,2
605517805188,-4,-2,-4,-4,-1,-3,1,-3
605517805188,-2,-2,-7,1,-2,-4,-9,2
605517810930,-2,-1,0,0,1,-2,0,4
605517810930,-2,3,-1,-7,-5,2,1,-2
605517818423,5,4,5,0,0,0,-5,2
605517818423,-1,-3,2,3,-1,5,-2,1
605517827446,0,3,-1,0,0,-2,2,0
605517827446,-4,-3,0,-6,-3,-3,7,1
605517841615,3,0,0,0,-1,2,-7,0
605517841615,2,-1,-2,-2,-1,0,-4,0
605517848391,2,0,-2,0,-3,-2,-1,-2
605517848391,1,-2,-5,-3,-6,-1,5,4
605517864768,-2,-3,0,5,9,2,-8,0
605517864768,-3,-1,-4,-2,0,-1,-3,-3
605517866369,-1,2,-1,-2,-4,1,-5,-3
605517866369,10,3,0,0,1,0,4,-3
605517878439,0,-2,1,-3,1,3,-4,-1
605517878439,-4,-2,-3,-5,-4,-4,4,1
605517887414,-2,0,0,-1,-4,2,-1,-3
605517887414,1,0,-5,-3,0,0,0,0
605517901611,0,0,0,-4,-3,-3,2,-3
605517901611,-3,-8,-2,-5,-5,-1,-6,-3
605517908408,0,-3,-3,0,0,-3,1,-3
605517908408,-4,0,-6,1,-3,0,2,-2
605517924743,-6,-2,-8,-1,-6,-1,-2,-1
605517924743,0,1,1,-1,-1,-3,-2,-2
605517926358,-1,-6,-3,-1,3,-3,-6,-3
605517926358,-4,-4,2,-4,-4,-4,0,-1
605517938415,-3,0,1,0,0,-2,-1,0
605517938415,-1,-3,3,1,0,0,-7,-2
605517947309,-6,-6,-3,-2,-1,3,-3,-1
605517947309,2,-3,-4,-3,0,-4,-2,0
605517961682,-4,-2,-5,-1,-2,-4,3,3
605517961682,1,-3,-2,-2,-4,-2,1,-2
605517968419,0,4,-1,1,0,-3,0,-3
605517968419,-2,-1,7,2,-1,2,-5,0
605517984767,-1,-6,9,-2,-3,1,-3,-5
605517984767,2,1,3,2,-1,-2,-2,2
605517986358,2,-2,-1,1,1,2,-2,-3
605517986358,4,-3,-1,0,1,0,0,-2
605517998419,4,1,-1,1,-6,2,2,4
605517998419,-4,-2,-5,-6,-3,-3,-3,-4
605518007423,1,-1,0,-5,-4,0,1,2
605518007423,-6,5,-1,2,1,0,-3,-2
605518021639,-3,-2,-4,-11,-3,-5,-4,-2
605518021639,1,-1,-1,3,3,-1,-3,-5
605518028436,1,-4,1,0,-4,-3,1,1
605518028436,-4,-2,1,3,-2,0,3,-1
605518045224,2,-1,-3,-1,0,-2,-7,-6
605518045224,1,1,-1,2,2,5,0,1
605518046778,-6,-3,-1,-3,-4,-4,-4,-5
605518046778,2,4,-6,1,2,-2,-1,-2
605518058356,-4,1,-1,-4,-10,-5,-1,-4
605518058356,0,1,-3,2,-4,-5,-3,-2
605518067343,-1,-3,-4,2,-7,1,-2,2
605518067343,-2,1,2,0,-2,-1,-1,-2
605518081802,-4,1,1,-2,2,1,3,2
605518081802,-4,1,4,-7,-5,-3,-4,-2
605518088464,1,-3,4,0,-5,-3,0,-5
605518088464,1,-1,7,3,-13,-3,-3,-3
605518104820,1,-3,10,1,-7,-3,4,-1
605518104820,-1,0,-8,3,4,-3,4,-1
605518106376,-2,1,-19,-9,8,-1,3,1
605518106376,-2,-4,7,-7,-2,0,2,-5
605518118412,-2,-1,13,3,-1,-2,0,-1
605518118412,1,-2,6,0,-4,2,4,0
605518127444,-5,-6,6,-5,-2,-3,9,-2
605518127444,-1,3,-6,-7,-2,0,3,-2
605518141660,0,4,3,10,5,0,4,-1
605518141660,4,0,2,2,-2,-3,5,0
605518148415,-1,-4,-2,3,0,-4,-1,-4
605518148415,0,-3,4,2,0,-1,0,0
605518164800,5,0,-17,-2,3,2,4,1
605518164800,3,0,5,4,5,2,2,0
605518166360,-2,3,7,-1,0,-1,-4,2
605518166360,-2,-2,1,1,0,-7,-7,-4
605518178443,-2,4,-4,1,3,-3,-11,2
605518178443,0,-2,3,-1,-4,0,-5,1
605518187372,3,-1,3,0,-1,2,1,1
605518187372,2,1,-7,9,0,-2,-4,1
605518201582,-4,-5,-5,-14,-4,-3,-5,-2
605518201582,-2,1,4,-7,-2,-1,-4,-3
605518208420,0,-2,7,1,1,1,-1,-3
605518208420,-3,-1,3,-6,-3,-1,4,2
605518224174,1,-3,2,8,1,3,8,-7
605518224174,-5,-6,-4,-2,-6,1,-3,-1
605518230922,-5,4,0,6,2,-1,-9,1
605518230922,-1,-4,-2,2,4,0,-12,-1
605518238419,-1,-1,3,1,4,2,1,-1
605518238419,-3,0,-3,-3,-2,3,4,8
605518247321,0,6,-6,1,-5,-1,-1,1
605518247321,-4,-5,-2,-11,-6,-2,6,-1
605518261661,4,8,3,3,-3,-4,-3,0
605518261661,1,5,1,0,4,-2,-3,-5
605518268457,0,-4,8,4,3,0,1,-4
605518268457,1,-1,3,-4,-3,-2,-4,0
605518284092,3,-2,7,4,2,2,-1,-1
605518284092,-6,-1,3,-5,-2,-2,-5,-6
605518290920,1,-6,-3,0,1,-1,-3,1
605518290920,1,1,-2,-5,-1,-2,-1,-3
605518298384,-4,-1,2,2,-5,-1,-2,-4
605518298384,0,-10,-6,-2,-2,-4,4,1
605518307415,-3,2,-7,3,1,-2,1,-1
605518307415,-2,-3,1,1,-5,-4,-2,-1
605518321664,-2,-2,-13,-3,-5,1,-4,0
605518321664,1,-1,-2,6,3,-1,-3,-4
605518328420,-2,-3,-31,-8,-6,-1,0,-3
605518328420,0,-5,10,-1,1,1,-2,-3
605518344093,-4,-2,7,-3,4,-1,-3,-3
605518344093,3,1,-4,0,-4,-11,-2,-2
605518350928,0,-7,3,0,-1,4,1,-2
605518350928,-5,4,-13,5,2,1,-2,2
605518367314,2,1,-16,-2,-3,-3,1,-5
605518367314,-5,-1,-5,1,1,2,-1,-2
605518368931,-3,0,-1,-7,-4,-3,-6,-2
605518368931,2,-2,4,-3,-3,-1,1,-1
605518381622,3,-1,16,10,1,-1,1,-1
605518381622,2,4,-2,2,-4,6,-3,-2
605518388366,2,2,0,4,2,-3,-4,-3
605518388366,-1,-3,-8,-6,3,2,-6,0
605518404110,1,-1,-4,-1,-3,-6,-5,0
605518404110,1,-1,1,-8,-2,-1,-1,-2
605518410971,-1,1,14,-1,-2,1,-5,-5
605518410971,-3,-1,-14,-7,-2,-2,-3,-6
605518427332,-5,-1,-7,-13,-3,-5,-4,-2
605518427332,-5,-2,-4,3,2,-10,-7,-9
605518428970,-3,-2,-3,0,-9,7,-3,-1
605518428970,0,-3,7,5,-2,7,1,-7
605518441661,-2,0,12,5,2,8,-8,-3
605518441661,-3,0,7,-2,0,2,-7,-2
605518448465,-6,0,10,-1,-3,-2,0,6
605518448465,3,0,12,-1,-8,-5,15,33
605518464117,4,4,3,1,0,-5,18,27
605518464117,-9,-3,-1,-7,-4,4,13,0
605518470966,-7,-4,4,0,-5,-6,7,16
605518470966,4,3,-13,0,1,-5,2,-7
605518487267,-2,-4,-15,-5,-4,-5,-2,4
605518487267,2,1,-16,-7,-6,-5,-4,15
605518488922,8,1,3,-5,-2,3,-1,1
605518488922,-1,1,4,1,0,1,-9,-2
605518501517,-2,-5,-13,-7,-8,1,-7,-11
605518501517,4,4,8,4,4,0,-1,-18
605518508388,0,0,-3,-8,-4,-3,2,-15
605518508388,-8,-1,4,-6,-4,-1,-4,-9
605518524140,-8,1,2,2,-2,-5,0,-15
605518524140,-6,-2,9,3,-4,3,-7,-15
605518530892,-3,-4,-10,0,1,0,-6,-28
605518530892,-9,-5,0,3,4,0,-15,-47
605518547286,13,-1,0,-4,-1,2,-7,9
605518547286,13,0,-4,-7,-5,-6,3,27
605518548818,8,-4,2,-5,-1,-6,1,28
605518548818,4,4,20,-1,-4,0,-2,15
605518560969,-4,-6,10,7,3,-1,-4,8
605518560969,-4,-5,-12,-4,6,-2,-8,4
605518570009,-1,5,-22,4,0,0,2,-2
605518570009,-1,-2,-19,1,7,4,2,-8
605518584189,-1,-2,-8,-8,-2,2,3,-13
605518584189,-4,-1,-15,-6,-2,0,2,7
605518590967,-2,-3,4,5,6,-1,2,-11
605518590967,-5,-4,21,4,2,1,3,-16
605518607317,-7,-3,12,0,-6,4,3,1
605518607317,-5,-6,3,-3,-7,0,11,6
605518608893,-2,-5,-3,-4,-4,1,0,2
605518608893,0,-3,-18,-6,-6,-5,2,11
605518620978,4,2,-7,-1,0,-3,1,9
605518620978,3,-1,0,4,-5,-5,2,-7
605518629944,1,0,0,1,-4,-5,6,8
605518629944,1,0,3,-7,-6,-7,-4,6
605518644166,-2,3,4,0,-2,-5,-3,-7
605518644166,-2,0,15,8,-1,4,-3,-11
605518650907,-1,-1,11,3,0,-2,-10,-6
605518650907,0,-3,-12,-5,-1,0,-1,-1
605518674709,-5,-1,-11,-10,1,-3,-7,-16
605518674709,2,-7,-13,-5,-3,-1,-8,8
605518676444,-3,-2,2,-8,-5,2,1,-2
605518676444,6,3,-3,-1,0,-2,-1,10
605518680970,4,-2,-2,2,-4,-1,-11,10
605518680970,1,-5,5,8,5,-3,-3,-2
605518689881,-6,1,15,4,4,-3,-7,-1
605518689881,-3,-4,11,7,2,2,0,4
605518704153,-6,-11,10,0,3,3,8,-8
605518704153,-4,-5,-7,-4,-2,-3,9,0
605518711009,1,0,-7,-1,-3,2,11,9
605518711009,-2,-4,-9,-5,-2,-6,-11,-6
605518727266,-2,1,-7,-4,-8,-3,1,-7
605518727266,4,4,0,-2,-3,-4,-8,-8
605518728933,-5,-1,9,-5,1,-4,-4,-2
605518728933,-3,-5,2,0,-6,3,5,4
605518740883,-5,-3,0,1,6,-1,-3,0
605518740883,2,-2,-1,-6,-3,-1,-8,-7
605518749985,3,2,3,0,-6,-8,-11,2
605518749985,3,-2,-5,1,0,3,-2,-1
605518764187,1,0,-12,-3,-6,0,2,1
605518764187,-3,-3,-4,0,3,0,1,6
605518770895,2,-3,-1,-3,-5,-3,0,5
605518770895,-4,2,10,1,-2,-1,10,-2
605518787346,-2,-1,7,2,-4,-1,-3,1
605518787346,-6,0,9,-2,0,-6,-13,-5
605518788918,-1,4,-3,-1,-2,-2,2,-1
605518788918,1,2,-2,-7,0,-4,-1,-1
605518801029,1,-1,1,-6,1,-3,-2,-10
605518801029,0,1,1,4,-4,0,5,-5
605518809931,-1,-5,-7,6,7,3,-6,-7
605518809931,1,-2,-11,-6,3,-3,0,7
605518824177,1,-4,3,-4,0,0,-1,4
605518824177,2,-4,-9,-2,2,4,5,5
605518831024,-5,-3,2,-3,2,-2,-1,-2
605518831024,-4,0,-10,1,-1,-5,-2,-4
605518847325,-5,-3,-1,1,-5,-1,-4,-1
605518847325,-8,4,20,7,4,0,-8,-5
605518848919,2,2,-2,-3,-17,1,-1,5
605518848919,3,-4,0,9,6,1,0,-3
605518860891,1,1,-2,-3,-2,-1,3,3
605518860891,-8,-3,9,0,2,3,0,-4
605518869938,-4,2,4,4,1,0,-1,-9
605518869938,-5,-10,0,-4,-2,4,1,5
605518884593,-9,-2,-7,8,0,0,-1,-3
605518884593,13,2,-12,2,-6,6,4,-3
605518890966,-2,0,-10,-10,-2,0,-3,-1
605518890966,3,-7,-7,-3,2,-4,2,4
605518907282,2,-6,4,2,-1,-4,2,0
605518907282,-2,-2,-13,10,6,1,7,-9
605518908924,2,-2,-2,-3,1,-6,2,0
605518908924,-2,-1,2,15,-4,2,0,1
605518921030,5,-4,-3,-12,-7,4,11,9
605518921030,5,7,-6,-24,-4,-7,2,8
605518929970,-2,9,-6,-9,-2,-9,-8,-3
605518929970,-4,7,6,-10,-4,-10,-8,-10
605518944118,-4,5,3,2,5,6,5,-5
605518944118,-9,-1,6,2,-4,-3,-4,-2
605518950965,-1,-2,6,0,1,-2,-1,-5
605518950965,-5,2,1,8,-1,-1,9,3
605518967312,-2,4,-12,8,0,1,-10,3
605518967312,-2,-2,7,-2,-3,0,-1,2
605518968956,-9,-7,10,6,-1,-1,-8,-9
605518968956,-1,2,2,27,2,5,-6,-4
605518981012,10,-3,-13,-16,2,-7,1,9
605518981012,1,-9,-11,9,1,12,-2,15
605518989936,8,-1,-6,-2,1,5,0,13
605518989936,2,-3,9,21,6,3,-5,-13
605519004117,1,-1,17,19,-1,1,7,-10
605519004117,8,4,1,45,-2,-2,-2,-2
605519010904,3,-1,-2,-10,10,5,-2,-11
605519010904,10,6,-16,-73,-8,-3,-5,-2
605519027222,12,8,-11,21,-11,-5,-3,26
605519027222,3,3,6,-2,-1,-7,-3,3
605519028984,-6,-5,-4,19,-10,-5,-4,-3
605519028984,-8,0,-3,1,-7,1,-3,-4
605519040969,-13,0,-5,-30,4,-8,-6,-27
605519040969,-4,-9,-16,-13,1,-4,0,-3
605519049928,2,-2,-7,-10,3,4,6,3
605519049928,2,-2,10,-16,-1,-3,2,5
605519064044,-5,0,9,2,-1,2,-2,-5
605519064044,-3,4,-2,6,-4,-2,6,-7
605519070993,-7,-2,7,5,1,1,-2,-8
605519070993,-2,-3,-4,7,-1,3,-2,6
605519087366,2,1,6,3,-2,-3,-8,-2
605519087366,-3,-2,6,-14,-3,-2,-7,4
605519088926,0,-1,7,25,5,-4,-3,1
605519088926,3,4,-4,0,3,-3,-6,6
605519101036,1,3,0,10,-2,-1,2,1
605519101036,-1,-5,-10,-9,0,4,7,1
605519109966,3,-2,-15,-7,1,6,5,5
605519109966,-5,-2,-6,14,3,3,-3,-2
605519124151,-3,-5,-9,2,1,3,-1,0
605519124151,1,-1,5,1,2,0,-2,-10
605519130970,1,-2,-1,19,1,5,9,0
605519130970,-3,-4,6,-8,-6,-2,7,-5
605519146619,2,-2,3,-14,5,0,-6,-2
605519146619,1,2,13,-11,-5,-6,-3,0
605519153388,4,-1,2,-4,-3,-4,-2,3
605519153388,10,4,1,18,-1,1,-2,2
605519160976,7,3,-7,9,2,-3,-4,5
605519160976,3,1,-9,-9,-2,1,3,-3
605519169922,-4,-6,-10,-5,-7,-14,-6,-3
605519169922,-10,-3,6,-2,0,3,-3,-10
605519184907,-16,-5,9,-11,-6,1,-7,-22
605519184907,-10,-4,6,-11,0,-5,-6,-6
605519190977,0,-4,7,-9,-4,-1,-9,3
605519190977,10,-3,3,5,-2,-3,-2,9
605519205949,9,-4,-10,-3,-1,-1,4,16
605519205949,8,0,4,10,3,6,3,11
605519213375,-5,4,-1,1,-3,-2,1,2
605519213375,-5,-5,1,4,1,-1,2,-11
605519229025,-15,-3,4,1,3,2,-3,-13
605519229025,-10,1,-4,-6,4,2,1,-7
605519229913,2,-1,-4,-3,-3,2,-1,-2
605519229913,-1,7,4,-4,-6,-7,-4,6
605519244889,0,-2,7,1,-1,-6,2,-1
605519244889,-2,5,5,-38,-2,-8,-2,-3
605519250924,1,2,-4,-16,-2,8,2,-6
605519250924,-5,-5,-10,-9,5,-1,-1,-7
605519265903,-7,-2,-5,-14,-8,-4,-5,-8
605519265903,5,5,2,18,1,1,-5,-5
605519273366,-1,-2,8,6,0,1,0,-3
605519273366,-1,4,2,-1,0,3,1,1
605519289134,1,-3,2,11,1,-2,-7,5
605519289134,1,1,-4,7,-5,-4,-4,-9
605519289927,-2,-2,-6,-9,-8,-2,-2,5
605519289927,0,-2,10,-9,-16,-8,-6,1
605519304970,-2,-4,14,-10,-2,-2,-2,4
605519304970,-5,-4,6,6,-3,-3,-3,-2
605519311021,-2,5,9,-2,1,1,-6,-4
605519311021,1,-1,-71,-4,-6,2,0,-1
605519325970,7,6,5,-3,2,-2,4,9
605519325970,8,-2,-13,5,2,-1,0,13
605519333445,-2,-5,-15,-13,-3,-12,0,3
605519333445,4,-5,17,14,-2,-3,-5,-2
605519349156,2,6,4,7,-5,3,3,-7
605519349156,5,-5,13,42,5,4,3,-2
605519349876,1,-10,-4,6,7,2,-1,4
605519349876,0,-3,-13,7,11,6,6,6
605519364966,-2,-9,-13,-12,3,3,-2,6
605519364966,-7,-10,-18,-13,8,1,-6,-1
605519370967,-9,0,-26,0,8,0,-14,7
605519370967,-1,-2,-8,33,-8,-10,-9,6
605519385898,5,1,-3,-53,-4,-8,-4,10
605519385898,-2,0,-5,28,-16,-10,-8,3
605519393433,5,-2,34,5,-9,-24,-3,7
605519393433,-3,4,7,44,-14,-15,4,2
605519409174,4,-7,-17,-10,-7,22,-3,-24
605519409174,-2,8,37,-27,-11,-5,-17,-34
605519409966,-8,16,29,32,9,22,11,-46
605519409966,-1,6,19,-63,6,9,0,-27
605519424925,4,13,-26,-13,-1,17,19,-15
605519424925,0,-12,-34,-69,-1,19,8,-5
605519431018,-3,-4,-22,-57,-8,13,-2,-5
605519431018,-4,2,20,-18,0,-11,1,11
605519446010,-10,-12,17,43,9,-12,14,5
605519446010,3,-4,26,58,1,-11,19,16
605519453428,2,-3,18,18,-2,-19,27,27
605519453428,4,-1,4,-16,7,1,10,-7
605519469143,5,5,-18,88,1,-35,-17,-22
605519469143,-8,1,12,28,3,1,19,-23
605519469959,2,2,10,53,-7,-11,-24,-19
605519469959,-6,-3,3,20,-14,10,-19,-47
605519485026,-3,-10,9,-10,-3,13,11,34
605519485026,4,8,-1,-5,-2,-1,-10,-13
605519491060,2,12,-4,-7,-8,17,-8,-12
605519491060,-7,-14,-31,-48,-13,-26,-54,-44
605519506001,4,-2,-17,-20,-11,-39,-48,-16
605519506001,0,-11,-15,-83,0,-15,0,0
605519513443,1,-6,-9,-43,3,16,52,-21
605519513443,-9,3,34,-44,4,25,21,11
605519529082,4,4,46,-22,11,15,19,-6
605519529082,-5,4,-18,38,11,30,-7,-7
605519529939,7,-1,-51,19,7,-9,-28,-14
605519529939,7,-5,-17,38,8,-3,-12,16
605519544973,-4,2,20,36,2,-2,23,2
605519544973,-4,-5,-30,-8,-10,-12,10,19
605519550944,0,-9,56,16,-2,0,-8,9
605519550944,1,-1,58,27,-4,6,20,20
605519565911,2,2,54,-29,-10,1,-11,15
605519565911,0,-8,47,-5,-6,-2,-10,-5
605519573449,-2,-9,-12,-17,2,-1,6,9
605519573449,5,-3,-36,-38,4,-11,24,7
605519589102,-7,4,-17,-43,-11,-10,5,-13
605519589102,-3,10,-7,1,-6,-9,-16,-6
605519589928,5,-2,-31,-49,-3,0,-13,-12
605519589928,-1,0,16,22,-8,-14,-26,-11
605519604889,1,0,0,23,2,0,-1,-3
605519604889,5,6,-29,-6,-2,-2,15,11
605519610887,0,9,-3,18,2,11,15,-2
605519610887,1,8,23,32,11,6,-7,-4
605519625902,8,3,15,1,4,0,-5,6
605519625902,4,-6,19,3,4,4,16,11
605519633408,-10,-17,32,30,0,-6,0,6
605519633408,-8,17,-56,11,0,7,25,7
605519649046,-16,-10,-43,25,5,15,13,-11
605519649046,1,1,-32,8,9,2,-4,-2
605519649875,-11,1,30,-1,-11,-1,-5,7
605519649875,4,-6,2,-7,-5,9,19,8
605519664884,17,-7,0,-11,-12,27,3,26
605519664884,1,-13,2,-34,-7,-8,6,11
605519670901,7,2,-14,-33,-9,-25,-10,12
605519670901,0,2,39,-12,-6,-72,-2,-2
605519685928,-9,3,15,-5,-5,-42,-29,-28
605519685928,-4,3,16,11,-8,-19,-54,-42
605519693358,3,0,10,17,8,-17,-32,-28
605519693358,1,-2,-8,3,-3,9,-22,-26
605519709145,-5,2,-6,8,5,2,-6,-8
605519709145,-2,-13,-2,19,3,-9,-8,-4
605519709985,-9,-1,4,12,9,29,9,-1
605519709985,-8,16,29,23,-9,24,10,14
605519724926,8,11,-13,11,-3,8,8,3
605519724926,-4,5,-4,-3,-5,6,19,25
605519730971,-8,-20,-25,-12,-12,-1,34,14
605519730971,0,-28,-39,6,5,9,25,3
605519745972,-7,-18,-14,19,-1,-8,14,4
605519745972,-6,-6,-5,29,0,2,24,-3
605519753434,-5,0,-14,-35,3,2,11,18
605519753434,2,-5,6,-31,-6,-2,-26,3
605519769158,13,10,-20,-69,-29,-23,-68,-10
605519769158,4,29,-10,-50,-14,-4,-64,-9
605519769990,12,17,-15,-17,-4,-8,-34,-14
605519769990,4,-18,-26,-36,10,13,24,12
605519784937,-17,-22,-3,-9,5,0,39,6
605519784937,-3,19,26,40,-1,-3,-68,-5
605519791000,6,-39,-31,0,3,-3,58,12
605519791000,-7,-55,-18,-33,-13,9,88,29
605519805964,-21,-41,5,21,11,24,80,19
605519805964,-17,-11,46,29,9,17,97,-15
605519813416,-4,32,34,31,-6,-28,-124,-55
605519813416,-7,16,11,15,-3,-36,-128,-49
605519829121,-8,-4,0,6,-9,-20,-68,-16
605519829121,-10,-15,-14,-17,-2,3,-13,3
605519829921,5,5,10,17,0,6,21,4
605519829921,29,12,14,-3,7,12,29,8
605519845028,5,22,0,-24,-4,10,1,-9
605519845028,12,18,-5,2,-6,-3,6,-3
605519850968,-2,-2,-12,6,-2,-1,20,14
605519850968,-10,3,2,-3,-3,1,13,4
605519866001,-5,-1,-11,-2,-9,6,5,0
