timestamp,emg1,emg2,emg3,emg4,emg5,emg6,emg7,emg8
82157573826,-5,-1,0,30,2,3,5,6
82157573826,12,3,-2,37,0,-1,-2,-35
82157574642,-15,-1,1,33,1,-1,3,8
82157574642,-2,2,1,37,0,1,-3,-7
82157575462,-18,-1,0,29,-1,-1,-4,-16
82157575462,21,-3,-1,22,-2,-1,11,41
82157579787,7,2,-2,5,1,-2,-6,-39
82157579787,-4,-3,-2,5,1,1,2,8
82157585393,-2,0,-1,0,0,-3,-2,-4
82157585393,-9,-2,0,-5,-1,-2,-3,3
82157596850,3,-3,-2,1,-2,0,-3,3
82157596850,0,7,0,3,-1,-1,-2,-12
82157600447,7,3,-1,-4,-1,0,6,14
82157600447,-8,-2,-2,-3,-4,-3,-1,3
82157616857,10,1,0,-1,-2,-2,-3,-1
82157616857,-3,1,0,-1,1,-1,-2,2
82157624070,-1,-3,-1,-5,-3,-2,0,-2
82157624070,-4,1,0,6,0,2,-1,8
82157631873,9,-4,-1,0,-2,1,-1,-1
82157631873,7,2,0,-1,0,0,-3,0
82157645514,-1,-4,-3,-4,-3,0,-2,-12
82157645514,-12,0,-3,-5,0,0,-3,-3
82157684203,-7,0,-1,-5,2,1,-2,-44
82157684203,-4,-1,-2,0,-2,6,-1,-8
82157692161,-5,0,-1,3,0,6,3,2
82157692161,0,-1,-2,2,0,-3,-8,-10
82157692948,0,-3,-2,6,-1,-9,7,33
82157692948,2,-5,-1,-2,-1,-12,-8,0
82157694566,-2,-3,0,-1,-3,-7,-4,-4
82157694566,1,-3,0,0,-2,-5,-2,-2
82157705196,0,-1,0,1,0,-2,-3,1
82157705196,-3,0,-1,-1,-2,-1,-2,0
82157714174,-9,-4,0,-3,-3,-3,1,1
82157714174,-7,-1,0,-2,-1,-1,0,-10
82157720170,23,-2,-2,0,-3,0,-3,31
82157720170,1,1,-1,-6,-1,-1,0,22
82157736683,-10,-1,0,-3,1,-2,-5,-10
82157736683,9,-4,-2,-5,-2,-2,-1,10
82157742663,-9,10,1,4,-2,2,0,-18
82157742663,2,-3,-1,-2,-3,-2,-1,-12
82157751671,5,0,-1,1,-4,-3,0,14
82157751671,-3,2,0,3,-2,0,1,-11
82157765188,-5,-4,-1,-3,1,0,-1,5
82157765188,-14,-3,-1,2,-1,0,-4,-39
82157774184,17,4,-2,-3,0,0,7,11
82157774184,-4,-3,-2,-2,0,0,-3,-6
82157780189,-2,-3,-2,-2,0,-1,-1,4
82157780189,-7,1,1,-2,0,-2,3,-2
82157796667,6,-7,-2,-1,-1,1,-8,-11
82157796667,11,0,-1,-1,-2,0,3,21
82157802663,-18,-3,-1,-8,-2,-2,-1,-18
82157802663,-8,0,0,-2,2,-1,-2,7
82157811672,-5,-3,-3,1,-2,-2,-4,-17
82157811672,5,-9,-1,-10,0,-2,1,-3
82157825221,4,7,2,-3,1,0,-1,6
82157825221,2,1,-1,0,-2,-2,2,12
82157834178,1,1,-2,1,0,-2,-1,12
82157834178,-14,-4,-5,5,-4,-4,-6,-5
82157840183,-1,-5,-2,0,-1,1,-1,-7
82157840183,0,-2,1,-1,1,0,1,-9
82157856671,2,1,0,-4,-3,-1,-3,12
82157856671,-3,4,0,-5,-1,-1,1,5
82157862643,1,-4,-3,1,-1,2,-1,19
82157862643,1,2,0,1,0,-4,-7,-48
82157871672,4,-7,-1,0,-1,-1,-3,12
82157871672,-2,4,1,-12,2,0,3,6
82157885187,-3,-3,-3,-4,-2,-3,-5,-26
82157885187,-8,-4,-3,-5,-3,1,1,23
82157894178,0,-1,-1,-1,-1,-1,-5,-19
82157894178,-22,-3,-1,4,-2,-1,0,24
82157900168,24,-1,-3,-5,-2,-2,0,9
82157900168,-7,-4,-4,-1,0,-1,1,2
82157916651,-2,13,0,-6,0,-1,3,-4
82157916651,-3,0,-1,0,-2,-2,-3,-20
82157922670,-1,-3,-2,-4,-3,-1,0,9
82157922670,1,-3,-1,8,-3,-2,-2,6
82157931677,-2,-8,-3,-9,0,-1,5,26
82157931677,2,1,0,5,0,0,-6,-49
82157945214,-3,-1,-1,1,-2,-3,-6,24
82157945214,-1,-6,-1,-7,-2,0,-1,3
82157954159,-4,0,1,0,-1,-1,-1,-3
82157954159,2,1,0,-1,-2,1,2,12
82157960166,-6,-5,-1,-2,0,-1,0,-13
82157960166,7,2,-1,-2,0,-1,-1,4
82157976666,-3,-1,-3,1,-1,-1,2,-5
82157976666,0,-5,-1,-1,-2,-2,-6,-12
82157982698,-5,1,1,-1,-2,1,-3,-26
82157982698,-8,-4,0,-2,0,0,1,34
82157991672,7,2,1,-1,0,-1,0,-13
82157991672,5,-3,-2,-1,0,-2,-3,5
82158005217,1,1,0,2,-1,-2,-1,-2
82158005217,3,0,-1,0,-1,-2,-3,-17
82158014151,-6,-3,0,-2,1,-1,-1,-3
82158014151,1,2,-1,0,3,0,0,6
82158020169,-5,-4,-2,-3,-2,-1,-1,-11
82158020169,10,1,0,-3,-2,1,0,15
82158058388,-8,1,-1,-1,-2,-3,-5,-15
82158058388,3,-4,-1,-3,-1,-3,3,13
82158065197,-5,-1,0,0,2,-1,-5,-23
82158065197,5,0,-2,0,-1,0,2,8
82158074081,0,-3,-1,-2,0,-2,-1,0
82158074081,-2,1,0,2,0,-1,0,-3
82158075683,-1,-2,-1,-1,-2,-2,2,14
82158075683,-6,0,-1,2,-1,-1,-3,-6
82158088391,10,0,0,11,-1,1,0,13
82158088391,-4,1,-2,4,-3,0,2,1
82158089115,-17,0,2,0,0,1,-6,-47
82158089115,20,-1,-3,5,-2,0,2,30
82158104006,-8,-2,0,4,-1,-2,-3,1
82158104006,1,-3,-1,2,0,0,-2,-2
82158104772,1,4,-1,7,-1,0,3,10
82158104772,-6,-1,0,-10,1,3,-2,-12
82158126326,-5,-1,-4,9,-1,0,-1,-6
82158126326,4,3,2,-5,0,1,-2,1
82158127089,-2,-5,-2,7,0,3,1,2
82158127089,-2,0,1,5,2,2,6,-4
82158140194,2,1,3,2,2,4,2,-2
82158140194,-5,-3,-1,5,3,4,1,-5
82158147689,4,4,1,5,0,1,2,18
82158147689,3,2,0,18,2,-1,-3,-8
82158163364,2,2,1,21,1,0,0,1
82158163364,1,2,0,30,1,-2,1,4
82158164150,2,-1,2,32,1,0,-1,4
82158164150,2,0,-2,37,-1,0,0,-1
82158177750,-5,-1,-2,37,-5,-3,-2,-8
82158177750,1,0,-1,35,-5,0,-1,-2
82158185262,4,3,3,41,4,0,2,7
82158185262,-5,-4,-8,43,-23,-3,-1,-10
82158194159,1,4,15,50,48,2,1,-2
82158194159,1,-3,-6,14,-18,-3,1,0
82158200208,1,-2,1,24,7,1,0,6
82158200208,0,0,1,23,10,1,0,-3
82158217147,-2,-6,-9,17,-22,-5,-2,-3
82158217147,1,0,-2,8,3,-1,-1,2
82158222716,-2,-4,-4,-1,-11,0,-2,-2
82158222716,-1,-2,-3,-7,-13,-7,-2,-7
82158237731,-2,0,-1,-7,2,1,0,-2
82158237731,-2,1,3,-5,4,9,-3,-3
82158245223,1,-3,-6,0,-1,3,0,4
82158245223,-1,0,2,-1,11,0,-3,-2
82158254199,0,-1,-2,-3,-1,0,0,-1
82158254199,-1,0,0,5,-4,-5,0,-1
82158260185,-2,-1,-2,-3,-8,-6,0,0
82158260185,-1,-2,3,-1,6,3,0,-1
82158276646,-2,0,-2,-10,-2,3,-2,-3
82158276646,-1,-1,-4,0,6,6,1,1
82158282707,0,0,0,-7,3,-4,-3,0
82158282707,-1,-1,0,-5,-5,-6,-1,-3
82158297658,-1,0,-4,-15,-5,2,-1,1
82158297658,-1,-1,-2,5,-6,-8,-1,0
82158305187,-2,-1,0,0,5,2,1,1
82158305187,-1,-1,-4,-5,-4,-2,-2,-1
82158314174,-3,-2,-3,-2,-5,-2,-1,-2
82158314174,1,1,2,10,9,2,1,1
82158320204,0,0,-2,-4,1,-2,1,0
82158320204,-2,-1,2,-3,-10,-5,-7,-2
82158337155,3,-1,1,-2,-6,-4,-1,-1
82158337155,-1,-1,-1,0,2,-1,-2,-3
82158342650,-1,-3,-2,0,4,5,2,1
82158342650,-1,1,1,-3,8,5,2,0
82158357720,-2,0,-1,0,-4,-11,0,-1
82158357720,-2,-2,2,-1,-1,-1,0,2
82158365214,-2,-3,-3,-2,6,10,-4,-3
82158365214,0,-1,-2,-3,-12,-14,-1,-1
82158374200,-2,-2,4,-1,5,7,0,-1
82158374200,-2,-3,0,1,5,1,-1,-1
82158380222,-1,-1,-1,4,-5,-9,-1,-1
82158380222,-1,-2,-4,4,4,5,-4,-2
82158396677,-2,-3,-3,-5,-17,-1,-1,-1
82158396677,2,1,1,2,-3,-1,3,2
82158402673,0,1,-1,-3,-9,-9,-10,-3
82158402673,0,0,2,1,6,-4,1,-1
82158417685,-1,-3,-6,-4,2,2,2,-2
82158417685,-2,1,-1,-3,1,3,3,0
82158425202,0,1,2,5,3,-2,-3,-1
82158425202,-2,2,1,-2,-15,-6,-10,-3
82158434217,0,-2,-3,-2,12,6,-1,0
82158434217,-3,-3,-3,-4,-12,-4,-3,-3
82158440206,0,0,0,0,-4,-24,2,2
82158440206,-1,0,2,5,33,28,3,-1
82158456776,-2,-2,-4,3,-7,-1,-6,-3
82158456776,0,1,-1,4,9,1,3,1
82158462702,-1,-3,-2,2,-7,-4,-8,-3
82158462702,-1,1,-2,-1,-14,-5,5,3
82158477745,-2,-2,-1,3,-4,-6,-1,-1
82158477745,1,1,9,-2,31,12,-3,-1
82158485217,-2,-2,-1,-7,-18,-4,-2,-1
82158485217,1,0,-2,-2,9,9,2,1
82158494150,-1,-4,-7,-6,-23,-2,-6,-3
82158494150,-2,-4,-4,2,-3,-15,-6,-3
82158507708,2,3,4,-6,7,0,1,0
82158507708,-1,-1,2,0,2,-4,-1,-2
82158516665,-2,-1,-3,-3,-4,-7,1,-1
82158516665,-2,-2,-6,5,-15,5,-1,-2
82158522738,-2,-1,-1,0,-5,2,1,-1
82158522738,-2,-2,-1,-6,0,2,3,-3
82158537729,1,3,3,3,4,4,1,1
82158537729,1,-1,1,-2,1,-3,0,-2
82158545213,-1,-1,-2,-1,0,6,0,2
82158545213,1,-2,-1,4,-11,-14,-1,0
82158554175,-2,-2,1,0,8,2,-3,1
82158554175,0,-1,-3,-3,1,4,-2,1
82158567710,-1,-3,-4,4,7,-8,1,0
82158567710,0,3,1,-5,3,12,0,0
82158576676,-3,-1,-2,-1,-9,-18,-4,-5
82158576676,0,1,-3,7,-7,2,1,-1
82158582706,0,-1,0,5,5,-8,-4,-2
82158582706,0,0,4,0,6,-4,1,0
82158605889,-1,-1,-1,3,2,4,1,1
82158605889,-1,0,0,-11,-3,-7,-1,-2
82158606645,0,0,-1,-2,3,10,1,0
82158606645,-1,-1,-4,2,-4,-5,-3,-2
82158614175,-1,-1,1,0,2,12,0,-1
82158614175,-1,-3,-2,-7,-10,-7,-3,0
82158627748,-1,-1,-4,-3,10,-1,1,-2
82158627748,0,-2,-1,-3,-5,-7,-3,-1
82158636679,-1,-1,-1,-6,-5,-4,1,0
82158636679,-1,-1,-3,-2,6,1,-1,-2
82158642712,0,-1,1,-2,-2,3,0,-1
82158642712,-2,-2,-3,-4,-4,-5,-3,-1
82158657683,0,1,0,1,2,-3,1,0
82158657683,-2,-2,1,2,-7,-3,-3,1
82158665165,-1,-2,-4,-1,-1,-1,2,1
82158665165,-1,-3,-5,-5,-5,9,-1,-1
82158680176,-4,-2,-3,-4,-2,-9,-2,-2
82158680176,-1,2,-2,-6,15,2,2,1
82158687716,-2,-2,-3,-1,-15,4,-3,0
82158687716,0,-2,-3,-1,-7,-11,2,1
82158703357,-2,0,0,-14,-4,2,-5,-2
82158703357,-2,-1,-1,-8,-16,-12,-1,-2
82158704126,-2,-3,0,0,11,5,0,1
82158704126,-2,-1,0,3,4,-2,1,0
82158717720,-2,-1,-4,-4,2,2,-2,-2
82158717720,-2,1,2,6,8,-8,-1,-1
82158725224,2,1,-3,2,-1,-4,1,5
82158725224,-2,-1,-1,-6,-1,18,-2,-17
82158740209,-1,-2,-2,2,-11,-19,-4,-1
82158740209,-2,-3,-2,-2,-8,16,-6,-2
82158747703,-1,-1,-1,-2,2,5,2,-3
82158747703,-3,-2,-4,1,13,-14,-6,2
82158771533,1,0,0,-3,12,8,5,-1
82158771533,1,-1,-2,-5,-15,32,2,0
82158772301,0,-2,-3,9,26,-8,1,2
82158772301,-5,-7,-10,-3,-33,-16,-13,-5
82158777728,1,1,8,6,14,-1,2,0
82158777728,-2,-4,-5,-8,-27,-15,-5,-3
82158785217,4,8,24,26,59,27,5,2
82158785217,-1,-2,-6,-2,7,5,9,3
82158808377,-3,-3,-4,5,-10,-18,-10,-6
82158808377,-1,-3,-7,-11,-14,-27,-1,-2
82158809148,-6,-6,-11,-13,-52,12,-1,-4
82158809148,-3,-2,0,3,-14,-13,-7,-2
82158823390,1,4,9,-1,35,16,3,5
82158823390,2,-1,-2,-4,6,-2,-1,-1
82158824168,-2,-3,-5,-3,-9,-6,-8,-3
82158824168,2,1,1,0,1,9,2,3
82158837691,-2,-5,-11,-6,-33,0,1,-1
82158837691,-2,1,1,1,11,-8,-1,-2
82158845261,-2,0,-2,-5,-5,-5,-1,-2
82158845261,0,-2,-2,-6,-16,-8,2,0
82158860201,0,-1,1,1,15,12,1,0
82158860201,-1,-2,0,8,-2,-12,0,0
82158867719,-1,-3,-4,-4,-6,13,0,-1
82158867719,0,0,1,2,-3,-35,-4,-2
82158891600,0,0,0,0,8,15,1,0
82158891600,-4,-2,-4,7,-10,-47,-12,-3
82158892325,-2,-2,-3,-8,-4,6,3,-1
82158892325,1,2,5,4,16,9,0,2
82158897687,-2,-2,-8,-15,-39,-27,-4,-2
82158897687,0,0,-1,-5,9,13,2,1
82158905196,0,0,-2,-8,-11,-12,-2,-3
82158905196,0,2,3,12,24,7,-1,1
82158920240,-1,-1,0,-8,-1,-2,0,-1
82158920240,0,-3,-3,-2,-11,19,2,0
82158927675,-4,-2,-3,-2,-10,-25,-6,-3
82158927675,0,1,0,-5,6,15,4,0
82158943375,-2,-2,-2,3,-6,-7,0,-1
82158943375,1,-1,5,5,10,6,1,0
82158944148,-3,-2,-3,-2,-1,4,-4,-1
82158944148,0,-1,-2,-2,-11,17,0,1
82158965865,-3,0,-1,5,-9,-30,-8,-3
82158965865,0,0,1,-2,12,13,4,1
82158966646,-1,-3,-4,1,-17,-17,-6,-2
82158966646,0,0,0,2,13,11,0,-1
82158980209,-1,-4,-4,0,11,18,-1,-1
82158980209,-1,-1,0,-4,7,-2,-2,1
82158987716,1,-2,-1,-4,-2,0,-3,-1
82158987716,-1,-1,-1,-5,-2,-5,-3,-1
82159003383,2,2,-2,-3,-7,4,1,1
82159003383,-1,-1,-4,-4,-3,-7,-4,-4
82159004160,1,3,3,2,4,5,3,1
82159004160,-1,-2,-1,-6,0,-11,-6,-3
82159017689,2,0,0,-2,3,1,2,-1
82159017689,0,1,0,4,-6,3,0,0
82159025301,-2,-1,-1,1,-5,-2,-1,0
82159025301,-2,-2,-3,-6,-9,-7,-2,-1
82159040209,-1,-1,0,1,8,9,-1,0
82159040209,2,-1,2,-4,5,0,3,3
82159047711,-3,-3,-4,-6,-2,1,-5,-16
82159047711,-1,-1,-1,-4,-7,-17,-1,1
82159063362,-2,-1,-1,0,6,24,-1,0
82159063362,-2,0,-1,-10,2,1,-3,-3
82159064138,0,0,-1,2,-4,-11,1,4
82159064138,-1,-1,0,-6,-2,4,2,-1
82159085873,-1,-2,0,-1,-5,-13,-3,-4
82159085873,-1,0,-2,-2,7,12,1,2
82159086646,2,0,-1,-5,2,3,2,5
82159086646,-1,-2,-1,-1,-4,-7,0,0
82159101680,-2,-1,0,1,2,-4,-1,1
82159101680,-3,-3,-3,-2,-8,-5,-2,-2
82159107724,0,-1,2,6,8,-4,-1,-1
82159107724,-1,0,2,-1,3,6,0,-2
82159124833,-2,-2,-5,-9,-12,0,-1,0
82159124833,0,-2,-4,-2,6,-1,-1,-3
82159125643,-1,0,0,-3,4,0,-1,-1
82159125643,-1,-2,-5,-3,-16,0,0,0
82159137687,0,-2,2,0,18,-1,-1,0
82159137687,-1,-1,-6,-2,-16,-4,0,-1
82159145181,-1,-2,-2,0,4,4,-2,2
82159145181,1,1,4,8,28,3,0,-1
82159160214,0,-4,-3,-3,-19,-8,0,-2
82159160214,-1,0,1,8,7,0,-1,-2
82159167697,0,0,0,-2,-10,-4,0,1
82159167697,0,1,-1,-3,-2,-2,-2,0
82159183345,0,0,0,2,2,1,-2,0
82159183345,-1,-1,1,6,2,0,-2,1
82159184163,-1,-2,-1,2,-3,-5,-2,-1
82159184163,-3,-3,-6,1,-17,-1,-5,-2
82159197701,0,-1,-2,1,-1,-4,0,0
82159197701,-2,-2,-1,-7,-13,-3,-2,-3
82159205206,1,0,5,4,32,6,0,1
82159205206,0,-2,-3,1,8,3,2,-1
82159220252,1,2,6,10,12,1,1,1
82159220252,-3,-4,-3,-7,-13,-4,-4,-4
82159227751,-3,-1,-4,3,-10,-3,-1,-3
82159227751,2,2,-2,0,-6,-1,1,0
82159243373,-1,0,-1,1,-4,2,0,0
82159243373,1,0,0,4,7,1,2,0
82159244152,-3,-2,-2,1,-5,-6,-4,-1
82159244152,-3,-3,2,0,1,-3,-5,-3
82159257721,-1,1,-3,-4,-9,1,4,-1
82159257721,0,-1,3,0,7,1,-2,-2
82159265199,-1,-2,-4,-4,-8,-4,1,1
82159265199,1,-2,-1,-3,-5,-2,-2,1
82159280205,2,-1,1,-1,6,2,1,2
82159280205,-2,-1,-1,2,1,-6,-9,-8
82159287708,0,-1,-2,0,-2,-2,-1,-1
82159287708,-1,0,-1,-4,-1,1,2,2
82159303402,-2,-2,-1,-2,-5,-5,-3,-7
82159303402,0,0,-1,6,7,5,3,6
82159304170,0,1,0,-3,-6,-3,-1,0
82159304170,-1,-1,-1,0,0,1,2,0
82159317758,0,0,-2,-3,-1,-3,-3,-3
82159317758,-1,0,0,3,-1,-2,0,-1
82159325217,0,0,-1,0,0,1,-1,-4
82159325217,-2,0,1,-4,-6,-3,-3,-3
82159340264,-2,-1,-2,3,1,3,-2,-2
82159340264,-2,-1,0,-1,-1,-1,-2,-1
82159347745,-1,0,0,-3,-3,-1,-1,1
82159347745,-2,-2,-3,1,4,2,2,-1
82159363343,-1,0,0,2,-2,-5,0,-2
82159363343,0,-1,-1,-4,-5,-3,-7,0
82159364133,-1,-3,-3,-4,-1,1,2,2
82159364133,-1,-1,-2,-4,-7,-3,-8,-15
82159377720,-3,0,3,9,17,0,-1,-4
82159377720,-1,0,0,-2,0,1,13,10
82159385194,0,-1,-2,-2,-7,-4,-8,-2
82159385194,1,1,0,8,6,2,-5,3
82159400213,-5,-4,-1,-6,-6,-1,11,-3
82159400213,0,2,-1,2,-1,1,-7,-6
82159416611,2,1,2,4,-1,-2,-16,6
82159416611,-4,-3,-5,-6,-11,-6,13,-3
82159423372,0,1,2,3,1,-3,-9,2
82159423372,0,-2,-3,-6,3,2,14,-6
82159424125,-3,-2,-2,-5,-6,-2,-2,-2
82159424125,0,1,1,-1,2,1,-7,2
82159445838,-1,-3,-3,-5,-7,-1,1,3
82159445838,-1,0,0,-7,0,0,1,0
82159446623,-2,0,-1,-3,2,0,-2,-4
82159446623,-1,-3,0,-2,1,1,1,-1
82159460231,-1,0,-1,-1,-4,-2,2,2
82159460231,-1,-1,-2,0,0,-3,-12,-2
82159467686,0,-1,-1,-3,-2,-3,3,-3
82159467686,-1,0,0,1,2,-1,3,1
82159482701,0,-1,-3,1,2,2,-1,1
82159482701,-1,-1,1,1,2,-3,-3,-3
82159490962,-1,-2,-3,4,-2,-3,2,-4
82159490962,-1,-2,1,1,4,2,3,5
82159505880,-2,-2,-3,-1,-2,-3,-8,-2
82159505880,-1,-2,-2,2,-1,0,6,-1
82159506649,-1,-1,1,-4,-4,-1,-4,0
82159506649,1,1,-1,1,0,0,-8,1
82159520235,-1,-1,-2,-4,-5,-3,-6,-5
82159520235,-1,-2,0,-1,1,3,2,1
82159527693,-1,-2,-1,0,5,1,5,-4
82159527693,-1,-2,-1,4,-7,-9,-6,-2
82159542716,2,-1,0,-4,-2,5,1,0
82159542716,-2,0,0,-1,-7,-5,-7,-5
82159550894,-2,-3,0,0,0,2,4,1
82159550894,-1,-2,-1,2,-2,-2,-2,-2
82159557741,0,0,1,-1,-1,-1,1,0
82159557741,-2,-1,0,-4,-3,-2,-3,0
82159565233,-1,-1,-1,1,2,0,-1,-2
82159565233,-2,-1,-1,0,2,0,-1,0
82159580231,0,-1,-3,2,-6,-4,-2,-2
82159580231,-1,-1,-2,-5,2,0,-4,0
82159587750,-2,-3,-2,3,-2,-3,0,-1
82159587750,3,2,2,-2,3,1,0,-2
82159602698,-2,0,-2,-3,0,-2,-2,0
82159602698,-1,-1,-1,1,-3,-3,-1,1
82159610927,-1,1,-3,-3,-1,-1,0,-3
82159610927,-1,-3,-2,2,-3,-1,-1,-2
82159617711,-1,-2,-2,0,-2,-1,-2,-1
82159617711,-1,0,0,3,-1,-1,-2,0
82159625214,-1,-1,1,-2,-4,0,2,-1
82159625214,-2,-2,-1,-4,2,2,2,-1
82159640220,1,-3,-1,1,-2,-4,-2,-2
82159640220,1,-1,0,2,-4,-1,-3,-1
82159647707,0,0,1,1,-2,0,0,0
82159647707,0,0,-2,-6,3,0,0,-2
82159662757,-1,-2,-2,0,-3,-1,1,-1
82159662757,-2,0,-1,-5,2,-4,-1,-2
82159670897,-1,-2,-3,-4,0,-1,-1,-2
82159670897,-1,-2,-1,3,-1,-2,-1,0
82159685886,-3,-1,-1,-7,1,-1,-1,-1
82159685886,0,-1,-1,-1,-1,1,2,-1
82159686644,-1,0,0,-3,0,0,-3,-1
82159686644,-1,0,-2,-3,-1,-1,-1,0
82159700254,0,0,0,0,0,-2,-2,-4
82159700254,-1,0,-1,0,-3,0,2,-1
82159707735,-1,-1,-1,-4,-1,-3,1,-1
82159707735,-1,-1,-1,0,-2,0,0,0
82159722732,0,-1,-1,-3,0,-1,0,1
82159722732,-1,-2,-5,3,-4,-5,-6,-3
82159730892,0,-1,-3,0,-4,-1,0,-1
82159730892,-1,-3,-2,-1,1,0,0,-1
82159745917,0,0,0,-8,-2,1,-1,0
82159745917,0,-3,-1,7,-1,-1,1,-2
82159746682,-1,0,-1,-1,0,-2,-3,0
82159746682,-2,0,-1,-3,-3,-2,-2,-2
82159760242,-3,-4,0,6,-1,1,-1,0
82159760242,-2,-2,0,-1,-1,2,-1,0
82159767769,0,-2,-1,1,-3,-1,0,-1
82159767769,-1,-2,-1,-2,-1,-1,0,-2
82159782711,1,0,0,-3,-1,-2,-2,0
82159782711,-2,-1,-2,-3,-1,-3,-1,-1
82159790917,-1,0,0,1,1,-3,0,-1
82159790917,-1,-3,-1,-7,0,-2,-1,-2
82159805945,-2,-3,-3,5,-3,-1,-1,-2
82159805945,-1,-3,-4,-3,-1,-2,-3,-1
82159806679,-1,1,1,-4,-2,-3,-2,-2
82159806679,-2,1,-1,0,0,0,-3,0
82159820187,0,-2,0,3,-2,-2,-1,-1
82159820187,0,-2,0,-4,0,-1,-1,-1
82159827694,-2,-1,-3,4,2,1,-1,0
82159827694,1,-1,0,0,-5,-2,1,-1
82159842707,-2,-2,-1,-4,0,1,-3,-2
82159842707,1,3,-2,-4,-3,0,0,-1
82159850942,0,-1,-2,-1,-1,-3,0,1
82159850942,-2,0,-2,-2,1,-1,-1,-1
82159865877,-2,1,0,-1,1,-1,-1,-2
82159865877,0,-1,-1,0,-1,0,-1,-1
82159866648,-1,-3,-1,-4,-2,3,0,-2
82159866648,-1,-2,-1,-1,-2,-1,-2,0
82159880379,-3,-1,-4,2,0,0,1,0
82159880379,-1,1,1,-1,0,-1,2,-2
82159887720,-1,-1,0,3,0,-2,0,-2
82159887720,-1,-1,-1,-1,-2,-2,-1,0
82159902752,0,-1,-1,-2,-2,-2,-1,-1
82159902752,0,-2,-1,-2,0,2,-2,0
82159910999,-1,-3,-1,3,-2,0,-1,1
82159910999,1,-1,-2,2,2,-1,1,0
82159925892,-1,1,-2,-4,1,-3,-1,-1
82159925892,-2,1,-1,3,1,-2,-3,-1
82159926671,0,-1,0,2,-2,0,1,-2
82159926671,0,-1,1,1,0,1,-1,-1
82159940259,-1,-1,1,9,-3,-3,-2,-1
82159940259,-2,-2,1,4,-3,0,0,-1
82159947748,-2,-1,-1,-4,-3,-2,-2,0
82159947748,1,-2,-1,6,-1,-2,-1,-1
82159962740,-1,-3,-1,0,-1,-2,0,-2
82159962740,-1,-2,-2,-3,0,-2,0,-1
82159970899,1,-1,0,-4,2,-1,0,-2
82159970899,-2,0,-1,1,-4,-1,1,-1
82159985884,0,-2,-1,-8,-4,-3,-1,-1
82159985884,-1,-2,-1,-1,-4,-2,-1,0
82159986664,-2,0,-3,1,-4,-2,-3,1
82159986664,-1,0,-2,0,-1,-2,-2,1
82160001830,-1,-2,-1,5,0,-2,-2,0
82160001830,2,0,-1,0,1,-1,0,0
82160007721,-3,-1,-1,-4,0,-1,1,-2
82160007721,-1,0,0,-3,0,-1,-3,-2
82160022765,-3,-1,-1,4,-2,-1,0,-3
82160022765,-2,-2,-1,0,1,0,-1,-1
82160030910,1,-1,-1,6,1,-1,0,0
82160030910,0,-2,-1,-3,1,2,1,0
82160045919,-2,-1,0,-2,-3,-4,-1,-2
82160045919,0,-3,-6,1,0,-2,-1,0
82160046648,-1,0,0,-3,-2,-2,-1,-1
82160046648,-3,-3,-1,-5,-3,-2,-3,-3
82160060249,-1,0,0,-9,0,1,-1,1
82160060249,-1,-1,-2,-1,-2,-2,0,-1
82160075946,-1,-2,-6,-3,-3,1,-1,-2
82160075946,2,2,6,10,13,6,5,2
82160082693,-1,0,-2,5,-1,0,-2,-1
82160082693,-2,0,2,-2,-5,-3,-3,-3
82160090931,-1,-2,0,-2,1,1,-1,-2
82160090931,-1,0,-4,0,-5,-5,-1,-1
82160105899,2,-1,-1,-8,0,1,1,-1
82160105899,-1,-2,0,-6,-2,-2,-3,-1
82160106649,-1,-4,0,1,-1,-3,-1,-2
82160106649,-1,-1,0,-4,0,2,15,7
82160120214,-3,-2,0,-2,5,-2,-30,-14
82160120214,-2,-7,-8,1,-4,-9,-8,0
82160127726,7,17,2,2,-4,-4,9,3
82160127726,-3,-1,-3,-2,-1,0,1,1
82160142749,3,6,0,-5,-6,-1,11,3
82160142749,-3,-6,2,-2,4,3,-3,-3
82160150877,-1,-4,-1,3,0,-3,-6,0
82160150877,-2,-2,-2,2,-4,-2,-3,-5
82160165903,-1,-3,-1,2,-3,-1,4,1
82160165903,-2,2,4,-1,1,-1,-3,-3
82160166675,-1,-1,-3,-5,-1,0,-1,0
82160166675,0,-1,-1,-4,-3,-3,-5,-2
82160180227,-4,-6,-5,1,0,-1,-2,-3
82160180227,0,0,-2,-1,0,0,4,0
82160187834,-1,-3,1,0,1,2,1,0
82160187834,-2,-3,-2,-2,-1,-2,-7,-5
82160202758,-1,0,1,-5,-3,-3,1,1
82160202758,-1,1,-1,-2,-1,1,4,-1
82160210947,-3,-4,-2,-1,1,0,-6,-2
82160210947,-1,-2,-2,-4,-2,1,-5,-3
82160226534,0,1,0,1,2,-1,4,3
82160226534,0,1,-2,-4,-2,-1,2,-1
82160227335,-4,-4,-3,-6,-3,-1,-5,-3
82160227335,-2,-1,-1,4,-2,-1,-3,-1
82160240286,1,-1,-2,-1,-1,-1,3,2
82160240286,0,3,3,-3,0,-2,-1,-1
82160247753,-2,-3,-3,1,0,0,1,-2
82160247753,-1,-2,-2,-3,-6,-2,-1,-2
82160262727,0,-1,1,3,1,1,-2,-1
82160262727,0,-2,-2,-2,-1,2,0,0
82160270930,1,0,0,0,-2,-1,0,0
82160270930,0,0,-1,2,1,-3,-1,-1
82160285929,-1,-3,-3,0,-1,-2,0,-1
82160285929,-1,1,-2,-1,-3,-1,1,0
82160286719,-1,-2,-2,1,0,-2,-3,-2
82160286719,1,-1,0,1,-1,-1,-1,-2
82160300255,2,-1,1,-3,0,-2,2,-2
82160300255,-1,-1,-1,2,-1,-1,1,0
82160307744,-1,0,-2,-2,-1,-1,-2,-1
82160307744,-1,-2,-2,-1,-4,-3,-3,0
82160322718,0,0,2,4,0,1,2,-1
82160322718,2,1,2,2,0,0,-2,0
82160330971,0,-2,-3,1,-2,0,-2,-2
82160330971,0,0,-4,-3,-1,1,0,-2
82160345861,-1,1,-1,-5,-2,-2,-1,0
82160345861,0,-5,-2,-4,0,-3,-2,1
82160346678,1,0,3,1,1,0,-1,-1
82160346678,1,0,1,-2,0,-2,-1,1
82160360249,-3,-2,-2,0,-3,-3,-2,-1
82160360249,-3,-2,-3,3,-1,-1,-1,-1
82160367723,-3,-2,-2,-1,-4,-1,-2,-1
82160367723,-1,0,-1,0,0,-2,0,-2
82160382716,-1,0,0,7,-1,-1,1,0
82160382716,-1,1,2,1,0,-1,-1,0
82160390918,-2,-2,-2,1,0,-1,0,0
82160390918,0,-1,-1,2,-3,1,1,-1
82160405208,-1,-2,-3,1,-1,0,0,1
82160405208,0,-1,-1,3,-2,-1,1,-1
82160413444,0,0,1,-2,-1,-2,0,1
82160413444,-1,0,-1,-3,-2,-4,-3,-2
82160420231,-2,0,0,-1,1,1,0,0
82160420231,-3,-4,-2,0,-2,0,-3,-2
82160427757,-3,-6,0,-6,-4,-3,-2,-3
82160427757,-2,-7,-13,-4,-4,-3,-2,-2
82160442725,0,-4,-26,14,-3,-3,-1,-1
82160442725,1,3,9,0,3,6,1,-1
82160458438,3,5,9,-2,4,3,4,2
82160458438,0,1,0,6,4,2,1,1
82160465214,-2,4,44,-2,1,1,-1,0
82160465214,1,6,19,0,8,-3,0,1
82160473479,-2,-3,-1,-3,1,-6,-2,-1
82160473479,-3,-5,-32,-4,-4,-1,-4,-1
82160480241,-4,-8,-16,-5,-4,-2,-3,-1
82160480241,-1,-5,-11,2,-9,-3,-2,0
82160487745,-2,-2,-1,-2,-5,-3,-4,-1
82160487745,-1,-3,2,0,-1,-2,0,-1
82160502827,-1,-1,-8,-4,-3,-3,-3,-2
82160502827,-1,-1,3,-2,-1,0,1,0
82160510913,-1,1,-3,2,0,1,3,-1
82160510913,-1,0,3,1,1,2,0,0
82160525237,0,0,6,-7,-1,-1,-2,-1
82160525237,-1,0,-4,-3,-2,0,1,-1
82160533423,0,-1,-7,-2,-5,-3,-2,-2
82160533423,-1,1,9,-1,7,2,-2,-1
82160540270,1,2,2,-1,0,-3,2,0
82160540270,0,-3,-7,-3,9,2,-1,-1
82160555972,-1,-4,-4,-1,-3,1,-2,-1
82160555972,-2,-1,8,-2,-3,-11,-3,-1
82160562745,1,0,-5,-4,-2,-6,-3,0
82160562745,-1,-2,-9,-3,-3,7,0,-3
82160570952,0,-1,1,0,4,6,-3,-1
82160570952,-1,-1,4,-6,-9,1,-1,-1
82160585246,-2,-2,-5,2,4,-5,-1,-1
82160585246,-1,-1,-4,-2,-7,-9,-2,-1
82160593504,-1,-1,-1,-6,9,7,1,-2
82160593504,1,0,-2,-2,-8,-9,-2,-1
82160608393,0,-1,-4,0,-6,2,1,0
82160608393,0,-2,-1,-2,4,-2,-1,0
82160609181,0,-2,-2,-5,-6,-3,0,-1
82160609181,0,-1,0,-1,-8,2,0,-2
82160622757,-1,-1,-2,-2,9,3,1,0
82160622757,-2,1,1,0,-2,-8,5,2
82160630971,0,-1,-2,2,4,1,-4,0
82160630971,-2,0,2,-3,5,2,-5,-4
82160645235,0,-1,-2,-1,-11,-1,-5,-2
82160645235,-2,-2,-5,-10,-5,-2,-1,-1
82160653439,-4,-1,-5,3,-3,-5,3,1
82160653439,-2,0,2,3,-3,-1,1,2
82160668424,-2,-3,0,-5,-7,-1,-2,-3
82160668424,-1,0,-4,3,5,0,-1,-1
82160669169,-2,-1,0,0,-3,-5,-1,-1
82160669169,0,-1,-1,-1,3,0,-1,1
82160682772,-2,1,-1,2,-1,1,1,-2
82160682772,-1,-2,-1,1,-7,-13,-1,0
82160691005,0,-1,1,0,0,0,-1,-1
82160691005,0,0,0,1,8,5,-8,3
82160705246,-1,-2,0,-1,2,1,1,0
82160705246,-2,-1,0,0,-4,-5,-10,-2
82160713424,-1,1,0,3,-5,-3,-2,-1
82160713424,-1,-2,0,-2,-1,-4,0,-2
82160728395,1,0,0,-3,8,6,-3,1
82160728395,-3,-1,0,-2,1,3,-7,-5
82160729151,0,-2,-1,-1,2,0,1,3
82160729151,-2,1,0,0,-8,-2,-9,-6
82160742746,0,-1,-1,-4,-13,-14,-2,-3
82160742746,0,-2,-2,0,11,8,4,0
82160750942,-1,-2,-2,0,9,6,-1,-1
82160750942,1,-1,0,4,1,-4,-1,0
82160774110,-1,-3,-4,-1,-6,-7,4,4
82160774110,-3,-2,-2,-3,-13,-6,5,-3
82160774851,-2,-2,-1,2,0,-3,-1,-8
82160774851,1,-2,1,-3,4,5,-4,0
82160788416,-2,-2,-1,-2,-3,1,-7,-3
82160788416,-1,-1,-3,3,-1,0,0,2
82160789172,-1,-1,1,-3,-7,-4,-7,0
82160789172,0,-2,-3,-7,-2,-4,2,0
82160803016,-4,-2,-2,-2,1,1,1,-4
82160803016,2,0,2,1,11,7,-14,0
82160810917,-2,-1,-3,1,-10,-3,0,0
82160810917,0,2,1,12,16,1,0,1
82160825276,0,-2,0,-5,3,-2,-1,2
82160825276,-1,-2,-3,-6,-3,-3,-1,-4
82160833417,-2,-2,-1,1,-15,-6,2,2
82160833417,-3,-1,-1,1,-6,5,3,-2
82160848428,0,2,0,7,8,8,1,0
82160848428,2,-1,0,-2,-2,3,4,0
82160849180,1,-1,-2,0,1,-4,1,0
82160849180,-1,-1,-1,-3,-3,1,10,0
82160862832,0,0,0,2,5,-5,-13,-4
82160862832,1,-3,-1,-1,-13,-2,5,3
82160870930,1,-1,-3,-3,2,7,-6,2
82160870930,-1,0,-1,-3,4,-2,-1,-2
82160885272,-1,1,-2,-4,5,5,1,1
82160885272,-1,-1,-2,-1,6,-8,1,0
82160893416,0,-1,1,-1,-6,1,-6,-3
82160893416,0,0,-1,-3,-5,-2,-1,1
82160908430,-1,-2,-1,1,-6,-9,10,-3
82160908430,-2,-1,0,0,-4,-3,2,-2
82160909172,-2,-2,-3,-1,-3,-6,11,-1
82160909172,-3,-2,-2,-6,-3,0,3,0
82160922815,-1,-3,-1,-2,-6,-2,-7,-5
82160922815,-1,0,-1,-6,2,3,1,0
82160930908,-2,-2,-1,-4,-1,-10,-4,-2
82160930908,-1,-1,-3,-2,-10,1,3,2
82160945260,-1,-3,-1,-1,-4,-10,-10,-1
82160945260,-3,-1,0,-3,0,6,-1,0
82160953461,0,-1,0,1,6,5,-4,-3
82160953461,-2,-2,-1,-2,-2,-6,-3,-1
82160968845,-1,-1,-4,-5,-13,-5,2,4
82160968845,-2,0,2,0,15,20,-3,-4
82160975968,-1,-2,-2,1,-13,-15,-1,-2
82160975968,-2,-3,0,0,10,-6,4,0
82160982733,0,-1,-1,0,-1,7,5,-1
82160982733,1,-2,0,0,-8,-5,-15,0
82160990994,0,-2,-2,0,-6,2,1,4
82160990994,0,-1,0,4,9,-2,-4,-2
82161005223,-1,0,-1,4,2,3,4,2
82161005223,0,-1,-2,-1,1,-4,-4,-2
82161013503,1,0,-1,-3,3,7,4,-1
82161013503,-2,-3,-4,-1,-12,-12,-6,-3
82161028398,-1,0,0,-1,3,7,-6,-4
82161028398,-1,-3,-3,2,-9,-6,7,-3
82161029180,-1,0,-3,4,6,11,0,0
82161029180,-1,0,0,1,-1,7,9,1
82161042780,-1,0,-1,-1,1,3,-3,-3
82161042780,0,-1,1,2,12,-9,-7,1
82161050948,-2,-3,-1,-1,-29,-11,-4,-2
82161050948,-1,1,-2,-5,12,14,-4,-4
82161065244,-2,-1,-1,0,4,1,1,1
82161065244,1,1,2,1,12,0,8,3
82161073425,-1,-3,-2,0,9,-5,0,-4
82161073425,-2,-1,1,3,-5,-2,-6,-2
82161088411,1,-2,-1,-3,-7,-4,-8,3
82161088411,-2,-1,-1,0,-3,-1,-2,-7
82161089147,1,1,1,-3,1,-3,-8,-1
82161089147,-1,0,-1,7,-5,0,-6,-3
82161111603,-1,-1,-1,1,13,9,1,0
82161111603,-1,-2,-5,-1,-15,5,0,2
82161112384,-1,0,-1,4,0,-3,0,1
82161112384,-1,-1,-2,0,1,-2,-1,0
82161125282,0,-3,-1,-6,-3,-4,0,-1
82161125282,-2,-3,-2,0,-6,-7,3,2
82161133450,-2,1,1,0,4,1,-2,-1
82161133450,-2,1,0,-8,4,12,-1,-2
82161148429,-2,-2,-2,-3,6,3,7,1
82161148429,2,-1,0,0,-9,0,-3,1
82161149245,-4,-1,-1,1,9,-7,-2,-2
82161149245,1,-2,2,0,-19,-8,1,1
82161162830,0,0,-2,-1,-4,-2,-3,-3
82161162830,-1,-1,-1,-6,1,2,-6,-2
82161171793,-2,-2,-1,-5,4,3,9,-7
82161171793,1,-2,-2,1,1,-5,2,0
82161185272,-2,1,0,1,-2,2,0,0
82161185272,-2,-3,-3,6,-11,-5,-3,-3
82161194216,0,-1,1,0,11,-4,-2,0
82161194216,-1,-1,-2,-7,4,2,0,0
82161207763,-2,-1,-1,0,-7,-11,-6,-2
82161207763,-1,0,-4,2,-6,-7,2,3
82161216818,0,0,0,-2,-1,9,-6,0
82161216818,-3,-2,0,-1,4,-4,0,-2
82161222823,1,1,0,3,-9,-4,-2,2
82161222823,-3,-1,-3,-1,3,2,-4,-3
82161231708,-1,-2,-3,0,2,9,-2,-3
82161231708,0,-4,-2,-2,2,-3,-2,-2
82161245309,0,-1,-1,-1,-3,-4,3,-1
82161245309,-1,-1,-1,-2,-5,-1,4,0
82161254255,0,-3,-3,2,-2,2,-4,4
82161254255,1,-3,-2,0,-2,-2,0,-1
82161267759,-2,-2,0,-2,3,1,5,-1
82161267759,0,0,-2,-1,-5,-6,-3,-2
82161276781,0,1,-2,-6,-2,1,-2,0
82161276781,-2,-3,-1,3,-7,-6,-2,2
82161282804,-2,-1,-2,-2,-2,-10,4,1
82161282804,-2,-3,0,-2,14,2,-3,-5
82161291780,-2,-1,-1,-3,-19,-2,4,-2
82161291780,0,-2,-4,-3,8,-8,-2,0
82161305238,-2,-2,2,-3,0,0,-4,-4
82161305238,0,0,2,-6,-1,-4,-2,0
82161314249,-1,0,0,-2,3,2,-1,-5
82161314249,-1,-1,-3,3,-11,-6,-1,-1
82161327732,-1,-1,0,-2,2,11,-1,1
82161327732,0,1,1,-2,-8,4,-7,0
82161336791,-1,1,-1,2,5,1,-3,2
82161336791,1,1,0,-1,-8,-2,0,2
82161342748,-1,-2,-1,2,4,-8,-3,-4
82161342748,-2,-1,-4,5,-2,1,1,0
82161351789,-1,-2,-2,-2,-4,-16,8,0
82161351789,1,0,2,-2,5,5,-15,0
82161365244,0,-2,-2,-2,0,2,-3,0
82161365244,-1,-3,-3,0,-2,3,-1,-5
82161374261,-1,-1,-1,1,1,-1,-4,-2
82161374261,-1,-1,-2,2,-1,-4,3,-1
82161387750,-1,-1,0,-3,-3,3,2,-3
82161387750,0,-1,0,-3,-3,-5,3,-1
82161396777,-1,-1,1,3,-3,-8,-3,-1
82161396777,-3,1,2,-3,9,14,-10,-6
82161402777,0,-2,-1,0,-2,4,-8,2
82161402777,-1,-2,-1,2,4,-2,-4,0
82161411770,0,-2,-1,3,-3,-6,-3,-1
82161411770,0,-2,-4,0,0,1,2,-4
82161425262,0,-1,-1,-1,-3,2,-6,-2
82161425262,-1,-1,-2,1,3,2,0,1
82161434277,-1,1,1,-5,4,13,-12,-7
82161434277,-1,-2,-1,1,-2,-3,-1,-2
82161447846,0,-1,-2,5,-3,-8,3,0
82161447846,0,-1,-1,-1,-5,-4,-1,-4
82161456807,-1,-4,-3,0,0,-7,7,3
82161456807,-2,-1,-1,3,-2,7,-4,-2
82161462714,-1,1,-1,-11,1,5,-4,-1
82161462714,1,0,-2,-1,-1,-4,5,4
82161471769,-1,-2,-2,-1,-3,0,2,0
82161471769,0,-3,-4,-1,-5,-4,3,-2
82161485288,-1,-1,1,2,-3,-7,1,1
82161485288,-3,-1,0,-1,-2,-5,-2,-3
82161494234,0,-2,-3,-3,4,-2,1,0
82161494234,-1,0,0,-6,-11,-1,2,-1
82161507849,-1,-2,0,3,-6,2,-2,-3
82161507849,0,-2,-2,-5,12,-4,0,1
82161516773,-1,0,0,1,-4,0,-3,-3
82161516773,-1,-2,-3,6,0,-8,2,2
82161522746,-1,-2,-4,0,-4,-13,4,-5
82161522746,-2,0,2,0,-10,-1,0,-2
82161531820,-1,-2,-2,-2,4,1,1,0
82161531820,-1,-4,-1,-7,3,-1,2,2
82161545692,0,1,1,-5,-5,-2,-2,-2
82161545692,-1,-3,0,3,-14,-7,3,0
82161554223,-1,0,1,-2,4,2,-6,-5
82161554223,-1,-3,-3,2,-4,2,-2,-6
82161567830,-3,-1,-3,-3,7,4,0,0
82161567830,0,-1,-1,1,-2,0,0,-1
82161576776,-1,-2,-2,0,-7,-8,10,6
82161576776,0,1,0,-4,0,-2,1,2
82161591596,-1,-2,-2,0,-1,0,0,2
82161591596,0,2,-1,2,1,2,-5,-4
82161593194,0,-2,-1,1,-1,0,3,0
82161593194,-2,0,1,2,3,-1,2,-1
82161605260,0,-1,-3,2,0,4,2,4
82161605260,0,-1,-1,-1,-1,1,-5,2
82161614275,-1,-1,-2,2,1,4,-5,0
82161614275,-3,-2,0,-11,0,-2,1,0
82161627751,-1,-1,1,0,4,1,-8,-5
82161627751,-5,0,0,-1,-1,2,-1,1
82161636791,-1,0,0,-3,-1,-1,-1,-4
82161636791,-1,-2,-5,6,-6,-10,10,2
82161651648,-3,-2,-2,0,-4,-7,4,-1
82161651648,0,-2,-3,0,7,2,4,4
82161653243,-3,-1,0,-1,-3,-6,-8,-8
82161653243,-2,-4,-1,7,-7,-13,16,1
82161665299,-1,-1,0,-1,2,10,-14,-10
82161665299,-1,-2,-1,-2,0,0,0,-1
82161674250,-3,-3,1,-3,-2,0,0,0
82161674250,-1,-2,-3,4,-2,-2,4,1
82161687816,-1,-1,-3,-1,-6,-13,4,2
82161687816,-1,-2,-1,-9,5,8,-6,-4
82161696775,0,0,-2,-1,-3,0,-2,-1
82161696775,-1,0,0,-5,0,4,-8,-2
82161711594,1,-1,0,1,4,4,-1,-1
82161711594,-1,1,-1,-5,-1,5,-2,-1
82161713192,-1,-1,0,-3,-1,-5,4,2
82161713192,0,-1,0,-3,-1,-4,3,1
82161725295,-2,-1,0,1,0,2,-5,0
82161725295,0,-1,0,0,8,-2,4,-2
82161734275,-1,-2,-1,1,-11,0,-5,-6
82161734275,-1,-1,0,-2,1,-5,-8,-2
82161747760,0,-1,0,0,-2,3,2,4
82161747760,-3,-1,0,1,-2,-7,-1,-2
82161756788,-1,-2,-3,2,0,-2,1,2
82161756788,-1,1,2,0,1,2,-5,-6
82161771616,-2,-1,-3,0,0,-9,0,0
82161771616,-1,-1,-2,3,-5,-2,1,0
82161773218,1,1,1,3,1,9,-5,2
82161773218,0,2,1,-1,14,12,-6,-3
82161785286,0,-1,-3,-4,-7,4,0,3
82161785286,-1,-1,-1,-5,-12,10,-14,-7
82161794272,-3,-2,-1,4,-1,-2,0,-1
82161794272,0,-1,-1,-3,2,7,-5,-2
82161807841,-3,-3,-2,0,3,-7,9,-4
82161807841,-1,-3,-1,-1,-2,-7,4,1
82161824280,0,0,-1,-3,-8,-9,-1,0
82161824280,-1,0,-3,0,1,6,-6,-4
82161831584,0,1,-2,2,0,-4,4,1
82161831584,-1,-1,-1,1,-2,-4,-1,0
82161833234,0,-1,-2,-3,4,-3,0,1
82161833234,-1,-2,-2,6,-6,-7,-2,-1
82161845253,-1,-1,0,3,-1,1,0,0
82161845253,3,-2,-2,4,-7,-7,3,7
82161854287,0,-2,-2,-2,1,-1,3,14
82161854287,-3,-3,-1,-8,-2,10,-4,-26
82161867839,0,0,2,0,-2,0,-1,-1
82161867839,-1,-2,-1,2,2,0,-5,-3
82161877401,0,0,-2,0,-5,-6,2,3
82161877401,0,-2,-1,3,-6,-1,-1,9
82161891657,-1,0,0,1,2,-4,-5,-2
82161891657,-1,2,-4,-1,5,2,3,0
82161893224,0,-2,-3,3,-2,-2,3,-2
82161893224,-1,0,-2,5,-4,0,1,-3
82161905240,-3,-4,1,0,-4,-9,4,4
82161905240,-1,0,-2,-2,-2,4,-1,1
82161914281,0,0,-1,-3,1,6,-4,-8
82161914281,1,-2,0,-1,0,-6,-1,1
82161927827,1,2,2,1,-1,0,-11,1
82161927827,0,-1,3,-3,-1,4,-2,-4
82161936809,-1,0,-1,-2,5,6,-2,-2
82161936809,-2,0,-1,-4,-2,-4,0,0
82161959135,0,-1,-4,-3,2,0,1,-4
82161959135,-1,0,-1,-1,2,-2,-1,-6
82161960767,-2,-1,0,-2,-2,-1,-4,-4
82161960767,0,-3,-1,0,-8,-10,1,8
82161965276,1,-1,-3,0,2,5,2,1
82161965276,-2,-2,-1,-1,-2,-8,-4,-3
82161974233,-1,0,3,-6,2,2,-10,-6
82161974233,-2,-2,-2,-6,-4,-5,0,2
82161987828,-1,-2,-2,0,-2,-3,4,-3
82161987828,1,-2,-1,2,-1,-1,-1,0
82161996804,-1,-2,0,-4,1,2,-15,-5
82161996804,-2,0,1,-4,-2,-2,-4,0
82162012284,0,0,-3,3,3,4,-2,-2
82162012284,-1,-1,-1,3,-2,-3,1,0
82162013882,0,-1,-3,1,-6,-3,3,1
82162013882,1,-2,-2,2,0,1,-1,-1
82162025286,-1,-3,0,-4,-2,-3,-7,-4
82162025286,-2,-1,-2,-4,-2,-6,-2,-4
82162034260,-2,-1,-4,-1,0,1,3,1
82162034260,0,-1,0,0,2,-1,-5,-2
82162047852,-2,-2,-2,-5,-4,-5,4,-1
82162047852,0,-3,-3,-4,-3,2,-1,1
82162056777,0,-2,0,0,-4,-8,3,0
82162056777,-2,-2,-2,0,0,4,-3,3
82162071192,-2,-3,0,-1,1,1,1,0
82162071192,-1,-1,1,-1,-3,-9,7,0
82162079229,0,-2,-3,-4,-3,-5,-6,-2
82162079229,0,-1,-2,7,2,4,4,4
82162085269,1,-1,-2,-5,-4,-9,-5,5
82162085269,-2,-1,-2,1,4,13,-9,-5
82162101820,-1,-1,-2,0,0,4,2,0
82162101820,0,0,-4,-1,-6,-4,-1,0
82162116665,-2,0,0,-5,-2,2,-3,-4
82162116665,1,-2,-1,-1,1,-6,2,2
82162118302,-2,0,2,0,-3,-9,-1,-5
82162118302,0,-2,0,-1,6,10,-1,-1
82162131703,0,1,-3,-4,-4,7,1,2
82162131703,-2,-2,1,-3,-2,-3,1,-2
82162133251,1,-2,-1,-2,1,2,0,-3
82162133251,-1,-1,-1,2,-5,-5,-4,5
82162145247,-2,0,-1,-1,16,-1,-1,-9
82162145247,0,-2,-1,0,-14,3,3,4
82162154248,0,-1,-1,4,5,11,-7,-7
82162154248,0,-1,-3,3,-6,-7,1,-3
82162167854,0,0,-1,1,0,-2,-4,-2
82162167854,-2,-1,-2,1,3,-3,0,-5
82162184275,-1,1,-1,2,1,5,4,2
82162184275,-3,-1,-1,-6,0,-2,-3,-4
82162191613,-3,0,-2,4,-8,1,1,-4
82162191613,0,-3,-4,4,-7,-6,-2,3
82162193234,-2,-2,1,1,9,0,2,-1
82162193234,1,-1,-2,4,1,-4,-2,-1
82162205739,-1,-2,0,1,5,-1,2,-1
82162205739,-1,2,-2,-3,17,10,-3,2
82162220279,-2,-3,-2,0,-31,-10,5,0
82162220279,-2,-1,-1,0,9,3,-2,-1
82162227801,-1,-2,-2,0,-8,-3,-5,-4
82162227801,-1,0,-2,1,5,-13,11,1
82162236778,-5,0,-1,-3,4,-4,8,-6
82162236778,-1,-1,0,-6,-7,-6,4,-1
82162251427,0,-1,-2,-2,-1,-5,3,5
82162251427,-1,-1,1,-4,3,12,-1,-3
82162273865,1,-2,-2,5,-5,-25,-4,-3
82162273865,0,-2,-2,5,3,9,8,2
82162281642,0,0,-2,2,-7,-4,1,1
82162281642,-1,0,-1,4,-3,-10,-4,-2
82162283295,0,-2,-1,-5,-2,-1,10,5
82162283295,-1,-1,-2,-8,-1,-6,-2,-6
82162287815,3,-2,0,1,2,9,-3,3
82162287815,-1,0,-1,-4,-10,1,0,-5
82162296780,0,-1,0,1,3,0,-2,1
82162296780,-3,0,2,2,0,-7,3,-2
82162310985,-1,0,0,-2,10,5,-3,-3
82162310985,-2,0,0,-1,-27,-7,-5,1
82162317805,-2,0,-2,3,16,12,-10,0
82162317805,-1,-1,0,-2,0,-1,-4,-2
82162334140,-1,-4,-3,-3,-5,-7,0,3
82162334140,-2,0,1,2,7,-3,1,-1
82162335818,0,0,-4,-1,-4,3,1,1
82162335818,-1,-1,-2,-5,-5,-6,-4,1
82162356699,0,0,-2,4,-8,-2,5,4
82162356699,-2,-2,0,0,11,0,4,0
82162358248,-1,0,-2,-2,-7,5,0,0
82162358248,-1,0,0,-6,-2,-5,-4,-1
82162371174,0,0,-2,1,-11,-13,9,1
82162371174,3,-2,-3,-3,-7,3,0,0
82162396250,-2,-2,1,-2,7,0,0,-2
82162396250,-2,0,0,-4,-1,-5,2,-1
82162397068,-3,0,0,-4,-5,7,-8,-6
82162397068,-1,-2,-2,-2,-7,-4,-4,0
82162400292,0,-2,-1,-2,5,1,-14,-4
82162400292,-2,-2,-1,-2,-5,-10,-4,-3
82162407839,-3,0,-2,1,5,9,-8,-2
82162407839,-3,1,-2,-5,4,4,-8,-3
82162424299,0,0,-1,-3,-1,5,1,1
82162424299,-1,-2,-3,-3,-22,-2,0,1
82162430951,-1,-1,0,-8,7,7,-10,-7
82162430951,0,-1,1,-3,-2,-6,3,3
82162437838,-2,0,0,2,4,1,2,3
82162437838,-1,0,-1,-1,10,6,-2,-1
82162445319,0,-2,-2,0,-3,-4,1,-2
82162445319,-1,-1,-4,0,0,-2,-1,-1
82162454269,1,0,-1,-8,0,-1,-1,-2
82162454269,-1,0,-1,3,-5,7,-4,-3
82162467819,-1,-1,-1,-5,-13,-10,-1,-2
82162467819,1,-1,0,-2,5,0,-4,-5
82162476788,-4,-1,-3,-6,4,-3,6,5
82162476788,1,-1,-3,0,4,4,5,0
82162490967,-1,0,1,1,3,0,-3,-4
82162490967,-2,0,0,-3,1,6,-10,-3
82162497847,-2,-2,-2,-2,-2,0,0,-5
82162497847,0,-1,0,4,-1,-4,-1,-1
82162514185,-1,0,0,0,3,2,-4,-1
82162514185,-1,-4,-4,1,-1,-3,2,-2
82162515799,-1,-1,1,2,-7,-5,9,3
82162515799,-3,0,0,-2,15,1,-4,-1
82162527817,-1,0,-2,1,-16,-4,2,0
82162527817,-1,0,0,2,-1,-3,0,-3
82162536819,-1,-1,-2,2,-3,-6,1,-2
82162536819,-1,-1,0,3,3,-2,-1,-2
82162551009,-1,-2,1,4,7,-3,0,-1
82162551009,-2,-1,-1,2,-3,2,-1,-1
82162557813,0,-2,0,0,-5,-1,-5,-2
82162557813,-1,-1,-1,-2,-1,1,0,-1
82162574207,-3,-4,-2,-4,0,-1,-3,-4
82162574207,1,-1,-1,1,27,-3,-3,9
82162575786,0,-2,-1,3,-32,-1,-1,-2
82162575786,1,-2,-2,1,8,5,-2,0
82162587811,-1,0,-1,1,1,-3,-2,-2
82162587811,1,-1,-1,-4,0,-4,0,-5
82162596810,-2,-2,-4,-2,5,-4,0,8
82162596810,-2,0,-2,2,-7,-2,-4,-8
82162610970,-1,-1,-3,-3,-3,-3,3,3
82162610970,1,1,0,2,-4,4,-7,0
82162617826,1,-1,1,-2,1,-6,-4,-3
82162617826,-2,1,-1,-3,-8,2,0,-2
82162634158,-3,-1,0,-1,4,-7,1,0
82162634158,-3,-3,-3,0,-12,-3,3,-1
82162635812,-2,-3,-4,-1,11,-5,11,0
82162635812,-1,-1,0,-1,-14,1,0,2
82162647823,0,0,1,-1,6,3,-1,-1
82162647823,-2,0,1,-3,-17,-6,1,-1
82162673152,-2,-1,0,-2,-5,-5,4,-4
82162673152,-1,-2,-2,0,5,2,-5,-3
82162673952,0,-2,-1,-1,-4,0,8,4
82162673952,-2,-3,-1,-2,-3,-1,2,-3
82162677859,0,-1,-2,-3,2,2,-4,-2
82162677859,1,1,1,0,-7,-10,-7,1
82162694126,-1,-2,-2,-1,3,0,-1,2
82162694126,-2,0,-2,-7,-3,1,-3,-1
82162695809,-1,0,-1,1,3,0,-4,-4
82162695809,1,-2,0,2,-2,-1,0,1
82162707859,-1,-1,0,0,3,-5,-5,-5
82162707859,0,0,-1,-2,1,0,1,3
82162716854,1,-1,-1,2,-3,0,-6,2
82162716854,-1,-1,-1,0,4,-1,0,2
82162730999,-1,-1,-1,-1,-4,-3,1,-5
82162730999,-3,0,0,2,-4,-1,1,4
82162737835,-1,-2,-2,0,-1,2,-4,-2
82162737835,-1,-2,-2,3,2,1,-1,-2
82162754155,-2,0,0,-3,-1,2,0,-1
82162754155,0,-2,-1,0,2,6,-1,-2
82162755796,0,-1,1,2,2,-8,-3,5
82162755796,-2,-3,-3,-2,-2,7,-6,-1
82162767911,0,-1,-2,0,0,3,1,-2
82162767911,-1,0,-1,-2,-19,-2,1,0
82162776797,0,-2,-1,-1,9,6,-3,-1
82162776797,-1,-2,0,-7,0,-4,1,-1
82162790965,-1,0,1,0,0,-3,-5,0
82162790965,-2,-2,-3,-4,4,-7,-2,-2
82162797796,-2,-1,-1,-5,-8,1,1,0
82162797796,1,0,0,-2,2,11,-10,-1
82162814119,-1,-1,-3,-6,1,-3,-5,-2
82162814119,-3,0,0,-3,2,-5,1,-3
82162815827,0,-1,-1,-2,1,-2,-2,-5
82162815827,-1,-1,-1,2,-6,0,3,0
82162827841,1,-2,-1,1,-6,1,1,1
82162827841,0,-1,0,5,3,2,-3,-3
82162842837,-2,2,0,-2,-2,-1,0,-2
82162842837,0,-1,1,-3,-1,-6,0,-1
82162850959,-1,-1,-2,0,-5,-1,-1,1
82162850959,-1,-1,-2,0,-2,-1,2,-1
82162857835,-1,0,-1,-2,2,3,-5,-2
82162857835,-1,-2,-4,-2,-1,-2,2,-4
82162874162,0,-1,-2,3,-3,-7,0,2
82162874162,0,-1,-2,2,2,2,0,-1
82162875769,-2,-2,0,-2,-1,0,-3,-1
82162875769,-2,-1,1,-3,-2,-8,-1,-4
82162887803,-3,0,-1,0,-2,-1,1,-2
82162887803,2,-1,-1,1,5,2,-8,0
82162896832,-2,0,-1,2,-1,5,2,-1
82162896832,-3,0,0,-1,2,-6,2,1
82162911000,1,-2,-1,2,2,-1,-2,-4
82162911000,-1,-1,-1,-3,-1,-2,1,-1
82162917820,0,-1,-2,1,-3,-1,-2,0
82162917820,1,-3,-3,2,1,-1,4,4
82162934610,-2,0,0,-1,-2,2,-1,-1
82162934610,-1,-1,0,2,-1,-1,-2,-2
82162936244,-2,-2,-1,1,-1,-2,-1,-1
82162936244,-1,-1,0,1,1,1,1,-1
82162948261,0,0,-1,-1,-1,-1,-2,-1
82162948261,0,-2,0,2,10,-2,1,0
82162956768,-2,-1,-2,-1,-13,-1,-1,-3
82162956768,-1,-1,0,-1,3,0,0,1
82162970979,0,-1,-2,2,-5,0,-3,-2
82162970979,-2,-1,-2,-2,0,0,-2,-3
82162977830,1,-3,-2,-1,2,-5,4,-2
82162977830,-1,-2,-3,0,-1,-3,-1,-1
82162994121,1,-2,0,0,2,0,-2,0
82162994121,-2,-1,-1,-2,-2,-3,2,1
82162995769,-1,0,-1,-4,-4,2,-7,-4
82162995769,0,-2,1,3,0,0,3,0
82163007871,-2,-4,-1,-5,5,1,0,1
82163007871,-1,-2,-2,0,-9,0,-3,1
82163016798,1,0,3,-2,5,4,-1,-1
82163016798,-1,-1,-1,-2,-6,-3,-4,-1
82163031033,-1,-1,1,0,0,0,-1,0
82163031033,-1,-1,2,-6,0,-1,-1,-3
82163037828,-1,-2,-1,-2,-7,-8,3,-1
82163037828,-2,-2,-3,-4,1,-2,-1,-1
82163054165,-4,-2,-4,-1,4,1,0,1
82163054165,1,1,-4,3,-17,-3,-9,0
82163055769,0,1,1,-1,3,4,0,-1
82163055769,-1,-1,-2,-1,6,6,-3,-2
82163067816,1,-3,-1,-5,-21,-6,5,0
82163067816,-2,-3,-2,1,15,1,1,-2
82163076786,-2,-1,2,1,1,-2,-6,-3
82163076786,-1,-2,-4,2,-7,-6,0,-3
82163091007,-2,-1,-1,-1,0,-3,-1,-1
82163091007,-1,-2,0,-2,-5,-3,1,0
82163097902,-3,-4,-3,5,-5,2,1,-1
82163097902,0,0,2,1,1,-2,-2,0
82163114163,0,1,-3,-3,0,-1,-3,-2
82163114163,0,1,6,1,20,2,3,2
82163115771,-2,-3,-5,9,-2,-3,-2,-1
82163115771,0,3,8,1,3,-3,2,1
82163127810,-1,-2,-2,-1,3,3,-4,1
82163127810,-1,-2,-1,-1,-8,1,-3,-2
82163136778,-2,0,-1,-5,5,7,0,-1
82163136778,-1,-1,-4,2,-7,-17,-3,0
82163151063,-1,-3,0,4,-8,1,-3,-1
82163151063,-1,-1,-4,-4,0,2,1,0
82163157809,-1,0,0,2,0,-2,1,-1
82163157809,0,-3,-4,-1,-2,2,-1,-2
82163174173,1,0,2,-5,1,-3,0,-1
82163174173,-1,-2,-2,4,-5,2,0,-2
82163175778,-1,-1,-2,-5,0,-7,-1,0
82163175778,-3,-1,0,-1,9,4,0,-1
82163187803,-2,0,-3,2,-21,-6,-2,-1
82163187803,-1,1,2,4,6,2,-2,-2
82163196781,0,-1,1,-6,12,-2,-3,0
82163196781,-2,-2,-3,-1,-10,-2,-1,-3
82163210991,1,3,8,11,27,6,2,1
82163210991,-1,-2,-6,-5,-16,-13,-1,-1
82163217847,-2,0,-1,2,1,4,1,-2
82163217847,0,-1,0,-3,14,8,-3,0
82163234137,-2,-2,-4,-3,-14,-3,-2,-4
82163234137,1,-2,1,-1,-3,-1,0,-1
82163235778,-2,-1,-3,3,-4,-7,-1,-1
82163235778,-3,-4,-3,3,-14,3,1,0
82163247798,-1,-1,0,-2,6,-1,-1,1
82163247798,0,3,5,1,3,-3,-1,-1
82163256772,-1,-2,-1,0,-4,-4,-2,-2
82163256772,-2,0,-2,1,-6,0,0,-1
82163271008,-2,-2,-4,2,6,-2,-1,-2
82163271008,-1,-2,-2,0,2,0,-2,-1
82163277816,2,-2,-1,-3,-3,0,-1,-1
82163277816,-1,0,-1,1,-4,-4,-2,-1
82163293550,0,-1,-3,-1,-3,-3,-1,-1
82163293550,-1,-4,-3,-4,-6,-1,-2,-1
82163300290,0,0,0,0,-15,-2,0,-2
82163300290,0,-2,-6,0,5,-5,-1,-1
82163307830,0,4,8,-5,17,2,0,-1
82163307830,0,0,-3,2,-1,2,-2,-1
82163316825,-1,0,0,-5,2,-1,-3,0
82163316825,-2,-1,-1,-7,-27,-6,-2,0
82163331013,0,-3,-2,-2,-10,-1,0,1
82163331013,-3,0,4,11,16,-1,0,1
82163337840,-3,-1,-1,-1,7,0,-1,1
82163337840,-1,1,1,-5,0,0,0,-1
82163353523,-2,-4,-5,-1,-2,-4,1,-3
82163353523,-1,-2,-3,-6,-4,0,-1,-1
82163360301,0,-2,-1,0,-6,-1,-2,0
82163360301,-2,1,-1,2,5,-1,-4,-3
82163367788,0,-1,0,-4,-5,0,-1,-3
82163367788,-1,-2,-6,-5,-12,-2,2,-1
82163376801,-1,1,1,2,7,-3,-1,-1
82163376801,0,-1,2,-1,-5,0,2,0
82163391040,-1,-3,-5,-4,-6,1,-5,0
82163391040,-1,0,3,1,11,0,1,-2
82163397790,1,2,6,1,19,0,0,-1
82163397790,-1,-2,-3,0,4,0,-3,-1
82163413498,-3,-3,-5,-2,-3,-2,-1,-1
82163413498,0,0,2,-1,0,-2,-2,-1
82163420277,-2,-2,-2,-3,-10,-2,-1,-2
82163420277,0,-1,-1,-7,9,1,-2,0
82163427803,-1,-1,-1,1,-7,-1,-1,-1
82163427803,-1,-4,-7,-2,-16,-2,-1,-2
82163436831,-2,-3,-4,-3,-1,1,2,-1
82163436831,1,3,5,7,5,-1,0,-1
82163451475,0,2,-1,-3,-6,0,-1,-3
82163451475,-1,-1,2,4,10,1,0,-1
82163457811,-1,0,-4,-2,9,4,0,-1
82163457811,-2,0,4,5,25,-4,2,0
82163473497,-2,0,-2,-2,-14,-3,2,0
82163473497,-1,1,-2,-4,-6,4,-3,-1
82163480297,-3,-3,-6,-1,-15,-3,-2,-1
82163480297,-2,-2,-5,-6,-10,-2,-2,-2
82163496716,0,0,3,0,0,-6,-2,1
82163496716,-2,-2,-5,-7,11,0,0,-1
82163498282,-1,1,-1,-1,-7,4,-1,-3
82163498282,-1,-1,-2,-1,3,0,-1,-2
82163510994,-1,0,2,-1,8,-2,-2,-2
82163510994,-3,-2,-5,-2,-21,-7,-2,-1
82163517785,0,-3,-3,1,13,-6,1,3
82163517785,-1,-4,-5,0,-12,-2,-2,0
82163533484,0,0,-5,-2,12,7,1,-1
82163533484,-2,0,9,-5,-2,-4,-4,-3
82163540302,-1,2,5,2,-4,-1,0,0
82163540302,1,0,5,-4,-10,-3,-2,0
82163556664,-2,-5,-16,-1,-10,-3,0,-1
82163556664,1,4,14,4,15,6,3,1
82163558272,-1,1,6,-2,-6,-5,-2,0
82163558272,-1,-1,-6,-4,0,3,-1,-3
82163571032,-2,-2,-1,-13,-24,-3,-2,0
82163571032,-2,-3,-7,-5,9,-6,-2,-1
82163577841,-3,-3,-4,0,-20,-9,-4,-1
82163577841,-1,-1,-4,-9,-6,5,-2,-1
82163593498,-1,-1,-1,-5,18,4,-1,-1
82163593498,-2,-3,-9,-6,-22,-6,-4,-4
82163600273,-1,-1,3,7,13,3,4,-2
82163600273,-1,-2,-8,-4,-11,4,-4,-1
82163616696,0,0,7,2,0,-22,-5,-1
82163616696,-1,-3,-5,-10,-13,-5,4,0
82163618257,0,2,5,6,16,-3,-3,-2
82163618257,-3,-5,-6,3,-2,7,5,-1
82163630995,1,-1,3,8,1,-2,-1,0
82163630995,-1,-1,-4,1,7,1,-3,0
82163637837,-1,-3,-10,-4,-11,0,-3,-1
82163637837,0,1,8,1,15,-9,-1,-2
82163653479,-3,0,-2,-2,-2,4,2,-2
82163653479,0,-2,-8,2,-10,-2,1,-1
82163660322,-1,-4,-2,-5,-12,-1,0,-1
82163660322,1,0,6,3,11,4,1,3
82163676616,-2,-3,-3,3,2,2,2,-2
82163676616,0,-1,0,-3,0,0,1,0
82163678229,-3,-1,-4,1,-10,1,0,-3
82163678229,-1,-2,-2,-1,-1,-7,0,-1
82163690326,1,2,1,2,0,-1,0,-1
82163690326,0,1,1,2,8,3,1,0
82163699310,1,-2,-1,-3,-9,-1,-1,0
82163699310,0,-2,-3,0,-10,-9,-1,-2
82163713517,0,0,2,2,6,8,0,-1
82163713517,-3,-2,-4,0,-3,-1,-2,-1
82163720316,-3,-1,1,4,-2,-4,-1,0
82163720316,-1,-1,0,-3,19,-2,-6,-2
82163736661,-1,-1,-1,0,12,0,-1,1
82163736661,-2,-4,-4,1,-10,-1,1,0
82163738249,0,2,0,0,4,0,-3,-2
82163738249,-3,-2,-3,2,-16,-3,-3,0
82163750334,-3,-2,-2,5,-10,-4,1,0
82163750334,-1,2,2,3,10,2,-6,-2
82163766826,-2,-3,-6,-9,-7,-4,1,0
82163766826,-2,-2,-1,-1,0,1,1,1
82163773520,0,-1,1,-1,-5,-2,1,0
82163773520,0,-1,1,4,5,-2,1,0
82163780299,-1,-3,-4,-6,-12,0,1,-1
82163780299,0,2,8,9,9,1,-2,-1
82163796676,-1,-2,6,5,37,4,-1,1
82163796676,-1,-4,-4,-7,-14,-2,-1,-2
82163798228,0,-1,-4,-1,7,-2,-1,-2
82163798228,0,-1,-3,-5,-9,-1,2,0
82163810314,-1,-2,-5,-3,-24,-5,-1,-1
82163810314,-2,0,1,4,11,3,2,0
82163819301,1,2,2,-1,0,0,-1,1
82163819301,-1,-2,-4,5,-8,0,0,-2
82163833501,0,-1,-3,-1,-16,-6,-4,-1
82163833501,1,-2,-7,-11,-7,-1,0,-1
82163840320,0,-3,-2,9,-7,0,-3,0
82163840320,0,6,10,9,34,7,5,3
82163856666,-4,-7,-15,-10,-34,-8,-6,-3
82163856666,1,3,16,30,29,-1,0,0
82163858295,-1,-2,-4,3,18,9,0,-2
82163858295,1,-3,4,1,-2,-2,-5,-2
82163870337,-1,-2,-1,-4,6,3,1,-2
82163870337,-2,-1,1,10,-4,-7,-4,-1
82163879281,-2,-2,-1,0,-13,-6,-1,-1
82163879281,-3,-2,-5,0,-16,-4,1,-1
82163893523,0,2,1,2,8,1,-2,-2
82163893523,0,-1,-7,-10,-13,-2,-2,-1
82163900298,-2,1,2,-1,10,0,-1,0
82163900298,-2,-3,-8,-9,-17,-5,-2,-2
82163916644,0,0,2,-2,-2,0,-4,-1
82163916644,-1,0,-1,-15,1,2,0,0
82163918253,-1,-1,1,0,2,1,-2,0
82163918253,-2,-3,-4,-7,-8,-1,-1,0
82163930306,0,-2,2,1,11,-2,1,0
82163930306,-1,-3,-1,-7,-5,-1,-1,1
82163939251,-1,-2,-2,-5,-1,-3,-1,-1
82163939251,-2,-2,-6,-5,-8,-1,-1,-1
82163953527,0,1,3,-5,4,3,2,-1
82163953527,-1,-1,-8,-7,-16,-2,-3,-1
82163960289,0,1,6,5,3,-3,-2,-1
82163960289,-2,-3,-3,-7,3,0,-3,-1
82163976666,-2,0,-1,1,-1,-3,-2,-1
82163976666,-1,-2,-1,-8,-5,-2,-1,-3
82163978282,-3,-2,-4,-9,-4,-2,-1,-2
82163978282,0,-1,1,0,0,-1,-1,-1
82163990302,1,-3,-1,0,0,0,1,-1
82163990302,-1,-2,-1,-6,-2,-2,0,-2
82163999297,-1,-2,-1,-6,-5,-1,-1,-1
82163999297,-1,0,-1,-1,2,-4,-3,-1
82164013500,-1,0,-1,-11,0,-1,-1,-2
82164013500,-1,2,-3,5,3,2,1,0
82164020290,0,1,-1,-1,4,2,0,-1
82164020290,-1,-1,-3,-7,-9,0,-1,0
82164044193,0,0,2,6,-6,-2,-1,-1
82164044193,0,0,3,0,16,-1,-1,0
82164045776,1,-1,-4,-4,-10,-2,0,-3
82164045776,-2,-2,-4,-1,-4,0,-1,-2
82164050322,0,-1,1,3,11,1,-1,1
82164050322,-1,0,-4,-2,-15,-4,-2,-2
82164059318,-1,0,0,-1,3,2,1,2
82164059318,0,0,3,16,22,1,-1,0
82164073531,0,2,8,3,-3,0,1,1
82164073531,-1,-2,-2,1,-6,-2,-2,0
82164080345,0,-2,-4,2,-5,0,-1,0
82164080345,-1,-2,-6,-1,-9,-3,0,-1
82164096689,-1,-1,-1,-2,8,1,-2,0
82164096689,-2,-1,0,2,1,-2,0,0
82164098294,-3,-2,-2,0,-7,-2,0,-2
82164098294,-1,1,3,-3,8,1,0,0
82164110328,-2,-4,-6,-5,-7,-2,0,-2
82164110328,0,0,3,5,5,0,-1,-1
82164119328,-2,-3,-2,-2,-3,-2,-2,0
82164119328,1,-1,-3,-5,-12,0,1,-2
82164133513,-2,0,0,5,5,0,0,-1
82164133513,-1,-4,-11,-4,-15,-2,-3,-3
82164140333,1,5,11,3,14,1,0,0
82164140333,-1,1,4,-8,3,2,1,0
82164156705,-1,-1,-3,0,3,-3,-2,-2
82164156705,-1,-1,-1,0,0,0,-1,0
82164158244,-1,-1,-5,5,-1,-5,-2,-2
82164158244,-1,-1,-2,0,-8,-2,-1,-1
82164170338,-1,-1,-4,-1,-18,-3,0,-2
82164170338,-1,2,8,7,27,1,0,-1
82164179289,-1,-1,-1,-4,-5,-1,0,-1
82164179289,0,-1,-1,7,3,-1,-2,-1
82164193506,-2,-1,-4,-6,-9,-2,-1,0
82164193506,-1,-2,-3,-1,-10,0,-1,-1
82164200383,0,-1,-1,-2,3,1,-2,1
82164200383,0,-2,-2,0,0,1,0,0
82164216064,-2,-3,-1,0,1,-2,-2,0
82164216064,-1,-2,0,-1,0,-1,2,1
82164222811,-2,-3,-4,0,3,-3,0,-2
82164222811,-3,0,-4,-6,-8,-3,-2,0
82164230320,-1,-1,-1,0,3,0,-1,-2
82164230320,1,-1,-1,0,-4,-1,1,0
82164239316,-1,-2,-2,-1,0,0,-1,-2
82164239316,-1,-2,-3,-3,-2,-3,-1,0
82164253573,-1,0,-1,6,-4,0,-1,0
82164253573,0,1,1,-4,7,0,-2,-1
82164260312,-1,1,0,0,3,-2,-1,-2
82164260312,-2,-2,-6,-3,-3,-4,-2,-4
82164276027,1,1,3,-4,5,2,1,0
82164276027,-1,1,5,4,6,-1,-1,0
82164282822,0,-2,-2,-2,-8,-2,1,-2
82164282822,0,0,-1,0,-3,-2,-1,-3
82164290357,0,-1,-2,-6,-2,-2,-2,-1
82164290357,0,-1,-4,0,-7,0,0,-3
82164299332,0,0,-1,-4,-2,-1,-2,1
82164299332,0,0,5,9,9,1,0,-1
82164313732,0,-1,-1,-3,-2,-3,-2,-1
82164313732,-1,-2,-3,-6,-5,-1,-3,-1
82164321816,-2,-4,-3,-6,-9,-3,0,-1
82164321816,-1,-1,0,1,7,0,-1,-1
82164336157,-3,-2,-1,-4,-2,-1,-2,-1
82164336157,-1,-1,-1,-6,-6,-2,0,-1
82164342855,-2,0,-2,-4,-2,0,-1,0
82164342855,-1,-1,-1,-1,-1,-1,-2,0
82164350354,-1,-1,-2,-1,7,0,0,-1
82164350354,-2,-3,-2,-3,-5,-1,-3,-1
82164359304,-1,-2,0,3,-7,-1,0,-2
82164359304,-2,-3,-1,-5,5,-2,-2,-1
82164373517,-3,0,2,-6,1,-1,0,-1
82164373517,0,-1,-2,0,-4,-2,-1,-1
82164380316,-1,-4,-2,-3,2,-2,-2,0
82164380316,0,-1,-3,-6,-12,-1,-1,0
82164396050,0,-2,-3,5,2,-1,-2,-2
82164396050,-2,-1,-2,-5,5,-1,0,-1
82164402799,-1,0,1,-2,5,-1,-1,-1
82164402799,-3,0,2,-1,-4,-2,-1,-2
82164419215,-1,-3,-4,5,-5,-1,-1,-2
82164419215,-1,0,2,-2,-6,0,0,1
82164420783,-1,-1,0,6,7,0,-1,-1
82164420783,-1,-1,-2,0,-2,-2,0,-1
82164441726,-2,2,-1,-1,-2,0,-1,1
82164441726,-2,-1,-3,1,-3,-1,0,0
82164443280,-1,-1,0,3,-1,-2,-2,-2
82164443280,0,-1,-2,1,0,1,-2,-1
82164456018,0,-2,-2,2,-1,-1,-1,-2
82164456018,0,-2,-2,4,-1,-4,-3,-1
82164462831,-1,-1,-1,2,-1,0,-1,0
82164462831,-1,-2,-1,-4,-4,-1,0,-1
82164478923,-1,-1,-1,-1,-1,-1,-1,-2
82164478923,-2,-4,-1,-2,-1,0,-2,-1
82164485349,1,-1,-1,1,-9,0,-1,-1
82164485349,0,-2,-1,6,7,0,0,0
82164493553,-2,-2,0,-2,-1,-1,-1,-1
82164493553,-1,-1,-1,-2,-2,-1,-2,-3
82164500315,0,-1,1,3,-2,-1,-1,-1
82164500315,-1,-1,2,3,1,-1,-2,-2
82164516023,-1,-2,-1,-4,-1,-3,0,0
82164516023,-2,1,-1,-2,-3,-1,-2,-3
82164522821,-1,-1,-2,0,1,-2,-1,-1
82164522821,0,1,-2,-3,-10,0,-2,-2
82164539179,-1,0,2,5,8,-1,-1,-1
82164539179,-1,-2,-2,-1,-2,-1,1,-1
82164540779,-2,-1,-2,-3,0,-1,-1,0
82164540779,-1,1,1,0,-3,-1,-2,-1
82164553504,0,0,-2,-5,-1,-1,-1,0
82164553504,-1,-2,-1,1,-1,-2,-2,-1
82164560308,-1,-1,0,-2,4,-1,-2,-1
82164560308,-1,-3,-3,-1,-4,-3,-1,-2
82164575997,-1,-3,1,-6,-3,0,-3,0
82164575997,-1,0,0,-1,0,0,-1,-2
82164582858,1,0,-3,-3,-1,-1,1,-1
82164582858,-1,-1,-3,1,2,-2,-1,-1
82164599197,2,0,-1,-2,-5,-1,-1,0
82164599197,0,-2,1,-2,3,-1,1,-1
82164600801,-2,0,5,14,3,0,-2,-1
82164600801,-1,-1,-2,-4,-3,-1,0,-2
82164613580,-1,-1,-4,0,-7,-2,-2,0
82164613580,-1,-1,-2,-1,3,0,-1,0
82164620317,1,0,-4,-3,-2,0,-2,-1
82164620317,-2,0,0,-2,-1,-3,0,-2
82164636058,-1,1,0,2,0,-1,0,-1
82164636058,-3,-3,-2,1,-7,-3,-3,0
82164642836,-1,-1,-2,-6,-5,-1,0,-1
82164642836,-1,-1,1,2,11,1,-1,0
82164659170,-1,-2,-3,-4,-2,-3,-1,-2
82164659170,0,0,1,0,1,1,-2,-1
82164660787,-2,-2,-2,-3,-3,-1,-2,-3
82164660787,-2,-2,-5,-4,-10,-3,-1,-1
82164673518,2,2,13,7,7,-2,-2,-1
82164673518,-3,-1,-2,-4,1,0,-1,0
82164680302,-3,-2,-2,2,4,0,-1,1
82164680302,-2,-3,-4,-6,-4,-2,0,-2
82164696008,-2,-1,-4,-3,2,0,-2,-2
82164696008,0,0,1,-4,-4,-2,-2,-2
82164702825,-3,0,-2,-4,-3,-1,-1,0
82164702825,-2,1,1,-4,-3,1,-1,0
82164719220,-1,-2,-3,0,-3,1,1,-1
82164719220,0,0,1,-5,1,-1,-2,-1
82164720808,-1,-4,-6,-5,-7,-2,-2,-3
82164720808,1,1,8,10,5,0,1,-2
82164733531,-2,-1,-3,-7,-2,-1,-3,0
82164733531,1,-1,-4,1,-2,0,-1,-1
82164740382,-1,0,1,-4,-5,-3,1,-2
82164740382,-2,0,-1,2,8,1,-1,-1
82164756137,-1,-1,-5,-5,-5,-3,-2,-1
82164756137,-1,-2,-1,-5,-11,0,0,0
82164770304,-1,1,0,-3,23,2,0,-2
82164770304,0,-4,-5,-9,-10,-2,-2,-1
82164779209,1,2,10,2,1,-1,1,0
82164779209,-1,-1,-8,3,-7,0,-1,-3
82164780773,-1,-1,-2,-9,-29,1,-1,-1
82164780773,1,5,15,25,46,2,-1,1
82164793508,-1,-4,-7,0,-4,3,-1,-1
82164793508,1,1,1,0,8,-1,-1,0
82164800336,0,-1,0,-2,-1,0,1,0
82164800336,-1,-2,-6,-7,-19,-5,-1,-2
82164816018,-2,-3,-6,-5,-18,-4,-3,-3
82164816018,1,0,6,5,21,1,-1,-2
82164822868,-2,-6,-9,-7,-21,-3,-2,-2
82164822868,0,0,6,15,25,3,1,2
82164839172,-3,-3,-5,-3,2,-3,-2,-2
82164839172,-4,-1,-6,-10,-10,3,0,-2
82164840775,0,1,0,2,-2,-11,-3,-2
82164840775,-3,-4,-10,-7,-35,1,0,-2
82164853535,0,2,6,11,41,4,2,1
82164853535,-2,-6,-5,-7,-24,-6,-3,-2
82164860310,-11,-5,19,24,36,2,-5,-9
82164860310,-1,-10,-41,-17,-19,-3,0,0
82164876067,2,-5,-86,-7,-25,-1,3,2
82164876067,-4,3,47,8,4,11,7,0
82164882850,10,32,96,10,52,10,5,5
82164882850,-2,5,25,-17,-2,-5,-3,-2
82164898537,-3,-4,-7,-5,-16,-7,-6,-4
82164898537,-3,-15,-59,4,-17,-13,-6,-2
82164899278,-4,-16,-56,-10,-7,-5,-5,-2
82164899278,-1,0,7,0,3,3,0,-1
82164921008,0,-4,0,-7,-17,1,-1,-1
82164921008,-2,-2,-10,-6,-11,-6,-3,-2
82164921778,0,-4,-3,-10,-2,-1,0,-1
82164921778,1,1,-5,-2,1,-2,0,-1
82164936858,-4,-3,9,-3,-7,-1,0,-3
82164936858,2,4,11,11,15,-2,0,-1
82164942833,1,2,-10,-13,-8,-1,0,1
82164942833,-2,-7,-10,1,-6,1,-1,-2
82164958506,-1,1,20,7,-7,-9,-4,-1
82164958506,2,9,18,0,16,-1,-2,1
82164959305,-1,-10,-24,-15,-47,-2,1,0
82164959305,2,4,2,21,38,2,1,-1
82164981011,-1,2,14,-11,17,13,1,-2
82164981011,-1,1,-4,-9,-3,-1,-1,1
82164981793,1,-3,-10,-5,1,-1,-2,1
82164981793,-2,-2,-1,-4,-30,-6,-1,0
82164996870,-2,2,12,3,-1,-2,-1,-2
82164996870,-2,-2,-6,0,22,2,-1,-1
82165002810,-1,-1,-6,-4,-13,-2,-2,0
82165002810,-1,0,4,-3,0,-1,1,-4
82165018494,-3,-4,-4,-3,-2,-5,-2,-1
82165018494,-4,-4,1,0,7,3,-1,-3
82165019298,-5,-8,-8,5,-12,-2,-1,-3
82165019298,0,1,0,2,13,-1,-3,-2
82165040993,0,2,13,-6,15,2,1,1
82165040993,0,3,4,-5,-14,-5,-1,-1
82165041808,0,-2,-3,6,8,0,-4,-1
82165041808,-2,-5,-11,-15,-23,-2,-4,-1
82165056809,-6,-8,-10,-6,-3,-3,-3,-5
82165056809,1,-1,3,-7,13,2,0,2
82165062810,1,0,-5,1,7,-1,2,1
82165062810,-1,-1,1,0,-8,-2,2,0
82165078497,-1,-3,-3,-2,-12,-2,0,-1
82165078497,2,2,9,2,20,5,1,0
82165079268,-1,-2,-6,-6,1,-2,-4,-1
82165079268,1,0,3,-10,-7,-2,-1,1
82165100990,1,3,5,0,4,0,1,0
82165100990,-1,-2,-9,3,-14,-4,-2,-1
82165101778,0,1,1,-7,1,1,0,-1
82165101778,-3,-2,0,1,6,6,-2,-2
82165116820,1,1,4,4,-1,-7,-1,0
82165116820,-2,-3,-7,-3,-17,-9,-4,-3
82165122840,1,1,2,0,13,5,0,-2
82165122840,0,-1,-4,-5,-5,1,-1,-1
82165137807,-2,0,0,5,6,1,-1,-1
82165137807,-1,-2,-4,-2,-8,-1,-1,-1
82165145349,-3,-4,-4,0,-7,-6,-1,-2
82165145349,-1,-2,-1,-2,1,2,-2,-1
82165160999,0,1,1,0,3,0,-1,-1
82165160999,-1,2,0,3,-14,-2,0,0
82165161782,-1,0,-3,1,18,0,0,0
82165161782,-2,-3,1,2,0,5,-2,-3
82165176831,1,1,1,6,1,1,-1,-1
82165176831,-2,-3,-4,-5,-10,-6,-2,-2
82165182844,-1,0,-4,3,-5,4,-1,-2
82165182844,1,3,-1,4,-12,-5,-2,-1
82165197828,-2,-1,0,-1,-3,2,-1,1
82165197828,-2,-1,-1,-3,11,-1,0,-1
82165205332,0,0,0,8,5,1,-2,-1
82165205332,0,0,1,-1,3,-5,2,0
82165221015,-1,1,0,-3,-3,6,-1,-1
82165221015,-1,-2,-3,-4,-14,-15,-2,1
82165221773,2,1,1,-1,0,1,0,-1
82165221773,-2,-4,-5,-6,-5,3,0,-2
82165236851,0,-2,-7,-2,-1,-7,-6,-1
82165236851,1,3,3,3,0,3,2,-1
82165242851,-2,0,-2,1,-10,-12,-2,-2
82165242851,2,8,6,2,11,0,2,4
82165266647,0,2,2,-3,9,2,-2,-2
82165266647,-1,-3,-4,1,21,19,1,-2
82165267402,-1,-2,-4,-1,-32,-17,-7,-2
82165267402,-1,-2,-2,-1,11,9,3,0
82165281027,0,-3,-1,2,-3,-20,0,2
82165281027,1,0,-2,1,2,6,0,-1
82165281775,-2,-3,2,-6,-3,1,-3,-3
82165281775,-3,0,-5,0,-4,-15,-3,3
82165296849,0,-8,1,-2,-11,-2,-3,-4
82165296849,3,4,-2,-10,-6,2,-1,13
82165302853,3,1,1,-8,1,7,0,-1
82165302853,0,-2,-3,-5,-15,-12,-4,1
82165317853,-2,3,0,0,3,-2,-4,-1
82165317853,-2,-5,-3,3,-28,-6,-4,-4
82165325341,-4,-4,-5,-8,17,-2,-2,-1
82165325341,-1,-2,-2,3,11,10,-4,-4
82165341050,0,-1,-1,-5,-9,6,-2,-2
82165341050,-4,-4,-2,-5,-31,-37,-4,-5
82165341821,-2,2,-1,-2,-5,1,1,2
82165341821,-3,-6,-3,-4,-6,3,-2,-7
82165356867,-2,-2,0,-3,14,5,0,0
82165356867,-1,-4,-4,-7,-17,-39,-10,-2
82165362833,-2,-2,-3,-3,-29,-19,-4,-14
82165362833,-1,-3,-1,-4,-11,-1,-1,1
82165377861,0,0,-1,-2,46,11,2,0
82165377861,1,2,4,-1,4,19,5,0
82165385446,-4,-4,-1,-3,3,-20,-6,-4
82165385446,-2,-5,0,-3,-26,-6,-1,4
82165400985,6,9,2,1,-4,-17,-2,1
82165400985,-4,-3,-2,1,26,29,6,-7
82165401775,3,0,2,5,-19,-13,3,24
82165401775,-13,-4,-1,-4,27,17,-2,-55
82165416796,-2,-6,-3,5,-30,-7,-1,7
82165416796,-2,1,-1,0,8,-1,0,-1
82165439193,2,4,4,7,10,33,10,0
82165439193,0,-2,-2,6,3,-10,-6,6
82165440824,-9,-7,-8,-7,27,26,-7,-9
82165440824,-1,0,0,0,-26,-18,-5,-5
82165445339,0,-1,1,7,23,12,2,2
82165445339,-15,-20,-2,-1,-33,-29,2,12
82165461013,11,9,2,-2,30,20,2,-2
82165461013,12,5,3,-1,-11,7,-4,5
82165461794,13,33,3,-8,-2,6,-2,-2
82165461794,-10,-5,-5,-6,9,-1,-2,1
82165476847,-39,-42,-7,0,-26,-10,2,-8
82165476847,16,2,4,-3,19,1,1,2
82165482862,9,26,2,3,-8,-4,0,2
82165482862,5,-6,-2,1,31,27,3,0
82165497932,21,48,6,2,9,-3,0,4
82165497932,-14,-15,-7,-7,-12,-6,1,-1
82165505331,-13,-24,-6,-2,-16,-16,-2,-6
82165505331,-2,4,0,1,25,15,-2,5
82165521046,-5,-18,-4,-5,-51,-18,-11,-2
82165521046,-5,-3,-2,0,-2,-35,-4,-4
82165521781,1,-3,1,-6,23,21,0,-1
82165521781,0,-1,-4,-2,-14,7,-8,-1
82165536865,6,5,3,-2,26,-29,6,4
82165536865,1,6,0,-11,-19,42,-1,-2
82165542850,-11,-13,-5,0,19,-17,-7,-4
82165542850,7,7,4,5,-14,1,1,6
82165557889,4,4,3,-3,-12,4,2,1
82165557889,-7,-2,-1,10,3,-13,-1,-1
82165565384,-4,-11,-2,-1,14,11,2,-3
82165565384,7,5,2,-5,-6,-13,3,2
82165582520,1,3,-1,-1,-15,-6,1,5
82165582520,-9,-6,-3,3,-19,-6,-7,-9
82165583329,-3,-5,-2,6,19,30,-1,1
82165583329,5,3,0,-5,-2,-17,-2,-6
82165596856,-4,-8,0,2,8,19,8,15
82165596856,0,-1,-6,-7,9,-15,-13,-4
82165602822,6,2,-2,-5,-14,-21,1,11
82165602822,-7,4,2,2,15,5,-2,-27
82165617871,-1,-4,-2,-1,3,7,-3,-6
82165617871,-6,-4,-1,5,5,14,3,-3
82165625349,-1,-4,2,3,24,6,-5,-1
82165625349,3,2,-4,-1,-53,-44,-4,8
82165641011,0,-1,0,0,-3,35,3,-5
82165641011,-1,1,-1,5,43,17,1,-1
82165641802,-2,-5,-1,1,-27,-16,-2,5
82165641802,-5,0,-2,-3,-6,-4,-4,-5
82165656858,11,-2,-1,-2,-3,-6,-3,17
82165656858,1,6,2,-1,6,1,1,1
82165662886,-7,-10,-5,-7,-2,19,0,-2
82165662886,7,5,3,-5,10,-4,2,-2
82165677873,-6,-1,-2,0,-7,-21,-7,-10
82165677873,0,-2,-2,-7,32,25,5,11
82165685357,-3,-2,0,2,-49,-32,-2,-8
82165685357,2,0,0,6,69,31,2,11
82165701018,-3,-4,-2,-3,-31,-18,-8,-12
82165701018,1,0,-1,4,4,-4,1,2
82165701789,-3,0,-1,1,-8,-5,0,-7
82165701789,0,-2,0,1,-28,8,1,8
82165716803,1,1,0,3,10,-2,5,-5
82165716803,-4,0,0,-9,31,21,1,-3
82165722860,-7,-4,-3,-5,-74,-57,0,-31
82165722860,2,1,-2,0,62,24,1,4
82165737840,-5,-2,-4,-3,-33,-32,-8,-12
82165737840,-2,-2,1,-5,-21,3,0,9
82165745305,5,-1,1,0,42,14,-2,9
82165745305,-5,-8,-2,-11,-21,-4,-1,5
82165761016,3,9,1,1,6,2,4,-5
82165761016,-2,-4,-2,0,-15,-1,-3,-6
82165761775,3,3,1,5,33,29,-2,4
82165761775,-3,-3,-1,1,-40,-50,-3,0
82165776828,-4,-6,-1,-1,37,43,2,4
82165776828,-1,-1,1,-3,-32,-28,-2,-7
82165782824,2,1,0,0,-1,30,2,0
82165782824,0,2,-3,-1,14,-19,0,-4
82165797833,-3,-3,0,2,-38,-12,-4,2
82165797833,-3,1,0,4,40,11,6,-5
82165805397,-8,-6,-5,0,-18,7,-12,-11
82165805397,2,2,-1,1,-9,4,0,5
82165821006,0,1,2,-5,13,-9,1,-1
82165821006,1,-3,-3,-6,-22,-14,-4,-4
82165821787,-1,-4,0,1,4,-5,1,9
82165821787,3,3,2,-5,-19,-2,1,0
82165836872,-2,3,-2,2,49,18,2,-4
82165836872,-2,-3,2,-1,35,27,1,-2
82165842854,-1,1,1,-7,-43,-56,-4,2
82165842854,-3,-3,-2,4,-22,13,-5,-4
82165857853,0,-4,1,0,28,11,1,0
82165857853,6,8,-1,0,-26,-23,1,4
82165865352,-1,-1,2,6,30,56,8,2
82165865352,-8,-13,-4,-5,-8,3,-10,-2
82165904204,2,8,-2,1,-18,-35,-2,1
82165904204,-2,-1,0,5,20,15,2,0
82165905782,-2,-3,-2,-4,-5,11,2,-1
82165905782,1,0,-1,2,-10,-10,2,-2
82165917884,-2,-7,-3,-6,7,-3,-4,0
82165917884,-2,-2,-3,-1,-12,-13,-1,-1
82165926873,0,2,1,-6,0,-21,-3,0
82165926873,-1,-1,-2,-5,26,30,0,-2
82165942185,0,-1,2,-4,-14,10,0,3
82165942185,-2,0,-3,-3,-13,-11,-5,-5
82165943796,-3,-1,-2,-5,-3,-11,0,1
82165943796,1,3,1,1,-4,-10,0,1
82165956700,-3,-1,-1,-4,-11,11,2,0
82165956700,-3,-8,-2,3,-9,-3,-2,-2
82165958312,3,1,-1,-2,17,3,-2,0
82165958312,0,2,-1,1,22,2,-2,-3
82165970313,-2,1,0,-3,-1,-1,3,-1
82165970313,-2,-2,-3,5,-12,-10,-5,0
82165979325,-5,-5,-3,-2,-7,0,-2,-4
82165979325,-1,-2,-1,1,5,13,4,0
82165994671,1,2,-2,1,18,-2,-1,1
82165994671,1,-5,0,3,-22,11,-2,-1
82165996278,1,2,-2,5,13,-1,6,1
82165996278,0,0,0,3,-29,-35,-3,0
82166008517,-2,-2,0,2,2,20,2,-1
82166008517,-2,-2,0,9,-9,-5,-2,-1
82166009318,-2,-1,0,-1,45,15,-1,0
82166009318,0,0,0,-3,-24,0,1,-2
82166031689,-2,-1,-3,7,-25,-26,-4,-4
82166031689,0,6,2,8,17,7,1,1
82166032450,0,-4,-3,6,-36,-30,-4,-3
82166032450,-1,-2,-2,3,22,34,2,1
82166046007,-4,-4,-2,0,-4,-20,-5,-1
82166046007,0,-2,-4,0,-14,0,2,1
82166046774,2,4,0,6,17,11,0,-1
82166046774,-2,-3,-1,6,-15,-2,-1,1
82166068526,0,-2,0,11,18,3,1,1
82166068526,-4,-1,-3,-1,-20,-10,-3,-2
82166069285,-5,-5,-2,8,9,12,4,-2
82166069285,3,3,4,10,47,18,2,1
82166091725,4,3,3,13,-28,2,5,1
82166091725,-1,0,3,21,3,-18,0,-2
82166092484,2,2,3,13,-2,13,1,1
82166092484,3,4,-3,20,-20,3,0,0
82166097857,5,5,0,35,1,0,-3,-2
82166097857,5,0,1,38,13,3,2,2
82166105366,-1,-2,-2,46,-7,-3,-4,-1
82166105366,-3,-2,-2,41,-16,-9,1,0
82166120381,0,-4,0,30,8,5,2,-1
82166120381,2,1,0,24,17,8,-1,-1
82166127834,0,2,0,36,6,2,-4,1
82166127834,-1,-1,0,35,-9,-25,-1,-1
82166136857,-2,-2,-1,33,-13,-7,-3,-2
82166136857,-1,0,-1,27,19,28,1,0
82166142873,-2,-1,-1,3,-9,-15,0,0
82166142873,0,0,0,-1,12,2,-2,-1
82166157883,-1,-1,-3,2,-6,-4,-3,-4
82166157883,-3,-2,-1,-9,-8,-5,-1,3
82166165388,-4,-9,-1,3,27,18,-2,0
82166165388,4,9,1,3,-29,-13,-2,-1
82166180383,-2,-6,-2,-5,24,12,-2,-1
82166180383,-1,0,-1,-5,-24,-27,-4,-2
82166187921,0,2,0,2,-1,14,4,0
82166187921,-6,-5,-4,-9,8,-4,-4,-2
82166196833,-2,-5,0,-5,-22,-23,-4,1
82166196833,-1,0,1,-5,-2,-5,4,0
82166202851,1,1,0,1,7,30,1,0
82166202851,-2,-3,0,2,-26,-40,-5,-1
82166217828,1,2,0,-1,18,39,3,1
82166217828,-2,0,-4,2,2,-37,-6,-2
82166225329,0,-1,-3,-3,-29,-22,-4,-1
82166225329,0,-3,-2,-2,-1,16,0,-1
82166240357,-1,-1,0,-2,10,-8,-5,-1
82166240357,0,0,0,-3,0,10,-2,-2
82166247880,-2,-4,-1,-1,9,-6,2,-1
82166247880,2,4,-2,3,-1,4,-2,-2
82166263537,-2,-1,-1,-2,-15,-6,0,0
82166263537,-2,-2,0,-4,6,15,-1,-2
82166264308,2,1,1,-2,-22,-21,-1,-2
82166264308,-3,-4,-1,-1,5,13,-1,-2
82166277886,-1,-1,0,-6,13,-3,2,-2
82166277886,-1,1,-1,2,3,8,1,8
82166285386,-2,0,-1,-1,1,-24,-4,0
82166285386,-1,-2,-2,-5,6,17,3,2
82166300330,0,0,-2,3,-15,7,-1,0
82166300330,-2,-4,-4,-1,-6,-31,-6,-4
82166307842,2,-1,-1,0,-1,16,2,-2
82166307842,1,-1,0,7,12,-12,-3,1
82166323522,-2,-1,-3,2,-15,-5,-4,-1
82166323522,0,0,1,5,5,21,3,-2
82166324282,-2,0,-2,2,-13,-14,-3,-1
82166324282,-1,-2,-3,0,30,16,4,-3
82166337863,-3,-6,-3,1,-14,-2,-4,-1
82166337863,2,9,-2,5,13,0,1,1
82166345327,0,-1,-3,-1,-18,-3,-1,0
82166345327,-1,0,0,2,-10,-12,-3,-2
82166360359,-1,-4,-1,1,4,-7,1,-1
82166360359,-3,-4,-2,1,-8,11,0,-1
82166367855,1,3,-1,3,-5,-8,-1,-1
82166367855,-2,-2,0,0,7,2,1,0
82166383543,-1,0,0,-1,5,0,-1,-2
82166383543,-2,-2,-2,-4,-4,-14,-5,-3
82166384311,1,0,0,3,1,16,1,4
82166384311,-1,-3,-1,2,-11,-30,-2,-3
82166397883,0,0,-1,1,10,6,0,0
82166397883,0,-2,1,-4,-3,6,3,0
82166405402,0,-3,-1,2,17,-10,-3,1
82166405402,0,-2,-1,-3,-2,7,-1,0
82166420337,-3,-6,-1,1,-26,4,-2,-1
82166420337,2,3,-1,-3,10,-3,-3,-2
82166427841,-1,0,0,-4,-2,-13,-1,-2
82166427841,0,0,2,3,16,39,5,0
82166443498,-2,-1,-2,0,-28,-15,-5,-4
82166443498,-3,-7,-2,0,28,19,0,1
82166444282,-2,-1,-1,-2,-5,5,1,-4
82166444282,0,3,-1,1,-7,-6,-2,1
82166457886,-1,0,0,1,2,-6,3,3
82166457886,-1,-2,-1,-1,-4,-2,-2,-2
82166465533,0,-1,-2,2,-3,4,-1,-3
82166465533,-1,-4,-2,-2,12,1,0,1
82166480359,0,-1,-1,0,-15,-8,-3,-2
82166480359,-2,-2,-1,-3,-4,0,0,-2
82166487882,-3,-2,-1,1,8,-9,-5,-2
82166487882,0,-3,0,-4,-18,0,2,0
82166503548,2,1,0,0,0,1,-1,-1
82166503548,0,0,2,-1,37,20,5,2
82166504350,-4,-6,-7,-1,-28,-34,-10,-6
82166504350,-6,-8,-1,-3,6,-1,0,4
82166549185,3,11,-1,-1,8,7,-1,-2
82166549185,-3,-3,0,1,-14,-9,1,-1
82166550802,0,0,1,-1,-1,2,0,-2
82166550802,-1,0,-2,-4,-19,-15,-5,-2
82166564255,-2,-4,-1,-1,11,3,1,-2
82166564255,-2,-1,-3,-2,-8,1,-4,-1
82166565846,1,2,2,1,3,3,0,0
82166565846,-2,-1,-1,-1,-14,-6,-4,-2
82166579230,-1,-2,-1,-6,31,6,1,2
82166579230,-3,-4,-4,-23,-10,-6,-1,-2
82166580833,-3,-4,-2,-32,1,26,-3,0
82166580833,-4,-2,-4,-38,-8,-22,-5,-5
82166586048,-3,-1,0,-43,-3,-4,-3,0
82166586048,-2,-2,-2,-36,7,9,4,-1
82166586810,-4,-2,-2,-42,31,0,-1,1
82166586810,-1,-1,-2,-41,-14,-6,-6,-3
82166600392,-1,-2,-3,-36,0,6,0,-1
82166600392,-1,-2,-2,-36,1,-12,-6,-4
82166607890,-1,0,-2,-31,-12,6,2,-1
82166607890,-3,-6,-2,-29,3,5,0,0
82166623548,2,4,-2,-20,-8,-9,1,-3
82166623548,-1,-1,1,-20,2,3,-3,-1
82166624351,-1,0,0,-2,6,4,2,1
82166624351,-1,1,0,2,1,-1,-1,-1
82166637832,-3,-5,-3,-1,-18,-4,-5,0
82166637832,-1,0,1,7,-23,-13,0,-1
82166645367,0,1,-1,2,17,20,-3,1
82166645367,0,-2,-3,4,9,-12,0,-3
82166660358,-1,-2,1,-3,16,2,2,8
82166660358,0,1,0,5,-22,9,1,0
82166667854,-3,-5,-5,0,-17,-22,-9,-4
82166667854,1,2,1,4,-6,-1,0,0
82166683509,0,-1,0,0,9,7,0,0
82166683509,-1,-2,-3,-7,-6,-5,-6,-1
82166684306,0,0,1,0,-2,-4,4,-2
82166684306,0,2,1,-2,12,16,2,-1
82166706058,-2,-1,0,5,-12,-18,-3,-2
82166706058,-3,-3,-4,4,-2,2,0,0
82166706784,0,0,0,-2,-32,-12,-2,-3
82166706784,-2,-1,-1,4,31,13,-2,-2
82166720374,1,-3,-1,-2,1,4,0,-3
82166720374,-1,-2,-1,1,-2,-4,-1,0
82166727889,0,-1,-3,-2,3,-1,3,1
82166727889,0,1,1,1,-27,-15,-1,0
82166743547,-3,-3,-3,1,19,10,-1,-3
82166743547,0,-3,-2,3,-5,-4,0,-1
82166744313,1,-2,0,-3,-2,1,-3,-1
82166744313,-2,-1,-1,1,6,11,-1,0
82166757894,0,-2,-2,0,-33,-31,-3,-3
82166757894,-1,-1,-2,-2,18,12,1,-2
82166765394,-3,-2,-2,-1,-6,-13,-1,-1
82166765394,0,-1,-3,1,5,-2,0,0
82166780392,-2,-4,-2,-2,0,3,-1,0
82166780392,0,0,0,-1,-9,-11,-2,-3
82166787902,-1,-1,-1,3,3,5,1,0
82166787902,-1,1,-2,-6,-5,4,-2,-1
82166803514,-2,0,-2,-2,-10,-16,-1,-1
82166803514,0,-2,1,0,3,5,-2,1
82166804298,-1,0,-2,0,1,-3,0,-2
82166804298,-2,0,-1,0,0,1,-2,-2
82166817884,-1,-2,0,-5,-3,6,2,0
82166817884,-2,-1,-1,-2,-1,-6,-1,-1
82166825366,0,1,-1,0,14,0,-1,-1
82166825366,-1,-4,-2,-4,-8,-1,-1,0
82166840383,0,-1,1,-2,5,1,-2,-2
82166840383,0,0,-1,6,7,2,-2,0
82166847860,1,-2,-1,-3,-25,-15,-2,0
82166847860,0,0,-1,-1,11,7,-1,-1
82166863579,-1,-2,-2,-2,10,7,-1,-1
82166863579,-5,-1,-1,-2,-26,-9,-1,-10
82166864327,1,0,-1,0,26,6,0,2
82166864327,0,-2,-1,-3,-9,-18,-2,-6
82166877886,-8,-4,-1,5,2,8,-2,-8
82166877886,1,-1,-1,-6,0,3,0,0
82166885399,-1,-1,-2,-1,29,18,2,-1
82166885399,1,-2,-2,0,-27,-15,1,7
82166900326,-3,-1,-2,1,2,4,-3,-10
82166900326,0,-2,1,-2,-1,-4,-3,0
82166907882,-2,-2,1,0,1,2,0,-1
82166907882,-1,-2,-1,0,13,6,-3,-6
82166923587,0,0,-2,-10,-14,-6,1,2
82166923587,-1,0,-2,2,-14,-3,-1,2
82166924288,0,-2,-1,-5,-13,3,-1,-3
82166924288,-4,-1,-3,-1,15,5,0,-1
82166937856,3,2,10,3,7,-2,-2,4
82166937856,0,0,0,-9,-5,2,1,2
82166945364,-2,-1,-1,-8,10,-10,-5,-2
82166945364,-3,-2,-6,-6,-18,2,-2,-2
82166960400,-1,-3,-5,-3,-9,-3,-2,1
82166960400,0,-2,0,-1,19,0,-3,-3
82166967857,-3,0,0,0,-11,4,1,0
82166967857,-1,-1,1,-7,-25,-29,-3,0
82166983550,0,-1,-2,-1,12,9,0,-1
82166983550,-1,-2,1,-1,-7,-5,0,0
82166984372,-2,-2,-2,-1,-7,0,0,-2
82166984372,0,-2,-1,2,13,6,1,1
82166997893,-1,0,-3,-6,-11,-7,0,0
82166997893,0,1,0,-1,-6,-6,0,-1
82167005380,0,1,2,-2,23,16,5,1
82167005380,-1,0,-2,3,5,3,-3,-2
82167020337,-1,-1,-5,-4,-12,-11,-2,0
82167020337,-2,-3,-6,3,4,-4,-1,0
82167027842,-1,1,5,9,2,-4,-2,-1
82167027842,-1,0,1,-8,7,10,1,-1
82167042856,-1,-2,-3,-5,-2,-5,0,-3
82167042856,0,1,2,-6,3,0,1,2
82167051070,-1,-2,-3,0,-10,-5,-3,-1
82167051070,-1,-2,-2,3,6,3,-1,-1
82167057868,0,-1,-2,4,-6,-1,-2,1
82167057868,-2,-2,-2,0,0,3,-1,-2
82167065428,0,0,1,-4,-5,-5,1,-1
82167065428,0,-2,0,-4,-9,-3,-1,-1
82167080407,-1,-2,-2,5,11,3,-1,0
82167080407,0,0,-2,0,5,7,0,-1
82167087890,-1,-3,-3,-5,-16,-9,2,0
82167087890,-1,-2,1,9,3,3,-6,-3
82167102887,0,1,1,-7,-3,2,0,-1
82167102887,-1,-3,-2,1,2,-1,-2,-1
82167111091,0,0,-4,6,-8,-3,-2,-2
82167111091,0,-2,-1,-1,-2,-3,3,-2
82167117845,-2,-1,0,6,15,10,2,1
82167117845,-1,0,-2,-1,-5,-10,-2,-3
82167125351,0,-1,0,6,-3,-2,0,-3
82167125351,0,1,5,6,24,12,-1,0
82167140366,-2,-2,2,-1,-4,-3,-2,-3
82167140366,1,-1,-2,-8,-10,4,-1,-1
82167147860,1,-1,2,2,6,-4,-3,1
82167147860,-1,-1,-5,-5,4,2,0,-1
82167162864,1,-3,-8,-9,-11,-6,-1,-2
82167162864,-2,-4,-7,3,-11,-4,-2,-2
82167171083,0,0,7,-4,12,2,0,0
82167171083,0,0,-2,-8,-19,-8,1,-1
82167177881,-1,-1,1,-5,8,-2,-1,-1
82167177881,-4,-3,-4,-8,-18,-9,-3,-2
82167185360,-1,-3,-12,-3,-5,2,-3,-2
82167185360,1,3,12,8,-10,-9,-2,-3
82167200416,-2,-2,-5,-4,-29,3,-1,-1
82167200416,-2,-1,5,8,28,-1,-4,-1
82167207884,-3,-2,-2,2,6,1,0,-1
82167207884,-3,-2,-5,-5,-9,-6,-3,1
82167222915,0,0,2,1,11,2,0,0
82167222915,0,-1,0,-2,-16,1,-1,-3
82167231082,-1,-3,-2,-1,-4,-6,0,-1
82167231082,-2,-4,-12,-4,-12,-2,-1,-1
82167246061,1,3,10,0,2,-7,-3,-1
82167246061,0,0,2,-6,19,6,2,1
82167246831,-1,-1,-1,7,-1,2,-3,-1
82167246831,0,-1,-1,-2,-3,-2,-1,0
82167260423,-2,-1,-4,3,3,3,3,-1
82167260423,-2,0,4,2,-12,-9,0,0
82167267911,-2,1,0,-8,15,5,-2,-2
82167267911,-1,0,0,4,-9,-2,-1,-1
82167282878,-2,-1,-3,-2,-6,0,-1,1
82167282878,-1,-3,-8,-3,6,-1,-1,-2
82167291069,1,5,12,-6,9,1,2,1
82167291069,-1,-1,-2,1,2,0,0,-3
82167306061,0,-2,-1,0,-3,-4,-2,-1
82167306061,-2,-2,-4,-5,-15,-2,-4,-2
82167306837,-1,-3,-5,-1,-9,2,-2,-1
82167306837,1,2,6,-4,15,1,2,1
82167320357,-2,-1,2,3,-1,-4,-4,-1
82167320357,0,0,-1,-3,5,2,3,1
82167327878,-2,-4,-6,-6,-11,-9,-4,-2
82167327878,-3,-1,-3,-5,5,4,-1,-1
82167342881,-2,-3,-6,-1,-1,-1,-2,-2
82167342881,5,0,1,0,3,0,1,3
82167351108,-11,-8,-4,-7,-13,-9,-2,-10
82167351108,0,2,-3,-3,-5,1,-1,-1
82167374227,10,4,5,0,8,5,4,10
82167374227,6,2,2,-4,-8,-8,-3,-19
82167375008,-3,-2,-4,0,2,5,0,2
82167375008,9,-6,-2,2,5,-1,-2,1
82167380386,-12,-4,-4,-6,-16,-1,-3,-5
82167380386,0,3,6,18,38,2,1,9
82167387912,1,-3,-7,2,-11,-5,-3,-5
82167387912,-6,2,6,0,-4,-10,-2,-5
82167402871,1,-1,-4,-1,-18,2,0,2
82167402871,-3,-5,-11,-8,-23,-4,-1,0
82167411108,-1,1,3,0,19,11,-2,-2
82167411108,-4,-1,-4,-5,-12,-20,-2,1
82167426040,2,-1,-3,-1,6,-4,0,-5
82167426040,-3,-2,-1,-1,-9,1,-2,0
82167426798,1,-1,-3,-2,-12,1,1,1
82167426798,0,-1,-2,5,-11,3,-7,-2
82167440360,1,-1,-2,11,14,-2,2,-3
82167440360,-7,-8,-5,-3,-2,2,1,4
82167447890,5,9,2,1,-6,-1,2,-1
82167447890,-3,-4,4,11,18,4,-6,-1
82167462896,-1,-3,-4,-4,-1,-3,-5,-4
82167462896,-2,0,4,4,-1,1,0,2
82167471082,1,-4,-2,2,-4,-4,8,7
82167471082,-2,-1,-6,-4,-12,2,2,-10
82167486066,-2,-1,-5,0,-7,0,-5,1
82167486066,0,1,8,11,23,-5,1,-2
82167486818,0,-3,-2,-6,-3,4,-3,-2
82167486818,-2,0,-2,-3,6,5,3,0
82167500386,-3,-3,-3,-2,-8,-5,-3,0
82167500386,0,-1,-3,-5,-8,-2,-2,-2
82167507897,0,0,-1,0,-8,-7,0,1
82167507897,0,-1,0,0,6,2,-2,1
82167522890,0,-2,0,2,3,1,1,-2
82167522890,-1,-1,-1,-1,-10,-8,-1,0
82167531086,1,-1,6,6,13,-9,-2,-1
82167531086,0,-2,-3,-9,-18,8,-3,1
82167546054,-1,1,0,4,15,-13,-2,-1
82167546054,-2,0,-4,-6,-7,1,-4,-1
82167546804,-2,-3,-1,3,0,0,0,0
82167546804,-1,-2,0,-2,6,1,3,0
82167560421,0,1,3,-7,-9,-3,-1,-2
82167560421,0,3,4,-1,22,14,2,1
82167567895,-2,-2,-5,-3,13,4,-3,-3
82167567895,0,-3,-4,-4,-34,-14,-3,0
82167582889,-1,-2,0,3,32,7,3,-1
82167582889,0,0,-1,-3,-18,-7,-2,-3
82167591079,-1,0,6,6,-5,2,-4,0
82167591079,-2,0,0,1,17,0,3,0
82167606077,-3,-3,-1,-8,-16,-7,-1,-3
82167606077,-1,-1,-4,-2,2,6,-3,-1
82167606822,-1,1,-1,-2,-6,-5,-2,0
82167606822,-1,-1,-2,1,1,-1,-2,-1
82167620409,1,1,2,-5,0,5,2,-1
82167620409,-3,-3,-2,0,-8,-9,-3,-3
82167627915,1,-3,-6,-8,-9,-1,-2,-2
82167627915,-1,-2,-5,-3,-6,6,0,0
82167651713,1,3,7,-2,27,-1,0,1
82167651713,-2,-3,-4,-6,-9,0,1,-2
82167652477,-3,-2,-7,-3,-22,-10,-5,-3
82167652477,0,0,4,1,14,-4,2,1
82167666057,-1,-2,-5,0,-4,7,-2,-1
82167666057,-1,0,-1,1,19,-6,-1,0
82167666819,-2,-3,-8,-3,-31,-8,-1,-1
82167666819,0,0,1,15,22,18,-1,-1
82167680394,0,1,1,-3,-8,-5,1,-3
82167680394,-2,-1,-3,-5,1,20,3,0
82167687906,-4,-1,-5,-6,-7,-17,-4,-3
82167687906,-1,0,1,-3,-5,-52,-4,0
82167702920,-1,0,5,-1,-5,26,1,2
82167702920,-2,-3,-5,-6,-9,22,-5,-1
82167711090,-1,-3,0,-3,1,-10,-1,-1
82167711090,-2,-2,5,3,17,17,0,-1
82167726074,-2,-2,-6,-4,-4,0,-2,-1
82167726074,-1,-1,-1,0,-5,-18,-2,-1
82167726815,1,0,-1,-4,-9,-3,-1,-2
82167726815,0,1,-1,2,5,-15,-1,1
82167740414,0,-2,-4,2,-7,1,0,1
82167740414,0,0,1,0,7,17,4,0
82167747917,0,-2,-1,-2,7,10,2,-1
82167747917,-4,-1,-9,-5,-34,-13,1,-2
82167762853,-3,-2,4,21,38,11,1,-3
82167762853,0,-2,-3,-4,-24,-15,-3,-2
82167771081,-1,1,4,4,-8,-8,0,2
82167771081,0,-2,1,3,6,9,-5,0
82167786076,0,-3,-4,-8,-25,0,0,-2
82167786076,0,0,3,12,25,-9,0,-1
82167786866,3,4,16,7,36,22,6,1
82167786866,-2,-3,-7,-7,-14,-16,-1,-1
82167800368,-2,-2,-2,4,-10,16,0,0
82167800368,-3,-4,-4,-4,1,-18,-5,-5
82167807880,-1,0,-2,-1,-8,14,1,0
82167807880,-1,1,1,-2,6,0,1,0
82167822901,-5,-6,-5,-4,-15,-27,-7,-3
82167822901,-2,0,0,-3,-9,-13,-1,-2
82167831089,-1,-1,-4,1,6,14,0,-1
82167831089,2,-1,-2,2,2,0,1,0
82167846047,0,-1,-3,2,-1,-10,-1,0
82167846047,-1,-1,0,-5,-1,10,-1,0
82167846800,-1,-3,-3,-2,-7,-15,-3,-1
82167846800,0,-2,-1,-4,-1,14,-1,-2
82167860417,0,-3,-7,0,-14,-13,0,0
82167860417,1,2,8,10,11,5,0,0
82167867845,-2,-2,-4,1,14,-2,-3,-5
82167867845,-1,1,-3,2,-13,3,-1,-3
82167882907,-1,0,5,-6,10,3,2,1
82167882907,0,-1,-6,-4,-18,-7,-1,-1
82167891120,-1,-2,-3,-1,-1,-10,-3,1
82167891120,-2,-2,1,-1,5,19,1,0
82167906039,-1,0,-2,-6,-7,-7,-2,-2
82167906039,-2,-2,-3,-1,-2,1,0,-1
82167906841,-1,1,1,-1,2,0,2,1
82167906841,-1,-3,-3,-4,5,10,-3,-1
82167928549,-2,-2,-1,6,-5,-10,-1,0
82167928549,-1,0,0,0,-8,-12,-2,-1
82167929307,-1,-1,-1,2,3,5,0,-1
82167929307,-1,-1,0,-3,-2,-10,-2,-1
82167942911,1,0,-1,5,-1,-1,0,-1
82167942911,-1,-4,-2,-3,5,6,-1,-1
82167951080,-1,-2,-3,-1,-5,-8,-1,-2
82167951080,0,-2,0,-2,-1,-2,0,0
82167966039,-1,1,1,-6,5,3,-2,-3
82167966039,0,0,-2,0,-3,-6,-2,0
82167966826,0,0,0,0,-6,-7,-2,-2
82167966826,-1,-1,-3,-1,-2,5,1,0
82167980389,-1,2,1,-7,0,-4,-1,-1
82167980389,-1,0,-2,-2,-3,1,-3,-2
82167987888,-2,0,-1,-2,-3,6,-1,-1
82167987888,-1,-1,-2,2,1,-2,1,-2
82168002913,-1,1,4,6,-1,-4,-2,-1
82168002913,0,-1,-1,-3,1,3,0,0
82168011151,0,0,-3,1,-1,3,1,1
82168011151,-2,0,0,0,-5,-4,-2,0
82168025412,0,-1,-3,4,-1,1,-2,-1
82168025412,-1,-1,-1,1,2,6,1,-1
82168033594,-2,-2,-1,1,-6,-11,-3,-1
82168033594,0,-1,-3,-1,3,-1,0,-1
82168040388,-2,-4,-4,3,0,-3,-1,-2
82168040388,2,2,4,8,3,3,1,1
82168047872,1,-1,-2,-4,1,-1,2,0
82168047872,0,-1,-1,3,3,-1,-2,-1
82168062921,-2,1,0,-6,4,4,-1,-1
82168062921,-2,-3,-4,-3,-7,-7,-3,-2
82168071093,-2,-1,0,-3,-7,-1,-1,-1
82168071093,0,-3,-2,-1,5,7,-2,-2
82168085412,0,-1,-1,2,1,-3,0,-1
82168085412,0,0,-2,1,2,-1,-2,-2
82168093611,0,-1,-2,-4,-2,-1,0,-1
82168093611,-2,-2,1,-3,-4,0,-1,0
82168100425,1,-3,-4,-2,-3,-4,-1,0
82168100425,-1,-1,0,-7,1,0,-1,0
82168116128,-2,-1,-1,4,-4,0,-1,-1
82168116128,-3,0,1,-2,2,0,-1,-1
82168122903,-1,-1,0,-6,0,-1,-1,-2
82168122903,-2,-2,0,-3,-6,-4,0,-2
82168131085,-1,-2,-1,0,0,0,-1,-2
82168131085,-2,-1,-1,5,-2,-3,0,-2
82168145399,0,2,2,-3,-2,-2,-1,-1
82168145399,-1,-2,-6,-4,-8,-1,-1,0
82168153619,-1,0,1,5,-4,0,-2,-2
82168153619,-1,0,0,-3,4,-4,-2,-2
82168160429,0,0,-4,-10,1,0,1,0
82168160429,0,-3,-1,-4,-2,-2,-1,-2
82168167930,0,-2,-3,0,-1,-2,1,-1
82168167930,-1,-1,-3,4,-7,3,1,-2
82168182928,-3,-2,2,-5,-5,-5,-4,-1
82168182928,-2,0,-3,-2,7,4,0,-1
82168191111,0,-1,0,-5,-1,4,1,-1
82168191111,0,-3,-3,-3,-4,-19,-4,-2
82168205430,2,-2,0,6,-3,12,2,2
82168205430,-2,0,3,5,-1,-3,0,-1
82168221117,-2,0,0,-5,6,0,-2,-1
82168221117,0,0,-1,-2,-1,2,1,-1
82168228556,0,-2,-1,2,-2,-7,-1,-1
82168228556,-1,-1,-3,0,-3,-4,-1,-2
82168229320,0,-1,0,8,6,4,-1,0
82168229320,0,-1,-3,-2,-7,-3,-2,0
82168242913,-2,-2,-4,1,0,0,0,-1
82168242913,-2,-2,-2,-3,-9,-4,1,0
82168251085,0,-2,2,7,10,-1,-1,-1
82168251085,1,-2,-2,-1,-12,0,-1,-1
82168265433,0,-1,1,5,13,-3,-3,-1
82168265433,-1,0,0,-1,-1,-4,-1,-1
82168273621,-2,-2,-2,-3,3,5,0,-2
82168273621,-1,-2,-1,0,-8,1,0,-1
82168288597,-3,-1,-4,-5,-5,-5,0,-1
82168288597,0,0,2,0,9,0,-1,0
82168289324,0,-1,-3,-2,-7,-4,-2,-2
82168289324,-1,-1,-1,-1,5,4,-1,-1
82168302917,0,-1,4,5,-7,-2,-1,-1
82168302917,-1,-1,-3,2,0,0,-2,-2
82168311122,-1,-1,-1,-3,-2,-3,0,1
82168311122,-2,-1,-2,-2,0,2,1,0
82168325394,0,-1,-3,4,7,0,0,-2
82168325394,1,1,3,0,-2,0,0,0
82168333767,0,0,-3,1,-1,-2,-2,-2
82168333767,-1,1,1,1,2,-3,-1,-2
82168348543,-2,-3,-2,-4,-5,3,2,-2
82168348543,-2,-1,-5,-1,-8,1,1,-1
82168349336,-1,-1,-1,-4,3,-2,-1,-1
82168349336,0,-2,0,-6,0,-2,-1,-1
82168362884,-2,1,-3,-3,-3,-3,1,-1
82168362884,0,-1,-1,-2,-2,-2,-3,-1
82168371128,-3,-2,-2,-5,3,-1,0,0
82168371128,0,0,-1,3,1,2,0,-2
82168385381,0,-3,-2,-5,-6,-3,-2,-2
82168385381,1,1,2,8,0,0,-2,0
82168393664,0,0,0,-7,0,-2,-3,1
82168393664,-3,-1,-3,-1,1,-2,-3,0
82168408543,-2,0,-3,-5,-6,0,-2,-1
82168408543,-1,-2,-4,0,-2,-1,-3,-1
82168409307,0,-2,-3,2,-2,-1,-2,-2
82168409307,0,-2,2,-1,4,-2,-1,-1
82168422894,-1,-4,-3,1,-8,-4,-2,-2
82168422894,0,-2,-1,0,3,-1,0,-1
82168431126,0,0,1,5,2,0,-2,-1
82168431126,-2,-1,-2,0,-4,0,-1,0
82168445396,1,-1,2,-1,2,0,-2,-1
82168445396,-2,-3,0,-3,2,-1,-1,-1
82168453616,-1,-2,0,-1,-3,-1,0,-3
82168453616,-1,-1,-1,-2,-4,-2,-1,1
82168468573,-1,0,0,3,0,-1,-1,1
82168468573,-1,-2,-2,-6,0,-1,0,-1
82168469305,-2,-2,-4,2,-4,-3,0,-1
82168469305,0,-2,-2,-1,-1,0,-1,1
82168482904,0,0,3,1,9,1,1,0
82168482904,-1,-1,-4,-3,-4,-3,-1,-1
82168491147,-1,1,3,2,-7,-2,-1,-1
82168491147,-1,-1,-1,1,5,-3,-2,-3
82168505408,-2,-1,-3,2,-2,-3,-2,0
82168505408,0,-1,-1,1,0,-1,-2,-1
82168513576,-3,0,1,-2,0,0,0,0
82168513576,0,-1,1,-1,-5,0,0,1
82168528623,1,-2,-2,-1,-3,-1,-2,0
82168528623,1,0,2,4,6,2,2,3
82168529353,-2,-1,-2,-1,-4,-2,-1,-2
82168529353,-1,0,-1,-4,-2,0,0,0
82168542927,-1,-1,-1,-2,7,0,-1,-1
82168542927,-3,-1,-5,-1,-7,-1,-3,-2
82168551088,1,1,6,10,4,-2,-2,0
82168551088,-1,-2,-5,-2,0,-2,-1,0
82168565467,-2,0,2,6,-3,-2,0,-1
82168565467,0,0,-2,3,1,-2,0,-1
82168573599,-1,-4,-5,0,-9,0,0,0
82168573599,-1,1,2,10,7,0,-1,-1
82168588589,-1,-3,-6,-6,-23,-4,0,-3
82168588589,0,1,6,10,18,2,-1,-1
82168589350,0,-1,-3,-6,0,0,-2,0
82168589350,-2,-1,-4,-2,-7,-2,-1,-1
82168602952,-1,0,0,-1,4,1,-3,1
82168602952,-4,-2,0,-3,-11,-4,0,-2
82168611082,-1,-2,-3,-1,-1,-2,0,0
82168611082,0,-1,2,3,0,0,-2,0
82168625426,0,-2,-2,-3,-4,-4,0,-2
82168625426,-1,-2,-2,-4,-4,0,-1,-1
82168633559,-1,-1,-1,0,5,-1,-1,-2
82168633559,-2,-1,-1,0,-4,-2,-1,-1
82168647917,-1,-2,0,5,2,-1,2,-1
82168647917,-2,-2,1,0,2,-1,-2,-1
82168656878,0,0,-1,-4,-1,1,1,-3
82168656878,1,0,0,-1,-1,-2,-1,-1
82168662942,-2,0,-2,-1,1,0,-1,-1
82168662942,0,0,-2,0,-2,0,0,-1
82168671899,0,-1,-1,0,-1,-1,0,0
82168671899,0,-1,0,-2,1,0,-1,-1
82168685411,0,0,0,-3,2,2,-1,0
82168685411,0,-2,-3,-5,3,-1,-1,-2
82168694392,0,-1,-3,-6,-8,-3,-1,0
82168694392,-1,-1,-4,4,3,0,2,-2
82168707939,2,1,6,-2,4,0,0,1
82168707939,-2,-1,-3,-1,-7,-2,0,-1
82168716937,-3,-1,1,0,5,-1,-3,-1
82168716937,-1,-1,-4,-6,-7,-3,-3,-1
82168722926,-2,-1,-5,-2,-3,-2,-1,-1
82168722926,-1,-2,-2,-5,-3,-1,0,0
82168731868,-2,-2,0,-2,-1,1,-1,0
82168731868,-1,-1,1,1,-1,-2,-2,0
82168745435,-3,-1,-2,-4,1,-1,-2,-1
82168745435,0,0,0,-5,-2,-2,-1,-2
82168754416,-1,-3,-2,-1,-4,-2,-4,-1
82168754416,-2,-2,0,-4,0,2,1,-1
82168767943,0,-3,-2,4,2,-2,-2,-1
82168767943,0,-1,-2,-4,-2,0,0,1
82168776907,-2,0,-1,0,-1,-2,0,-2
82168776907,1,-3,1,2,0,-4,-1,-2
82168782933,-1,-3,-1,1,-2,-1,-1,0
82168782933,-2,1,0,2,-1,1,1,-1
82168791873,0,0,-1,-4,-3,-1,-3,-2
82168791873,1,-2,-1,-2,0,0,-2,0
82168805428,-2,-1,-2,-5,1,0,-1,-1
82168805428,-1,-1,-3,1,-6,-3,-1,-1
82168814424,-2,-2,0,-1,4,-2,0,1
82168814424,-1,2,3,-3,-2,0,-2,-1
82168827906,-1,0,-2,0,6,-4,-2,-2
82168827906,-1,-2,-2,-3,3,1,0,-1
82168836923,-1,-2,-3,-7,-6,-3,-2,-2
82168836923,-1,-2,-2,-3,-2,0,0,0
82168842925,0,0,-3,-4,-3,0,-1,-1
82168842925,-2,0,0,-1,-4,-2,-4,-2
82168851948,1,-1,2,4,6,1,1,-1
82168851948,-1,-1,3,2,1,-2,0,0
82168865394,0,-2,-4,-5,-9,0,1,0
82168865394,-1,0,6,8,15,5,1,-1
82168881884,-1,-2,-2,-1,-1,-1,-2,-1
82168881884,-2,-1,-3,-6,-1,-1,-3,-1
82168887898,-1,0,-2,-3,-7,-2,-1,1
82168887898,-1,-1,-3,-2,-9,-2,-3,0
82168896896,-1,-1,1,4,1,1,1,0
82168896896,-1,0,1,2,4,0,1,0
82168902897,-4,0,-3,-1,0,-1,-1,-2
82168902897,-1,-1,0,-6,-6,-3,0,-1
82168911912,-1,0,0,4,2,-1,0,-1
82168911912,-2,-1,-1,-5,-5,-2,0,0
82168925397,0,-3,-1,3,0,0,-2,-3
82168925397,0,-1,-3,-4,-1,-2,-2,-2
82168934407,0,-1,-4,-2,1,0,-1,-1
82168934407,-1,-1,1,5,1,1,-1,-1
82168947956,-1,-1,2,2,0,0,0,0
82168947956,-1,-2,-1,0,-2,0,-1,1
82168956899,-1,0,-3,-1,-9,0,1,1
82168956899,0,0,-1,-1,4,-2,-1,-1
82168962891,-1,-1,-2,0,-8,-5,-2,-1
82168962891,-1,-1,-2,2,2,-4,-2,-3
82168971919,-3,-1,1,1,-6,-4,-1,-1
82168971919,0,0,-3,8,3,1,1,-2
82168985443,0,-2,2,9,12,2,1,0
82168985443,1,-1,0,-2,1,-2,0,0
82168994395,-3,-2,-4,-4,-3,-1,-2,0
82168994395,0,-1,-2,-1,-7,-4,1,0
82169007942,-1,1,-2,-3,-6,-2,-2,-1
82169007942,-2,-1,-1,3,5,-2,-2,0
82169016879,-1,0,-2,-3,-4,-1,0,-1
82169016879,-3,-3,-3,0,-1,0,1,1
82169022920,-1,-3,0,-1,0,-2,-1,-1
82169022920,-1,-1,-2,-3,-3,0,1,-1
82169031906,-1,0,1,0,-5,-3,-2,-2
82169031906,-2,-2,-2,-3,0,-2,-4,0
82169045436,1,1,1,-7,3,-1,0,-1
82169045436,0,-1,-1,-1,-3,1,0,-2
82169054380,0,-1,1,3,2,0,1,-1
82169054380,0,-2,-2,-3,-5,-1,-1,-1
82169067930,-1,-1,0,0,0,-1,-2,0
82169067930,-1,-2,-3,0,-4,-3,0,0
82169076887,-1,-1,0,-4,-2,-1,-2,0
82169076887,-1,-1,-2,-1,-2,-1,0,-2
82169082922,1,-1,-1,1,-2,0,-1,-2
82169082922,0,-1,1,0,1,1,1,-2
82169091914,-1,-4,-4,-2,-6,-4,-6,-3
82169091914,-3,-2,-2,-3,-4,1,-2,-1
82169105437,-2,-1,-4,0,3,-1,1,-1
82169105437,-1,-1,7,2,4,0,-1,0
82169114374,-1,0,-1,3,1,0,2,-1
82169114374,0,0,-3,-1,-5,-3,0,1
82169127919,-1,-2,-1,-2,-5,0,-1,-1
82169127919,-1,-2,-4,-2,-2,-1,-3,-1
82169136891,0,-1,-1,2,5,-1,2,-1
82169136891,0,-1,-2,0,-1,0,-2,-2
82169151571,-1,0,0,3,-3,0,1,1
82169151571,0,0,2,6,8,1,1,0
82169157960,0,-2,1,-3,-3,-4,-2,-2
82169157960,-1,0,-1,3,0,1,-2,-2
82169165464,-1,-1,1,-7,-2,0,-1,0
82169165464,-1,-3,-6,-7,-8,-1,0,-3
82169174379,-1,1,0,0,1,-1,-1,0
82169174379,0,-1,-3,4,-8,-1,0,-2
82169187935,-1,-2,0,-3,1,-1,-1,-2
82169187935,-2,0,-2,-3,-3,-1,-1,-1
82169196934,-2,-1,-1,-4,4,-1,0,-2
82169196934,-1,-2,-3,-4,-2,-1,-1,-2
82169211821,-2,-1,-3,1,-3,-2,-1,-1
82169211821,0,-1,-2,-3,-8,-2,-1,-3
82169213414,-1,-2,0,0,0,1,-1,1
82169213414,0,0,1,-6,2,0,0,0
82169225404,2,-1,-2,4,1,-2,1,-2
82169225404,-2,0,-4,-2,0,-2,-1,-2
82169234396,-1,-2,-2,0,-5,-3,-2,0
82169234396,0,-1,1,2,13,0,-2,-2
82169247883,-1,-1,5,1,-1,1,0,-1
82169247883,1,-2,-3,-1,-1,0,0,0
82169256913,-2,0,0,-3,-4,1,1,-2
82169256913,0,-2,-1,-2,-1,-3,-1,-1
82169271813,-2,-2,-2,-3,-4,0,-2,0
82169271813,-2,-2,0,4,-2,-4,-2,0
82169273343,0,0,0,-2,4,0,-3,-1
82169273343,-2,-2,-1,-2,0,-1,-2,-1
82169285434,-1,-1,1,0,2,0,-2,0
82169285434,0,1,0,-1,-5,0,-1,1
82169294367,0,-1,-3,-1,-3,-1,-1,-3
82169294367,-1,0,-2,4,-1,-4,-2,0
82169316840,-1,0,-4,2,-1,-2,-3,-2
82169316840,-1,-1,-2,0,-1,-1,-1,2
82169318369,-1,-1,1,3,3,-1,0,-2
82169318369,1,-1,-1,4,-4,-1,-1,0
82169331825,-1,-1,2,-1,0,1,1,-2
82169331825,-1,-2,-1,3,0,0,0,-1
82169333378,0,-2,-4,0,0,-2,0,0
82169333378,-4,-1,-3,-1,-3,-2,2,-1
82169345444,-1,0,2,6,-5,-1,-1,-2
82169345444,-1,-1,-1,-1,-4,-7,0,0
82169354399,-1,-3,-2,1,1,12,0,-1
82169354399,2,0,4,-7,1,-2,0,-2
82169367932,-1,-1,-6,-2,-3,3,0,0
82169367932,0,0,0,-1,1,-7,-2,-2
82169376879,-1,-2,-2,2,-7,-2,1,1
82169376879,-1,0,-1,6,0,2,1,-2
82169391776,0,-1,-1,-3,-2,-9,-3,-2
82169391776,-1,0,0,0,-1,6,0,0
82169393352,-2,-2,-2,3,-6,-5,-3,-1
82169393352,-1,-2,0,0,2,0,-1,0
82169405414,0,-2,-6,-1,0,-2,-1,-1
82169405414,-1,-1,3,3,-1,0,-1,-1
82169414428,-1,-1,2,1,6,1,-1,0
82169414428,-3,-2,0,-3,-6,-2,0,-1
82169427917,-1,-1,-2,-3,-1,0,0,0
82169427917,-1,-2,-3,-2,5,0,-1,0
82169436947,-2,0,-1,1,-4,-3,-1,0
82169436947,1,-1,-1,0,-1,-2,-1,0
82169451872,-1,-1,0,-2,-2,-1,-1,2
82169451872,-3,-1,-1,2,-17,0,0,-1
82169453402,0,0,3,2,13,-3,-3,-2
82169453402,-2,-3,-5,-13,-3,-1,-2,-1
82169465419,-1,0,2,2,5,0,1,-1
82169465419,0,-1,0,2,-4,-3,-1,-1
82169474411,-1,0,-6,-2,-7,-2,-1,-1
82169474411,-2,-1,-4,-7,-4,2,-2,0
82169487956,-1,-2,-1,-1,0,-1,0,-1
82169487956,0,-1,-2,-4,-2,0,-1,-1
82169496913,-1,0,2,-2,6,-4,1,-1
82169496913,0,0,1,1,0,0,2,-1
82169511830,-2,0,0,-1,-2,-2,0,-2
82169511830,1,-1,-2,-3,-4,0,0,-1
82169513370,-1,-1,-1,3,9,2,0,1
82169513370,-2,0,-1,6,-1,1,-1,1
82169525403,-1,-1,-3,-1,-1,-1,-3,-2
82169525403,0,1,6,3,7,2,1,-1
82169534423,-1,-3,-2,-3,-10,-3,-3,-1
82169534423,-1,-2,-2,11,3,-1,-1,-1
82169547916,0,0,-4,1,-3,1,0,-1
82169547916,-1,0,2,0,5,0,-2,-1
82169556927,1,-2,-2,-6,-5,-1,-1,-1
82169556927,-1,-1,-2,6,-2,-3,-2,0
82169571851,-1,-2,1,-1,-1,0,-3,1
82169571851,-3,-1,-4,-3,0,-2,-2,-1
82169573408,-2,-2,-2,-1,-2,-3,-3,-2
82169573408,0,-2,1,-4,-2,-2,-2,-1
82169585452,-1,-1,2,-4,0,-2,-2,-2
82169585452,-2,-1,-3,-6,3,-2,-2,-1
82169594400,-3,-1,-1,-5,-8,-1,-1,0
82169594400,-2,0,1,-2,-1,0,1,-2
82169607966,0,-1,-1,1,-1,-3,0,0
82169607966,-1,-2,-4,-1,-1,-1,-1,-1
82169616914,0,-2,-3,-1,-4,-1,0,-1
82169616914,-1,-4,-2,-2,0,2,-1,1
82169631126,-2,-1,0,0,0,-4,-1,-3
82169631126,-2,-1,-5,-1,-9,-3,-2,0
82169637984,-1,2,1,3,6,0,2,-1
82169637984,-1,0,-3,-2,-1,1,-3,-1
82169645462,-1,-2,-4,0,-3,1,1,0
82169645462,-2,-2,-4,1,0,-1,0,-2
82169654438,1,-1,-1,-3,-2,-1,0,-1
82169654438,-1,1,2,-2,-2,-5,0,-1
82169667966,-1,-1,-1,-3,1,3,0,0
82169667966,-1,-2,-2,-1,-4,-1,-2,-3
82169676903,0,-1,-1,2,0,1,1,-1
82169676903,0,-1,0,2,-1,-1,-1,-1
82169691820,-2,-2,-2,2,-1,-4,-2,-2
82169691820,1,0,0,0,3,1,0,-1
82169693380,-2,-3,-5,-7,-15,0,0,0
82169693380,-1,1,3,11,16,-4,-2,-2
82169714299,-1,0,-2,-4,0,0,-3,-1
82169714299,-2,-1,-2,-1,-3,0,-1,-1
82169715878,-1,-2,-1,2,0,-1,-1,0
82169715878,-2,-2,-6,-5,-9,0,-2,-2
82169727993,-1,-1,-1,0,0,-2,1,-2
82169727993,0,-2,0,-2,4,-1,-1,0
82169736947,-1,-2,-3,-2,-8,-2,-2,0
82169736947,0,-1,-3,0,-5,-2,1,0
82169751831,-1,1,5,5,11,1,0,-1
82169751831,0,-3,-4,-1,-6,-7,-2,0
82169753409,-1,-1,-2,-1,3,-1,-3,-2
82169753409,-2,-2,0,0,-7,1,0,0
82169765457,-2,-2,-3,0,-2,-4,-3,-2
82169765457,-2,-2,-4,-1,-6,1,1,-2
82169774425,0,1,3,-3,2,-5,0,0
82169774425,0,-2,-1,-1,-2,0,-2,-3
82169787942,0,0,0,2,1,-2,-1,-1
82169787942,-2,-2,-1,1,14,5,-1,0
82169796963,-1,-4,-6,-5,-14,-1,1,-2
82169796963,0,-2,5,2,8,-8,-2,0
82169811833,0,0,0,-1,1,8,2,-2
82169811833,0,1,5,4,10,0,0,0
82169813439,-1,-3,-2,0,3,6,-2,-1
82169813439,-1,-2,-5,-16,-17,-12,0,1
82169825442,-1,-3,-6,-6,6,7,-1,-1
82169825442,1,3,9,-1,-14,-16,-1,0
82169834431,-2,-2,-6,-1,-9,2,-1,0
82169834431,1,3,9,-3,2,2,-1,0
82169847916,-2,-6,-10,-7,-14,-11,0,-2
82169847916,0,-2,0,-2,1,9,1,-1
82169856937,0,-1,3,1,2,-3,-2,-2
82169856937,1,-2,-7,1,3,0,1,1
82169871807,0,1,-4,0,-5,-1,-1,0
82169871807,1,1,5,-4,5,3,0,0
82169873382,-2,-1,-1,12,4,-5,0,0
82169873382,-1,2,6,-4,35,9,1,-1
82169885420,-3,-6,-5,-7,-23,-9,-2,-2
82169885420,-1,-1,-3,6,9,8,-1,-1
82169894403,-3,-5,-3,-3,-8,-12,-3,-3
82169894403,-2,-3,-6,1,-20,4,-1,0
82169907945,-1,0,14,4,12,4,0,-1
82169907945,2,-6,-11,-3,-11,-7,4,2
82169916934,5,7,8,6,6,8,-1,1
82169916934,-3,-4,-7,8,-10,-10,-4,-4
82169931156,-1,2,-3,-6,-20,-9,-4,-1
82169931156,1,6,2,0,14,-3,-1,0
82169937947,0,-4,-7,-8,4,5,0,0
82169937947,-3,-5,-7,-6,-8,1,-3,-3
82169945471,1,3,5,0,-3,-1,-1,2
82169945471,-4,-6,-8,-12,-20,-4,-8,-5
82169954410,4,6,17,-7,49,7,7,3
82169954410,0,1,-11,-19,-57,-8,-5,-3
82169967949,0,2,8,28,60,13,4,0
82169967949,-3,-3,-9,-11,-15,-5,-4,-5
82169976941,-1,-3,-2,-1,-9,-1,1,0
82169976941,3,0,2,3,12,7,0,2
82169991614,0,-1,-3,-10,-21,-5,-1,-1
82169991614,-3,-1,-3,-1,-5,-6,1,-3
82169997936,-1,-1,-3,0,-2,2,-2,-3
82169997936,-1,0,1,1,7,-1,-1,-2
82170005430,-2,-3,-4,-2,-8,-2,-1,1
82170005430,-1,-1,4,9,11,6,-1,0
82170014452,-1,-4,-3,-4,-16,-12,-3,-3
82170014452,0,0,0,5,22,13,-2,-1
82170027933,1,-3,-3,-4,2,2,-4,-2
82170027933,-1,-3,-4,-1,-2,-5,-2,0
82170036935,-1,0,6,11,-6,-6,-3,-1
82170036935,-2,-1,2,-6,5,-12,-2,-1
82170051143,-2,-2,-2,-2,3,3,1,0
82170051143,-2,-5,-4,-1,-2,1,-1,0
82170057931,1,-1,-9,-9,-48,-15,-4,0
82170057931,-1,0,4,7,39,0,-1,-1
82170074286,-1,1,1,-4,0,2,-1,-2
82170074286,-2,0,-3,-3,-37,-8,-2,-2
82170075873,-2,-2,-3,6,30,3,0,-2
82170075873,-2,-3,-1,-2,-23,-7,-2,-1
82170087968,-2,0,-2,-5,-33,-17,-2,-1
82170087968,1,2,5,5,26,9,4,2
82170096923,-2,0,-3,-1,7,3,-4,-2
82170096923,2,0,0,0,5,9,3,0
82170111139,-3,-5,-4,-2,9,6,-1,-1
82170111139,-2,-2,1,2,-26,-18,0,-1
82170117940,0,1,0,-4,-1,-8,2,-1
82170117940,-2,-3,-2,3,12,21,0,0
82170134271,-1,-2,-6,-5,-21,-26,-5,-2
82170134271,0,1,9,13,16,16,-1,1
82170135871,-1,-3,-8,4,-3,1,-1,-2
82170135871,0,4,9,0,8,-13,-3,0
82170179976,-1,-1,-3,-3,2,-4,1,-1
82170179976,-1,-1,-2,0,11,19,-1,-2
82170182388,-2,-1,-2,-2,3,10,0,1
82170182388,-3,-2,-3,-5,-21,-9,-1,-4
82170193630,-1,-2,1,4,16,15,-1,-2
82170193630,-1,-1,-3,-6,2,-4,0,0
82170200450,-2,1,2,-7,-6,0,1,1
82170200450,-1,-1,-4,1,-10,-3,-1,1
82170207944,1,1,2,18,0,-5,-1,2
82170207944,0,-2,-3,25,3,-8,0,0
82170216928,-2,0,2,31,-1,9,1,0
82170216928,-2,-3,-1,29,-5,-12,-7,0
82170231085,0,2,1,24,7,-4,1,1
82170231085,0,-2,-1,17,18,23,2,-1
82170231843,-1,-3,-2,22,-1,-7,-3,-1
82170231843,0,-1,-2,17,-17,-8,3,-1
82170239292,0,1,6,25,-4,7,-1,-1
82170239292,0,0,0,20,19,-10,-3,-1
82170240897,-1,1,0,14,2,-7,-2,-1
82170240897,-3,-1,-5,12,-19,3,1,-1
82170254306,0,1,0,18,31,10,3,1
82170254306,-1,-2,1,13,-13,-18,-4,-1
82170255928,0,-2,0,6,-1,1,0,-1
82170255928,0,-1,-2,12,2,-10,-1,0
82170267958,-1,-3,-2,3,-6,2,0,-2
82170267958,-2,-1,-1,-7,-8,-7,0,-2
82170276897,-2,0,1,4,-11,-4,0,-1
82170276897,0,-3,0,-1,28,6,-1,0
82170291137,1,-3,-3,-3,-14,2,0,-1
82170291137,-1,-2,-2,1,1,-14,0,-1
82170297965,-2,-1,-2,-2,-3,15,0,8
82170297965,1,-1,-1,2,-2,-1,-1,5
82170314284,-2,-1,-3,-1,4,-5,-1,-6
82170314284,-1,-2,0,5,-7,17,4,4
82170315896,0,1,-2,3,13,-16,-1,4
82170315896,-2,-1,-2,-2,-12,-10,-3,-7
82170327946,1,-1,-1,-7,-5,1,2,6
82170327946,0,1,0,-6,-5,5,-10,-7
82170336975,1,-3,-2,-2,10,7,1,0
82170336975,0,0,-1,1,3,3,0,6
82170351170,-3,0,0,-1,-6,-10,-2,-6
82170351170,0,0,0,0,4,7,-3,0
82170357963,-1,0,-4,-2,-14,-13,-3,-4
82170357963,-3,0,-1,-4,1,-18,-4,-6
82170381842,0,-1,-1,1,-6,13,0,1
82170381842,-2,-2,-2,-1,-2,-11,4,2
82170383372,-1,-4,-1,-1,-6,4,4,-3
82170383372,-3,1,-1,5,-12,-2,-3,-6
82170387952,-2,-1,-1,0,10,-5,2,0
82170387952,0,0,0,-1,-6,-13,0,3
82170396927,0,-1,-1,0,-3,4,-10,-3
82170396927,0,0,0,2,7,3,-4,-4
82170411116,-1,-2,-2,1,2,6,-4,0
82170411116,-1,-1,-1,-2,0,2,3,-2
82170425460,0,-2,-3,4,-2,-8,-2,1
82170425460,0,-1,-1,6,-6,-1,6,0
82170434266,-2,2,0,-2,-4,-5,-6,-3
82170434266,-2,0,-2,-3,5,6,-2,-1
82170435868,-3,-2,0,-1,-14,-13,3,-3
82170435868,2,-2,0,5,8,12,-1,2
82170447944,0,-2,-1,-3,-3,-3,-5,-3
82170447944,-1,-2,-1,0,-6,-9,-6,-5
82170456963,0,-1,-3,1,14,14,0,-2
82170456963,0,-1,-2,-1,1,4,-1,0
82170471143,-2,-1,-4,0,-8,-8,3,0
82170471143,-2,-2,-2,-2,-13,-9,-5,-5
82170477928,-1,0,1,2,3,-2,-4,-3
82170477928,0,-1,-1,-1,1,1,1,0
82170501822,0,-3,-2,-5,2,-8,-1,0
82170501822,-1,0,0,2,0,1,-1,-1
82170503378,-2,-1,-1,0,-3,2,-1,-1
82170503378,-1,-1,-1,-3,0,3,-3,-1
82170507960,-1,0,-1,-1,-4,0,-2,-3
82170507960,-3,-1,0,-1,-1,0,-5,1
82170524406,4,2,3,-11,7,10,-21,-5
82170524406,-4,-2,-1,-3,1,-2,-3,-7
82170531114,5,0,-2,3,-5,-1,2,26
82170531114,-8,-3,-2,0,5,4,1,-15
82170545459,1,-2,-2,1,-4,-3,6,4
82170545459,0,-1,0,-6,-6,-10,-1,-6
82170554273,0,0,2,-2,4,8,-1,0
82170554273,-3,-2,-1,0,0,-8,5,17
82170555873,-4,-3,-1,-1,-2,1,5,-1
82170555873,0,2,-1,2,-4,-6,2,-4
82170567942,-2,-1,-1,-1,15,25,9,-11
82170567942,1,0,-2,0,-8,-12,-6,-2
82170576947,0,-2,-1,0,0,-4,12,16
82170576947,-2,0,1,1,3,7,-10,-9
82170591192,-2,-2,-2,-1,-2,-15,-1,-7
82170591192,0,0,0,0,-13,7,-4,-6
82170597969,0,0,-2,3,23,13,-2,0
82170597969,1,-3,-1,-3,-2,0,7,11
82170614330,-2,-3,-4,4,-2,-18,3,0
82170614330,1,0,1,-2,-3,3,2,-3
82170615898,-3,-2,-3,-2,-13,-13,-3,-15
82170615898,0,0,0,2,5,6,1,1
82170627986,-6,-1,0,-3,4,1,-1,-4
82170627986,4,-2,-3,-4,-11,-21,7,5
82170636935,-3,1,1,1,7,3,-4,-2
82170636935,-3,0,0,-2,-6,-9,-4,-5
82170651175,1,-1,-1,-7,-12,0,-10,5
82170651175,-1,-3,-3,1,15,7,1,0
82170665483,-2,-3,-1,0,-2,3,1,-5
82170665483,-1,-1,-3,-2,-10,-13,3,6
82170674327,-4,-2,0,2,-8,-15,-3,-5
82170674327,1,-2,-1,-3,-2,6,-1,-7
82170675870,-1,0,0,-5,0,-1,-9,-6
82170675870,-2,-2,-1,2,-5,8,12,9
82170687959,4,1,0,-3,-1,-7,-3,14
82170687959,-1,-2,-4,2,11,1,21,1
82170696908,-2,-2,1,-1,-15,-51,-5,-3
82170696908,1,-1,-1,-4,-9,2,-9,-1
82170711166,-3,0,2,1,-3,-11,-1,-7
82170711166,-3,-2,-3,2,0,3,-12,-1
82170717945,-1,1,-2,3,7,17,11,-3
82170717945,1,1,-2,3,9,6,4,3
82170734316,-2,-2,-2,-2,-9,10,1,-7
82170734316,0,-2,1,-5,-4,-13,1,6
82170735923,0,-1,-2,-3,-9,-8,-9,-4
82170735923,-2,0,0,-2,11,16,-6,-11
82170747945,-2,-2,-1,-3,6,5,-3,16
82170747945,-7,-3,-3,-4,3,6,-10,-42
82170756943,1,1,-2,-4,-14,-8,0,5
82170756943,0,-3,2,0,4,-5,3,0
82170771144,0,1,1,2,-1,-2,-5,-2
82170771144,-2,1,2,0,-5,-4,0,-10
82170777923,1,-1,-1,-1,2,4,0,6
82170777923,-3,-4,-4,2,0,1,-4,-3
82170794290,-3,-2,-3,2,-5,0,0,-5
82170794290,0,-2,-3,2,5,16,0,15
82170795930,-1,-1,0,6,3,6,-7,-12
82170795930,1,-1,-2,-1,3,1,-5,7
82170807963,-1,-4,-3,3,-3,2,-2,-3
82170807963,-1,-3,-1,7,-8,4,-2,-2
82170824443,-2,-1,1,3,5,6,-6,0
82170824443,1,-1,-1,-2,6,11,-5,-2
82170831547,-1,0,-1,-2,-5,-4,-2,4
82170831547,-1,-1,-1,-1,-1,5,1,14
82170839451,-1,-2,-3,0,-2,3,7,3
82170839451,-3,1,0,-5,-7,-16,0,-1
82170853688,-1,-1,-3,-2,14,4,4,-7
82170853688,8,4,2,-2,-7,18,-4,8
82170860449,-2,-1,0,-1,6,-12,-1,4
82170860449,-1,-3,-5,3,-12,-17,13,-7
82170867966,-1,-1,1,-2,7,11,-5,-6
82170867966,-2,-2,-1,3,-9,-4,-1,1
82170876975,-2,-1,0,0,7,-1,3,-5
82170876975,-1,-1,1,0,-4,5,-2,-3
82170891159,-2,-1,-1,0,-8,-15,-3,-3
82170891159,-1,-1,0,-4,1,-8,-5,3
82170897963,1,1,0,-4,-3,11,-3,-3
82170897963,-3,-1,-1,-1,-3,-6,-2,2
82170913678,-3,-2,0,1,-9,-7,5,-3
82170913678,-1,-1,-1,-5,17,3,-2,-2
82170920417,-4,-4,-4,-2,-5,-23,2,3
82170920417,-3,0,1,-1,0,-4,-3,-2
82170927965,0,-1,-2,-2,-9,-1,7,-1
82170927965,-1,-1,-1,2,-7,-14,3,-3
82170936947,-3,-1,-1,3,5,8,0,1
82170936947,0,-1,-3,-3,-2,2,-3,-2
82170951192,1,-2,-1,2,-4,-2,-3,-2
82170951192,0,-2,0,-1,-2,-14,-4,0
82170957958,0,0,-2,-2,13,19,-3,-4
82170957958,2,-1,1,5,-13,2,1,2
82170973440,-6,-1,-5,-1,-6,-30,12,-11
82170973440,3,0,0,-9,4,4,1,17
82170981957,1,-2,-1,-2,-7,-6,2,-1
82170981957,-1,1,-2,-1,4,-3,-6,-7
82170987970,-2,0,-1,-2,4,23,-9,-5
82170987970,-1,-2,-1,-2,-6,-8,-1,-7
82170996955,-2,-3,-1,-3,-9,-6,2,10
82170996955,1,-1,-2,-3,7,7,1,5
82171011170,-2,-2,-3,-5,-3,2,2,3
82171011170,-1,-1,-4,1,-2,-6,-1,-1
82171017932,2,-1,-1,-4,-2,6,-7,-3
82171017932,-1,-2,0,2,8,4,-1,-2
82171033669,1,0,-2,-2,2,-1,2,2
82171033669,-2,-2,-1,-1,-7,-6,0,-5
82171040444,-2,-2,-3,2,-12,-6,4,-7
82171040444,-3,0,1,-6,0,4,-7,1
82171056828,0,-2,-2,0,3,-6,-5,0
82171056828,-3,-1,-1,-2,7,6,7,-2
82171058397,1,1,0,-3,-5,-8,-10,-2
82171058397,-2,-1,-2,-2,5,-3,3,0
82171071196,2,-1,2,-2,11,16,-11,1
82171071196,-1,-1,-1,-2,-2,-5,-4,0
82171078008,0,-1,0,0,0,11,-13,-4
82171078008,-2,-1,-1,-2,-4,-2,0,-5
82171093639,5,0,-1,0,4,1,0,6
82171093639,-9,-2,-5,-2,-4,-9,-5,-21
82171100473,-1,1,-1,1,5,-1,4,0
82171100473,0,-2,0,-1,-12,-4,-1,1
82171116855,-3,0,1,-3,-2,1,-7,-9
82171116855,4,-2,-1,-2,6,-3,-3,8
82171118421,-3,-2,-2,-2,-6,-4,2,1
82171118421,-3,-3,-1,0,-2,-12,-3,-11
82171131175,-3,-1,-2,1,8,3,6,14
82171131175,1,1,-1,2,-5,-5,2,0
82171137969,-1,1,1,-3,0,-2,3,-7
82171137969,0,-1,-1,-1,1,4,-2,12
82171153686,-2,0,-1,-1,-4,1,-7,-12
82171153686,-2,0,-2,2,0,-8,0,0
82171160437,-1,0,-1,-4,-2,2,-10,-6
82171160437,-2,-1,0,-3,-7,4,1,-2
82171176824,0,-1,-1,-4,0,-13,3,0
82171176824,-3,-1,1,2,-3,-3,2,2
82171178401,0,-1,-1,0,1,9,5,1
82171178401,-1,-2,1,-2,2,-9,-4,1
82171191149,-2,-1,-1,-1,1,11,0,-5
82171191149,1,0,0,-2,1,5,-8,0
82171197981,-3,-1,-2,-1,-3,-13,2,0
82171197981,0,1,-1,-2,-4,0,-1,0
82171213642,-1,-3,2,1,-8,-1,-5,0
82171213642,-1,-2,-2,-3,3,9,-3,1
82171220508,0,0,-1,-5,2,1,-14,-4
82171220508,-2,-1,-2,0,-1,5,5,-4
82171236831,1,0,-2,2,-7,-35,-3,-4
82171236831,-5,1,3,-1,-8,9,-10,4
82171238460,0,-2,-1,-2,-4,5,-1,1
82171238460,-4,-1,-2,-2,2,3,2,-11
82171251160,0,0,-3,1,4,12,0,10
82171251160,1,0,-1,-3,-3,-13,1,-2
82171257970,-1,-1,-1,0,-3,-6,7,13
82171257970,-7,-2,-1,-1,-1,-9,3,-1
82171273682,-2,-2,-3,-1,4,7,-1,-4
82171273682,-1,-1,-2,-3,-1,1,-4,-6
82171280436,1,-1,0,3,0,4,4,1
82171280436,3,2,-2,-1,1,-5,-7,3
82171296799,-3,-2,4,-3,-3,-5,-7,-7
82171296799,1,-1,-3,-2,3,11,5,6
82171298422,-2,-3,0,1,-3,-8,4,-4
82171298422,0,-2,1,0,16,-1,-7,1
82171311144,0,1,1,2,-12,6,-4,-2
82171311144,1,-1,-4,-3,-3,-5,3,0
82171317943,0,0,-2,-1,-1,-4,0,-7
82171317943,-3,-2,-4,-4,-3,-1,8,5
82171334310,0,-3,-2,3,-4,-9,2,4
82171334310,1,-1,1,0,6,0,-4,-6
82171340492,-1,-2,-2,-7,-3,-3,-5,-8
82171340492,-1,0,-1,-2,-2,-1,-3,1
82171356825,-5,1,-1,-1,-2,1,1,1
82171356825,3,-2,-1,0,8,-3,4,6
82171358383,-10,-2,-3,2,-22,-4,-6,-10
82171358383,1,0,-1,3,4,1,0,-2
82171370881,-1,-1,-2,0,-4,-1,0,2
82171370881,2,0,0,2,5,-1,-2,-1
82171379494,1,-1,0,-2,5,2,4,15
82171379494,0,-1,0,-1,-7,-3,-5,-4
82171393701,1,1,-2,-1,6,1,-3,-5
82171393701,-2,-2,-1,-6,-5,0,1,-9
82171400467,-4,-3,0,-1,0,-1,-6,-5
82171400467,5,0,-2,-2,-4,1,13,14
82171416820,-2,0,0,-2,3,0,5,4
82171416820,-1,-1,-1,-1,-5,0,-18,-4
82171418432,-1,0,-1,1,-3,-3,2,-10
82171418432,-1,-1,-1,0,0,-3,-4,-2
82171430510,-1,0,-1,-4,0,4,-4,-2
82171430510,-4,-1,-2,-5,-6,-3,2,-2
82171439467,0,-1,-2,-1,4,3,2,4
82171439467,-1,-2,0,0,-1,-6,-7,-4
82171453646,1,-1,-1,-4,-3,-1,-2,-2
82171453646,-3,-3,-2,-2,-3,2,0,-3
82171460449,2,-3,-3,-4,3,-6,3,1
82171460449,0,-2,-2,-4,-5,-3,-4,0
82171476886,-2,1,1,-6,-2,-5,-5,-8
82171476886,-2,-2,-2,-5,7,10,3,0
82171478437,2,-1,-2,-1,1,7,-2,1
82171478437,-2,-1,0,-3,-1,-1,-2,-5
82171490488,0,-1,-1,-3,-3,-8,0,1
82171490488,0,1,-2,1,-7,-6,1,0
82171499473,1,1,0,-4,11,0,-4,-2
82171499473,-3,-2,-4,0,-15,10,0,-2
82171513694,-1,-2,0,-2,-7,2,-1,-1
82171513694,1,-1,1,1,6,-7,4,4
82171520469,-1,-2,0,-3,-1,-1,5,-1
82171520469,-2,0,1,0,11,7,-11,-7
82171537331,-2,-2,-2,-1,-3,-3,6,-3
82171537331,-2,-1,-2,2,-10,-3,-2,0
82171538905,-1,-1,0,0,7,2,1,-2
82171538905,1,0,-1,0,-2,-6,0,0
82171550428,1,-2,-3,1,3,5,-4,-2
82171550428,-2,-2,-1,-3,-5,-8,-6,-5
82171559451,-2,-1,-2,1,-7,2,-1,2
82171559451,-2,-2,-2,-2,-2,-7,0,-3
82171573654,-2,-2,0,-1,3,12,-1,3
82171573654,1,0,-2,-6,-4,-18,-1,-1
82171580433,-1,2,1,0,-3,8,-4,-1
82171580433,0,-1,-1,-4,-3,-3,1,-1
82171596852,-1,-2,-2,3,7,-3,0,1
82171596852,-1,-1,-1,1,-9,6,0,-1
82171598414,0,-2,-1,-2,-3,-4,1,-2
82171598414,-1,0,1,1,-4,-5,-3,-1
82171610477,0,-1,-1,-2,2,-1,-1,-2
82171610477,-1,-2,-1,0,8,4,2,-1
82171619493,0,-2,-2,5,-3,-8,-2,-1
82171619493,0,-1,-3,5,3,4,0,1
82171633719,-1,-1,-1,0,-8,-3,-3,-1
82171633719,-1,-1,-1,1,-4,-2,0,-1
82171640483,-1,-1,0,-2,-4,-3,-2,1
82171640483,-2,-1,-1,-2,-6,-6,-1,-1
82171657331,-3,-2,-4,-2,9,0,-1,-2
82171657331,0,2,5,-2,4,-1,0,-1
82171658902,0,-1,-2,2,-4,-1,-1,-2
82171658902,-2,0,0,-2,5,0,0,0
82171670452,-1,-1,-1,0,-6,-2,-2,-2
82171670452,-2,-3,-4,-1,-12,3,1,-1
82171679463,-3,0,-1,2,2,-3,-3,-1
82171679463,1,-2,2,-4,9,-1,-1,-1
82171701828,0,-1,0,-2,-4,-3,0,-1
82171701828,0,-1,0,4,7,0,1,-1
82171703414,1,-2,-4,1,-6,-3,0,-1
82171703414,0,0,4,1,-3,1,-1,-2
82171724316,-1,-1,1,2,6,1,-2,0
82171724316,-3,-4,-4,-2,-1,-1,-1,0
82171725918,0,-1,-2,0,6,-4,-1,1
82171725918,-2,1,-2,-2,1,4,0,0
82171730454,0,0,0,-2,-5,-5,0,-1
82171730454,-1,-1,-1,2,4,4,-2,0
82171739448,0,0,-1,0,-5,-5,-1,0
82171739448,-1,-3,-3,-1,-3,4,0,-3
82171753699,-2,-2,-3,-4,11,0,-3,-2
82171753699,0,-4,-1,0,-13,-4,-3,-1
82171760461,0,0,4,-5,5,3,2,0
82171760461,-2,-3,-3,-2,-9,-6,-2,-2
82171776218,4,1,3,4,12,-1,1,-1
82171776218,-3,-2,-4,2,1,3,1,-1
82171782969,0,0,-1,2,-5,-5,-2,0
82171782969,-1,-2,-5,0,-1,2,-1,0
82171790452,-3,0,-2,0,-3,-4,-1,0
82171790452,-1,1,2,1,22,-5,-7,-1
82171799441,-2,-4,-4,0,-1,8,-1,-2
82171799441,-2,-2,-1,1,3,42,20,-1
82171813701,-1,-2,2,0,-11,-9,-8,0
82171813701,0,-1,0,-3,-9,-20,-2,0
82171820469,-2,-1,-1,-7,1,-32,-3,-1
82171820469,0,-2,-2,-4,3,40,-3,3
82171836156,-5,0,-1,-3,-15,-16,-10,-15
82171836156,10,1,0,-4,1,9,3,6
82171842942,-2,-2,-1,-6,2,6,5,11
82171842942,0,2,4,1,-7,-27,-6,-2
82171850510,-2,-2,-5,-6,1,10,4,5
82171850510,-1,1,1,-7,-3,-7,-2,-5
82171859449,-2,-3,-8,-2,12,10,0,-1
82171859449,0,1,7,-5,-14,-16,-4,1
82171873645,-1,-1,1,-6,13,3,0,-1
82171873645,-5,-2,-2,-4,-9,2,1,-2
82171880430,-2,-3,-2,-3,5,8,1,-3
82171880430,-4,-1,-4,-6,-16,-13,-6,-3
82171896156,3,1,6,3,9,-5,1,0
82171896156,-2,-1,-1,-1,0,7,1,1
82171903011,-1,-1,0,3,-2,1,-3,-3
82171903011,0,-1,-3,-1,0,-15,-3,-3
82171910505,0,-3,-5,-2,-14,3,1,2
82171910505,-3,-1,2,2,8,6,2,0
82171919464,-1,1,1,-1,-4,1,-2,-3
82171919464,-1,-1,-2,-2,1,-2,0,0
82171934104,0,0,-2,-2,-20,-1,0,3
82171934104,-3,-1,-2,1,8,4,-2,-2
82171940497,-1,-1,-1,1,-6,-3,-3,-4
82171940497,-2,-2,-3,2,11,-7,0,-2
82171956232,-2,-3,-4,-3,-18,2,1,-2
82171956232,-1,-1,4,2,-7,-3,-1,-1
82171962989,0,-1,-4,-3,-4,-5,-4,-3
82171962989,1,-2,1,0,15,7,4,2
82171979359,-2,1,-1,-5,-5,-3,-1,-1
82171979359,-1,-3,-9,-6,-36,-5,-1,-1
82171980949,-1,0,5,7,29,1,-1,-2
82171980949,-1,1,-2,-9,-4,-8,-4,-1
82171993684,-1,-2,0,2,16,4,3,0
82171993684,-2,0,-2,-5,-31,0,0,-2
82172000446,-1,-2,-3,1,1,0,2,-2
82172000446,0,-1,-1,-1,-5,-7,-3,-3
82172016167,1,-2,1,6,11,4,-1,1
82172016167,-2,0,-1,-1,6,-6,-1,-2
82172022969,1,0,-1,0,-14,6,-2,-3
82172022969,-2,-1,-2,6,-1,1,-2,1
82172039328,-1,-3,-5,-1,-7,1,1,-1
82172039328,1,1,3,-3,6,-6,1,-2
82172040919,0,0,0,2,-10,-3,-1,-1
82172040919,0,4,5,6,19,2,2,1
82172053650,0,-2,-5,-2,-2,-4,0,-3
82172053650,-2,-3,-5,1,16,1,-3,-2
82172060496,0,-3,-2,-6,-14,0,-1,-1
82172060496,-4,-2,0,12,23,1,-4,-1
82172076146,0,-3,1,-3,-8,-3,2,1
82172076146,1,1,1,-2,-7,1,-4,0
82172082968,-3,-1,-5,1,-5,-2,-1,0
82172082968,1,1,7,2,30,6,2,0
82172099385,-3,-3,-3,-3,-4,1,-6,-3
82172099385,-3,-6,-3,-1,7,7,1,-1
82172101046,-1,0,-1,-3,-18,-9,-3,0
82172101046,-1,0,-3,-5,-19,-7,-2,0
82172113700,-1,2,2,3,11,-4,-1,0
82172113700,0,-2,-2,0,0,1,2,-1
82172120546,-1,-2,1,0,-2,-4,-2,-2
82172120546,-3,-3,-5,1,2,-1,-1,-3
82172136190,0,-2,0,-3,-5,2,0,-1
82172136190,-1,-1,-4,-5,-6,-7,-1,-1
82172142981,2,2,7,11,23,2,0,0
82172142981,-2,-3,-5,-6,-11,10,-1,-2
82172159342,0,-1,-3,-6,-6,-38,-15,0
82172159342,0,2,4,-3,9,10,4,1
82172160961,-4,-3,-6,-5,-6,35,25,0
82172160961,1,-3,-6,-7,-19,-11,-29,0
82172173687,-2,-3,-1,5,0,-15,12,-2
82172173687,0,0,4,-5,30,14,-1,-1
82172180555,-1,-2,-4,-2,-1,6,7,0
82172180555,-3,-2,-6,-6,-31,-16,-13,-2
82172196184,-3,0,-2,2,-10,15,1,0
82172196184,-1,-1,1,-1,11,-8,0,-1
82172210518,0,2,1,-9,2,-5,-1,-1
82172210518,-2,-1,-2,-3,-9,10,5,1
82172219383,-1,-1,-6,-8,-6,-17,-9,-2
82172219383,-2,0,5,7,1,3,0,-2
82172220984,0,-1,-2,-6,1,-13,-9,0
82172220984,-1,-1,2,-1,-11,-14,2,-2
82172232988,-2,-6,-5,-3,5,26,6,0
82172232988,0,1,-1,-6,-16,-3,-5,0
82172241992,0,0,4,2,8,-7,-7,1
82172241992,0,-2,0,-4,5,-1,6,-2
82172256184,-2,-1,-2,-3,-1,16,2,-1
82172256184,0,-3,-5,-7,-28,-15,-12,-2
82172262979,-1,-1,0,7,18,-15,-9,-2
82172262979,1,-2,-3,-5,-6,5,10,1
82172279380,0,1,0,-5,6,4,-4,-3
82172279380,0,-1,2,3,19,10,4,-1
82172280929,-2,1,-3,0,-18,-5,-5,-1
82172280929,-1,-3,-2,4,-3,-35,-1,-5
82172293031,1,-1,-2,1,-2,26,1,1
82172293031,-3,-4,-10,3,-23,-30,-4,-2
82172301952,0,3,19,17,39,18,3,1
82172301952,-2,-1,2,-3,5,-6,1,0
82172316174,0,2,4,-2,19,1,-5,-1
82172316174,1,-2,-4,2,-7,10,1,0
82172323028,-6,-7,-10,-1,-14,-15,-9,-5
82172323028,1,1,-3,2,-20,-27,-1,0
82172339362,-1,1,4,12,-3,7,-1,-2
82172339362,-2,-3,-1,7,17,8,2,-2
82172340974,2,-1,-2,-9,4,2,3,2
82172340974,-1,0,0,5,7,9,1,0
82172352991,0,0,-1,-2,1,-3,2,1
82172352991,0,-2,-4,-1,-8,-4,0,1
82172362000,-1,-3,-6,-4,-16,-8,-1,-2
82172362000,-1,0,-1,-4,0,11,-2,-2
82172377015,0,-1,-2,0,-14,-15,-3,0
82172377015,0,2,4,1,20,1,0,1
82172382997,-3,-2,-4,-7,-12,1,0,-2
82172382997,-2,-3,-1,-3,14,8,1,-3
82172398658,-4,-2,-1,2,-11,-7,-4,-2
82172398658,0,0,-2,-5,-9,-10,-1,-2
82172399444,-2,0,-3,-6,0,8,-2,0
82172399444,-1,-1,-1,-6,-4,9,1,-1
82172421166,-1,-2,1,1,-1,-3,-2,-1
82172421166,1,-1,-5,-4,7,-8,0,-1
82172421937,1,1,5,-2,14,5,-2,-1
82172421937,-1,1,-1,0,-4,2,-1,0
82172436977,1,1,2,5,21,-4,0,0
82172436977,-2,1,-1,2,1,4,-3,0
82172442962,-1,-5,-1,-1,-18,-17,-1,-3
82172442962,-2,-4,-5,-1,0,8,-1,-1
82172458636,-2,-2,-1,-1,-6,-6,1,-2
82172458636,-1,1,2,-1,9,7,0,0
82172459421,-3,-1,-1,-3,-5,-3,-2,-2
82172459421,-1,1,4,-1,2,-1,-1,0
82172488625,-1,-2,-6,-7,-7,-3,-1,-2
82172488625,-2,-2,-2,0,-1,-2,-2,-1
82172489401,-2,0,-1,-5,-11,-3,-2,0
82172489401,0,-1,0,-1,7,2,0,-1
82172496996,-1,0,0,-1,1,-1,-1,-1
82172496996,-2,-2,-3,-1,-5,-3,0,-1
82172502949,1,-1,-1,4,-4,0,-2,-1
82172502949,-2,0,-2,0,7,6,2,1
82172518647,0,-4,-4,-4,-8,-10,-3,-1
82172518647,0,-1,-2,1,-7,-2,-2,0
82172519427,-1,-1,-4,-7,2,-1,-1,0
82172519427,1,-1,-2,-3,-6,-7,-1,0
82172541172,2,1,3,2,16,4,-1,2
82172541172,-3,0,-1,-10,-9,-3,-2,-1
82172541916,0,-1,0,-2,-5,2,-2,-3
82172541916,-2,0,-1,-2,-3,-2,0,-3
82172557015,-2,-1,-4,-11,-10,5,0,-3
82172557015,0,0,-1,10,18,7,-1,0
82172562975,0,-1,-5,-6,-7,-14,-5,-1
82172562975,0,0,3,1,3,3,-1,-1
82172578666,-1,0,-2,-7,-6,-4,-3,0
82172578666,0,-2,0,-2,-5,-1,0,-3
82172579406,-2,-3,-7,-9,-9,0,0,-1
82172579406,-2,-3,-5,-3,-7,-2,-3,-1
82172601144,0,1,5,-7,19,-4,-1,0
82172601144,-3,0,-3,-9,-9,0,-1,0
82172601911,0,-2,2,-4,7,4,1,-1
82172601911,-1,-2,-4,-3,-15,-4,1,0
82172616967,-2,-3,-3,2,-3,-2,-4,0
82172616967,-2,-1,0,0,7,1,-1,0
82172623022,0,0,0,-4,-4,-1,2,0
82172623022,-2,-2,-5,1,1,5,-2,-2
82172646203,-1,2,1,0,3,0,0,-1
82172646203,-1,-2,1,-3,-4,-4,-1,-1
82172646946,-2,-2,-2,0,-3,-2,-3,-1
82172646946,0,-1,1,-1,5,0,-1,-1
82172661197,-1,0,-4,0,-2,-1,0,-2
82172661197,-3,-1,-1,-4,-7,-3,-2,-1
82172661945,0,0,-4,-1,1,2,-1,0
82172661945,-1,0,2,1,10,3,-1,-1
82172677376,-1,-2,-3,0,-14,-10,-2,0
82172677376,1,-3,1,0,-3,-1,-1,-2
82172683012,-1,-1,2,-1,1,-3,0,-1
82172683012,0,-1,-2,-1,8,1,-3,-1
82172698614,-4,-1,1,5,1,7,-1,0
82172698614,0,-2,-1,-4,-2,-4,-1,0
82172699418,-1,2,0,2,3,2,0,0
82172699418,-2,-3,-3,-4,-14,-8,-1,-1
82172714455,0,1,1,4,10,3,3,0
82172714455,-1,0,2,-5,3,0,0,-2
82172720514,-1,1,0,-3,-1,0,-1,0
82172720514,0,1,-1,0,-9,-3,-2,0
82172737019,0,-1,-2,-4,9,8,-1,-2
82172737019,-2,-2,-3,1,-6,-4,-3,-1
82172742991,0,-2,2,1,6,1,-1,0
82172742991,0,-2,-1,0,3,-1,-1,0
82172758037,-1,-1,-1,-2,-5,0,-2,-1
82172758037,0,-1,0,6,-16,-12,-2,-2
82172765522,-2,-1,-1,1,5,1,0,-2
82172765522,-1,-1,-2,-1,3,-2,-1,-3
82172774464,0,1,2,-5,-3,-5,-3,-1
82172774464,-2,-1,-4,1,6,8,-2,-2
82172780449,0,-2,-2,-5,-12,-5,-1,-1
82172780449,0,-1,1,0,6,3,-2,0
82172796952,-2,-2,-2,-1,-4,-5,-1,0
82172796952,1,-2,0,-12,-4,-4,-1,-1
82172803006,-1,-3,-4,0,-4,-3,-2,-3
82172803006,0,2,3,8,8,3,-1,-1
82172817972,-3,-2,-6,-5,-10,-6,-2,-1
82172817972,-1,1,2,10,10,1,0,-1
82172825493,-2,-1,0,-1,6,2,-2,-1
82172825493,-2,-2,-3,-4,-6,-7,-1,0
82172834481,-2,-2,-3,-1,-13,-3,-2,-2
82172834481,-1,-1,-6,-7,0,-1,0,-1
82172840519,-1,1,4,-1,15,5,1,3
82172840519,-2,-1,0,-3,-2,0,0,-2
82172856956,-1,-2,0,-1,-1,-1,-1,0
82172856956,-1,-1,-3,-8,-11,0,-1,-1
82172862954,0,0,-1,0,-8,-6,-2,-2
82172862954,-3,0,0,-7,-4,-6,-3,1
82172877995,-1,-2,-3,-6,0,4,0,-2
82172877995,-1,3,6,11,9,2,1,1
82172885495,-1,-1,-2,-1,-7,-5,-1,-3
82172885495,0,-1,0,-1,3,0,-1,-2
82172894483,1,0,-1,-1,-2,-4,-3,-2
82172894483,-2,-2,-2,0,-3,-2,-1,0
82172900471,-2,0,-2,-1,-9,-4,-2,-2
82172900471,0,0,0,0,3,3,1,0
82172916978,-1,-2,-2,-3,0,1,-2,0
82172916978,1,-1,0,-5,2,1,-1,0
82172923006,0,-3,-1,0,-4,-2,-2,-3
82172923006,0,-3,-4,-5,-5,-6,0,-2
82172937982,-1,0,0,1,7,0,0,0
82172937982,-1,-2,-3,1,-3,0,-2,-1
82172945484,-1,-1,-3,-3,1,-1,-1,0
82172945484,-2,-1,-2,-3,-8,-1,-3,-3
82172961174,-2,-2,-1,-1,-7,-1,-3,-2
82172961174,0,0,3,-2,31,5,2,-1
82172961946,0,-2,-3,-3,-7,-2,-1,-2
82172961946,0,-1,-1,-3,1,-1,-1,0
82172977005,0,-2,-3,-4,-10,-3,-1,-1
82172977005,-2,0,-3,0,-12,-3,-3,-2
82172982986,-1,0,0,3,4,3,1,-2
82172982986,-1,-1,-3,-5,-4,-1,1,-1
82172998022,0,2,5,2,4,1,0,-1
82172998022,-1,-3,-3,3,-2,-2,0,-1
82173005512,0,-1,0,3,10,2,-1,0
82173005512,0,-2,0,1,-6,-5,-4,0
82173021206,-2,0,-2,3,1,-1,1,-1
82173021206,-1,-1,-2,-5,-8,-3,0,-1
82173021974,-2,-2,-3,-1,-10,-1,-1,-1
82173021974,-1,0,1,2,4,-3,0,0
82173045168,-1,-2,-1,-1,1,-4,-1,-2
82173045168,-1,-2,-3,-9,-5,3,-1,0
82173045953,-2,-2,-5,5,-6,-3,-3,-1
82173045953,0,3,8,3,14,4,0,1
82173058030,-1,-1,-1,1,7,-1,0,-2
82173058030,-3,0,0,3,-5,-2,-2,-3
82173065471,-3,-2,-3,-2,-3,0,0,0
82173065471,1,-2,-2,3,-6,-2,-1,-1
82173081157,-2,-2,1,-2,7,5,-1,0
82173081157,-1,-1,-2,-2,-3,-6,0,-1
82173081949,-2,-2,-1,1,-3,1,-2,0
82173081949,-2,-1,-1,2,-7,0,0,0
82173096997,1,0,3,9,8,-3,-2,0
82173096997,-1,-1,-3,-9,-5,-3,-2,-1
82173102990,-1,0,-1,2,-1,-2,-2,0
82173102990,-1,-1,-2,-3,-9,-1,-1,-2
82173118002,1,-2,1,2,3,-3,-1,-2
82173118002,-1,-1,0,5,2,2,0,0
82173125506,-1,0,-2,-2,1,-2,0,-1
82173125506,-2,-2,1,0,0,-1,-2,0
82173141201,-2,0,-5,1,-4,0,0,0
82173141201,-2,-1,1,9,-2,-3,-3,0
82173141967,0,-1,-2,-3,1,0,0,0
82173141967,-1,-3,-6,0,-5,-8,-2,-2
82173157000,-1,-1,1,-6,4,4,1,1
82173157000,-2,-2,-1,0,-9,-4,0,-2
82173163023,0,-1,1,-1,6,-2,0,-1
82173163023,-2,-2,-3,-3,-5,0,0,-1
82173178037,-1,-2,-3,-4,-2,-1,-2,0
82173178037,-2,-2,-6,-8,-3,0,-2,0
82173185526,1,1,4,0,1,0,1,0
82173185526,1,-1,-2,-5,1,-3,-2,1
82173201145,-2,-1,-4,1,-10,-4,-2,-1
82173201145,-1,-2,-2,0,-3,0,1,-1
82173201911,-2,-1,-4,-3,3,-1,0,0
82173201911,0,-2,3,-5,0,0,-2,-2
82173216968,1,-1,-1,-6,0,-4,-1,-2
82173216968,-1,-3,-1,-6,2,1,-1,0
82173223035,0,-2,-1,1,-5,-1,-1,-1
82173223035,-2,-1,-4,3,-1,1,0,-2
82173237990,-2,-1,0,3,-4,-3,-1,-1
82173237990,-1,1,0,-6,-4,-2,-1,-2
82173253729,-2,-2,1,-4,2,-2,-2,-1
82173253729,0,0,-2,0,4,2,1,-1
82173261132,-1,-3,-2,-1,-3,0,-2,-2
82173261132,2,0,-1,1,0,-2,-1,0
82173261903,-1,-2,-1,4,-8,-2,0,0
82173261903,-2,0,-2,-2,4,-2,-2,-1
82173276951,-1,-1,1,-4,-2,-3,0,0
82173276951,-1,-2,-3,2,-1,-1,1,-1
82173283011,0,1,1,3,-1,-3,-1,-1
82173283011,1,0,1,0,2,2,-3,3
82173298006,0,-3,-2,-2,-2,0,-4,-2
82173298006,0,-2,1,3,1,3,-6,-1
82173305468,-2,0,-3,-3,0,0,-2,-1
82173305468,-2,-1,-2,2,1,-1,-2,-2
82173321153,-1,0,-3,-5,-6,-3,-2,-1
82173321153,1,1,0,0,1,0,-1,-1
82173321926,-1,-3,-5,3,4,0,-2,-1
82173321926,-1,0,3,-4,-1,-2,0,-2
82173336990,-2,-3,-4,-2,-3,-1,1,1
82173336990,-4,-2,-1,-2,-3,-3,1,-1
82173343020,-1,-1,-1,-3,1,-3,0,0
82173343020,-1,-1,-3,-4,-2,-3,1,-2
82173357998,0,1,0,2,2,-1,1,-1
82173357998,1,-1,-3,-3,-5,-2,-1,-2
82173365508,-1,-1,5,-3,-2,1,-1,-2
82173365508,0,-2,-5,3,-2,0,-2,-1
82173381159,-1,-1,-2,1,-1,-2,-1,1
82173381159,-2,-1,-2,-2,1,1,-1,-2
82173381926,-3,-3,-3,-4,-4,0,-1,0
82173381926,0,0,0,0,-3,-3,-1,-2
82173396980,-1,1,2,1,0,0,-1,-1
82173396980,-1,-2,-2,0,-9,-3,0,-1
82173402984,-1,-1,0,1,-2,-2,-1,-3
82173402984,-1,-1,1,6,12,0,0,0
82173418031,-2,-3,-2,-4,-6,2,-1,-1
82173418031,1,0,3,2,4,-1,1,0
82173425510,-2,0,-1,-1,-12,-6,-2,0
82173425510,0,-2,-1,-1,3,5,1,-1
82173441163,-1,0,1,-2,0,-2,-1,-3
82173441163,-2,-2,-4,-2,-8,0,0,0
82173441947,0,2,6,3,7,-3,1,-2
82173441947,-2,-3,-2,-4,1,-1,-2,-1
82173457022,-2,-2,-1,1,-1,-1,-2,-2
82173457022,-3,0,-3,-7,1,-1,-1,-2
82173463054,0,-3,-1,3,-4,-3,-3,0
82173463054,-2,-3,-4,-2,-3,-3,0,-2
82173478011,0,-1,-1,-2,1,1,-2,1
82173478011,1,2,-1,5,-2,-3,0,-4
82173485520,-1,-1,-4,-4,3,1,-1,0
82173485520,-1,0,1,-2,-3,-1,-1,1
82173501172,-1,-2,-2,2,2,-1,-2,-1
82173501172,-1,-2,1,1,0,-4,-1,0
82173501975,0,0,-2,-4,1,1,0,-1
82173501975,0,-2,-2,1,-2,1,-1,-2
82173517028,-1,0,-2,-2,2,5,1,-2
82173517028,-2,0,-1,4,3,0,-3,2
82173523005,-2,-2,-3,-1,-2,-1,-1,0
82173523005,-1,-2,1,1,-4,-4,-1,0
82173538036,-2,-1,-3,0,-2,-4,0,0
82173538036,1,-1,0,-4,-1,-2,-2,-1
82173545525,-1,-2,-3,0,0,4,0,-1
82173545525,-2,-1,0,0,-6,-2,-2,0
82173561170,1,-1,0,-1,-3,-3,-2,-1
82173561170,1,-2,0,-3,3,2,-1,-1
82173561945,0,0,-3,-4,-4,-2,-2,0
82173561945,-2,-2,-4,-1,-1,-3,-3,-2
82173576977,0,1,4,3,1,3,0,0
82173576977,-4,-5,-7,-3,-13,-5,-3,0
82173583025,1,2,4,5,14,4,0,-1
82173583025,0,0,1,-3,-1,0,0,0
82173597968,-1,-1,-2,3,8,-5,-1,-1
82173597968,-2,-1,0,-9,0,1,-2,0
82173605502,-1,-5,-4,-4,-7,-2,0,-1
82173605502,-3,-1,-4,-1,-6,-2,-1,-1
82173621177,-3,0,-2,-4,-4,-2,0,1
82173621177,-2,1,-1,-1,1,3,-1,-2
82173621931,1,-2,-1,2,1,-1,-2,-1
82173621931,0,-1,-1,-2,-1,0,-2,-1
82173637808,0,-2,-2,-5,-4,-2,-1,-1
82173637808,-1,0,3,5,3,0,0,0
82173642989,-3,0,-3,-4,-4,-2,-1,-1
82173642989,-1,1,0,4,-1,-2,0,-2
82173657996,-1,0,-2,-1,-5,3,0,-1
82173657996,1,-1,2,3,4,-5,0,0
82173665488,-1,-3,-2,1,-3,2,-1,-1
82173665488,-1,-3,-1,8,9,-3,-1,1
82173680525,-1,-2,-1,-3,-7,-1,-2,-1
82173680525,-1,-2,-4,2,-4,-4,-1,-1
82173688015,1,1,2,-1,-2,-4,0,0
82173688015,0,0,-3,-3,-8,1,0,-1
82173697033,0,-1,-1,3,7,-1,2,0
82173697033,-2,1,2,4,4,3,-1,-1
82173702991,0,1,-1,-1,-3,-2,-2,-1
82173702991,-2,-1,-2,-9,-5,-2,-1,-1
82173718086,0,-1,-2,-1,0,0,-1,0
82173718086,-1,-1,-2,-4,-5,3,1,-2
82173725570,-1,-1,0,-5,5,5,0,-2
82173725570,0,0,-3,1,2,-2,1,-1
82173740486,-2,-1,-1,-5,-6,-3,-3,0
82173740486,-1,-3,-6,-4,-5,-1,-2,-2
82173748037,-1,-2,4,4,-5,-1,-1,-1
82173748037,-1,-2,1,2,2,-5,-2,0
82173757009,-1,-3,-2,-1,7,3,-1,-3
82173757009,0,-1,-1,7,1,0,0,0
82173763024,-2,-3,-4,3,-3,-3,0,-2
82173763024,-1,0,-1,0,-4,-1,0,-1
82173778012,0,-2,-2,4,-6,-4,-1,-2
82173778012,-1,0,1,-3,4,0,-1,-1
82173785537,0,-1,0,-1,-4,1,-2,0
82173785537,-2,-1,-2,2,4,1,-1,-1
82173800540,-1,-1,-2,-7,-6,-1,-1,-1
82173800540,1,-1,0,2,3,1,-3,-1
82173808019,-1,0,-3,0,1,-3,-2,0
82173808019,-2,0,-2,-3,-9,-1,-1,-2
82173817037,-2,-2,-3,-3,5,2,-1,1
82173817037,-1,0,7,0,2,-3,1,-2
82173823043,0,-2,-3,1,-4,-4,0,-2
82173823043,-2,0,1,5,2,1,-2,-2
82173838089,1,1,-1,1,-6,-3,0,-1
82173838089,-3,-2,-3,1,-3,-2,0,-1
82173845565,-1,-1,-4,-3,-9,-4,0,-1
82173845565,-1,0,-1,0,-1,-1,-1,-1
82173860488,-1,-1,0,0,13,0,0,-1
82173860488,0,-2,-2,-1,-3,-3,-2,0
82173867969,-1,0,-1,-2,-3,1,0,-2
82173867969,0,-1,-1,-4,-1,0,-2,0
82173883699,0,-2,-3,-2,-7,-3,-1,-2
82173883699,-1,-3,3,-2,3,0,-2,-1
82173884425,-2,-4,-4,-6,-9,-6,0,-1
82173884425,-1,-1,0,3,13,7,-2,-1
82173897999,-1,0,4,-3,1,0,0,0
82173897999,-3,1,-3,-5,-4,0,0,-2
82173905520,-1,-1,1,3,3,-3,-1,-1
82173905520,1,-2,-3,0,-6,-3,-1,-1
82173920540,-2,-1,-1,8,-3,0,-2,-1
82173920540,0,-2,-5,-4,-6,-2,0,0
82173928003,0,0,2,-3,5,-3,-1,-1
82173928003,0,-2,0,-5,6,3,1,-2
82173943694,-2,-3,-1,-2,-5,2,-1,-3
82173943694,-1,-1,-7,-1,-6,-4,0,-1
82173944478,0,0,5,9,-2,0,-1,-1
82173944478,1,-2,0,0,5,0,0,0
82173958038,-1,-2,-3,4,-1,-2,-1,-1
82173958038,-1,-2,-1,-2,-4,-1,0,-1
82173965530,-2,-4,-3,2,12,1,-1,0
82173965530,-1,-2,-1,-3,-4,-5,0,-2
82173980509,1,2,-1,0,-3,-2,-2,0
82173980509,0,-2,-4,0,0,-1,-2,1
82173987977,-2,-1,-3,-3,1,2,-3,-2
82173987977,-2,0,0,-2,-4,-3,-3,-1
82174003685,-2,-3,-4,1,-7,-3,0,-2
82174003685,0,0,3,-3,5,1,-1,-1
82174004471,-1,-1,-2,-7,0,-1,-1,0
82174004471,-4,-1,-4,-2,-4,-2,-2,-1
82174018001,-1,0,2,-1,-2,-3,-1,-1
82174018001,0,1,3,1,3,-1,-1,0
82174025545,0,-1,-1,2,2,0,-2,-1
82174025545,-1,-1,-4,-1,-9,-2,-1,0
82174040553,-2,-1,-1,1,7,-1,-2,-1
82174040553,1,-1,0,-6,1,0,-3,-1
82174048055,-2,0,-2,-7,-6,-1,-2,-1
82174048055,1,-2,-1,-3,-3,-2,-1,1
82174063737,0,-2,1,-6,2,-1,-1,-1
82174063737,-1,-2,-1,0,-2,-1,0,-2
82174064513,-1,-1,-5,-5,-2,-1,0,-1
82174064513,-1,-1,-2,0,-5,-6,-2,-1
82174078008,0,0,0,-2,0,-1,0,-1
82174078008,-2,-1,-3,-8,4,4,-1,0
82174085510,-2,-2,-3,-5,-7,0,0,-1
82174085510,-3,0,5,6,2,-3,-1,1
82174100541,-1,-2,-3,-4,-4,-3,0,0
82174100541,-2,-1,-3,0,-2,-1,1,0
82174108010,-1,0,-1,0,-1,0,-1,0
82174108010,-1,0,-3,-3,1,-1,-2,-3
82174123659,-1,-1,0,-3,-2,-3,-2,-1
82174123659,0,-1,-1,-1,-3,0,-2,-2
82174124446,-1,-3,0,1,1,0,-2,1
82174124446,0,-2,-2,-1,1,1,-1,-1
82174138036,-1,-2,-3,-5,-4,-1,-1,-2
82174138036,-1,-4,-1,-2,0,-1,1,-2
82174145533,-1,-1,1,3,2,-1,0,0
82174145533,-1,-2,-2,-2,-3,-1,0,-1
82174160575,-2,-1,0,3,0,2,0,1
82174160575,0,1,1,-3,2,-1,-1,-1
82174168017,0,0,-1,2,-2,-1,0,-2
82174168017,-2,1,-2,-1,-15,0,0,-2
82174183658,-1,-1,-4,1,10,-2,-2,0
82174183658,-2,-2,-2,1,-1,-2,-1,1
82174184428,-2,-1,0,-7,0,2,-1,-1
82174184428,1,-2,-3,-2,-1,-1,1,0
82174198030,0,-1,-2,-1,-7,-1,-2,-1
82174198030,-1,-1,2,5,-1,-2,1,0
82174205485,0,-2,-3,0,4,-2,-2,-2
82174205485,0,-1,-2,-3,-4,-1,-2,-1
82174220526,-2,0,0,5,4,1,1,0
82174220526,-1,-2,-3,0,-1,-1,-3,-2
82174228035,0,0,-2,1,-8,-6,0,1
82174228035,-2,-3,-2,0,11,3,-1,-1
82174243735,-2,-1,1,5,-3,-2,0,1
82174243735,0,-1,-4,1,-1,-2,-2,-1
82174244457,-1,-2,-1,3,-4,0,-1,-2
82174244457,-1,-1,1,0,8,-3,-1,-1
82174258064,-2,-2,-3,-6,-9,1,0,1
82174258064,-1,-1,-1,-2,1,-1,-1,-1
82174265555,0,-1,-2,-4,-5,-3,-2,-1
82174265555,-1,-1,-2,0,0,-2,-1,-1
82174280548,0,-1,-2,0,-1,-2,-1,-1
82174280548,-3,-1,-3,1,-7,0,-1,0
82174288035,-2,-1,6,5,3,-2,0,-1
82174288035,-1,-1,-2,1,-2,-2,-2,-2
82174303654,-1,-2,-3,0,0,0,0,-2
82174303654,-1,-1,0,-2,-1,-4,-1,-1
82174304439,-2,-2,-3,4,2,2,-1,-1
82174304439,0,0,-1,-9,-5,-3,0,0
82174318012,1,0,1,-2,9,2,-2,0
82174318012,1,-4,0,5,-3,-2,1,0
82174325530,0,-1,1,1,12,1,1,0
82174325530,-1,-2,-3,0,-6,-3,0,1
82174340536,0,-2,-1,0,-6,-2,0,-2
82174340536,-1,-2,-2,-4,0,1,-2,-1
82174348038,0,-1,0,-7,-6,-1,-1,-2
82174348038,-1,1,0,2,-4,-3,-3,-2
82174363685,-1,-1,0,-6,3,-4,-2,-1
82174363685,-1,0,-2,2,4,1,-1,1
82174364460,-1,-1,-5,-5,-5,-3,0,-2
82174364460,-2,-2,-1,3,3,0,0,-1
82174378092,0,-2,-2,-3,-5,-1,-2,-2
82174378092,-1,2,1,1,-2,0,-1,-1
82174385544,-2,-2,1,0,2,-3,-2,-1
82174385544,-1,0,-3,0,-2,0,-3,0
82174400522,0,0,2,4,-2,-2,-3,-2
82174400522,-1,-2,-2,-2,1,1,-2,1
82174408046,0,-2,-4,-1,-2,-2,0,-1
82174408046,-1,1,5,-3,4,0,-2,-1
82174423496,-1,0,-3,-3,-5,-1,-3,-2
82174423496,-1,-2,-2,-3,0,0,-2,-2
82174431252,0,1,0,1,-1,0,-2,1
82174431252,-2,-2,-2,0,0,-2,-1,-2
82174438006,0,-3,0,-3,0,-2,-1,0
82174438006,1,1,-1,-4,-3,-2,1,0
82174445510,-2,-2,-2,-2,-3,0,-1,0
82174445510,0,-1,0,2,1,-1,-2,-1
82174460554,-1,0,0,-8,-2,1,1,-1
82174460554,-2,-1,-1,3,9,-1,1,-3
82174468026,-2,0,-2,-2,-4,-3,0,-2
82174468026,0,-1,-2,-4,-5,1,-1,-2
82174483683,-2,-1,-3,-8,-3,-2,-2,0
82174483683,-1,-1,-3,-3,-11,-1,0,-1
82174484476,1,2,6,6,15,1,1,2
82174484476,-1,-2,-1,-2,1,-2,-1,-2
82174498021,0,-2,0,2,-2,-1,-2,-1
82174498021,-1,-3,-4,-6,-7,-1,-2,-1
82174505541,-1,-2,-3,1,-2,0,-1,-1
82174505541,0,-1,0,0,-2,2,0,-2
82174520572,-3,-1,-2,-3,-2,-1,0,0
82174520572,-2,0,0,1,-7,-4,0,-1
82174528064,-1,-2,0,3,5,2,0,-2
82174528064,-1,-3,-1,0,8,2,-1,0
82174543669,0,-1,-4,0,-5,-1,0,0
82174543669,-2,-3,-2,-2,-2,-2,-1,-1
82174544455,-3,0,4,-1,-8,-6,-1,-1
82174544455,0,-2,-6,0,1,0,0,-1
82174558013,-1,-1,0,8,1,1,-2,-1
82174558013,1,-1,-1,1,0,-1,-1,0
82174565531,0,-1,-4,-5,-7,-2,-2,-2
82174565531,-3,1,0,1,-1,-2,-2,-1
82174580556,-2,-2,-1,1,0,1,-1,0
82174580556,-1,0,1,-1,0,0,-1,0
82174588031,-3,-2,-2,1,-1,0,-1,-4
82174588031,-1,-1,-2,-3,-16,-1,-1,0
82174603698,-1,0,-1,3,17,-4,-3,0
82174603698,-1,-1,-2,-2,-4,-2,0,-2
82174604482,-3,-2,-4,0,-8,-1,0,-1
82174604482,-1,1,1,0,6,-2,0,0
82174618056,-2,-3,-3,3,-14,-4,0,-2
82174618056,-1,0,1,3,7,0,0,0
82174625562,-1,-3,-3,-3,3,4,-2,0
82174625562,-2,-1,-1,-1,-8,-4,-2,-2
82174640570,0,-1,-2,4,-2,-1,0,-2
82174640570,-1,-2,1,-2,2,-1,-2,-1
82174648022,0,0,-1,-1,-3,-2,-1,-1
82174648022,-1,0,-3,3,2,-4,-3,-2
82174663042,1,0,1,-2,-1,-4,-1,-1
82174663042,-2,1,-2,3,-4,-1,-1,-1
82174671304,0,-1,-2,3,0,-1,-1,-1
82174671304,-1,-2,-1,0,2,0,-2,-2
82174678012,-1,0,4,-9,11,1,-1,0
82174678012,-1,-1,4,2,-4,-1,-1,-2
82174685509,1,-2,-2,-1,7,0,0,0
82174685509,0,-3,-4,1,-6,-5,-1,1
82174700532,-3,-1,-3,3,0,4,2,-1
82174700532,-2,-2,0,-7,-3,0,-1,-1
82174708032,1,0,1,2,-4,-2,-2,1
82174708032,0,1,2,0,0,1,-1,0
82174723063,0,-2,-4,-3,-4,-3,-1,-1
82174723063,1,-1,-2,2,4,0,-1,-2
82174731211,0,-1,-3,-1,-2,-3,-1,-2
82174731211,-2,-1,1,-3,0,1,1,-1
82174738018,1,-2,-1,-3,-7,-2,-1,0
82174738018,-2,-2,-2,-3,3,2,-4,-2
82174745570,-13,0,-3,-10,-2,-8,-1,-4
82174745570,20,-2,-4,-1,-11,3,-2,16
82174760504,0,0,5,3,8,-5,-4,-45
82174760504,-12,0,4,4,6,-2,0,1
82174767986,5,-1,-4,-2,-8,1,-1,-2
82174767986,6,1,-3,-4,0,-1,1,-1
82174783101,-6,2,7,1,-8,-7,0,7
82174783101,6,-4,-6,-3,26,4,-4,-2
82174791237,-4,0,12,13,12,-3,2,-3
82174791237,-9,-2,-4,-14,-7,-2,-5,-2
82174798030,6,0,-10,-5,-30,-5,6,9
82174798030,-5,-3,2,3,16,10,-6,-7
82174805534,-1,-3,-5,-6,-6,7,2,4
82174805534,-3,-2,2,-1,-8,-19,-2,-4
82174820545,-4,-1,0,1,10,8,1,5
82174820545,-4,-2,-6,-2,-24,-4,0,0
82174828036,0,-3,-3,-2,3,-1,-4,-3
82174828036,-2,0,4,1,20,8,1,-4
82174843076,-6,-5,-5,-6,-9,-3,-4,4
82174843076,3,0,-5,-8,-4,-10,-1,2
82174851211,5,-1,0,-6,0,4,-2,1
82174851211,-7,1,-5,0,-6,0,3,-6
82174866233,-6,-2,7,1,12,4,-2,2
82174866233,5,1,-2,-5,-11,6,4,2
82174866972,-2,0,0,3,-9,-7,-1,-3
82174866972,-4,-2,4,2,26,3,0,-2
82174880554,1,-6,-6,-2,-2,-2,-4,1
82174880554,1,-1,4,0,-3,-5,-1,1
82174888075,-3,-2,-2,-7,-8,-6,-1,-1
82174888075,-3,-5,-4,3,-3,-3,-3,-2
82174903003,2,0,-3,1,-2,1,-4,1
82174903003,-1,-1,0,-2,-12,-6,0,-3
82174911242,1,0,2,0,15,-1,-4,0
82174911242,-3,-1,-1,-1,-8,1,-1,0
82174926246,-2,1,0,-1,1,-1,1,0
82174926246,-1,-1,-5,2,-8,-4,-1,0
82174927039,-1,0,-1,-1,-1,0,-2,-3
82174927039,-1,0,1,4,2,-1,-2,-1
82174940517,1,0,-1,2,1,0,4,1
82174940517,-1,-3,-4,-2,-2,-2,0,-1
82174948056,2,-1,-1,6,-2,0,-2,-1
82174948056,-2,-1,0,0,-3,-2,1,-3
82174963012,-3,-1,-3,0,0,0,0,1
82174963012,1,-1,-1,0,-3,-4,-2,1
82174971273,0,0,-3,-1,0,3,0,0
82174971273,-1,-2,-1,-3,-11,0,-2,-1
82174986184,2,1,-2,5,14,1,0,0
82174986184,2,2,5,1,3,1,1,-1
82174986953,-2,-3,-3,-10,-3,-3,-3,-1
82174986953,-2,-2,-2,-3,-3,0,-2,-1
82175000546,-2,-2,-5,1,-7,-3,-4,1
82175000546,-2,-1,0,0,2,-1,2,-2
82175008031,-1,-1,0,4,-2,-2,-1,1
82175008031,0,0,-1,-1,-2,-1,-2,-1
82175023060,0,0,-2,-2,-3,-2,-1,-1
82175023060,-3,0,-3,-1,-2,-3,-1,0
82175031298,0,-1,-1,-5,-1,3,0,0
82175031298,0,-1,0,-4,0,3,-1,-1
82175046189,-1,-1,0,-3,0,2,0,-2
82175046189,-1,-1,-1,-1,2,0,0,-1
82175046980,0,-2,-3,-2,-5,0,-1,0
82175046980,-1,0,-1,6,0,-2,0,-2
82175060543,-2,-2,-3,-6,-4,-2,-1,-2
82175060543,0,-2,-1,3,-1,2,-1,0
82175068029,-2,-3,-2,4,-1,-4,-1,0
82175068029,-1,1,0,0,1,-1,-2,-2
82175083068,-2,-3,1,-8,0,-1,-2,0
82175083068,-1,1,0,3,-2,-2,-3,0
82175091251,-3,-2,-3,1,-3,-3,-4,1
82175091251,-1,0,0,0,-3,-2,0,1
82175106271,-2,-1,0,-6,-4,-1,0,-1
82175106271,-1,-4,-2,2,-4,-2,-6,-1
82175106977,-1,1,0,-1,18,6,1,-1
82175106977,1,-2,-2,-5,-5,-4,-1,1
82175120568,-1,0,-1,0,-5,-9,-2,-4
82175120568,-1,0,-1,-2,-2,5,1,0
82175128078,-2,0,-3,-4,-13,-4,-1,-1
82175128078,-1,-2,-1,7,19,5,1,-1
82175143087,2,0,1,3,0,1,-3,0
82175143087,-2,-1,-4,-4,-2,-3,-2,-1
82175151240,-1,-1,-1,-4,-13,-10,0,0
82175151240,-1,-1,0,1,-3,3,1,-1
82175166245,0,-2,-1,-2,-5,-5,-1,1
82175166245,0,-2,0,-4,7,3,1,-2
82175167031,-1,-3,-1,1,1,-1,0,-1
82175167031,-2,-2,-2,-4,-14,-8,-2,-1
82175180578,0,0,4,3,11,4,-1,0
82175180578,0,-2,-2,-2,-7,-4,-2,-3
82175188052,1,0,1,-3,6,8,1,-2
82175188052,-1,-1,-3,0,1,-6,-2,-1
82175204567,0,-3,-2,0,-2,0,0,-2
82175204567,-2,-1,0,-4,-5,-5,1,0
82175211204,-2,-2,0,-2,-3,-5,-2,-2
82175211204,0,-1,-2,-5,1,3,-2,-2
82175226212,-2,0,0,-4,-1,1,0,-1
82175226212,0,-1,-1,-3,0,0,-1,-1
82175226983,0,1,-1,-1,-3,0,-1,2
82175226983,0,-3,0,-6,-1,-3,-3,0
82175240555,0,-1,-5,-4,-1,1,-2,-2
82175240555,-2,0,2,0,1,-1,1,0
82175248075,-1,0,-1,-5,-4,-4,-2,0
82175248075,-2,1,-2,-7,5,3,-1,0
82175263056,0,-1,-2,1,-5,-2,-1,-1
82175263056,-2,-2,-2,1,-3,-6,-3,-1
82175271257,-2,-1,-3,-3,0,1,-3,-3
82175271257,-1,-1,1,4,-1,-4,2,1
82175286206,-2,-3,-1,-3,-1,3,0,0
82175286206,0,-1,-2,2,-6,-11,-1,0
82175286993,1,-1,-4,3,-2,-1,-2,-1
82175286993,0,0,0,2,-3,-8,-3,-2
82175300492,-1,1,2,4,1,2,0,1
82175300492,-1,-2,1,-2,-4,2,0,-1
82175308061,-2,-1,0,4,0,-3,0,-3
82175308061,0,-1,-1,3,-2,1,2,-1
82175323050,0,-1,1,5,12,10,0,-2
82175323050,-1,0,-1,1,-4,-4,-2,1
82175331322,-2,-3,1,4,-2,-2,1,0
82175331322,-4,-2,-2,-2,-3,5,-1,-1
82175346207,-1,0,0,-1,-8,-10,-2,-2
82175346207,1,-1,0,-1,3,3,0,0
82175346949,1,0,-1,-5,-2,2,-1,-1
82175346949,0,-1,-3,2,-12,-18,-1,0
82175360538,-1,-3,-1,2,11,13,-1,0
82175360538,-1,-3,-2,-2,-5,2,0,-1
82175368056,0,0,-1,2,-4,-6,0,0
82175368056,-1,-2,-1,1,6,14,-1,0
82175383071,-2,-3,-3,-1,-12,-10,-1,-2
82175383071,-1,-1,0,-3,-2,-1,-3,-1
82175391269,0,-2,0,-1,10,7,3,0
82175391269,-3,-1,0,-1,-9,-5,-3,-1
82175406187,-2,-1,-1,0,2,1,1,1
82175406187,-1,1,0,4,4,0,-3,-1
82175406970,0,0,-1,-2,0,-2,3,0
82175406970,0,-1,-2,-2,6,17,-3,-2
82175420526,-1,-2,-3,0,-7,-13,-1,0
82175420526,-2,-1,-5,-4,-9,0,-3,-3
82175428040,-1,-2,1,-1,1,7,0,-2
82175428040,0,1,1,7,19,10,8,1
82175443094,-2,-3,-4,0,-18,-26,-8,-4
82175443094,1,3,4,2,16,15,4,3
82175451194,-3,-2,-2,2,-14,-7,-5,-3
82175451194,-2,-1,-2,3,-7,-18,-2,-2
82175466216,1,1,1,-3,12,4,2,-1
82175466216,-1,0,-1,-7,-3,-3,1,-2
82175467018,0,-2,-1,1,3,-3,-3,-2
82175467018,-2,-3,-4,-3,10,21,8,-2
82175480580,-1,2,1,-3,-2,3,-6,0
82175480580,-2,-3,-4,1,-4,-7,-2,-2
82175488086,0,1,2,0,-1,7,-3,-1
82175488086,-3,-1,-2,-3,-11,-18,-3,-2
82175503060,0,1,-2,-2,3,3,1,0
82175503060,-2,-1,-3,-1,8,8,0,-2
82175511229,-3,-2,-2,-4,-20,-13,-1,-1
82175511229,1,-2,-1,-5,-8,3,-6,-1
82175526239,-1,-3,-1,-3,29,10,4,-1
82175526239,-1,-2,-5,-6,-13,-11,-5,0
82175527027,1,4,4,7,-2,12,0,-1
82175527027,-2,-4,-3,-4,-10,-13,5,3
82175542054,-2,-2,-2,-4,-1,-5,-6,-4
82175542054,-2,-2,-4,2,6,5,-3,-4
82175548052,0,2,0,-6,3,-3,-8,-3
82175548052,-1,0,-1,-2,-18,-11,-7,-2
82175563100,0,-2,-1,3,-6,9,-5,-1
82175563100,0,-2,0,5,-1,-15,3,1
82175571219,-2,-3,-4,-5,-3,-9,-3,-1
82175571219,1,-1,0,-2,-6,-5,-1,-2
82175585566,-4,-4,-3,-5,1,12,2,0
82175585566,0,1,3,-3,12,4,-3,-2
82175593851,0,-2,0,-2,11,9,3,0
82175593851,1,-1,0,-6,8,-2,-1,1
82175600613,-1,-1,-2,2,-5,-6,-2,-1
82175600613,-2,-4,-5,-2,-12,-7,0,0
82175608067,0,-1,0,-2,-5,16,-1,2
82175608067,-3,-2,-3,-1,13,-3,-1,-2
82175623065,-1,0,0,4,-6,-7,1,-2
82175623065,-1,2,-2,1,-21,-4,1,1
82175631274,0,-2,-4,-6,13,1,2,-1
82175631274,0,0,1,0,2,16,-1,-3
82175645593,-1,-1,1,0,-5,-6,0,1
82175645593,1,-1,-2,0,2,0,1,-1
