timestamp,emg1,emg2,emg3,emg4,emg5,emg6,emg7,emg8
138289751771,2,-1,-6,1,0,1,-4,-2
138289751771,-2,-2,-7,1,-1,2,-2,0
138289752545,0,-3,2,0,-1,-2,-4,-2
138289752545,2,4,-2,-2,-2,-3,-3,-3
138289753374,-4,-4,8,-5,-4,-2,1,-3
138289753374,2,-4,3,0,1,-8,0,-4
138289754173,-1,-5,-2,-4,-5,0,-1,0
138289754173,-4,1,2,-3,-1,-3,-4,0
138289764827,-3,-4,-5,-1,0,2,3,-1
138289764827,-4,-1,-1,0,3,-5,0,0
138289774191,3,2,3,-3,-1,-5,-1,3
138289774191,-2,-5,5,-2,4,-4,1,-4
138289779879,-3,0,-7,-1,-1,-3,3,2
138289779879,-2,4,-1,-1,-3,0,-3,0
138289795523,-2,1,7,-4,3,1,-2,-2
138289795523,1,-5,3,1,-1,1,-1,1
138289803461,-3,-3,7,-3,-1,-5,-11,-9
138289803461,3,-1,-1,-1,-5,2,3,0
138289809814,-7,2,-4,0,3,-3,-2,-3
138289809814,-1,-1,-1,0,-3,2,4,-1
138289824999,-3,1,-2,0,-2,-3,-1,1
138289824999,1,-2,-1,-3,-3,-2,-4,1
138289833500,0,1,1,0,-2,-2,-3,-4
138289833500,0,-1,-1,1,-4,-3,6,-1
138289873188,2,0,1,-4,0,-1,-2,-2
138289873188,-4,-1,1,0,0,0,0,-1
138289873958,1,-4,2,-3,0,0,-4,3
138289873958,-2,3,1,-3,0,-3,-1,-4
138289874714,1,0,-3,-3,-4,2,3,-2
138289874714,3,0,-6,0,-4,-1,2,2
138289877901,2,-1,-4,3,1,-2,-3,-3
138289877901,0,-3,-7,0,-2,2,-4,1
138289884665,-7,-2,-2,1,-2,2,0,1
138289884665,1,0,4,-1,-1,-2,-2,-3
138289892951,-1,0,-1,2,-6,-1,4,4
138289892951,1,-4,-5,2,-1,0,-1,-1
138289899696,5,2,-9,5,-5,0,-1,5
138289899696,-2,1,-2,1,-2,1,-3,0
138289923530,-2,-1,1,-1,-2,-4,1,-2
138289923530,1,2,7,-5,-4,1,-5,-3
138289925126,0,-1,-1,-2,2,0,-3,-6
138289925126,5,1,4,-5,-6,-3,-3,2
138289929592,-1,1,-12,3,3,0,-1,-2
138289929592,3,3,-7,-3,-1,-5,-4,1
138289944700,1,-2,-4,3,-5,2,-4,-1
138289944700,-5,-1,2,0,2,-1,-3,-6
138289952866,-4,-1,1,-2,-5,0,-4,-1
138289952866,4,-1,2,-1,-3,0,-1,-1
138289959664,2,2,-4,1,-4,0,2,-1
138289959664,-4,-5,-5,-3,1,-3,2,0
138289975375,5,-2,-1,-4,-4,-3,-1,-1
138289975375,-2,-4,-7,0,0,-4,2,0
138289982222,1,1,-2,0,-3,-3,-1,0
138289982222,-3,-1,-1,-2,-2,0,1,0
138289989706,-2,0,5,-5,-1,-2,-2,-3
138289989706,1,-4,-6,2,2,-3,1,0
138290004697,-3,-5,-2,1,1,-2,-4,3
138290004697,2,2,-2,-1,-3,-2,-4,-3
138290012890,1,-4,0,0,2,0,2,-2
138290012890,-4,-2,5,-1,0,-2,0,-2
138290019684,-4,-2,2,0,3,-2,2,-4
138290019684,1,-5,-6,2,3,2,-3,0
138290035392,-1,2,-7,0,-2,4,-4,-2
138290035392,-5,3,7,-3,-2,-2,2,-2
138290042169,-1,1,4,-4,1,-2,-3,2
138290042169,2,-2,-6,-1,-1,-1,-2,1
138290049688,-2,-2,5,-2,-1,-2,1,-1
138290049688,7,3,3,2,0,-3,-5,-6
138290064748,-1,1,-1,-2,-3,-4,1,2
138290064748,-3,-4,0,-1,-2,-2,-2,0
138290072844,-1,-4,2,1,1,-2,2,-4
138290072844,-5,2,-2,-1,-6,-3,2,-2
138290079690,1,0,3,-3,3,-5,-6,-2
138290079690,-1,-2,1,-2,3,-3,-1,-2
138290095436,-1,-1,2,2,-4,1,1,-1
138290095436,-4,-1,2,-5,-1,2,1,0
138290102150,-1,-4,-4,0,-1,0,1,-3
138290102150,-3,1,1,-1,-4,1,0,0
138290109687,-4,2,1,-5,2,-5,-5,-6
138290109687,-2,1,-1,-4,-1,-1,0,3
138290124724,-1,-3,1,0,0,-2,-1,2
138290124724,-5,-2,-1,3,-2,-1,5,0
138290132904,2,2,-2,-1,2,-1,-6,-1
138290132904,-3,-1,-11,0,-1,6,-2,3
138290139737,2,-1,-8,-2,0,-3,4,-2
138290139737,4,3,0,1,-3,4,-2,1
138290155380,-1,-1,-7,3,0,-4,4,2
138290155380,4,3,-12,5,-2,0,4,3
138290162144,2,1,-3,1,0,-5,1,-4
138290162144,1,-1,1,-2,-3,-4,-4,-3
138290169656,0,0,-2,-5,-1,-2,-4,-1
138290169656,2,2,2,-1,1,4,-4,-1
138290184703,-2,-1,3,-2,2,-2,-2,-2
138290184703,0,2,7,-3,0,1,0,-1
138290192904,-1,1,-6,-1,-2,-2,-4,2
138290192904,-4,-7,-3,1,3,-5,-4,-6
138290199702,1,-2,1,-1,0,1,-3,-1
138290199702,-1,0,-3,-5,0,-3,-2,1
138290215424,1,0,5,-2,-2,0,-2,3
138290215424,-2,-2,1,-5,-2,-6,0,-2
138290222170,-3,-2,1,0,-1,-1,-3,-1
138290222170,4,-3,-11,1,-1,0,0,-5
138290237904,-1,-5,-13,5,-1,-3,0,0
138290237904,2,-2,-12,3,-2,-2,-1,1
138290244745,2,0,0,0,-1,1,-3,-1
138290244745,0,1,1,-1,-1,0,1,-1
138290252623,-1,-1,2,0,0,-1,-2,-3
138290252623,-4,-7,1,3,-2,-3,0,2
138290261229,-2,1,4,-3,-4,-1,1,-2
138290261229,-3,-3,-4,-1,-2,-1,-1,2
138290275351,3,2,-5,4,-2,2,-1,2
138290275351,1,-7,-4,3,-2,2,-2,1
138290282167,1,3,-5,5,1,2,-1,2
138290282167,-3,-2,4,1,-1,-7,-3,-1
138290297892,-5,2,0,-4,-2,3,1,-1
138290297892,-1,4,5,-1,0,-1,0,-2
138290304681,-5,-1,-2,-1,5,1,-3,1
138290304681,1,-1,-13,1,-1,-1,4,2
138290313697,2,-5,-3,-1,0,-1,-4,1
138290313697,1,-2,-2,-5,1,-1,-3,-6
138290319743,1,-4,-3,0,-7,-4,-4,-1
138290319743,-2,2,-3,2,5,1,2,-2
138290336192,1,-2,-5,-2,1,-4,2,-1
138290336192,-2,2,-10,1,-1,-3,-4,0
138290342224,-3,-1,-8,3,-4,-5,1,1
138290342224,-2,-3,-2,0,-7,-1,-3,1
138290358746,-4,-3,-3,-3,-1,1,0,-5
138290358746,-5,6,0,-2,-3,-2,0,2
138290364694,0,-4,-4,-1,3,0,-4,-5
138290364694,-3,2,-1,-2,0,0,-7,-4
138290373616,1,2,-1,0,-4,-2,0,-3
138290373616,-3,-2,0,-1,-2,5,0,2
138290379770,-3,-1,-2,-3,0,0,0,-2
138290379770,-2,-2,-1,0,2,-4,-5,-1
138290396157,-2,-5,0,-1,0,0,-3,-5
138290396157,-3,1,10,-3,3,-1,-3,-6
138290402256,1,0,5,-5,2,-3,-1,0
138290402256,0,1,5,0,2,-3,-1,0
138290418699,-5,-3,8,-1,2,-2,-1,0
138290418699,-2,-5,4,-2,-1,0,0,-3
138290424691,-2,3,-3,-1,-5,0,3,1
138290424691,4,2,0,2,-3,3,0,1
138290433645,1,3,2,1,-3,0,-2,1
138290433645,1,0,-2,1,1,0,3,-2
138290439700,-3,-3,-4,-2,0,-1,-5,-6
138290439700,0,-2,-2,0,2,-1,1,-2
138290456201,-3,2,0,-3,-3,-3,-1,-1
138290456201,1,-1,-3,-1,0,-1,-2,1
138290462222,-2,-2,1,2,1,1,-3,3
138290462222,0,2,-5,1,-4,-4,4,0
138290478698,0,1,1,1,-2,1,3,-2
138290478698,1,-5,-3,4,-3,1,-3,1
138290484701,-1,-4,1,-3,-4,0,-3,-1
138290484701,-2,-3,1,-3,2,2,-5,-3
138290493736,2,2,3,3,-3,-1,-1,-2
138290493736,-1,-3,-15,-3,-3,2,3,2
138290507166,2,2,-13,-1,-4,1,-3,-2
138290507166,-3,-5,-6,0,2,-5,-4,0
138290516168,0,-4,0,1,-4,-3,-3,-1
138290516168,0,3,0,-2,-4,-1,-1,0
138290522145,5,-3,7,-5,-2,-5,-3,-4
138290522145,-3,3,-2,-2,-1,1,4,-1
138290538733,-3,-4,-2,-1,-1,1,-2,-3
138290538733,-1,-1,1,-1,0,1,-3,-4
138290544689,0,0,-5,3,-3,3,5,3
138290544689,-7,0,6,1,-3,0,0,0
138290553712,3,-6,-3,-3,1,0,-1,3
138290553712,-3,2,22,4,-3,-4,-1,0
138290567238,-4,-4,-5,4,1,3,1,-3
138290567238,4,-5,-10,-2,-2,1,0,-3
138290576227,-2,2,-17,-2,-1,4,0,1
138290576227,-2,-5,-3,-3,4,-5,-2,-3
138290582243,-2,-1,3,3,-3,0,-1,-2
138290582243,2,-1,-13,2,-3,-2,0,0
138290598710,1,-1,-13,1,-1,-1,3,-4
138290598710,4,-2,-6,6,-4,-2,0,-1
138290604667,0,0,0,3,0,-3,-1,2
138290604667,0,-1,-5,8,-1,2,2,-4
138290613664,3,0,4,-4,0,1,1,-2
138290613664,-2,0,-4,-2,-2,2,-2,1
138290627243,-1,-2,2,-13,-1,0,-2,-1
138290627243,1,-3,0,-12,-4,-1,0,0
138290636218,-2,-4,-1,-3,-1,1,0,3
138290636218,1,-3,3,2,1,1,0,1
138290642141,-4,-3,8,-3,-1,-7,-2,-3
138290642141,0,0,1,2,-2,0,-5,3
138290658713,-1,1,2,3,-3,0,2,-1
138290658713,-2,1,3,-2,-1,-1,-6,-4
138290664698,2,2,-6,0,-3,3,-1,4
138290664698,-4,-6,4,-1,-2,2,-5,-1
138290673687,-2,1,-2,5,0,-5,-1,2
138290673687,-5,-2,-5,-3,-1,1,1,3
138290687201,0,0,-6,6,3,0,-6,1
138290687201,-4,-4,9,-5,-1,0,-7,-1
138290696169,-1,1,-2,4,-3,3,-6,-3
138290696169,-1,1,-5,-1,-1,-4,2,0
138290702131,-1,1,1,2,-2,-2,-4,-1
138290702131,0,-1,-4,8,-1,-4,4,4
138290725354,-4,-5,-2,1,-2,-3,-3,1
138290725354,-1,-7,-3,-2,0,-1,0,1
138290726151,-1,3,-1,-2,-3,0,1,1
138290726151,0,7,-9,2,-1,-3,-2,-2
138290733675,-2,0,-2,1,-1,-5,0,1
138290733675,1,2,-7,3,-2,-2,-4,-4
138290747214,-3,-9,-5,-4,0,-2,2,-2
138290747214,2,-1,-1,-3,-2,-4,-1,-3
138290756171,2,1,-3,-1,-2,2,0,1
138290756171,0,2,0,-2,1,-4,-2,-3
138290762173,-2,0,-2,0,3,-1,0,-3
138290762173,-2,1,6,-2,-2,2,-5,-3
138290778695,-3,-1,2,-3,4,0,-3,-4
138290778695,-2,0,4,-1,-1,-1,-2,5
138290784721,-4,-8,4,-3,1,3,-3,-6
138290784721,-6,-6,7,-5,4,1,-1,-6
138290793648,-3,3,0,0,-3,0,2,-3
138290793648,2,0,3,-4,2,-3,-7,-5
138290807228,1,-3,-5,2,0,0,-2,0
138290807228,4,2,-5,3,0,2,0,-1
138290816193,-1,-1,9,-5,2,-6,-1,-4
138290816193,1,-3,5,-4,0,-2,-5,0
138290822252,0,0,5,-3,-4,-1,-4,-2
138290822252,-2,-2,-3,0,1,-5,1,-3
138290838703,-1,0,-3,-1,3,1,-6,2
138290838703,3,-5,-5,3,-2,-2,3,0
138290844752,-2,6,6,1,2,1,2,-5
138290844752,1,0,4,-1,-3,1,0,-2
138290859686,-6,-2,7,-5,-1,-4,-4,-7
138290859686,-5,-2,1,-1,0,-4,-2,-6
138290867255,1,-3,5,-5,-4,-3,0,-2
138290867255,-1,-2,-2,1,0,0,-1,0
138290882893,-2,-2,-4,3,-2,-4,2,0
138290882893,0,4,-4,0,-5,1,1,-3
138290883674,-3,6,0,0,-2,-2,4,1
138290883674,-2,0,-3,-2,3,-1,-1,6
138290898729,2,0,-1,-1,-2,2,-3,-2
138290898729,-4,-4,-7,5,1,2,0,3
138290904691,-1,-2,4,3,0,-5,0,-2
138290904691,-1,-4,-1,0,-4,-3,0,-1
138290919696,-2,-2,-6,-1,-3,-4,3,3
138290919696,-1,2,-4,-3,-6,-1,4,1
138290927148,-2,-4,5,-1,-5,0,4,-3
138290927148,1,-2,-3,-3,1,-2,-4,2
138290942842,4,0,-5,-8,0,1,3,-1
138290942842,-2,3,0,-1,2,2,-1,-1
138290943621,4,1,4,-1,-7,-2,0,1
138290943621,2,1,1,1,-2,-3,2,-5
138290958774,-2,-1,-1,3,2,0,-5,-2
138290958774,-1,-1,2,-2,-1,-1,-3,-3
138290964609,-1,2,-5,-2,4,0,-5,1
138290964609,-3,1,-6,1,-1,-5,-3,0
138290979700,0,3,0,2,-2,0,-2,1
138290979700,-2,0,-3,-1,-1,0,0,-1
138290987155,0,0,-15,3,0,0,2,5
138290987155,1,-2,-2,-1,1,-2,-1,-2
138291002804,-3,-5,0,1,-3,-4,1,1
138291002804,4,0,-2,-5,4,-1,0,3
138291003602,2,0,-4,5,-2,-4,2,2
138291003602,0,1,-12,-11,-3,2,-1,2
138291018695,-1,-2,-7,-4,-1,1,1,1
138291018695,3,-3,-4,-9,0,-4,0,1
138291024665,-3,-3,0,15,1,-3,4,4
138291024665,0,0,11,13,-3,-1,0,-2
138291039690,2,1,5,8,0,-2,-4,-2
138291039690,-3,2,-8,4,-6,0,-1,3
138291047151,-6,1,-1,-8,-1,1,0,1
138291047151,-3,0,3,-3,1,-8,3,2
138291062847,4,-3,-3,-2,-6,-2,-2,1
138291062847,-2,-1,0,3,-1,-1,-2,-2
138291063639,0,-1,-2,-2,-1,1,-2,-1
138291063639,-5,-3,9,13,-4,2,-1,3
138291078702,0,2,8,15,-2,-1,0,0
138291078702,-8,2,3,17,4,0,1,4
138291084697,-1,-3,18,6,-4,-6,-3,-3
138291084697,-3,1,6,0,1,-3,5,3
138291099668,-4,-4,4,-7,3,2,1,1
138291099668,-4,-8,-2,-12,-6,-2,-2,-6
138291107232,4,2,-31,-7,-3,1,-4,-3
138291107232,0,1,-12,8,-1,-2,-2,-2
138291122817,-4,-4,-3,75,-9,0,-5,8
138291122817,-2,-4,9,114,-6,-6,1,3
138291123606,5,1,-31,-15,2,-2,3,-2
138291123606,-6,-5,-67,-93,5,3,-5,-20
138291138666,1,1,-44,-128,11,-6,2,-14
138291138666,0,-4,-10,-119,6,-3,1,-20
138291144702,-2,-4,10,-19,-1,-2,-3,-4
138291144702,3,-1,18,-18,-2,-3,-1,-5
138291159663,0,4,9,-19,0,0,-3,-6
138291159663,0,0,-1,3,1,-1,-3,-1
138291167215,-5,1,13,14,1,-4,4,-4
138291167215,-4,-2,5,13,2,-1,1,-4
138291182788,-3,-4,6,19,2,-2,-4,-5
138291182788,3,-6,5,3,3,-2,3,-1
138291183621,-1,-3,0,-23,3,-3,-4,-12
138291183621,-2,-4,7,-4,-1,0,-3,-11
138291205318,-1,0,3,-5,2,-8,4,-10
138291205318,-1,-1,-2,-5,1,0,-6,-5
138291206100,-2,0,-6,18,2,0,4,10
138291206100,1,-4,4,21,2,-1,-2,0
138291219647,0,-2,0,4,2,-1,-2,-1
138291219647,0,-1,-6,-24,-1,-1,-7,-10
138291227169,-3,-2,1,-20,3,-1,-8,-14
138291227169,-3,5,7,33,-4,1,4,14
138291242954,1,0,-4,6,1,1,1,-4
138291242954,-1,-2,1,15,0,1,2,6
138291243663,-1,-4,1,-5,-1,-1,-5,0
138291243663,0,5,0,30,1,-4,1,22
138291258716,1,3,-1,14,-3,1,2,11
138291258716,0,5,-7,-10,-6,5,6,2
138291264657,3,-1,1,3,3,2,-3,-4
138291264657,0,-2,-2,-23,-1,-4,-2,-13
138291279786,1,1,-2,19,0,0,5,6
138291279786,-1,8,-3,37,-7,-1,-2,24
138291287128,-1,-1,-4,-31,0,-5,-4,-17
138291287128,-3,1,0,-2,-2,4,-5,3
138291310350,1,-5,4,22,-3,-1,-5,9
138291310350,2,3,-6,-4,-3,-5,2,5
138291311100,0,5,1,-29,-1,-5,-4,-15
138291311100,1,-4,-3,16,-5,-4,-3,5
138291318649,-3,-4,0,22,1,2,-1,13
138291318649,1,-4,-2,13,-1,2,0,11
138291324734,-2,-6,4,10,1,-4,0,2
138291324734,0,-1,2,0,-4,2,4,6
138291339668,0,0,-3,35,2,1,3,20
138291339668,4,-3,2,67,-9,3,4,37
138291347217,-2,-1,0,19,0,2,-1,8
138291347217,0,-2,2,-3,3,-2,-9,-10
138291362870,-4,-4,-2,12,-5,-1,3,8
138291362870,-9,-1,0,20,2,-1,1,9
138291363618,0,3,0,39,-8,-1,6,23
138291363618,-1,-1,5,13,-3,-1,0,4
138291378673,-3,3,-1,-26,0,-1,-8,-14
138291378673,-2,1,-1,10,0,0,-4,5
138291384714,-2,-3,-3,26,-2,2,-1,13
138291384714,-1,-6,-1,21,3,-1,7,13
138291399722,-4,-1,1,11,-4,2,1,8
138291399722,0,-5,-3,43,-4,1,2,22
138291407178,0,-3,-2,9,-1,3,-2,4
138291407178,-2,-2,-5,41,-3,0,-2,24
138291422933,2,2,-2,19,-3,-1,-2,6
138291422933,0,-4,-3,11,2,-1,3,5
138291423641,-5,-3,0,9,-2,4,-1,10
138291423641,-2,1,0,-3,1,-2,-3,-6
138291438660,-3,-6,-4,-8,2,-4,2,-6
138291438660,0,-1,-2,-2,3,-5,-2,-10
138291444678,0,-3,1,2,-3,-4,1,-5
138291444678,0,-2,-3,9,-2,3,0,6
138291459631,-3,-3,-5,35,-1,4,-2,16
138291459631,2,-6,-5,-11,0,-3,-2,-2
138291467228,-3,1,-2,37,-3,1,4,14
138291467228,2,-2,-4,-8,0,-2,1,-3
138291482283,1,5,2,14,-1,0,-1,2
138291482283,-2,-2,-4,-5,0,4,-5,-7
138291489692,-1,-1,-3,6,-2,-3,-3,3
138291489692,-2,-4,-7,14,-2,4,3,5
138291498680,-1,-2,-4,-1,-2,1,4,1
138291498680,-3,4,4,-37,3,-2,-3,-26
138291504723,-3,-3,-9,26,3,2,-3,13
138291504723,1,0,-3,-3,-2,-5,-6,-8
138291519683,-1,-5,-4,-11,7,0,-2,-6
138291519683,1,-4,3,1,-1,-4,-3,-6
138291527222,3,5,2,7,-4,0,1,3
138291527222,0,-2,-2,16,1,0,5,9
138291542204,-1,-1,0,-1,1,-3,-6,3
138291542204,-1,-1,2,-2,-3,-1,0,-3
138291549725,-3,-2,2,-1,1,0,0,2
138291549725,-5,-5,5,-2,1,-3,-4,-5
138291558644,1,-3,2,3,-3,-1,2,-5
138291558644,-3,-3,6,2,1,0,0,-4
138291564719,0,1,-3,8,-5,-1,0,6
138291564719,2,-2,3,-3,-4,-1,1,2
138291579626,0,-2,-3,3,-2,1,-1,0
138291579626,-1,6,-8,-4,0,-3,-5,2
138291587172,-2,-7,-3,-1,4,1,1,1
138291587172,-1,-1,3,4,1,1,-2,-4
138291602136,1,-3,11,-7,-3,-4,3,-3
138291602136,1,-3,7,-1,-2,-5,-7,-2
138291609661,3,-2,1,11,-3,-4,1,5
138291609661,-3,2,0,-4,-2,-3,2,-4
138291618690,-3,-1,-2,-4,1,-2,-2,1
138291618690,3,0,-2,2,-4,-2,-1,0
138291624642,-1,0,1,-2,1,-4,1,0
138291624642,-3,1,0,3,0,2,-2,0
138291639699,3,-1,-7,2,-2,-1,-4,0
138291639699,0,3,-15,3,-3,4,3,5
138291647170,-2,-3,-15,1,-2,2,2,5
138291647170,4,-1,-7,1,1,0,-1,0
138291662176,-6,0,11,-4,-2,0,1,-3
138291662176,-3,-4,0,2,-1,3,3,1
138291669695,0,-1,9,-2,0,-2,0,-3
138291669695,-4,-2,4,0,-1,-2,-3,0
138291685339,0,0,-7,2,-1,-2,-1,-2
138291685339,2,-1,-3,-2,-1,1,-1,-3
138291686182,0,-4,-4,4,-1,-1,-2,0
138291686182,-1,-2,-8,1,1,-2,3,0
138291699640,0,-2,-2,-2,0,-5,-2,-6
138291699640,-1,-1,7,-4,0,0,-1,-2
138291707203,5,3,5,0,-2,0,-2,0
138291707203,-1,-1,11,-5,3,-3,-3,-5
138291722228,-3,-3,0,-1,-6,1,1,-2
138291722228,-5,-7,3,-1,1,1,-3,-4
138291729651,0,2,-1,-1,0,-6,-1,0
138291729651,-4,-5,6,-2,-3,0,2,-3
138291745310,1,-1,-7,-1,1,0,1,2
138291745310,0,6,-11,1,-4,-3,-1,0
138291746140,-3,-2,-4,-2,-1,-1,-2,-3
138291746140,3,-3,-7,3,-1,4,1,8
138291759695,-3,-1,-2,-2,2,0,-1,0
138291759695,1,-2,0,1,1,-1,0,0
138291767208,-3,-1,1,-1,-2,4,6,0
138291767208,0,0,-4,0,-3,-3,-5,-1
138291782155,2,-7,7,0,-2,0,-2,-6
138291782155,-1,1,-6,-1,0,-4,0,0
138291789710,-2,0,-4,0,-1,0,-4,-4
138291789710,-1,0,-4,-2,-2,0,3,8
138291805342,-5,0,3,-4,-1,-5,-1,-4
138291805342,-1,-3,4,0,2,-2,-7,-1
138291806102,1,0,-3,-3,-3,-1,-4,-5
138291806102,2,1,3,-2,2,-7,-6,-6
138291819669,0,1,-5,1,3,-2,-2,3
138291819669,-2,-4,-2,1,-2,-2,3,0
138291827161,-4,-6,12,-2,-1,1,-2,-3
138291827161,1,-1,-3,0,-2,2,-1,-2
138291842180,-4,-3,0,-1,-3,-5,0,0
138291842180,-4,2,1,-1,2,-2,1,3
138291849682,0,-1,-2,0,1,-2,-3,-3
138291849682,-4,1,-3,0,-5,-1,-1,-1
138291865373,-1,-6,2,-4,-1,0,-1,-1
138291865373,-2,-1,4,-4,-2,-1,0,-2
138291866125,-5,2,-9,-3,2,0,-2,0
138291866125,-4,1,-3,0,1,-2,-4,0
138291879730,-2,-1,-6,-1,0,1,2,-4
138291879730,-3,-5,-3,-4,-2,-4,-4,-2
138291887207,3,-2,-4,2,-2,-4,1,6
138291887207,2,-3,-8,-1,3,1,4,0
138291902173,1,-3,0,0,0,1,2,1
138291902173,1,0,2,3,-1,0,-4,1
138291909689,-1,-4,3,3,-2,-2,0,1
138291909689,2,-3,5,-2,-2,-2,-1,-3
138291926937,4,2,1,2,-2,3,-3,-2
138291926937,-2,-1,-5,-4,-3,-1,2,-1
138291927618,2,-2,-6,0,0,2,-3,-1
138291927618,-3,-1,-1,0,-2,-1,-5,-1
138291939811,1,-3,-4,1,3,-5,-6,1
138291939811,-2,-5,5,-3,-1,-5,-5,-4
138291947246,3,2,-4,2,-6,1,3,4
138291947246,-1,-2,1,2,-3,-2,5,3
138291962242,-2,2,-1,-2,-1,1,-2,-3
138291962242,0,-1,-1,-5,2,-1,-3,-2
138291969692,-5,-3,1,-1,2,-3,-3,-2
138291969692,6,-1,6,0,-4,-2,-2,-2
138291985367,0,0,5,0,-5,-3,0,3
138291985367,4,0,-2,9,-1,-1,8,0
138291986113,1,-2,2,3,-1,2,1,-1
138291986113,-2,4,2,2,1,2,0,1
138291999762,-1,0,1,4,-3,-3,-1,2
138291999762,-3,-5,2,0,-1,2,0,-1
138292007268,1,-6,-9,-4,2,0,0,-1
138292007268,0,1,-3,-2,-3,1,-1,1
138292022202,-2,1,-1,-9,-2,-1,0,-3
138292022202,3,-3,-7,-6,3,-2,-2,0
138292029746,1,7,-1,7,-5,-2,-2,6
138292029746,5,-2,-3,0,-2,-3,0,0
138292045417,0,1,5,0,-1,-5,0,-5
138292045417,-3,-4,7,4,-3,0,4,0
138292046228,1,-6,4,-5,-1,0,1,-6
138292046228,2,1,-4,-1,-3,0,-4,-2
138292059695,1,0,-11,0,3,0,3,-2
138292059695,-2,2,-15,-5,-4,-2,1,1
138292067308,3,-1,0,-4,-2,-6,-1,-3
138292067308,-5,-1,-4,-1,0,-1,1,1
138292082161,-1,-1,-6,2,0,0,0,2
138292082161,-1,0,0,1,-3,3,0,0
138292089671,-2,2,-5,2,-3,-5,2,3
138292089671,0,-3,0,2,3,3,1,1
138292105350,1,-1,5,6,-5,-2,-7,3
138292105350,-1,4,7,6,-5,-3,3,5
138292106132,-1,3,13,16,-1,1,-3,1
138292106132,-1,-6,12,6,-5,-5,0,4
138292119686,1,-1,-5,6,1,2,-1,0
138292119686,-6,-4,12,-4,-1,2,-4,1
138292127204,1,2,-1,-16,2,-3,-4,-6
138292127204,0,3,-27,-19,1,-2,-2,-5
138292142229,-4,-1,-11,-11,-4,1,-4,1
138292142229,2,-2,-11,-4,0,-3,-5,-6
138292149722,0,-6,0,38,-8,-1,0,3
138292149722,-2,1,18,24,-5,0,0,3
138292165331,-2,-3,25,3,-3,-2,-3,1
138292165331,4,1,24,4,-1,2,1,-4
138292166144,0,-5,-19,-26,9,-2,-5,-7
138292166144,-8,-2,-55,-33,6,-2,-2,-15
138292179631,4,1,-27,9,1,1,0,4
138292179631,4,5,-27,-6,-4,1,-2,7
138292187172,-5,-6,9,-8,-1,-4,-2,3
138292187172,2,-2,13,-5,2,-4,0,-4
138292202183,-5,-1,-6,-10,-1,-1,-1,-5
138292202183,-1,1,6,10,1,-4,-5,-4
138292209644,3,6,3,9,-2,-4,-2,1
138292209644,-1,0,14,-4,2,-6,-4,-7
138292225314,-1,-2,7,-2,0,-4,3,-6
138292225314,0,0,6,-5,0,-3,0,-4
138292226122,-5,-3,2,-6,-5,0,-7,-4
138292226122,-8,-4,-1,-1,-3,-3,-1,-4
138292239652,2,1,8,6,1,1,1,-1
138292239652,3,-2,-2,10,-5,3,2,12
138292255369,0,4,-7,11,-4,6,3,10
138292255369,1,-1,5,1,0,-1,3,-6
138292262165,0,0,-5,0,0,-6,-3,-7
138292262165,-6,-7,-9,-4,4,-4,-5,-4
138292269655,-1,-7,3,-7,0,0,-5,-7
138292269655,0,-3,4,4,4,2,-4,4
138292285353,1,-1,2,5,-2,-4,-3,-5
138292285353,-1,-5,-3,4,2,3,4,0
138292286119,-2,-4,-1,-4,6,-4,3,-12
138292286119,-2,-5,4,-5,0,0,1,0
138292299708,2,-6,1,-3,0,-2,1,4
138292299708,4,0,1,9,0,-1,-1,-4
138292307223,-2,-3,-2,-12,3,-3,-6,-11
138292307223,-2,5,0,-1,-4,-1,1,-5
138292322229,-5,-3,-4,-6,2,-3,-7,-8
138292322229,1,0,-3,14,0,-4,0,-8
138292329709,-5,1,-3,-24,-1,-2,3,-6
138292329709,3,0,-3,2,0,0,-2,-3
138292345381,-3,-4,-1,-7,1,-3,-2,-10
138292345381,-2,-6,-3,-9,3,-4,-4,-11
138292346175,0,-3,1,7,0,-1,-3,-4
138292346175,-1,-2,-1,-14,2,-1,-4,-15
138292359740,-3,-2,-2,-13,1,-4,-3,-8
138292359740,-7,-1,-2,-31,1,-1,-3,-13
138292367220,5,0,-4,6,-3,1,0,3
138292367220,0,0,-6,-24,-1,0,-4,-13
138292382226,0,0,-2,-29,1,3,-4,-16
138292382226,-4,-4,-4,-31,3,-4,-4,-24
138292389726,-1,-3,-2,-18,-4,0,-2,-16
138292389726,-4,4,1,13,-1,0,-1,0
138292405424,-4,1,1,-21,0,-1,1,-9
138292405424,-3,3,-3,7,-1,4,2,9
138292406182,0,1,0,-15,0,0,1,1
138292406182,2,1,-2,46,-1,-4,0,14
138292421225,1,-4,0,17,0,0,-4,4
138292421225,-3,-4,3,27,-2,1,3,13
138292427254,-2,-5,0,12,-3,1,2,10
138292427254,1,-1,5,51,3,3,3,33
138292442297,-1,-6,3,9,0,2,3,-1
138292442297,5,-1,5,22,-8,-4,-2,5
138292449742,0,2,-4,26,0,-2,-1,5
138292449742,-1,-4,6,20,-3,3,-1,11
138292464743,4,0,-4,11,-2,-1,-4,3
138292464743,-2,-4,-4,10,3,5,-1,11
138292472878,-5,-1,0,10,0,3,1,10
138292472878,-1,-1,-2,-14,-3,-1,0,0
138292479691,-1,-2,-2,29,1,4,4,28
138292479691,-2,0,-2,-10,-3,-6,-2,-13
138292487301,2,5,-2,48,-3,4,6,28
138292487301,-1,0,1,44,1,-1,0,8
138292502235,-2,2,-2,45,-1,5,9,40
138292502235,2,-1,-1,39,2,1,-1,25
138292509707,-4,0,2,20,-1,1,1,23
138292509707,0,1,0,36,1,3,-2,12
138292524646,-3,2,-3,9,-2,-2,0,3
138292524646,0,2,-3,42,1,3,1,16
138292532989,-1,-2,-5,-10,2,-3,-4,-13
138292532989,-1,-8,-3,6,2,-2,-1,-6
138292539733,2,-3,1,21,-3,-2,0,-2
138292539733,-2,-5,-1,21,2,5,0,16
138292547250,0,0,1,51,0,0,-2,14
138292547250,-2,3,-3,17,-3,-2,-3,-10
138292562251,1,2,1,26,0,-2,-1,0
138292562251,-3,-2,-3,26,-5,-3,-2,-13
138292569730,4,-3,1,20,-1,-3,2,14
138292569730,-1,1,1,28,-1,3,2,14
138292584778,-3,-1,-1,1,-3,0,-4,-13
138292584778,0,3,1,19,3,-2,-2,6
138292592988,-5,-1,0,12,1,0,-6,-9
138292592988,-3,2,-5,-10,0,2,-1,-6
138292599684,-6,0,1,-2,-5,-3,-4,-22
138292599684,0,-3,-4,27,1,-2,0,20
138292607150,-1,0,4,35,-1,0,4,0
138292607150,2,-3,1,-36,-3,-5,-5,-22
138292622168,1,1,-2,22,0,-1,-3,5
138292622168,-1,1,-1,-16,-4,-2,-6,-31
138292629704,-3,-2,-5,25,-1,1,-1,4
138292629704,-4,1,2,38,0,-1,-2,0
138292644693,-5,-8,1,40,7,-2,-3,-4
138292644693,1,-2,0,8,-3,-1,-3,0
138292652970,0,-4,-5,39,0,-4,-4,0
138292652970,0,-2,-3,13,1,-3,-1,-5
138292667855,0,-4,-2,-3,-1,-7,3,-2
138292667855,-4,-3,2,13,-1,-2,-4,-17
138292668650,-4,-1,3,-42,-1,-2,-6,-37
138292668650,0,-3,-2,5,-3,-5,-7,-12
138292682234,0,1,0,2,-5,-7,-4,-15
138292682234,-2,1,1,-28,0,-7,-6,-36
138292697871,0,-2,-2,-35,-4,-6,-4,-12
138292697871,-2,0,1,-5,-2,-3,-4,-39
138292704652,0,1,1,5,-5,2,0,-8
138292704652,0,5,1,-13,-1,-6,-4,-33
138292712931,0,1,1,-30,-2,-8,-9,-37
138292712931,1,-2,0,-5,-1,0,-4,-8
138292727850,-3,-1,-9,-7,-1,-1,-1,-3
138292727850,0,-1,3,-16,5,-2,0,-10
138292728626,-3,0,0,-30,0,-1,1,-21
138292728626,-3,1,-2,18,2,-1,3,13
138292742157,-2,2,5,-31,4,-4,-7,-24
138292742157,-6,-4,-3,-7,-3,-2,-3,-2
138292749672,-3,2,-1,2,1,4,1,10
138292749672,-1,-1,1,-49,-6,-6,-5,-28
138292764687,2,-4,-6,4,2,0,-1,-1
138292764687,-2,1,-1,-21,0,-2,-2,-13
138292772973,1,0,-2,6,-1,-6,-3,-3
138292772973,5,4,1,-3,-5,-2,-5,-4
138292787836,-3,-1,4,-1,-1,4,0,5
138292787836,6,-2,3,19,4,-1,1,7
138292788628,-1,0,5,5,-3,-1,-8,-5
138292788628,-4,-2,2,-16,2,-4,0,-5
138292802261,-2,-3,2,-11,0,-4,1,-7
138292802261,1,-2,-3,15,2,0,0,20
138292809747,-1,2,0,20,3,2,2,16
138292809747,2,-3,2,-13,-4,-3,-2,-16
138292824781,1,-3,-1,11,-4,-1,1,-6
138292824781,0,-3,1,-4,-1,1,-1,-10
138292832906,-3,0,-6,3,0,-3,2,0
138292832906,-5,-4,0,4,-1,0,-2,4
138292847893,1,3,3,2,3,-1,-2,3
138292847893,-3,0,-1,16,-4,4,3,15
138292848660,3,-3,-1,14,-3,-1,1,6
138292848660,-4,1,-2,21,4,1,0,10
138292862293,2,0,1,29,-3,-4,-1,14
138292862293,-5,5,2,14,0,-3,-4,1
138292869808,-1,-1,6,5,-1,-2,-2,-13
138292869808,-1,2,-2,24,-1,2,8,17
138292884774,0,-5,-4,9,2,-5,-9,-4
138292884774,1,1,-1,7,-1,-4,0,-3
138292892920,2,-3,0,9,0,1,0,5
138292892920,-2,-5,-3,9,1,-1,3,9
138292907979,-1,-5,-2,4,1,0,2,9
138292907979,-2,-2,-2,2,-3,-1,-1,8
138292908736,1,0,-2,29,1,2,7,18
138292908736,3,-1,-2,22,0,2,-4,12
138292922234,-2,-3,0,24,1,6,-1,8
138292922234,-1,-2,-2,-2,-1,-6,-5,4
138292929749,-1,-1,-9,5,0,-1,1,7
138292929749,-1,1,-5,5,-3,2,0,5
138292944701,-2,3,1,-28,-2,-6,-6,-16
138292944701,1,-2,-1,9,1,2,-2,-3
138292953002,-6,-5,2,-3,1,-1,-1,-3
138292953002,1,-2,10,-8,-2,-7,-3,-5
138292976032,-3,1,14,-2,0,-3,4,-4
138292976032,2,-3,9,6,-1,-2,-2,-3
138292976827,1,-3,1,13,2,-2,-3,-2
138292976827,-3,-3,3,0,3,0,2,-1
138292982240,0,-2,-9,8,1,-1,0,6
138292982240,-3,0,-2,-2,0,1,2,0
138292989751,-2,-2,-7,1,-3,-4,-3,-4
138292989751,1,-2,-1,-3,-3,0,-5,2
138293004766,3,1,3,-9,0,-1,-2,-7
138293004766,-4,-3,3,-11,-3,-9,-3,-7
138293012910,-5,0,4,-2,1,0,-8,-4
138293012910,2,-1,11,-5,-2,-3,2,-7
138293027914,-1,-1,-15,3,-1,-1,0,-1
138293027914,-4,-6,2,5,-1,-2,1,-6
138293028676,1,0,14,-5,-3,-4,2,-3
138293028676,-1,0,4,1,1,-3,-3,-1
138293042259,1,5,12,-4,0,-5,-2,-4
138293042259,-5,-4,5,0,-2,2,-4,1
138293049781,-4,-3,-2,0,-1,0,-3,-5
138293049781,-2,-7,-6,-4,1,-2,-6,-2
138293064718,-4,1,-9,3,1,-2,-1,1
138293064718,-3,0,-4,1,1,-1,0,3
138293072973,2,-2,8,-4,-3,-3,-5,-2
138293072973,-4,1,12,-1,-3,-2,-5,-5
138293087902,1,-5,5,2,0,2,-4,6
138293087902,-1,-4,-3,0,-2,0,1,-2
138293088674,-2,1,2,-3,0,-5,-4,-4
138293088674,1,-6,-4,1,3,0,0,-4
138293102217,-2,-4,7,4,-2,-1,5,0
138293102217,-2,4,-8,0,1,-2,-3,4
138293109658,-1,-5,8,2,-1,1,-4,-3
138293109658,0,1,-4,1,-6,-1,2,0
138293124688,2,0,-5,0,-1,5,-1,2
138293124688,4,0,-2,1,-3,3,0,-4
138293132925,2,2,-2,0,-4,1,-1,1
138293132925,-2,1,-5,0,2,-1,-3,2
138293147823,-2,-4,-3,3,-4,2,-2,3
138293147823,2,3,-2,0,-3,3,1,3
138293148640,-2,-1,6,-5,-2,1,0,0
138293148640,2,-1,-2,3,-2,5,2,1
138293162190,2,2,-5,-1,-1,-1,-2,0
138293162190,-4,-5,-4,-2,0,-7,-1,-10
138293169732,-2,-3,2,-6,-4,0,-3,-3
138293169732,-1,-1,-1,-2,-1,-4,-3,0
138293184794,2,-3,-4,0,-3,-2,1,-2
138293184794,1,3,-4,0,-3,-3,-4,9
138293192959,-2,-3,-5,-4,-2,-2,2,0
138293192959,-2,-3,-5,0,2,-2,0,-4
138293207898,-2,-3,2,-5,1,-4,-3,-4
138293207898,1,-1,-1,-2,-2,1,2,0
138293208622,-4,-3,1,2,2,-3,0,-5
138293208622,0,1,-3,0,-3,2,1,3
138293222254,-2,-6,1,-2,-2,-2,-2,-2
138293222254,2,-1,-2,-3,4,-2,0,1
138293229757,0,-2,-10,4,-3,3,1,-1
138293229757,0,-4,0,0,-2,-1,0,-1
138293244787,-6,-1,2,1,0,1,-8,-4
138293244787,2,-3,-1,1,1,-1,1,3
138293252911,-1,0,-12,4,2,1,3,5
138293252911,0,1,-3,-2,-1,-5,0,3
138293267992,-1,1,-3,-1,-2,-2,-4,-12
138293267992,-2,-2,1,-2,-2,1,2,1
138293268715,2,-2,0,-2,-1,0,0,-3
138293268715,1,-2,-6,0,0,0,1,0
138293282323,-3,-2,0,-4,0,-1,4,1
138293282323,-2,-3,-8,4,-6,-2,-3,1
138293289799,-2,-1,-3,-1,-2,2,0,-5
138293289799,-4,-1,1,4,-2,-2,-2,-4
138293304768,0,0,4,-1,0,-6,-2,-2
138293304768,7,0,0,0,-1,0,-1,0
138293312918,4,3,-6,1,1,-2,-3,2
138293312918,0,-6,-4,0,1,1,-4,-8
138293327948,-2,-5,5,-3,2,-5,-2,-3
138293327948,-6,-5,-6,-1,-1,-2,2,5
138293328734,-2,0,-13,5,3,4,2,-7
138293328734,-1,-2,0,-5,-1,-3,-2,1
138293342250,-4,-3,-2,-2,1,2,-1,4
138293342250,-3,-1,12,-5,0,4,-4,1
138293349743,2,-5,-4,0,-3,-1,1,2
138293349743,-3,2,2,-2,0,5,-3,-1
138293364669,1,0,-4,1,-5,5,-1,0
138293364669,1,-1,-10,0,1,2,-6,2
138293372981,-2,-1,-3,-4,1,-5,-5,4
138293372981,3,1,-3,1,-6,-5,-1,-3
138293387248,-1,-2,-2,0,1,-3,1,1
138293387248,0,-2,3,-6,-3,-3,4,-6
138293395418,0,0,2,-2,-4,-3,-1,2
138293395418,3,1,-1,0,3,1,-5,4
138293402204,-1,1,-14,1,1,-4,-1,-2
138293402204,-2,-3,3,-2,0,-1,-1,-5
138293409696,-2,-1,1,-2,-2,-2,-6,-3
138293409696,-3,-5,-1,-2,0,-3,5,0
138293424694,4,6,1,-3,-4,3,0,-1
138293424694,-3,-1,0,-2,2,0,-3,-2
138293432956,-1,-2,11,-4,0,-5,1,-12
138293432956,2,-2,4,-2,2,-5,0,6
138293447225,-5,-5,5,-2,-4,1,2,1
138293447225,3,4,1,-1,-2,-1,4,-3
138293455429,-6,-6,18,-4,-4,-4,-3,-5
138293455429,-2,-1,2,-2,-2,-1,-2,0
138293462177,-3,-2,-6,0,-1,1,-1,1
138293462177,-2,-1,7,-1,-1,-4,-2,-1
138293469680,-2,-2,-1,3,0,-4,-2,0
138293469680,-2,-3,0,1,1,-2,4,-6
138293484714,1,-3,-1,-1,-1,3,0,2
138293484714,-4,-5,1,-1,0,2,-3,-5
138293492945,2,-1,-3,-2,-2,-2,0,3
138293492945,-1,-2,9,-4,-4,-1,-2,-5
138293507235,-1,3,12,0,-2,-4,-1,1
138293507235,4,6,-1,-1,0,-1,4,-2
138293515452,2,4,-10,2,-4,-1,3,12
138293515452,-3,1,-13,0,1,0,1,0
138293522218,0,0,-3,-2,2,-2,1,-3
138293522218,1,-3,-8,-2,-4,-3,0,6
138293529681,-2,1,-10,1,0,3,-3,1
138293529681,-2,-1,2,-3,1,-1,-2,-6
138293544695,0,0,-5,4,-1,0,-1,3
138293544695,-4,-6,-6,3,2,1,-2,0
138293552879,-1,-5,-1,-4,-2,1,4,-4
138293552879,0,1,-4,0,-3,-2,-1,-1
138293567207,0,-3,-1,0,-3,-2,0,-3
138293567207,-3,2,-1,-2,0,-1,-1,1
138293575348,-1,-1,5,-5,-5,-3,-7,-1
138293575348,-5,-5,-4,0,-1,1,3,-2
138293590373,3,-1,-8,4,2,0,-1,-7
138293590373,-4,-2,-1,-4,-5,-1,-2,1
138293591140,-1,5,-2,-2,0,-4,-1,-6
138293591140,-1,-1,-5,-1,0,1,3,3
138293604778,-3,-2,-5,-1,0,-3,-1,-5
138293604778,2,2,0,-2,0,3,0,-3
138293612944,0,3,3,1,3,1,-1,-5
138293612944,-2,-3,3,-3,1,-1,-3,0
138293627275,0,1,-8,1,-5,-1,2,5
138293627275,-2,-6,4,0,0,-2,-4,-8
138293635158,1,-3,0,-2,1,-3,-3,2
138293635158,0,1,-3,4,-2,4,3,5
138293650418,-5,-6,7,-3,0,1,-4,-5
138293650418,-1,-2,1,-3,1,-3,3,-1
138293651244,-3,-5,-11,1,0,1,-4,6
138293651244,2,-3,3,-2,1,-4,-7,-5
138293664766,1,1,7,-1,-4,-1,1,0
138293664766,-4,1,6,-1,0,-1,-7,3
138293672993,-1,-4,-11,3,0,-2,2,-16
138293672993,-2,-2,-3,0,-3,-2,-3,-1
138293687234,1,1,2,-2,2,-3,-2,2
138293687234,5,-5,2,0,-2,-3,0,-8
138293695427,0,2,2,0,-1,-6,1,-9
138293695427,2,2,-2,0,-2,-1,0,6
138293711035,0,2,-6,-1,2,-2,-2,-3
138293711035,-1,-2,-2,0,-2,1,-2,-1
138293711815,1,0,-2,-1,2,-3,-5,3
138293711815,-1,2,-5,1,2,1,-5,-6
138293724757,0,1,-5,-2,-3,-1,2,1
138293724757,-2,2,-3,-3,-2,-4,-2,0
138293732975,-2,-3,-4,1,-5,6,1,6
138293732975,-3,0,-4,-1,0,-5,-1,0
138293747242,1,-2,-2,-1,-6,-4,-5,0
138293747242,2,-2,-6,3,-5,-3,2,1
138293755467,-2,-3,-3,-1,1,2,4,5
138293755467,1,-3,-4,2,-3,-4,-6,-2
138293770364,-2,-5,6,0,1,-2,-1,-4
138293770364,-1,-1,-6,2,0,-4,-1,-1
138293771121,1,-6,7,-9,-2,0,-2,1
138293771121,0,-3,0,-3,-1,1,-1,1
138293784785,-4,-1,-2,3,2,-3,1,-1
138293784785,-2,2,-4,0,-1,-4,0,1
138293792967,0,1,2,1,0,-1,3,-5
138293792967,0,1,1,-1,4,-1,1,1
138293807227,4,-2,-3,-1,1,-2,-2,-1
138293807227,-2,-2,1,-1,-3,-2,0,-1
138293815413,-1,0,-7,-1,0,-5,3,3
138293815413,-1,1,4,-3,-1,-1,0,-4
138293831037,-1,0,-1,0,-1,-1,-2,3
138293831037,-3,-3,-6,0,-1,-3,-2,-2
138293831946,2,1,-4,1,1,3,-1,0
138293831946,-2,2,-5,0,-3,3,1,-1
138293844703,-1,-1,10,-4,1,-2,-2,-4
138293844703,-2,1,9,-2,-2,-2,-3,1
138293852960,-6,-5,12,0,1,-1,-2,-6
138293852960,2,-1,7,1,-5,0,2,-1
138293867280,1,1,5,-8,-4,0,-6,3
138293867280,0,-4,-9,0,-3,1,-1,1
138293875398,4,6,-7,4,-3,-6,0,1
138293875398,-2,-1,-3,0,0,-1,-2,-1
138293890370,1,0,-5,3,-2,2,-2,-2
138293890370,-1,-1,8,0,-1,0,1,0
138293891147,-5,0,12,-1,1,-1,-2,-1
138293891147,0,-3,0,0,0,0,-2,2
138293904714,3,-1,-4,0,-5,-3,3,4
138293904714,1,-2,-8,-4,-1,0,-3,3
138293913709,-2,1,-9,-3,-3,-1,-4,1
138293913709,-2,0,-4,-1,-2,4,-1,0
138293927266,0,-2,-7,-3,1,1,4,3
138293927266,3,1,-1,-4,-2,1,1,-1
138293936253,-2,-1,6,-5,-1,-4,1,0
138293936253,1,-2,5,-1,-1,-5,-1,0
138293949721,-5,-2,3,-1,3,-4,-2,-4
138293949721,-5,1,1,2,-1,2,-4,1
138293958709,2,-3,-5,2,-5,-2,-5,-1
138293958709,1,1,-6,0,-1,-3,0,-3
138293964760,-5,-4,-2,2,2,-1,6,1
138293964760,-1,-1,0,1,-2,2,0,-1
138293973804,2,-2,-6,2,-1,-1,2,-9
138293973804,-3,-3,-7,2,-3,-3,-1,4
138293987243,-1,-1,8,-2,0,0,-3,5
138293987243,-2,0,5,0,-4,2,-2,0
138293996247,-5,-1,15,-5,0,-3,-4,5
138293996247,1,-2,5,-8,0,-1,-4,-4
138294009812,1,1,-1,-1,-3,-1,0,-4
138294009812,1,-1,-4,2,4,-2,2,4
138294018779,0,-2,-13,2,-2,-1,-2,-1
138294018779,-3,0,-7,-1,0,-1,0,-1
138294024787,0,2,-11,0,-7,-2,-3,-2
138294024787,-1,0,-12,0,-1,0,1,2
138294033703,-3,-6,-5,-3,0,1,1,-2
138294033703,0,-4,-3,-1,-1,0,-5,-2
138294047306,2,1,4,-4,3,3,-3,-1
138294047306,-1,0,0,-1,-7,0,0,-3
138294056318,-1,1,-4,0,-2,3,-6,2
138294056318,3,-6,-4,3,-5,1,-1,3
138294069754,-6,0,0,1,0,-3,-6,-5
138294069754,4,2,0,-3,4,-3,-1,-2
138294078750,-1,1,-5,-1,-2,5,-1,4
138294078750,1,-3,10,1,-2,-1,4,-6
138294084769,-2,1,-6,1,-2,1,-1,-1
138294084769,0,2,-6,0,-3,-3,-1,-2
138294093753,0,-3,5,-3,-2,-2,4,-1
138294093753,-4,-2,6,-6,1,-3,-4,-6
138294107314,-3,-7,-2,2,-1,-1,-1,1
138294107314,-4,-1,-1,1,-5,-4,-5,-3
138294116334,3,2,3,0,0,-2,1,-1
138294116334,-1,2,-7,-1,-4,0,1,0
138294129798,0,-3,-1,2,-5,0,1,-1
138294129798,-1,-2,1,-1,1,-2,-5,-5
138294138771,-2,2,-12,0,-6,1,1,-3
138294138771,-3,1,4,0,2,-6,3,-1
138294144767,-2,-1,5,-4,0,-1,-4,-3
138294144767,0,-4,7,-7,-1,0,-3,-3
138294153762,-6,-3,-2,-3,1,1,1,-2
138294153762,-2,2,4,-1,-4,0,-3,-3
138294167240,0,0,7,-4,-3,-2,-2,-4
138294167240,-3,4,0,2,1,-2,-4,-6
138294176228,-3,0,7,0,-1,-2,-2,0
138294176228,-1,-1,4,-4,-1,0,-2,1
138294189731,4,1,5,-3,1,-1,-3,-8
138294189731,-3,-4,1,-2,-2,-1,-1,3
138294198793,-3,0,9,-8,-3,-2,-1,1
138294198793,-2,2,-6,2,1,1,4,4
138294204713,-2,-5,-9,-3,2,1,3,3
138294204713,-3,0,-1,0,-2,2,-1,-5
138294213740,3,-1,-8,5,-2,-1,-3,-7
138294213740,0,-2,-11,-1,-2,-1,-1,1
138294227188,-5,-3,0,-3,1,-5,-4,2
138294227188,-2,-1,11,0,0,-2,3,1
138294236251,-1,-1,22,-3,1,0,0,2
138294236251,6,2,19,-2,-2,2,-3,-3
138294249752,1,-4,-9,-2,-5,0,3,0
138294249752,-2,-2,-30,-2,3,-2,-1,0
138294258781,0,-2,-11,1,0,-1,2,4
138294258781,-2,3,11,-3,0,-3,-1,-2
138294264756,5,-1,19,-1,-1,-3,-4,3
138294264756,3,-5,6,1,0,-2,-1,0
138294273855,0,0,-16,0,-5,-4,0,-2
138294273855,-6,0,-17,3,-3,0,-4,-3
138294287291,-4,0,-6,3,-3,0,0,3
138294287291,5,3,20,0,-6,-1,1,3
138294296289,1,0,33,-1,-1,-1,0,1
138294296289,-3,-9,38,-9,-2,-2,-3,-4
138294310230,-3,1,7,0,1,1,-1,0
138294310230,-3,4,-40,0,-3,-4,-5,5
138294318708,-6,-5,-46,7,-6,-1,-1,9
138294318708,1,0,-46,5,2,0,2,3
138294324705,-2,2,-10,0,-2,2,-6,-3
138294324705,2,-7,26,-7,4,1,5,-4
138294333751,-3,1,38,-7,3,-2,-4,-4
138294333751,-3,2,8,2,1,-1,-2,2
138294347297,3,-2,-1,5,-3,-1,2,0
138294347297,-2,0,-12,2,-1,-2,-3,-1
138294356222,0,0,-26,2,-1,1,-2,2
138294356222,-2,-2,6,0,6,0,-4,-2
138294369839,-2,0,12,-10,-1,1,2,1
138294369839,-4,-2,10,-3,-1,0,-2,0
138294378772,0,-3,6,-7,-4,0,-2,0
138294378772,-5,-2,-8,-4,-1,0,2,0
138294384842,-2,-2,-2,-5,-4,-1,-4,3
138294384842,3,3,5,3,-2,0,0,1
138294393765,1,0,1,7,-2,7,-1,-1
138294393765,0,4,-10,4,-4,0,2,5
138294407300,2,-5,-20,6,2,5,3,1
138294407300,-3,1,-18,-1,-2,0,-1,4
138294416212,-1,2,-17,0,2,-3,-1,-1
138294416212,-1,0,-9,-5,-6,5,3,4
138294429810,-2,0,3,-5,3,-3,-1,-6
138294429810,0,-2,13,-3,-4,1,-2,4
138294438815,-2,-1,6,-1,-2,-3,-4,-4
138294438815,1,-2,3,2,-2,-5,-4,-4
138294444791,-2,4,5,-3,-1,-1,-3,-4
138294444791,3,1,-11,3,0,2,3,2
138294453730,-2,-2,7,-1,1,2,0,-2
138294453730,-2,-4,1,-1,4,-1,-5,-5
138294467242,-3,-1,3,6,-5,-3,-7,0
138294467242,-5,-3,-6,-1,-1,-3,3,-4
138294476198,2,-3,-20,1,0,-1,1,0
138294476198,-3,-4,-6,-4,1,-1,-3,1
138294489770,-4,-3,2,-7,-2,-1,1,-2
138294489770,-4,3,14,-1,-2,2,-1,-4
138294498787,0,1,12,-1,-4,-3,-1,-4
138294498787,1,-1,-7,-3,-3,3,6,4
138294504729,1,-7,-7,7,1,-1,-3,-2
138294504729,-1,-5,-7,0,-4,-3,-3,0
138294513715,0,0,2,-5,-1,-1,0,-2
138294513715,2,3,-12,2,0,1,-1,1
138294527248,-4,-2,-4,-2,0,2,1,-8
138294527248,-2,-4,-6,2,-1,-3,-4,4
138294536242,7,0,-7,7,-2,-1,-1,-3
138294536242,0,-6,-8,16,0,1,2,-3
138294549762,0,1,0,16,4,-6,2,0
138294549762,-2,-6,-3,53,-3,0,-2,-1
138294558754,-7,-1,-29,107,-5,-3,-3,3
138294558754,-2,4,-41,118,16,-4,-1,2
138294573637,0,-3,71,77,-2,2,0,6
138294573637,2,-2,46,81,-3,-7,3,2
138294575210,-2,3,88,38,-8,-4,-1,6
138294575210,-4,-2,127,-104,-7,-3,-3,-8
138294587207,-2,0,5,-110,1,-4,0,-17
138294587207,-1,1,-83,-128,2,6,-1,-18
138294596229,1,-1,-120,-76,-2,0,0,4
138294596229,-3,0,-128,-74,-2,-8,-4,-22
138294609754,-1,-1,-63,-7,4,-5,4,1
138294609754,2,-4,-19,-19,4,-5,-5,-8
138294618713,-1,-4,-18,2,-1,3,1,-3
138294618713,0,-3,35,-43,-3,-2,-1,-4
138294632654,-3,-2,9,-42,-8,4,-3,5
138294632654,0,3,17,26,-5,0,3,10
138294641200,-6,-1,30,-35,1,1,-3,-4
138294641200,-1,-5,42,-34,-7,-3,-3,3
138294647235,1,2,2,-42,-5,-4,-1,0
138294647235,-4,-1,6,-20,-1,-2,4,6
138294656239,-1,0,19,-87,3,-7,-3,-11
138294656239,2,-2,-2,-26,-3,0,-1,-7
138294669851,1,-2,-22,7,-2,-4,1,-8
138294669851,-4,0,7,2,-1,-1,-1,12
138294678735,-2,-4,-1,16,-3,-4,4,11
138294678735,-3,0,-8,0,-2,-5,1,0
138294692659,0,1,-2,-18,0,-2,1,2
138294692659,-1,-3,15,-3,2,-3,2,-4
138294701236,1,-3,10,-11,3,1,3,-3
138294701236,-4,-2,0,24,-4,1,-1,8
138294707388,-2,-1,1,-17,-4,-1,-1,-3
138294707388,-3,3,-6,-56,-2,-4,-2,-5
138294716218,-2,0,-7,5,-1,-2,-8,-6
138294716218,0,-1,0,-6,2,-2,0,-8
138294729805,-3,-3,-7,-27,0,0,-1,-16
138294729805,-3,-1,5,-51,2,-5,-5,-18
138294738777,-1,-1,4,-28,3,-2,-1,-8
138294738777,3,-2,10,-64,-4,2,-5,-10
138294753647,3,1,3,-77,-6,-5,-5,-18
138294753647,6,-1,4,-1,0,-2,-1,-7
138294755252,0,-3,9,-72,-1,-2,-4,-15
138294755252,-7,4,-5,12,0,1,5,1
138294767309,-3,-4,-9,8,3,-1,-4,4
138294767309,-4,2,1,20,-2,1,-1,-2
138294776316,3,0,2,-20,-3,-5,1,-12
138294776316,-3,-3,4,-16,3,1,-1,-8
138294789765,0,2,2,28,-2,-1,2,7
138294789765,-4,-3,2,-12,-1,-1,-1,-7
138294798794,0,-2,-2,-13,-2,-3,0,-4
138294798794,0,-5,2,-29,-5,-1,-7,-4
138294813638,0,-4,4,6,-3,2,0,0
138294813638,3,3,-9,14,0,-4,0,1
138294815206,-2,0,-6,-2,-1,-1,1,-2
138294815206,1,0,-4,-1,0,-5,1,-3
138294827350,1,-3,-12,9,3,0,-2,3
138294827350,1,-4,-6,-9,0,0,-4,-9
138294836304,1,2,7,-8,-2,2,-2,-1
138294836304,8,2,-4,11,-5,-4,4,4
138294849751,-4,-4,4,-13,-2,-2,0,-2
138294849751,-5,0,9,-25,-3,-1,0,-4
138294858774,0,-2,0,13,1,-2,1,4
138294858774,-2,-7,4,0,0,0,-2,-2
138294873549,-5,-1,1,-4,0,-7,-4,-5
138294873549,4,-4,-8,-1,-2,-1,-3,-2
138294875184,-3,0,-12,11,-2,0,-3,-2
138294875184,-1,1,-12,5,-3,-3,-2,-1
138294887241,3,2,1,14,4,2,3,3
138294887241,-9,-3,21,-10,-5,-7,-4,-4
138294896247,0,-1,2,6,-3,2,-1,-4
138294896247,-5,-4,-1,5,-4,-1,-4,-5
138294918645,-1,-1,-18,15,-3,-3,-4,0
138294918645,3,-1,-2,-12,-2,-3,-4,-4
138294920229,-2,1,11,-8,-7,-3,-2,1
138294920229,-1,0,33,-5,-4,-6,1,-2
138294933617,0,0,36,-16,-4,-3,-2,-1
138294933617,0,3,36,-15,-3,-2,-1,-4
138294935180,1,-2,28,-16,0,-1,-3,1
138294935180,0,3,3,5,-2,-1,-4,2
138294947301,-3,2,-20,7,2,0,-3,-3
138294947301,0,-5,-34,0,-2,-1,-1,3
138294956262,-3,-2,-23,4,0,-1,-3,3
138294956262,0,0,-7,-4,1,0,-1,1
138294969802,1,-3,-2,-7,3,-2,-2,2
138294969802,-5,4,-15,-3,-1,3,-1,4
138294978809,-2,-3,-6,-9,4,-2,-1,-2
138294978809,1,-2,-14,39,-3,0,-1,1
138294993643,-2,0,-19,105,-6,-4,-3,1
138294993643,-1,0,47,127,3,1,2,-3
138294995288,-1,1,106,127,3,1,-2,2
138294995288,-6,-2,127,112,-2,-1,0,2
138295007340,1,0,-66,-99,-3,-1,3,-2
138295007340,-2,2,-98,-120,-2,0,2,-1
138295016286,0,1,-128,-128,-3,-6,-4,-5
138295016286,2,-4,-88,-58,1,3,-2,-5
138295029816,-2,-4,-9,-34,-2,-1,-2,0
138295029816,-2,-4,14,-96,0,-1,2,-3
138295038739,-2,-1,31,-99,0,3,3,0
138295038739,0,3,10,-94,4,-3,-1,2
138295053616,1,-3,30,27,8,-3,-1,-4
138295053616,2,-1,6,108,22,0,-2,-9
138295055184,-2,-1,-1,127,14,-3,0,-15
138295055184,0,0,-45,61,6,-4,1,-9
138295067330,0,-2,-22,10,-17,0,-3,2
138295067330,-1,-3,-18,-2,-32,-2,-1,7
138295076227,-4,-1,-28,-23,-17,-6,-1,9
138295076227,-1,-1,-22,-31,-34,0,0,16
138295089833,-4,-3,7,-23,-13,-1,0,11
138295089833,3,-5,-2,-17,-5,4,-1,7
138295098819,-4,-5,-16,-25,8,-1,2,7
138295098819,1,-2,-23,-26,8,-2,6,2
138295113731,0,-1,10,-21,15,1,0,-9
138295113731,-1,-1,20,-98,-3,-7,1,22
138295115236,1,5,34,88,13,-2,-6,-12
138295115236,-5,0,44,113,13,-3,-3,-19
138295127275,1,0,38,127,7,2,-11,-20
138295127275,2,-2,21,72,9,0,-5,-19
138295143750,3,-2,12,-14,-7,1,-2,0
138295143750,3,0,-2,-25,-1,0,-1,14
138295149800,-2,1,-14,-42,-4,-5,1,12
138295149800,-2,-1,-39,42,-3,-4,2,20
138295158847,1,1,-30,72,-8,-1,2,20
138295158847,3,-1,-13,7,1,-1,-7,-22
138295173628,-5,2,14,-50,-8,-1,2,-10
138295173628,-1,0,41,-113,0,-1,-4,12
138295175226,-5,-3,39,-115,0,-3,-1,2
138295175226,2,-1,36,-65,0,-5,-3,-46
138295187307,4,8,-21,-40,-12,-12,-11,-112
138295187307,-2,2,-100,4,-13,-20,-21,-128
138295196271,-1,0,-70,-16,-7,-12,-13,-128
138295196271,-3,2,4,-21,0,-5,-9,-123
138295209792,-4,2,51,-28,6,-1,1,-62
138295209792,-1,3,44,-29,6,1,4,13
138295218738,1,-3,13,-60,1,1,-4,29
138295218738,-4,-1,-3,-32,-2,3,-3,28
138295233666,-2,-4,0,19,3,-3,1,20
138295233666,-2,-4,-11,27,-2,4,2,-9
138295235315,3,1,-21,8,-6,-5,0,5
138295235315,-4,0,-30,9,-4,-3,-2,-1
138295256155,2,-1,-19,-2,-1,-2,-3,9
138295256155,0,-2,-3,7,2,1,-4,-7
138295257728,-1,1,14,-5,0,0,-2,-20
138295257728,-2,0,6,-5,1,-2,0,-3
138295269867,-2,-2,-7,-11,2,-3,-5,-1
138295269867,3,0,2,8,-5,-2,-6,-7
138295278787,-3,-4,-9,6,-4,-6,0,-8
138295278787,-5,1,-20,-7,0,-4,1,9
138295293017,-6,0,-6,-8,-5,-3,1,5
138295293017,0,-4,12,11,1,-2,0,-12
138295299817,-3,-2,10,-2,-1,0,0,-5
138295299817,-1,-2,-13,-11,-7,-5,-4,9
138295316168,1,-2,-6,-5,1,0,1,7
138295316168,-2,-1,2,6,-6,0,4,-3
138295317745,1,1,1,-11,-4,-1,-4,-5
138295317745,1,0,0,-2,-1,-4,-3,10
138295329748,-3,-3,2,2,0,-3,2,7
138295329748,-2,-2,5,-2,2,0,3,-5
138295338740,-3,-2,0,-1,2,-1,1,1
138295338740,-4,-5,-9,-8,-3,1,5,-3
138295353013,0,-2,-5,-5,1,-4,-2,-3
138295353013,-2,3,1,2,2,-2,-2,-5
138295359843,1,3,4,0,-1,4,-4,-4
138295359843,2,-1,1,-4,-1,-1,-2,-12
138295376142,3,-3,-2,-9,-8,-2,-1,-15
138295376142,-3,0,-1,-10,-3,-6,-4,-26
138295377737,1,2,0,-1,0,-2,-1,0
138295377737,2,-4,3,31,4,7,10,103
138295389822,-1,0,0,13,-3,2,-1,36
138295389822,-1,4,-5,-34,-3,-10,-14,-90
138295398754,-5,1,-11,-46,-5,-19,-19,-128
138295398754,-2,3,-10,-64,-2,-18,-18,-128
138295412727,0,1,-1,-53,1,-20,-20,-125
138295412727,-1,-1,6,-49,-2,-17,-17,-116
138295421238,3,-3,8,13,0,4,4,59
138295421238,-1,6,-3,-30,0,-12,-14,-106
138295427309,-1,7,1,40,-2,13,12,110
138295427309,0,5,-9,-15,1,-9,-12,-56
138295436301,-5,4,-14,-28,3,-14,-9,-94
138295436301,3,0,-12,40,-5,23,10,98
138295449771,-3,-2,-8,14,-4,11,2,44
138295449771,-2,-1,-16,-22,0,-12,-10,-67
138295458776,-2,-1,-11,-27,-5,-17,-10,-84
138295458776,-3,-5,-12,-1,2,-1,-3,-12
138295473096,-2,-1,-12,-21,0,-4,-2,-73
138295473096,-2,-10,0,57,0,33,21,127
138295479873,0,-2,4,12,0,7,5,46
138295479873,-1,3,8,-40,6,-26,-16,-109
138295496176,1,4,13,-38,3,-21,-12,-128
138295496176,-3,0,18,45,-3,29,18,127
138295497791,0,0,8,-12,-2,-10,0,-44
138295497791,1,1,0,11,-5,11,3,76
138295509837,-3,-9,-4,42,-2,40,20,127
138295509837,2,9,-4,-36,1,-41,-19,-119
138295518750,3,-4,-4,25,-4,28,8,127
138295518750,2,0,-6,-8,-4,-5,-1,-17
138295532929,-1,6,-5,-58,-3,-56,-24,-128
138295532929,4,-4,2,28,-1,21,8,115
138295539796,0,-4,3,18,-6,18,8,66
138295539796,0,6,16,-19,-5,-20,-12,-82
138295556149,-3,-6,2,17,3,13,1,54
138295556149,-3,-5,-4,11,-1,19,6,36
138295557730,0,-3,-10,37,-2,41,16,121
138295557730,0,-4,-36,-3,-3,-5,-5,-5
138295569810,-4,-5,-87,14,-5,0,-5,-3
138295569810,-2,2,-121,100,-13,-14,-8,-48
138295578765,4,10,-88,127,-11,9,-3,-78
138295578765,3,3,69,-75,48,6,5,-66
138295593015,4,0,-92,-128,4,-19,-6,-50
138295593015,-1,-15,-18,-128,12,-6,1,35
138295599836,-13,-5,71,26,0,-15,0,-45
138295599836,-3,-5,60,118,-26,0,-1,68
138295616204,6,13,-42,127,1,5,-3,23
138295616204,-5,-1,-128,94,-22,3,1,31
138295617749,0,-23,-128,-115,-36,-23,-16,5
138295617749,-2,-5,-22,-46,-20,-7,-2,44
138295629825,-2,7,120,35,50,17,6,-63
138295629825,0,11,111,-2,30,13,-7,-83
138295638833,-1,-1,72,-14,12,-9,-3,-88
138295638833,-1,-10,-97,-3,-13,5,-1,31
138295652965,0,-3,-42,-43,-4,-15,1,57
138295652965,-5,-4,44,1,76,-39,-8,-14
138295659748,-3,10,-41,79,-75,17,-1,-3
138295659748,-3,-13,-91,114,-23,19,1,30
138295676171,-5,3,16,127,-20,1,3,-39
138295676171,2,-3,45,59,7,11,-5,-25
138295677720,-1,-1,-10,-27,37,0,-7,19
138295677720,-2,4,-81,-55,8,2,0,-12
138295689817,-5,-12,-45,48,-3,-3,-2,-9
138295689817,2,-3,-19,88,-29,-7,3,11
138295698834,4,4,-34,127,4,-7,-4,13
138295698834,-2,6,-9,51,4,3,2,-27
138295712970,-2,-5,60,-118,12,-1,-3,11
138295712970,0,-1,86,-124,-13,-2,-1,0
138295719873,0,-1,109,-128,18,-15,1,-40
138295719873,-4,-1,78,-119,15,-9,0,-26
138295736165,0,-5,-17,-8,-16,-2,5,25
138295736165,-4,0,-55,79,-22,-2,0,-3
138295737736,-2,1,-13,55,8,-11,-2,4
138295737736,-3,-3,29,-10,5,0,-1,18
138295749802,-4,-3,8,-52,-7,7,-2,16
138295749802,-2,5,-20,-48,-13,0,-6,-12
138295758805,-5,-1,-18,2,15,-4,-2,3
138295758805,-1,-3,-46,86,-6,3,-1,13
138295773045,1,-8,-24,55,-9,4,-3,-8
138295773045,2,3,-12,71,-2,0,0,1
138295779790,-4,0,2,82,5,-1,0,10
138295779790,3,2,3,78,-7,5,1,5
138295796090,-3,-3,5,23,-1,2,-1,-2
138295796090,-7,0,-1,-28,0,1,5,-15
138295797779,2,1,6,9,2,-2,-1,1
138295797779,0,3,16,-12,0,2,-1,-4
138295809775,1,2,14,14,1,-1,-3,3
138295809775,-4,-7,-10,8,-7,5,0,5
138295818803,0,4,-11,13,3,2,1,-5
138295818803,2,1,-6,17,7,-4,4,3
138295833023,0,-3,-15,29,-5,0,2,1
138295833023,4,-2,2,-22,-4,1,-2,-6
138295839763,-1,1,24,-47,3,-2,-7,-7
138295839763,0,-1,20,-39,2,-1,-3,5
138295856119,-1,0,7,-15,-1,0,-4,5
138295856119,-2,0,-10,2,-5,3,-2,1
138295857716,1,-1,-8,15,1,-4,0,1
138295857716,-5,-2,-4,-9,0,-6,0,3
138295869796,0,-1,14,4,-6,4,1,4
138295869796,-2,-1,4,-26,-2,-5,0,-4
138295878822,4,-1,0,6,0,5,6,2
138295878822,-2,0,-3,13,2,-2,-3,-1
138295893122,0,0,1,12,0,4,-1,-3
138295893122,2,-2,0,-8,-6,0,3,0
138295899776,0,2,-4,-21,-2,-4,0,-4
138295899776,-3,1,-13,6,-3,0,2,-3
138295916143,1,2,-10,-5,-1,2,-5,-2
138295916143,-1,-5,-1,-18,2,-7,-2,-4
138295917767,0,-4,3,-18,4,0,-1,-7
138295917767,-3,-2,-2,-8,-1,-1,-5,0
138295929823,-4,-1,-4,-18,-5,-1,3,0
138295929823,-2,-1,-7,-13,-2,0,2,-1
138295938786,-5,-5,4,-46,-1,-4,-2,-1
138295938786,-3,3,5,0,-1,3,0,9
138295953061,-4,-4,-3,-27,0,-2,2,-3
138295953061,1,-3,-8,-3,1,-2,1,-9
138295959871,-5,5,1,-35,0,-1,-2,-11
138295959871,0,-2,10,-41,2,0,-3,-7
138295976178,-4,-6,16,-64,5,-3,0,-12
138295976178,-3,0,4,-47,5,1,-2,-7
138295977746,-4,-3,-10,-14,1,-5,-3,-3
138295977746,-1,0,-4,4,0,1,-1,-3
138295989842,1,0,-11,19,0,-5,-3,-2
138295989842,-1,-5,-10,40,-1,-4,-7,1
138295999091,3,-1,-8,35,1,-3,-5,1
138295999091,3,4,-4,57,1,-4,-1,2
138296012960,4,7,2,37,-2,-5,-2,-1
138296012960,3,0,5,23,-1,-4,-3,4
138296019770,1,-7,-2,7,-4,-4,-6,0
138296019770,0,-8,8,-4,3,-4,-5,-4
138296036176,-1,-3,-3,8,-3,-4,-2,4
138296036176,-1,5,-10,24,-7,2,0,13
138296037725,-2,1,1,8,-2,-1,-3,1
138296037725,0,0,7,-1,2,-2,-6,-6
138296050303,-8,-6,8,-23,7,-2,0,-9
138296050303,-1,-4,5,-21,2,-5,-2,-12
138296066257,-2,-1,-11,-16,1,-1,0,-1
138296066257,-7,-3,0,-20,1,-2,-1,-12
138296073001,-2,0,-11,-5,7,-1,2,-4
138296073001,-5,3,1,-6,4,0,-4,-4
138296079826,-2,-4,2,-31,8,-1,0,-5
138296079826,-3,-5,1,-20,10,3,-1,-9
138296096196,2,-1,3,-1,6,-2,-4,-8
138296096196,-3,-2,4,-10,7,-2,2,-8
138296097723,-2,2,4,-16,-1,0,2,3
138296097723,-3,-1,-6,-7,2,-4,-6,-13
138296109819,2,2,-10,6,2,-1,-9,-4
138296109819,-2,-4,-15,5,-2,-3,-1,2
138296118796,-1,-3,-4,5,-2,-1,-1,5
138296118796,-5,-2,-4,6,-1,-3,-2,5
138296133087,1,-1,7,-11,3,2,0,-5
138296133087,-3,2,7,-6,3,-1,-4,0
138296139792,-4,1,-6,3,-11,2,3,4
138296139792,-1,0,-9,2,-5,0,1,8
138296156235,1,1,-2,7,-7,-2,-4,7
138296156235,3,-3,-8,8,-4,7,2,1
138296157770,2,-3,-9,2,-7,-5,-5,0
138296157770,-2,0,-5,24,-12,2,2,9
138296170214,1,3,11,0,-4,2,1,3
138296170214,4,4,13,-3,1,3,4,-2
138296178816,1,-2,10,-13,2,0,0,-7
138296178816,-2,-1,2,1,1,1,5,-8
138296192995,-3,1,-4,-4,1,-3,-4,2
138296192995,-3,-2,-4,5,-6,0,0,-4
138296199832,3,2,1,22,-10,-1,0,-1
138296199832,1,-2,-5,13,-4,2,-1,3
138296215543,-4,1,-2,20,-5,-2,1,7
138296215543,-2,-2,5,17,5,-1,2,-2
138296222254,-2,0,8,2,7,-1,-1,-5
138296222254,-2,0,-3,-9,5,-5,3,1
138296229838,-5,1,-3,8,0,-3,-5,3
138296229838,2,-1,1,12,-1,0,-2,4
138296238768,-1,3,-1,-2,3,0,-6,-2
138296238768,4,0,2,15,-3,-2,4,4
138296253012,1,-2,-8,-26,-2,-2,4,-2
138296253012,2,-1,-2,-8,-6,-1,4,5
138296259717,-1,-2,7,16,-5,1,-1,3
138296259717,1,4,-5,11,-5,1,2,0
138296275530,-5,0,-12,-1,-3,-1,-2,1
138296275530,-2,-1,-13,1,-4,-2,0,-1
138296282270,-3,2,-11,7,5,1,5,-1
138296282270,4,0,-13,7,1,-3,0,2
138296289856,-1,1,-22,-15,-4,-1,1,-1
138296289856,0,1,-17,-22,-3,-4,-2,-1
138296298857,-1,2,-16,-16,6,0,4,-5
138296298857,-1,-1,2,-32,3,-3,0,-1
138296313448,5,-2,30,11,-3,-1,1,-1
138296313448,3,1,27,-3,1,-4,-4,-1
138296319797,-5,0,16,12,-2,-3,5,-4
138296319797,-1,-1,4,3,-2,-3,-3,-3
138296335520,-1,0,7,25,-4,-2,2,0
138296335520,1,0,-2,28,-6,-1,-4,4
138296342268,0,-2,0,20,-2,0,2,3
138296342268,2,4,-7,16,2,1,-3,-1
138296349824,1,-3,-7,18,3,0,1,-1
138296349824,0,3,8,15,-4,-7,1,2
138296358789,2,-5,10,-12,0,-2,-2,-4
138296358789,0,-4,11,7,-6,-5,1,-3
138296372980,-2,-4,13,-22,-6,-3,1,1
138296372980,-5,-4,13,11,-3,0,1,-1
138296379886,3,-1,16,-18,-1,-3,-3,-2
138296379886,-3,-5,45,-7,2,2,-2,-5
138296395533,1,-2,56,11,0,-2,-1,-2
138296395533,-3,-3,52,-13,6,-5,-1,-8
138296402238,-2,0,24,20,2,-3,-4,-2
138296402238,-1,-1,23,-35,8,-2,1,-3
138296418680,-1,1,0,-8,5,0,-2,-2
138296418680,-8,-5,11,-124,2,-4,-8,-6
138296420242,-2,-4,50,-128,-11,-3,-1,-6
138296420242,-2,-3,-66,-46,-17,-2,0,-10
138296433114,1,1,-100,88,-9,-3,1,-14
138296433114,0,2,-105,127,4,1,4,-19
138296439758,-1,-8,-82,105,5,-1,-2,-16
138296439758,-3,-3,-35,34,1,-2,-6,-6
138296455516,-2,-3,-32,-25,6,0,1,18
138296455516,5,1,-33,-8,-3,1,-1,32
138296462292,-8,0,-20,-31,1,-6,2,15
138296462292,-1,-3,-1,-16,3,0,-6,2
138296478624,-2,0,0,-25,5,-6,-3,-12
138296478624,-4,1,28,0,0,-1,-2,-10
138296480259,2,0,22,-1,8,-1,-3,-7
138296480259,-4,1,19,20,1,-2,-3,-6
138296492955,-1,9,33,47,-2,1,-1,-10
138296492955,-1,-2,-1,-17,-2,-1,0,-8
138296499875,1,-2,-13,71,2,-3,-4,-7
138296499875,1,0,50,81,2,-2,4,3
138296515438,2,3,32,-2,-4,5,-1,1
138296515438,3,-1,34,-34,2,5,1,7
138296522358,5,4,51,-119,0,-4,3,18
138296522358,-3,1,-71,-84,-6,-4,2,12
138296538725,-8,-7,50,90,-9,-1,-1,-25
138296538725,-3,-1,-32,-1,3,5,-2,-20
138296540332,-7,-3,-28,-55,9,1,-1,-11
138296540332,-2,0,69,-117,3,1,1,4
138296553008,-1,-1,-25,-125,0,-1,-2,19
138296553008,-2,-1,-44,56,-1,-2,2,7
138296559898,0,1,-12,79,-4,-5,-3,4
138296559898,-4,2,22,60,-5,-4,-4,0
138296583747,2,-5,35,-17,0,2,-4,-2
138296583747,-2,1,8,-105,-6,-2,-3,-5
138296585249,-2,-1,-30,-98,2,2,0,-3
138296585249,0,1,12,-96,-3,2,-1,-8
138296598663,-1,-3,1,-58,2,-1,-1,1
138296598663,2,1,20,25,-1,-2,7,5
138296600299,-3,-2,-4,89,2,-1,-4,3
138296600299,-3,-2,-38,92,-2,-5,-3,-3
138296613074,-4,-3,-34,56,2,-4,0,-1
138296613074,-3,-2,-6,43,-3,-5,-4,-2
138296619842,-1,-2,-1,13,-1,3,0,-10
138296619842,-2,0,4,21,0,-1,-3,-5
138296635483,1,-4,-31,-1,-2,-3,-1,1
138296635483,-2,-3,-29,12,-4,-2,-2,2
138296642264,-2,1,-27,33,2,0,3,8
138296642264,4,-1,-20,-3,-3,-6,-3,-6
138296658640,0,2,15,-35,-2,2,0,-7
138296658640,-4,-2,45,-32,2,2,5,-4
138296660245,2,-4,45,-32,-1,1,-1,-4
138296660245,-1,3,13,-5,1,2,1,-1
138296672337,-6,1,-9,2,-2,-3,1,1
138296672337,0,-1,-3,11,-2,-2,-4,-1
138296681281,1,2,-5,-5,-5,-2,1,0
138296681281,-5,-3,-29,11,2,1,2,-2
138296695434,-1,2,-10,-1,-4,-6,2,-3
138296695434,-3,2,1,-15,-5,-2,-4,-13
138296702302,0,-1,-7,-6,-8,-3,-4,-7
138296702302,-2,-4,-5,0,-5,-2,-3,-6
138296718633,-2,-4,4,-13,-1,4,-3,-10
138296718633,3,0,6,-14,1,-2,-3,-18
138296720262,-3,-2,-18,-27,-4,-4,-9,-64
138296720262,1,-2,1,19,2,4,3,50
138296732259,1,6,-46,-53,-4,-16,-11,-111
138296732259,0,0,-2,10,2,-3,2,35
138296741306,-4,0,2,-3,-2,5,-7,-16
138296741306,-1,3,-36,-57,-7,-13,-17,-113
138296755484,-2,1,-30,-46,-4,-14,-10,-91
138296755484,3,9,-51,-63,-9,-22,-22,-128
138296762279,-1,8,-59,-63,-10,-19,-18,-128
138296762279,-1,3,-55,-53,-4,-14,-14,-128
138296778709,-2,-1,-75,-72,-12,-22,-25,-128
138296778709,-4,2,-75,-75,-7,-15,-26,-128
138296780266,-1,1,-66,-74,-4,-23,-21,-122
138296780266,-2,-1,-55,-57,-3,-17,-23,-128
138296792409,0,2,-61,-72,-1,-14,-21,-121
138296792409,-5,2,-59,-76,-10,-21,-19,-120
138296801299,-2,3,-49,-72,-6,-22,-22,-128
138296801299,-1,1,-6,-20,0,-3,-14,-39
138296815471,0,-2,34,43,3,8,11,116
138296815471,0,-7,36,80,3,16,10,127
138296822345,-1,-1,6,14,-3,6,10,89
138296822345,2,4,-21,-91,-4,-16,-13,-99
138296838698,-1,1,-29,-118,-4,-15,-20,-118
138296838698,3,1,-43,-128,-4,-24,-23,-128
138296840235,-5,-1,-31,-83,1,-13,-21,-126
138296840235,1,-2,-16,30,-2,-3,1,-4
138296852314,0,-2,0,110,1,6,4,88
138296852314,1,-3,15,109,0,7,6,67
138296861368,-1,5,21,87,-1,1,3,43
138296861368,-5,-3,4,28,0,1,-6,-4
138296875562,-3,1,1,-72,5,-15,-12,-98
138296875562,2,2,-3,-109,6,-15,-14,-122
138296882385,0,-7,-7,-126,10,-10,-11,-87
138296882385,2,3,-10,71,-1,6,9,81
138296898740,1,-3,-6,-88,9,-6,-9,-86
138296898740,-1,2,-3,-12,-6,-1,2,-4
138296900259,3,-4,-6,17,-10,1,1,-9
138296900259,-3,-3,-6,-18,-4,-2,3,-5
138296912394,-4,0,-5,-4,1,3,1,8
138296912394,-3,0,-7,5,3,-1,-1,-14
138296921336,0,6,-10,-17,4,-3,-2,-11
138296921336,2,-1,-10,-34,0,-7,-5,-22
138296935519,1,1,3,15,-5,-1,3,-2
138296935519,-3,2,5,9,0,-2,-2,-12
138296942288,-7,-3,13,66,2,5,4,38
138296942288,1,-4,12,-26,5,-6,-2,-26
138296958684,0,-4,4,-37,-5,0,-2,-6
138296958684,1,0,5,-51,2,-1,2,-5
138296960285,-2,1,1,-19,0,0,-2,-4
138296960285,-1,2,-5,-30,-3,-5,-2,-16
138296972350,0,-3,-5,-3,-6,-2,0,4
138296972350,-2,2,-8,-15,-6,-2,-1,3
138296981322,1,0,-10,20,-2,0,-4,-1
138296981322,5,0,-8,-49,1,0,-8,-27
138296995566,0,-2,-10,-48,0,-1,-1,6
138296995566,2,-5,-45,118,-3,3,-2,24
138297002272,-1,-2,-117,76,-24,0,-2,17
138297002272,-7,5,88,127,-112,-3,-4,-52
138297018648,0,5,73,-54,50,-2,5,-33
138297018648,0,-11,-81,-126,73,-5,3,-9
138297020257,0,-10,-44,-128,92,1,0,3
138297020257,-3,-11,-93,-128,23,-4,-2,41
138297032247,-1,-2,98,127,-39,-1,3,-65
138297032247,7,19,-35,107,-40,0,-1,-70
138297041281,-2,5,-95,-37,-30,-4,3,97
138297041281,-4,-7,-128,-84,-1,1,-6,70
138297055477,-3,-9,-128,-55,-42,-13,-9,118
138297055477,-4,-1,107,30,9,-3,-2,-31
138297062233,7,10,46,127,-3,8,-1,-128
138297062233,-4,8,41,6,46,7,-2,-87
138297078609,-3,-7,-58,-81,28,-1,-6,-46
138297078609,-4,-5,20,-119,-6,-16,-7,-59
138297080218,-3,-7,70,-128,-22,-18,-10,-30
138297080218,4,2,-20,-91,9,-16,-7,-128
138297092299,5,4,5,127,8,12,9,68
138297092299,1,1,-9,73,-21,12,-6,65
138297101272,-4,-1,-13,53,-7,-10,-11,-96
138297101272,4,-4,-69,-51,2,-11,-4,39
138297115614,0,10,-66,-10,-9,-9,-6,15
138297115614,-5,-11,-33,-27,-9,-6,-3,-10
138297122353,-2,3,30,-46,-2,2,1,2
138297122353,-1,-6,24,11,5,5,1,-5
138297137878,-1,3,45,-52,-2,5,-2,-37
138297137878,-5,3,16,-98,-4,7,1,-3
138297146346,3,-3,-26,-100,-2,-12,-6,-30
138297146346,0,3,-2,-7,1,-3,-3,-6
138297152312,2,1,0,-32,-5,-3,-2,-30
138297152312,-3,-2,-27,-51,0,-3,-5,-13
138297161370,-1,-3,-8,29,-7,-1,3,25
138297161370,-2,2,40,-10,5,-7,-2,-26
138297175595,3,-5,29,-44,2,-1,-5,-35
138297175595,0,-1,19,-69,-2,-3,3,-9
138297182327,-1,0,23,-73,-4,-5,-5,-16
138297182327,-2,0,12,-43,0,-4,-2,0
138297198071,-2,-7,-14,-84,-4,-1,-7,-38
138297198071,-2,-5,-15,-12,-4,-5,0,-4
138297204818,5,-3,2,79,-6,4,4,24
138297204818,0,2,-17,4,1,3,-3,-13
138297212319,-5,-3,-18,-53,2,-7,-2,-22
138297212319,2,8,-8,50,-3,-6,1,-2
138297221415,-3,-2,8,-1,-2,0,0,-12
138297221415,1,-2,-1,-5,2,4,-4,-7
138297235504,-1,-3,3,-50,-3,-6,-2,-27
138297235504,2,-2,8,-102,-5,-3,-8,-22
138297249749,-5,-1,12,-89,1,-1,-3,-5
138297249749,-3,-2,12,-29,3,-3,1,3
138297258047,-3,3,3,-74,2,-2,-3,-27
138297258047,2,0,-9,-24,3,-4,-3,-2
138297264867,1,0,-10,52,0,-3,3,29
138297264867,0,-3,-2,-61,1,-6,-5,-16
138297272295,3,1,-11,84,3,0,-1,3
138297272295,0,-2,-9,2,0,-1,-1,6
138297281361,1,0,-3,-63,-4,-5,-5,-10
138297281361,-1,-1,2,-39,-2,-4,-2,-8
138297295518,-2,1,-4,-10,-2,-1,-1,-6
138297295518,-2,-5,0,-30,2,1,-7,-13
138297302279,0,1,9,-7,-2,1,-4,-15
138297302279,-2,2,0,11,1,-2,5,13
138297317992,-2,-1,-3,-19,-1,-3,1,8
138297317992,-4,-3,-6,4,4,-4,5,-2
138297324787,6,0,0,-26,-4,-4,-1,-14
138297324787,3,1,1,0,-5,0,0,-3
138297332241,1,0,-12,22,-3,0,-3,-1
138297332241,3,-2,-21,-17,-5,-2,3,2
138297341269,-2,1,-10,-54,4,-6,3,-7
138297341269,0,0,6,-43,-2,-1,0,-6
138297355488,0,-1,2,-25,0,0,-4,6
138297355488,-2,-3,7,-23,-2,-2,-2,0
138297362254,-2,-2,1,-14,-2,2,0,-9
138297362254,0,0,3,11,-7,-2,-1,-7
138297377948,1,3,16,26,-3,-1,-2,4
138297377948,-4,-4,21,15,-1,-1,0,-3
138297384883,1,-2,9,-16,-1,0,1,-12
138297384883,-3,-3,8,5,2,0,-2,4
138297401168,2,4,2,5,-1,5,-1,6
138297401168,-3,-4,-6,-13,0,5,-2,-1
138297402744,-1,1,-20,30,1,0,-5,0
138297402744,1,0,-16,14,0,-3,-1,0
138297415510,-2,0,3,-13,-7,-4,0,-5
138297415510,0,1,24,-41,-4,-2,0,-2
138297422349,-6,-2,54,-8,0,0,1,2
138297422349,-2,1,41,-28,3,2,0,-3
138297438046,-5,-4,6,-66,4,-1,1,-3
138297438046,-2,2,-4,-64,-6,-1,-3,-3
138297444817,-5,-3,-34,-57,-6,-6,-4,0
138297444817,-5,-5,-24,2,-5,-3,-3,0
138297461191,-1,2,-37,19,1,0,1,5
138297461191,4,1,-39,33,-3,2,-1,1
138297462788,7,-3,-16,39,2,-5,-2,4
138297462788,2,3,7,55,-1,2,2,0
138297475529,0,-6,2,16,-1,0,-2,-3
138297475529,1,2,1,41,2,-1,-3,-2
138297482396,1,3,7,28,-3,2,-1,-5
138297482396,1,-3,-5,7,-1,-3,-6,0
138297497957,-5,-6,4,5,-3,4,1,-1
138297497957,-2,1,5,4,-2,1,-2,0
138297504830,-8,-4,2,-9,0,0,-2,-7
138297504830,0,2,-11,-29,-1,-3,2,-1
138297521001,1,-1,-3,-11,-1,-1,-4,-2
138297521001,-3,1,9,-9,0,0,-4,0
138297527374,0,0,-17,-36,3,-1,-5,-11
138297527374,-5,-6,-30,-11,4,-3,-3,-8
138297536389,1,0,-7,34,1,-7,-2,-2
138297536389,-2,-1,-4,-1,3,-2,-1,2
138297542276,2,0,-8,-51,5,-4,-2,-10
138297542276,-2,-1,12,-37,3,3,-2,-1
138297558810,1,-1,-12,-39,1,-9,-3,-13
138297558810,2,0,-8,1,0,-3,-4,-5
138297564869,-6,-5,-13,-15,-4,-1,-3,-2
138297564869,3,0,-15,-22,7,-6,-4,-14
138297580426,-2,-5,-5,-8,1,-1,-1,-6
138297580426,1,1,-13,-20,5,-1,0,-5
138297581250,-3,4,-1,-14,2,-2,-3,-3
138297581250,-3,-2,-7,-4,-5,1,-2,-2
138297596343,-2,5,-2,-10,1,-2,-4,0
138297596343,0,-2,-19,-24,4,-7,-1,-7
138297602371,0,-2,0,14,0,2,1,4
138297602371,-1,-2,-6,6,3,0,-1,1
138297618763,0,0,2,-7,3,1,0,2
138297618763,-2,1,0,-4,1,-2,0,-5
138297624778,0,-1,-20,-30,6,-1,-3,-5
138297624778,-1,2,1,-11,-1,-4,-3,-4
138297640514,-1,1,-5,-11,0,-4,-2,-3
138297640514,1,-3,3,14,-3,1,0,3
138297641252,-2,0,-3,8,-3,0,-3,1
138297641252,-2,-1,1,1,-2,0,-3,-7
138297656377,3,-2,-1,5,-1,0,-2,0
138297656377,-4,2,-5,8,-4,-2,0,-1
138297662341,2,-3,-3,0,-5,-1,1,2
138297662341,4,1,-10,-11,-2,0,-2,0
138297678968,0,0,11,21,0,4,1,-3
138297678968,-2,-4,-4,3,3,1,-5,-6
138297684828,-1,-3,5,15,-3,3,-1,1
138297684828,1,-3,-4,-3,0,-1,2,2
138297700504,-2,-1,-17,-14,-2,-3,0,-3
138297700504,1,-1,3,9,-4,-1,1,-4
138297701284,-4,-3,-1,-16,-1,-3,-2,-2
138297701284,1,-5,-10,-8,2,0,-2,2
138297716345,-1,1,-10,-13,5,0,-3,-1
138297716345,-4,5,-4,-3,0,-3,1,-3
138297722337,-1,0,-12,-17,0,-3,-2,-2
138297722337,-3,-6,-13,-18,0,-1,2,0
138297738881,-1,0,-21,-23,-1,-2,-3,-3
138297738881,1,-4,-20,-14,2,1,1,1
138297744783,-1,-2,-10,-32,5,-3,-3,-1
138297744783,-6,3,-6,-29,-1,-1,-2,-6
138297760467,-3,-4,-3,-19,-1,-3,0,-5
138297760467,2,-5,6,-3,-2,-4,2,0
138297761285,-1,-2,3,-3,-6,-1,2,-4
138297761285,-4,0,4,14,-2,-1,2,1
138297776328,-3,-7,12,18,-5,1,1,-3
138297776328,2,0,11,15,-5,0,-2,-2
138297782310,-2,-6,4,15,2,2,2,-2
138297782310,3,-1,16,12,-4,-4,1,1
138297798802,2,7,6,33,-3,4,2,1
138297798802,-2,-4,-2,2,3,2,0,2
138297804786,1,0,3,3,-2,-3,1,-5
138297804786,-2,3,9,1,-5,-5,-3,-1
138297820448,0,-5,-6,-2,-4,2,0,-1
138297820448,3,1,-4,-5,-3,-6,-4,0
138297821212,-2,3,-3,7,1,0,4,1
138297821212,-5,-1,-13,-12,-2,-3,0,-6
138297836318,-1,0,-4,-31,0,-2,2,1
138297836318,0,1,21,16,0,0,-2,-2
138297842308,-1,0,53,81,3,1,-1,3
138297842308,-1,2,117,114,1,4,-3,1
138297858886,0,0,30,64,-1,0,-4,2
138297858886,1,-1,-37,-92,-7,-5,-4,-6
138297864837,0,4,5,-128,-1,-1,1,0
138297864837,-1,0,-37,-128,27,-4,-3,-5
138297880443,-4,3,-1,-99,5,-3,-2,-1
138297880443,0,-3,-50,-23,-1,-1,-1,-6
138297881308,0,2,-65,-3,-11,-1,-1,0
138297881308,0,-5,-45,125,-6,1,-4,-7
138297896361,-1,-5,34,125,0,-4,-6,-10
138297896361,-4,-2,47,64,-6,-4,1,-6
138297902341,-2,-1,38,47,-1,-2,-4,2
138297902341,1,-2,-35,-8,-4,1,-3,1
138297918843,2,0,-79,-34,-3,-3,0,0
138297918843,-1,-2,-38,-3,-5,-7,2,-2
138297924770,-1,-7,-42,1,-2,-7,-3,-1
138297924770,-1,0,-19,-24,0,-2,-2,7
138297940490,-7,-7,19,17,-1,0,-1,-6
138297940490,-4,1,38,2,0,7,-6,1
138297941314,-5,-5,63,-45,0,-6,-5,-5
138297941314,-7,-5,55,-42,-7,-5,5,1
138297956368,0,1,63,-52,-8,-4,-1,-2
138297956368,0,-3,13,-21,-2,-1,-6,0
138297969825,2,2,-42,14,-4,2,0,1
138297969825,-1,-4,-25,36,-10,0,-4,-2
138297978765,2,-2,-27,30,0,-7,1,-3
138297978765,1,-2,-16,26,2,3,4,-4
138297984814,2,2,-22,-3,-1,0,-3,5
138297984814,3,3,-10,-13,-2,-5,3,3
138298000494,-5,-3,-17,-16,-2,4,-5,-14
138298000494,-5,-4,-12,-18,-8,5,-5,-15
138298001287,-5,-5,-9,13,2,-4,0,-9
138298001287,-1,-3,19,19,5,0,-1,-2
138298016333,-3,4,24,71,12,0,-1,2
138298016333,-1,-2,-2,-48,-1,1,3,10
138298022313,-3,-1,-16,-56,-3,2,-1,1
138298022313,2,-2,-35,-51,-11,-5,2,-5
138298038761,-1,3,-5,-66,-9,-2,1,7
138298038761,-2,2,51,-19,2,-2,-7,-3
138298044854,0,3,54,-2,5,4,-1,-1
138298044854,-1,2,24,-51,-5,2,-4,-1
138298060504,-3,2,-30,3,-2,-1,0,0
138298060504,-1,3,-16,60,1,-3,3,6
138298061259,1,0,-1,6,-5,-4,-5,2
138298061259,1,5,-21,2,-1,2,-2,-12
138298076371,-1,1,-21,21,-4,0,2,-8
138298076371,-4,0,-15,39,1,-2,-3,-4
138298082324,1,1,1,56,0,0,3,1
138298082324,3,-3,-14,49,2,-2,-1,8
138298098756,4,-1,16,-34,-1,-1,-2,5
138298098756,-2,0,8,-15,6,-2,3,10
138298104871,-3,0,-7,-19,-1,4,0,1
138298104871,-3,5,28,3,0,-2,2,5
138298119843,0,-3,-3,-8,-6,-1,2,4
138298119843,-3,-6,9,8,5,-6,0,-5
138298127422,2,-3,-4,24,-3,-1,-2,-4
138298127422,-2,0,13,-8,-3,2,4,-9
138298142989,3,3,2,-16,-1,0,-1,2
138298142989,2,-4,7,5,-4,-1,-5,-3
138298143794,-2,-1,-3,9,3,-3,-4,-8
138298143794,0,-4,-6,5,-2,-1,0,1
138298158836,0,-4,5,6,-2,-3,-2,3
138298158836,-1,2,-8,1,-3,5,3,0
138298164953,-2,1,-12,-10,1,-5,-5,-26
138298164953,0,-5,-6,-6,3,-4,-2,-19
138298179892,0,2,-3,-18,4,-8,-7,-47
138298179892,0,-2,-13,-29,-2,-8,-7,-79
138298187329,0,-1,5,1,-1,-4,-2,-27
138298187329,-1,3,-19,-45,5,-17,-14,-111
138298196315,-5,-5,-17,-43,2,-7,-13,-109
138298196315,4,5,-17,-53,0,-14,-17,-126
138298202346,1,-2,11,5,-2,-1,6,44
138298202346,2,2,-8,-19,-8,-4,1,-33
138298218870,1,2,-23,-48,3,-18,-14,-100
138298218870,-2,-1,-27,-52,-4,-13,-16,-114
138298224758,0,-2,-14,-26,-1,-9,-5,-76
138298224758,-3,0,-9,-11,3,0,-4,-33
138298239873,0,5,-17,-45,-2,-11,-10,-99
138298239873,-4,4,-16,-66,6,-11,-15,-89
138298247341,3,1,2,15,-2,-8,-9,-7
138298247341,-2,0,-6,-51,6,-13,-15,-119
138298256331,-4,-1,-4,-47,-2,-12,-12,-90
138298256331,5,-2,11,30,-1,0,-5,40
138298262307,-2,-4,11,54,-7,14,6,61
138298262307,-4,-1,-17,-57,1,-7,-12,-81
138298278811,4,0,-11,-54,4,-9,-14,-79
138298278811,-3,3,-21,-118,6,-17,-18,-128
138298284859,-3,2,-25,-107,11,-16,-21,-128
138298284859,0,0,-15,-101,12,-18,-21,-98
138298299796,-2,3,-15,-115,16,-15,-21,-116
138298299796,-5,0,-13,-114,18,-17,-14,-108
138298307342,-3,7,-19,-128,15,-24,-26,-128
138298307342,-3,-4,-16,-128,18,-20,-15,-128
138298322968,-6,1,-15,-123,21,-13,-16,-102
138298322968,-2,0,-5,-105,19,-11,-13,-94
138298323795,-3,-2,-11,-106,16,-15,-13,-104
138298323795,1,1,-6,-30,12,-7,-8,-35
138298338844,-3,-7,8,10,2,-2,4,21
138298338844,1,-3,2,-19,8,-2,-4,-10
138298344810,0,-2,-14,-44,-3,-6,-7,-71
138298344810,0,0,-1,-10,-3,3,-4,-13
138298359820,-3,0,2,6,2,3,-1,19
138298359820,1,-5,-9,-17,2,-4,-3,-8
138298367296,0,0,-6,-11,-1,-5,-1,-29
138298367296,-2,0,6,4,-6,-3,-4,14
138298390508,-3,3,0,11,-5,-1,0,17
138298390508,-1,5,5,-14,0,-1,-4,1
138298391310,1,5,-3,-7,-1,-5,-7,-13
138298391310,-2,-2,-4,-3,7,2,-1,-1
138298398829,0,-3,0,6,2,1,2,-1
138298398829,-5,-7,-2,8,2,3,6,14
138298404808,-1,1,-4,-16,-1,0,-5,-12
138298404808,0,2,-1,7,-7,0,0,1
138298419867,1,0,-3,7,-3,-2,-1,6
138298419867,1,0,2,40,-5,1,1,20
138298427366,0,1,-2,-16,-5,-4,-1,-10
138298427366,-2,1,-1,11,-6,-1,0,1
138298481757,-2,2,1,23,-6,1,2,15
138298481757,-5,2,-5,27,-3,1,2,19
138298489994,1,2,-2,-8,-1,-5,-5,-17
138298489994,2,0,-1,5,-3,0,-3,5
138298491568,-1,-3,1,-20,5,-2,2,2
138298491568,0,0,-4,13,5,0,2,7
138298492369,3,-4,-13,-8,5,3,-3,-8
138298492369,-3,-1,-65,18,0,4,-3,13
138298495511,-3,-4,-83,-113,95,-8,3,-10
138298495511,-4,-9,-19,-128,127,-9,1,14
138298503003,-6,-9,66,47,-17,-5,1,-93
138298503003,1,5,78,120,-71,-2,-1,67
138298503758,-2,13,-34,62,-77,-2,-4,90
138298503758,0,-3,-52,33,-28,-14,-15,-97
138298518839,-1,5,-100,-39,43,8,-4,-65
138298518839,-3,-12,43,13,15,-2,4,-38
138298524961,-1,0,4,65,-21,-2,0,7
138298524961,3,2,14,125,-31,8,6,69
138298539841,0,-2,16,-22,33,1,-7,51
138298539841,1,0,1,-60,24,-5,-2,-47
138298547399,2,-8,-14,-38,-12,-9,-2,-1
138298547399,1,-5,-2,-128,-27,-11,5,0
138298563014,1,0,21,-94,-29,4,2,28
138298563014,0,4,-35,53,-45,9,-3,33
138298563772,0,1,20,55,-33,1,-1,-23
138298563772,-3,-2,48,127,20,-3,-5,-86
138298585492,4,-6,-27,-28,98,2,2,-3
138298585492,0,1,-46,-121,-14,-2,-6,47
138298586275,-3,-1,31,-124,-9,5,2,-19
138298586275,0,5,22,-93,-50,4,0,27
138298599818,2,-5,-25,-72,-1,-9,-8,35
138298599818,0,3,-43,11,-4,1,-1,-11
138298607331,1,-1,21,33,0,6,-1,-34
138298607331,3,1,8,29,-5,2,0,-8
138298623027,-1,4,-9,31,-6,-7,-1,6
138298623027,1,-3,-11,44,0,-11,-1,-28
138298623849,-1,-7,6,-74,10,-8,-7,-32
138298623849,0,0,3,-57,-2,-5,-5,-8
138298638865,-2,5,-5,-104,-11,-7,-2,-13
138298638865,-6,-1,-1,-70,6,-1,-5,-27
138298644878,2,-1,7,-21,11,1,-3,-4
138298644878,-4,3,5,-69,-2,-1,-4,-8
138298659932,3,-5,1,-75,-5,0,-1,-10
138298659932,0,-1,-19,-35,4,0,2,-23
138298667401,-4,0,0,-49,6,-4,-2,-30
138298667401,3,-1,10,-54,-8,-4,2,-4
138298683075,5,-6,-1,-50,-4,-2,-5,-18
138298683075,1,0,-6,-2,8,-5,-4,-17
138298683800,-2,-1,11,14,4,-7,-2,-15
138298683800,1,1,6,-31,-5,-3,0,-12
138298697389,-5,-1,-7,-39,1,0,-2,3
138298697389,0,-2,-11,-60,8,-4,-7,-13
138298704922,2,-2,4,-21,2,-2,0,-8
138298704922,-2,-4,1,-36,2,3,0,-9
138298719861,0,1,1,-15,-1,-5,-1,-3
138298719861,-1,0,-6,-46,-7,7,-2,-1
138298727291,-1,-6,2,-62,0,-3,-3,-16
138298727291,0,5,-2,-53,4,0,-1,-10
138298742719,-2,-6,-4,-37,0,-1,-2,-2
138298742719,-1,-7,-5,-41,0,-2,-1,-9
138298750547,-1,2,3,12,1,-2,-2,-2
138298750547,-1,-2,-4,-21,-4,1,-6,6
138298757361,-1,6,-2,-10,-3,-4,-1,2
138298757361,2,4,0,14,0,0,0,6
138298764822,-2,1,-1,-46,-1,-2,-3,-8
138298764822,3,2,0,3,-3,-4,-1,5
138298779838,-2,2,-3,23,-5,1,0,9
138298779838,-3,-7,-2,5,1,-4,0,2
138298787352,0,3,-1,-1,2,1,-3,-5
138298787352,-1,-1,5,9,-3,0,-2,6
138298803043,2,-1,0,48,-3,0,2,2
138298803043,0,-2,-1,39,-1,0,0,-2
138298803808,-3,3,5,1,1,1,-4,-4
138298803808,-3,-5,-1,16,-2,-2,0,2
138298817280,1,3,-2,9,-4,0,0,-3
138298817280,3,2,3,0,0,-1,-4,-6
138298824810,1,-4,2,6,-2,-1,3,-1
138298824810,-1,-4,-5,5,-3,-1,-4,-4
138298839788,-1,0,-7,13,-1,5,-1,2
138298839788,-1,-2,-6,-5,-2,3,-5,-2
138298847296,-1,0,-5,5,-3,0,2,-1
138298847296,1,0,-3,-24,-6,-2,2,-3
138298862960,-4,-8,-2,-12,-3,-5,1,1
138298862960,-2,-4,0,8,-3,0,-1,-2
138298863760,-1,-2,1,-2,0,-4,-2,0
138298863760,-5,-3,0,6,3,-2,-1,-3
138298877306,2,-2,-1,-8,-3,-5,-6,0
138298877306,0,-5,-2,-35,1,-3,-1,-5
138298884807,1,-3,-1,-15,-1,-2,-2,-7
138298884807,-1,0,0,-10,-1,1,-3,1
138298899840,-1,-4,-2,-5,4,2,0,-5
138298899840,-5,6,-3,17,3,-5,-3,-2
138298907365,0,-1,1,21,-2,0,-1,-3
138298907365,3,-1,-4,-10,1,-4,-2,1
138298922993,-1,-1,0,-7,-1,-2,-2,-3
138298922993,1,3,-2,-21,-4,-1,-2,1
138298923799,-8,-1,-3,-18,1,-3,-2,2
138298923799,-3,-3,0,7,-1,-1,-2,-3
138298937287,1,-2,-2,20,-7,0,-1,3
138298937287,-7,-4,1,7,2,4,4,2
138298944839,-1,-1,-4,-20,-2,3,-4,-5
138298944839,0,0,0,7,4,0,2,0
138298959904,-1,-1,-2,2,2,6,-2,-2
138298959904,-3,-4,-1,5,-1,-2,-2,2
138298967376,5,-3,2,14,-2,-2,0,0
138298967376,-3,5,-4,14,-3,6,-4,2
138298983063,-3,-2,0,10,2,-1,0,-1
138298983063,2,0,-3,-15,-2,-2,-1,-4
138298983731,0,-8,-1,-6,1,-3,2,-3
138298983731,-3,1,-4,17,-3,2,-2,2
138298997329,1,-1,2,2,2,0,1,-1
138298997329,-2,-2,-1,-8,-3,-1,0,-6
138299004935,-3,-1,1,3,-2,-3,-5,-4
138299004935,-1,-5,6,-13,0,-7,-2,1
138299019883,-1,-7,7,-13,-1,-2,0,-1
138299019883,0,-5,1,-4,0,0,0,-5
138299027436,1,-2,-2,-16,1,-4,-4,-2
138299027436,-3,-3,-9,-14,-5,-4,2,-4
138299042956,-2,1,-6,-9,-4,-1,-2,1
138299042956,-1,1,-3,11,-3,0,6,1
138299043761,0,1,-4,0,-1,4,0,1
138299043761,-6,-8,-2,-17,0,2,0,0
138299057349,-1,5,-1,13,2,-5,-2,-3
138299057349,-5,-3,-2,-10,4,0,-5,-1
138299064813,-1,0,-4,2,-1,2,-1,-2
138299064813,-3,-3,-3,0,3,-4,-2,0
138299079886,-3,-2,-1,-34,-3,-1,1,-2
138299079886,2,3,0,-18,1,-7,-2,-1
138299087451,-3,-1,3,-18,1,-1,-2,1
138299087451,-4,0,1,-10,-2,0,0,-1
138299102420,2,-4,2,-5,2,-4,0,0
138299102420,-2,3,3,-10,1,2,-3,2
138299110645,1,1,1,2,1,2,-1,-2
138299110645,4,2,-1,3,-2,-3,5,1
138299117351,1,3,-5,6,-2,-3,2,2
138299117351,-1,-3,-3,3,-6,-2,1,3
138299124906,-3,-5,-5,11,-3,0,-4,2
138299124906,1,-3,1,-3,3,-4,0,-2
138299139897,-6,-2,1,-2,-2,-2,2,2
138299139897,5,1,-3,14,-7,0,2,1
138299147439,-1,-1,0,-1,-1,-4,2,1
138299147439,5,2,5,14,-4,3,-4,-3
138299162345,-2,2,1,9,1,-2,-1,0
138299162345,-2,0,-3,-3,-1,-3,0,-2
138299170494,-3,-2,-4,28,1,-3,0,3
138299170494,2,2,2,16,-4,-1,1,-4
138299177312,1,2,-5,12,-1,-4,-1,-3
138299177312,1,-1,0,-3,1,2,-4,-4
138299184872,-5,1,-3,-9,-1,0,-1,0
138299184872,-5,0,-2,-16,1,-3,-1,-1
138299199848,1,-1,-2,5,-4,2,0,1
138299199848,2,2,1,4,-6,-4,2,-5
138299207295,1,-2,0,10,0,2,0,-2
138299207295,-2,-2,-1,15,-5,5,-3,0
138299222386,-1,0,-1,4,2,-2,-3,-3
138299222386,-4,-4,-3,12,-1,4,0,2
138299230572,-2,-2,-5,-3,0,-1,-1,-4
138299230572,-7,3,1,-17,2,-3,-4,-1
138299237363,0,0,0,-3,-1,2,0,-2
138299237363,-2,-3,-2,-7,-1,-1,1,0
138299244879,-1,1,-4,-6,-7,-2,-1,-3
138299244879,-2,-3,-2,5,0,-4,-1,-3
138299259827,-2,-2,3,-10,-2,-5,-2,-3
138299259827,-1,-2,0,-8,-1,-2,0,0
138299267400,1,6,6,4,-5,1,1,0
138299267400,1,0,1,-3,-5,-4,-2,1
138299282385,2,-3,-4,18,0,3,-2,-3
138299282385,2,-2,-4,8,-2,-2,-3,-3
138299290585,1,-2,1,1,1,-3,2,0
138299290585,0,-3,1,7,-2,0,-1,-1
138299305496,-3,4,-4,5,1,3,0,-1
138299305496,-3,-2,4,-2,2,-2,-2,0
138299306275,3,-3,-1,2,0,1,-1,1
138299306275,-1,-3,-1,8,1,3,-5,1
138299319900,1,-3,-1,-1,-4,1,1,3
138299319900,-3,6,4,11,-5,-1,-2,-2
138299327342,-2,4,1,1,0,-3,-1,-1
138299327342,0,4,-3,-1,0,1,-1,1
138299358652,-2,0,-4,4,-5,-1,1,0
138299358652,-2,-3,-2,7,1,1,5,-2
138299359452,0,2,-7,3,-2,-3,-1,-1
138299359452,-4,-5,0,-5,1,0,1,-4
138299365560,-3,-2,3,2,1,-1,-2,2
138299365560,-2,-2,-2,-4,-1,-2,1,0
138299366324,-4,-1,-1,-6,-6,-2,-3,-1
138299366324,1,0,-1,7,-4,-6,2,-1
138299379910,3,1,-3,7,3,-4,0,-1
138299379910,-4,-2,-4,-2,-1,-3,-5,-2
138299387427,1,4,2,-4,-2,-1,-1,-1
138299387427,-1,1,0,1,-2,-7,-4,-1
138299402331,-1,-3,-2,-1,-2,-1,-4,-3
138299402331,0,4,-7,5,-1,-2,-5,3
138299410553,-1,-5,4,-8,-2,-1,1,-1
138299410553,8,2,-2,1,-1,-3,-2,-4
138299425460,-3,-2,-4,-1,1,-3,2,-1
138299425460,1,0,-2,-2,-5,-1,-4,-2
138299426241,0,-2,-8,5,3,-2,0,-1
138299426241,-2,-2,-3,-3,-4,2,1,1
138299439832,1,-5,1,2,0,1,-2,-2
138299439832,3,-2,-3,-1,0,0,-4,-4
138299447313,0,-2,-3,-1,-1,-1,-1,1
138299447313,-2,1,-1,1,2,5,-1,-5
138299462341,-1,1,-2,-2,-5,-1,-1,0
138299462341,3,1,1,-1,3,-1,1,-2
138299470577,0,-3,4,-8,-1,4,-2,-1
138299470577,-3,-5,-4,1,2,0,-3,0
138299485488,6,-1,-5,8,0,4,1,-3
138299485488,-5,2,-3,-3,2,1,-3,3
138299486251,0,-1,0,-2,-2,0,1,-4
138299486251,-1,-3,4,-5,-7,3,3,0
138299499815,-2,1,-1,3,-1,0,-5,0
138299499815,-1,-6,9,-8,1,-5,0,-5
138299507325,-3,0,-2,0,-1,0,-1,-2
138299507325,-4,1,-8,1,-2,4,0,2
138299522336,0,0,-3,-1,3,-6,1,-4
138299522336,1,-4,-4,3,0,1,2,2
138299530481,-2,3,-4,0,0,2,-5,-1
138299530481,0,2,-1,0,-2,-4,2,1
138299545505,4,1,-2,2,0,1,-4,0
138299545505,1,-7,2,2,3,-1,0,-3
138299546277,-1,-4,0,0,-1,-3,-1,0
138299546277,3,-4,-2,0,1,-6,-3,-2
138299559843,-3,-4,2,-7,-5,-2,-1,-2
138299559843,-2,0,-2,0,-4,-3,2,3
138299567317,2,-5,-1,-3,3,0,-3,-5
138299567317,0,3,-3,6,2,-2,-2,-2
138299582345,-2,-6,6,-9,-4,-3,-2,1
138299582345,4,-2,3,-2,-3,-3,1,0
138299590459,-3,0,-3,6,1,-4,2,-1
138299590459,1,3,0,3,-2,-1,-2,0
138299605521,1,0,-8,5,-1,0,0,-1
138299605521,1,-1,-2,0,-3,-3,-5,-1
138299606309,1,-2,-1,0,-3,0,0,-1
138299606309,0,0,1,-2,-2,3,-2,0
138299619860,-2,4,-1,0,-5,-1,4,-1
138299619860,-1,-2,-5,0,-1,-2,3,0
138299627372,0,1,0,0,-4,-2,0,2
138299627372,6,2,-3,0,0,-3,-2,0
138299642366,2,0,0,0,-1,4,-1,3
138299642366,-2,4,-4,1,1,-2,3,0
138299650526,3,3,-4,1,-2,2,-2,1
138299650526,2,-2,-2,-2,0,2,1,-1
138299665547,0,1,-1,1,3,-2,-2,-1
138299665547,-1,-3,-7,3,-1,3,-4,-1
138299666312,-2,-2,0,0,0,-2,-5,1
138299666312,-1,-1,-2,5,0,-4,-1,-3
138299679900,-7,-3,3,-4,2,1,-1,1
138299679900,1,-3,5,-8,-3,-2,-2,-1
138299687376,-4,1,4,-1,0,-2,-3,-6
138299687376,5,-2,-6,1,-1,0,-4,0
138299702316,-2,-4,5,-1,-2,-2,-1,-3
138299702316,-1,3,-8,0,0,2,-3,1
138299710526,-4,1,-1,-5,1,-1,1,2
138299710526,-1,0,-4,4,0,0,4,0
138299725489,-3,2,-6,-5,-1,0,-6,3
138299725489,-5,4,-6,4,1,3,0,-1
138299726259,0,1,3,-1,-6,2,-1,3
138299726259,-2,3,-3,2,0,-2,1,2
138299739848,6,-4,-1,-4,-3,-3,-2,-3
138299739848,1,1,2,0,-7,-1,0,-5
138299747357,5,-1,-5,0,0,-1,-2,-2
138299747357,-1,-4,-3,-1,0,-5,1,-1
138299762317,0,8,-3,5,0,-2,1,-5
138299762317,5,4,-2,5,-2,-1,0,1
138299770558,4,-4,-2,0,-2,1,1,-1
138299770558,-1,0,1,2,-1,2,-1,3
138299785493,-4,-5,-12,1,1,-3,0,6
138299785493,-1,0,-7,1,3,0,-3,1
138299786268,-4,3,-1,-2,0,-5,-3,-2
138299786268,-2,-3,0,-2,-3,0,-1,-5
138299799844,-3,-2,4,-1,0,4,-1,-2
138299799844,-6,-5,3,-3,-4,-1,1,-2
138299807324,-3,-3,0,-2,-3,0,0,1
138299807324,-1,-4,4,-5,3,1,0,-2
138299822351,0,-3,-1,1,-1,-3,1,-2
138299822351,1,-6,7,-6,-3,-2,0,2
138299830509,1,-2,-1,-2,-4,0,1,-6
138299830509,-3,-2,1,-4,-4,1,-6,-1
138299845505,0,4,1,-4,-2,-2,2,-2
138299845505,2,-1,1,3,0,-6,-5,-3
138299846263,-6,-3,0,-4,2,-1,-2,-2
138299846263,-2,-11,2,-4,-1,-5,-1,1
138299859858,4,-4,4,-2,-4,-3,-3,-4
138299859858,-1,2,6,-8,-3,-2,1,-3
138299867374,-1,2,4,-2,0,0,1,-1
138299867374,-2,-2,9,-4,-6,1,0,0
138299882350,-3,-5,-5,1,3,0,-4,1
138299882350,-6,-1,-4,-1,5,-3,1,-2
138299890537,-3,2,-1,3,1,-1,-4,0
138299890537,-2,4,0,-4,-3,2,0,0
138299906173,1,-5,0,1,-5,0,-1,-2
138299906173,-1,-2,2,0,-1,1,3,3
138299906956,2,-3,-2,-1,-3,-2,3,-2
138299906956,-4,-4,-1,-4,3,-4,-4,-2
138299919903,-3,2,-2,0,-3,-2,-2,3
138299919903,3,1,-8,3,-1,-1,-1,2
138299927367,3,-3,-7,4,3,-1,-3,1
138299927367,1,5,-1,-3,-3,-4,-2,-4
138299942368,-2,-6,0,1,2,-2,1,1
138299942368,-2,-4,6,-4,1,3,-9,-2
138299950516,2,-3,-3,-2,-4,-1,3,-1
138299950516,-2,2,2,-2,-1,-5,2,-3
138299965531,-2,3,-3,0,-1,-1,-4,-2
138299965531,-1,-3,-2,0,-5,0,-4,0
138299966307,0,-4,4,-1,0,-2,0,2
138299966307,-3,-6,0,0,-2,2,-3,0
138299979825,2,2,3,-2,1,-2,5,-2
138299979825,-3,-8,3,-3,2,0,2,-4
138299987383,2,1,-3,-1,-2,-3,-3,-1
138299987383,0,-2,-7,2,-2,0,1,1
138300002288,-6,-2,-1,-1,0,0,-2,0
138300002288,-2,0,-5,-2,3,-4,-4,-3
138300010569,-2,0,1,-2,-4,-4,-4,2
138300010569,-3,-5,-3,3,0,0,2,-1
138300024795,-4,-1,-7,0,0,4,-4,4
138300024795,2,0,-1,3,1,1,1,-3
138300033022,-5,1,-3,-3,-1,-1,-3,-6
138300033022,0,1,1,-3,-2,-1,0,-5
138300039829,2,-1,6,-5,-3,-1,-1,-2
138300039829,1,0,-1,4,-3,-3,-1,1
138300047315,-1,1,-2,0,2,1,1,5
138300047315,0,-1,-4,2,-3,-4,-2,5
138300062329,3,2,-11,8,-1,1,5,4
138300062329,-1,0,-5,3,0,-2,-1,-4
138300070557,-2,0,-3,0,-2,-5,-3,-3
138300070557,6,1,2,1,-3,4,-2,2
138300084829,-4,3,-3,-5,-5,-6,0,1
138300084829,1,2,0,0,-3,4,-2,1
138300093038,-2,-3,-1,1,1,5,4,-2
138300093038,1,0,-2,3,-2,-1,-3,-4
138300099851,-2,-1,0,-3,0,-2,-4,-3
138300099851,-2,6,-7,1,1,-3,-1,3
138300107356,-6,0,5,-4,-4,-3,-2,0
138300107356,-5,-1,-1,-1,0,-1,-3,3
138300122368,1,-2,-1,5,-7,-4,-4,-3
138300122368,-1,-3,-8,2,-2,1,-1,2
138300130496,0,-4,-2,-4,-1,-4,-6,-5
138300130496,0,1,-10,7,1,2,3,1
138300144860,-1,-6,-10,-1,0,-6,1,-1
138300144860,-2,-2,4,-3,-5,-5,-1,1
138300153074,1,1,-6,3,-2,-4,-2,1
138300153074,-1,-3,-2,-4,4,-1,3,1
138300159875,0,-6,2,-10,0,-4,2,-4
138300159875,-3,2,5,-6,-5,-5,-1,0
138300167361,0,0,1,0,3,5,0,-2
138300167361,-2,-2,-5,-1,2,-4,-3,-1
138300182372,-7,-3,2,-1,1,1,0,-3
138300182372,0,-4,-1,-3,-1,-1,3,-2
138300190536,1,2,5,-5,-5,-4,-3,1
138300190536,-1,2,-9,-1,6,-5,-2,-4
138300204835,2,-1,4,-3,-3,2,-3,6
138300204835,0,-5,-3,2,1,-1,-1,0
138300213005,-2,-4,0,-4,0,1,-1,2
138300213005,1,-3,3,-1,-2,1,0,-3
138300227976,0,0,2,-2,2,3,-3,1
138300227976,-4,-5,5,-5,-1,-2,1,1
138300228777,-2,-1,-4,0,4,-1,2,1
138300228777,1,3,3,-5,-6,-5,-7,1
138300242323,-1,3,-2,1,3,4,2,0
138300242323,1,6,0,1,-7,3,-5,-1
138300250486,-2,-1,-4,3,-1,0,-4,0
138300250486,-5,-4,0,-2,0,3,3,1
138300264837,5,1,-5,9,5,0,1,0
138300264837,0,2,-2,3,2,-1,1,-7
138300273052,0,-1,-3,0,1,-1,2,3
138300273052,-3,-1,-1,4,-3,1,-4,4
138300288001,2,2,-6,1,-4,-3,-4,2
138300288001,-2,-1,1,-3,3,-3,3,-3
138300288769,1,4,-10,5,0,-4,-2,-3
138300288769,-1,-2,0,-1,0,1,2,0
138300302321,-2,3,0,4,-3,-4,-4,-2
138300302321,1,-1,-3,-1,-2,1,-1,-1
138300310507,-1,-3,-1,0,0,1,3,2
138300310507,-5,-1,-6,1,1,-2,-1,-3
138300324827,2,-4,-10,0,-4,0,1,1
138300324827,-5,0,0,1,-2,1,-4,2
138300333042,-2,-4,3,0,1,-2,2,-1
138300333042,-4,2,-5,0,1,2,-5,0
138300347994,1,0,1,1,-1,6,8,-3
138300347994,0,-2,-7,2,1,-2,-4,-1
138300348763,-2,2,-1,-1,-4,-3,-5,2
138300348763,3,1,-3,5,0,-2,2,0
138300362340,0,2,-1,1,2,-4,-6,-3
138300362340,-4,-1,-2,0,-3,-4,2,-1
138300370592,3,-6,2,3,-4,3,1,-1
138300370592,2,0,-1,-2,-4,-4,0,-1
138300384865,-1,-2,-4,0,5,1,-4,-2
138300384865,0,-6,-3,-1,-1,-3,2,3
138300393052,-2,1,1,0,-2,0,0,1
138300393052,-1,2,-4,-1,-2,-1,0,3
138300408010,-2,1,-1,1,0,-5,-1,0
138300408010,0,0,2,1,-1,-1,-6,-4
138300408774,0,-3,-6,-2,-1,-3,3,-2
138300408774,0,-1,-2,1,0,0,2,-3
138300423810,-4,2,4,-5,-8,-1,-2,-4
138300423810,0,1,-2,-3,1,-2,-5,2
138300430517,3,-2,-8,8,0,0,-2,-1
138300430517,-3,-7,1,4,-1,2,-1,-1
138300444888,-1,-3,1,-2,0,1,3,1
138300444888,1,3,0,3,-3,-4,3,-5
138300453012,-2,1,-2,-1,0,2,-4,-1
138300453012,-1,-2,2,-7,-1,-2,0,-1
138300468525,-2,-4,-7,3,1,-1,-2,2
138300468525,-1,1,-10,2,-3,4,2,0
138300469284,-2,-3,0,-2,0,-1,0,0
138300469284,0,0,-2,0,1,-2,-2,-4
138300482397,-1,-2,-8,7,-5,3,0,-2
138300482397,1,3,-5,2,0,6,2,2
138300490537,1,0,-4,0,-4,1,-1,-1
138300490537,0,1,1,2,-2,-1,-5,1
138300504875,2,-4,5,-6,-4,-3,-2,-3
138300504875,0,-2,-1,-3,-3,-3,-5,1
138300513042,-3,-3,-3,-2,-4,-2,1,-3
138300513042,0,0,-8,-3,0,1,-2,3
138300528053,-3,-2,-3,-5,2,-3,-3,-4
138300528053,0,-9,1,0,-1,-4,-2,-3
138300528821,1,2,4,-5,-3,-1,-1,-1
138300528821,-1,0,-4,0,2,0,-3,-3
138300542385,0,1,0,-6,0,1,-3,-5
138300542385,-7,-2,-1,-5,1,1,-1,4
138300550515,-1,-2,-2,-4,1,-2,0,-2
138300550515,2,1,-4,1,1,3,-2,-4
138300564859,-1,-4,6,-6,-3,-1,4,-1
138300564859,1,0,7,-9,1,-3,-3,-4
138300573125,-2,-3,6,-4,4,0,-4,-6
138300573125,-2,-4,3,-3,-1,0,-3,-2
138300587982,-1,-1,4,-3,-4,0,0,-1
138300587982,-3,0,0,1,0,-2,0,-3
138300588779,-2,-3,4,0,-4,-2,-1,0
138300588779,-4,-5,2,-2,-1,-2,-1,0
138300602355,-3,-4,3,0,3,1,0,5
138300602355,-3,-2,0,-2,2,0,-5,0
138300610578,-1,-4,3,-7,-3,-2,2,-2
138300610578,-2,1,3,0,1,2,1,-2
138300624862,3,6,-8,9,-3,1,-1,1
138300624862,2,1,-1,-2,-2,0,1,-3
138300633092,-3,-2,4,-2,-4,-2,0,-3
138300633092,0,-1,7,-5,-2,-3,1,-2
138300648001,-1,-3,1,-5,-1,-1,-2,-4
138300648001,-3,-3,-5,1,-2,6,3,-2
138300648765,0,-1,-4,-1,1,-2,1,4
138300648765,1,-4,-8,2,-1,0,2,0
138300662338,-1,-1,-6,10,1,0,0,1
138300662338,4,1,-4,5,1,1,-2,1
138300670589,0,2,-2,1,0,1,0,-4
138300670589,0,0,1,-3,-4,-1,-2,2
138300684871,2,4,-1,0,0,-2,2,1
138300684871,0,0,4,-1,-4,-1,0,3
138300693072,-2,1,-3,0,-1,1,-9,0
138300693072,1,1,0,-1,-2,-2,-2,-2
138300708030,-5,0,-4,-1,2,0,-1,-3
138300708030,2,-4,1,4,-4,-4,1,-4
138300708804,-2,-1,-3,4,3,-1,1,-2
138300708804,2,-3,-2,-1,-5,-1,-2,2
138300722355,-1,2,-6,11,0,1,-5,1
138300722355,3,-1,-7,3,1,-1,1,-4
138300730580,1,0,1,2,-1,-5,0,-5
138300730580,0,-5,-5,2,1,2,-2,-3
138300744916,3,-3,-1,-2,-1,0,1,-2
138300744916,-4,-1,0,3,1,-5,1,-1
138300753047,2,-2,0,3,-2,-1,0,1
138300753047,-5,2,-4,-2,-3,-2,0,0
138300768150,-1,-2,5,-5,-1,-3,-1,-3
138300768150,-5,-2,-2,-2,1,3,-6,-2
138300768865,-5,-2,-1,-1,-2,-2,-3,1
138300768865,-2,-1,0,-1,0,-4,2,-3
138300782446,-2,-6,-1,0,-2,-4,2,-6
138300782446,2,-2,-5,-1,1,0,-2,-2
138300790595,1,3,-1,0,1,-1,-3,0
138300790595,0,-6,0,2,-1,1,1,-3
138300804869,-3,-2,-4,1,1,1,0,-1
138300804869,-1,-2,1,2,-2,-2,3,0
138300813136,-2,-1,-8,3,4,-1,1,0
138300813136,1,-3,0,-1,3,3,-4,-2
138300828144,2,2,-10,1,-3,2,0,1
138300828144,-5,-2,-3,1,0,-1,1,-3
138300828834,0,-5,0,-3,1,4,-1,0
138300828834,1,2,-3,-2,-2,-2,1,2
138300842361,-3,-4,1,-4,-2,-3,-1,-3
138300842361,-2,1,-4,-2,1,-2,-6,0
138300850537,1,-3,1,-5,-2,-1,2,0
138300850537,-1,-2,1,-3,-2,-2,-1,-7
138300864887,3,-1,1,3,0,0,1,-1
138300864887,-7,-3,-1,-3,-1,1,-3,1
138300873046,-2,-6,-6,-4,-2,-3,0,2
138300873046,1,-1,4,-6,-9,-4,1,-1
138300888058,-2,2,-1,0,-5,-1,-5,0
138300888058,3,-1,-6,1,1,-1,-3,-2
138300888817,1,-5,-5,1,-2,2,-4,-1
138300888817,-3,-6,1,-6,-2,0,-5,-1
138300902383,-3,3,1,-7,0,0,1,-3
138300902383,0,0,1,-5,-2,0,2,0
138300910542,-3,5,1,-1,-2,-4,-6,-2
138300910542,0,1,3,4,-1,-2,-1,-3
138300924897,-5,-4,4,-7,1,-3,-2,1
138300924897,2,-2,-1,2,-1,0,0,1
138300933013,-5,-2,3,-2,0,-3,0,-2
138300933013,-1,1,-1,-2,2,2,2,-4
138300947407,-3,-6,7,-2,0,-2,-2,0
138300947407,-1,2,5,-8,-5,-3,-4,-4
138300955579,-1,0,7,-2,-2,3,-2,-3
138300955579,2,3,1,-1,0,-4,-1,-1
138300962405,-6,-3,-1,-5,0,-4,-4,-3
138300962405,0,0,2,-1,0,3,4,1
138300970560,1,4,-6,4,1,1,-1,0
138300970560,-4,-1,-6,3,-3,1,3,5
138300984886,0,-1,-5,2,3,1,2,3
138300984886,-3,-2,5,-3,-5,-1,1,-2
138300993038,1,-2,6,-2,-1,-2,0,-4
138300993038,-2,2,0,3,3,-4,-2,-2
138301007371,-1,-4,5,-5,-5,-5,-2,-4
138301007371,-2,-1,2,-4,-1,-1,5,0
138301015565,-1,-3,5,1,1,-3,-2,-3
138301015565,-3,-1,-4,4,-1,1,-3,-1
138301022386,0,-1,-2,-1,-2,-1,0,1
138301022386,0,0,1,1,-2,-1,1,-4
138301030570,-3,-3,0,2,-3,-1,-4,-1
138301030570,-1,2,0,0,1,-3,0,-1
138301044952,-3,0,-2,5,0,2,-2,0
138301044952,3,-4,2,-5,-5,-2,-3,2
138301053124,-1,-4,-3,-6,1,-1,-2,-2
138301053124,-4,4,-4,1,-3,0,-1,0
138301067446,1,0,1,1,-1,0,-2,-4
138301067446,-1,4,-6,4,1,-2,2,-2
138301075636,2,2,-5,3,-2,-4,3,-1
138301075636,5,-3,-2,-3,2,-4,-3,-3
138301082454,4,0,-3,0,5,2,-3,1
138301082454,1,1,-6,3,-1,-3,-7,-1
138301090664,0,5,4,-5,-2,2,-5,-4
138301090664,-3,-6,0,2,-1,0,5,-2
138301104899,0,5,-4,4,-6,-1,-3,-1
138301104899,-8,-5,6,-5,-1,-3,-6,-4
138301113119,0,0,-3,4,-3,1,-2,-2
138301113119,1,2,-3,-1,0,2,0,-5
138301127436,-1,-5,2,-4,0,-5,-4,-6
138301127436,-1,-1,-4,3,0,1,2,-3
138301135635,-3,-8,2,-1,-3,-1,0,2
138301135635,-2,0,5,-2,-2,1,-3,1
138301151272,1,1,4,-3,-1,2,0,-2
138301151272,-1,2,-9,1,1,1,-2,-1
138301152878,0,0,-3,-1,0,-2,0,-1
138301152878,3,4,-1,1,-2,-2,-3,2
138301164993,-1,2,-6,1,-1,0,-2,1
138301164993,-1,-4,2,0,2,-1,-1,0
138301173998,-2,1,-7,3,-3,2,-2,-1
138301173998,-3,-2,4,-5,-2,-5,-2,-1
138301187333,-1,-2,7,-5,-4,-4,1,4
138301187333,-1,-3,-3,5,-2,4,-1,1
138301196438,-1,0,1,-5,1,-3,-2,-1
138301196438,-3,-7,0,1,-1,-1,-4,1
138301210567,-2,-8,-3,-2,-2,-4,2,-1
138301210567,-2,-1,1,-3,-1,-2,2,0
138301217470,1,0,1,0,0,-1,-3,2
138301217470,2,-2,2,-2,-4,0,-2,3
138301224852,2,1,-8,8,2,3,3,-1
138301224852,0,-1,2,-2,-3,-3,0,-2
138301233926,-2,2,1,-6,-5,-3,4,2
138301233926,2,4,-2,-4,2,-5,-3,-3
138301247412,-2,-2,1,-3,-3,0,-3,1
138301247412,-1,1,-1,-2,-1,1,-5,-1
138301256351,-3,-2,-4,3,1,-2,-1,-2
138301256351,-1,-6,-4,2,-2,-1,3,1
138301271237,-1,-6,2,-8,-2,-4,-3,0
138301271237,-2,2,-6,0,2,-1,-2,-1
138301272850,-4,-5,-1,0,-2,0,-1,2
138301272850,-3,-1,2,-4,-1,0,-2,-3
138301284876,-1,2,0,-3,-4,-4,-4,-5
138301284876,3,0,1,-3,1,-2,4,1
138301293932,1,3,-6,2,-1,-3,-3,-3
138301293932,-1,-2,-4,-2,-1,-1,-1,-5
138301307378,-4,1,-1,-5,-1,0,0,-2
138301307378,-3,-1,-1,-1,1,-4,-5,-1
138301316378,-4,-2,4,-5,-2,-2,3,-2
138301316378,-3,-1,1,-3,1,0,0,-4
138301331245,1,0,-1,0,2,5,0,-2
138301331245,-4,-4,-1,-4,-3,-3,-2,0
138301332825,-2,-3,-3,-2,3,3,-1,0
138301332825,-2,-3,8,-5,-6,-2,2,1
138301344993,-3,0,5,1,-2,-5,-1,1
138301344993,-3,-1,6,-6,-4,-2,0,0
138301353933,-4,2,2,2,0,5,4,0
138301353933,-2,0,0,-4,2,3,-3,-1
138301367387,-3,0,0,-3,3,-1,1,-2
138301367387,-2,-3,5,-3,-9,-4,0,3
138301376358,2,-5,-7,-1,1,-3,3,0
138301376358,2,-5,4,-1,2,-2,-1,1
138301391198,0,-3,-1,-3,-3,0,3,-2
138301391198,-3,4,-5,3,4,-4,1,-2
138301392816,-3,-2,2,-6,-5,-4,-1,-1
138301392816,-1,6,-10,5,2,2,0,2
138301404851,1,4,-2,1,-2,3,0,-6
138301404851,1,0,-7,3,1,3,2,0
138301413913,1,4,-6,0,0,0,-1,0
138301413913,-1,-1,-2,0,2,-6,-2,2
138301427366,-2,0,-3,4,0,-2,2,-1
138301427366,-2,-3,-4,-1,-5,0,-2,-1
138301436400,1,-2,4,1,-2,1,-1,-3
138301436400,0,-3,6,-2,-4,-3,-2,4
138301451202,-1,-4,-1,0,1,-4,-3,-1
138301451202,-1,-4,-2,3,-2,-1,1,1
138301452923,1,-6,-8,2,1,-3,2,1
138301452923,1,-1,-6,0,-2,1,1,0
138301464938,-2,-1,-4,1,3,-1,-2,2
138301464938,5,-2,-1,-2,2,0,0,-5
138301473942,-1,7,4,-1,-1,-2,-5,-2
138301473942,-5,-5,-3,5,2,5,5,-1
138301487481,1,3,4,-2,-5,1,2,3
138301487481,-1,-2,-4,-1,5,0,-4,-1
138301496417,0,-3,-6,4,0,2,0,2
138301496417,-3,-1,-3,-1,-2,-3,-1,-1
138301511242,-2,-1,5,-3,-7,-3,1,2
138301511242,-4,-2,1,3,-1,-1,-2,-2
138301512868,1,-5,0,-1,-4,1,-1,-1
138301512868,-3,1,-7,2,-1,2,3,0
138301524969,0,-1,-4,3,1,0,-6,-1
138301524969,1,4,-3,2,-6,-3,-1,3
138301533993,0,-1,1,-5,-4,-1,-1,0
138301533993,-2,-5,-2,6,-4,2,-3,1
138301547469,-1,-4,-5,1,0,-3,0,-4
138301547469,-3,0,-5,-1,2,6,1,-2
138301556441,-2,2,1,3,-2,0,-3,3
138301556441,0,-5,-2,-8,-2,-6,-3,-1
138301571299,-2,-2,0,0,-2,1,-3,2
138301571299,0,0,-2,-1,-2,-1,2,0
138301572959,1,0,-4,1,-2,-2,-1,-1
138301572959,1,3,-5,2,2,-3,-6,-3
138301584945,-3,-3,-4,-1,3,-7,-5,3
138301584945,0,-4,1,0,-1,-1,-6,-2
138301593994,-1,-1,-2,0,2,-3,-2,-5
138301593994,-1,0,3,-6,-3,1,-2,-6
138301607429,2,3,-10,5,0,0,2,-2
138301607429,-2,-1,-1,0,1,-5,1,2
138301616400,-3,0,-4,0,-3,-2,-1,-4
138301616400,-4,1,4,-1,1,-4,-1,-1
138301631278,-1,-3,4,-4,-2,3,-1,0
138301631278,2,-1,-4,-3,-3,2,-2,-1
138301632852,-1,0,-4,2,-2,-6,-1,-7
138301632852,2,-3,0,-3,-4,1,-1,0
138301644954,-1,1,2,-6,-5,-2,-3,-2
138301644954,-1,1,-7,2,-1,-2,-1,-2
138301653985,-1,2,0,-1,-1,2,-1,1
138301653985,-1,-3,4,2,0,2,1,-3
138301667459,0,1,-1,0,-1,-3,-5,3
138301667459,1,1,-1,-2,-2,-3,1,2
138301676503,-4,-4,5,-3,-2,-3,-6,-5
138301676503,0,2,-2,-1,5,-2,-5,-4
138301691231,2,0,2,-2,-5,-1,1,0
138301691231,-3,-4,1,0,-1,-4,-2,-1
138301692995,1,-3,-4,-1,3,-1,0,0
138301692995,0,-3,-4,4,-1,-1,0,2
138301704869,2,-3,6,-1,-2,-3,-1,0
138301704869,1,2,-1,-3,0,0,-2,-3
138301713948,-2,-5,8,-6,-2,-4,-2,2
138301713948,1,0,6,-5,-5,1,0,-1
138301727392,-4,0,-6,-2,2,-1,1,-6
138301727392,3,-2,1,-5,-2,-4,-3,2
138301736365,1,-2,2,-4,-4,0,-2,0
138301736365,-4,-3,0,-4,1,-4,0,-2
138301751251,-4,-3,1,-4,-2,5,-1,-3
138301751251,-1,0,1,2,-4,1,4,0
138301752830,-5,-2,-3,0,5,0,2,0
138301752830,-4,0,-3,-2,-8,2,2,0
138301764963,-1,-1,-5,-1,2,-2,-5,2
138301764963,-1,-1,0,-6,-4,3,3,2
138301773949,2,1,0,-2,-4,0,0,-2
138301773949,1,-2,-1,4,2,0,-1,2
138301787405,-4,-1,6,-3,-3,-2,2,-2
138301787405,-1,2,5,0,-4,2,-6,-3
138301802390,-2,-1,-2,2,1,3,0,5
138301802390,0,1,0,-2,0,-2,-2,-4
138301810991,2,-3,-2,0,-1,-2,2,1
138301810991,-1,-2,-6,7,-1,-1,1,-1
138301817400,4,0,-2,-3,-1,-1,-1,0
138301817400,0,0,-7,4,-4,-1,3,1
138301824955,2,0,-5,2,-2,4,0,-1
138301824955,-1,1,-3,1,-2,-8,2,1
138301833921,0,0,-4,3,-1,-1,-3,-1
138301833921,3,0,4,-3,-1,-1,5,1
138301856259,-3,-1,0,1,0,-2,-2,0
138301856259,-2,-2,-1,-1,2,-2,-4,-3
138301857929,0,3,-1,1,-3,0,2,2
138301857929,1,-4,1,-2,3,-1,0,4
138301871286,0,1,-11,5,4,0,3,-1
138301871286,-3,-1,2,-3,-2,1,-3,-3
138301872953,-3,3,4,3,0,-4,1,-1
138301872953,-4,0,-5,2,-3,2,-2,-2
138301884842,-2,-4,4,0,-4,-2,1,-2
138301884842,-2,1,2,-1,0,-1,-4,-3
138301893926,-1,1,-7,2,0,-1,-2,-2
138301893926,1,-4,-9,2,-1,-2,-4,-2
138301907425,0,2,-4,3,-2,-2,-1,-1
138301907425,0,1,-5,3,-1,5,-4,-3
138301916400,-4,-4,-5,3,1,5,3,-1
138301916400,-3,1,1,0,0,-4,-2,-2
138301930640,-1,-2,-1,-1,1,-4,0,2
138301930640,1,-3,-1,-1,0,1,-1,-4
138301937422,-3,2,-2,1,-2,-3,1,-1
138301937422,0,-7,0,-6,-6,-2,-2,-6
138301945009,-2,-1,1,-5,-3,0,0,-1
138301945009,-3,1,0,-2,-1,-1,-3,-2
138301953989,1,-3,-3,-1,-3,-2,-2,1
138301953989,-5,-4,-4,-2,2,-3,1,2
138301967439,4,2,-5,6,-4,-2,-2,4
138301967439,-5,-1,-8,2,-1,-2,3,0
138301976392,1,0,-3,-2,-1,-1,-3,-3
138301976392,3,2,-1,0,-3,-3,-2,3
138301990592,0,-4,-1,-3,-1,-1,2,-2
138301990592,-2,-6,6,-2,0,-7,-1,-3
138301997443,0,-3,-7,3,0,-2,2,-3
138301997443,2,-4,-3,-2,3,2,-1,-1
138302004995,-1,2,-3,-1,-3,0,-1,-5
138302004995,1,0,-4,4,-3,1,-3,-2
138302013993,0,-2,1,-1,1,-3,-2,0
138302013993,-4,2,6,-2,-1,3,-3,-3
138302027498,-2,-3,-4,5,5,-1,-2,-2
138302027498,1,-3,-2,-3,-1,-2,1,0
138302036430,-1,-1,0,3,-5,2,0,-4
138302036430,2,5,-3,3,-2,1,-2,4
138302050631,0,-4,-4,0,0,-1,0,2
138302050631,2,-1,-1,0,-1,-4,4,0
138302057438,-3,-4,-3,1,-2,1,1,2
138302057438,3,-7,-1,-1,3,-3,1,-1
138302064970,-4,3,-1,2,0,4,1,-1
138302064970,4,0,-6,3,-1,1,-2,0
138302073943,0,1,0,-3,3,-5,-4,-3
138302073943,1,-1,-7,1,4,4,3,1
138302087442,0,0,-2,-4,-2,-1,-7,1
138302087442,-2,0,1,-6,-1,-1,-5,3
138302096422,4,0,5,-2,-3,-4,-3,0
138302096422,3,2,-4,1,-3,-3,-1,-6
138302110625,1,-5,-1,-3,0,-5,1,1
138302110625,-1,-5,2,-2,-1,3,-2,0
138302117416,-4,-1,-3,-1,-1,-1,3,0
138302117416,-3,5,-4,-2,0,-6,-3,-2
138302133761,0,-5,0,-1,-1,-3,4,-1
138302133761,1,2,2,-4,-6,-4,-2,0
138302135361,0,-7,12,-9,-2,-4,0,3
138302135361,-4,2,3,-1,-2,0,0,2
138302147353,-1,0,-1,-6,-3,1,-1,-2
138302147353,-4,-1,2,0,-1,0,1,-3
138302156410,-2,2,0,0,-1,1,-4,-1
138302156410,0,1,0,1,-4,-3,-3,-2
138302170566,0,0,-3,2,0,-2,1,2
138302170566,0,0,-3,3,0,2,4,2
138302177386,1,3,-9,0,-2,-3,0,-1
138302177386,1,-2,-1,-3,-1,2,-4,0
138302193758,0,2,-8,4,-1,-1,-2,-3
138302193758,-2,-4,-3,-2,2,-1,0,-2
138302195357,0,-2,3,-4,-2,-3,3,0
138302195357,-4,1,0,3,2,-1,-3,0
138302207436,-1,-1,4,2,-4,3,0,0
138302207436,-2,-3,-4,3,2,0,-2,2
138302216361,-2,1,-5,-1,1,1,-7,-4
138302216361,1,-5,2,-2,1,-1,-1,0
138302230579,-2,-2,7,-5,-2,-3,-6,-6
138302230579,1,2,-4,4,0,-1,-2,-1
138302237430,0,-4,1,-1,-4,-1,0,-1
138302237430,-4,4,-9,3,2,2,-2,-2
138302253781,-2,-3,-1,-3,1,-1,-5,3
138302253781,5,-2,-3,0,-6,-4,5,0
138302255363,-4,0,-6,3,1,-1,0,0
138302255363,3,-4,4,1,-3,2,6,-4
138302267403,-3,4,-4,-1,0,0,2,3
138302267403,-3,-2,-3,-3,-3,0,0,0
138302276465,-1,-3,3,3,0,0,-1,-3
138302276465,2,-4,-2,0,-5,-3,2,0
138302290616,0,-2,7,-2,-3,-3,-2,-4
138302290616,-3,1,0,-2,0,-1,1,-6
138302297418,-5,1,-2,1,-3,-2,0,-4
138302297418,-5,0,-3,-2,-3,-3,-2,-4
138302313729,1,1,-7,0,0,-5,1,-3
138302313729,-1,0,4,-4,1,-6,-1,2
138302315406,2,-3,0,-4,-2,-2,-3,1
138302315406,-1,1,-1,0,-1,1,0,0
138302327442,-1,-7,-3,1,0,1,-7,-1
138302327442,-6,3,2,-5,-7,0,-4,-5
138302336373,-1,-2,-4,-2,-2,5,2,-3
138302336373,0,-5,2,0,0,0,0,3
138302350559,2,7,-1,-1,-3,-2,4,2
138302350559,-1,-4,1,-3,-3,1,0,1
138302357483,2,1,-7,5,-1,4,1,3
138302357483,-4,1,2,-5,-3,-3,-2,-2
138302373745,1,-2,1,0,1,-1,0,-2
138302373745,3,-4,-2,4,-2,2,0,-1
138302375361,-3,-4,-1,-2,-5,-2,-3,1
138302375361,1,-1,-3,-1,-1,-2,4,2
138302387478,-6,-2,-2,-5,2,-1,-2,2
138302387478,-1,-2,-7,-6,1,-4,0,1
138302396434,3,0,1,-4,-2,-5,-5,-1
138302396434,-2,2,-3,3,-1,1,-1,3
138302410687,1,-2,-2,2,-4,2,2,0
138302410687,-3,3,-2,4,-2,0,0,-1
138302417416,-1,-3,-1,0,3,1,2,3
138302417416,-3,1,-2,-1,1,-7,-2,-3
138302433806,0,-2,0,-3,-2,-2,-4,-2
138302433806,0,-3,-5,1,3,3,0,2
138302435407,-2,-6,-1,2,2,3,4,0
138302435407,1,-1,-6,4,2,-1,-5,-2
138302447404,1,-4,1,0,-1,-1,1,-1
138302447404,-3,-5,3,-1,0,-1,0,-2
138302456441,3,5,-1,2,-3,-3,-3,1
138302456441,1,-4,2,-3,0,0,-5,-2
138302471052,-2,-2,1,-2,1,-3,-4,-3
138302471052,6,3,-2,0,-5,-4,-5,2
138302477439,-2,4,-9,4,0,-5,2,-3
138302477439,-2,-3,-8,1,0,-3,0,-6
138302493814,5,1,-3,2,-3,-2,-4,-1
138302493814,-5,-5,3,-3,1,-1,0,1
138302495383,3,1,0,-2,0,-4,1,-1
138302495383,3,-1,2,-1,-2,-1,1,0
138302507410,-3,4,-3,6,-1,1,1,4
138302507410,-3,0,3,-2,0,-4,-3,-3
138302516412,2,2,-2,4,-4,0,-3,-3
138302516412,1,0,6,-5,-5,-1,-3,-1
138302530626,-3,3,-1,-3,-1,4,3,0
138302530626,3,-1,3,-2,-5,1,-3,0
138302537371,-4,1,-2,-3,0,-1,-1,-1
138302537371,-1,-4,-2,-1,1,2,-1,-1
138302553783,1,-3,5,-3,1,-1,-3,-3
138302553783,-1,2,1,4,-6,3,2,-5
138302555358,0,2,1,0,-2,2,0,-2
138302555358,-1,0,-5,-2,2,-1,0,-1
138302567418,0,3,-1,4,-8,-2,-2,5
138302567418,-5,-5,-4,0,6,-1,-2,-3
138302576362,0,2,-1,2,0,-1,1,-3
138302576362,-5,-2,-8,3,0,6,1,1
138302590561,3,-3,-8,1,-1,2,0,-4
138302590561,-2,2,0,-1,-4,-2,-2,1
138302597409,-3,-2,-1,1,-1,2,-1,-2
138302597409,-2,4,1,1,-1,-1,4,1
138302613722,-1,-3,1,-2,1,-2,1,-1
138302613722,0,4,-5,2,-1,0,3,1
138302615324,-3,-3,-1,-3,2,-2,-6,-4
138302615324,0,3,-3,4,-4,1,-3,-1
138302627396,0,-2,-6,3,-1,-1,-2,-3
138302627396,0,-1,-9,6,1,-3,3,-1
138302636422,-3,-5,-1,-2,2,-5,0,3
138302636422,-1,1,-5,2,-4,0,0,2
138302650590,-4,-2,-2,-1,-4,1,-2,-4
138302650590,1,-1,-1,-3,1,-3,-5,-2
138302657379,-2,0,-2,-1,-2,1,0,-2
138302657379,2,-3,-6,-3,-2,-5,0,0
138302673736,-1,-2,-4,3,5,-1,3,-4
138302673736,-3,-1,-5,-3,-3,0,2,1
138302675361,-4,-3,1,-2,-1,-3,-2,1
138302675361,-3,-3,-5,1,3,-4,1,-1
138302687458,2,-1,0,2,-3,0,-5,-1
138302687458,-1,-1,-1,-6,0,-6,-3,2
138302696435,5,-1,-6,-1,0,1,5,-1
138302696435,0,-1,5,-6,-6,-1,-3,1
138302710600,-2,5,3,-5,2,-3,-7,2
138302710600,-4,-4,2,-1,1,-2,-2,-1
138302717794,0,-1,-5,-1,-4,-3,-2,-4
138302717794,-1,-2,0,-2,-1,0,1,-1
138302733706,0,2,-3,-2,-1,-1,3,-2
138302733706,1,1,1,-1,-3,-1,0,-1
138302735429,-3,-8,4,-3,-4,-1,-1,-1
138302735429,1,3,0,-2,-3,2,-1,-5
138302747447,-4,-3,0,-3,1,-3,0,-1
138302747447,1,-6,2,-3,0,-3,1,-2
138302756507,-2,2,-2,1,-2,1,0,3
138302756507,2,0,-4,4,-3,0,-4,-2
138302770622,0,-1,-3,-1,-4,1,-2,-2
138302770622,1,3,-2,-3,-1,-1,-4,-5
138302777498,2,-1,-9,0,4,0,0,-1
138302777498,-2,0,1,-2,-2,-4,0,1
138302801265,-5,-3,2,-4,0,-2,2,-1
138302801265,0,-7,0,0,-2,3,-2,-3
138302803057,-1,3,6,-7,3,-3,0,-1
138302803057,-2,-3,2,-2,4,1,2,-1
138302807425,2,-9,-2,1,-2,-2,-1,-2
138302807425,-3,3,0,0,-2,0,2,-3
138302816373,2,-5,0,-1,-2,-5,0,1
138302816373,-1,-1,5,-6,-3,-3,-4,-4
138302830573,-1,1,5,-6,-7,-4,0,0
138302830573,-1,3,-1,1,5,-3,0,2
138302837427,2,1,0,-1,-3,-2,-6,-2
138302837427,-2,-2,-4,3,-1,-2,0,0
138302853153,2,-1,-1,2,0,1,-2,6
138302853153,-1,-6,-1,-3,-6,1,1,1
138302860051,-4,0,7,0,-1,2,-2,0
138302860051,-1,-8,0,-5,-2,1,1,0
138302867465,-5,-2,-1,-3,1,-2,1,-1
138302867465,1,0,0,0,3,-1,0,0
138302876419,-2,-1,-2,2,0,1,-6,2
138302876419,5,-2,-1,0,0,0,-3,0
138302890547,0,-1,1,2,0,1,-1,-4
138302890547,1,0,2,1,-2,0,-2,-6
138302897473,0,-2,-4,3,-3,0,0,1
138302897473,-7,-2,2,0,-4,-2,-5,-3
138302913118,-2,-1,-2,-2,0,1,0,-3
138302913118,-1,1,-6,2,-2,-1,-5,0
138302920029,2,-1,1,5,0,-1,-1,-5
138302920029,0,-2,-1,-1,1,-4,4,3
138302927516,0,-3,0,-1,-2,-1,-2,-1
138302927516,1,0,-6,3,0,-1,-2,-3
138302936445,-2,-3,-2,0,1,4,1,-4
138302936445,-4,1,-1,-2,-1,0,-2,-2
138302950581,1,0,-5,2,-2,-4,0,-1
138302950581,-1,0,-6,4,1,1,0,4
138302957485,1,-4,3,0,-1,-2,-4,0
138302957485,0,-2,-2,3,2,-4,-2,4
138302973165,-1,1,-2,1,0,-3,-1,-2
138302973165,3,-3,-2,2,-3,0,-3,4
138302979974,-1,2,-6,-1,-3,-6,-3,-1
138302979974,1,1,2,1,-3,-3,-3,-4
138302987394,1,-3,-4,4,-1,3,-2,-2
138302987394,-1,-1,-1,-1,-3,-1,-2,-2
138302996389,1,2,-2,2,-2,1,2,1
138302996389,2,0,-4,-1,0,-1,-1,1
138303010657,3,2,-6,9,-3,-2,0,-3
138303010657,2,0,1,1,0,3,-3,-4
138303017407,-2,2,-1,0,-4,2,3,-1
138303017407,0,-1,-7,5,1,-2,-1,-3
138303033115,-2,-7,0,-4,0,-1,0,-1
138303033115,0,1,-4,1,3,-6,-3,1
138303039940,-1,-1,-2,-4,-3,-3,1,1
138303039940,-2,0,5,-5,-1,-2,3,-2
138303056291,2,1,3,-5,-3,-3,-6,-5
138303056291,-5,-2,-8,1,1,-1,-2,-2
138303057911,2,-6,-3,-3,-2,-1,-4,0
138303057911,-1,1,-2,3,-3,0,-3,1
138303070587,1,0,-6,2,0,3,3,4
138303070587,-3,3,3,1,-1,-4,2,-3
138303084946,2,2,-1,3,3,2,-2,-2
138303084946,-4,-2,1,-4,-4,-1,0,1
138303093065,-1,1,-4,-1,-3,1,-3,2
138303093065,0,-3,1,0,-2,-6,3,2
138303099917,-2,0,-5,2,-2,1,0,-2
138303099917,-2,-5,5,-2,1,1,-2,-4
138303116284,-3,0,-7,1,2,0,-3,2
138303116284,-2,0,-1,-3,-2,4,-1,-2
138303117955,-3,1,-2,-3,1,-3,-6,-3
138303117955,-1,1,0,1,0,-4,-5,-5
138303130724,0,5,-3,0,1,-1,3,0
138303130724,-5,-2,-5,1,-6,4,3,2
138303137471,-2,-4,-11,5,1,-4,-1,2
138303137471,1,0,-6,-1,1,1,-1,-2
138303153173,-4,-8,-5,-1,0,0,3,-3
138303153173,3,-3,-2,1,-2,-2,-3,0
138303160008,-7,1,-1,-1,-1,6,5,-5
138303160008,-6,-5,-7,-2,-2,0,0,2
138303176380,-4,-5,5,-7,-1,-3,1,-3
138303176380,2,-3,0,0,-1,0,-3,-4
138303177967,-1,1,-4,0,-2,0,1,-2
138303177967,-1,0,-1,-1,3,-1,3,0
138303191103,1,-2,4,0,-3,-1,0,2
138303191103,-1,-2,0,-2,0,0,-4,0
138303197436,-1,-4,1,3,-2,-4,2,0
138303197436,0,2,-4,-2,-3,-2,3,-1
138303213114,-4,-3,-2,-4,1,-1,-2,0
138303213114,-4,4,0,-4,-7,-1,-3,-2
138303219894,2,1,-1,0,-1,-3,3,4
138303219894,-2,-3,8,-2,-2,-2,-1,0
138303243871,-1,2,-7,4,-1,0,1,2
138303243871,0,-4,-4,2,2,0,0,0
138303245442,-4,0,-5,-1,-3,1,-2,0
138303245442,-3,-1,5,0,-1,2,0,0
138303250607,-2,-2,3,0,2,-1,-2,1
138303250607,-7,-1,-4,0,3,-3,5,2
138303257471,0,-2,-2,1,3,1,-7,-2
138303257471,0,2,4,-1,-6,-4,-3,3
138303273178,1,-3,1,-5,0,0,-2,-3
138303273178,-2,2,4,-1,-1,-1,-3,-3
138303280022,1,2,3,-1,2,-4,-1,-1
138303280022,5,-2,-2,4,0,-1,0,1
138303296353,2,-4,-6,7,1,0,2,2
138303296353,1,-2,-3,-2,1,2,0,0
138303297984,1,-2,-3,-3,-3,2,-1,1
138303297984,-5,2,-2,0,1,-1,0,-5
138303310636,-1,1,-5,3,-3,-1,-1,-2
138303310636,-5,-3,3,-1,-3,-4,-2,-1
138303317401,-3,-1,-2,1,0,-4,-2,-1
138303317401,1,-1,-6,4,7,-1,-1,-1
138303333141,2,7,-4,3,-4,-1,-2,-2
138303333141,0,-3,-1,1,-2,-3,-3,-3
138303339939,0,-2,-2,0,-2,0,0,4
138303339939,3,4,-7,4,-5,-1,-2,-3
138303356275,-1,-1,-1,1,0,-2,-1,-1
138303356275,4,8,-4,6,-4,-1,2,1
138303357930,-6,-1,-2,-1,-2,-4,0,4
138303357930,-6,-1,-1,0,0,4,-4,-2
138303370559,-2,-3,3,0,0,0,-2,0
138303370559,-2,-5,3,-3,-1,-2,-3,3
138303377411,0,-2,2,-2,-2,1,2,-6
138303377411,2,-3,-9,2,2,-7,-4,2
138303393164,-3,5,-2,-1,0,-3,-6,-2
138303393164,1,0,-8,4,1,0,0,1
138303399962,-4,-1,0,1,1,-2,-3,-3
138303399962,-2,-2,-3,-4,-1,6,-1,-1
138303416274,0,-1,-1,-5,-3,-2,-1,-2
138303416274,0,2,-7,2,3,-3,-2,-1
138303417922,3,-3,0,-3,-3,0,0,1
138303417922,-2,-5,3,-1,-4,1,-3,-4
138303430615,-4,2,2,3,-2,-2,3,1
138303430615,2,3,1,-2,-6,-2,-3,-4
138303437386,-2,-2,-1,-1,0,-3,-6,-3
138303437386,0,-1,0,-5,-2,1,-4,-1
138303453099,1,1,-3,-1,2,2,-1,-1
138303453099,-3,-3,-4,2,2,-4,-1,-3
138303459927,1,0,0,3,-8,-1,0,1
138303459927,-5,-3,-1,-2,-4,-1,3,0
138303476281,1,-4,-4,-2,-2,1,1,-1
138303476281,-3,2,2,0,-1,3,-2,-3
138303477956,-2,3,0,-4,2,-2,-7,-1
138303477956,1,-2,-2,0,-5,-1,0,2
138303490640,-1,-1,1,-2,-3,-1,1,-2
138303490640,-2,-3,-7,5,2,-1,-1,-2
138303497493,0,-3,0,4,-1,-3,0,-2
138303497493,-5,-5,5,-5,-1,1,-2,-2
138303513128,-3,-3,-8,-1,0,2,-4,3
138303513128,-1,-3,-4,-2,-5,2,1,-1
138303520015,-1,-2,-7,2,-4,0,-2,-2
138303520015,-2,0,1,-2,2,-3,-5,-2
138303536385,2,0,-8,4,-1,2,1,0
138303536385,-2,-5,-5,-6,-2,-1,-3,1
138303537998,1,1,-6,1,-1,2,2,-2
138303537998,-3,0,-4,0,0,-7,6,-3
138303549952,-3,-2,-4,1,6,-3,-4,-1
138303549952,2,1,-7,2,3,0,-3,3
138303558942,0,1,-5,3,1,-1,0,-3
138303558942,1,-3,-2,-3,-5,1,-2,-1
138303573122,-2,-6,2,-4,0,-5,-5,-1
138303573122,0,-3,1,2,-2,-1,5,0
138303579987,1,-6,2,-7,1,-1,-3,-3
138303579987,-4,-2,-1,-2,1,-3,-4,-1
138303596313,-4,-6,2,-2,-2,-4,1,2
138303596313,-5,-3,3,-3,2,-3,1,-3
138303597931,-3,-3,0,-3,-4,-2,-4,-1
138303597931,1,-5,-3,1,0,1,4,-2
138303609951,0,3,1,0,0,-1,-8,-1
138303609951,1,0,-2,2,2,-2,0,-2
138303618917,-5,1,1,-2,-2,0,6,1
138303618917,-1,0,3,-3,-2,-1,-2,-3
138303633200,1,-1,-3,-2,1,-1,-1,-4
138303633200,-2,-3,0,0,-1,1,1,3
138303639999,-4,-1,-1,-2,-1,-1,-1,0
138303639999,-2,-3,5,-6,-5,0,-2,-2
138303656329,0,0,0,-3,-1,-1,-2,0
138303656329,-1,-2,0,-1,-2,0,-2,2
138303657950,-2,-3,-6,-2,2,-1,4,2
138303657950,-1,1,-7,1,4,-1,-1,0
138303669956,2,0,-2,-1,1,-1,1,1
138303669956,-1,0,1,-4,-2,-4,2,-3
138303678926,-1,1,-1,-2,-1,-2,1,-3
138303678926,3,1,3,1,-4,-4,2,3
138303693124,1,-2,3,-3,-2,1,-2,-7
138303693124,-1,-2,4,1,0,-4,2,-1
138303699925,-1,-8,4,-3,-5,-2,-1,4
138303699925,1,-4,-4,0,-3,2,3,3
138303716301,-2,0,2,0,-1,-2,-4,1
138303716301,1,0,-1,-3,-4,-1,0,-1
138303717933,2,-1,-2,0,4,1,-4,-3
138303717933,-2,3,-8,2,1,-2,-2,-1
138303729968,-4,2,1,0,-4,-9,2,3
138303729968,3,-2,-5,-1,1,0,-4,-7
138303738954,2,4,-8,4,-1,2,-2,0
138303738954,4,-1,-4,2,-3,0,-4,0
138303753093,-1,-3,-2,-1,5,-1,-5,-1
138303753093,0,2,-1,-2,-3,-3,-1,-1
138303759937,-3,-4,4,-1,-4,-1,-1,-3
138303759937,1,0,1,-3,0,-1,3,1
138303776239,-4,1,-1,3,-3,-2,2,-7
138303776239,-4,1,-2,-1,-3,0,-2,1
138303777957,1,3,0,2,2,-4,-5,-2
138303777957,0,1,-5,2,1,0,0,-3
138303798843,-2,-2,-6,5,-2,0,5,-2
138303798843,0,-1,-2,2,-3,4,-1,2
138303800398,3,2,1,3,-1,-3,2,-6
138303800398,-2,-3,-2,-1,5,-5,-2,-3
138303813083,1,1,2,-3,3,-2,-2,-2
138303813083,-3,0,-3,0,-3,2,-2,-2
138303819926,0,-2,-2,1,-3,-3,-1,2
138303819926,3,2,-7,6,1,1,3,2
138303835598,-1,-2,0,1,-3,-1,-2,-3
138303835598,0,3,-2,1,-2,-5,-4,-2
138303842504,-1,-3,1,-2,-6,1,-1,0
138303842504,-2,4,-5,-1,-1,1,1,4
138303849978,-1,-3,-3,1,-6,5,0,3
138303849978,6,0,-4,2,-1,-1,3,0
138303858900,0,-1,-5,2,-2,1,0,5
138303858900,0,1,-2,1,-3,-4,-4,-1
138303873158,3,1,-9,0,-1,5,-1,3
138303873158,-1,-5,-1,-3,-4,-1,-1,-3
138303879947,-1,1,-6,2,-2,-3,-1,-4
138303879947,-5,1,-4,2,-2,2,-1,-3
138303895559,-5,-5,4,-5,-2,-5,-4,-2
138303895559,0,-2,-2,-4,-1,-2,-8,1
138303902504,0,-1,-9,4,0,-3,-3,-3
138303902504,-4,-1,1,-2,-1,0,4,-6
138303910063,0,0,2,-4,-1,-8,1,0
138303910063,-3,-2,-2,5,-2,-3,-1,-5
138303918952,-1,3,-7,0,1,-1,3,-2
138303918952,1,0,-1,-3,-2,-6,-6,-2
138303933109,3,3,0,1,-4,-3,-3,-2
138303933109,-2,-4,-1,-2,3,-5,-2,2
138303939932,2,2,-2,-4,-1,-3,-3,-2
138303939932,-4,-6,0,-1,2,-2,-4,-5
138303955697,-3,-2,-3,-3,-2,1,1,-1
138303955697,-5,-4,0,-1,-1,0,-2,-1
138303962490,-4,-3,2,-1,-1,3,-2,-2
138303962490,2,-4,0,-4,0,-2,-1,-2
138303978876,-4,0,-3,-2,0,2,-2,0
138303978876,-3,0,4,0,-3,-2,0,-3
138303980484,-2,-4,7,-7,2,-5,-1,-1
138303980484,-2,-2,3,-5,-3,3,-6,1
138303993108,1,-1,-2,3,4,-1,0,0
138303993108,-2,1,-6,2,-2,-3,1,4
138303999997,-2,1,-1,0,1,-2,1,-1
138303999997,2,-3,2,-3,-3,-2,-6,1
138304015485,-5,-3,-2,0,-3,2,2,-2
138304015485,-1,2,1,-3,0,-3,-6,1
138304023929,0,-2,1,-5,-3,-2,-2,-2
138304023929,-4,-1,1,-1,1,-4,1,3
