timestamp,emg1,emg2,emg3,emg4,emg5,emg6,emg7,emg8
72632275112,-36,28,0,46,46,3,46,9
72632275112,-2,9,-1,19,7,-12,32,-1
72632275915,23,-1,-4,2,2,-9,2,-4
72632275915,1,-1,-10,4,2,2,6,-10
72632276718,9,-13,-14,-13,-18,-13,-12,7
72632276718,-3,45,49,35,52,29,10,8
72632280269,15,-36,-20,-45,-47,-9,-45,-7
72632280269,-23,11,20,4,10,-21,0,13
72632286749,3,7,16,-2,-1,-9,-2,4
72632286749,11,-62,-72,-52,-65,-21,-31,-35
72632295386,-35,9,-2,12,-1,-5,4,-4
72632295386,19,-3,-12,4,2,3,1,-9
72632303193,3,-14,-10,-18,-19,-3,-22,12
72632303193,-5,-27,-53,8,-21,-9,17,-31
72632326102,-1,9,-1,16,16,6,19,-2
72632326102,8,0,5,-3,-9,-3,-2,-5
72632329790,9,-40,-13,-61,-64,-9,-44,-1
72632329790,-17,8,22,-8,4,-2,-10,16
72632331763,-3,-7,-11,-2,-3,1,4,-7
72632331763,-5,36,45,9,14,5,-11,11
72632346823,9,-18,12,-25,-45,3,-54,-15
72632346823,-11,0,1,-2,0,3,-8,4
72632355399,-1,10,20,1,1,5,-1,10
72632355399,-2,-6,40,-72,-74,-4,-70,17
72632395094,2,-39,-56,-21,-29,2,-12,-25
72632395094,-14,4,-5,12,-2,1,20,-4
72632395827,10,-3,-5,-1,-2,-3,0,-4
72632395827,-1,14,36,-13,-15,2,-13,24
72632396624,7,-6,7,-24,-19,0,-35,3
72632396624,-7,-4,-2,-6,-5,6,-6,-3
72632399789,-1,-19,-55,17,19,7,16,-36
72632399789,-5,28,26,16,32,1,-8,16
72632406579,18,11,12,10,14,0,7,6
72632406579,6,-4,2,-10,-9,8,-12,-5
72632414016,-5,8,-27,47,49,2,42,-8
72632414016,16,-11,-19,1,-1,5,4,-10
72632423000,-6,2,-3,7,5,-3,9,2
72632423000,4,-28,-17,-38,-51,-14,-26,-6
72632436523,-5,-5,7,-16,-21,-3,-11,5
72632436523,-5,-11,-23,4,-1,-5,12,-10
72632445556,-8,-6,-23,1,-21,-13,6,-19
72632445556,2,3,-4,10,14,-3,8,-2
72632451532,1,-7,-13,-8,-6,-10,-15,-15
72632451532,-10,-10,-13,4,-7,-9,4,-8
72632466565,10,3,4,4,8,0,4,-1
72632466565,3,8,32,-13,-16,-2,-12,29
72632474094,-2,-12,7,-36,-35,-2,-40,6
72632474094,-3,-5,-13,4,8,2,4,-9
72632483026,-7,-30,-56,3,-2,-3,21,-19
72632483026,-7,6,-6,15,22,-1,12,-6
72632496611,6,7,8,5,11,-1,8,11
72632496611,8,-29,-8,-53,-52,-6,-33,-12
72632505558,-7,10,25,-5,0,-2,-11,12
72632505558,0,-39,-45,-35,-60,-9,-27,-7
72632511587,-6,-1,7,-9,-16,3,-2,2
72632511587,3,-7,-17,6,-2,6,7,-13
72632526575,-3,0,-35,44,52,6,33,-22
72632526575,1,7,-4,18,29,4,10,-10
72632534018,2,5,-3,16,13,-6,10,-19
72632534018,-5,16,-1,31,22,-3,33,-4
72632543056,19,14,25,-3,1,-3,-5,8
72632543056,4,18,18,15,21,-5,9,19
72632556606,6,-10,12,-42,-38,-9,-53,5
72632556606,5,6,16,-8,-4,3,-8,7
72632565556,-3,-28,-40,-3,-6,-2,5,-24
72632565556,3,-2,-5,12,4,0,19,-12
72632571608,7,4,15,-6,-7,4,3,11
72632571608,4,3,-9,29,42,3,13,-12
72632586575,-6,4,12,-7,-7,-1,-9,10
72632586575,3,2,1,2,7,1,4,-22
72632594040,-6,17,-1,37,43,-5,32,9
72632594040,24,-5,-10,4,1,-16,5,-5
72632603042,-1,3,-1,4,9,-12,2,-5
72632603042,-4,-42,-36,-22,-33,-12,-11,-25
72632616536,-4,5,9,4,-1,1,5,2
72632616536,0,7,16,-9,-11,3,-11,-1
72632625510,-3,29,74,-50,-42,10,-74,33
72632625510,6,8,14,-13,-6,19,-18,5
72632631507,2,-18,-22,-8,-13,10,-3,-12
72632631507,0,-30,-60,8,0,5,57,-44
72632646498,9,3,4,2,1,6,11,-4
72632646498,4,12,6,15,21,6,13,-13
72632654068,-3,22,36,-3,11,-5,-21,20
72632654068,2,3,9,-9,-6,-6,-17,9
72632663019,-2,-3,-3,5,4,-8,10,-6
72632663019,1,-7,-43,36,35,-6,44,-22
72632676532,13,0,2,1,-2,-2,7,-2
72632676532,1,6,17,-12,-10,-1,-15,-10
72632685527,1,13,-3,32,42,4,13,9
72632685527,27,5,10,-8,-2,3,-17,8
72632691542,0,-13,-26,1,-4,1,10,-18
72632691542,-2,-17,-54,58,61,9,49,-23
72632706561,24,-1,-1,3,2,8,4,-5
72632706561,2,11,13,6,12,-9,0,0
72632713999,-3,13,-4,43,43,6,24,3
72632713999,24,6,20,-18,-19,-4,-28,15
72632722974,-2,-9,-10,0,-2,-3,7,-7
72632722974,-1,-30,-61,11,6,-7,47,-36
72632736553,9,-7,-6,-8,-11,-7,-1,-7
72632736553,-3,3,10,-10,-6,-9,-14,10
72632745503,-2,-54,-72,-25,-36,-6,7,-31
72632745503,-14,33,46,-7,7,-1,-65,30
72632751533,-14,-7,-8,-6,-6,7,-1,-9
72632751533,-3,-4,-5,-5,-8,15,-12,-1
72632766552,-7,39,72,-8,-9,3,-11,28
72632766552,8,-16,9,-51,-47,3,-54,-4
72632774075,-12,-6,-5,-9,-11,-5,0,2
72632774075,-5,5,11,1,1,-2,-7,-16
72632782997,-8,19,46,-37,-32,-8,-67,16
72632782997,15,0,0,3,3,-2,5,3
72632796523,7,-1,2,-6,-7,-15,-7,-8
72632796523,-5,26,65,-27,-30,-4,-21,27
72632805508,12,-25,-19,-38,-37,-7,-13,-19
72632805508,19,1,4,-1,-2,-2,-4,2
72632819666,6,6,9,-5,-5,-18,-6,4
72632819666,4,-29,-64,2,3,-15,-2,-31
72632826563,-8,18,33,-34,-33,-17,-36,22
72632826563,-8,10,10,3,4,-12,14,3
72632834058,20,-7,5,-25,-27,-1,-16,-4
72632834058,-3,45,63,10,14,1,-12,22
72632843021,14,-32,-33,-25,-30,11,15,-21
72632843021,14,-7,-7,-18,-13,-6,-33,-6
72632856546,1,3,4,1,1,-9,4,-2
72632856546,-1,-9,-2,-19,-20,2,-13,-7
72632865557,-2,-37,-62,16,14,4,24,-45
72632865557,-30,49,59,23,42,9,-33,36
72632879755,-12,0,-11,20,16,8,42,-6
72632879755,25,2,6,-9,-7,1,-16,7
72632886539,7,5,10,8,6,0,7,0
72632886539,0,-17,-25,-1,-8,3,16,8
72632894027,1,42,71,-20,-19,8,-32,32
72632894027,-8,-12,-64,39,34,1,27,-15
72632903020,7,-2,4,-18,-13,2,1,0
72632903020,-10,-1,-4,10,7,3,15,-6
72632916548,-5,-8,-9,-9,-10,1,-5,-5
72632916548,6,-27,-24,-20,-21,3,-6,-22
72632925525,-11,7,44,-30,-31,-1,-36,19
72632925525,-18,16,6,20,33,-8,-23,-8
72632940136,21,-13,-3,-25,-25,0,-16,-5
72632940136,15,0,5,-2,-1,-2,-1,4
72632965029,-1,7,-8,32,31,9,10,7
72632965029,3,30,50,-24,-27,0,-4,-19
72632965823,10,-35,-55,6,-4,2,47,-40
72632965823,7,5,20,-30,-21,-2,-53,15
72632968983,-23,12,3,24,22,-2,21,2
72632968983,13,-12,-10,-7,-13,-3,10,-7
72632976502,-2,-42,-57,-28,-29,-4,-12,-40
72632976502,-21,33,58,-30,-29,-1,-51,31
72632985523,-5,9,-7,33,26,-3,42,-5
72632985523,25,-5,-4,-5,-7,-8,-3,0
72633007914,16,12,19,2,4,0,-10,5
72633007914,-5,-20,-21,-10,-16,-5,19,2
72633009504,9,50,62,41,55,-1,-8,13
72633009504,8,-44,-62,3,-8,3,55,-35
72633014044,19,8,28,-35,-33,-1,-63,17
72633014044,-3,-3,0,1,-2,1,17,-5
72633022977,-4,-7,-14,-1,-1,-3,-2,-4
72633022977,1,2,9,-10,-14,2,-4,0
72633036501,-8,-18,-40,13,15,-5,6,-30
72633036501,-8,-6,2,-51,-51,-8,-28,11
72633045539,0,15,27,-37,-36,4,-51,16
72633045539,-8,20,30,18,24,7,-23,21
72633060213,-18,33,26,42,44,2,15,23
72633060213,-3,7,7,16,16,-1,35,1
72633066487,-9,-2,-9,9,7,-5,24,-4
72633066487,21,-7,-9,-8,-11,0,0,-2
72633082230,31,-2,5,-10,-8,-5,-4,-2
72633082230,30,-12,-12,-4,-6,-1,0,-15
72633088999,24,-16,-18,-16,-17,-2,-13,-10
72633088999,-4,-6,-3,-14,-16,0,-16,22
72633096533,-9,29,42,-2,-3,2,-3,34
72633096533,0,30,49,34,39,2,13,5
72633105506,19,-22,-25,-39,-35,0,-25,-14
72633105506,1,3,1,10,8,1,9,0
72633120110,-25,0,6,-11,-11,1,-2,5
72633120110,-3,-4,-6,-7,-9,2,-5,5
72633128001,1,6,5,9,7,3,5,-9
72633128001,-2,-39,-48,-39,-45,-6,-6,-39
72633134045,-2,-2,15,-60,-60,0,-46,18
72633134045,-6,3,-18,38,34,1,17,-2
72633149006,-11,-1,-3,6,6,-6,4,5
72633149006,24,4,5,-6,-6,0,-5,8
72633156530,6,1,-3,14,16,3,10,-8
72633156530,-3,-17,-17,-17,-20,-3,-8,3
72633165540,5,14,39,-13,-17,1,-4,16
72633165540,0,-13,-42,37,36,-1,35,-25
72633180196,12,-17,-8,-44,-40,0,-22,-6
72633180196,14,5,4,3,13,2,-18,6
72633186522,-13,-10,-19,6,2,-4,8,-11
72633186522,5,3,17,-18,-17,0,-15,6
72633194015,-2,-32,-59,20,22,1,2,-45
72633194015,-15,14,42,-59,-61,-4,-59,26
72633217157,-1,10,-4,31,27,1,40,1
72633217157,15,4,15,-10,-11,-4,-9,2
72633217954,16,-5,-6,1,-3,2,10,-5
72633217954,1,-9,-16,-20,-22,-4,-6,10
72633225587,10,6,-8,53,56,0,19,-9
72633225587,-10,-20,-15,-45,-45,1,-14,-2
72633240213,13,11,15,16,16,-1,-2,5
72633240213,-12,-8,-7,-2,-1,-1,10,-17
72633254724,10,-5,-1,-17,-18,3,-14,-9
72633254724,-18,-42,-50,-32,-49,-7,-22,-21
72633255430,-11,21,18,23,16,-3,34,12
72633255430,4,-13,-19,8,5,-8,22,-19
72633269038,10,-21,-27,-15,-14,-6,-12,-11
72633269038,1,10,-21,56,59,2,26,-15
72633285448,2,-5,6,-35,-27,-3,-48,-1
72633285448,20,-5,-13,7,3,-4,9,-6
72633286952,7,-8,3,-5,-4,6,-10,-24
72633286952,-11,25,81,-57,-49,-1,-62,19
72633299785,-10,-6,-3,-5,-7,0,9,-1
72633299785,26,-5,-9,6,7,3,8,-15
72633306559,0,40,70,-19,-18,5,-24,31
72633306559,-8,-13,5,-40,-40,-5,-16,-6
72633314067,16,0,1,6,7,4,1,-2
72633314067,-3,2,28,-10,-10,-1,-13,-20
72633329092,-11,-11,5,-69,-69,-8,-52,12
72633329092,-1,12,11,13,14,-4,18,10
72633336573,19,1,4,-5,-6,0,-4,-4
72633336573,-3,38,64,-15,-13,6,-15,7
72633345551,2,-25,-14,-52,-53,1,-31,-7
72633345551,18,9,11,7,9,0,2,3
72633359751,-6,16,28,2,3,3,-3,3
72633359751,-10,-40,-64,-48,-68,-4,-19,-15
72633366495,9,17,-9,56,55,3,24,9
72633366495,-8,8,9,0,0,1,-7,7
72633382204,3,0,6,-8,-5,0,-10,0
72633382204,-4,39,52,17,25,6,-6,18
72633389062,1,-20,-3,-47,-48,-5,-15,-14
72633389062,20,6,8,-3,-3,2,-6,7
72633405354,-6,7,10,1,-2,-2,3,-3
72633405354,-2,-19,-25,-35,-37,-3,1,-9
72633406949,-5,-3,-8,4,2,-2,27,-3
72633406949,21,9,12,9,12,3,2,-1
72633419732,-7,1,2,-31,-32,0,-26,26
72633419732,-3,-35,-60,-9,-17,0,19,-32
72633426539,27,4,0,8,8,0,-6,1
72633426539,-10,1,4,-2,0,-1,2,7
72633442252,-3,-41,-63,-8,-10,-9,10,-36
72633442252,6,20,3,54,56,1,14,18
72633449010,10,-1,-7,6,5,-2,5,-2
72633449010,4,-5,-2,-15,-18,0,-11,-6
72633465398,1,14,3,47,62,1,26,-5
72633465398,8,-4,11,-19,-8,-3,-51,1
72633466979,-6,-5,-6,-5,-5,-13,-5,-2
72633466979,0,-8,-14,13,14,3,8,-26
72633479758,-11,22,64,-66,-66,2,-73,28
72633479758,-3,-4,3,-4,-1,6,13,0
72633486507,20,-2,-8,2,1,0,-2,-7
72633486507,-7,16,14,-13,-11,-1,-11,37
72633502187,-5,-40,-48,-22,-48,0,16,-27
72633502187,16,-4,3,-8,-7,-3,-11,1
72633509083,-14,9,9,7,6,8,-3,6
72633509083,-9,-39,-64,-41,-55,-6,-24,-23
72633525182,3,14,-5,43,49,-1,9,4
72633525182,-6,3,4,-2,-3,-4,-2,5
72633531525,1,-9,-17,4,9,7,0,-9
72633531525,-5,23,40,27,38,5,-2,1
72633539707,4,4,10,-13,-7,-5,-25,6
72633539707,-13,-2,0,-4,-4,7,1,-3
72633546433,2,-20,-37,18,22,0,15,-36
72633546433,-4,30,43,6,23,-1,-43,28
72633562209,-1,6,8,6,5,-7,11,0
72633562209,6,-7,-6,4,8,4,0,-11
72633569078,2,17,25,30,39,1,7,7
72633569078,6,-8,1,-36,-32,-8,-43,-3
72633585399,1,0,-1,5,9,1,-1,-1
72633585399,2,4,6,6,9,-3,4,-13
72633587000,-10,9,50,-76,-76,-3,-62,23
72633587000,-4,-2,-7,9,7,1,27,-8
72633599713,19,-1,0,4,6,1,2,-6
72633599713,0,39,65,-18,-16,-2,-16,22
72633606497,-5,-15,-7,-47,-49,-1,-11,-6
72633606497,14,-2,-2,4,4,1,10,-5
72633622233,-3,8,17,-11,-11,5,-7,9
72633622233,-8,-29,-24,-52,-65,-8,-35,1
72633628967,-16,2,-7,20,9,0,27,1
72633628967,20,-2,-3,1,-1,-4,10,-5
72633644438,-4,5,6,-21,-23,0,-17,23
72633644438,-3,-34,-55,3,-10,-3,33,-39
72633653032,25,1,-4,7,8,2,-3,2
72633653032,-3,5,7,0,-2,2,7,10
72633659712,-3,-45,-57,-19,-27,-2,7,-46
72633659712,-1,13,1,34,36,2,23,4
72633666523,8,-3,-7,3,3,-1,0,-2
72633666523,9,-8,-6,-10,-16,-4,-2,-9
72633682192,-5,26,36,-10,-9,-2,-9,31
72633682192,4,-33,-27,-29,-44,1,-7,-17
72633689124,8,-5,-13,-6,-9,1,-1,-2
72633689124,-3,8,7,7,3,1,5,4
72633721875,-9,13,56,-63,-63,-2,-53,18
72633721875,-3,3,6,-5,-1,-1,12,6
72633723348,19,3,5,0,-2,-4,-6,1
72633723348,-9,-2,-5,-22,-27,-6,-8,16
72633724141,8,-37,-41,-22,-41,-2,14,-33
72633724141,24,6,11,-3,0,0,-14,9
72633728117,-4,8,10,-6,-2,0,-5,10
72633728117,-8,-23,-15,-66,-67,-5,-32,0
72633742281,3,-3,-12,20,7,-2,30,-4
72633742281,31,7,13,-3,3,-3,-9,7
72633749091,-3,-11,-15,-11,-18,6,-3,5
72633749091,1,-5,-44,55,55,6,47,-23
72633765508,16,-3,-1,-10,-1,1,-41,0
72633765508,-7,6,10,-7,-6,2,-12,12
72633766980,-3,-11,-4,2,-1,-3,4,-26
72633766980,-5,21,46,-8,-1,1,-60,24
72633779104,-9,6,5,4,9,-2,-3,4
72633779104,9,-4,-9,2,3,2,2,-5
72633788092,-5,38,64,-15,-16,0,-13,35
72633788092,-6,-23,-6,-57,-61,-3,-8,-18
72633802320,6,2,0,10,11,-4,11,0
72633802320,-5,11,21,-4,-4,-3,-9,3
72633809119,-4,-38,-63,-45,-69,-5,-23,-21
72633809119,-6,1,4,14,-1,-5,32,-2
72633825411,24,0,-3,3,2,4,4,-3
72633825411,-4,-11,-9,-21,-18,2,-12,12
72633826955,-10,-24,-44,-16,-44,0,15,-27
72633826955,31,-2,-6,4,-1,2,3,-6
72633839140,-13,7,9,-2,-4,0,-1,8
72633839140,-4,-34,-58,-36,-45,-6,-12,-26
72633848126,-10,19,3,57,65,-2,26,12
72633848126,9,0,1,-5,-8,-3,-2,2
72633862341,-2,-6,-11,1,1,0,4,-8
72633862341,-5,31,58,4,6,2,-1,17
72633869123,3,-23,-7,-60,-54,-4,-26,-12
72633869123,2,-1,2,-7,-8,-1,-2,-3
72633885438,-5,5,-1,11,14,4,9,4
72633885438,4,-39,-59,-11,-14,-4,10,-41
72633887037,-5,22,46,-10,-6,-3,-52,27
72633887037,4,4,2,7,7,-2,1,-1
72633899149,6,-9,-5,-15,-16,-7,-6,-7
72633899149,-4,44,61,7,9,-1,-6,42
72633908096,2,-22,-11,-28,-34,-5,-7,-12
72633908096,3,-7,-12,-3,-4,1,6,-5
72633922256,0,6,0,11,9,0,8,4
72633922256,-2,-22,-10,-64,-66,-4,-37,2
72633929095,-11,-3,-9,26,15,-3,43,-6
72633929095,24,5,9,-3,-3,-1,-2,3
72633945420,-4,-12,-14,-10,-16,-2,2,0
72633945420,6,9,-8,77,75,5,62,-9
72633946993,29,5,4,-1,14,1,-16,4
72633946993,-19,-7,-9,-2,-6,0,1,-3
72633959148,2,-9,-7,5,8,1,1,-24
72633959148,-5,19,43,-38,-29,-4,-57,24
72633968086,-3,2,0,16,9,1,29,1
72633968086,8,-10,-17,-1,-5,1,5,-11
72633982296,2,0,-3,0,-1,-2,6,-1
72633982296,-1,-18,-47,43,42,-1,45,-24
72633989095,10,-2,-11,10,15,0,-14,-8
72633989095,-4,4,7,-5,-5,1,-4,7
72634005525,-6,-19,-14,-63,-64,-1,-28,0
72634005525,3,-4,-12,4,4,-2,-3,-4
72634007118,5,-3,-3,-3,3,1,3,-5
72634007118,-10,-13,-59,56,65,-4,38,-28
72634019095,22,11,10,13,15,3,-13,9
72634019095,4,-4,-4,-8,-12,-1,-4,2
72634028136,5,-38,-66,-18,-26,-5,1,-27
72634028136,-6,-3,3,-14,-18,-1,-9,-2
72634042293,-1,-2,-9,15,11,-1,18,-10
72634042293,0,-4,-44,35,51,-7,13,-16
72634049152,13,9,8,10,18,2,-5,7
72634049152,2,-11,-8,-4,-2,-3,-6,-17
72634064812,-12,15,2,8,20,-4,-20,13
72634064812,27,0,7,-6,-10,2,-6,-1
72634071592,2,1,-18,7,12,-5,7,11
72634071592,-5,-2,-53,43,49,4,24,-15
72634079133,20,5,6,8,9,2,3,4
72634079133,3,10,17,1,1,5,-6,-2
72634088080,-9,14,6,36,47,-4,12,7
72634088080,20,5,25,-23,-27,0,-15,12
72634102374,-13,-22,-28,-39,-42,-3,-69,-35
72634102374,-3,-9,-17,-8,-11,0,-4,-5
72634109077,-5,-4,24,-66,-68,-8,-49,-1
72634109077,6,1,3,-3,-2,-3,-8,1
72634132851,4,-7,-17,12,10,0,21,-9
72634132851,4,-24,-36,5,-7,-7,35,-35
72634134488,15,4,2,5,8,-2,-2,-2
72634134488,1,5,16,-14,-15,-2,-7,-1
72634139045,-3,12,-1,14,31,1,10,9
72634139045,20,-2,5,-13,-15,-3,-14,1
72634147996,3,-8,-22,10,13,0,13,3
72634147996,-7,-41,-63,0,-5,-3,46,-39
72634162237,21,0,3,4,8,0,2,0
72634162237,-10,9,9,8,14,-15,-5,9
72634169033,8,6,1,10,12,-7,5,-10
72634169033,2,-45,-33,-71,-70,-11,-54,-23
72634184759,1,-50,-56,-27,-42,-2,-6,-55
72634184759,-11,-10,-13,-7,-11,35,2,-5
72634191519,27,-21,-44,-45,-49,-17,-46,-17
72634191519,0,53,72,52,51,14,46,28
72634199016,26,-14,-19,7,3,4,25,-14
72634199016,-43,47,42,40,39,4,6,47
72634207991,12,-25,-1,15,11,22,20,-45
72634207991,-4,6,-21,-32,-26,6,-50,18
72634222214,24,-31,-29,-6,-36,-6,-17,-28
72634222214,24,-26,-22,-33,-37,-2,-30,1
72634229024,-74,52,49,42,42,0,27,57
72634229024,-2,-40,-3,6,1,-1,4,-52
72634244751,38,-20,-13,-22,-21,-4,-20,-22
72634244751,24,-15,-22,-26,-30,-7,-14,7
72634251531,-36,16,11,32,29,2,40,13
72634251531,-4,-17,6,4,5,-15,-7,-19
72634267910,3,-13,-21,-22,-22,5,-15,0
72634267910,2,40,42,33,46,2,16,34
72634269504,-5,24,27,19,26,8,10,19
72634269504,-3,-20,-16,-9,-10,-23,6,-30
72634282249,1,-7,-17,-24,-22,-6,-13,0
72634282249,6,32,35,40,37,7,43,17
72634289046,26,-8,-6,1,-9,-4,9,-6
72634289046,-16,-45,-50,-53,-55,-9,-59,-6
72634304727,-22,6,13,14,18,-7,19,5
72634304727,54,-53,-70,-45,-70,-14,-17,-46
72634351780,13,-12,-11,-6,-8,14,-5,11
72634351780,-48,29,34,26,37,5,18,25
72634352561,-13,-41,-31,-32,-32,7,-10,-39
72634352561,3,-11,-10,-20,-15,-2,-26,-3
72634354127,12,37,46,38,46,-1,30,34
72634354127,35,-16,-25,-17,-23,-2,-8,-5
72634357963,-30,-17,-14,-20,-17,-11,-32,-5
72634357963,-19,3,19,18,19,-2,26,-10
72634359546,63,-62,-32,1,0,-8,18,-79
72634359546,-1,14,-6,-8,-7,-6,-9,18
72634364785,-59,69,87,64,89,5,47,48
72634364785,20,-25,-16,-12,-12,17,-3,-55
72634371646,1,-16,-45,-56,-51,-7,-73,10
72634371646,-8,81,74,56,76,20,38,70
72634387960,60,-33,-27,-21,-26,-9,-11,-25
72634387960,-39,-1,-60,-68,-60,-23,-75,40
72634389541,-15,23,19,19,14,6,24,10
72634389541,51,-60,-71,-65,-73,-5,-63,-42
72634402268,-17,61,40,23,32,12,-3,71
72634402268,47,-5,8,5,10,2,29,-17
72634409126,-25,-13,-64,-65,-66,-1,-63,11
72634409126,-6,-4,-3,5,-1,5,16,-11
72634424784,14,-42,-49,-44,-47,-9,-42,-28
72634424784,-14,54,62,44,42,11,8,56
72634431587,54,-26,-15,-18,-18,-10,-12,-30
72634431587,-44,18,0,-33,-29,-4,-71,49
72634447893,-10,21,24,34,27,10,42,-26
72634447893,5,-35,-56,-53,-52,-6,-48,-23
72634449585,-3,42,63,59,61,13,58,-5
72634449585,16,-13,-15,-7,-12,-8,-2,-20
72634462248,-24,33,48,50,46,0,55,16
72634462248,2,-71,-56,-49,-51,-20,-27,-78
72634469040,-38,10,5,-1,1,-1,-2,13
72634469040,37,-46,-40,-37,-39,-9,-26,-42
72634493433,-11,48,49,43,46,13,30,35
72634493433,20,-3,16,24,25,0,20,-19
72634495041,-55,29,30,36,34,2,15,27
72634495041,10,-42,-61,-35,-59,-15,-18,-59
72634507973,-13,-11,-21,-22,-26,-2,-22,11
72634507973,4,-5,-23,-35,-37,0,-40,11
72634509537,28,-7,37,35,36,8,38,-28
72634509537,-19,5,12,16,17,0,17,17
72634521685,51,-13,-17,-15,-18,0,-1,-13
72634521685,-46,43,63,35,57,2,11,38
72634530526,11,-36,-23,-10,-14,-4,-2,-51
72634530526,-38,20,26,19,24,4,13,20
72634544876,33,-67,-65,-56,-60,-18,-47,-37
72634544876,0,56,56,59,55,17,64,20
72634551594,10,-29,-36,-40,-40,-19,-39,5
72634551594,40,19,19,17,18,4,29,15
72634567939,-38,24,36,-6,2,-2,-37,42
72634567939,6,-39,-44,-2,-16,-4,12,-65
72634569566,-17,2,-16,-24,-24,-1,-24,16
72634569566,28,-31,-32,-32,-34,0,-32,-22
72634581622,3,13,38,56,55,10,64,-21
72634581622,12,-36,-24,-19,-21,-13,-13,10
72634590603,41,-3,-4,-3,-3,0,-4,-1
72634590603,-24,17,32,39,42,3,39,5
72634605612,7,-61,-65,-53,-56,-19,-45,-29
72634605612,-5,-14,16,7,7,1,-4,-18
72634628618,4,-9,-13,-10,-11,1,-2,-14
72634628618,-30,14,29,-2,1,7,-23,19
72634630168,51,-39,-53,10,3,5,33,-56
72634630168,3,34,33,14,12,8,20,34
72634631029,13,-11,-19,-29,-29,-9,-28,8
72634631029,1,16,27,39,39,-4,50,-17
72634643089,-22,-36,-36,-35,-37,-24,-35,3
72634643089,11,-12,-4,-15,-13,7,-24,-27
72634649141,-30,-1,1,13,13,-1,24,-19
72634649141,40,-39,-54,-56,-55,-9,-30,-22
72634665540,2,28,28,-11,-5,0,-24,46
72634665540,33,7,9,18,19,-10,47,-4
72634671671,-16,-71,-82,-94,-93,-32,-95,-5
72634671671,-25,5,3,18,17,9,13,-11
72634687294,-11,68,62,53,52,24,58,50
72634687294,38,-20,-23,-20,-20,-1,-21,-12
72634688076,-17,-29,-22,-14,-14,-10,-14,-26
72634688076,-10,-50,-61,-77,-75,-13,-83,-2
72634709790,-5,51,45,49,48,14,50,48
72634709790,-43,67,61,60,60,12,52,47
72634710547,-32,-3,2,-15,-13,5,-22,-3
72634710547,-18,66,65,69,70,25,57,44
72634725665,-18,43,39,31,31,7,30,12
72634725665,-14,17,21,27,26,21,27,-47
72634731633,34,70,70,67,67,45,69,16
72634731633,-52,37,44,45,45,1,48,37
72634747290,-48,-30,-24,-20,-20,-3,-22,-7
72634747290,18,-23,-25,-27,-26,-41,-31,22
72634748052,4,-35,-63,-59,-62,-14,-37,-55
72634748052,49,50,43,44,42,28,49,-7
72634769791,-12,47,43,45,44,8,53,16
72634769791,-68,-23,-2,-18,-11,6,-39,24
72634770554,-14,1,5,-2,1,-1,-6,66
72634770554,-29,-60,-52,-52,-48,-30,-50,-20
72634792200,66,-24,-63,-62,-67,-13,-63,-60
72634792200,6,36,29,28,28,4,31,25
72634792993,-42,13,38,23,41,25,20,11
72634792993,3,-5,-6,-6,-5,-4,-6,37
72634807236,-46,-72,-61,-65,-59,-52,-65,-7
72634807236,3,-64,-68,-68,-67,-25,-66,-30
72634808006,32,-2,-3,-2,-3,-23,-3,11
72634808006,1,-25,-56,-58,-54,-23,-58,-65
72634829754,41,50,55,48,51,41,47,14
72634829754,-51,-38,48,16,41,-3,27,37
72634830553,45,18,-23,-21,-24,11,-23,-44
72634830553,-47,-6,43,37,42,-10,38,46
72634845544,29,-49,-45,-46,-45,-16,-46,-47
72634845544,2,65,41,52,46,-2,46,28
72634851512,-61,-51,-49,-44,-45,-5,-50,6
72634851512,61,44,37,38,39,16,35,2
72634867173,-27,-34,-14,-24,-18,11,-15,-21
72634867173,2,27,15,26,20,-3,17,17
72634867989,-40,-27,-20,-16,-18,-17,-25,-5
72634867989,52,42,15,23,18,11,18,-7
72634889710,-64,-46,-24,-25,-24,-14,-20,9
72634889710,48,29,8,19,16,-5,11,-30
72634890472,-29,-12,-4,-5,-8,4,-2,17
72634890472,20,19,-24,-24,-23,-23,-25,22
72634905514,-25,-17,-25,-18,-20,11,-31,3
72634905514,19,10,-20,-2,-4,-19,-22,-24
72634911493,11,13,34,33,34,32,33,-7
72634911493,-37,-48,35,33,39,19,33,39
72634927187,-18,-15,-25,-21,-22,-14,-30,-22
72634927187,34,25,21,23,21,32,27,-9
72634927998,-49,-43,56,-9,0,-2,58,41
72634927998,-41,-46,-42,-41,-44,-7,-45,-9
72634949712,-3,29,27,11,14,-12,32,85
72634949712,-34,-38,-62,-100,-97,-20,8,55
72634950483,-7,1,5,-7,4,-36,-7,-3
72634950483,24,12,47,37,44,-3,50,46
72634989871,-46,-19,-28,-38,-38,-17,-40,56
72634989871,-67,-53,-61,-64,-62,18,-68,15
72634990737,-1,49,-20,-9,-11,7,-17,62
72634990737,-49,-25,-83,-84,-85,-40,-80,35
72635002915,20,7,0,24,15,-5,-7,-59
72635002915,-40,4,-18,-19,-4,-7,-22,-12
72635003738,23,15,-43,13,-34,-14,-40,-47
72635003738,7,-26,22,36,32,18,3,-72
72635009753,17,34,22,22,25,-15,25,-1
72635009753,-20,-5,-20,-16,-22,1,-31,-11
72635010548,18,5,-6,-2,4,4,-3,-23
72635010548,27,23,55,39,54,40,57,19
72635025524,-23,-14,-52,-26,-57,-31,-53,17
72635025524,-34,-47,-65,-40,-65,-37,-71,-12
72635031677,-9,-23,-48,-55,-53,-23,-35,41
72635031677,-40,-28,-86,-78,-89,-50,-83,-4
72635046551,44,-38,44,49,46,-5,44,18
72635046551,34,3,44,31,44,24,38,52
72635054092,11,-6,25,25,30,0,26,16
72635054092,-5,-34,-10,-13,-12,-23,-6,-5
72635069786,47,37,41,9,17,50,49,27
72635069786,17,26,43,43,46,11,34,13
72635070563,33,-3,16,26,17,-26,14,-14
72635070563,-5,-15,-6,-8,-9,27,-1,3
72635085565,6,15,17,19,14,13,18,56
72635085565,-32,-31,-33,-49,-56,-10,-37,-7
72635091602,-6,3,5,5,8,5,5,0
72635091602,16,34,-10,-10,-15,-2,-9,-15
72635106626,-11,-9,-7,-11,-5,-29,-6,-5
72635106626,20,-21,20,50,48,14,5,-54
72635114110,-5,4,-5,-1,-1,15,-6,-8
72635114110,-18,-35,-44,-27,-36,-12,-47,-32
72635129787,-5,-15,-4,-6,3,19,-3,-19
72635129787,-32,-20,-66,-68,-70,-24,-61,-44
72635130598,4,8,6,15,12,11,6,-6
72635130598,26,18,44,47,54,11,50,2
72635145646,-7,-3,-4,-8,-3,10,-4,-9
72635145646,-8,-15,-6,-5,-9,3,-2,-3
72635151600,-24,-19,-44,-18,-25,24,-60,-16
72635151600,-5,1,-6,-10,-11,-7,-9,8
72635166664,0,-14,-4,-1,1,9,-6,-11
72635166664,10,10,2,-2,-2,19,5,8
72635174047,-9,-23,-1,23,32,-15,14,-41
72635174047,-13,-60,-24,3,0,5,-8,-38
72635197300,-3,0,-6,8,4,-10,-3,-20
72635197300,-26,-3,-42,-38,-46,-18,-53,-44
72635198067,12,41,45,-9,2,-8,35,63
72635198067,-11,9,-8,-10,-11,15,-12,-8
72635205556,-3,8,2,-2,2,-6,4,-6
72635205556,2,30,0,7,2,-23,6,6
72635211613,-23,15,-11,-3,-3,18,-7,-21
72635211613,5,-2,-16,-7,-5,-33,-9,9
72635226649,-8,4,-10,-15,-10,1,-10,-2
72635226649,9,21,9,12,17,22,13,14
72635234195,51,49,0,55,56,20,51,4
72635234195,-12,2,-59,-54,-50,-17,-55,-60
72635249791,-10,-27,-19,-2,3,-18,-11,-31
72635249791,-7,-49,-7,-7,-8,11,-7,-10
72635250585,0,-10,0,-7,-5,-14,-5,-9
72635250585,-7,18,-3,-2,-7,7,-1,3
72635265591,0,1,-15,-3,-5,-31,-8,-13
72635265591,8,7,7,10,13,7,8,5
72635271600,20,21,48,34,41,19,43,50
72635271600,4,-9,20,17,18,-1,17,21
72635286639,-2,-26,3,-2,-7,2,-7,-2
72635286639,3,-32,-1,7,10,-14,6,2
72635294103,-14,8,-22,-19,-23,31,-26,-23
72635294103,0,32,8,3,1,-2,4,5
72635309825,3,18,1,5,5,43,5,1
72635309825,-1,41,-7,-2,-3,-11,-2,-2
72635310496,-4,3,-14,-14,-15,-28,-16,-17
72635310496,6,-22,11,9,10,-10,9,9
72635325530,-4,-8,-11,-13,-9,-24,-9,-7
72635325530,-16,-20,-43,-16,-27,46,-41,-41
72635331563,-23,-47,-36,-100,-82,-11,-52,-64
72635331563,3,-3,-4,-5,0,10,-10,-6
72635346508,-6,6,-12,-7,-13,-10,-14,-12
72635346508,5,-1,9,3,1,-2,13,10
72635354000,-1,-15,-10,5,4,-44,-4,-7
72635354000,-34,0,-56,-53,-78,10,-58,-64
72635369716,8,14,7,-2,-2,12,4,5
72635369716,0,-18,0,0,3,-24,-3,-2
72635370468,-1,-18,0,7,-5,1,-4,3
72635370468,12,-9,18,11,16,20,17,19
72635385518,0,8,-1,11,2,-13,-1,1
72635385518,4,8,6,5,2,-1,8,6
72635391496,-4,9,-9,-1,-2,0,-10,-6
72635391496,7,35,11,15,12,9,15,14
72635406546,-20,-15,-40,-4,-3,15,-12,-24
72635406546,1,2,8,-44,-52,10,-12,-19
72635414074,18,-5,7,11,-1,-57,6,8
72635414074,4,-5,7,5,4,-11,4,3
72635429716,2,1,4,-6,-10,-22,-4,-1
72635429716,16,-5,25,-1,7,-23,6,14
72635430495,2,-14,0,8,-3,7,-2,0
72635430495,5,1,6,13,6,25,8,7
72635445556,1,13,0,-7,-1,-1,-4,-4
72635445556,-12,1,-3,-20,-36,-8,-20,-14
72635451536,-3,1,0,-2,-3,5,-4,-6
72635451536,10,-3,13,9,11,-1,6,5
72635466579,5,2,9,3,-4,6,7,8
72635466579,0,35,-6,10,11,9,2,-1
72635474050,-8,-5,-8,-6,-9,-20,-9,-7
72635474050,13,-3,25,-7,-4,-13,-3,13
72635489820,-7,-19,-2,-30,-23,3,-20,-31
72635489820,6,-17,-6,27,28,0,1,-1
72635490506,14,-17,1,3,28,16,2,1
72635490506,1,-4,-6,1,0,-1,3,-1
72635505551,2,-9,0,8,3,10,-1,-3
72635505551,-1,-14,-4,11,14,-5,8,5
72635511529,0,10,4,-8,-12,23,-1,2
72635511529,-4,12,-4,-3,-3,-1,-5,-8
72635526549,0,19,-4,-1,1,2,-2,1
72635526549,-47,0,-96,-41,-2,-20,-51,-73
72635534049,-5,-9,-11,-3,28,5,-9,-9
72635534049,-3,-14,-8,-1,3,-8,-2,-5
72635549822,-1,-14,0,3,7,-7,2,3
72635549822,6,-11,10,3,3,-1,10,11
72635550637,-2,-1,-20,-24,-29,-3,-6,-6
72635550637,-2,5,-6,3,8,-4,2,-1
72635565632,4,10,1,-7,-3,1,-1,1
72635565632,9,4,17,11,1,1,8,12
72635571642,-2,-6,-4,15,-15,-4,-7,-6
72635571642,3,5,6,0,-4,-3,5,6
72635586584,1,-15,-2,2,-2,2,0,0
72635586584,8,4,14,12,11,3,17,17
72635594105,-28,24,-34,-7,-1,0,-26,-27
72635594105,-8,3,-14,-8,-4,3,-8,-11
72635609796,0,-9,-3,2,2,-6,-5,-4
72635609796,7,-1,11,4,0,6,8,11
72635610534,7,-11,9,-42,-56,4,-5,6
72635610534,-1,-13,-8,-8,-6,3,-5,-5
72635624088,-2,7,-7,-9,-4,-2,-2,-1
72635624088,-28,-8,-22,-2,-3,-4,-21,-21
72635631530,-1,1,5,11,12,2,10,6
72635631530,-2,9,-8,-5,-1,-16,-2,-3
72635646568,1,17,5,-2,-7,14,-1,0
72635646568,-24,3,-52,-58,-73,-3,-46,-46
72635654093,5,-1,16,16,1,16,14,3
72635654093,0,6,-4,-3,-5,33,-4,-3
72635669801,5,7,2,9,11,-22,9,6
72635669801,12,-5,15,5,5,-14,14,16
72635670590,-25,-14,-46,-27,-4,2,-31,-31
72635670590,-37,-8,-38,-63,-62,-20,-47,-51
72635685648,-26,-11,-21,-57,-77,-15,-31,-21
72635685648,-33,5,-60,-7,-3,11,-40,-37
72635691582,7,4,9,11,3,-3,-6,3
72635691582,21,1,11,30,19,0,41,43
72635706642,29,-3,40,55,29,8,53,39
72635706642,34,-35,62,69,56,-16,79,56
72635714137,13,-21,13,16,26,-8,17,11
72635714137,-5,0,-3,-4,22,-2,-6,-9
72635729832,0,5,-11,1,8,9,-3,-3
72635729832,15,14,22,1,5,-1,10,16
72635730595,-2,9,0,-10,-4,-2,0,-6
72635730595,50,6,64,60,53,12,62,61
72635752287,2,10,-1,1,13,0,-2,-3
72635752287,9,3,12,-6,1,1,4,5
72635753130,-2,-22,-1,-10,-12,-19,-2,-2
72635753130,-7,9,-11,-5,-6,-7,-11,-13
72635766618,-4,1,-6,-2,7,6,-5,-6
72635766618,7,20,8,-8,-7,1,3,6
72635774147,8,15,10,14,6,11,14,13
72635774147,-4,-5,-4,0,-2,3,-7,-7
72635789781,-4,3,-9,-12,-1,0,-10,-12
72635789781,5,-1,3,-10,-7,1,-1,1
72635790560,4,9,8,7,5,-3,8,7
72635790560,-5,-7,-7,-6,-4,1,-8,-10
72635813725,-4,4,-8,-11,-5,-1,-9,-9
72635813725,5,3,5,0,1,0,3,5
72635814552,1,16,4,5,3,6,5,4
72635814552,-3,-10,-5,-5,-6,-1,-6,-6
72635826609,1,-3,-1,2,3,0,1,1
72635826609,4,2,6,1,2,-5,3,5
72635834115,0,4,1,-2,0,-4,1,-1
72635834115,-3,1,-5,-6,-5,-3,-6,-6
72635849745,0,10,0,0,3,-16,-1,-1
72635849745,2,1,3,-1,0,0,1,1
72635850544,0,24,0,-2,-3,-3,0,-1
72635850544,-1,-33,-3,-1,-1,7,-2,-3
72635864027,-18,-23,-45,-10,-2,-9,-41,-28
72635864027,-3,-6,-1,0,-16,-6,-11,-12
72635871525,-1,-8,-1,7,0,13,-1,-1
72635871525,2,31,1,4,-1,-13,-2,-1
72635886523,3,0,5,-6,3,9,6,4
72635886523,0,-6,-1,1,1,13,0,1
72635894056,-32,-24,-57,-52,-40,-20,-54,-44
72635894056,-6,-16,-8,-11,-6,-5,-8,-9
72635909737,-2,6,1,-1,-7,0,-1,-3
72635909737,5,6,2,4,2,-9,3,4
72635910494,-2,-21,1,-26,-19,-4,-1,3
72635910494,-4,14,-7,-1,-3,-7,-4,-4
72635925553,1,3,0,-2,-3,-7,0,-1
72635925553,-11,6,-11,-20,0,-2,-1,-9
72635931516,7,-7,7,10,14,-7,10,6
72635931516,-5,-3,-8,-3,-3,-12,-5,-6
72635946578,7,-3,8,6,4,0,7,6
72635946578,7,-8,3,9,2,-11,2,-2
72635954062,0,3,3,13,6,-4,6,2
72635954062,-1,-15,-4,1,1,4,-2,-3
72635969052,8,-4,9,4,-11,6,5,3
72635969052,-2,18,-7,-6,-4,-4,-7,-3
72635976549,-20,13,-43,-4,5,-10,-18,-24
72635976549,6,5,6,2,-1,-1,0,3
72635993783,-7,-4,-13,-7,0,1,-6,-8
72635993783,5,-26,-19,-13,-11,4,-16,-14
72635994549,7,-3,10,12,5,-2,9,7
72635994549,-15,-1,-16,25,12,5,12,-6
72636006685,-2,-1,-1,6,10,-1,4,2
72636006685,-1,10,3,-4,-7,5,-2,0
72636014193,13,3,18,11,-5,3,10,8
72636014193,-3,-3,-11,-7,-3,-7,-9,-7
72636029208,-18,-1,-45,-33,-23,-9,-36,-40
72636029208,3,-2,8,2,-2,0,2,4
72636036655,-2,5,-5,-1,2,12,-1,-3
72636036655,1,1,9,-52,-36,-10,-16,-2
72636045606,2,1,5,4,4,0,5,5
72636045606,-6,-2,-8,-6,-1,-5,-4,-3
72636051618,-5,-1,-5,10,20,1,10,6
72636051618,0,1,-7,-5,-5,4,-9,-8
72636066615,7,1,19,-4,-1,5,-1,5
72636066615,1,8,1,5,4,1,5,4
72636074114,5,2,12,4,-4,-3,2,4
72636074114,-4,0,3,2,2,7,-3,7
72636089113,-2,-2,-7,-2,-1,-9,-1,-2
72636089113,-6,-6,-12,-1,2,-3,-7,-6
72636097397,-9,-2,-9,-5,-4,-8,4,-3
72636097397,10,8,-6,5,4,1,1,-3
72636112279,1,15,-2,-2,0,-1,0,0
72636112279,-17,-12,-44,10,21,-2,-14,-23
72636113170,-1,0,1,2,1,0,1,-1
72636113170,-3,-7,-8,2,5,-8,-1,-4
72636126680,12,-1,26,5,4,-3,12,18
72636126680,8,-6,8,3,-2,-2,4,5
72636134185,3,0,-1,-8,-5,1,-7,-3
72636134185,-3,-10,-9,-2,2,2,-5,-7
72636149193,-3,-6,-6,-2,15,3,-3,-3
72636149193,-3,15,1,-11,-6,0,-3,-1
72636156678,1,9,-2,-5,-3,-4,-5,-4
72636156678,0,11,4,0,-3,3,2,3
72636172293,-13,-2,-24,-66,-22,2,-38,-36
72636172293,5,-9,-2,-14,-9,-4,-6,-4
72636173037,6,-12,6,-3,-1,4,0,2
72636173037,2,-9,0,6,6,7,3,1
72636186577,1,-7,-29,-37,-42,-12,-20,-12
72636186577,-4,-6,-6,-15,-8,2,-9,-6
72636194235,0,2,-5,-15,-12,0,-10,-6
72636194235,-7,16,-6,2,5,-6,0,-3
72636209130,5,-10,2,3,14,-7,-1,-5
72636209130,-1,9,2,-9,-6,2,-4,-1
72636216630,4,5,2,4,1,-4,3,3
72636216630,-3,3,-13,-49,-48,-11,-36,-34
72636232296,-2,1,0,17,7,7,6,3
72636232296,1,13,2,-1,-2,1,-1,0
72636233085,-12,6,-52,-58,0,-17,-26,-33
72636233085,-4,15,-9,-2,5,-9,-4,-4
72636246676,-4,0,-5,7,2,-2,1,-1
72636246676,-17,8,-26,12,27,-7,2,2
72636254110,-5,5,0,4,-5,1,-4,-2
72636254110,-3,-26,-6,-1,5,6,0,0
72636269141,22,-10,18,13,7,0,21,22
72636269141,1,14,1,-8,-8,2,-4,-3
72636277312,2,8,5,4,-1,13,1,4
72636277312,25,-7,9,1,4,-6,6,2
72636292241,-6,-14,-17,-18,-5,0,-7,-11
72636292241,4,-19,-3,-12,-6,6,-5,-3
72636293035,-3,-13,-4,-2,-4,2,-4,0
72636293035,-1,12,11,14,8,-4,9,6
72636306621,-12,24,-45,-67,-47,-5,-37,-30
72636306621,1,8,-6,-14,-8,-6,-7,-5
72636314094,0,-5,-4,-5,-5,-4,-4,-4
72636314094,-4,-1,-7,-6,-2,8,-2,0
72636329120,20,4,5,6,12,20,20,19
72636329120,-42,-10,-48,-12,-6,-4,-22,-28
72636337266,-3,-8,-2,2,-3,7,-4,-4
72636337266,-9,-7,-17,-5,0,3,-6,-6
72636352292,29,-6,37,19,8,4,29,27
72636352292,9,-7,12,2,1,2,4,4
72636353021,-3,-8,-9,-3,0,3,-6,-6
72636353021,-7,6,-16,-16,-8,-5,-12,-11
72636366628,-11,9,-39,-9,-1,-3,-33,-31
72636366628,4,22,6,-2,-5,7,19,3
72636374140,-4,19,-9,-5,-3,-3,-8,-8
72636374140,-40,6,-40,-18,-7,-9,-38,-40
72636389086,-15,10,-8,7,2,2,-6,-9
72636389086,5,-7,3,-1,3,-3,-3,0
72636397321,-32,-1,-44,-37,-26,-10,-48,-56
72636397321,1,-10,-2,-4,-1,5,1,1
72636412311,-14,-7,-2,20,17,-1,0,-4
72636412311,-25,-9,-36,-27,-7,-8,-40,-36
72636413045,7,-2,11,8,5,5,14,15
72636413045,1,-4,-3,-1,0,2,-3,-1
72636426559,-30,0,-15,11,7,-6,-4,-11
72636426559,10,-1,14,8,8,-5,10,13
72636434105,2,3,-3,-5,-4,2,0,1
72636434105,1,5,-4,-2,0,-2,3,2
72636449086,-23,-1,-8,14,10,-2,-17,-22
72636449086,2,-12,-1,-5,-5,-1,-2,-1
72636457313,0,-11,-2,0,2,0,0,1
72636457313,5,-6,2,-1,0,6,-3,-1
72636472248,-9,-10,-10,-24,-31,-4,-9,-9
72636472248,1,-27,-4,-6,-5,1,-6,-4
72636473009,0,-5,-3,-4,-3,-3,-4,-3
72636473009,2,21,5,3,1,-5,10,10
72636486583,4,9,0,1,4,2,2,3
72636486583,2,8,-2,-4,-4,2,-2,-2
72636494080,-21,6,10,6,4,0,9,8
72636494080,-9,-12,-15,-13,-6,11,-12,-12
72636509095,-3,-9,-5,0,2,8,-4,-3
72636509095,-1,10,-4,-108,-13,-9,-10,-8
72636517309,12,-4,13,11,16,-1,15,15
72636517309,-3,-14,-6,-9,8,-4,-6,-6
72636532259,-1,-3,-2,-1,1,-4,-3,-2
72636532259,6,19,8,15,-2,10,10,11
72636533017,-2,4,-11,-14,-2,1,-12,-12
72636533017,-2,-15,-13,-43,-40,-1,-14,-4
72636546605,14,-1,20,20,1,6,30,36
72636546605,-9,-8,-40,-16,-19,-11,-43,-11
72636554043,5,-18,-12,-10,-10,-11,-11,-8
72636554043,-4,9,-7,6,2,-1,-8,-6
72636569128,-6,-1,-4,-4,4,-8,-7,-10
72636569128,7,-14,9,22,1,-2,10,8
72636577348,0,13,-7,-9,10,7,-7,-4
72636577348,-3,1,-24,-27,23,-3,-4,-4
72636592271,7,-10,1,0,13,-5,4,9
72636592271,-2,-14,-6,10,9,9,2,-5
72636593046,3,3,-5,-10,-16,-3,-5,-4
72636593046,-3,8,2,10,2,-12,-3,-7
72636606642,0,1,-12,-11,3,-4,-7,-6
72636606642,-2,2,0,6,-1,-1,-2,-4
72636614110,-1,-7,5,8,5,0,1,1
72636614110,8,6,6,8,4,9,10,10
72636629090,-2,2,-6,-11,-6,6,-7,-7
72636629090,2,6,6,5,2,0,4,1
72636637258,2,-20,1,-3,1,-5,4,3
72636637258,-23,-9,2,3,2,-2,-2,-12
72636652259,-11,-3,-4,-7,-5,-7,-6,-6
72636652259,-2,-19,-21,-38,-9,0,-5,-7
72636653048,-4,0,-18,-40,-18,-9,-28,-28
72636653048,-8,17,-7,15,30,-6,-5,-3
72636666592,-3,37,7,11,3,-1,-5,-7
72636666592,0,-16,6,15,11,0,8,5
72636674105,3,-13,-4,-6,-2,3,1,4
72636674105,6,1,2,-8,-10,2,-2,0
72636689036,0,0,-5,-8,4,-2,2,2
72636689036,-1,8,1,8,5,16,-2,-2
72636697022,-2,1,0,2,1,2,1,1
72636697022,2,-5,3,2,-2,6,-1,-1
72636712237,0,-8,-5,-4,4,-2,-2,-1
72636712237,-2,-1,3,2,-2,-8,-2,-3
72636713025,-3,-4,6,11,7,6,3,1
72636713025,5,4,0,-3,-3,-2,3,4
72636726589,3,-1,-4,-8,-4,0,-4,-2
72636726589,-2,5,3,5,2,-7,0,-1
72636734054,-1,23,-1,1,5,1,5,4
72636734054,3,5,-1,-3,-3,-6,-1,0
72636757992,0,-9,-2,-3,-2,2,-3,-2
72636757992,-2,-15,3,7,4,-3,0,-2
72636758732,-1,-18,-1,2,4,2,2,2
72636758732,2,10,0,-4,-5,3,-1,-1
72636772250,-1,-4,2,2,2,-2,-1,-2
72636772250,0,-4,1,3,2,-6,2,1
72636773001,1,-4,-1,-1,0,3,0,1
72636773001,1,-12,0,-2,-2,1,0,0
72636786615,0,-19,-1,-2,1,1,1,0
72636786615,0,12,0,2,1,-4,0,0
72636794098,0,14,0,0,0,-6,0,0
72636794098,1,8,1,1,0,1,0,0
72636809063,0,2,-1,-1,1,2,0,0
72636809063,0,4,1,0,0,13,0,-1
72636817323,-1,5,1,2,2,5,1,0
72636817323,1,-2,0,-1,-1,0,1,1
72636832273,-15,6,-1,-2,-1,1,-5,-14
72636832273,3,7,-8,-19,0,0,-6,3
72636833041,3,-1,-3,-7,-9,-7,1,0
72636833041,-1,-8,-2,-6,-5,-10,-2,-3
72636846620,-1,-5,-5,-5,-5,-9,-7,-3
72636846620,-2,-3,5,10,10,2,2,-2
72636854117,-1,-7,0,0,2,3,0,-1
72636854117,-20,-21,-7,-4,-4,-6,-17,-22
72636869133,9,5,-8,-11,-31,-10,6,4
72636869133,-3,3,-3,-3,-9,-5,-3,-6
72636877276,-1,3,-2,-3,-3,-4,-3,-3
72636877276,2,-1,4,4,-1,6,4,3
72636891639,-10,-9,-23,-36,-32,4,-16,-13
72636891639,-3,3,-3,-2,-7,-4,-4,-6
72636899777,-2,0,-3,0,-2,4,-3,-1
72636899777,5,-4,-1,-7,1,10,3,4
72636906619,-15,3,-29,-21,7,-10,-33,-23
72636906619,2,1,-5,-3,-7,4,-3,1
72636914118,-4,4,-3,-3,1,-4,-4,-6
72636914118,-1,-2,-4,-6,-7,-4,-2,-4
72636929141,6,0,13,15,-2,-1,1,1
72636929141,-3,4,0,-1,-2,-1,-3,-5
72636937303,-1,-5,-1,-2,0,-7,-3,-4
72636937303,-3,-9,-22,-2,0,0,-29,-17
72636951618,6,0,8,7,8,2,8,8
72636951618,0,-4,0,-3,1,-4,-1,-2
72636959769,-22,6,-12,-2,-3,-7,-19,-23
72636959769,6,-3,-1,-9,1,-1,1,2
72636966639,2,-8,6,4,8,-6,7,3
72636966639,-2,-2,-1,0,-2,0,-1,-4
72636974154,2,-1,-15,-26,-19,0,1,-2
72636974154,0,9,-1,-8,-10,6,4,1
72636989107,-2,7,4,2,6,5,5,2
72636989107,0,6,6,10,6,0,2,3
72636997322,1,-4,-3,-3,-1,4,-5,-2
72636997322,3,-7,-26,-41,-31,-10,-19,-5
72637011620,6,-14,7,2,1,9,12,10
72637011620,-3,-7,-10,-11,-5,-2,-10,-8
72637019818,7,-4,-18,-15,8,-4,-17,-1
72637019818,1,-6,2,0,0,-1,5,1
72637026612,9,3,-3,-2,2,15,-7,4
72637026612,-3,8,3,2,-1,-4,2,-2
72637034108,1,-1,1,0,-2,1,2,0
72637034108,-23,1,-23,6,16,-2,-23,-24
72637049086,-5,-2,-7,-5,0,-3,-9,-8
72637049086,-2,-3,-10,-7,0,1,-8,-6
72637057295,-2,-4,-44,-54,-27,-9,-40,-26
72637057295,5,-4,5,-2,-7,4,6,7
72637071612,-13,-7,-5,-5,-3,-1,-4,-12
72637071612,-3,-1,-4,-3,3,-5,-5,-6
72637079807,-4,-2,9,10,7,2,5,2
72637079807,9,-1,3,-46,-31,-8,13,8
72637094749,2,-1,-1,-1,-1,0,2,2
72637094749,2,-6,-7,-14,-12,6,-4,0
72637095495,6,-1,-3,6,3,-1,-9,4
72637095495,1,4,-3,6,4,3,-5,0
72637109086,19,4,1,-2,-1,8,5,16
72637109086,1,0,4,-1,0,6,5,2
72637117320,1,4,6,4,-1,7,7,4
72637117320,1,-3,-21,-42,-38,-8,-19,-15
72637131573,-4,3,-5,-9,-6,-9,-7,-7
72637131573,-19,-6,-10,-6,-2,-5,-14,-18
72637139845,2,-2,1,4,3,2,3,2
72637139845,1,1,10,13,6,6,9,6
72637154807,11,1,-37,-34,-17,-8,-23,-4
72637154807,5,10,-7,-6,-2,-5,-4,3
72637155615,-2,-4,5,-2,-6,-3,7,2
72637155615,4,-6,-6,-4,10,-2,-6,-5
72637169090,-2,-3,-1,1,2,7,-2,-3
72637169090,2,-1,-9,-11,-5,-5,-6,-2
72637177320,-1,-7,-40,-100,-95,-18,-22,-31
72637177320,1,-5,0,3,-2,-1,0,1
72637191622,8,-3,-4,-9,-7,0,-3,1
72637191622,3,2,-7,-13,-10,-1,-4,-2
72637199801,-3,5,7,13,10,2,2,1
72637199801,-22,-7,-13,22,32,-2,-16,-17
72637214790,-2,3,2,-10,-5,0,3,-1
72637214790,-2,-2,-1,0,-3,1,-2,-1
72637215552,5,4,10,23,14,-1,5,9
72637215552,5,9,7,3,-1,6,8,8
72637229199,0,5,-1,16,24,4,-8,-10
72637229199,2,-1,-7,-7,-5,-1,-5,-4
72637237304,-17,-4,7,29,27,1,6,-10
72637237304,3,2,6,4,-1,1,4,5
72637251630,-12,0,5,1,-5,-8,5,-3
72637251630,5,-7,-3,-6,-8,6,-4,1
72637259801,2,-9,-2,-4,1,-5,-2,3
72637259801,4,3,19,-9,-28,-6,14,7
72637274771,-4,-7,3,2,-4,-2,1,-3
72637274771,-2,-26,-5,-6,-1,-1,-4,-3
72637275547,-27,-33,-22,-7,6,-5,-28,-38
72637275547,-2,-4,-5,1,1,-1,-5,-5
72637289121,-3,35,-5,-11,-8,2,-7,-6
72637289121,19,74,24,46,56,3,24,22
72637296605,-11,35,2,7,6,1,3,-1
72637296605,2,5,-5,-2,0,12,-3,-1
72637311557,-2,-4,5,-5,-7,-6,4,0
72637311557,-10,-17,-12,-17,-15,4,-11,-12
72637319765,-25,9,-29,-12,-10,0,-26,-20
72637319765,2,15,3,1,3,-4,3,3
72637334790,-28,-7,-27,6,17,-4,-19,-25
72637334790,-9,14,-12,-5,-4,-11,-11,-11
72637335575,16,5,11,28,39,2,18,14
72637335575,-2,-12,-7,-4,-3,-2,-5,-3
72637349082,0,-7,11,7,-3,-2,7,-1
72637349082,0,-14,7,-4,-9,-1,5,-1
72637356614,5,-11,9,-1,-8,5,7,7
72637356614,-36,-8,-45,-32,-22,-16,-39,-35
72637371571,2,-3,4,8,9,7,5,4
72637371571,-15,-12,-15,-51,-58,-9,-29,-27
72637379789,8,-6,6,-5,-11,-1,2,8
72637379789,3,2,0,5,2,3,-1,-3
72637394729,-23,-7,-29,-8,-4,-6,-18,-20
72637394729,-4,-11,-5,4,6,-2,0,-1
72637395572,-24,1,-57,-25,-19,-10,-43,-35
72637395572,4,-7,9,10,7,0,10,6
72637409095,9,-3,-3,-11,-3,-5,-5,4
72637409095,-16,-5,-19,4,7,3,-10,-13
72637417337,9,-1,14,8,5,2,11,11
72637417337,-23,-3,-48,-17,-10,-6,-29,-28
72637431554,4,-6,4,1,-3,-3,4,5
72637431554,-4,4,-9,-1,1,-5,-6,-5
72637439810,-22,-4,-21,-20,-17,-5,-20,-20
72637439810,3,-9,9,5,3,-2,6,6
72637454800,-6,-2,-52,-40,-35,-12,-58,-31
72637454800,1,4,-1,1,2,1,0,0
72637455580,5,7,11,2,-3,-2,7,6
72637455580,21,-2,5,-26,-22,-4,-11,5
72637469098,4,0,16,13,9,4,17,10
72637469098,3,0,-1,-48,-54,5,-17,-14
72637477347,8,-12,8,2,-1,0,6,8
72637477347,-2,8,6,9,7,2,6,3
72637491668,6,9,-16,-31,-30,-4,-32,-11
72637491668,1,-14,-2,13,16,-2,3,4
72637499803,5,7,-1,-52,-40,-3,-23,-6
72637499803,1,1,3,2,2,-4,2,2
72637514809,-1,7,14,7,5,5,15,8
72637514809,26,-2,38,-7,-23,4,20,21
72637515552,8,2,8,17,13,5,11,10
72637515552,-5,-3,18,-22,-30,1,2,-2
72637529097,2,5,12,7,5,-15,13,7
72637529097,-4,7,-4,9,13,1,0,0
72637537332,10,3,-2,45,43,9,25,19
72637537332,-31,0,-50,-9,-7,-11,-27,-29
72637551662,0,-8,13,19,16,2,18,9
72637551662,-4,-1,7,8,7,-6,12,4
72637559811,-9,-7,-1,43,38,12,30,7
72637559811,5,8,11,27,26,-10,17,12
72637574775,-4,-10,-4,-1,-1,1,-1,-3
72637574775,-12,-7,-45,-33,-21,-11,-43,-33
72637575550,5,4,10,-7,-10,9,-1,2
72637575550,4,-6,0,6,7,1,3,3
72637589110,1,-5,18,15,15,2,22,16
72637589110,3,-3,18,54,52,11,42,23
72637597249,-1,8,2,2,1,-8,1,1
72637597249,6,-2,9,1,0,4,4,4
72637611615,15,-5,3,3,10,7,2,10
72637611615,-38,-2,-55,-20,-17,-3,-37,-35
72637619799,2,2,1,-11,-11,-7,-9,-3
72637619799,0,-9,23,25,28,7,31,19
72637642966,12,-5,44,28,25,17,34,32
72637642966,8,3,14,9,12,-2,10,11
72637643765,4,-5,-4,-17,-18,-12,-13,-8
72637643765,53,0,61,53,53,10,53,59
72637657943,2,-2,5,9,7,10,9,3
72637657943,10,-3,7,10,12,-2,8,10
72637658747,-15,0,-20,-51,-54,-12,-48,-22
72637658747,5,5,-5,-5,-5,4,-9,-5
72637671616,-4,1,-8,-3,-4,1,-5,-7
72637671616,16,3,4,4,3,-1,4,11
72637687359,-28,-4,-47,-29,-28,-9,-31,-33
72637687359,-8,-8,-10,-11,-10,-2,-11,-11
72637694793,2,-15,-3,-1,-2,3,-2,1
72637694793,-32,7,-62,-46,-47,-13,-54,-43
72637695572,9,-8,18,17,19,2,20,15
72637695572,-8,33,-13,-15,-17,-1,-17,-11
72637709147,10,25,-22,4,2,-8,0,-2
72637709147,-26,24,-35,-27,-26,-12,-28,-28
72637717286,8,-2,7,10,9,2,8,7
72637717286,-2,-10,-9,4,3,4,2,0
72637731704,-33,-8,-75,-48,-42,-15,-48,-46
72637731704,9,-12,16,12,13,1,13,11
72637739800,5,-9,5,7,8,-9,8,7
72637739800,4,-15,-29,12,20,-5,5,1
72637754879,-34,-5,-46,-33,-24,-15,-31,-34
72637754879,8,-4,10,8,9,6,8,9
72637755653,3,10,2,10,10,0,10,7
72637755653,-35,2,-74,-32,-28,-8,-44,-43
72637769148,3,-7,5,4,2,0,1,2
72637769148,2,-4,7,7,8,2,9,6
72637777395,9,1,-21,14,10,4,1,0
72637777395,-37,-5,-51,-47,-49,-16,-46,-45
72637791675,1,0,4,1,-1,-2,0,1
72637791675,8,-10,1,7,10,-3,7,7
72637799863,-21,32,-21,-63,-61,-6,-47,-36
72637799863,25,-19,46,34,33,8,38,38
72637814144,2,14,6,2,-1,-3,2,2
72637814144,-6,-4,-9,3,3,-3,-1,-4
72637822394,12,-7,20,71,57,6,49,26
72637822394,-22,6,-31,3,1,-2,-10,-20
72637829194,0,-12,-3,-3,-4,-1,-4,-3
72637829194,5,-9,9,13,12,-2,11,10
72637837390,-22,-2,-50,-60,-55,-9,-60,-39
72637837390,12,5,19,-14,-14,1,-11,2
72637851698,3,1,7,12,10,1,8,5
72637851698,4,6,-19,-13,-13,1,-15,-7
72637859936,8,-2,49,-36,-40,1,3,14
72637859936,-16,-9,-21,-1,-2,-2,-4,-12
72637874166,-1,6,-2,0,0,-1,-2,-2
72637874166,-2,2,1,5,5,-2,5,2
72637882336,-29,-5,-67,-14,-11,-10,-27,-33
72637882336,14,-3,15,-12,-13,5,-9,4
72637889206,-1,-1,2,-2,-3,1,-1,-1
72637889206,6,4,-8,-11,-10,1,-11,-8
72637897420,31,-9,61,6,3,7,21,29
72637897420,-12,-3,-12,-3,-3,-1,1,-8
72637911632,-1,0,-12,1,1,-1,-2,-2
72637911632,-9,-7,4,5,4,0,4,-2
72637927308,-19,-4,-62,50,59,1,19,-4
72637927308,-2,-1,-7,-7,-6,-6,-5,-4
72637934121,2,-4,6,-6,-8,2,-1,1
72637934121,6,-6,-15,36,38,7,22,13
72637942319,-31,-2,-50,-27,-21,-6,-33,-35
72637942319,5,1,4,1,1,-1,2,4
72637949118,0,-4,-10,0,0,-4,-4,-2
72637949118,-14,3,-22,-69,-70,-8,-55,-28
72637957309,25,-2,34,9,9,12,13,23
72637957309,2,-1,0,0,0,0,0,2
72637971590,-4,1,-14,-9,-10,0,-11,-12
72637971590,15,1,57,15,9,3,26,25
72637979781,8,-7,18,9,8,9,12,11
72637979781,1,-4,-6,-7,-7,3,-7,-2
72637994084,-10,-3,9,-11,-11,-2,-6,-4
72637994084,3,2,11,46,45,17,48,20
72638002315,-2,-4,-1,2,2,-7,2,0
72638002315,-1,2,4,-5,-7,-5,-4,-1
72638017946,10,-2,-11,31,31,-1,20,16
72638017946,-41,-1,-65,-44,-41,-20,-49,-49
72638018721,0,2,3,2,1,5,3,0
72638018721,7,6,5,4,4,0,6,6
72638031617,-20,-1,-45,-65,-51,-15,-63,-39
72638031617,30,-3,42,21,24,15,25,32
72638039795,3,0,3,2,3,0,2,2
72638039795,-6,-4,-6,-5,-5,-3,-5,-6
72638054147,10,-2,44,39,36,8,50,26
72638054147,-16,-3,-26,2,3,-5,-5,-15
72638062315,-2,-1,-4,-1,0,-6,-1,-3
72638062315,-2,0,5,9,9,2,7,6
72638078050,-22,-3,-65,9,8,-5,-15,-24
72638078050,-4,-2,-10,-8,-7,-3,-10,-7
72638078871,1,0,8,9,7,2,9,4
72638078871,3,-5,-22,-1,-2,-1,-6,-4
72638091716,-13,-5,-23,-54,-48,-14,-45,-28
72638091716,-2,-1,-4,0,-1,3,-3,-3
72638099901,3,1,-6,3,6,2,1,2
72638099901,-12,-2,-8,-67,-63,-9,-41,-31
72638114109,34,4,57,16,13,22,30,36
72638114109,0,-3,-3,-5,-4,-3,-4,-2
72638123086,-10,3,-13,-14,-15,-8,-15,-14
72638123086,19,-4,24,49,61,10,57,40
72638137283,-23,-2,-30,7,7,-5,-6,-18
72638137283,-2,-1,-9,-13,-10,-2,-9,-6
72638144285,-3,0,6,6,7,0,5,3
72638144285,-27,1,-68,4,2,-9,-26,-33
72638151625,9,4,7,-1,-1,-2,-1,6
72638151625,-1,-4,1,0,0,-1,-2,-1
72638160700,-6,-5,-13,-5,-4,-3,-7,-8
72638160700,10,-5,35,30,35,6,40,24
72638174198,-21,-3,-29,5,5,-4,-7,-18
72638174198,-5,-3,-16,-4,-5,-4,-9,-9
72638183143,3,-4,4,4,5,10,6,6
72638183143,-30,-6,-59,-38,-35,-15,-44,-39
72638197343,14,0,21,-5,-6,3,-3,9
72638197343,0,-5,6,4,5,1,5,3
72638204169,4,-1,-9,-8,-7,1,-8,-7
72638204169,17,2,46,20,13,4,28,27
72638211636,-16,-6,-20,11,10,12,2,-9
72638211636,-5,5,-17,-4,-4,-5,-7,-6
72638220629,-7,-1,4,7,7,-5,2,-2
72638220629,-14,1,-53,35,43,5,-1,-11
72638234140,0,-3,-2,-2,-2,-4,1,0
72638234140,2,-5,8,5,6,-1,7,6
72638243101,-2,0,-19,-8,-6,-12,-11,-12
72638243101,21,1,61,-39,-49,-2,-5,10
72638257310,-12,-4,-10,5,4,1,3,-5
72638257310,-1,-1,-7,0,1,-1,-1,-1
72638264142,-4,-1,-2,-3,-2,1,-2,-3
72638264142,2,4,0,6,3,-3,-1,1
72638271637,-10,0,-44,-34,-28,-14,-35,-29
72638271637,12,-2,22,-8,-9,2,-6,2
72638280599,1,-3,-1,11,11,-1,7,5
72638280599,4,0,4,-18,-17,7,-14,-6
72638294138,21,-1,63,22,21,11,37,37
72638294138,5,3,27,-42,-41,-16,-14,-5
72638303146,4,0,3,-3,-3,0,-1,3
72638303146,0,-4,0,-9,-9,-1,-8,-5
72638317270,2,5,19,7,5,1,13,6
72638317270,25,0,38,24,24,13,28,27
72638324102,5,-2,12,3,3,-9,7,8
72638324102,1,-3,10,-10,-11,-3,-4,0
72638331602,12,15,2,9,7,-3,9,11
72638331602,9,1,19,-44,-44,-5,-26,-13
72638340596,-3,3,-3,-19,-19,10,-13,-10
72638340596,3,4,4,17,18,3,9,7
72638354218,2,-1,4,3,3,-1,3,0
72638354218,-31,-3,-67,8,9,3,-15,-17
72638363169,26,1,34,5,5,7,18,20
72638363169,-11,-4,-9,-18,-18,-3,-17,-15
72638377398,5,0,14,-4,-4,3,1,5
72638377398,11,2,-4,63,63,-4,35,24
72638384196,-36,-6,-45,-22,-23,-14,-29,-31
72638384196,-4,-2,-13,5,6,6,0,0
72638391726,2,-5,3,-19,-19,-6,-10,-5
72638391726,-20,-7,4,-21,-22,0,-14,-18
72638400665,-4,-3,-15,40,40,7,22,7
72638400665,4,1,16,4,4,-9,9,5
72638414187,-6,-4,-15,1,0,-2,-6,-5
72638414187,0,-4,-7,-17,-16,-3,-14,-13
72638423177,15,1,31,52,54,1,47,30
72638423177,-20,-5,-27,-57,-58,-8,-55,-46
72638437361,7,-6,12,13,14,7,13,11
72638437361,-1,-3,-11,-5,-5,-3,-6,-3
72638444184,-6,-4,14,-25,-25,4,-17,-13
72638444184,-33,-2,-56,16,21,1,-3,-17
72638451651,-3,-16,-7,-12,-12,-3,-14,-10
72638451651,-1,-17,3,-1,0,4,3,0
72638460796,-1,30,-14,-18,-16,-4,-17,-11
72638460796,44,33,52,-14,-13,1,22,27
72638474174,-27,27,-31,-11,-11,-2,-22,-23
72638474174,0,11,-5,10,11,11,10,5
72638489272,2,-26,-3,-7,-6,1,-4,0
72638489272,-11,-14,17,-13,-14,-1,-10,-7
72638497362,14,-31,21,35,35,11,41,29
72638497362,2,-6,8,9,10,0,8,6
72638504200,-6,-3,-11,-10,-10,-4,-12,-8
72638504200,14,11,0,42,48,1,28,26
72638511753,32,-32,48,13,12,0,29,32
72638511753,-17,-19,-12,0,0,-1,-5,-9
72638520691,7,-5,14,-7,-8,5,2,6
72638520691,-5,-8,-4,6,5,0,3,2
72638534238,-30,14,-55,-49,-46,-23,-47,-42
72638534238,11,15,5,1,2,5,1,8
72638549161,-4,4,-4,-15,-15,-9,-12,-10
72638549161,3,-8,-5,16,12,-6,9,11
72638557365,-32,5,-64,-38,-36,-21,-47,-42
72638557365,-2,6,-1,-15,-16,-4,-8,-7
72638572330,-2,-6,0,-27,-32,-8,-15,-13
72638572330,-5,-1,-6,-10,-12,5,-12,-12
72638573098,18,6,25,3,1,0,10,8
72638573098,-33,-8,-71,-39,-36,-19,-48,-48
72638580590,-4,-4,-8,3,4,3,-2,-2
72638580590,-1,-7,5,-9,-11,-1,-3,-8
72638594131,6,10,8,-2,-3,20,-3,-1
72638594131,2,3,11,12,11,6,13,9
72638603125,0,-3,-2,37,34,1,21,11
72638603125,-7,0,-8,-5,-6,6,-6,-7
72638617360,2,1,8,17,18,0,12,9
72638617360,-20,2,-50,-30,-26,-15,-32,-29
72638624145,-7,2,-11,-9,-7,-3,-7,-7
72638624145,1,-7,-5,7,8,1,2,0
72638631639,12,0,57,5,2,9,29,22
72638631639,6,1,12,11,9,9,12,10
72638640590,-4,-6,-16,-7,-5,-5,-10,-8
72638640590,-16,-11,-50,-51,-52,-17,-65,-40
72638654128,-2,3,-9,-18,-18,-2,-17,-8
72638654128,3,4,12,1,-1,2,4,4
72638663143,-2,16,3,42,36,6,24,9
72638663143,-27,2,-37,-10,-12,-10,-15,-22
72638677961,-4,4,-14,4,3,1,-4,-5
72638677961,8,-16,11,15,14,3,14,13
72638679640,-12,2,-13,-45,-51,-2,-32,-26
72638679640,6,19,11,34,32,11,38,19
72638691764,-3,0,-7,5,5,-5,-1,-1
72638691764,-3,5,-11,-2,-2,-9,-4,-9
72638700699,18,-6,47,-1,-6,2,21,21
72638700699,-13,-13,-13,10,9,8,-2,-8
72638714180,-4,-2,-9,-2,-3,3,-3,-3
72638714180,4,5,15,11,9,1,11,11
72638723183,-17,-7,-33,-60,-56,-11,-49,-24
72638723183,12,8,21,-6,-6,7,1,7
72638737988,2,-1,4,7,6,0,3,3
72638737988,1,0,-9,-9,-11,-6,-10,-9
72638739653,12,4,24,44,29,5,40,23
72638739653,-23,2,-30,-16,-15,-14,-18,-21
72638751786,-4,4,-13,-6,-6,-1,-9,-7
72638751786,5,-4,12,2,0,1,4,6
72638760643,0,-6,-4,-17,-20,-3,-10,-12
72638760643,10,-1,8,43,34,7,38,18
72638774192,0,-3,0,12,10,4,9,3
72638774192,-8,4,-10,-2,-2,-1,-3,-5
72638783232,6,4,-10,-6,-1,-2,-11,-1
72638783232,16,-3,37,45,40,1,46,33
72638797452,-28,-6,-46,-38,-37,-12,-39,-34
72638797452,4,2,11,18,16,15,19,11
72638804141,-5,-3,-20,-5,2,-2,-13,-7
72638804141,3,-2,23,-13,-11,1,-2,3
72638811684,-24,-13,-50,-46,-46,-8,-46,-37
72638811684,6,-5,7,33,33,3,36,19
72638820599,-4,1,-9,0,3,-3,-5,-6
72638820599,1,1,-1,-16,-14,-5,-12,-4
72638834302,9,0,22,18,16,-1,21,14
72638834302,10,5,-18,18,20,0,5,11
72638843142,-39,-3,-51,-38,-36,-13,-41,-41
72638843142,-18,-2,-33,-5,-4,-5,-9,-15
72638857352,11,6,15,2,2,0,5,9
72638857352,2,5,9,-8,-11,-2,-5,-1
72638864092,-8,-3,3,-16,-13,1,-4,-11
72638864092,-6,1,-32,2,3,-1,-14,-13
72638871613,26,-1,45,11,10,7,22,27
72638871613,-13,0,-13,-15,-15,-11,-16,-15
72638880696,6,-1,2,13,14,1,8,9
72638880696,18,-1,8,-23,-23,-3,-14,2
72638894082,17,1,58,15,15,0,25,23
72638894082,-33,-5,-50,-40,-42,-12,-42,-41
72638903111,6,2,5,13,14,3,10,9
72638903111,4,-3,8,0,0,1,3,4
72638917331,-14,-2,-15,5,5,-6,0,-8
72638917331,-22,-2,-48,-66,-51,-3,-45,-38
72638924104,27,-3,40,36,39,6,37,34
72638924104,-4,-5,0,-19,-18,-3,-14,-8
72638931604,-1,2,-8,-3,-3,0,-5,-4
72638931604,15,-4,19,10,7,2,9,12
72638940699,2,-3,-8,47,46,0,21,11
72638940699,4,2,27,-57,-57,-9,-38,-15
72638954080,-17,-3,-35,12,11,4,-1,-12
72638954080,7,0,16,10,7,6,8,9
72638963130,-3,1,-11,-19,-18,-3,-14,-8
72638963130,-4,-3,3,20,15,-3,14,4
72638977313,-14,4,-42,-56,-57,-9,-62,-33
72638977313,6,0,13,54,53,9,43,22
72638984075,4,0,6,-17,-15,3,-15,-7
72638984075,-4,4,-7,6,7,8,4,-1
72639000491,5,2,7,7,7,-5,8,6
72639000491,11,3,-1,-15,-16,-4,-5,2
72639002085,14,-3,42,1,-3,-1,17,14
72639002085,-31,-4,-55,-32,-30,-10,-37,-36
72639014123,8,1,9,10,9,7,10,9
72639014123,-2,1,6,1,-1,0,-3,-1
72639023121,-11,-2,-28,-4,-3,0,-9,-14
72639023121,-3,-1,22,-15,-14,-7,-5,-4
72639037487,-28,-3,-53,-49,-49,-7,-33,-37
72639037487,1,-3,7,37,37,1,29,14
72639044274,5,-3,2,-17,-16,1,-9,0
72639044274,8,3,2,19,18,3,14,11
72639060574,8,0,14,17,19,0,14,11
72639060574,5,0,-1,-26,-26,-3,-22,-7
72639062169,-1,-2,-15,36,36,-10,19,7
72639062169,6,-4,20,-46,-46,-2,-29,-10
72639074170,-7,-2,-22,16,16,1,5,-6
72639074170,2,3,10,-5,-6,-1,-3,1
72639083170,-4,-6,-9,-10,-10,1,-13,-6
72639083170,-1,0,2,20,20,4,15,8
72639097389,-12,-3,-21,-51,-52,-7,-53,-27
72639097389,-3,-7,-14,45,44,10,22,6
72639104186,6,6,12,-16,-13,5,-9,-1
72639104186,-1,-3,-7,10,10,6,8,3
72639120546,13,-2,24,17,17,0,19,17
72639120546,2,-1,-8,-27,-28,0,-25,-11
72639122141,-2,1,-11,48,41,-3,24,10
72639122141,8,1,22,-39,-40,-7,-19,-4
72639134220,-17,8,-35,8,6,-1,-7,-13
72639134220,-1,3,9,-15,-14,0,-7,-3
72639143141,-10,-3,-19,-20,-20,9,-17,-13
72639143141,-19,-4,-55,14,11,-4,-11,-10
72639157410,30,-2,43,62,63,13,64,58
72639157410,-28,1,-50,-38,-41,-19,-40,-35
72639164252,-10,1,-18,-2,-2,9,-4,-1
72639164252,0,3,-1,5,5,5,1,-2
72639180500,0,-3,1,1,1,4,2,1
72639180500,-18,1,-29,-52,-53,7,-55,-22
72639182134,9,-3,20,-23,-22,-8,-13,-7
72639182134,5,0,5,7,9,-2,8,6
72639194151,0,-2,2,-14,-14,-7,-10,-8
72639194151,25,-3,67,-23,-26,-1,1,-3
72639203163,-19,-7,-25,-22,-21,-1,-20,-20
72639203163,4,3,0,14,13,7,9,11
72639217354,7,0,14,7,7,-8,6,-2
72639217354,-29,0,-56,-10,-13,-9,-19,-20
72639224122,6,1,8,-17,-17,1,-7,-2
72639224122,4,-2,9,1,1,-4,5,0
72639240558,1,4,6,-5,-5,1,-3,-1
72639240558,13,-2,2,19,18,0,15,16
72639242146,-7,-1,12,-50,-50,-7,-32,-24
72639242146,-15,1,-34,-10,-9,-1,-12,-9
72639254224,5,-2,10,-8,-7,2,-3,-1
72639254224,4,-2,8,29,29,2,23,14
72639263180,-30,2,-54,-58,-58,-10,-64,-47
72639263180,12,-6,16,42,46,11,43,30
72639277398,-6,-1,-8,-12,-13,0,-11,-5
72639277398,3,0,14,9,10,-1,14,8
72639284248,-7,-3,-13,12,13,2,7,1
72639284248,15,-5,-7,13,18,-4,12,9
72639300581,6,-4,32,-36,-32,-7,-6,-5
72639300581,-30,-1,-54,-31,-29,-10,-34,-30
72639302107,4,-3,6,14,12,7,13,8
72639302107,-3,1,-1,-5,-5,-5,-6,-5
72639314197,-7,-3,-10,11,10,3,4,-4
72639314197,-19,-1,-26,-53,-52,-5,-51,-35
72639323243,7,5,14,51,54,8,51,37
72639323243,-5,-4,-2,-17,-19,-7,-15,-12
72639337411,-1,-3,-7,3,3,1,-1,3
72639337411,7,4,23,16,17,1,20,13
72639344165,-1,-4,-25,5,6,2,-1,3
72639344165,12,-2,35,26,24,2,27,17
72639360522,-36,-1,-60,-37,-39,-11,-43,-36
72639360522,13,-3,23,24,25,11,24,20
72639362125,-3,-6,-3,-5,-5,-15,-6,-6
72639362125,-8,-1,-13,-14,-15,-2,-13,-11
72639374274,-9,-1,9,-18,-20,3,-11,-13
72639374274,-10,0,-44,3,10,-3,-4,-4
72639383162,21,-3,42,10,7,10,19,18
72639383162,-12,7,-15,-15,-15,-2,-15,-13
72639397422,5,1,-2,17,17,3,10,9
72639397422,11,-3,14,-6,-7,2,-2,7
72639404158,5,4,14,41,37,-1,37,15
72639404158,-18,-2,-33,-60,-61,-10,-59,-46
72639420466,-6,-1,-15,17,17,1,10,3
72639420466,4,3,12,6,6,6,7,4
72639422063,-14,-4,-25,-22,-21,-7,-24,-18
72639422063,0,2,7,12,11,2,12,6
72639434108,-4,2,-14,-51,-49,-5,-42,-20
72639434108,-3,-2,-7,55,55,-2,26,11
72639443144,10,4,21,-12,-13,8,-2,2
72639443144,-5,-3,-8,-3,-3,-2,-5,-4
72639457328,7,-2,3,14,15,-8,10,9
72639457328,11,-1,16,-15,-16,2,-3,7
72639464146,-2,3,-11,31,34,-3,10,-2
72639464146,-6,2,-5,-52,-51,0,-49,-26
72639480521,-17,-6,-32,8,11,-1,-7,-13
72639480521,5,-2,15,-3,-4,7,4,2
72639482115,-10,-2,-19,-16,-15,-10,-15,-10
72639482115,3,-3,-1,15,16,5,13,6
72639494102,9,1,20,-18,-22,-6,-10,-10
72639494102,-16,0,-51,-15,-10,-8,-19,-18
72639503148,19,-1,34,14,14,8,20,21
72639503148,-3,-3,-7,1,2,-8,1,-1
72639517420,11,-2,9,16,16,9,15,15
72639517420,2,1,17,-5,-6,-8,2,-1
72639524209,-5,-2,-34,-19,-24,-6,-21,-12
72639524209,23,-1,36,53,57,6,55,33
72639540548,-11,1,-14,-39,-39,-5,-39,-27
72639540548,-12,-5,-14,1,1,-2,-7,-11
72639542160,-10,4,-11,-14,-12,-4,-16,-12
72639542160,-4,-4,-10,-3,-4,-2,-7,-4
72639554264,6,-3,7,21,21,2,17,12
72639554264,-12,3,3,-60,-64,-9,-37,-18
72639563187,-31,-3,-69,-33,-35,-6,-37,-31
72639563187,25,2,41,3,-1,8,14,19
72639577429,3,2,-2,4,6,-1,5,5
72639577429,6,-1,12,8,6,1,8,5
72639584212,-7,-10,-3,-12,-11,-3,-8,-7
72639584212,1,-6,-22,-9,-19,0,-10,-2
72639600616,19,-3,43,47,45,3,46,31
72639600616,-31,-2,-47,-35,-35,-7,-36,-34
72639602205,1,1,4,4,7,7,2,3
72639602205,-5,0,-8,-3,-2,2,-8,-8
72639614192,6,0,-2,4,2,-5,4,5
72639614192,3,-4,26,16,12,0,17,7
72639623201,-23,3,-34,-63,-65,-10,-62,-38
72639623201,-9,-8,-21,44,47,4,23,6
72639637423,-9,-3,-35,15,19,8,-4,-11
72639637423,5,-2,3,11,12,-1,10,6
72639644184,3,0,9,9,10,-3,9,4
72639644184,-6,1,-7,-12,-12,-4,-11,-8
72639660538,3,-2,-7,-8,-9,-5,-7,1
72639660538,21,-3,16,44,47,3,30,24
72639662171,4,2,27,-37,-48,-1,-15,-6
72639662171,-39,5,-63,-43,-41,-11,-48,-42
72639674190,-2,-4,3,7,4,5,13,6
72639674190,7,0,12,-11,-11,3,-1,4
72639683134,-3,-3,-10,10,12,-5,5,2
72639683134,1,0,2,0,-1,-1,2,3
72639697377,-8,3,4,-14,-18,-4,-12,-10
72639697377,-17,-2,-44,-39,-41,-8,-40,-31
72639704169,-13,-2,-28,36,41,2,9,-3
72639704169,7,-1,12,-29,-30,5,-18,-6
72639719847,-3,1,-13,-1,1,1,-2,0
72639719847,12,-7,18,14,14,4,14,13
72639726641,3,5,4,1,0,-1,3,1
72639726641,5,-1,-7,-12,-7,-6,-1,3
72639734119,16,0,-2,27,28,0,14,15
72639734119,4,3,41,-4,-11,1,8,8
72639743160,-18,-3,-38,-23,-23,-6,-27,-23
72639743160,-19,0,-16,-6,-7,-6,-10,-13
72639757353,-8,-5,-4,-22,-21,-3,-15,-11
72639757353,-10,1,-22,-13,-12,1,-15,-13
72639764238,1,0,-2,7,9,2,7,5
72639764238,10,-2,9,13,12,5,9,9
72639779965,0,0,6,2,1,0,5,1
72639779965,-13,-5,-9,-37,-37,-6,-30,-21
72639786714,-27,-2,-44,-38,-47,-8,-37,-32
72639786714,0,-3,0,9,11,4,8,9
72639794218,9,2,5,9,8,6,6,8
72639794218,20,-1,25,29,29,2,28,24
72639803269,9,-2,16,4,7,1,7,7
72639803269,-5,2,-12,-20,-22,-6,-20,-11
72639817413,2,2,-25,-5,-4,-2,-7,-1
72639817413,19,3,39,35,34,4,33,27
72639824200,-21,2,-44,-32,-29,-9,-35,-27
72639824200,-11,-4,-8,21,22,2,10,-3
72639839913,-3,-4,13,-20,-20,-1,-12,-7
72639839913,-18,4,-45,-24,-22,-7,-30,-23
72639846699,13,-2,15,26,28,7,24,19
72639846699,6,-2,16,11,9,-7,9,5
72639854238,-11,-1,-7,-41,-43,-8,-28,-16
72639854238,-27,-1,-53,-26,-29,-9,-33,-31
72639863198,0,-3,12,24,25,6,33,11
72639863198,-1,-1,-5,-19,-20,5,-15,-6
72639877413,6,0,1,17,18,4,13,9
72639877413,16,-6,22,18,19,5,22,18
72639884181,1,-3,14,-4,-3,-5,-3,0
72639884181,-1,3,-22,-9,-6,-4,-10,-4
72639899910,-1,0,5,43,42,1,36,12
72639899910,0,1,-2,-47,-46,-1,-35,-13
72639906728,-9,-3,-24,12,14,-3,-1,-6
72639906728,1,-6,20,2,1,0,9,7
72639923097,-13,-2,-18,-35,-34,-1,-30,-19
72639923097,-8,-2,-20,11,14,-4,3,-3
72639924678,3,0,16,13,13,0,10,6
72639924678,0,-2,4,-34,-34,-6,-16,-18
72639937347,-20,2,-42,-27,-23,-4,-26,-22
72639937347,-14,7,-28,33,34,2,7,-6
72639944196,14,1,18,-8,-14,1,0,7
72639944196,2,1,-5,19,18,1,11,7
72639959798,17,-5,22,17,17,-4,17,15
72639959798,8,-6,17,2,2,-4,10,7
72639966619,-10,-1,-9,-16,-15,-8,-13,-10
72639966619,-7,-1,-25,-12,-10,-4,-9,-10
72639983076,11,-4,1,35,36,0,22,15
72639983076,24,0,39,10,7,4,16,24
72639984724,-9,-2,-9,6,1,1,-2,-5
72639984724,-15,-1,-8,-14,-17,-1,-13,-14
72639997341,-18,2,-28,-25,-25,-2,-27,-22
72639997341,-3,-2,-12,7,6,5,4,-1
72640004161,14,1,8,14,16,9,13,13
72640004161,6,0,14,25,23,5,17,12
72640019870,-8,4,5,-36,-36,-4,-21,-19
72640019870,-36,1,-52,-38,-37,-8,-39,-40
72640026677,-20,0,-48,-18,-19,-2,-26,-20
72640026677,-1,-4,-13,47,49,7,32,22
72640043029,28,-5,39,31,29,8,27,26
72640043029,12,1,19,2,2,0,10,10
72640044639,-3,-2,-3,-3,0,-5,-4,-4
72640044639,-7,-1,-6,-15,-17,-5,-15,-12
72640057385,-4,0,-19,-12,-13,-1,-15,-6
72640057385,11,1,-2,30,30,1,19,12
72640064156,29,0,47,23,19,4,25,26
72640064156,-18,2,-20,-22,-23,-2,-18,-22
72640079892,-17,-6,-15,-19,-18,-6,-20,-17
72640079892,-16,-5,-29,-13,-12,0,-17,-17
72640086755,1,-2,2,7,8,4,6,4
72640086755,10,1,9,-4,-5,-1,-3,3
72640103097,0,1,-1,9,9,-4,5,3
72640103097,-5,-3,15,-11,-15,-1,-8,-9
72640104707,-32,-3,-48,-38,-46,-9,-32,-38
72640104707,-37,2,-52,-69,-69,-16,-61,-47
72640117411,-26,6,-75,8,7,-2,-23,-19
72640117411,35,2,55,57,58,16,57,47
72640124250,21,4,31,0,2,1,6,12
72640124250,5,0,3,14,14,-6,6,4
72640139949,6,-5,20,-1,-3,-3,6,5
72640139949,-14,2,-22,-23,-23,-9,-24,-19
72640146725,-6,-1,-15,-11,-9,-3,-14,-13
72640146725,22,1,-3,29,29,7,19,21
72640163120,25,-2,38,55,56,8,53,34
72640163120,14,-3,36,-20,-26,1,1,12
72640164674,-27,-4,-35,-26,-25,-10,-25,-25
72640164674,-6,5,-2,4,3,-1,-5,-5
72640177424,-3,1,0,-21,-22,3,-12,-7
72640177424,-8,1,-27,-3,-2,-4,-9,-10
72640184215,12,-1,10,17,18,3,14,15
72640184215,1,-2,17,8,6,4,8,2
72640200309,-11,4,-12,-53,-54,-4,-40,-22
72640200309,-25,-6,-57,-25,-18,-7,-29,-28
72640208177,7,-4,18,21,22,9,22,21
72640208177,20,-8,22,15,16,-1,19,18
72640223027,13,-3,19,12,13,-4,16,14
72640223027,6,1,8,2,2,4,4,5
72640224574,0,2,0,-6,-5,1,-3,-1
72640224574,-10,4,-9,-15,-15,0,-13,-12
72640237362,-8,-3,-11,-18,-18,0,-15,-6
72640237362,5,1,-20,-14,-15,-3,-9,-1
72640244114,16,-1,6,74,75,8,48,30
72640244114,6,-3,21,-26,-26,-6,-27,-7
72640259810,-25,-1,-37,-41,-39,-11,-36,-32
72640259810,-23,-7,-29,3,4,-3,-8,-15
72640266609,-2,-4,-4,-20,-18,-5,-15,-7
72640266609,2,-8,-8,3,3,6,3,2
72640283024,11,-2,7,17,17,4,14,11
72640283024,4,-2,11,12,13,-1,11,6
72640284738,-15,0,8,-21,-25,-2,-13,-17
72640284738,-18,-4,-17,-56,-56,-10,-46,-27
72640297366,-24,1,-61,-36,-41,-3,-40,-32
72640297366,-8,-4,-18,50,49,9,21,2
72640304144,26,-10,30,-3,-4,14,12,19
72640304144,8,8,3,23,24,7,20,12
72640319829,11,-3,22,19,19,-3,19,13
72640319829,3,-2,7,-20,-20,-7,-11,-3
72640326647,-16,-1,-25,-19,-17,-20,-21,-19
72640326647,3,-4,-18,-4,-4,0,-5,-1
72640343075,15,0,17,56,60,8,40,22
72640343075,14,-1,36,-36,-42,2,-12,0
72640344688,-19,6,-35,-18,-17,-10,-21,-20
72640344688,-4,-4,3,9,7,4,13,3
72640357485,-3,0,-3,-11,-12,-11,-9,-7
72640357485,2,-1,-7,0,0,-7,-2,1
72640364191,-7,2,0,7,8,-3,4,0
72640364191,-1,4,-25,-45,-44,-11,-44,-21
72640380001,-7,-4,-9,51,52,9,31,11
72640380001,-3,0,1,-15,-14,-9,-12,-8
72640386709,-7,6,-17,-15,-14,-2,-14,-10
72640386709,-5,2,-4,30,31,3,20,5
72640403142,20,-1,14,-14,-14,0,3,10
72640403142,26,4,44,51,48,5,47,43
72640404716,-28,9,-55,-42,-42,-13,-45,-39
72640404716,-1,-21,6,19,18,6,17,10
72640416690,1,-17,4,-9,-10,5,-6,-3
72640416690,-4,-10,-16,-5,-4,2,-6,-6
72640425777,1,-42,20,12,9,5,14,7
72640425777,-27,-1,-52,-50,-50,-11,-47,-39
72640439915,-24,-1,-24,8,15,0,-5,-12
72640439915,3,-7,1,-10,-11,8,-3,2
72640446709,14,0,10,13,16,-1,12,13
72640446709,6,-6,17,17,16,0,19,12
72640463105,14,-5,-2,-26,-28,-7,-20,-3
72640463105,-7,-2,0,45,48,-4,27,10
72640464640,-20,22,-47,-37,-40,-11,-41,-35
72640464640,-8,4,-14,21,21,5,19,-1
72640476737,-1,11,4,-6,-7,0,-3,-1
72640476737,-5,4,-9,-12,-12,-3,-9,-6
72640485796,-3,1,13,18,18,5,18,12
72640485796,-19,9,-46,-30,-30,-3,-37,-32
72640499952,28,-17,51,35,30,10,37,34
72640499952,-14,6,-17,-26,-25,-8,-22,-19
72640506757,8,2,7,3,5,2,3,8
72640506757,24,8,19,8,7,2,11,21
72640523098,-5,5,-17,0,0,-4,-1,4
72640523098,2,-4,27,27,22,-5,24,16
72640524694,-21,16,-46,-24,-22,-2,-25,-27
72640524694,8,-9,25,21,20,7,21,17
72640536686,-6,9,-7,-16,-18,-8,-14,-13
72640536686,-9,5,-22,-15,-10,-6,-16,-20
72640545688,-6,-3,-43,-15,-15,-9,-15,-13
72640545688,22,-15,49,24,21,11,32,30
72640559852,-10,1,-13,-24,-26,-10,-21,-14
72640559852,4,-3,-8,-13,-14,4,-10,-8
72640566612,10,-5,20,44,47,2,40,32
72640566612,-33,14,-55,-45,-44,-14,-42,-40
72640583024,-8,4,-10,-8,-8,9,-6,-9
72640583024,1,6,-9,-9,-10,4,-6,-5
72640584598,11,-3,24,-15,-21,2,-5,-6
72640584598,-9,2,-30,-10,-1,-2,-14,-15
72640596712,10,-10,24,-1,-1,0,10,11
72640596712,-10,2,-27,-14,-12,6,-15,-13
72640605689,17,-8,21,3,2,3,4,8
72640605689,1,4,18,36,37,-2,30,17
72640619877,-34,8,-47,-53,-53,-10,-48,-47
72640619877,-6,-16,-9,-9,-9,2,-7,-5
72640626739,10,-9,10,2,2,6,5,7
72640626739,-3,-5,22,20,18,-3,20,13
72640642855,-13,-5,-51,-34,-31,-5,-36,-29
72640642855,18,-10,31,10,8,8,20,18
72640650799,0,-5,6,-1,-2,0,1,2
72640650799,19,-9,5,-3,-4,1,-2,-3
72640656827,10,14,48,48,47,15,46,29
72640656827,-21,-9,-38,-5,-6,-2,-14,-10
72640665803,6,-11,8,10,12,27,9,8
72640665803,6,18,1,-39,-40,-5,-26,-6
72640680028,3,-2,5,9,8,-4,7,7
72640680028,11,27,-1,-7,-8,-5,-6,-8
72640686768,12,-3,23,65,66,6,46,33
72640686768,-1,-19,-2,14,14,5,9,7
72640702466,-1,-4,8,-5,-6,1,-5,-3
72640702466,0,-3,18,25,29,13,25,19
72640709286,-4,3,-6,-9,-8,-15,-9,-6
72640709286,14,14,40,21,27,10,27,16
72640716722,6,1,5,15,17,-6,12,9
72640716722,2,4,-7,6,7,-7,-1,-17
72640725784,4,7,16,6,6,2,15,12
72640725784,-5,3,-9,8,7,-4,2,0
72640739991,-3,7,-14,14,12,1,11,4
72640739991,-6,-6,-13,-9,-9,-4,-9,-2
72640746822,-11,6,-9,-10,-12,0,-6,-9
72640746822,-9,0,-21,28,15,-2,-4,5
72640762481,-1,-6,-6,-2,-3,-6,-4,-2
72640762481,-3,-3,-14,7,0,-7,8,-2
72640769184,-29,0,-52,-36,-42,-10,-40,-33
72640769184,-6,-9,-12,-8,-8,-2,-6,-6
72640776737,-2,-3,-7,-49,-48,-6,-37,-25
72640776737,1,-3,14,-16,-17,-3,-12,-8
72640793182,7,-1,1,-13,-12,-4,-10,-4
72640793182,-3,0,7,14,22,-1,9,6
72640799955,-3,6,-7,0,-2,-3,-1,-2
72640799955,8,-5,11,-6,4,-5,-2,-9
72640806691,22,-4,41,5,9,1,16,12
72640806691,1,-16,2,-8,-7,-1,-2,-6
72640822383,2,-4,22,-26,-15,1,5,2
72640822383,-10,6,-13,-9,-10,1,-9,-3
72640829142,-7,-11,-8,-45,-35,-1,-25,-9
72640829142,2,2,-1,-17,-17,-3,-8,-6
72640836642,6,-12,-7,-3,-4,2,-6,7
72640836642,-25,1,-48,-31,-39,-13,-43,-28
72640845687,1,12,-7,2,1,-1,-4,-1
72640845687,3,4,-11,-44,-66,3,-39,-6
72640859862,-3,11,-9,2,-1,-4,-3,-3
72640859862,-2,6,15,3,9,3,8,-17
72640866669,2,4,-5,12,10,4,1,2
72640866669,1,3,1,7,11,-3,7,-15
72640882373,17,-1,40,20,24,10,33,15
72640882373,2,9,3,-3,-4,0,0,8
72640889137,1,-9,1,14,5,-3,6,-9
72640889137,-5,-10,-12,2,3,3,1,-1
72640905505,-9,-6,-15,6,1,-3,-5,-5
72640905505,1,-2,-9,29,34,5,12,14
72640907112,-5,1,-6,-3,-3,1,-5,-3
72640907112,8,0,-4,2,5,1,-1,8
72640919800,-24,-1,-44,-16,-26,-7,-44,-31
72640919800,0,9,-3,-11,-12,2,-5,4
72640926711,-16,-7,-40,-26,-56,-15,-61,-21
72640926711,-4,15,-6,-8,-8,-6,-9,-9
72640942368,15,-5,-1,-7,-5,0,-2,12
72640942368,2,0,-6,-2,-5,4,-4,2
72640949136,5,-18,5,11,17,3,12,-7
72640949136,15,0,37,-6,-3,17,19,5
72640973089,-2,-2,1,7,8,2,5,-3
72640973089,12,-8,39,-27,-27,-7,4,2
72640974749,8,3,18,-1,4,10,13,7
72640974749,2,-8,-3,-21,-13,-3,-10,1
72640979913,-2,2,-4,11,10,-8,6,4
72640979913,8,-4,-6,-5,-7,-4,-7,-5
72640986787,-20,-3,-35,-5,-6,-6,-24,-11
72640986787,-5,4,-12,3,-1,2,-7,-6
72641002452,-2,-1,4,-27,-20,1,-9,-2
72641002452,-3,-4,-5,0,-1,-2,-2,2
72641016818,9,-2,7,-1,3,1,7,16
72641016818,-17,-3,-10,-15,-22,-7,-31,-22
72641025656,3,2,3,9,8,8,5,2
72641025656,-20,-2,-45,-24,-35,-8,-41,-19
72641027124,-2,1,1,5,8,-8,4,-2
72641027124,-2,-6,-12,7,4,-9,3,12
72641039963,2,1,4,4,2,1,6,3
72641039963,-10,-3,3,10,10,-4,7,-7
72641046766,10,7,31,9,14,7,10,3
72641046766,-1,-4,3,6,7,-6,4,4
72641062422,9,-8,44,-26,-23,-5,8,-6
72641062422,3,-6,6,5,7,3,5,5
72641069295,0,3,-1,-63,-56,-9,-27,-14
72641069295,0,-1,-3,-5,-4,-4,2,-3
72641085614,5,-3,-13,-1,-8,-2,-11,0
72641085614,-6,0,-13,3,1,9,-1,4
72641087184,-7,-3,3,7,6,5,8,-11
72641087184,16,1,27,6,9,13,18,3
72641099220,-8,0,-8,10,10,-5,2,-3
72641099220,-13,1,-26,-16,-16,-7,-17,-11
72641108229,3,10,-4,4,1,2,0,4
72641108229,-2,0,-10,15,19,-3,15,4
72641122437,-2,-7,-9,12,9,3,1,8
72641122437,-4,-10,2,-39,-45,-5,-32,-22
72641129227,-1,-8,6,8,11,3,10,5
72641129227,-23,-5,-31,-12,-26,-16,-62,-30
72641146213,-4,-6,-9,-12,-16,-4,-12,-5
72641146213,1,2,-7,23,21,-1,14,18
72641147811,0,-3,-5,9,6,7,3,4
72641147811,-4,2,10,9,10,-8,16,5
72641159854,-1,2,1,10,11,-3,3,0
72641159854,11,-5,11,-3,-1,-1,1,5
72641166679,-25,2,-40,-20,-27,-12,-34,-20
72641166679,-1,2,-9,-1,0,2,3,5
72641182362,-20,4,-40,24,24,-3,-16,-9
72641182362,3,-6,9,10,11,0,11,2
72641189222,-3,-3,19,34,45,3,4,-13
72641189222,3,2,3,2,3,24,1,0
72641205500,2,4,-29,-10,-23,-21,-18,-11
72641205500,4,3,6,-8,-5,8,-2,0
72641207093,-3,-6,-7,-8,4,-9,3,-1
72641207093,-5,4,-10,0,0,-16,-4,-4
72641219839,-3,10,-2,-50,-45,0,-24,-9
72641219839,1,7,5,12,11,17,9,6
72641226704,3,22,4,-6,-9,11,3,6
72641226704,-26,-8,-53,-28,-29,-7,-33,-24
72641242386,-12,-8,-8,-6,-1,1,0,-5
72641242386,-3,-2,-6,-6,-5,14,-8,-8
72641249198,12,-14,-7,4,-9,-22,-4,2
72641249198,-18,34,-30,-10,-17,10,-21,-10
72641265522,1,4,7,13,13,-9,7,1
72641265522,-30,4,-45,-27,-32,-36,-27,-22
72641267158,-3,3,-5,-1,-4,-4,-1,-1
72641267158,3,-9,9,0,0,-32,15,-9
72641279368,0,-14,2,0,0,30,3,1
72641279368,-11,-3,-50,-27,-56,-29,-41,-22
72641288275,0,-9,-5,-12,-12,25,-4,-1
72641288275,-5,-11,12,-10,5,-3,10,1
72641302336,-7,10,-8,8,9,1,2,1
72641302336,5,11,0,-37,-48,-28,-1,16
72641309235,0,-4,0,-7,-11,-5,-2,1
72641309235,0,-70,-3,-16,-17,6,-27,-13
72641325578,-6,-33,-10,-3,-4,7,-8,-6
72641325578,29,-32,57,45,64,46,46,28
72641327193,-2,-23,-5,-2,-2,-3,1,-1
72641327193,10,-27,41,-11,10,-8,29,30
72641339242,5,-14,8,-2,0,5,6,6
72641339242,5,4,10,3,7,6,-2,1
72641348284,11,15,1,-7,-5,0,-2,11
72641348284,6,21,-2,5,2,40,-1,2
72641362450,2,15,-3,0,-4,-5,-1,2
72641362450,-16,-24,-27,5,16,6,-9,-22
72641369281,-10,17,-11,-2,-2,23,-6,-9
72641369281,17,6,42,44,55,13,49,26
72641385607,3,12,11,3,9,24,10,5
72641385607,16,-14,21,5,8,9,11,17
72641387187,4,7,-2,-4,-2,-14,-1,-2
72641387187,-16,15,-20,-10,-16,-6,-20,-26
72641399249,0,8,-2,0,-5,-12,-3,4
72641399249,-1,10,2,1,2,22,-3,-3
72641408258,-7,-5,0,6,-2,-13,5,-1
72641408258,1,6,-7,-8,-11,10,-6,3
72641422488,-20,-4,-11,10,27,-2,-12,-26
72641422488,-2,10,-1,6,5,-2,1,-2
72641429208,1,-2,0,-1,5,-2,2,2
72641429208,5,-12,-6,-12,-13,-4,-12,-1
72641445526,1,-8,-2,-7,-11,26,-3,2
72641445526,6,15,28,39,48,-2,24,12
72641447131,-4,-5,-1,-3,-2,-4,-4,-4
72641447131,-23,7,-10,-2,-9,-8,-10,-35
72641459227,6,5,21,-5,28,8,7,22
72641459227,2,-1,2,-11,-3,-7,-5,-15
72641468158,15,-10,40,40,48,6,44,19
72641468158,0,0,-18,-15,-19,21,-7,5
72641482400,11,-7,2,-2,-5,-1,4,-3
72641482400,1,18,9,7,11,-12,7,3
72641489164,-1,3,-9,-9,-10,7,-6,1
72641489164,3,0,0,-24,3,-21,-10,-12
72641505548,-3,7,1,-4,-4,-5,0,-6
72641505548,-7,-11,-22,-14,-20,12,-22,-12
72641507137,-18,-14,-49,-40,-98,-19,-59,-39
72641507137,1,3,-9,-13,-4,-11,-9,-4
72641519154,-6,8,-11,-9,-18,-11,-12,-13
72641519154,-2,7,-5,-8,-9,-14,3,2
72641528179,-6,3,5,0,14,-16,-3,-7
72641528179,5,-6,9,14,7,-18,4,5
72641542364,-16,-22,-7,24,-3,-7,-11,-10
72641542364,-9,-18,-16,-12,-13,-5,-17,-12
72641549166,-7,12,-4,-5,6,26,-4,-6
72641549166,-20,-21,-15,7,-19,11,-47,-34
72641565649,1,4,-2,-6,-5,-15,-1,-4
72641565649,-5,-8,2,3,3,-7,0,-5
72641567169,-30,-2,-53,63,-48,-8,-35,-28
72641567169,3,35,0,6,-1,36,8,9
72641579269,7,4,2,8,0,0,6,3
72641579269,1,2,-2,12,-4,-2,0,-1
72641588237,6,14,7,-14,12,22,7,6
72641588237,-7,-14,40,45,31,-9,-16,-26
72641602453,-3,29,-7,-7,-6,46,-3,-6
72641602453,7,5,-1,-3,-2,-12,4,11
72641609205,-7,-11,-39,-57,-49,-14,-27,-3
72641609205,17,0,17,20,18,2,7,15
72641624896,7,-16,30,21,17,-22,-6,-8
72641624896,-2,-11,7,12,-1,-25,-3,-5
72641631830,0,15,15,3,17,29,1,-4
72641631830,-6,16,-14,-9,-13,18,-2,-2
72641639298,-4,3,-11,-6,-14,-1,-7,-4
72641639298,-3,2,39,41,25,-31,-22,-25
72641648281,11,-16,40,27,22,-36,12,6
72641648281,5,11,43,42,41,-7,-15,-6
72641663256,6,1,78,74,71,-3,-1,-21
72641663256,55,10,28,40,57,8,55,26
72641669278,-34,-27,2,-12,11,-41,-32,-50
72641669278,36,8,14,25,44,-10,47,5
72641684260,29,-6,-20,-19,-21,-4,38,48
72641684260,-9,17,-12,-12,-6,47,-8,4
72641691807,10,21,19,10,15,4,11,5
72641691807,-6,-24,25,14,-4,-46,-4,-4
72641707390,44,6,-6,19,43,6,44,27
72641707390,-64,-3,-74,-82,-84,24,-59,-18
72641708159,-27,3,14,8,15,26,-38,-46
72641708159,-4,-7,-19,-16,-17,-35,-2,-25
72641723155,-10,0,-15,-15,-9,46,-12,-9
72641723155,-50,28,2,-27,-46,23,-52,-45
72641729239,55,12,23,29,63,-4,70,19
72641729239,-3,15,-24,-20,-12,44,-1,13
72641744170,-18,11,12,4,-18,-25,-18,-20
72641744170,39,-9,64,70,51,-19,17,-3
72641751642,26,0,-70,-56,-5,27,67,61
72641751642,-33,12,-12,-16,-24,12,-41,-33
72641767312,0,-28,7,5,2,-28,-2,-7
72641767312,-34,20,-53,-46,-38,45,-28,-11
72641768118,0,2,62,52,15,-7,-41,-37
72641768118,-2,10,-4,-1,0,36,-8,18
72641783168,-6,-5,27,18,-8,-49,-16,-2
72641783168,-38,-10,-40,-46,-36,-5,-38,-26
72641789130,8,-16,23,19,18,-2,-8,-13
72641789130,-66,-7,-75,-75,-82,14,-58,-55
72641804175,14,2,1,6,17,-10,6,-21
72641804175,10,-4,-14,-1,4,32,13,8
72641811735,-64,19,-2,-25,-65,7,-66,-51
72641811735,62,9,31,45,65,3,72,56
72641827373,-23,39,-26,-28,-28,54,-19,-16
72641827373,43,-14,68,65,49,-27,18,2
72641828130,-30,-19,-70,-72,-68,18,2,33
72641828130,1,-4,11,15,11,-21,-15,-31
72641843176,-12,-28,2,-3,-11,18,-18,-7
72641843176,-7,9,-39,-33,-18,3,14,12
72641849150,15,14,52,47,25,21,-41,-39
72641849150,2,-5,5,-5,-22,23,11,32
72641872473,-7,24,-20,-15,-10,1,0,3
72641872473,41,-24,10,25,41,-15,39,14
72641873250,-34,-17,-26,-40,-32,-1,-32,13
72641873250,-24,1,-12,-13,-27,-7,-34,-31
72641887412,2,-15,13,8,4,-23,-7,-9
72641887412,4,-11,-35,-18,13,34,24,20
72641888217,-50,30,-25,-33,-53,23,-44,-26
72641888217,43,3,74,80,55,-16,14,-22
72641903259,31,1,-23,-5,36,21,59,70
72641903259,-18,16,11,2,-18,20,-29,-30
72641909318,27,8,24,18,26,-35,32,17
72641909318,27,-4,5,19,27,-6,29,23
72641924266,-19,-15,-47,-48,-51,3,4,17
72641924266,-27,0,5,-16,-47,-17,-61,-43
72641931817,32,-14,15,25,33,-21,32,7
72641931817,6,-15,-33,-16,-4,43,14,25
72641947412,-67,25,-8,-57,-64,19,-72,-53
72641947412,51,12,65,82,68,-18,24,-16
72641948210,63,0,0,43,67,10,62,28
72641948210,-10,-2,-19,-28,-27,4,3,14
72641963287,-1,1,10,12,0,29,-13,-12
72641963287,-20,34,6,-24,-20,-17,-6,0
72641969245,22,-1,58,42,14,-12,-1,-8
72641969245,37,-8,-39,4,47,-9,56,48
72641984297,-55,-14,-16,-46,-55,-1,-63,-19
72641984297,-17,-14,4,-2,-21,-19,-46,-31
72641991831,0,-4,-18,-8,0,-22,7,8
72641991831,-17,-8,7,-13,-29,2,-23,-7
72642007397,21,-11,-15,18,21,20,24,9
72642007397,-16,-2,-50,-32,-8,20,6,10
72642008157,-57,16,8,-29,-55,19,-60,-36
72642008157,-36,17,35,-16,-61,-18,-63,-48
72642023214,64,14,42,82,78,-23,31,-9
72642023214,41,-11,-15,11,37,8,72,67
72642029320,13,-8,-35,-21,-4,31,40,49
72642029320,-29,2,-14,-35,-32,24,-17,-2
72642045704,-20,19,14,-3,-25,16,-28,-28
72642045704,-3,21,28,12,-5,-9,-7,-13
72642051720,10,20,22,17,14,-15,13,5
72642051720,13,-5,24,27,9,-23,10,7
72642067324,45,-33,-53,-15,46,-14,38,24
72642067324,25,-15,-62,-17,37,5,40,42
72642068145,-23,-18,-37,-57,-40,9,11,12
72642068145,-64,-6,-20,-58,-62,0,-57,-12
72642083193,-45,3,21,-22,-61,-13,-61,-52
72642083193,-21,-3,17,4,-2,-6,-57,-51
72642089182,10,-4,-2,18,28,-8,-14,-30
72642089182,13,0,-13,1,-18,3,24,23
72642104173,13,-1,-24,-44,-9,-7,63,49
72642104173,26,-13,-37,-26,14,-2,39,34
72642111685,24,-22,-60,-60,6,11,36,25
72642111685,40,5,-29,13,64,-14,23,10
72642128875,47,-9,-23,21,64,-12,32,19
72642128875,31,-22,-14,21,40,-15,18,7
72642129691,31,-18,-26,28,46,-7,-4,5
72642129691,15,-9,22,19,20,-1,16,0
72642143190,-1,5,26,14,6,-16,-7,-2
72642143190,-17,12,6,-1,-17,-18,-16,-6
72642149191,-17,4,1,-4,-16,22,-17,-11
72642149191,-21,5,-7,-16,-17,13,-22,1
72642164173,10,14,9,21,38,3,1,-14
72642164173,-27,-1,36,13,-73,-2,-38,-32
72642171701,-8,21,20,-4,-7,-3,6,-8
72642171701,-8,21,-1,-16,-5,0,-7,-22
72642188841,-14,12,-19,-17,-16,6,-10,-6
72642188841,-3,1,-35,-28,-3,25,9,6
72642189687,-4,-19,-6,4,2,8,-6,4
72642189687,11,-18,-10,3,18,20,6,7
72642203357,1,-27,-11,6,-5,25,4,10
72642203357,-11,-23,-1,3,-7,33,-9,-11
72642209305,-16,-5,-5,15,-14,26,-28,-18
72642209305,-3,10,-48,-33,-2,31,10,2
72642232414,-10,17,-36,-19,-5,18,-3,-1
72642232414,-29,15,9,-27,-36,5,-25,-19
72642233213,-37,6,9,-22,-43,-10,-33,-20
72642233213,-49,9,-6,-48,-47,-9,-46,-32
72642247430,-49,0,-3,-50,-66,3,-37,-28
72642247430,-42,13,-21,-61,-51,17,-20,-11
72642248147,-30,19,-44,-39,-27,4,-15,-7
72642248147,-30,16,-31,-37,-38,0,-22,-26
72642263291,-25,13,-27,-28,-25,2,-15,-15
72642263291,-17,15,-10,-40,-19,-6,7,2
72642269275,3,15,-38,-32,6,2,16,9
72642269275,-13,14,0,-19,-17,4,-1,-5
72642284247,-37,13,39,22,-37,-12,-38,-25
72642284247,15,7,48,65,20,-5,-38,-18
72642291832,32,-6,18,43,54,-3,-3,-13
72642291832,48,-6,-1,30,66,-1,56,39
72642307400,15,-2,3,2,31,2,43,53
72642307400,-15,2,5,-1,-10,-6,-8,-43
72642308163,23,4,20,4,18,12,45,41
72642308163,13,8,6,15,7,14,2,-7
72642323242,57,7,58,66,53,-57,22,14
72642323242,14,-19,-9,12,22,-13,19,22
72642329335,-4,18,13,5,0,-32,0,-2
72642329335,-25,-40,-59,-56,-19,-3,40,28
72642344256,-2,3,7,9,-7,3,-22,-48
72642344256,-12,-24,-17,-16,-10,7,1,13
72642351755,-58,15,-6,-36,-65,15,-69,-48
72642351755,36,11,19,34,57,-15,53,61
72642367403,-21,7,-7,-12,-25,37,-35,-33
72642367403,60,7,40,49,55,-40,45,20
72642368159,-48,-34,-51,-48,-56,8,-50,-4
72642368159,19,0,25,35,22,-35,-2,-32
72642383231,-34,-38,-75,-67,-16,43,4,18
72642383231,45,47,51,52,31,2,4,-50
72642389189,-1,4,4,1,2,48,8,14
72642389189,14,-15,5,27,24,-24,9,5
72642404213,2,-12,7,7,1,-58,6,-40
72642404213,-74,-23,-73,-40,-63,19,-27,49
72642420011,21,-17,14,26,36,-22,27,3
72642420011,35,31,45,44,27,-2,23,-35
72642427484,12,0,6,4,13,-20,18,13
72642427484,43,-14,21,-2,57,-25,55,41
72642428277,17,-18,8,11,18,-40,18,8
72642428277,30,6,35,39,40,3,39,46
72642443292,65,29,62,65,65,-57,69,37
72642443292,0,8,6,-1,-3,-40,-2,-68
72642449321,54,26,59,50,-35,-5,14,-42
72642449321,58,40,67,57,26,-44,37,-32
72642464292,20,1,21,22,-1,-41,8,-56
72642464292,48,30,39,42,50,-4,58,15
72642471792,71,13,67,69,86,-75,81,44
72642471792,-7,-18,12,11,-8,-30,-15,-8
72642487399,59,22,55,56,63,18,64,58
72642487399,4,-20,13,42,51,-40,57,56
72642488256,-14,-15,-10,8,31,-3,17,8
72642488256,-21,10,-9,-11,22,30,2,52
72642503250,-66,-49,-66,-61,-45,11,-50,13
72642503250,-48,-6,-51,-59,-52,37,-51,-48
72642509326,35,35,32,27,-11,-10,-6,-22
72642509326,1,-9,-1,-1,-43,-38,-17,-69
72642524243,68,47,66,64,63,-9,67,9
72642524243,-6,-30,0,23,-2,-50,5,-2
72642531825,-40,-26,-59,-56,-36,-13,-45,-54
72642531825,45,30,46,41,41,-2,37,-16
72642546740,40,1,40,42,31,-62,37,29
72642546740,1,-11,25,-4,25,5,4,8
72642554236,-2,7,5,5,60,29,39,69
72642554236,-66,-38,-63,-69,-66,2,-72,-18
72642563242,13,13,-19,-58,-49,39,48,-42
72642563242,52,16,41,36,35,-47,41,21
72642569295,-18,-27,12,-1,19,-3,-2,-2
72642569295,2,21,7,4,18,35,1,56
72642584214,-61,-34,-70,-59,-51,-18,-73,-33
72642584214,45,29,-2,16,-64,33,41,-56
72642591758,68,18,60,62,42,-32,64,0
72642591758,6,-23,24,29,16,-36,26,-1
72642606730,12,17,68,58,71,26,45,73
72642606730,43,22,44,40,45,24,43,36
72642614180,-2,-7,21,28,20,15,17,0
72642614180,31,30,64,59,60,30,60,53
72642623167,-49,-28,-42,-40,-19,-5,-50,39
72642623167,-60,-19,-43,-49,-34,27,-54,-4
72642629196,-17,10,-21,-19,-20,34,-16,21
72642629196,-64,-37,-73,-77,-71,-13,-73,-63
72642644180,-2,6,-37,-31,-36,23,-43,-49
72642644180,-20,6,-13,-15,-3,15,-19,1
72642651703,-52,-33,-62,-61,-72,-8,-58,-38
72642651703,-52,-23,-55,-56,-61,31,-55,-24
72642666833,-15,3,-5,2,0,38,-12,35
72642666833,-71,-27,-47,-71,-29,-3,-73,39
72642674301,-51,-16,-47,-49,-49,42,-50,-14
72642674301,-10,10,-12,-14,-12,31,-16,15
72642683288,-45,-30,-60,-56,-58,-13,-61,-50
72642683288,2,-1,-56,-56,-51,17,-55,-47
72642689275,13,24,-11,-12,-11,-19,-13,-14
72642689275,-34,-26,-65,-65,-65,-23,-66,-68
72642704303,12,12,-47,-44,-50,39,-47,-47
72642704303,-1,10,-16,-15,-16,8,-14,-11
72642711825,-52,-27,-61,-61,-60,-9,-64,-34
72642711825,-29,-28,-5,-20,-3,24,-21,2
72642726810,34,18,63,60,65,6,56,17
72642726810,31,15,5,20,7,-30,19,4
72642734251,-4,-22,-52,-43,-55,-22,-39,-62
72642734251,-37,-6,-16,-36,-14,22,-35,-12
72642750003,37,15,2,41,31,9,37,-9
72642750003,-12,0,0,0,2,14,-1,3
72642750741,37,7,52,60,62,-15,59,17
72642750741,-17,-22,-73,-71,-73,-25,-71,-69
72642764234,-22,-15,12,-2,8,19,-6,22
72642764234,25,4,-45,-45,-43,5,-42,-47
72642771819,-10,20,52,22,52,20,9,62
72642771819,17,12,3,15,8,-14,14,-7
72642786818,35,1,1,33,1,-6,34,-5
72642786818,-41,-32,-57,-57,-58,-1,-56,-9
72642794314,-9,3,11,-11,8,-6,-15,8
72642794314,-33,-2,-4,-26,-10,2,-37,2
72642809938,36,7,-33,10,-30,3,29,-49
72642809938,-20,9,46,-3,32,24,1,59
72642810785,4,7,-9,3,-6,-23,3,-12
72642810785,51,14,1,22,-1,-3,31,-1
72642824323,-72,-2,27,-35,24,-12,-51,39
72642824323,-22,-23,-23,-29,-20,-6,-29,-13
72642831824,10,-5,-21,-5,-23,-32,4,-46
72642831824,17,0,18,13,12,21,16,16
72642846768,-76,-13,-5,-54,-15,3,-65,11
72642846768,8,4,-29,-20,-40,-18,-19,-25
72642854253,40,3,-41,5,-41,14,20,-32
72642854253,3,25,51,29,49,-13,34,22
72642869849,1,7,2,-18,-25,23,-16,24
72642869849,-11,7,20,23,20,3,19,3
72642870706,26,7,-16,-19,-23,-9,-16,-9
72642870706,39,-7,-2,45,1,9,44,-3
72642884170,-44,1,28,-13,32,-17,-14,28
72642884170,1,-20,-39,-32,-38,-3,-14,-22
72642891697,-18,-19,-18,-6,7,-34,-6,-16
72642891697,5,-36,-72,-5,-32,-14,-1,-64
72642906727,14,-9,-10,12,-1,5,9,-15
72642906727,-8,3,30,30,29,27,25,16
72642914273,-66,-21,22,-46,7,6,-56,27
72642914273,39,14,-16,-24,-24,15,4,-9
72642929938,-27,-4,-44,-45,-66,-16,-39,-43
72642929938,-13,2,29,-16,15,-18,-23,11
72642930801,-6,-9,-13,-44,-42,6,-39,-11
72642930801,-20,-2,-6,-58,-43,-13,-65,-8
72642944300,-5,-2,-9,-65,-46,-15,-64,-11
72642944300,12,11,-3,-33,-41,-9,-31,-14
72642951867,-16,8,-4,-32,-36,9,-58,-4
72642951867,-48,5,4,-28,-6,-5,-32,4
72642966796,-1,9,-6,-26,-8,-14,-25,-7
72642966796,-40,5,7,7,18,-9,-7,1
72642974333,-12,17,13,23,26,9,30,15
72642974333,-33,9,23,3,19,17,-4,22
72642989915,7,-2,-10,25,13,19,24,-7
72642989915,10,3,20,37,36,31,42,20
72642990766,-5,-7,23,1,8,19,6,20
72642990766,2,-17,-7,4,8,-8,1,-7
72643004297,11,-19,-42,17,5,-13,18,-40
72643004297,8,-15,-54,-9,-48,-23,-5,-42
72643011820,-5,-2,-12,-57,-65,-8,-51,-18
72643011820,-51,-2,26,-23,31,-14,-43,25
72643026797,15,-4,3,28,7,7,31,4
72643026797,23,0,25,29,37,5,24,18
72643034264,8,-4,-9,25,23,-2,28,-1
72643034264,5,1,-12,-4,-12,-13,3,-10
72643049935,-7,1,1,-17,-20,15,-19,5
72643049935,-9,15,55,-1,25,0,-3,31
72643050742,25,-3,-31,18,-45,8,41,-15
72643050742,17,-2,1,-39,-35,-2,-42,-11
72643065776,-1,11,-12,6,3,2,-3,-6
72643065776,13,-6,-8,-3,-13,1,-1,-10
72643071799,-12,-1,13,1,23,23,-5,10
72643071799,-4,-10,-21,12,7,-12,12,-14
72643086801,8,-19,-44,-30,-58,-7,-13,-35
72643086801,-31,4,44,-22,34,-14,-38,26
72643094295,-15,0,-7,38,21,-12,32,-1
72643094295,19,3,-7,-7,-18,3,-6,-4
72643110014,-13,17,25,0,15,-4,-7,17
72643110014,5,-6,-11,21,10,8,23,-5
72643110748,1,10,54,-5,31,14,-5,34
72643110748,25,-9,-54,14,-59,-8,42,-37
72643124306,-10,7,13,-49,-11,-17,-56,-3
72643124306,-8,6,-1,13,-1,3,15,3
72643131810,3,0,2,0,12,22,-3,4
72643131810,1,-15,-43,11,2,-5,7,-24
72643146825,-14,2,44,-47,-14,-14,-44,15
72643146825,-10,-4,-18,27,-6,-17,35,-3
72643154315,-1,11,9,-22,-5,-10,-22,1
72643154315,-13,11,23,5,11,-3,3,16
72643169979,10,4,17,26,4,27,27,19
72643169979,1,-2,-7,-52,-26,-12,-59,-20
72643170810,-8,9,-6,-15,-19,-17,-11,-7
72643170810,-16,-21,30,1,23,26,-8,16
72643184291,4,-31,-4,-14,-34,-11,-4,-12
72643184291,0,-19,1,38,5,6,44,6
72643191823,21,-21,-21,4,-7,7,4,-11
72643191823,-8,6,10,-15,1,-11,-20,5
72643206826,-1,-4,-16,22,55,7,6,2
72643206826,8,2,3,-25,7,2,-32,-2
72643214336,-2,0,-6,-4,0,1,-5,-4
72643214336,0,-7,6,0,10,-7,1,-2
72643229913,-21,2,56,-54,18,-10,-57,27
72643229913,19,4,0,1,2,0,-1,2
72643230789,-8,-1,-4,-2,15,-7,-6,-4
72643230789,-7,25,65,-31,12,22,-29,46
72643244196,13,9,-19,-14,-8,-10,-16,-10
72643244196,-11,11,2,-9,1,2,-9,-1
72643251802,-7,-8,20,-9,9,4,-11,12
72643251802,-12,-10,9,-40,-54,-16,-29,-5
72643266763,26,0,-10,22,1,4,38,-5
72643266763,3,4,-5,-1,-2,-9,2,-7
72643274238,-13,8,66,-31,18,4,-28,28
72643274238,16,4,-3,-53,-34,-17,-17,-16
72643289871,-4,9,-3,14,6,7,15,0
72643289871,5,0,17,-7,-1,22,-4,10
72643290696,3,-7,-34,-31,-75,-24,-14,-42
72643290696,8,10,3,21,14,2,20,5
72643304252,0,10,0,10,-1,-4,11,-4
72643304252,-6,8,58,-27,-9,10,-19,31
72643311763,19,-2,-7,-42,-39,-14,-17,-17
72643311763,-17,9,1,3,8,-2,-2,1
72643326754,4,1,10,4,-7,12,6,8
72643326754,-11,0,27,-64,-31,-23,-42,0
72643334205,13,3,3,0,12,5,-2,7
72643334205,1,6,-2,-2,4,-6,-6,-1
72643349822,8,-21,-41,43,3,2,26,-17
72643349822,-1,-1,-16,11,4,-4,6,-7
72643350712,-8,2,12,1,7,15,-3,11
72643350712,2,-13,-5,-34,-55,-15,-12,-16
72643365825,3,-2,3,8,-15,-8,35,-3
72643365825,5,1,-15,5,-5,-7,9,-11
72643371787,-8,10,35,-3,-5,6,-4,19
72643371787,14,2,11,-36,-25,-8,-14,-7
72643386798,-1,6,9,-17,-6,2,-13,0
72643386798,6,-11,-20,10,9,4,8,-11
72643394264,-32,4,30,-26,23,-6,-57,18
72643394264,12,8,5,11,21,16,-6,9
72643410002,3,-2,4,-19,-20,-13,-10,-5
72643410002,6,-1,-45,48,14,-7,29,-12
72643410703,-19,-3,-22,17,4,-9,14,-6
72643410703,-7,0,10,11,9,19,5,8
72643424294,-16,3,28,-55,3,-2,-52,9
72643424294,18,7,8,-9,-14,2,-4,0
72643431742,6,-7,-23,3,3,-10,10,-14
72643431742,-5,-12,-49,59,46,7,20,-4
72643446787,-17,10,5,5,1,-1,1,4
72643446787,-5,-3,16,-11,1,12,-14,7
72643454291,-20,-1,7,-11,24,-2,-41,8
72643454291,-5,12,15,-12,1,-3,-9,5
72643469995,9,4,7,5,-9,14,1,6
72643469995,-1,-5,-2,-43,-23,-15,-22,-13
72643470741,8,-3,-7,6,-6,16,16,-4
72643470741,-3,-10,-28,-6,-19,-13,1,-22
72643484272,-3,1,-3,0,5,-6,15,-1
72643484272,-4,5,10,-6,-7,-7,-2,4
72643491874,19,-6,-39,29,-18,-9,30,-20
72643491874,-12,5,11,-8,0,-5,-9,6
72643506757,8,-10,-25,5,-9,-6,10,-17
72643506757,-8,-1,-2,29,12,-2,23,7
72643514326,5,5,-11,1,-1,-2,11,-6
72643514326,-8,-9,-18,29,49,12,1,1
72643529271,-22,6,1,2,4,-5,-6,2
72643529271,-6,-4,7,2,17,2,-10,3
72643537458,-22,-1,2,34,23,2,3,15
72643537458,-1,11,22,-16,-11,2,-7,8
72643544347,0,-1,2,3,48,14,-26,7
72643544347,-20,5,-4,-12,-8,-1,-9,-4
72643551846,7,-1,1,-16,-12,-1,2,-1
72643551846,-3,2,7,7,-8,0,31,1
72643566790,5,-5,-5,-2,-13,-1,3,-5
72643566790,15,-5,-38,34,-18,1,44,-8
72643574243,4,0,1,-13,-11,-3,0,-6
72643574243,1,-14,-40,1,10,-10,-6,-16
72643589349,11,4,0,-4,-10,-4,13,0
72643589349,0,-1,4,-18,-7,2,-15,-3
72643597542,12,4,5,-30,-53,-10,5,-23
72643597542,2,-4,16,-14,-12,4,-11,4
72643604297,5,2,13,-32,-72,-20,-12,-18
72643604297,13,2,10,-16,-10,0,-11,-2
72643611804,0,2,2,-10,-7,4,-5,-1
72643611804,1,4,14,-26,-7,4,-48,1
72643626826,-1,-1,4,1,2,14,-3,4
72643626826,-24,6,20,-30,32,-2,-71,10
72643634262,-3,8,0,-4,8,5,-10,1
72643634262,-5,4,26,-15,16,7,-10,8
72643649287,-7,4,-1,-1,11,0,-3,3
72643649287,0,-15,-31,-3,-1,-10,4,-24
72643657490,8,0,-8,8,9,1,16,-2
72643657490,2,-5,-8,1,-7,-1,4,-6
72643672476,12,2,-2,-17,-1,-11,-32,-3
72643672476,2,3,6,-3,-2,19,1,2
72643673236,-19,0,12,-30,29,-3,-68,7
72643673236,-3,11,3,4,3,4,3,5
72643686839,2,-14,-32,19,7,-2,19,-12
72643686839,0,-2,-3,4,-8,-4,7,-2
72643694351,-6,-3,33,-38,-32,-19,-26,-14
72643694351,3,10,7,-10,-13,0,-4,-2
72643709280,-4,-5,-10,9,43,10,-12,-3
72643709280,-5,7,12,-9,-1,2,-9,5
72643717547,2,-10,-46,15,-13,-11,19,-43
72643717547,15,3,-10,12,7,-7,4,-5
72643732438,2,4,15,-7,-19,10,2,2
72643732438,-3,5,-2,-6,-8,-8,1,-3
72643733262,1,-12,-16,3,17,3,-4,-1
72643733262,7,4,7,-4,1,2,-3,3
72643746822,-1,-1,-16,4,5,7,5,-4
72643746822,-3,0,-7,2,-2,-8,-17,-6
72643754326,6,3,0,-1,-1,19,4,6
72643754326,-13,-3,9,-4,-9,-8,14,2
72643769349,-6,1,4,6,3,-4,-3,6
72643769349,1,-2,-5,-29,0,-7,-46,-11
72643777515,6,-1,-6,0,-7,11,9,-1
72643777515,2,-1,-9,22,-2,3,9,4
72643792486,-4,2,12,-13,7,-2,-16,3
72643792486,-5,1,9,-36,-15,-6,-31,-4
72643793233,-2,0,-8,12,8,11,6,4
72643793233,-6,-3,-12,20,5,-2,19,-3
72643806856,3,-1,-2,-6,-12,1,0,-4
72643806856,1,-1,9,-17,-11,-6,-25,0
72643814309,-2,1,2,1,9,5,-4,6
72643814309,1,1,-7,3,12,-4,-3,0
72643829263,0,4,-1,-2,-12,-1,3,-7
72643829263,-2,-1,-10,4,-2,5,13,-8
72643837523,0,-15,-28,-3,13,-16,-10,-16
72643837523,14,3,14,-9,-2,10,-7,7
72643852510,-4,0,29,-5,-3,4,-4,13
72643852510,0,0,-16,11,-6,0,15,-9
72643853248,8,-3,-13,-15,-60,-23,14,-17
72643853248,-2,5,6,-3,8,6,-8,-1
72643866848,-7,-2,-43,23,39,-2,-15,-5
72643866848,-3,-7,-7,0,-1,1,5,-4
72643874353,-8,-1,29,-44,-33,-13,-30,2
72643874353,0,2,-2,-2,-5,0,4,-4
72643889253,1,-1,7,-25,-36,-12,5,-9
72643889253,-2,-2,0,0,-8,10,4,1
72643897493,-5,4,-7,23,13,-2,20,6
72643897493,0,-7,-6,-2,0,1,-6,-5
72643912359,-5,5,7,-2,-4,-4,-3,3
72643912359,-1,-13,-13,-2,-4,5,2,-14
72643913189,14,2,1,4,4,2,-1,3
72643913189,-3,-6,19,-8,-11,6,-4,0
72643926833,0,2,2,4,4,4,4,0
72643926833,3,-8,2,-17,-64,-19,7,-10
72643934285,0,3,-7,5,12,4,-3,2
72643934285,4,-2,0,-22,-27,-16,-10,-13
72643949307,2,1,8,-6,-2,10,-5,1
72643949307,5,6,3,-4,0,-11,9,0
72643957515,1,-2,-7,-9,-10,4,-4,-8
72643957515,-3,4,1,0,-1,-2,1,2
72643972440,0,-10,-53,2,1,-4,1,-27
72643972440,8,6,-4,2,5,10,1,0
72643973188,-5,-6,-10,-5,20,1,-6,-2
72643973188,2,-2,-6,2,7,8,2,-2
72643988223,-11,0,6,-6,17,-4,-32,3
72643988223,-2,-1,-7,10,17,5,-3,0
72643994252,1,1,0,1,4,-4,-10,-1
72643994252,-1,-15,-29,0,4,-8,-3,-13
72644010715,1,4,8,-10,-12,-6,-2,2
72644010715,-6,-2,-17,20,6,-10,-6,-26
72644017436,-1,3,6,2,1,10,-2,0
72644017436,-4,1,1,9,0,0,10,1
72644032390,5,0,3,3,-10,4,14,1
72644032390,-13,7,2,-6,3,2,-1,2
72644033202,0,-7,-14,-2,-33,-12,8,-13
72644033202,1,8,1,4,2,6,-4,1
72644046733,13,-3,-2,-10,-49,-9,8,-4
72644046733,1,-2,9,-10,-8,11,-1,5
72644054249,-8,1,-1,-1,1,-8,7,0
72644054249,-2,-1,15,-13,-13,5,-8,10
72644069228,-1,6,10,0,3,1,0,4
72644069228,1,-3,14,-36,-54,-14,-18,3
72644077433,2,3,10,-3,-7,2,1,4
72644077433,10,5,-2,-10,5,-5,-27,-3
72644092481,-2,-12,-4,-4,9,5,-6,-7
72644092481,2,5,-2,7,6,-3,3,1
72644093177,-3,-7,-36,18,19,-2,-9,-11
72644093177,-4,-1,0,-3,-2,4,0,0
72644106857,-1,6,1,11,0,-6,14,2
72644106857,1,0,-11,1,3,4,2,-2
72644122541,1,6,6,-5,-4,2,-2,1
72644122541,0,-3,12,-23,-55,-17,-3,-8
72644129300,1,3,11,-4,-8,6,-2,5
72644129300,0,0,0,-7,7,-4,-22,-2
72644137502,0,-11,-8,-8,2,0,-6,-10
72644137502,1,4,-5,8,5,-1,4,0
72644152538,10,-2,-5,-2,-44,-10,3,-11
72644152538,-2,-2,-2,3,5,3,4,1
72644153294,-4,4,4,-2,-10,-6,-3,1
72644153294,-2,-8,6,-8,-10,4,-2,-5
72644166822,-4,0,5,-6,5,3,-6,3
72644166822,-6,-1,-3,14,4,-3,9,4
72644174303,2,3,2,1,-3,5,1,-1
72644174303,-1,4,-8,6,9,-1,3,0
72644189318,-15,1,1,-33,9,-5,-38,0
72644189318,4,-1,4,-3,-7,3,4,-1
72644197514,-12,3,8,-8,-5,-7,-4,3
72644197514,-3,-11,-12,-3,-23,-9,1,-14
72644212469,2,0,-6,9,9,0,3,-1
72644212469,-5,-6,-2,-14,-3,-10,-22,-4
72644213240,3,-9,-25,-6,-8,-7,-2,-20
72644213240,-2,5,2,-4,11,5,-8,2
72644226786,3,-1,3,-33,-15,-12,-3,-11
72644226786,3,-2,-2,3,2,15,9,0
72644234391,2,-1,6,-3,-8,-2,-1,2
72644234391,6,-3,-3,-5,-36,-9,5,-8
72644249303,3,0,4,5,7,6,0,4
72644249303,8,1,-5,-3,-1,-5,-3,-5
72644257479,-1,-4,-23,21,17,-4,-3,-11
72644257479,0,2,2,1,7,10,0,3
72644272426,-3,1,0,4,-2,-3,0,0
72644272426,2,-8,-5,-7,-5,4,2,-7
72644273179,1,2,10,-3,-8,10,-2,5
72644273179,4,2,-10,3,12,-1,-4,-2
72644286727,1,1,21,5,2,4,0,3
72644286727,-3,1,-3,-2,1,-8,-4,-2
72644294203,-11,0,11,-11,-8,-4,-3,3
72644294203,-4,-9,3,1,9,10,-2,-1
72644309327,0,-2,-5,1,-3,1,-1,-2
72644309327,-3,4,4,-3,-8,-6,12,-2
72644317534,7,2,19,-7,-11,8,3,8
72644317534,-2,10,-4,-1,4,-10,-4,0
72644332484,-16,-1,-10,7,15,-5,-13,3
72644332484,1,1,-2,4,0,8,2,-1
72644333246,1,-1,-4,-2,2,-1,-6,-1
72644333246,-9,-2,-7,8,5,0,-12,6
72644346852,4,-4,-9,6,1,6,5,-1
72644346852,-3,-3,-5,-2,0,-4,-6,-2
72644354349,-5,-1,1,8,-9,-3,4,-1
72644354349,-2,-4,3,0,6,9,-2,8
72644369334,1,-1,-3,-4,-5,-2,0,-2
72644369334,-2,-2,-3,-2,-4,-4,14,-2
72644377494,2,4,16,-1,1,8,-2,2
72644377494,-1,1,-1,-4,0,-7,1,-4
72644392489,-2,-1,-7,24,11,-6,-12,-10
72644392489,0,3,-4,3,0,8,-3,4
72644393284,2,0,-3,-3,0,0,-4,-1
72644393284,0,1,-5,-3,3,-1,15,-6
72644406839,3,-5,8,-1,-6,11,6,2
72644406839,-1,-1,2,-2,2,-3,-9,-3
72644414349,-5,-1,-3,4,-2,-6,4,-3
72644414349,-2,-6,6,-1,2,10,-5,8
72644429286,-1,1,-2,-6,1,-3,-2,-1
72644429286,4,-1,-2,-2,-2,0,7,-4
72644437512,2,0,9,-3,-3,9,1,7
72644437512,-1,1,0,-1,2,-1,-4,-2
72644451863,1,0,-3,-6,-2,4,12,-1
72644451863,0,-1,15,0,-3,5,-5,5
72644460030,1,2,-7,-2,4,1,-4,0
72644460030,4,1,-3,-3,3,-5,-5,-3
72644466797,2,-3,0,-8,-7,8,-1,-3
72644466797,-1,2,-3,0,4,0,-5,1
72644474286,1,3,-4,-4,3,-2,-5,-2
72644474286,-1,-8,-6,-1,-4,-1,-4,-20
72644489321,0,5,0,-1,0,3,0,1
72644489321,7,3,-3,-1,0,-8,-4,-2
72644497575,-3,-5,-26,-1,29,-1,-7,-20
72644497575,-1,4,-1,-1,4,11,-1,2
72644511734,11,4,-4,-1,2,-6,-3,0
72644511734,-6,-10,-31,16,11,-2,-3,-15
72644520013,4,3,4,-3,-4,13,1,4
72644520013,7,4,-3,-1,3,-3,-2,1
72644526744,8,-3,-4,-6,-34,-6,10,-8
72644526744,1,1,5,-1,0,15,0,6
72644534292,2,2,-1,-2,-6,-6,1,0
72644534292,4,-6,-2,-2,-41,-10,12,-1
72644549317,-4,0,5,0,5,11,-3,6
72644549317,0,6,-1,-4,-4,-6,0,-2
72644557511,-6,-4,-1,-19,-19,-9,-7,-8
72644557511,-2,-4,4,3,9,5,2,0
72644571819,-2,6,-6,-1,4,-3,-3,-2
72644571819,-5,-1,-1,-27,-3,-8,-14,-7
72644580040,3,-9,-9,6,8,9,1,-5
72644580040,-2,2,-7,0,7,3,-4,-1
72644586765,6,2,-5,-6,4,-9,-20,-3
72644586765,2,-3,-15,2,7,1,1,-8
72644594339,3,3,2,0,-7,-2,1,2
72644594339,5,0,-5,-1,3,-6,-7,-3
72644609342,1,-8,-43,7,3,-4,5,-16
72644609342,2,2,1,3,-8,2,2,1
72644617497,-4,-3,-4,1,-4,-2,0,-1
72644617497,-1,-7,-18,3,-17,-3,3,-22
72644631825,-5,1,2,-2,2,6,-3,-2
72644631825,-2,3,-2,1,-6,-5,0,-2
72644639965,-2,-1,8,-37,-15,-2,-19,0
72644639965,-4,4,1,-8,6,6,-7,2
72644655040,-4,6,4,-6,-4,-2,-3,-1
72644655040,-2,-3,-3,3,11,-3,-5,0
72644655792,3,8,-5,7,3,3,2,4
72644655792,-2,2,-2,-4,1,-1,-3,0
72644669342,-4,1,0,-4,-4,-4,-2,-2
72644669342,0,-1,-1,-6,4,3,0,3
72644677501,1,2,-2,3,-2,5,-1,-2
72644677501,6,2,-2,-5,0,-4,-5,0
72644691860,1,-5,-10,6,-9,-3,16,-2
72644691860,0,2,-1,0,-4,3,-1,-1
72644700016,0,0,-1,1,-4,-5,-1,-2
72644700016,-1,0,-2,-8,-3,-2,-15,-1
72644714895,1,-5,-8,-3,0,-6,-2,-10
72644714895,0,-2,-1,0,-7,0,-1,-3
72644715734,4,1,-2,1,-3,-3,-2,-2
72644715734,0,0,5,-11,-32,-8,6,5
72644729350,0,0,1,-4,-4,4,-2,0
72644729350,-5,1,-2,-2,-7,-3,0,-2
72644737578,-24,-2,-2,-8,11,-4,-8,12
72644737578,-2,3,-9,-6,3,-3,-5,-7
72644751819,-1,-6,-2,-4,-5,-4,-2,-1
72644751819,-3,-4,-3,8,-7,1,15,-1
72644760014,5,4,26,0,-9,7,0,15
72644760014,-2,1,0,-4,0,1,-3,-1
72644775022,-10,1,-2,-4,-3,4,-3,-1
72644775022,-1,-5,-24,-5,12,2,-7,-3
72644775749,1,0,-7,-2,-2,-2,-4,-7
72644775749,-1,3,-2,-5,-1,-1,-5,-2
72644789311,12,2,-3,5,-15,-1,7,0
72644789311,0,-3,5,1,-4,-6,0,-1
72644797446,0,1,-4,-1,-2,1,-3,-5
72644797446,1,-2,-1,-4,-1,0,-13,-2
72644811844,-1,-3,-26,-5,-2,-5,-4,-6
72644811844,1,1,-3,0,-2,5,-1,0
72644820087,8,-2,-5,0,-1,2,-2,-3
72644820087,2,1,27,-15,-18,-2,-3,0
72644834995,1,-1,3,-4,-2,-4,-2,-1
72644834995,1,4,-2,-1,-2,-1,-1,-1
72644835732,-7,-1,-5,10,9,5,-5,3
72644835732,-1,-2,3,-4,1,-1,-4,-4
72644849285,1,-2,-1,-4,-1,5,-3,-2
72644849285,5,4,-2,0,-3,2,3,-1
72644857481,-1,0,8,-9,-20,-10,9,-6
72644857481,-1,-1,-5,-5,2,0,-2,0
72644871788,-1,1,-1,-4,-1,-1,-2,-3
72644871788,-1,1,3,6,3,3,-13,0
72644879997,2,-6,-27,-2,6,-11,-2,-11
72644879997,-1,-2,-8,-4,1,3,-3,-2
72644894938,-1,4,-2,1,5,5,0,-3
72644894938,-8,4,-2,-6,14,-9,-1,1
72644895748,1,-4,-4,-4,1,-1,-3,-4
72644895748,-2,-3,-6,-3,-1,2,1,-3
72644909307,16,6,6,0,-1,-4,0,1
72644909307,0,-6,-24,7,0,-10,-4,-11
72644917514,0,0,1,-3,-1,9,-5,0
72644917514,-2,2,-3,4,2,3,0,-1
72644931860,2,3,1,-1,1,-6,-6,0
72644931860,4,-9,-12,-2,-26,-8,3,-13
72644940011,0,1,-2,1,1,7,-3,-3
72644940011,-5,3,-5,0,-1,1,-2,-2
72644955053,-10,-1,2,-10,-3,-10,-8,4
72644955053,0,-1,-2,-4,-2,1,1,-1
72644955817,0,0,1,-2,-3,2,-3,-1
72644955817,6,7,-3,-2,-1,-4,-1,0
72644969293,4,-2,-6,-8,-24,-14,3,-7
72644969293,-1,0,8,-2,-1,8,0,3
72644977546,1,4,0,-4,-2,-1,-1,-1
72644977546,6,3,-4,0,2,-2,1,-1
72644991856,-2,-5,3,-17,-36,-10,0,-2
72644991856,-1,1,3,-5,-3,7,1,1
72645000016,2,-3,0,-2,-2,-2,1,0
72645000016,-9,1,-1,-1,-2,-7,1,-1
72645014944,-4,-4,3,-1,11,4,-3,-12
72645014944,0,0,2,-5,-2,6,0,-1
72645015800,-1,3,0,-1,-2,0,-2,-2
72645015800,-8,-4,-3,-10,-15,-8,-16,-11
72645029384,-4,-8,-17,2,9,9,-2,-6
72645029384,-2,0,-1,-2,0,4,-1,-2
72645037453,-5,3,-1,-1,0,0,-2,-2
72645037453,-12,-1,0,-18,-1,-9,-31,-8
72645051852,-2,0,-3,2,5,3,-2,-2
72645051852,2,-6,-1,1,-1,-6,-3,-3
72645060025,-7,3,-2,-2,-1,-2,9,0
72645060025,1,-6,-29,-2,1,-6,1,-9
72645075025,-1,0,-2,1,2,6,-3,0
72645075025,-3,5,-3,-3,-2,2,1,0
72645075747,-5,2,-1,1,1,-4,-7,-2
72645075747,2,-7,-7,2,-22,-8,7,-8
72645089337,-2,1,-3,1,1,5,-2,-2
72645089337,0,2,0,-1,-3,-3,0,-3
72645097510,3,1,1,-2,-3,-4,9,-1
72645097510,2,-5,-6,-2,14,5,1,3
72645111813,-1,-1,-1,-3,1,6,-2,0
72645111813,-1,5,0,-3,-1,2,-1,0
72645119989,-5,-1,-6,1,-1,-1,-8,-3
72645119989,-1,-4,1,-7,-28,-9,7,-8
72645134967,-1,0,0,-2,1,-1,0,-2
72645134967,0,-2,-2,-2,-2,0,-2,-2
72645135746,-7,-3,-2,-3,-4,-2,-5,-3
72645135746,-2,1,2,-5,2,-3,0,-13
72645149374,-3,-5,0,-2,1,6,-1,1
72645149374,-1,-3,-2,-1,-3,-6,-1,-3
72645157490,-5,-4,0,-3,-6,-1,-4,0
72645157490,0,-3,11,-22,-27,-5,-11,8
72645171811,-2,-1,-6,-2,-2,-7,-2,-3
72645171811,-4,1,-4,-5,0,3,-4,-1
72645180779,-5,0,-4,-5,3,1,-3,-5
72645180779,-2,0,-17,14,10,4,5,-7
72645194353,0,0,-2,-1,-1,3,-2,-1
72645194353,-1,1,-4,-2,-4,3,1,-1
72645203364,10,2,-1,-3,-5,0,-2,-1
72645203364,1,-3,2,-1,-19,-2,4,1
72645218193,0,0,-2,-1,-3,0,-1,-1
72645218193,-2,0,-1,-3,1,-11,0,-4
72645219802,-4,-4,-3,-3,-2,-5,-1,-1
72645219802,-2,-2,-27,3,25,0,-6,-3
72645231828,-1,0,-4,-2,1,-2,-1,-4
72645231828,-2,1,-2,-2,-2,1,-3,0
72645248272,2,0,-3,-1,-1,-3,-2,-3
72645248272,1,2,16,-24,-3,0,-9,4
72645254338,-1,-1,-1,-4,-2,3,-1,-1
72645254338,0,-2,-1,-4,0,4,-2,-2
72645263323,-2,1,-3,-4,-3,-3,-5,-3
72645263323,1,3,3,-3,0,-11,-19,-15
72645269287,0,-6,-1,-1,1,-3,-3,-7
72645269287,0,-3,0,-3,-2,-4,-4,-2
72645278334,0,-3,-1,-6,-3,-2,0,-1
72645278334,-8,0,6,-4,17,5,-5,11
72645291838,-1,-5,7,-2,2,-4,-2,-3
72645291838,-1,-4,-4,-2,0,3,-2,-3
72645300795,0,0,-1,-2,-2,-4,-6,-4
72645300795,-3,-1,0,-10,3,1,3,-2
72645314381,0,-6,-21,-3,0,-8,-2,-9
72645314381,-3,-3,-3,-4,1,0,1,-2
72645323251,0,1,-4,-3,2,-1,-4,-2
72645323251,2,6,1,9,5,4,5,4
72645329307,0,-3,-22,-6,-10,-14,-1,-12
72645329307,0,-3,2,-4,-4,-2,-4,-1
72645339014,-3,-4,-3,-5,-3,6,-6,-3
72645339014,12,0,-6,10,3,7,8,0
72645351895,-17,3,6,-22,3,-10,-20,0
72645351895,0,-4,-2,-3,-3,0,-4,1
72645360732,2,-4,-2,-6,-4,9,-1,-3
72645360732,-2,5,-1,3,-3,7,4,1
72645374266,2,4,5,-1,2,-6,-15,6
72645374266,-1,-8,-24,-2,-2,-8,-3,-9
72645383307,0,-3,-2,-5,-2,1,-3,0
72645383307,-2,0,-4,3,0,7,-1,0
72645389280,3,0,2,6,0,6,15,2
72645389280,-2,-8,-29,-7,3,-7,-4,-16
72645398306,2,-2,-3,-2,-3,4,-3,-3
72645398306,-3,-5,-6,0,-2,1,1,-4
72645411889,-2,9,-1,3,0,-3,5,3
72645411889,-1,0,9,-7,-1,-6,-4,8
72645420811,0,-5,1,-4,-1,-3,-2,-5
72645420811,1,-4,-1,-2,-5,9,0,-1
72645434313,2,4,3,-2,-3,2,0,1
72645434313,2,2,9,-5,-1,1,-14,2
72645443373,0,-5,-22,1,-18,-15,-3,-18
72645443373,-1,-3,-2,0,-2,2,-1,-1
72645449383,1,-5,-5,4,2,4,1,-2
72645449383,-6,6,5,0,0,7,4,-1
72645458308,-2,1,-4,-2,-16,-10,5,-2
72645458308,-1,-9,-2,0,-2,-3,-1,-2
72645471831,3,-2,-3,-1,-3,6,1,-3
72645471831,3,3,4,1,-3,3,1,1
72645480878,-8,5,6,-3,3,-3,6,4
72645480878,-2,-5,-19,-6,-21,-15,-3,-6
72645494375,-1,-4,1,-4,-3,6,-2,1
72645494375,-1,5,2,-1,-2,1,0,0
72645503328,-8,0,-3,5,9,0,-1,1
72645503328,-10,1,1,-13,15,-5,-1,-1
72645509283,1,-5,0,-2,-1,1,-1,2
72645509283,-1,-1,-1,-2,-3,5,0,-2
72645518408,4,0,1,-4,1,2,-3,1
72645518408,7,2,1,4,-1,-1,-2,1
72645531811,1,-5,7,-16,-43,-13,0,-1
72645531811,-1,0,2,-2,-3,1,2,0
72645540883,0,0,-2,-2,1,5,-2,1
72645540883,10,6,0,3,2,0,-1,-1
72645554288,-14,3,-2,-20,1,-7,-21,-13
72645554288,1,-4,-6,0,-4,-4,0,4
72645563383,3,-2,0,-5,-3,10,-4,0
72645563383,-2,4,1,-2,-3,1,1,-2
72645578224,10,5,-1,4,8,3,2,2
72645578224,-1,-2,-14,2,-2,-9,-5,-3
72645579848,0,-7,1,-3,1,3,-5,0
72645579848,-2,-2,-2,3,1,6,-2,1
72645591852,1,5,-4,5,3,2,5,-1
72645591852,1,1,4,-1,-3,-1,5,-1
72645600836,5,-8,-20,0,-6,-12,1,-12
72645600836,0,-3,-2,-3,-6,12,-1,-4
72645614333,0,-1,1,-1,-1,-3,0,1
72645614333,6,3,1,-1,0,-1,1,-2
72645623336,-8,9,0,-7,-4,-9,-25,1
72645623336,-2,-5,-2,-3,-4,-3,-3,0
72645638188,3,-1,-4,5,-1,6,2,0
72645638188,-1,6,-2,2,-2,0,1,-1
72645639739,-5,2,4,-12,3,-3,1,-2
72645639739,0,-2,-4,0,0,-7,-2,-7
72645651812,0,0,-1,1,-1,7,1,0
72645651812,-1,-5,0,-4,-1,2,-2,-3
72645660816,7,3,1,2,2,2,1,2
72645660816,-10,3,2,-18,-4,-14,-10,11
72645674353,0,-9,-13,-1,-3,-8,1,-17
72645674353,-1,-2,0,-2,-2,8,-1,-2
72645683362,3,0,1,-1,-2,4,1,-1
72645683362,3,1,-1,3,-1,-1,2,-2
72645698221,-12,6,2,-27,-11,-10,-14,-5
72645698221,-3,-4,-8,-3,-5,-7,-3,-22
72645699785,0,-2,0,0,1,6,1,-3
72645699785,1,5,2,-6,-7,5,-3,-4
72645711812,-1,1,0,4,3,-5,11,5
72645711812,-1,-4,-18,-1,-15,-11,-6,-7
72645720836,-1,-5,2,-6,-5,2,-3,1
72645720836,0,-2,-1,0,-4,1,0,-4
72645734492,4,5,-3,6,-2,1,4,-1
72645734492,-1,3,4,-1,2,1,6,4
72645743342,3,-7,-5,-2,-9,-8,-1,-9
72645743342,-1,-2,0,-4,-10,7,-3,-2
72645758188,0,3,3,-1,-3,3,-1,1
72645758188,11,2,2,-2,3,-3,-2,3
72645759802,-16,4,-2,-2,20,-29,-20,0
72645759802,-1,-9,-20,-4,-9,4,-2,-28
72645771843,2,-2,-2,2,-6,11,0,-1
72645771843,-2,0,-2,1,1,3,2,-1
72645780870,-3,4,-2,4,5,4,4,0
72645780870,-6,3,4,-7,0,-14,-11,2
72645794350,0,-11,-10,-1,-4,-6,-2,7
72645794350,-3,-1,-1,-3,-7,9,-3,-1
72645803326,3,2,1,-4,-7,9,1,2
72645803326,11,4,5,-1,1,0,0,2
72645818204,-10,2,-1,-12,-2,-6,-9,0
72645818204,-3,-10,-7,-1,1,-6,-1,-4
72645819787,2,-4,-5,0,-4,7,3,-2
72645819787,-1,5,-1,-2,-2,4,2,1
72645831785,16,3,4,4,4,-2,0,0
72645831785,3,2,0,5,-1,-8,-13,5
72645840870,2,-1,5,-3,-8,3,-1,-6
72645840870,-1,-3,0,1,-1,7,-4,1
72645854361,0,3,0,1,-4,1,-1,-1
72645854361,5,6,4,-3,1,0,1,1
72645863310,-3,-1,-4,-17,-5,-6,-13,-2
72645863310,-1,-4,-3,-3,-5,0,-2,-19
72645878194,0,-3,-2,2,0,6,2,-5
72645878194,-2,5,-1,-2,-3,0,1,-2
72645879805,-11,3,2,3,2,-2,1,4
72645879805,-11,-3,0,-11,-5,-13,-13,-6
72645891819,-2,-4,9,-2,-3,-1,-4,-2
72645891819,-4,-1,-1,1,1,6,-1,-3
72645900802,5,-3,-2,-2,-3,4,1,0
72645900802,5,4,5,0,0,-3,0,7
72645914370,-3,-3,-2,-19,-22,-11,-19,-4
72645914370,-2,-2,-2,-5,-4,1,-1,2
72645923375,3,-2,-6,4,0,15,2,-4
72645923375,0,-1,-2,1,0,-3,0,2
72645938176,10,7,4,2,4,5,1,2
72645938176,4,1,-1,-3,-1,-5,-1,-6
72645939747,2,-4,-9,-1,-4,-2,-3,-5
72645939747,0,0,1,-2,2,11,0,3
72645951788,-1,3,-4,0,-1,-1,1,-1
72645951788,2,4,3,-1,-4,-1,0,0
72645960765,-6,4,-1,0,1,-3,-12,2
72645960765,0,-8,-5,-6,-3,-8,-2,-14
72645974265,-2,-8,-3,4,5,1,4,-2
72645974265,-4,-3,-3,-2,-1,5,1,-1
72645983264,3,4,2,2,3,0,1,1
72645983264,16,4,1,1,1,-2,1,5
72645998120,7,0,-2,-10,-9,-12,-3,-6
72645998120,1,-7,-10,-1,0,-9,-1,-17
72645999716,3,-1,0,-4,-3,6,1,-2
72645999716,-3,7,1,0,-3,-5,0,2
72646011771,3,1,-2,2,2,-4,4,0
72646011771,-6,4,1,-19,-14,-7,-16,9
72646020837,3,-6,-17,0,3,-6,2,-9
72646020837,-2,-2,-3,-2,-2,4,0,1
72646034407,-3,1,-2,0,1,6,-1,-2
72646034407,-2,8,1,2,4,3,3,1
72646043342,-1,2,1,-2,-3,-4,-4,-1
72646043342,-9,-5,0,-35,-24,-14,-26,-6
72646058217,-2,-11,-6,-1,1,3,-1,-9
72646058217,-2,-4,-1,-2,-5,9,0,-2
72646059834,5,0,0,0,-3,3,4,-1
72646059834,9,3,1,4,5,2,5,3
72646071851,-2,2,-1,-6,-3,-5,-3,-1
72646071851,2,-8,-13,0,-4,-2,1,-6
72646080867,0,0,1,-5,0,10,-3,-1
72646080867,-2,-2,-2,2,2,7,1,1
72646094268,-3,5,1,-1,-2,3,-1,-1
72646094268,1,2,2,1,3,-5,0,1
72646103319,1,-3,-17,-6,-13,-13,-3,-1
72646103319,-3,-11,-1,2,2,7,1,-3
72646118273,0,0,-3,-1,-2,4,0,1
72646118273,0,12,1,1,1,1,3,1
72646119772,3,6,3,-3,-1,-1,-1,-1
72646119772,-9,0,-2,-16,-1,-8,-10,-3
72646131916,0,-5,-19,2,-13,-13,-1,-8
72646131916,1,-3,1,-5,-3,4,-3,-1
72646140836,0,-3,0,-4,-3,3,-1,-4
72646140836,1,5,-3,6,4,4,5,1
72646154365,10,7,3,-3,1,5,-2,2
72646154365,-5,-4,-2,-12,-18,-10,-22,0
72646163335,2,-6,4,0,0,6,-1,0
72646163335,-1,-2,-2,1,-5,10,0,0
72646177214,-3,2,0,-3,-1,1,-1,0
72646177214,16,1,2,1,1,4,2,0
72646185870,-4,4,1,-1,-1,-11,-10,5
72646185870,3,-4,-11,-4,-5,-12,-2,-9
72646191792,-2,-6,4,-5,-1,6,-5,1
72646191792,-2,-2,-3,1,3,7,3,-1
72646200744,0,3,-4,1,2,6,0,-2
72646200744,6,2,0,2,0,2,1,1
72646214258,-10,-4,-2,-18,-12,-15,-23,-6
72646214258,-2,-11,-14,-1,1,-7,1,-13
72646223301,0,-2,-1,-4,-4,5,0,-3
72646223301,-1,-1,-2,1,-3,2,-2,-1
72646238147,2,7,1,2,3,3,3,2
72646238147,5,8,1,-1,-1,-6,1,1
72646239769,-7,0,-1,-11,-2,-8,-6,-7
72646239769,1,-6,-17,0,-2,-1,2,-8
72646251735,-3,-3,-3,1,-2,12,2,-2
72646251735,-2,-2,-1,0,-3,5,0,-1
72646260897,5,2,-3,3,1,4,4,-1
72646260897,3,4,3,-1,-2,0,-1,2
72646274395,2,-3,-13,0,-11,-11,-2,-12
72646274395,-2,-7,-2,1,1,1,-1,-6
72646283306,1,-2,0,-1,-2,6,-3,-1
72646283306,0,7,0,1,0,1,2,-1
72646298270,8,5,0,2,1,0,2,1
72646298270,-13,0,1,-21,-8,-8,-11,11
72646299787,-1,-8,-18,-1,-13,-10,0,-10
72646299787,0,-3,0,-3,-3,8,-3,0
72646311792,2,0,-1,0,0,8,3,0
72646311792,1,5,1,4,1,3,2,-1
72646320794,-2,4,2,-3,0,-3,-1,1
72646320794,0,-1,-1,-29,-10,-10,-12,1
72646334268,0,-8,-3,-1,2,4,1,0
72646334268,3,-2,-4,-1,-2,14,2,-3
72646343357,1,6,-3,0,-2,-2,-2,-2
72646343357,12,8,3,4,0,1,2,0
72646357600,2,4,0,7,0,-6,1,7
72646357600,2,-6,-5,-2,11,-6,-2,-5
72646364364,3,-3,4,-4,2,3,-1,1
72646364364,-4,-1,-2,2,1,3,1,-1
72646371846,1,6,-3,-2,1,4,0,0
72646371846,2,8,-1,3,-1,-4,2,-1
72646380835,-11,-2,-1,-15,-15,-10,-23,-5
72646380835,-1,-4,-17,2,0,-7,0,-8
72646394377,-3,-3,-1,-3,-3,5,-2,-2
72646394377,0,0,0,0,-4,2,1,0
72646403342,7,-1,0,-1,5,2,3,-1
72646403342,-16,-3,1,1,-3,-9,-11,0
72646417611,1,14,1,-26,-15,-22,-15,-10
72646417611,-1,31,-23,-2,0,-1,-1,-16
72646424301,3,58,-13,0,-1,-5,1,-10
72646424301,0,-19,-14,2,-3,-2,2,-10
72646431825,-1,-47,-5,4,4,7,4,-6
72646431825,-1,-49,1,-1,-5,3,-1,1
72646440802,0,-40,1,-1,-2,12,2,0
72646440802,0,2,1,0,2,8,0,-1
72646454272,-3,7,0,1,3,4,0,1
72646454272,1,-6,3,-1,-3,-2,-1,0
72646463338,-6,2,-3,3,2,0,0,1
72646463338,-11,3,3,-12,-1,-5,-10,-3
72646477484,-1,-2,-20,0,-3,-8,-1,-12
72646477484,-3,0,-1,-1,-5,2,-1,-1
72646484353,3,-3,-4,-1,-1,3,2,-3
72646484353,2,9,2,1,2,0,2,1
72646491852,-2,7,3,-2,0,7,0,2
72646491852,8,4,-1,-1,-1,-4,-2,-1
72646500884,-16,-3,-1,-2,1,-11,-17,-3
72646500884,2,-9,-4,0,-8,-5,-1,-4
72646514328,-2,-2,-1,0,0,1,-2,-3
72646514328,1,2,-2,-2,-2,3,1,-3
72646523392,4,-2,0,-1,2,7,1,0
72646523392,-1,2,0,1,0,1,-1,1
72646537573,9,10,-2,0,0,-4,1,-1
72646537573,-1,0,0,1,-1,-5,-7,2
72646544403,4,-10,-13,-4,0,-5,0,-1
72646544403,1,-1,-1,-1,0,4,-2,-9
72646560753,-1,0,-2,0,1,9,2,-1
72646560753,0,3,-2,0,-1,3,-2,-2
72646562315,2,1,-1,0,-1,-3,1,1
72646562315,1,1,-2,-1,0,-1,1,0
72646574399,6,-3,1,10,2,-8,0,0
72646574399,-2,-1,-11,-3,-15,-9,-4,-4
72646583333,2,-11,-18,0,-1,-6,0,-12
72646583333,1,0,-4,1,0,7,1,-2
72646597517,-3,2,-1,-1,-4,6,1,-1
72646597517,0,6,2,0,3,2,0,0
72646604415,6,3,1,1,0,-2,1,-1
72646604415,6,-3,-2,-7,-2,-3,10,5
72646620783,-1,-3,-18,-4,0,-4,-1,-12
72646620783,1,-2,-4,-1,0,4,2,-3
72646622348,0,-3,0,-1,-2,6,-1,0
72646622348,0,8,2,1,3,7,-2,0
72646634375,10,4,2,-3,-1,-5,-1,2
72646634375,-1,1,-2,-15,1,-2,3,-9
72646643350,3,-7,-10,4,-20,-8,5,-6
72646643350,-1,-3,-5,0,-3,2,-3,-2
72646657548,-4,-3,-1,-3,-2,5,-1,0
72646657548,2,0,-2,3,2,5,-1,-1
72646664296,1,8,9,-3,2,4,-2,5
72646664296,9,3,-4,0,-2,-6,-2,-2
72646680634,1,0,0,-12,1,-5,-4,-3
72646680634,3,-1,-1,-2,-23,-9,0,-9
72646682233,0,-5,-2,-3,-2,9,-2,-3
72646682233,-2,-1,-4,1,-3,6,-3,-2
72646694287,0,7,2,2,4,7,2,-1
72646694287,0,3,1,0,0,3,-3,3
72646703299,-2,2,-2,-2,-1,-4,-1,-2
72646703299,-6,0,-2,-8,-6,-8,2,7
72646717442,0,-9,-8,-1,-13,-8,-1,-18
72646717442,-3,-4,-3,-2,-1,8,-2,-1
72646724331,0,1,-1,-1,-1,2,-3,-4
72646724331,2,5,1,2,3,6,-1,-1
72646740600,-3,6,-1,-3,-3,-2,-2,3
72646740600,7,1,-1,0,0,-10,-1,-2
72646742210,2,-1,1,-10,5,0,2,-10
72646742210,1,-1,-11,-3,-25,-14,-2,-3
72646763271,-1,-3,0,-3,-3,-1,-3,0
72646763271,1,-4,-2,0,2,-1,-1,-4
72646764837,2,-1,4,-1,-2,3,1,4
72646764837,8,9,0,-2,2,-2,-4,-6
72646777585,-5,-1,1,9,-1,-2,-8,1
72646777585,0,1,-10,-3,-18,-7,-1,7
72646784340,0,-4,-20,-2,-3,4,-4,-6
72646784340,-2,-6,-2,-1,0,-2,-4,-5
72646800773,3,3,-2,3,0,8,4,1
72646800773,-1,5,5,-1,6,4,-3,0
72646802306,-1,3,0,-1,-3,0,-3,-2
72646802306,2,-1,-1,0,0,3,-1,-3
72646814368,-5,0,5,-12,-3,-7,-12,4
72646814368,-1,-7,-20,0,-6,-10,-2,-9
72646823346,0,-7,-4,-3,-3,-31,-3,-6
72646823346,-2,-5,-2,0,3,12,-1,-3
72646837595,2,4,1,0,0,16,1,1
72646837595,-1,4,3,-2,2,1,-2,0
72646844367,-1,0,-1,2,-1,-4,1,0
72646844367,-10,4,1,-20,-21,-15,-25,-7
72646860758,0,-5,-10,-4,-3,-14,-1,-6
72646860758,0,0,-1,-3,-2,2,-2,-4
72646862339,3,2,2,-1,-3,9,0,0
72646862339,0,-1,1,0,5,1,2,0
72646874392,-4,-2,-2,-3,-5,-5,-1,-1
72646874392,1,1,1,-1,1,-8,-1,-2
72646883316,-1,-2,-3,-11,-16,-6,-6,-4
72646883316,-1,-8,-18,-1,-2,-5,0,-9
72646897587,0,-3,-4,-3,-5,4,-1,-3
72646897587,3,-3,0,4,5,7,6,-1
72646904370,-1,-2,3,-1,-1,0,-2,1
72646904370,3,7,-1,0,-1,-4,1,-2
72646920726,-7,9,-1,-12,-10,-8,-17,0
72646920726,-2,-10,-3,-4,-1,3,-6,-1
72646922288,1,-5,-4,-1,-1,5,-1,-2
72646922288,-1,-3,-2,1,0,4,2,-1
72646934782,3,9,4,3,6,7,4,2
72646934782,0,0,2,-3,-4,-5,-3,1
72646943274,-10,1,-2,-16,-24,-11,-14,-6
72646943274,1,-14,-15,4,5,-4,3,-13
72646957529,0,-1,-3,-2,-4,-1,-1,-2
72646957529,-2,8,-3,-4,-4,-1,-2,-1
72646964357,13,6,3,6,6,7,5,2
72646964357,-6,6,2,-12,-1,-2,-7,-2
72646980655,3,-9,-19,-2,2,-7,2,-12
72646980655,0,-3,2,0,0,7,0,-2
72646982268,0,0,-4,4,8,10,2,-1
72646982268,1,6,-1,3,-3,-2,1,1
72646994265,1,3,0,1,0,-21,-6,-1
72646994265,-1,2,0,-17,-25,-7,0,-2
72647003324,-2,1,-5,1,0,-2,0,-3
72647003324,1,8,0,-1,-2,4,-1,2
72647017521,2,11,4,-1,-2,1,1,1
72647017521,14,1,0,2,3,-5,-3,0
72647024372,-19,1,-2,-5,-1,-13,-15,-1
72647024372,1,-28,-13,-1,-5,-7,0,-21
72647040721,-2,-11,2,-2,-2,12,-2,0
72647040721,-2,-9,-4,2,2,4,-1,-4
72647042300,0,-10,-1,2,5,9,3,0
72647042300,-12,-4,2,-19,-1,-4,-23,7
72647054385,-1,-11,-7,-3,-4,2,-1,-3
72647054385,-4,0,-4,0,-1,0,-2,-3
72647063435,3,2,-3,1,-1,3,3,-2
72647063435,-2,8,5,-13,1,-1,2,0
72647077500,3,-3,-16,-3,-11,-10,1,-9
72647077500,-4,-3,-1,-4,1,10,-4,1
72647084319,1,5,-3,-1,5,3,-2,-2
72647084319,17,3,0,7,-1,9,4,0
72647100730,4,2,5,-19,-6,-7,-15,0
72647100730,-2,-8,-5,0,4,-1,-1,-9
72647102315,5,-2,-5,-1,-2,-2,1,-2
72647102315,14,10,1,2,-2,5,1,3
72647114387,0,7,5,-3,11,-9,9,0
72647114387,0,4,1,-2,1,-6,-3,7
72647123386,4,-2,-2,-5,0,3,0,-1
72647123386,-1,6,2,1,-1,2,1,2
72647137542,-1,-1,4,-7,0,-3,-16,0
72647137542,0,-5,-29,1,-6,-11,0,14
72647144337,2,-1,-5,-1,0,3,2,0
72647144337,-3,-4,-5,3,5,-4,-1,3
72647160746,3,-24,0,4,-3,-10,15,1
72647160746,0,4,30,-6,-9,-5,-1,-24
72647162306,2,1,1,-3,-4,6,-1,-2
72647162306,13,10,-1,-2,-1,5,0,-2
72647174461,1,8,13,-3,2,12,-3,5
72647174461,3,-1,1,-1,0,3,0,1
72647183372,1,7,1,-2,-2,-2,1,0
72647183372,-2,-20,-44,1,19,2,-5,-10
72647197569,1,3,-4,2,-3,11,2,2
72647197569,12,2,-6,-1,3,-7,-2,1
72647211816,7,0,-16,21,-3,-7,29,-18
72647211816,-2,-8,6,1,-4,-4,6,6
72647220674,10,-4,-3,2,-2,-4,2,0
72647220674,-5,-8,-25,-10,-9,-14,-3,-10
72647222223,1,3,3,-6,0,11,-7,4
72647222223,6,9,6,-1,-6,5,2,-1
72647234329,-1,-3,-2,0,1,14,2,-12
72647234329,0,12,8,1,1,4,0,0
72647243297,-9,-8,-3,5,8,-13,-14,5
72647243297,-3,-7,-6,2,4,6,0,-2
72647257504,-5,6,-4,1,2,1,-2,0
72647257504,-10,-5,22,-38,-31,-10,-19,-12
72647264262,1,-2,2,-8,-8,0,1,-1
72647264262,-1,5,12,-9,-9,-5,-18,0
72647280017,0,-4,-7,0,1,4,-3,-7
72647280017,13,9,-4,8,8,1,2,2
72647286788,3,2,12,-9,-5,1,-6,8
72647286788,-9,4,4,-1,-5,-4,3,-2
72647294260,0,-1,2,-2,-7,7,3,6
72647294260,-3,5,-2,8,13,8,3,4
72647303294,1,10,23,-9,-6,2,-2,16
72647303294,3,10,-6,7,-7,-4,10,-1
72647317489,2,-7,-24,-6,-7,-3,0,0
72647317489,15,8,8,1,-2,4,4,5
72647324297,-2,5,24,1,-3,-1,1,19
72647324297,-1,5,4,-3,-7,-1,1,0
72647340012,5,-9,-54,1,-5,-4,1,-23
72647340012,5,5,-5,2,5,4,2,1
72647346852,-1,-8,-30,-6,22,3,-6,-26
72647346852,-3,-6,7,-6,-8,2,0,-1
72647354378,2,-2,30,-39,-65,-20,-4,-9
72647354378,-1,-5,-14,15,0,-1,13,0
72647363362,2,-9,-29,10,-17,-13,19,-16
72647363362,-5,-9,6,-12,-3,-2,-10,-1
72647377568,-9,6,39,-37,-39,-7,-33,-14
72647377568,-1,2,0,1,-8,-2,10,-2
72647384329,1,5,8,-6,18,5,-4,-3
72647384329,-14,6,4,-12,-4,-2,-9,-2
72647400068,-2,-2,-28,12,-2,-8,6,-3
72647400068,17,4,-8,13,5,5,6,-2
72647406916,1,4,1,2,-2,2,2,6
72647406916,8,-11,-2,-3,-11,-3,-7,-1
72647414389,5,-2,5,2,13,17,-7,-2
72647414389,6,4,10,-10,-3,-5,-4,1
72647423307,1,10,29,9,-3,7,7,20
72647423307,5,-8,-4,-11,1,-3,-18,-3
72647437538,2,4,8,0,-5,2,4,6
72647437538,-7,-4,-3,-1,1,-1,13,0
72647444339,-1,6,2,0,2,7,-3,7
72647444339,1,9,-2,-4,1,-7,-15,-3
72647468279,1,1,-2,-3,3,5,0,-1
72647468279,-17,4,-1,28,22,1,-21,14
72647469863,3,8,1,0,2,6,-6,-1
72647469863,-8,8,50,-15,-16,12,-8,22
72647483271,1,3,-14,-8,4,-14,-17,-1
72647483271,1,-8,-6,1,-5,3,12,-6
72647484807,2,-13,-27,-6,-34,-16,3,-18
72647484807,3,-2,-13,-1,-3,0,23,-8
72647497600,0,4,7,-4,-4,-1,0,0
72647497600,-3,-10,-43,35,18,-4,6,-18
72647504426,-11,1,-2,1,4,0,1,-2
72647504426,3,-11,-45,3,-15,-11,10,-29
72647520018,0,-2,-10,29,1,-9,17,2
72647520018,2,6,1,-6,1,5,3,-1
72647526844,3,6,35,9,-2,10,8,19
72647526844,8,-1,-3,-33,-11,-11,-21,-7
72647543216,-2,3,4,-5,10,5,-6,4
72647543216,7,-15,-30,4,-26,-8,1,-17
72647544788,-18,0,1,13,9,-1,24,1
72647544788,-8,2,9,-2,6,1,-6,5
72647557558,0,-5,0,-33,-33,0,-19,-15
72647557558,7,6,17,-18,-22,4,7,3
72647564390,10,-13,-45,-3,5,7,0,-33
72647564390,-15,-1,-4,15,-3,-19,29,-4
72647580135,0,-5,-25,13,0,1,11,-7
72647580135,9,0,-6,-10,-40,3,32,-19
72647586925,1,3,5,-5,6,-1,-10,5
72647586925,1,-19,-53,15,6,24,-6,-29
72647603237,0,-4,31,-36,-47,-15,-6,0
72647603237,-9,11,15,-16,10,6,21,9
72647604816,5,0,5,-12,-11,5,-4,-2
72647604816,-3,2,29,-18,-22,4,-12,16
72647617599,10,8,-6,-5,7,-6,-17,0
72647617599,-2,-9,-1,-7,5,17,-6,1
72647624356,-20,16,18,-13,35,-9,-57,17
72647624356,-3,3,-1,8,5,0,0,3
72647639872,-10,-4,-9,3,37,-3,-5,1
72647639872,-12,-1,13,-3,5,-9,-15,7
72647648348,4,-16,-43,7,3,-7,6,-20
72647648348,8,5,7,-2,5,11,4,4
72647663253,2,-4,-15,1,-3,15,9,-11
72647663253,6,-5,4,-47,-18,-4,-6,-5
72647664761,5,-2,4,-8,-12,1,5,1
72647664761,2,-3,1,-28,-26,7,5,-10
72647677536,-4,0,-5,7,7,1,9,-1
72647677536,-9,-11,-29,4,42,10,-15,3
72647684394,-20,-3,-2,1,4,5,-4,3
72647684394,-7,-9,-29,-1,14,-24,-11,-9
72647700066,8,5,-7,7,3,1,22,-3
72647700066,0,-5,-8,4,3,-75,-5,-5
72647706919,1,1,7,-5,-7,-7,-17,1
72647706919,-3,-2,-10,-5,0,-7,-5,-1
72647739562,-11,-3,3,-8,-2,2,6,1
72647739562,-5,-3,-6,6,3,10,-7,-1
72647741171,0,1,-13,-15,1,-4,-15,-5
72647741171,-2,5,5,0,-3,-8,2,-1
72647741972,-13,-3,2,16,5,-3,-6,2
72647741972,-6,2,7,-2,7,12,-12,6
72647753404,12,-11,-18,11,-52,-10,25,-32
72647753404,-7,5,0,3,-3,7,0,-3
72647760064,4,-14,-47,8,-8,-9,3,-28
72647760064,13,0,8,-10,-13,13,2,-2
72647766891,2,-2,-3,-11,-8,11,0,-6
72647766891,3,-1,0,-31,-3,-23,-20,-3
72647783232,-1,-1,-1,-2,8,-4,-6,2
72647783232,-19,5,2,-8,33,-3,-39,10
72647784782,-1,-1,4,-9,8,-7,-4,6
72647784782,-5,-6,-30,42,13,2,-8,-10
72647798275,0,3,-2,4,15,7,-5,6
72647798275,-14,-2,-4,-29,8,17,-27,1
72647804409,1,1,4,-8,-4,3,6,-1
72647804409,11,-5,-4,-23,-43,0,20,-24
72647820060,-1,3,5,-3,6,1,-10,6
72647820060,-1,6,0,40,-2,2,21,0
72647826861,-1,-5,-11,-5,7,-1,-6,-2
72647826861,1,6,3,-2,-1,5,-12,2
72647842989,2,-8,-17,-3,-1,-12,1,-11
72647842989,3,3,6,-4,-8,-9,2,-1
72647849400,-1,1,8,-2,-4,2,0,7
72647849400,0,-3,-5,7,4,-4,-2,0
72647857633,-7,6,1,9,14,3,-23,10
72647857633,3,-1,-2,1,1,0,0,0
72647864396,-4,5,2,-2,4,2,-10,4
72647864396,-3,-1,10,-14,-35,-11,-3,-5
72647880061,2,0,1,-6,-7,0,7,-4
72647880061,-1,0,7,1,-14,-13,-18,0
72647886866,2,-13,-44,-4,0,-5,0,-23
72647886866,-2,0,-4,-7,12,6,-8,0
72647903184,-4,-1,-3,-1,0,4,-15,-1
72647903184,3,-9,-18,14,-9,5,8,-19
72647904766,-1,1,5,-8,-3,-6,-4,-1
72647904766,2,2,-6,-6,7,0,-23,-1
72647917534,3,-5,1,-2,-28,-3,1,-5
72647917534,-3,0,1,-7,1,0,-3,2
72647924306,-3,0,4,-6,-3,0,-5,0
72647924306,-4,-3,-1,16,-1,1,-15,0
72647939982,0,-1,2,-11,-3,0,-1,-3
72647939982,-1,0,1,-8,-4,-1,-2,-2
72647946793,3,-1,1,0,-2,-1,1,-1
72647946793,-4,-7,5,-26,-48,-7,-8,-8
72647963129,-1,-1,3,-12,-2,-8,-5,-1
72647963129,-2,-1,1,-9,-7,-13,-3,-1
72647964779,4,6,5,7,5,-6,-3,6
72647964779,-10,-4,-6,-8,14,11,-8,5
72647976793,-1,-1,1,-9,-2,1,-2,0
72647976793,2,0,2,-4,-7,11,8,0
72647985847,-5,-1,6,-7,-5,-1,-8,1
72647985847,4,5,-1,-1,10,2,2,0
72648000002,-6,-3,0,-19,1,10,-13,-1
72648000002,1,-5,-9,-2,-19,3,-1,-5
72648006806,-3,-8,-13,-8,-6,-5,-3,-16
72648006806,-3,-4,-7,-2,6,11,-2,-4
72648023155,2,1,-2,9,7,-9,3,1
72648023155,0,2,3,-4,1,5,-3,1
72648024778,-2,-1,0,-7,-6,5,-3,-1
72648024778,2,4,-5,3,6,-17,11,-1
72648036850,-9,8,7,-4,0,-1,-3,2
72648036850,-3,2,1,-3,-3,-1,-2,-2
72648045828,0,-8,-1,-21,-41,-52,-7,-16
72648045828,-2,-21,-36,0,-25,0,0,-21
72648059979,3,-3,-4,-7,-14,5,-2,-13
72648059979,-2,-1,-4,-2,0,3,-4,-2
72648066822,-2,1,0,7,16,11,1,4
72648066822,0,2,5,-6,1,7,-2,2
72648083169,2,-2,-4,-2,-7,4,1,-3
72648083169,0,4,-2,2,-1,7,5,-2
72648084756,0,8,6,-4,-3,13,-3,4
72648084756,1,0,3,-16,-12,-13,-11,-11
72648096813,2,-5,-21,0,0,17,0,-10
72648096813,-2,-13,-18,-6,-2,-4,-3,-17
72648105846,-1,-14,-20,-4,-5,1,-1,-8
72648105846,-1,-2,-5,2,9,-5,0,-2
72648120083,0,-1,2,1,2,-16,0,1
72648120083,1,2,3,-3,-5,-3,-2,2
72648126830,-1,0,-3,1,1,5,1,-1
72648126830,1,-1,1,2,3,12,4,2
72648143212,1,0,4,-3,-6,-50,-2,1
72648143212,0,-1,-1,-2,-3,75,0,0
72648144834,0,1,0,0,-1,-8,0,0
72648144834,-1,2,4,-1,3,-17,1,3
72648156873,1,0,-1,-2,-4,22,-1,-2
72648156873,0,-1,-1,-1,1,-66,-2,-1
72648165819,-1,1,1,1,3,1,0,1
72648165819,0,1,0,0,0,19,1,1
72648180040,1,-1,-2,0,-1,15,1,-1
72648180040,1,0,2,0,-1,28,1,1
72648186851,0,1,2,-1,-1,52,-1,1
72648186851,0,0,-1,0,1,-76,1,0
72648203693,0,0,0,0,-1,-15,0,0
72648203693,0,0,3,-1,0,12,-1,2
72648205231,0,1,0,-1,-1,-2,0,0
72648205231,0,0,-1,0,2,42,0,0
72648216892,13,2,0,0,0,3,0,0
72648216892,-4,-1,1,-1,-1,-20,0,0
72648225778,-16,-4,-1,-10,-8,-19,-27,-2
72648225778,0,3,-40,0,2,10,-1,-18
72648248349,-5,0,-2,-3,-1,43,-3,0
72648248349,3,1,-5,-1,0,-20,1,-1
72648249795,4,4,-2,3,-1,-18,5,-1
72648249795,-6,-9,8,-2,-1,11,-1,4
72648262525,2,-8,-4,7,-1,-18,3,-2
72648262525,2,-11,-3,0,0,-9,2,3
72648277607,2,-14,-14,1,3,5,4,-10
72648277607,0,-12,3,-1,-1,-5,0,2
72648278288,2,-8,-5,0,-1,-9,4,-2
72648278288,1,0,5,-1,-1,-7,-1,2
72648293350,-2,3,-3,0,0,-3,3,0
72648293350,6,-2,3,0,0,-13,0,1
72648300021,-1,-8,1,-1,0,-12,-1,0
72648300021,-1,-1,-4,-12,-21,2,0,-4
72648314361,3,3,-6,-2,-1,-8,1,-20
72648314361,-1,2,1,-1,-2,4,1,-2
72648330799,-3,1,2,-2,-1,1,-2,-2
72648330799,0,6,-3,1,3,-2,-3,-1
72648332341,4,4,0,1,-2,-2,5,3
72648332341,-2,6,6,0,-1,0,0,2
72648336863,0,6,-1,-3,1,1,-3,-1
72648336863,3,-4,-3,5,-4,-3,-5,-5
72648345877,1,-4,20,-2,-30,-3,-1,1
72648345877,-1,-7,-9,-2,-2,4,-3,-10
72648360063,-1,-6,-1,-1,-5,-1,0,-2
72648360063,0,-1,-2,1,4,0,2,-3
72648366948,-1,-3,0,-1,5,4,0,4
72648366948,0,2,3,-1,-3,-2,-2,1
72648391401,0,7,-3,-1,-3,-6,0,-3
72648391401,-2,10,0,-1,1,1,0,-1
72648392996,0,9,-1,-2,5,0,-4,2
72648392996,-6,3,1,-16,-1,9,-11,1
72648396805,2,0,-3,-12,1,1,-4,-2
72648396805,1,-1,0,-17,-12,-2,-16,2
72648405862,1,-2,-10,-3,-16,-2,0,10
72648405862,2,-9,-15,-1,-4,-1,2,-29
72648420014,-4,-12,-28,-3,-5,-1,-2,-22
72648420014,0,-12,-32,2,5,-7,0,-10
72648426841,3,-16,-47,0,4,-9,1,-16
72648426841,2,-7,-4,0,-4,-2,1,9
72648442507,0,5,4,0,-2,2,1,-3
72648442507,1,-11,1,1,2,1,4,-9
72648449344,1,-7,1,-2,4,4,0,2
72648449344,0,-8,-2,2,-1,-1,1,3
72648465647,-1,-13,-1,-1,-1,-3,-2,-3
72648465647,0,-7,3,0,-1,-1,2,2
72648467265,-1,-1,3,-2,2,0,0,5
72648467265,1,-6,-1,1,0,-6,-1,-1
72648479974,0,0,1,0,-2,-1,0,3
72648479974,0,-11,-3,0,0,-5,1,-2
72648486846,1,-9,-11,0,3,1,1,-6
72648486846,1,-2,-8,0,-1,1,1,-5
72648511324,0,0,-16,-1,-1,0,-1,-6
72648511324,0,-5,-3,-4,-4,-2,-5,0
72648512930,-2,0,0,5,-6,-1,2,-12
72648512930,8,-21,0,-1,-4,-2,-2,3
72648525738,-9,-15,1,-12,1,3,-11,2
72648525738,8,-7,-1,2,1,-2,1,-4
72648527276,1,-3,3,-2,0,5,0,0
72648527276,0,-3,0,1,0,-1,-2,1
72648539342,2,5,0,2,-2,-1,4,-17
72648539342,-1,-1,-61,-1,1,-1,1,57
72648555805,-19,19,-2,26,34,6,-76,-47
72648555805,-7,14,-9,-8,-1,21,-2,-3
72648562526,8,9,-3,-1,-2,9,-7,-5
72648562526,2,2,8,0,2,28,7,-7
72648569362,7,-12,-10,-3,-5,15,7,-17
72648569362,20,-3,-4,13,-7,-25,23,7
72648585817,-6,-6,4,1,1,-20,1,5
72648585817,0,-14,9,-4,-4,-57,-6,-17
72648587392,3,-26,-17,-4,-1,-5,17,6
72648587392,-7,3,-19,-31,-40,21,-19,-36
72648600030,7,-10,-6,-10,-10,57,2,8
72648600030,0,-19,4,1,4,-15,-6,-11
72648606908,4,-6,3,-9,-8,-13,6,3
72648606908,3,5,2,0,9,-43,1,10
72648622573,2,20,1,2,-15,-43,-8,8
72648622573,-4,30,0,8,-9,8,-7,-15
72648646389,7,14,7,-10,-8,15,6,12
72648646389,-5,9,5,0,2,15,-7,3
72648647189,2,-1,-2,5,7,-8,2,2
72648647189,-1,-1,17,-2,2,42,-1,-1
72648648809,-14,-10,-2,-7,-14,31,-12,-7
72648648809,3,1,-4,9,12,2,0,0
72648659440,-3,-8,-6,-2,-4,17,-6,-8
72648659440,1,14,4,-5,2,-17,-1,0
72648668404,3,-2,-8,-4,1,-50,4,20
72648668404,-3,8,-5,-14,-20,-13,-26,-13
72648682586,-1,-9,1,-8,-10,-1,11,6
72648682586,2,-4,2,-5,-7,22,-3,-3
72648689447,4,3,2,-3,-1,2,3,8
72648689447,-2,-1,3,3,5,7,1,0
72648704766,2,-1,-12,-3,0,8,-5,-4
72648704766,-3,14,16,-1,2,2,-3,6
72648713976,-5,-28,5,-4,-2,3,6,2
72648713976,-1,-3,-1,3,2,10,2,4
72648727333,-1,-5,-2,1,-2,-6,-6,-6
72648727333,4,-3,-23,-7,-3,3,-5,-14
72648734445,3,-4,4,-3,2,-24,-3,4
72648734445,-6,-14,-2,8,-4,1,10,0
72648743383,-2,-3,6,-2,3,-12,-6,8
72648743383,-2,4,3,5,2,-1,3,-3
72648749389,7,14,-1,-3,-7,15,3,1
72648749389,-5,-8,-25,-2,-2,-3,-3,-19
72648765028,-9,-9,-9,-40,-43,-11,-50,-9
72648765028,1,-6,-3,-2,-3,-3,-12,-8
72648765834,14,14,-2,-4,-9,-1,-6,-6
72648765834,5,-8,4,-8,-3,-4,-8,6
72648787613,4,6,-3,7,3,9,6,-6
72648787613,-3,-2,-2,-7,-12,-1,-6,-4
72648788403,-2,2,4,-4,-2,-1,-3,9
72648788403,3,2,4,2,4,9,2,0
72648803501,3,3,-2,4,3,0,3,-4
72648803501,-3,-3,0,-2,-5,1,-2,-8
72648825440,1,7,5,5,2,2,7,-8
72648825440,23,2,-6,49,19,5,31,-9
72648832495,-4,-5,-5,-9,-13,-6,-11,-11
72648832495,1,-5,-3,-2,-4,1,-1,-1
72648833278,5,4,5,-3,-2,6,0,5
72648833278,4,2,2,-12,-8,4,-11,-2
72648847441,3,-4,0,6,6,0,5,3
72648847441,2,7,-2,3,0,-2,3,-2
72648848260,-1,-2,-8,1,-3,-6,0,-6
72648848260,-7,-1,1,-10,-5,-4,-7,4
72648871447,5,-13,-51,7,6,-17,8,7
72648871447,-15,-8,-4,-8,4,41,-44,-36
72648872269,-1,-4,-18,0,-12,14,-6,-28
72648872269,-2,-1,-2,1,-3,-12,-11,21
72648885011,0,8,11,-6,4,-8,7,-21
72648885011,-7,-3,-9,13,-12,-24,-9,-19
72648885757,-7,-3,-3,-15,0,-1,1,11
72648885757,-17,-2,2,-1,0,-7,-2,1
72648916512,0,1,4,2,-5,-8,-2,0
72648916512,13,-1,-1,-3,-1,-2,5,10
72648917307,1,7,2,-1,-1,-5,-9,-5
72648917307,2,1,-1,-12,-3,-9,-4,2
72648923316,0,10,4,2,2,3,-5,2
72648923316,4,-1,0,-4,-3,-8,3,1
72648929330,3,-6,-1,4,0,2,5,8
72648929330,0,-6,-20,-8,-5,4,-6,-11
72648945023,-1,1,3,7,5,9,-1,-10
72648945023,5,-7,-4,-2,6,1,11,14
72648945782,-9,-3,-5,-17,-13,-11,-23,-8
72648945782,9,15,6,-6,0,2,-6,0
72648985394,20,3,2,-4,-5,-8,-9,9
72648985394,13,0,-3,-1,-3,-10,7,-19
72648986149,18,13,3,4,4,-10,4,5
72648986149,2,2,1,-3,0,5,-5,-10
72648990072,2,8,2,1,3,4,3,1
72648990072,1,-5,0,-7,-5,-2,0,7
72648990870,0,5,9,6,5,1,5,-27
72648990870,1,-8,-24,-1,-39,-6,1,-6
72649005031,4,3,0,12,19,5,17,30
72649005031,2,-2,-2,0,-13,-7,10,-2
72649005860,1,1,-1,-1,0,-5,-2,-3
72649005860,2,0,8,-4,-4,-2,4,16
72649027595,-20,-17,3,4,4,0,-11,-11
72649027595,8,11,-6,-3,0,0,-1,-6
72649028396,5,3,-6,4,-3,-2,20,34
72649028396,-8,-2,7,-39,2,1,20,-17
72649043341,19,6,-2,-12,-11,3,3,-6
72649043341,7,6,4,-6,1,-3,1,15
72649049420,-20,-13,-5,-29,-3,-3,-11,-5
72649049420,-19,-1,4,-21,6,0,-18,14
72649065091,-40,-8,4,-47,-4,-5,-47,-31
72649065091,-8,7,-1,-4,-5,2,-3,-1
72649065852,-12,8,-2,9,3,0,-9,-4
72649065852,-8,1,1,23,-1,4,45,30
72649087527,1,-11,-22,3,-3,1,9,-67
72649087527,1,8,5,0,-3,-9,-6,34
72649088319,-4,-6,-7,-10,-7,6,0,-11
72649088319,1,-1,2,4,10,-11,-10,3
72649103350,4,6,8,6,-8,-24,5,13
72649103350,14,-7,-4,-5,-3,-39,0,-11
72649109406,20,15,-3,41,20,-20,5,-11
72649109406,9,7,9,4,-3,6,-14,-7
72649125113,4,12,-4,8,1,54,1,6
72649125113,22,-5,-6,-14,1,-38,-10,-13
72649125876,8,-10,-48,-4,-17,-15,0,-13
72649125876,28,43,-10,9,4,19,-8,-23
72649147531,-59,1,-2,2,-1,-1,8,8
72649147531,-12,-16,1,-3,-7,0,0,2
72649148277,4,14,-43,26,-12,-11,17,-54
72649148277,13,-17,-3,5,3,17,-4,-10
72649163327,67,39,-25,32,-45,5,60,-27
72649163327,67,39,-15,69,60,83,71,21
72649169379,39,16,6,5,1,-48,32,9
72649169379,-10,34,-6,53,35,-48,51,0
72649184335,-25,-47,-41,-51,-28,-19,-57,-20
72649184335,-53,41,40,33,29,-72,6,30
72649191856,2,-23,-6,-40,-27,-15,-32,-9
72649191856,-50,-3,-16,-20,-30,-59,19,-20
72649207468,-13,-4,119,24,33,-62,16,94
72649207468,5,5,-13,4,-10,-17,11,-12
72649208297,89,18,33,48,64,44,11,44
72649208297,127,1,105,89,93,-19,97,102
72649223319,40,-90,-107,-73,1,-8,-33,-96
72649223319,-111,-82,-107,-118,-106,16,-100,-112
72649229308,-128,-37,-103,-128,-128,3,-120,-110
72649229308,-24,-23,28,-18,21,5,-12,22
72649244318,18,49,-11,8,-2,39,11,-1
72649244318,51,-18,32,40,14,35,41,26
72649251814,-10,-27,-53,-10,-26,9,-18,-50
72649251814,0,42,-29,-9,-12,-69,-10,-28
72649274995,-28,6,-23,-22,-32,-107,-25,-20
72649274995,-40,11,-24,-63,-54,-41,-38,-24
72649275764,43,31,1,22,14,-22,38,0
72649275764,-27,-11,-28,-45,-46,22,-51,-30
72649283337,17,23,18,8,6,17,10,16
72649283337,18,0,-11,-12,-11,-28,-10,-12
72649289316,33,-3,32,19,25,13,25,35
72649289316,27,-7,-10,-19,-21,18,-23,-16
72649320779,7,16,-20,2,-7,14,1,-18
72649320779,46,6,4,21,19,5,23,2
72649321483,12,-10,29,-1,6,1,28,25
72649321483,20,-41,-37,0,-19,10,-6,-42
72649327596,37,4,20,69,48,46,59,36
72649327596,-7,-17,57,29,57,-2,60,55
72649328322,-52,-18,-4,-59,-50,-17,-48,-13
72649328322,-16,-6,-88,-30,-51,-7,-46,-85
72649349999,20,-5,6,21,13,-22,17,7
72649349999,6,-9,17,13,14,22,10,16
72649350780,-30,0,24,12,21,8,8,25
