timestamp,emg1,emg2,emg3,emg4,emg5,emg6,emg7,emg8
61902645516,0,-2,-2,-3,2,-1,0,0
61902645516,-1,-1,0,2,-3,-2,-4,2
61902646317,-2,-3,1,-2,-3,-1,-1,0
61902646317,0,1,-4,-4,1,-1,1,-2
61902647110,-2,-1,-1,-2,-2,-1,-3,-4
61902647110,-2,0,1,-3,-3,-1,-1,0
61902647938,0,-1,-2,2,2,0,-2,1
61902647938,1,-1,1,-1,-1,-1,-4,-3
61902652481,-9,-2,-1,0,-3,-3,-4,-11
61902652481,1,-2,-2,-1,2,-1,2,3
61902666020,-1,-3,-2,-1,-1,0,3,-5
61902666020,0,-2,2,1,-1,0,0,3
61902675050,-1,-2,-1,3,-2,-3,0,6
61902675050,-2,-1,-3,-2,1,0,-3,-6
61902681962,-1,0,-1,-2,-3,-2,0,8
61902681962,0,0,-1,0,0,0,1,-2
61902697571,1,-1,0,-3,0,0,-2,0
61902697571,-1,-2,-1,-2,1,1,0,-8
61902703577,2,0,0,2,0,-2,-1,-1
61902703577,-2,1,-1,-1,-1,-2,-3,-1
61902712515,0,1,-1,-4,0,0,-1,1
61902712515,-2,2,-1,0,-2,0,-1,0
61902726541,-3,0,-2,-6,-2,-1,-2,3
61902726541,-1,0,-3,0,-2,-1,-2,-1
61902735066,1,-1,-2,1,-3,0,0,-2
61902735066,0,1,0,-2,-1,0,-1,-9
61902748543,0,0,-1,-3,-2,0,-2,0
61902748543,1,-1,-1,-1,-1,-3,-1,3
61902757515,0,0,-1,0,1,-1,1,0
61902757515,1,-1,-1,-2,0,-2,0,4
61902763577,-6,-2,0,3,0,-2,-3,-5
61902763577,1,-2,1,-4,1,0,1,-4
61902778514,1,0,-1,3,0,-2,-1,16
61902778514,-2,-2,0,1,-1,0,-1,0
61902786032,-1,0,-1,-4,-2,1,-2,-7
61902786032,-3,-3,-2,-5,-2,-1,1,2
61902795622,1,0,1,-1,0,0,1,1
61902795622,-3,-2,0,2,-2,-2,0,-2
61902808982,1,-1,0,-1,-1,0,-2,3
61902808982,-2,-1,-2,-2,-1,0,-2,-6
61902825654,1,-1,-2,-3,-2,-1,1,0
61902825654,-3,-1,-1,-1,0,-1,-2,-2
61902826473,0,1,0,-1,1,0,2,-3
61902826473,2,1,0,0,-1,-1,-2,-2
61902840022,-1,1,0,-2,1,0,-3,-4
61902840022,-3,0,-1,-5,0,1,1,12
61902854912,-1,-3,-2,2,1,-2,-1,0
61902854912,-2,0,1,-1,-1,-1,1,6
61902856484,0,-4,2,1,1,1,-1,-14
61902856484,1,3,1,2,0,-2,0,-1
61902868561,-5,-3,-3,-1,-3,-2,-2,-4
61902868561,0,-3,-4,-1,-2,-1,3,-3
61902885648,-1,1,-4,-5,-2,1,-4,12
61902885648,1,-2,-3,-2,-2,2,-1,1
61902886481,2,1,0,-1,1,-1,-2,-4
61902886481,-1,0,-1,1,0,-2,0,10
61902914628,-3,-1,-1,-2,0,0,-1,-20
61902914628,-2,-2,-4,-4,-1,-2,-2,-1
61902946293,1,-1,-1,0,1,0,0,1
61902946293,-4,-1,0,1,-1,-1,1,-1
61902947920,0,-2,0,-1,-1,-2,-1,-2
61902947920,-2,-2,0,0,-1,-2,-3,-3
61902948696,0,-1,-1,-2,0,0,-1,-7
61902948696,-3,-2,1,0,1,-2,-3,-3
61902968693,-3,-4,-1,-1,0,-2,0,-2
61902968693,-1,-3,-1,-7,-3,0,0,-3
61902969513,-2,-2,0,2,-2,-2,-1,15
61902969513,-1,-1,-1,4,-2,0,-1,-6
61902971172,1,0,-2,-2,-2,0,1,14
61902971172,1,0,0,-3,-2,-1,-2,-3
61902974948,1,-2,-2,0,-1,0,-2,1
61902974948,-4,3,0,0,-2,-1,-2,-5
61902976543,0,0,1,1,-2,-1,-1,-5
61902976543,-1,0,-1,2,1,-2,3,12
61902988587,0,-1,-1,1,-2,-1,-4,-23
61902988587,2,-1,0,2,-1,1,-2,14
61902997596,-3,-1,-1,-2,-1,0,1,2
61902997596,0,-2,-1,3,0,0,1,2
61903004476,-3,-1,-2,1,-4,-3,-1,-2
61903004476,0,-3,-2,-2,-1,0,-2,-1
61903018554,-2,0,0,1,0,-1,-1,-2
61903018554,0,-1,-1,2,-1,-2,-1,5
61903026216,1,1,0,-1,1,2,3,-5
61903026216,-3,-1,-1,1,0,-1,-4,-11
61903035160,1,-2,-3,1,-2,-2,2,2
61903035160,0,-1,-2,3,1,-1,0,-5
61903048543,2,0,0,-1,2,0,2,4
61903048543,-1,-1,-3,0,-1,-3,-1,-3
61903057552,-1,1,0,-1,0,0,-3,-6
61903057552,0,-5,0,5,-1,-1,-2,-5
61903063555,-1,-3,1,-4,-3,-1,-2,18
61903063555,-6,-1,-1,-2,2,0,-2,-7
61903078483,-2,-3,-3,-3,-1,-1,-6,-19
61903078483,-5,-1,-2,-1,-3,-1,0,0
61903086245,4,2,-1,-1,1,-1,-1,4
61903086245,-7,-1,0,-3,-3,-3,-4,-7
61903095020,11,1,-1,-2,-1,-2,3,24
61903095020,-11,0,0,-5,0,-2,-5,-21
61903108515,0,0,-1,3,0,-1,-3,-28
61903108515,4,-2,-3,1,-2,-1,-3,-1
61903117573,23,2,-1,5,0,-1,-2,10
61903117573,-13,1,0,-5,1,0,-5,-15
61903123512,-11,-4,-1,0,-1,0,10,50
61903123512,5,-2,0,-3,-1,0,7,17
61903138603,-3,-1,-2,-3,-2,-2,-13,-56
61903138603,-6,-11,-2,4,-1,2,4,70
61903146084,12,15,-1,2,-3,-2,-7,-2
61903146084,15,2,-1,3,-1,2,-4,-30
61903155048,-19,-3,-2,1,-1,2,5,25
61903155048,27,6,-2,-6,-2,-1,0,-21
61903177442,-9,-3,-3,-6,-1,-1,-1,0
61903177442,8,2,-2,-2,-2,1,5,33
61903179026,-13,-2,0,-1,2,-1,-2,-21
61903179026,-10,-6,-3,1,0,-2,-3,-17
61903183562,-2,-6,0,-4,-2,-4,2,4
61903183562,-1,1,-1,-1,0,-3,-5,-12
61903198571,-8,-4,-1,-3,-1,-3,0,2
61903198571,-3,0,-3,-1,-1,-1,-1,-2
61903214878,8,0,-2,-2,-1,1,-3,-1
61903214878,-9,-1,-1,-2,-1,-1,0,1
61903216480,-5,0,-1,-1,0,0,-2,-6
61903216480,9,5,1,-5,-1,1,2,19
61903228576,-4,-5,-1,1,-2,-1,-2,-13
61903228576,-7,-5,0,-5,3,1,0,-3
61903237543,3,0,-2,2,-1,0,1,11
61903237543,4,2,-2,0,1,-1,-1,-9
61903243629,-5,-3,-2,-3,0,-2,-3,-11
61903243629,-7,-5,-1,0,-2,-3,-3,14
61903258594,0,-2,0,4,-1,0,6,-7
61903258594,-2,-1,0,-1,-2,-3,-2,10
61903266069,1,-2,2,1,0,-1,1,21
61903266069,-13,1,-1,-1,-1,-2,-3,-55
61903275022,15,-2,-2,-2,-1,0,7,30
61903275022,-7,-1,0,-2,-1,-3,-3,-37
61903288545,-2,-3,-1,-1,-1,2,1,37
61903288545,8,1,-1,4,-1,-2,-4,-13
61903297544,-6,0,1,0,-1,0,-2,7
61903297544,0,-1,0,2,0,-1,2,-2
61903303597,3,-2,-3,-6,-1,-1,5,18
61903303597,-14,-5,-2,0,-1,1,-4,-29
61903318568,0,-1,0,1,-1,-1,-3,3
61903318568,-4,-3,-3,-1,0,-2,-1,-23
61903326070,3,0,-3,1,1,1,0,-3
61903326070,3,-1,-3,0,-1,-3,1,18
61903335012,-1,0,-1,-4,-3,-1,-2,0
61903335012,2,-1,2,2,-1,1,-1,8
61903348577,-24,-6,-3,1,-1,-2,1,-51
61903348577,-11,-5,-5,-4,-4,-4,-9,6
61903357547,7,2,0,1,1,1,4,8
61903357547,-6,-1,-3,-4,-1,0,-1,1
61903371711,1,0,-2,1,-1,-2,-4,-19
61903371711,0,-2,1,-1,1,-1,1,8
61903378569,-1,-1,-3,1,-1,-1,2,50
61903378569,-8,-2,-2,2,-3,-1,-2,-32
61903386080,4,-1,-1,-4,-3,0,1,18
61903386080,-1,2,0,1,-1,0,-3,-27
61903395051,-4,0,1,-2,-3,0,1,-6
61903395051,3,0,1,2,0,0,2,7
61903408594,8,3,0,2,0,-2,-5,13
61903408594,2,0,0,-1,1,0,4,-3
61903418526,-3,-1,1,-3,1,-1,-3,-14
61903418526,3,0,-4,1,-2,0,-3,-3
61903431761,-5,-2,1,2,-1,0,0,8
61903431761,1,-1,-1,-2,-2,1,4,-2
61903438586,0,-2,-1,-1,-1,-2,-5,-25
61903438586,4,1,0,-3,-1,-1,2,15
61903446097,5,-1,-3,0,0,-2,-7,-13
61903446097,-2,-3,0,-2,-1,2,11,35
61903455043,-5,-1,-3,-4,-3,-2,-3,5
61903455043,-2,-2,2,-3,2,-2,-1,8
61903468566,-3,0,0,-4,-1,-2,4,-25
61903468566,3,-1,-5,-1,-1,-2,-6,-7
61903477582,3,0,-1,-4,-2,0,1,0
61903477582,5,-2,1,-2,-1,-2,-3,22
61903491744,-7,-1,-2,1,1,-1,-1,-11
61903491744,-2,-2,-1,-5,-1,-2,-2,8
61903498589,1,1,4,-2,1,-1,2,-8
61903498589,7,1,-3,-2,-2,0,1,44
61903506047,-1,-2,-2,2,-2,-1,1,14
61903506047,4,2,-1,-3,-2,-1,-3,-17
61903524682,-8,-3,-2,-1,0,-1,1,6
61903524682,-9,-2,-3,-3,-3,-2,-11,-36
61903528542,0,2,0,-3,0,-1,-1,-7
61903528542,1,-1,-1,2,1,1,2,28
61903537549,5,-1,-1,0,-3,-2,-6,10
61903537549,-13,-1,-2,1,0,-1,-2,-30
61903551773,2,1,0,-5,-1,1,-4,-1
61903551773,-4,-3,-1,-2,-1,1,0,9
61903558544,1,0,-5,-2,0,-3,-2,-6
61903558544,3,-1,1,-2,-1,0,7,14
61903566041,4,-2,0,6,-2,0,4,13
61903566041,2,0,0,2,0,0,-4,-15
61903574992,-20,-5,-1,-2,-2,-2,-6,-35
61903574992,-2,0,-3,1,-2,-1,-1,4
61903588572,2,-1,-1,-2,-1,-1,-2,7
61903588572,1,-2,-2,-4,-2,-1,-1,1
61903597554,0,-1,-1,5,-1,1,1,17
61903597554,2,0,-1,-3,0,-1,-3,-13
61903611805,-2,-2,-2,-1,1,-2,0,-7
61903611805,3,1,-1,3,0,-1,6,30
61903618608,-4,0,0,-3,-1,-2,-5,-32
61903618608,2,0,1,1,-2,0,4,22
61903634943,-5,-1,-2,-3,0,-4,-11,-50
61903634943,2,-1,0,1,-1,-2,0,1
61903636554,2,-2,-3,2,0,-1,-4,3
61903636554,5,1,0,1,1,1,-1,-1
61903648554,-7,-2,-2,4,-2,0,-5,-11
61903648554,-3,0,0,1,-1,-2,-3,-7
61903657554,-5,-3,-2,0,-2,0,-2,-17
61903657554,7,-2,-2,0,-1,-1,0,9
61903671787,-4,0,-1,-4,-1,1,-1,-22
61903671787,5,1,-1,0,-4,-2,3,58
61903678592,5,-1,-2,1,-1,2,2,-38
61903678592,-3,3,0,-7,-3,-2,-2,8
61903694282,0,0,-1,-2,0,-1,-2,6
61903694282,0,-2,-1,2,1,0,-1,-5
61903701067,3,-2,3,2,0,-2,1,15
61903701067,-7,-2,-3,-5,0,-2,-3,-20
61903708541,2,-4,-2,1,0,-2,4,7
61903708541,-6,-2,-3,-6,-1,0,-5,-23
61903717547,3,1,-2,-6,-1,0,3,46
61903717547,-1,-1,-1,4,-1,1,-2,-19
61903731735,2,0,0,-7,-2,0,2,12
61903731735,-13,-5,-3,-3,-3,-1,-3,1
61903738600,2,-1,-3,0,0,-1,-1,0
61903738600,-2,-3,0,-2,2,-2,-3,4
61903754296,0,0,-1,2,-3,0,3,20
61903754296,3,-1,0,2,1,-2,-1,-19
61903761098,-3,1,0,-2,0,-1,1,25
61903761098,-6,-4,-2,3,-3,-4,-7,-36
61903777371,0,-1,-1,-3,-1,-2,-5,-9
61903777371,8,3,-1,-2,-2,0,2,28
61903778972,-12,-2,-2,-5,-2,-2,-3,-20
61903778972,-1,-1,-1,-2,-1,0,2,11
61903791796,-1,-2,0,1,-2,0,-2,8
61903791796,2,0,-2,0,2,-2,-2,-12
61903798601,1,-3,-3,0,-5,-1,2,18
61903798601,0,-1,-1,-3,0,0,4,19
61903814270,1,-1,-1,-5,0,-1,0,-10
61903814270,-2,-1,-1,-2,-2,-1,4,3
61903821099,0,0,-2,0,-1,-1,1,33
61903821099,-2,1,1,-1,1,-1,-5,-59
61903837454,1,0,0,-5,-1,-1,-1,4
61903837454,1,3,2,-1,0,0,-2,-18
61903839017,-9,-7,-2,0,0,-1,0,-7
61903839017,12,0,-2,-2,-3,-3,-4,15
61903851762,-10,-4,-2,-1,-2,0,0,-11
61903851762,-4,0,0,-4,0,-2,-6,-27
61903858555,0,0,0,-4,0,-2,1,-20
61903858555,3,-2,-2,2,-1,2,4,45
61903874246,2,0,0,0,0,-1,-4,-1
61903874246,6,1,-1,-5,0,1,5,44
61903881115,-8,-2,0,-1,-3,-6,-20,-78
61903881115,-1,0,-1,-3,-1,0,-3,-27
61903897428,-1,-1,-3,-4,-1,-3,5,22
61903897428,-1,-2,-1,-2,-2,-2,-2,0
61903899032,5,0,-1,-1,1,1,3,17
61903899032,-3,0,0,1,-1,-1,2,-4
61903911814,-4,-2,1,4,0,-1,-5,-13
61903911814,-3,-2,-3,-3,-2,-2,-6,-21
61903918743,6,0,-2,1,-1,-1,2,10
61903918743,-9,-3,-2,-1,-3,-2,-4,-14
61903934266,5,2,-1,3,-1,-2,2,23
61903934266,-6,-1,-2,1,-2,-3,-8,-49
61903941096,3,0,-1,-5,1,0,-1,-3
61903941096,-3,0,1,-1,0,0,0,16
61903957449,0,-1,0,-1,-1,0,-6,-14
61903957449,-4,-1,-1,1,-2,-1,0,3
61903958999,-3,-2,-1,-5,-1,-2,-1,-4
61903958999,1,-5,-2,-4,-2,-1,1,7
61903971775,-2,-2,-2,-3,-1,0,1,-12
61903971775,-3,-4,-2,-4,-2,-4,-3,-3
61903978812,2,-2,-1,-1,1,2,1,16
61903978812,-1,-1,0,1,1,1,1,4
61903994274,2,0,0,2,-1,0,-4,4
61903994274,-9,-3,-1,-1,1,2,8,0
61904001059,3,1,0,2,-1,-3,-6,-11
61904001059,-6,-1,-3,-1,-1,0,-4,-10
61904017380,-4,-2,-1,-4,-1,-2,-5,-26
61904017380,4,-1,-1,1,-1,-2,2,14
61904019009,-1,-2,0,0,-1,1,1,7
61904019009,1,0,-2,2,-2,1,-2,0
61904031744,1,-1,-4,1,-1,-2,3,10
61904031744,-1,-2,0,1,0,-1,-2,-3
61904038549,-2,-1,1,2,-1,-2,-2,-8
61904038549,1,-2,-1,-5,-1,-1,1,14
61904054273,-3,-2,-1,0,0,-1,0,-2
61904054273,0,-1,-2,-1,-2,0,-3,2
61904061077,-1,1,-2,0,-1,1,1,0
61904061077,0,0,-1,3,0,-4,-1,-5
61904077383,2,1,0,1,1,2,1,20
61904077383,1,-5,0,3,1,1,5,7
61904079069,1,-1,1,-1,-1,-2,1,-2
61904079069,-3,-3,-3,-4,-2,-3,-3,6
61904091761,0,0,3,-4,2,0,0,-9
61904091761,1,2,-2,1,-1,-1,-3,5
61904098532,-2,0,-1,2,1,1,0,0
61904098532,0,-1,-2,-1,-2,-1,1,4
61904114246,-3,-1,0,-1,-2,-2,-3,-3
61904114246,-2,0,-2,-4,-2,-2,-3,-3
61904129120,-2,0,-2,2,-3,0,1,-6
61904129120,3,-2,0,1,0,0,-4,-1
61904138092,-1,-2,-1,1,0,-2,0,12
61904138092,-1,-1,1,0,-1,0,-2,-15
61904139709,-1,-1,-2,-3,0,-1,2,-1
61904139709,-3,-1,-2,5,0,0,1,6
61904151143,-4,-2,-3,-3,-2,-1,-1,-2
61904151143,-3,-1,-1,1,1,-2,-4,0
61904160097,0,-1,-2,-2,-2,-3,-1,-2
61904160097,-1,-1,0,-5,-2,0,1,-3
61904174288,0,-1,-3,3,-2,-1,-1,-5
61904174288,-2,-1,-1,-1,-2,-1,-5,-4
61904181112,-1,-3,-1,-2,-2,0,2,10
61904181112,-2,-3,0,4,2,0,-2,-4
61904197415,-4,-2,-3,-6,-1,-1,1,-8
61904197415,3,-2,-3,-2,0,-3,2,13
61904199014,-1,1,0,0,1,0,-3,1
61904199014,0,1,-3,-4,-1,-1,2,1
61904211827,-2,-1,-2,2,0,-1,2,-2
61904211827,1,-1,0,3,-1,1,-3,9
61904218556,-1,-1,-2,0,1,-1,1,6
61904218556,2,1,-3,0,0,-2,-1,-5
61904235012,1,0,-1,0,-4,0,0,5
61904235012,-2,0,-2,-4,-1,-1,-1,-7
61904241102,0,-1,0,1,-1,-3,-4,-9
61904241102,-2,-2,-1,0,-2,-2,-2,6
61904257456,-4,-1,-1,-2,-1,-1,-6,-20
61904257456,-2,-2,1,0,1,-1,-3,-3
61904259020,-2,-2,-2,1,-2,0,-2,2
61904259020,-1,0,1,2,-1,-1,-1,0
61904271069,1,0,-1,-4,0,-2,-2,0
61904271069,2,1,-3,-3,-2,-2,1,-7
61904280079,-3,-2,-1,-1,-2,-2,-6,-10
61904280079,-2,1,0,-3,-2,1,1,17
61904294373,0,-1,0,-2,0,-1,-2,-16
61904294373,-5,-2,-2,0,-1,-2,4,-22
61904301079,-1,0,-2,-1,-1,-1,-1,0
61904301079,0,-2,-2,2,-2,-1,-3,8
61904317420,-2,-1,-1,-1,0,1,0,1
61904317420,-1,-2,-1,-4,0,0,-1,4
61904319026,0,-2,-1,4,0,-1,-2,-4
61904319026,-2,0,-1,0,0,-2,-2,-14
61904331053,-1,-3,-1,3,-1,0,-1,5
61904331053,0,0,0,-2,-1,-1,1,5
61904340043,-3,-2,-3,1,-2,-1,0,-1
61904340043,-1,-1,-2,-1,-2,-2,-2,-5
61904354274,-1,-3,1,-1,-1,-2,-3,6
61904354274,0,-1,0,-2,0,-1,-2,-8
61904361082,-2,0,0,-5,-2,-2,0,15
61904361082,0,-2,-1,-2,-1,-2,4,11
61904377442,-3,-2,-1,1,-2,-3,-1,-16
61904377442,-1,0,-2,2,-2,-1,-3,-9
61904379003,0,0,-1,-7,0,-1,0,-3
61904379003,-1,1,-1,-1,-2,1,0,-4
61904391070,-5,-2,-2,2,-1,-2,-4,0
61904391070,5,-4,-1,2,-2,0,5,9
61904400060,1,-3,-1,-3,0,-1,4,17
61904400060,-2,-3,-2,-1,0,-1,-3,-14
61904414296,1,-1,-1,-4,-1,-1,0,0
61904414296,-3,0,-1,-3,0,-1,-2,5
61904421095,3,-1,-2,0,-2,-1,-10,-26
61904421095,-3,-1,-1,-5,1,-1,-1,-11
61904437430,0,1,0,-1,0,-1,1,5
61904437430,-2,0,-1,-1,-2,0,-3,2
61904438994,-1,0,0,2,-3,0,0,-3
61904438994,0,-1,-2,1,0,1,-2,-1
61904451094,0,-3,-2,0,-2,-2,-1,-8
61904451094,-1,-2,0,-1,-1,0,-2,6
61904460019,1,-1,-2,1,0,-2,1,-1
61904460019,-5,-1,-1,-2,-2,-3,-2,-6
61904474298,-2,-1,-1,1,-1,-1,3,10
61904474298,1,-2,-2,1,-2,-2,2,0
61904481118,-4,-1,-2,-3,0,-3,-8,-14
61904481118,1,-3,-1,2,-2,0,-1,-14
61904497449,2,-1,-2,-3,1,0,2,-3
61904497449,-5,-3,-4,-4,-2,-2,-7,8
61904499032,-4,-1,-1,-6,-1,-2,-5,-19
61904499032,2,0,0,-2,0,-1,2,13
61904511107,-1,3,-3,0,0,0,-8,-41
61904511107,1,-2,-2,-3,-3,0,13,24
61904520016,-1,1,-3,0,1,-1,0,9
61904520016,2,-1,0,-3,-1,-1,3,9
61904534284,1,-1,-1,-1,-1,-4,-2,12
61904534284,-1,0,-1,2,0,-1,-1,-3
61904541149,-1,-1,-1,3,-2,0,1,2
61904541149,-3,-1,-2,6,-1,-3,-3,-15
61904557461,-1,-3,-2,4,0,-1,-3,9
61904557461,-2,-1,-1,-3,-2,0,-3,-13
61904558992,1,0,-1,0,-1,-1,2,13
61904558992,0,-1,0,-1,0,-1,-4,2
61904571111,-4,-2,-1,0,-2,-1,-1,-3
61904571111,-1,0,-1,0,-1,-2,3,13
61904580065,1,-2,-1,3,2,1,2,-11
61904580065,-1,-1,-4,-1,0,-2,-4,-14
61904594295,-3,0,0,-3,0,-1,3,6
61904594295,1,-1,-1,0,0,0,-3,-5
61904601041,1,0,-1,0,-2,-1,0,6
61904601041,-2,-1,-2,-1,-1,-1,-1,0
61904616760,-3,-2,2,-2,-2,-1,0,6
61904616760,3,-1,-2,0,-1,-1,1,16
61904623586,-9,-1,-1,-1,-2,-1,-2,-31
61904623586,-2,0,1,-3,-1,-1,-2,-1
61904631138,3,-1,-2,0,-2,-1,2,9
61904631138,1,-1,0,-3,0,-1,-2,7
61904640032,0,0,-1,-5,-2,1,8,19
61904640032,0,-2,-2,0,1,-2,-4,-3
61904654306,-1,-1,-1,0,-2,0,1,15
61904654306,-3,0,0,-1,-1,-2,-8,-23
61904661055,2,-1,-2,1,-2,-1,1,9
61904661055,-4,-1,-1,-4,-2,-1,-2,-6
61904676774,3,-1,-1,-10,0,-1,-2,1
61904676774,-3,-1,-1,3,-1,-3,1,0
61904683606,0,-3,0,-1,-1,-1,-5,-5
61904683606,1,-1,-1,0,-3,3,4,10
61904691112,-4,0,-1,-1,-1,-2,-6,-12
61904691112,-3,0,-1,-4,-2,-2,-2,-15
61904700104,1,-1,-1,-3,-1,-2,0,14
61904700104,-1,-2,0,3,-1,-1,0,-10
61904714278,2,-2,-3,0,-3,0,0,2
61904714278,-1,0,-2,1,-1,-2,-4,-10
61904721098,1,-2,1,0,0,-1,-1,5
61904721098,0,-2,-2,-3,1,0,-1,7
61904736798,-3,-2,-3,0,-3,-1,-1,-4
61904736798,-2,0,2,-2,1,-1,1,7
61904743622,-4,-1,-5,-1,-2,-4,-5,-7
61904743622,1,0,0,2,-2,2,5,-1
61904759960,-2,1,0,1,0,-2,-3,0
61904759960,-2,-3,-1,-1,-1,0,-1,-10
61904761525,3,-2,0,-3,-2,-2,0,5
61904761525,-1,-3,-3,1,-1,-5,-2,8
61904774267,1,-4,-2,1,-1,0,2,0
61904774267,-1,-1,-1,0,-1,1,-3,7
61904781071,-3,0,0,1,0,-1,2,-3
61904781071,1,1,-1,-1,-2,-2,-2,-7
61904796777,1,0,0,-1,-1,0,4,9
61904796777,0,-1,-3,4,-1,0,1,0
61904803581,-7,-5,0,-4,-1,0,1,-8
61904803581,1,1,0,-4,-2,1,0,2
61904819940,-1,-2,-1,-3,0,0,-1,-6
61904819940,1,1,-3,-1,0,-1,0,18
61904821521,0,0,-1,2,-3,-1,-1,14
61904821521,-6,-4,-3,-7,-1,-3,-12,-30
61904834267,6,6,0,1,-1,-1,0,-5
61904834267,-5,-6,-4,-3,1,-2,0,-3
61904841041,-1,1,0,0,2,-1,-1,-11
61904841041,3,-3,0,-3,0,0,6,26
61904856756,-7,-4,-1,0,-3,-2,-2,-7
61904856756,0,1,1,3,-4,-3,-5,-15
61904863532,0,1,1,-1,-3,0,-4,10
61904863532,-2,0,2,-2,-2,-1,-3,-8
61904879982,0,-1,0,2,-3,-1,-2,2
61904879982,-4,-1,-1,-2,-3,-3,-2,-15
61904881496,0,0,-4,-2,-2,-1,0,-9
61904881496,2,2,-2,2,-2,-1,2,12
61904894287,-1,-2,-3,4,1,-1,-3,-12
61904894287,-2,1,-3,-3,-1,0,2,-2
61904901079,0,-1,-3,0,-2,-1,-5,-7
61904901079,0,-1,0,3,0,0,0,0
61904916730,-4,-6,-3,-2,-1,-1,2,17
61904916730,-2,3,0,0,-1,-1,-4,-24
61904923561,2,0,-1,-6,-1,1,0,-17
61904923561,-1,-1,-2,-1,1,-2,2,14
61904939947,-5,-4,-7,-4,3,0,1,-17
61904939947,-3,-1,3,3,-1,0,1,10
61904941499,-2,0,4,-3,-3,0,0,8
61904941499,1,-2,0,-1,-6,-2,-4,-13
61904954937,0,3,2,-1,-3,-1,-5,-12
61904954937,4,-1,-1,-2,-2,0,3,9
61904961060,-2,-2,-2,3,-1,-2,-1,-1
61904961060,-1,1,0,-3,1,-1,0,7
61904976864,-1,0,-2,-1,-1,-1,-2,2
61904976864,0,-3,-3,1,-1,0,-1,-1
61904983595,-1,-2,-1,-1,-2,-1,1,-2
61904983595,0,-2,-2,-1,1,-1,1,-4
61904999949,1,-2,-1,-2,0,0,-1,2
61904999949,-2,-2,0,-3,0,-2,-4,-5
61905002495,0,0,-1,3,0,-1,1,6
61905002495,-2,-1,-3,-3,-1,0,-3,-17
61905014256,-1,2,-1,-2,-1,-1,2,4
61905014256,0,-3,-3,-4,0,0,1,9
61905021109,-2,-2,-1,-2,0,-1,-2,5
61905021109,-2,-2,0,2,0,-1,1,11
61905036859,2,0,-1,1,-1,-3,-2,7
61905036859,-8,-3,-2,-5,-2,-2,-7,-44
61905043601,0,-2,-2,-1,-1,-1,3,18
61905043601,-3,2,-1,-2,-1,0,0,4
61905059971,3,0,2,-4,-2,-1,-6,-8
61905059971,-3,-1,0,1,-1,-1,3,16
61905061564,0,-2,-2,-6,1,0,-1,-4
61905061564,-4,-2,-2,-1,-3,-1,-4,-23
61905074302,1,-2,-1,0,-1,-1,2,12
61905074302,2,0,-1,1,-2,-2,-5,-7
61905081128,-3,0,0,0,-1,-3,-2,0
61905081128,1,-1,-1,-4,0,-1,-1,8
61905104986,-4,-1,-2,0,-1,0,-1,1
61905104986,-2,-1,0,-4,0,-2,-1,3
61905107518,1,1,-1,4,0,-2,-1,-8
61905107518,0,-2,-1,-3,0,1,2,-4
61905119967,0,-2,-1,2,0,-1,-1,0
61905119967,-3,-2,-1,0,-1,-2,4,-3
61905121529,1,0,0,1,0,0,-1,-13
61905121529,-5,-1,-1,-4,0,-5,-11,-44
61905134281,2,1,2,-3,-1,3,5,8
61905134281,4,-4,-11,2,9,2,5,10
61905141064,-3,-3,0,0,-1,-1,-2,-2
61905141064,-2,1,1,4,-2,0,-4,-3
61905157614,-1,-1,4,2,-6,-1,-3,-1
61905157614,-2,2,3,-5,-7,-2,-5,-15
61905163564,-1,-1,0,-8,0,-2,-1,1
61905163564,2,-2,-2,-3,-1,-1,2,15
61905179931,-4,-4,-4,-1,0,-3,-1,-4
61905179931,2,-2,0,0,-1,0,1,13
61905181530,-3,-1,-2,-3,0,-1,-3,-7
61905181530,0,-1,-1,1,-2,-2,3,13
61905194244,-1,-1,-4,0,0,-4,-4,-22
61905194244,1,0,2,0,-2,0,-2,-4
61905201092,3,-2,-2,0,-1,0,3,15
61905201092,-1,1,-2,0,-1,-1,2,0
61905216813,0,-1,-2,2,0,-1,-1,3
61905216813,0,1,2,-1,0,0,1,2
61905231094,-4,-1,1,-4,-2,-2,-5,-1
61905231094,0,-1,-2,-1,0,0,-2,6
61905239923,-1,-2,-2,-2,-2,1,0,5
61905239923,-2,-1,-2,4,-1,-1,-8,-4
61905241527,2,-3,-3,3,-1,1,-1,12
61905241527,-4,-1,-2,-2,-1,-3,-1,1
61905254131,-4,0,0,1,-1,-2,-1,-10
61905254131,0,-2,0,0,0,-2,2,7
61905262562,0,0,-2,-1,-1,-2,-1,-5
61905262562,0,-4,-1,-4,-1,0,1,-14
61905276766,-1,-3,-1,-3,-1,2,3,1
61905276766,-2,-1,-1,-5,-2,0,-1,-6
61905283618,-1,-2,0,4,0,-2,-2,-1
61905283618,-1,0,0,1,1,0,-1,1
61905299996,-1,0,0,0,0,-2,-3,0
61905299996,1,1,1,1,-2,-1,-1,-2
61905301560,-3,-1,-3,1,-2,-1,-3,-11
61905301560,0,-2,-2,4,0,0,1,9
61905313605,0,-1,-2,1,0,-1,-3,3
61905313605,-2,0,-2,-2,-3,-2,-2,10
61905322630,1,1,0,3,-3,0,2,-3
61905322630,-6,-2,-3,0,-1,-1,-3,-23
61905336821,-1,-1,-2,0,1,-1,0,-6
61905336821,-2,-1,-1,-4,-1,-2,-1,-11
61905351106,-1,-1,0,3,0,0,2,1
61905351106,1,-1,-1,-2,-2,-2,1,7
61905359974,-2,-2,0,-2,-2,-2,-3,-6
61905359974,1,0,0,1,-1,-1,-2,-11
61905361601,-5,-3,-3,-6,-2,-2,-3,-17
61905361601,0,0,-1,-2,-2,0,-1,1
61905373642,1,-2,-1,-3,-1,0,3,7
61905373642,2,-2,0,-2,-1,-1,0,10
61905382576,-3,-1,1,-1,0,0,-2,2
61905382576,0,-1,-1,-4,0,-3,-3,5
61905396841,-3,-3,-2,-5,0,-1,-2,-4
61905396841,1,-3,-2,-1,0,1,1,15
61905403614,-4,-1,-3,1,0,-2,-5,-10
61905403614,0,0,-2,1,-2,0,-1,3
61905419966,4,2,-1,-1,2,1,2,7
61905419966,-9,-3,-2,-3,-3,-5,-8,-37
61905421549,2,-2,0,1,-1,-2,-1,2
61905421549,0,-4,-2,-1,-3,-1,0,7
61905433597,-2,2,1,0,1,0,-4,-37
61905433597,2,0,-1,1,-2,0,8,28
61905442697,-1,0,-1,-5,-3,-2,-2,0
61905442697,0,-1,-1,0,-1,0,-2,-2
61905456578,0,-1,0,-3,-2,0,-1,11
61905456578,-3,-2,-1,2,1,-1,-3,-3
61905465117,0,1,1,-2,0,1,3,2
61905465117,-1,-2,0,0,0,-2,1,12
61905480045,-1,-1,0,-5,-2,-3,-1,7
61905480045,-4,0,0,-3,0,-2,-9,-22
61905481576,2,-3,-2,2,-1,-1,0,8
61905481576,0,0,-2,-2,0,-1,-1,-1
61905493664,-6,-2,-2,0,-1,-2,-2,-6
61905493664,1,-1,-1,-2,-2,0,0,-4
61905502573,1,1,-2,-2,-3,0,-2,-1
61905502573,-2,-1,0,1,-3,0,-3,-4
61905516778,-2,-3,0,-2,-2,-1,1,9
61905516778,3,-1,-2,-2,0,1,1,11
61905523549,-2,-1,-1,-4,0,-3,-1,-7
61905523549,-2,0,1,-1,-1,-2,2,3
61905539967,0,1,-1,3,-2,-2,-3,1
61905539967,1,-2,0,2,0,0,0,1
61905541522,-1,0,-3,-1,1,0,2,3
61905541522,-1,-1,-1,-3,0,-3,-2,-4
61905553672,-3,-2,0,0,-2,-1,-1,-1
61905553672,-2,-2,-2,-1,-3,-1,2,4
61905562552,0,0,-1,-5,-2,-2,0,-2
61905562552,2,-1,0,1,0,1,0,5
61905576779,0,-3,-2,1,-1,0,1,4
61905576779,0,-2,-1,2,-1,-1,2,-24
61905583579,-2,-3,-1,2,-1,-1,-1,2
61905583579,0,0,0,-4,0,0,0,1
61905599293,3,0,-1,1,1,1,1,23
61905599293,-3,-2,0,-1,-1,-3,-4,-16
61905606109,-4,-2,-1,1,-3,-2,-1,-1
61905606109,-4,-2,0,-2,-1,-3,-5,-21
61905613622,2,1,-1,-1,0,1,-1,-1
61905613622,-1,0,0,0,-1,-1,-2,-7
61905622575,1,1,-2,0,-1,-2,-1,3
61905622575,2,-1,-2,4,0,-1,0,7
61905636799,-7,-1,-1,-1,-1,-2,-4,-27
61905636799,0,-1,-2,-3,-2,-1,-5,18
61905643627,1,-1,2,1,1,1,0,0
61905643627,0,0,-2,0,-1,0,1,1
61905658655,1,-1,-2,-3,-1,-1,0,8
61905658655,-1,-2,0,3,-1,1,1,-3
61905666099,-3,-1,-3,-1,0,0,-1,-26
61905666099,2,-1,1,-3,1,-1,0,8
61905681874,-2,-2,-1,-2,-1,0,2,0
61905681874,-1,0,-1,1,-1,0,2,12
61905682557,-3,-2,1,1,-2,0,-1,-8
61905682557,-6,1,-1,-1,-2,-3,-4,-12
61905697602,2,-1,-3,-4,0,0,-1,-5
61905697602,2,1,0,-3,1,-1,-1,2
61905703613,0,0,-1,-5,-2,-1,-2,7
61905703613,-1,0,-1,-2,-1,-1,0,6
61905718631,0,-1,-1,1,-2,0,-3,-1
61905718631,1,-4,-2,-2,-2,-1,5,27
61905726148,-6,-3,-2,0,-2,-3,-16,-29
61905726148,3,-3,-1,-3,-2,1,1,21
61905741955,-8,-1,-3,1,-2,-2,-4,-9
61905741955,3,1,-1,-1,0,-1,1,5
61905742785,-2,-1,1,-5,0,-1,3,1
61905742785,-1,0,0,-2,-1,0,4,11
61905757577,1,-1,0,0,-1,-1,-3,-6
61905757577,-2,-1,0,1,-1,-1,-3,-8
61905763598,6,-1,0,-1,0,1,5,17
61905763598,-6,-2,-5,6,-1,-3,-3,-17
61905778634,2,-3,-2,0,-2,1,4,10
61905778634,-4,-1,-1,-2,1,-3,-4,-20
61905786112,0,1,0,0,-1,0,3,9
61905786112,-2,0,0,-2,0,0,-3,0
61905801775,-1,-1,-2,-4,-3,-2,-2,-1
61905801775,-1,1,-2,-1,0,0,0,4
61905802560,0,-4,0,-3,-1,0,-3,2
61905802560,1,-1,-2,0,0,-1,0,-8
61905817637,-1,0,0,-1,0,-1,1,-10
61905817637,-1,-2,-4,-3,-3,1,3,3
61905823613,-2,1,0,-1,-1,-2,-2,-3
61905823613,2,-1,-2,-2,-2,0,2,9
61905838597,-4,0,-1,-4,0,-2,-7,-26
61905838597,-4,-2,-1,1,-2,-2,-2,-1
61905846511,2,-1,0,0,0,0,4,11
61905846511,1,0,0,-1,-2,1,0,9
61905861763,-2,-1,0,1,-1,-2,-1,13
61905861763,3,-1,-1,-1,-1,0,0,0
61905862553,1,1,-3,-5,1,-1,-4,-8
61905862553,-2,-3,0,0,0,0,0,-6
61905877567,1,0,0,0,-1,0,1,7
61905877567,-2,-2,-2,-1,-1,-3,-2,-2
61905883559,-1,-3,-2,3,0,-2,1,14
61905883559,-2,-3,0,-7,-2,-1,-4,-12
61905898647,0,-3,-4,1,-1,-1,2,10
61905898647,0,1,1,-4,0,-1,-1,-4
61905906053,-1,-2,-1,-3,-1,-1,2,6
61905906053,-3,-1,0,-2,-2,-4,-6,-12
61905922341,-2,0,0,-4,-1,-2,-2,-1
61905922341,0,2,0,1,-1,-1,-4,-1
61905923109,-1,-2,-1,2,-1,0,0,1
61905923109,-2,2,-3,-2,0,0,0,-6
61905937570,0,2,0,-4,-1,-2,-1,5
61905937570,-3,-1,-3,-4,-4,-2,1,9
61905943594,0,0,-3,-1,0,-3,-4,5
61905943594,2,-3,-1,2,-1,1,1,3
61905958653,-2,-2,-1,1,-2,-1,-3,-17
61905958653,0,-1,-1,-3,-3,-1,-2,-3
61905966131,-3,-1,-1,-2,0,0,2,-12
61905966131,0,-1,0,1,0,-1,0,4
61905981742,1,0,0,-1,0,-1,0,10
61905981742,-1,-2,-1,2,0,-1,-3,-7
61905982522,-2,0,0,4,-2,0,-4,-8
61905982522,-2,-2,-3,-3,-1,-1,-1,-11
61905997566,2,-2,1,-1,1,-1,6,24
61905997566,-1,-1,-2,-2,-1,-2,-10,-41
61906003627,-2,0,1,-1,0,-1,-1,1
61906003627,-2,-2,-1,-1,0,-3,-3,31
61906018599,2,-1,-2,0,-1,-1,2,3
61906018599,-1,-3,-1,1,-2,0,5,3
61906026095,0,0,-2,0,-1,-4,0,-4
61906026095,0,-2,-2,-2,-2,-3,0,-3
61906041761,-3,-1,-1,0,0,-2,-1,-6
61906041761,-2,-1,-2,4,2,-4,0,19
61906042557,2,-1,-1,-1,-2,1,0,-5
61906042557,0,0,1,2,-1,-1,-4,-4
61906057600,1,-2,-1,-1,0,-2,-3,-11
61906057600,-4,0,-1,-2,0,0,2,6
61906063574,0,0,-2,-2,-1,-1,-4,-8
61906063574,-5,0,-4,-6,-1,-2,-2,-18
61906078671,2,-2,-2,-2,-1,0,0,-3
61906078671,-4,-1,-1,-7,-1,-3,-11,-20
61906086160,-1,-1,-1,-5,-2,-2,2,4
61906086160,2,1,-1,-2,-1,1,4,-1
61906101828,-3,-2,-1,-1,-1,0,-3,-13
61906101828,2,0,1,-1,-1,-1,2,8
61906103516,1,-1,-1,-5,-1,2,1,9
61906103516,0,-2,-2,0,-1,-3,-5,-15
61906117597,-4,-1,-1,0,-2,-2,-3,0
61906117597,4,-1,-1,2,1,-1,6,35
61906123616,-3,1,-1,-1,-1,0,-3,-24
61906123616,-2,-2,-1,-2,0,1,0,-2
61906138626,-2,0,0,-2,0,0,-1,8
61906138626,0,-2,-1,0,-4,-2,-1,5
61906146096,-1,-2,-2,-3,0,-3,-1,4
61906146096,1,-1,0,-1,-1,-1,-2,0
61906161794,-2,-3,-5,0,0,0,0,-1
61906161794,1,0,-2,-2,0,3,-2,-3
61906162537,-3,-2,-2,1,0,-1,2,8
61906162537,-2,-2,-1,-4,-1,-3,-6,-32
61906177597,1,-1,-1,0,-2,-1,-2,11
61906177597,2,0,0,1,0,0,-1,-12
61906183647,-5,-2,0,-6,-2,-3,-5,-12
61906183647,-1,0,-2,1,-1,0,0,12
61906198652,0,2,0,-1,0,0,1,6
61906198652,-5,-3,-3,-1,-1,-2,-3,-15
61906206682,1,0,0,1,0,0,-2,4
61906206682,1,0,0,-1,-3,0,5,3
61906221797,-2,-3,-2,3,-1,0,-4,6
61906221797,1,0,-1,0,-2,0,2,14
61906222524,0,-4,-1,-3,-1,1,3,10
61906222524,-2,-2,-2,2,-2,-3,-5,0
61906237577,-1,-2,-1,-7,-2,-2,-8,-17
61906237577,-2,1,-1,-5,-1,1,0,-5
61906243627,-4,0,0,3,-1,-2,-4,-14
61906243627,2,1,1,-3,1,-1,2,13
61906258601,-1,0,0,1,-2,0,0,-6
61906258601,1,-3,-1,-1,-1,-1,-1,3
61906266130,0,0,-2,-1,1,-1,-1,4
61906266130,-3,-5,-2,2,-1,2,0,-1
61906281844,1,-1,-1,-4,1,-1,1,-9
61906281844,-2,-1,-2,-3,0,-3,-2,7
61906282645,1,0,-2,0,-2,-4,-1,2
61906282645,-2,-1,-2,1,0,-1,-3,-6
61906297603,-1,0,-1,0,-1,-1,-2,0
61906297603,0,1,-1,0,1,-2,-3,-4
61906304136,-1,-3,-1,-2,-2,0,-2,2
61906304136,1,-1,-1,-4,0,-3,-3,-3
61906318623,-2,-3,-1,-3,-2,-2,-1,-16
61906318623,-2,-3,-1,-2,0,0,-2,3
61906326094,0,-1,-1,1,0,1,1,-3
61906326094,0,-1,-1,1,-2,-2,3,15
61906341768,-1,0,-2,-2,0,-2,-2,7
61906341768,-2,0,-2,-2,-2,-2,3,-4
61906342520,3,0,-3,0,-3,-1,-2,-7
61906342520,0,-1,-1,0,0,0,1,4
61906357573,-1,-2,-2,0,-2,-3,-1,-8
61906357573,1,0,0,1,-1,-1,0,0
61906363650,-3,-2,2,1,-1,-2,-1,10
61906363650,-2,-1,0,-3,-1,1,0,-5
61906378705,1,-3,-1,-1,-2,1,-3,-2
61906378705,-3,-3,-1,0,-1,-1,-2,-1
61906386153,0,-3,-3,-2,-2,1,0,-2
61906386153,-1,2,0,3,-2,1,-2,-6
61906401789,0,3,2,3,0,-1,3,14
61906401789,1,0,-2,3,-2,-1,-6,-9
61906402542,-4,0,-2,-3,-1,-2,1,-4
61906402542,-1,-1,-1,1,0,0,-4,-6
61906417619,1,0,-1,-1,0,1,1,-1
61906417619,-6,-1,1,0,-1,-1,1,-14
61906423700,-2,-1,-1,0,-2,-2,-3,-6
61906423700,1,-1,0,-2,-1,1,10,25
61906438689,1,-2,0,-2,-2,-2,-5,-1
61906438689,0,0,-2,-1,1,-2,-1,5
61906446112,-1,-2,0,-1,2,-3,-3,-13
61906446112,1,-2,-1,-3,-2,-3,-1,6
61906461796,0,0,-1,-1,0,-3,3,13
61906461796,-2,-5,-1,-1,-1,1,-3,-18
61906462532,-2,-2,-1,-2,-1,1,-2,4
61906462532,-2,-2,-2,0,-1,0,-4,-3
61906477572,-2,0,-3,-5,0,-1,2,-11
61906477572,-7,-2,0,-3,-2,-2,-4,-23
61906483601,0,-1,0,-1,0,-2,-2,0
61906483601,-2,-2,-1,-4,0,1,-3,-7
61906498618,2,-3,-2,0,-1,0,4,16
61906498618,2,0,-2,2,0,0,0,0
61906506982,0,-1,0,-2,-2,-1,-2,-6
61906506982,-3,1,-1,1,-1,-2,-6,-9
61906521090,-3,0,-2,-1,-2,1,1,2
61906521090,1,-1,-3,-2,-1,-1,1,5
61906528648,0,-2,-1,2,-1,0,-1,4
61906528648,0,-1,-1,2,-1,-2,1,6
61906537580,-2,-3,0,0,-1,0,-2,-6
61906537580,2,2,1,1,-3,-2,-1,3
61906543626,0,1,-3,0,-1,2,3,9
61906543626,-1,-2,1,1,-2,-2,3,-8
61906558608,-1,0,0,-1,-1,0,-4,-17
61906558608,-1,-1,0,-7,2,0,2,-6
61906574310,1,-1,-2,2,0,0,-3,1
61906574310,0,0,-2,-1,-1,1,0,-2
61906581051,0,-1,-1,0,0,0,3,14
61906581051,2,0,-1,1,-3,-1,2,9
61906588715,-8,-2,-2,0,-1,-2,-7,-56
61906588715,-2,-3,-2,-1,0,-1,-2,9
61906597580,-1,-1,-1,1,-2,-1,-2,-8
61906597580,1,1,0,-1,-1,0,2,14
61906603628,1,1,0,1,0,-2,0,12
61906603628,-1,1,-2,-4,-2,-4,-2,-11
61906618643,-3,-1,-2,2,0,-1,-2,2
61906618643,-1,-1,-3,0,-2,-2,-2,8
61906626112,-1,-1,-2,-3,-1,1,0,-1
61906626112,1,-2,-1,-4,0,0,2,1
61906641163,0,-3,0,-2,-1,-2,-1,-4
61906641163,1,-1,-1,0,-2,0,0,11
61906648644,3,-1,-2,-2,1,-2,0,9
61906648644,-1,1,-2,0,0,0,-1,-1
61906664339,-1,0,-2,0,-1,-1,-2,3
61906664339,-1,-2,0,-1,1,-1,-1,0
61906665069,0,0,0,0,-1,-1,1,3
61906665069,1,-2,-2,1,-4,1,-2,-4
61906678665,0,0,0,0,-1,-2,1,1
61906678665,-1,-1,-2,-1,1,0,0,-25
61906686294,0,-1,-2,-4,-1,-2,-5,-15
61906686294,-1,-2,-2,-3,0,-2,-2,-4
61906701137,-1,-2,-2,-6,-1,-1,-3,-10
61906701137,1,-3,-2,-3,-1,0,-1,9
61906709316,-3,-2,-2,0,-2,-1,1,10
61906709316,-1,-2,-3,1,-3,-1,1,-2
61906724291,0,-3,-1,-2,-1,-1,0,4
61906724291,-4,-3,-1,-3,-1,-4,-7,-19
61906725067,1,1,-3,2,0,-1,-1,11
61906725067,-3,-1,0,-5,-1,-2,-4,-8
61906738680,0,2,0,1,-1,-1,1,3
61906738680,0,0,-1,1,-1,-1,2,12
61906746162,-1,-2,-2,2,-1,0,0,-3
61906746162,1,1,-1,0,0,0,0,9
61906761115,-1,-2,-3,-4,-2,-2,-9,-7
61906761115,-5,-7,-1,-1,0,0,1,8
61906768618,2,-1,-1,0,-2,0,-2,-2
61906768618,1,-2,-2,5,-2,-1,1,13
61906785746,2,2,-1,4,-1,-1,0,4
61906785746,-1,-2,-2,-4,-2,-1,-1,0
61906786582,-1,-1,-1,1,-1,-1,3,10
61906786582,-2,-2,-1,-6,1,-3,-2,-9
61906798623,-1,-2,-2,3,-2,-1,1,2
61906798623,0,0,-2,0,1,-2,-2,-7
61906806189,-2,-1,-1,-5,-1,-1,-1,-1
61906806189,-2,-2,-2,0,-1,0,0,6
61906821122,-2,-3,-2,-3,-1,-2,-2,-7
61906821122,-1,1,1,1,-1,-1,-1,3
61906828670,1,1,-1,1,-2,-1,-1,-11
61906828670,-3,-2,-1,-3,-2,-1,-4,7
61906844328,1,0,0,-2,0,0,2,14
61906844328,1,2,-1,-3,-1,-1,-3,-11
61906845027,0,-1,-1,1,-1,0,1,6
61906845027,-1,0,1,1,-1,-2,-4,-13
61906858632,-2,0,0,1,0,-1,1,-3
61906858632,-1,-2,-1,-1,-1,-2,0,9
61906866129,1,-1,-3,0,0,-2,-3,2
61906866129,-1,-1,-2,0,-1,0,4,1
61906881155,-3,-2,-1,2,-1,-1,-2,-12
61906881155,0,-1,0,1,-2,0,-2,4
61906888794,-2,-2,0,-4,-1,0,0,1
61906888794,-2,-1,0,1,-2,0,0,-5
61906904300,1,0,-2,-1,1,0,-1,-1
61906904300,-1,0,-2,0,-1,1,0,-9
61906905057,-2,-3,-1,0,-1,-2,-2,2
61906905057,-3,-4,0,-2,2,0,-1,-6
61906918646,0,-1,0,0,-1,-2,2,9
61906918646,-4,-1,-2,-1,-1,-1,-2,-13
61906926124,0,-1,-2,-4,-1,2,2,-10
61906926124,-1,0,0,-3,0,-1,-1,11
61906941138,2,-1,-2,-2,0,0,1,0
61906941138,-1,-1,-1,4,-1,0,-1,-11
61906948660,-1,0,-3,-1,-1,-3,-3,-1
61906948660,0,1,-1,3,-1,-1,-3,-14
61906964315,-2,-3,-2,0,-1,-1,1,1
61906964315,0,0,-1,0,-1,-1,4,15
61906965113,-4,-3,-1,1,-3,-1,-6,-8
61906965113,1,1,1,-3,0,2,3,6
61906978640,-5,0,-1,-2,-1,-1,-3,-23
61906978640,-1,-2,-2,-1,-1,0,0,14
61906986163,-3,-1,-1,-4,-1,-1,-5,-6
61906986163,0,-2,-4,0,0,-1,4,7
61907001276,3,-1,-1,0,-2,-2,-3,0
61907001276,-2,-2,0,1,-1,-1,-1,-7
61907008621,2,-1,-2,2,-2,-2,3,8
61907008621,-1,-1,-2,1,-2,-2,-5,-5
61907024330,-3,-3,0,-2,0,0,-2,-3
61907024330,0,-1,-2,-1,0,0,-1,5
61907025078,-2,-2,-1,-3,-2,-2,2,8
61907025078,3,1,-1,-3,0,0,0,2
61907038632,-6,-3,-3,-2,-4,-4,-8,1
61907038632,1,-1,-1,0,0,-1,-1,1
61907046154,-1,-3,2,0,1,-1,0,0
61907046154,-2,-1,-2,-4,-1,-3,-2,-12
61907061152,2,1,0,-3,-1,1,0,6
61907061152,-1,0,-1,-2,-2,-1,-2,-22
61907068623,1,1,0,-2,-1,-1,-3,21
61907068623,1,-1,0,0,0,0,2,7
61907084269,-1,-1,-2,-1,0,-2,2,0
61907084269,-3,0,0,-3,-1,-2,-3,-6
61907085061,-1,-2,-1,2,-2,0,3,-3
61907085061,-2,-3,-3,-1,-2,-2,-4,-5
61907098657,-1,0,1,4,1,0,0,-2
61907098657,0,-2,-1,3,-1,-2,-1,2
61907106179,-1,0,-1,-1,0,-1,-2,-4
61907106179,-3,-2,-1,-2,-2,0,1,4
61907121113,-5,-2,0,0,-2,-2,-2,-27
61907121113,1,0,2,-1,-1,2,2,8
61907128624,-2,0,-1,-3,-1,-2,-5,-18
61907128624,0,-2,0,0,0,0,0,3
61907144328,0,-1,-1,-2,-1,-1,0,0
61907144328,-2,-2,0,-6,-1,-2,2,3
61907145069,2,-1,-3,2,2,0,0,-8
61907145069,-4,-1,-1,-1,-1,-3,-3,-18
61907158656,0,0,-2,2,-1,0,2,9
61907158656,1,0,-3,-4,-1,-1,-1,6
61907166178,-5,-1,-1,-2,-1,0,0,-3
61907166178,-2,-1,-2,1,-3,0,1,-3
61907181193,0,-2,-2,0,-2,-1,-1,3
61907181193,-1,-2,-1,4,-1,-2,-3,-7
61907188640,-1,1,-2,-3,0,-2,1,7
61907188640,1,0,-2,0,-1,-1,-3,-6
61907204294,-1,-2,0,-5,1,1,4,3
61907204294,-1,-1,0,5,-1,0,1,3
61907205063,-1,-4,-1,0,1,-1,-2,-4
61907205063,0,-3,-1,-2,0,-2,-1,4
61907219168,1,1,-1,-2,0,0,0,-15
61907219168,1,-2,-3,0,0,-1,-3,-8
61907226170,-2,-1,-2,0,-1,0,0,3
61907226170,0,0,-1,-1,-1,-1,-1,-8
61907241178,-5,-2,0,1,-1,-2,-6,11
61907241178,-1,1,-3,-3,-2,0,4,11
61907248654,1,1,-1,2,-3,-1,-4,-9
61907248654,-3,-1,0,-7,-1,-1,2,20
61907265804,1,-2,-1,-1,-2,-1,0,1
61907265804,-3,-2,-3,-2,0,-2,0,0
61907266609,-1,-1,-1,-3,-2,-1,0,1
61907266609,1,1,0,1,0,-1,-2,-1
61907278648,1,-1,-1,-1,0,-1,-1,0
61907278648,-4,-3,-2,-6,-2,0,-2,-9
61907286190,0,-2,-1,-3,-2,-1,4,13
61907286190,0,-1,-1,3,0,-1,-3,-4
61907301120,0,1,-2,-7,-1,-1,0,6
61907301120,0,-1,0,-2,0,-1,-3,-17
61907308646,-1,-1,0,2,0,0,-2,-3
61907308646,1,-1,-2,0,-2,1,-2,-7
61907324316,-1,-1,-2,0,0,-1,2,13
61907324316,-1,-1,-2,2,-1,-1,2,14
61907325075,-1,-2,-3,-5,-1,-1,-2,0
61907325075,-2,-1,0,0,-1,-1,0,-2
61907338612,0,-2,-1,0,-1,-2,-9,-21
61907338612,0,0,-1,-5,-1,1,1,20
61907346267,-3,-2,-1,2,-1,-2,1,-11
61907346267,-2,0,-1,-1,-1,-2,3,4
61907361119,-1,-3,0,-1,-4,0,3,2
61907361119,-1,1,0,3,-1,-3,-3,-9
61907368652,-1,-2,0,3,0,-2,-2,8
61907368652,-1,-3,-2,-2,0,-2,-2,-1
61907384305,-1,-2,-1,-2,1,-1,-1,-1
61907384305,1,-2,-2,1,-1,-1,-1,-2
61907385056,-4,-1,-1,-4,-3,-1,-3,16
61907385056,0,0,-2,-1,-2,1,0,-9
61907398742,-1,-2,-1,1,0,-1,-2,2
61907398742,-1,-1,0,-4,-2,-2,-1,11
61907406165,-1,-1,-1,1,-1,-1,-2,2
61907406165,-2,0,-2,-3,-1,-3,-4,-9
61907421171,-4,0,-1,1,-1,-1,-4,-17
61907421171,-1,-1,-1,-3,0,0,-3,-9
61907428603,-3,-2,-1,0,0,0,4,9
61907428603,-1,-2,2,0,0,-1,-2,3
61907444300,1,-1,0,3,-2,-1,2,11
61907444300,-4,-2,-3,1,-1,-4,-5,-23
61907445047,0,1,-1,-2,-3,0,0,-10
61907445047,-1,-1,0,-6,0,1,1,1
61907458644,-4,0,-2,-2,-2,-2,0,-4
61907458644,-1,-2,-1,2,-1,-2,-4,-1
61907466152,2,0,0,0,-2,-3,3,7
61907466152,0,-1,-3,1,-1,-3,-4,-1
61907481152,0,-2,-2,-1,-2,-1,-1,-12
61907481152,2,-1,-1,-3,-2,1,0,1
61907488676,-5,-3,-1,-2,0,-3,2,-7
61907488676,-1,-2,-1,3,-3,-2,-4,7
61907503638,0,-3,0,-2,1,1,1,9
61907503638,-4,-2,-3,1,0,-1,-5,-21
61907511856,2,-2,-3,1,0,1,-1,-6
61907511856,-3,0,-1,-2,-1,-2,2,5
61907518657,-2,-1,-3,1,1,-1,-1,-1
61907518657,1,1,0,-4,0,0,-1,9
61907527141,1,-1,-2,-2,-2,-1,-6,-4
61907527141,0,-1,-1,-1,-1,0,0,-4
61907541200,2,-1,-1,-1,-3,-2,0,1
61907541200,-1,-1,-1,-1,-3,-2,3,6
61907548687,-4,-1,-1,-3,-1,-1,-1,-8
61907548687,2,-1,-3,-2,-1,0,-1,12
61907563629,1,-2,0,-2,-1,-2,-6,-11
61907563629,1,0,-1,-2,0,-1,0,29
61907571856,0,0,0,5,1,1,1,6
61907571856,-3,-2,-1,1,-2,-1,-4,-14
61907578665,-2,1,-2,1,1,0,1,-3
61907578665,-3,-1,0,-2,-1,-2,-3,-3
61907586162,1,-1,-1,1,-1,-3,-6,-9
61907586162,-1,-1,-2,2,-1,-1,3,10
61907602636,-3,0,-1,-1,0,0,-2,-11
61907602636,0,-2,0,-1,0,0,1,-9
61907608669,1,0,1,-4,-1,1,-1,3
61907608669,-2,-2,-1,-2,0,-1,0,-12
61907623667,-2,-1,1,0,-4,0,0,13
61907623667,-4,-1,-1,2,-1,-1,-4,-6
61907631786,-2,0,-1,-4,-2,-1,1,-16
61907631786,-2,-1,-2,-3,-1,-2,1,-1
61907646846,3,-1,-2,-2,-3,-2,1,10
61907646846,0,-2,-2,-2,0,-1,-3,-9
61907647624,-1,0,0,0,1,-1,-1,0
61907647624,-1,0,-1,3,-2,0,0,-15
61907661223,-5,-4,-3,-1,0,-2,-5,-25
61907661223,0,0,-1,1,-1,0,1,-1
61907668704,-1,-1,-1,1,-1,-2,-4,-1
61907668704,-1,-2,-1,-4,-1,-1,3,4
61907683665,1,-1,-1,-4,-1,-1,0,-3
61907683665,-5,-4,-2,-4,-2,-2,2,-15
61907691836,-2,-3,-3,-2,-1,-1,-2,0
61907691836,0,-1,-1,-2,-1,-2,-2,1
61907706849,1,-1,-3,-2,0,0,-1,2
61907706849,1,-1,-1,-1,-2,-1,-3,-4
61907707560,-2,-2,-1,-4,-2,0,-1,5
61907707560,-2,-1,-1,1,-3,-1,-3,4
61907721184,-1,0,0,-1,0,-1,-2,-8
61907721184,2,-3,-2,-2,-3,-1,0,5
61907729242,1,0,-1,-5,-1,1,2,15
61907729242,1,0,0,-1,1,-2,0,1
61907743638,-1,0,0,-2,-1,0,1,9
61907743638,-1,0,-2,1,0,0,-1,1
61907751856,-1,-2,-2,-5,0,-1,-1,-10
61907751856,1,0,-1,-1,1,1,-2,0
61907766856,-4,-4,-1,2,-2,-3,2,13
61907766856,1,-1,0,-2,-2,-1,4,5
61907767594,1,1,0,6,-2,-2,0,15
61907767594,1,1,-2,-1,-1,-1,2,19
61907781212,-3,-2,-4,2,0,-3,-7,-20
61907781212,-2,-2,-3,-2,0,1,2,6
61907788648,-1,-2,-2,0,-3,-1,1,10
61907788648,-2,-2,-1,-3,-1,0,-3,-4
61907803645,-1,1,0,3,-2,-1,1,3
61907803645,-1,1,-2,0,2,0,0,1
61907811896,-1,0,0,-4,0,-2,-3,-9
61907811896,-3,-2,-2,2,-2,-2,-1,-19
61907826795,0,0,-3,-1,-2,0,-2,16
61907826795,-1,-2,-1,0,-1,0,-3,-3
61907827630,-1,-2,0,1,1,-2,0,-7
61907827630,-3,-5,-1,-3,0,-4,0,-1
61907841170,0,-1,0,-3,0,0,1,1
61907841170,-1,0,0,-2,-2,-2,0,6
61907848679,-3,0,-1,1,0,2,-2,-1
61907848679,3,1,0,-3,-2,-1,-1,3
61907863717,-10,-3,-2,1,-1,-2,-10,-58
61907863717,8,0,-1,3,0,-4,2,20
61907871850,-2,-2,-2,-2,-1,-2,0,-11
61907871850,-1,-1,1,-3,-1,2,0,-2
61907886839,0,0,-2,2,0,0,4,5
61907886839,-2,-1,0,0,-1,0,-1,-16
61907887571,-1,-1,-1,0,-2,-3,-3,3
61907887571,-2,-2,-2,-3,-1,-1,-6,-21
61907901111,3,-1,-1,-8,1,0,2,22
61907901111,-3,-2,-2,1,-2,-2,-6,-9
61907908635,2,0,-1,0,0,0,3,1
61907908635,-4,0,0,1,-2,-2,-1,4
61907923638,1,-1,0,-1,1,0,0,17
61907923638,-6,-1,-2,-3,-2,-1,0,-23
61907932734,0,0,-2,-3,-1,1,-3,-10
61907932734,-1,0,-1,0,0,-1,-3,5
61907946833,1,-1,-1,2,-2,1,3,8
61907946833,-2,0,-3,-6,-1,0,0,-12
61907947729,-1,0,1,2,-1,-1,-1,4
61907947729,-1,-1,-2,-1,1,0,0,-12
61907961189,-1,-1,0,2,0,-2,-1,29
61907961189,0,-1,0,-2,-2,-1,1,1
61907968679,-1,-3,-1,-7,-2,-1,-1,-2
61907968679,0,-2,-2,4,-2,-2,0,3
61907983668,0,0,0,0,-1,0,-3,-10
61907983668,-2,-2,-2,3,1,-1,-2,6
61907991861,-1,-2,-2,-4,0,-1,-1,0
61907991861,2,-1,-2,-4,0,0,-2,-9
61908006833,-4,0,-1,0,0,0,-2,-13
61908006833,-2,-4,1,-1,-2,1,0,-8
61908007582,5,2,0,0,0,2,5,26
61908007582,-6,-3,-3,3,-3,-3,-5,4
61908021154,-1,-1,0,-2,0,-1,1,-1
61908021154,0,0,-2,0,-1,-1,-2,-1
61908028629,0,-1,0,-6,0,-1,-2,3
61908028629,3,0,-2,-4,-1,0,1,2
61908043632,0,-1,-1,0,0,-1,-2,-2
61908043632,1,0,0,-3,-2,-1,-4,6
61908051860,-4,-4,-2,0,-1,1,1,-11
61908051860,1,-1,-2,2,0,0,3,12
61908066789,0,-2,-2,0,0,-1,0,-5
61908066789,1,0,-1,-1,0,-3,-1,-2
61908067576,-2,0,-1,0,-2,-2,-3,-9
61908067576,-2,1,0,0,-3,-1,0,0
61908081189,-1,-3,-2,-4,-5,-1,-3,-27
61908081189,-2,-1,-1,1,-2,-3,7,33
61908088642,-3,-1,-2,5,1,-1,-2,-19
61908088642,0,0,-1,-4,1,1,3,10
61908103700,-2,-3,-1,-1,-1,-3,-2,18
61908103700,2,0,-3,-1,0,-1,-3,-6
61908111845,-1,-1,-2,-2,-4,-2,0,14
61908111845,-1,-2,0,0,0,-1,0,2
61908126879,2,0,-1,-2,0,1,1,2
61908126879,-1,-2,1,-6,1,-2,-2,-7
61908127595,-3,-5,-2,2,-2,-1,1,9
61908127595,-1,-1,-1,0,1,-1,-4,-10
61908142362,-1,-1,-2,0,-2,-1,0,3
61908142362,-3,-1,-2,2,1,1,-3,2
61908148683,1,0,0,1,-1,0,-3,-5
61908148683,-2,-1,-1,-3,-3,-1,-4,-27
61908163643,-1,-1,0,1,2,-2,1,-23
61908163643,4,0,-1,-4,-1,1,4,12
61908171905,-2,-2,-1,-4,-1,-2,-4,-23
61908171905,-3,-2,0,-3,-1,-2,-1,5
61908186792,-1,0,-2,1,-3,1,-3,1
61908186792,0,1,1,1,-1,0,-5,-3
61908187574,-3,-1,-2,-4,-2,-1,2,8
61908187574,4,-1,-1,-1,-1,-1,2,2
61908201141,-7,-1,0,-5,-3,0,-4,-19
61908201141,-1,-2,-3,1,-1,1,0,-2
61908208669,-1,-2,-1,1,-1,-2,-3,4
61908208669,-4,-3,-1,-3,0,-2,-3,-20
61908223636,0,-1,-1,-1,-1,-1,0,11
61908223636,-4,-3,-2,-6,-1,-1,0,-1
61908231840,-1,-1,-1,0,-1,1,-3,-14
61908231840,0,-2,0,3,-2,-1,0,0
61908247387,1,-2,-2,1,0,-3,-3,-9
61908247387,-4,1,-1,1,-1,-3,-5,-19
61908249148,-1,-1,-1,1,0,-1,-3,-18
61908249148,-3,-1,-2,-4,-1,-2,0,5
61908261184,3,1,-1,-1,-1,-2,0,15
61908261184,0,0,-1,2,-2,-1,1,5
61908268688,-4,0,0,1,0,-2,-4,-23
61908268688,-1,0,-2,0,-1,0,-4,-7
61908283656,-1,-3,-2,0,0,0,-2,6
61908283656,1,-3,0,1,-2,-1,4,14
61908291896,0,0,0,-1,-1,-2,0,4
61908291896,1,-1,0,2,-1,-2,-1,8
61908306830,-1,-1,1,0,0,-1,0,-3
61908306830,-2,-2,-2,-2,0,-1,-1,-1
61908307572,2,-3,-2,-2,0,1,1,-6
61908307572,-4,-1,0,-5,-1,-5,-5,1
61908321230,-1,-1,-1,-1,-2,-1,4,21
61908321230,-1,0,0,1,-1,0,-4,-26
61908328667,1,-1,-2,-2,0,0,2,14
61908328667,1,-1,-3,0,-1,-2,-1,-2
61908343620,-3,-1,-2,-1,-1,-2,-4,-12
61908343620,-5,-2,0,-5,-2,-2,-1,6
61908352756,1,0,-1,-3,0,0,3,13
61908352756,1,0,-1,3,-1,1,-4,-1
61908366802,-3,0,0,-1,-1,-1,1,7
61908366802,2,-1,0,0,-1,-1,0,-7
61908367571,-5,-1,-1,0,-3,0,-3,-19
61908367571,-1,-2,-1,-2,-1,-1,0,2
61908381152,1,0,-2,-5,-3,1,-3,6
61908381152,-2,-1,-1,2,0,-2,-1,-4
61908388638,-2,-1,-2,-2,0,-2,-1,3
61908388638,1,-1,-2,1,0,0,0,-5
61908403682,3,0,2,1,0,-1,1,6
61908403682,-2,0,-2,1,-2,-3,-5,-9
61908411877,0,-2,0,3,0,-2,0,8
61908411877,-1,0,-1,0,-1,1,2,-6
61908426133,-2,-1,0,-2,0,-2,-1,-3
61908426133,-1,-2,-1,-3,-1,0,0,13
61908434330,0,2,0,0,-1,-2,0,-2
61908434330,-3,-1,-4,1,-1,-1,-4,-9
61908441169,-1,-2,-1,-5,1,-1,0,0
61908441169,-1,-2,-1,-2,0,-1,-3,-2
61908448675,0,-2,-1,0,1,-2,1,14
61908448675,-2,-1,-2,-3,-2,-3,2,-2
61908463679,-1,1,-1,-1,-1,0,-1,-5
61908463679,0,-1,-2,2,0,-1,0,15
61908471889,-1,-1,-2,-2,0,-2,-2,0
61908471889,0,-1,-1,-1,-1,-1,0,-1
61908486151,-3,-2,-1,-4,-2,-4,-8,-12
61908486151,-1,-1,0,-1,-1,1,-1,-9
61908494340,-2,-2,-1,-1,-1,0,-2,0
61908494340,-2,0,1,-3,-2,1,0,22
61908501147,-2,-3,-3,1,-1,-1,-4,-36
61908501147,-3,0,-2,-1,-2,-2,1,10
61908508639,-1,-1,0,0,-1,-2,0,6
61908508639,2,-2,0,-2,0,1,0,0
61908523698,-5,-3,0,-4,-1,-1,-1,-5
61908523698,0,1,-2,-4,0,0,2,2
61908532283,0,0,-1,0,0,-1,-2,-6
61908532283,-6,-3,-3,2,-1,-4,-1,-15
61908546180,0,-1,0,5,0,0,2,7
61908546180,-2,-1,2,1,-1,-2,0,-5
61908554974,-1,0,0,0,-4,0,0,7
61908554974,1,0,-1,-2,0,0,-3,8
61908569348,0,-2,-2,3,1,0,3,9
61908569348,-1,-1,-2,4,0,0,-4,-7
61908570117,-1,-1,0,-1,-2,0,2,0
61908570117,-3,-2,-2,0,-1,-2,-7,-20
61908583672,-2,-2,-2,-2,0,0,-3,-7
61908583672,0,0,-3,-2,0,-3,1,0
61908591859,0,-2,-1,-1,-1,1,-4,-9
61908591859,-1,-1,1,0,0,-1,-4,-1
61908606181,4,1,-1,-3,-1,0,5,34
61908606181,-2,0,-1,0,-2,-2,-1,2
61908614324,-2,-1,-2,0,-1,-1,-2,-10
61908614324,1,0,1,-1,-1,0,1,1
61908629313,-1,-2,-2,2,-2,0,-3,-7
61908629313,-1,-4,-1,-2,-2,-1,-4,0
61908630109,-2,-1,-2,-2,-2,1,1,2
61908630109,-1,-1,-1,0,1,0,1,6
61908643640,-1,0,-1,2,-2,-3,-2,-2
61908643640,0,0,0,2,-2,-1,0,-4
61908651832,-3,0,1,-3,1,-1,-3,-12
61908651832,0,-1,-3,-1,-2,-2,1,5
61908666151,0,0,0,-2,-1,0,1,0
61908666151,-4,-1,-1,0,-1,-1,-3,-16
61908674357,2,1,-2,-3,-1,-1,0,9
61908674357,-5,-3,-2,-2,-1,-1,1,-2
61908689308,1,-1,-2,0,-2,-3,3,-4
61908689308,0,-2,2,-1,0,1,-2,16
61908690088,-2,-1,-2,1,0,0,-6,-9
61908690088,0,0,0,-1,-1,-2,8,16
61908703647,-1,0,-2,-3,-1,-1,-2,-7
61908703647,0,-1,-2,-3,-3,-1,-1,-3
61908711864,-1,-1,-2,2,-2,1,-1,-5
61908711864,-3,-1,-1,-3,-2,-2,-2,0
61908726166,-2,-2,-1,1,0,1,-1,1
61908726166,1,-1,-1,-4,0,0,2,0
61908734374,-2,-3,-1,-3,-1,-3,-2,-6
61908734374,2,-2,0,-1,-2,0,-1,-1
61908749324,-1,-1,0,-2,0,0,-1,12
61908749324,0,-2,-3,2,0,-2,-3,-2
61908750106,-6,0,0,-4,-3,-3,-3,-22
61908750106,-3,-1,0,2,-1,0,-3,5
61908763643,2,0,0,-5,-2,-1,-1,-3
61908763643,-4,-3,-2,-1,-2,-1,-1,-1
61908771832,1,0,-3,3,1,-1,1,10
61908771832,0,-2,-3,-2,-1,-1,5,15
61908786190,-8,-3,-1,4,-1,-2,-9,-46
61908786190,1,0,2,-5,-2,-2,1,1
61908794380,-1,-1,-1,0,0,-1,0,4
61908794380,2,0,0,2,0,0,0,1
61908809323,0,0,-3,-3,-3,0,1,9
61908809323,-4,0,-3,0,1,-2,-2,-8
61908810105,0,-2,1,3,-1,-1,2,-1
61908810105,0,1,-1,2,-1,0,-3,-10
61908823670,0,-1,0,-4,2,-1,-1,4
61908823670,-1,-2,-2,0,-5,0,-3,-22
61908831864,3,-1,0,-2,0,1,1,8
61908831864,-6,-2,-3,-5,-2,-2,-7,-25
61908846173,-4,-2,-1,0,-2,-1,1,-6
61908846173,2,-2,-1,-1,1,0,-1,5
61908854336,-3,-2,-3,1,-2,0,0,10
61908854336,1,0,-1,0,-1,0,-3,-22
61908869353,-1,0,-1,0,0,-3,4,15
61908869353,-1,-1,-1,-2,0,0,-2,-3
61908870110,-2,-2,0,1,-4,0,-1,-2
61908870110,0,-1,-1,-3,0,-1,-3,-3
61908883698,-2,0,-2,-1,0,-1,-1,17
61908883698,3,1,-1,0,1,0,2,-4
61908891875,-2,-1,-2,-2,1,-2,-7,-20
61908891875,-3,-1,-1,0,-3,-1,-1,6
61908906194,-1,-3,-2,-1,-1,-1,-2,-7
61908906194,-1,-1,-2,5,-1,0,2,10
61908914337,-1,2,-1,0,-1,1,3,11
61908914337,-1,0,0,1,-1,-2,-1,-4
61908929340,-4,-1,0,-4,-2,1,1,-22
61908929340,0,1,0,1,-1,-2,-3,1
61908930101,2,-2,-2,0,0,-1,1,17
61908930101,-3,-2,-2,0,-1,0,2,4
61908943667,5,1,1,-1,0,2,-2,12
61908943667,-7,-1,-1,-1,-1,-1,-3,-1
61908951913,-1,-1,0,0,-1,-1,-2,-12
61908951913,2,1,-2,-3,1,-2,1,8
61908967055,-2,0,-2,3,0,-1,-1,-3
61908967055,0,-3,-1,-1,0,-1,2,10
61908974374,0,-3,-2,-1,1,-2,-1,5
61908974374,-1,0,-2,3,-2,-1,-1,2
61908989759,0,-1,-1,-2,-1,-1,-2,0
61908989759,-1,-1,-2,-2,-1,1,-4,-2
61908990541,-3,-2,-1,-3,-2,-1,-1,6
61908990541,2,-4,-3,2,-2,0,-1,-9
61909003649,-4,-2,1,-5,-2,-2,-1,-4
61909003649,0,0,-1,-3,-1,-2,-3,14
61909011860,0,0,0,0,0,1,2,-2
61909011860,2,1,-2,2,-1,-2,-3,-7
61909026142,0,-2,-1,7,0,0,-1,13
61909026142,-2,-2,-2,-3,-1,-2,-2,-1
61909034429,1,1,-1,1,-2,-1,3,10
61909034429,-3,-1,0,-3,-1,-1,-7,-23
61909049335,-1,-3,-2,1,0,-2,2,-1
61909049335,3,-1,1,1,-2,0,2,0
61909050112,-1,0,-1,-1,-1,-1,-3,-5
61909050112,-2,-2,0,-2,-1,-1,1,8
61909064892,-1,0,-1,0,-2,0,-4,-7
61909064892,2,-1,0,-4,0,0,3,-9
61909071870,-5,-2,-2,-3,-2,-1,-4,1
61909071870,0,-1,-2,1,2,-1,2,10
61909086186,-2,0,-1,-2,0,-1,-3,-4
61909086186,-2,-1,0,1,-1,-2,-1,-1
61909094360,1,-1,-3,0,-3,0,-2,-5
61909094360,-2,-2,-1,-1,-3,-2,2,15
61909109309,2,-1,-1,1,-1,-2,3,21
61909109309,-2,-2,-4,4,-1,-4,-5,-28
61909110097,-1,-1,-1,-4,-2,-2,3,9
61909110097,-3,-2,-1,-1,-1,-1,-2,-3
61909123679,1,-2,-2,0,-1,-1,1,-2
61909123679,-3,-1,1,-3,0,-1,-3,-4
61909131852,0,1,1,-2,1,-1,-3,-7
61909131852,-2,0,0,-6,-2,-1,-3,-5
61909146203,1,-2,-2,-1,-2,-1,2,-12
61909146203,-4,-3,-3,-3,-1,-1,-1,-6
61909154361,0,-2,-2,-4,-2,-2,-3,-1
61909154361,0,1,0,-3,-1,-1,0,10
61909169350,-2,0,-1,-4,-1,0,-5,-5
61909169350,0,-3,-1,-3,-1,-1,0,-1
61909170126,-2,1,-2,-3,-1,-1,-1,-3
61909170126,0,1,-1,4,-1,0,4,13
61909183642,-5,-2,-2,-5,-2,-4,-8,-7
61909183642,4,0,0,-3,-1,1,8,13
61909191881,-4,-3,1,-3,0,-2,-4,-2
61909191881,1,-2,-2,-3,-3,0,-2,0
61909206230,-1,1,-2,-2,1,0,0,-5
61909206230,1,-2,0,1,0,-2,1,15
61909214377,-5,-1,-3,-1,0,-3,-1,-11
61909214377,-2,-1,-1,-2,1,-1,-1,-6
61909229335,-1,0,-1,1,0,-1,0,6
61909229335,0,-2,-2,-4,-1,-2,-2,1
61909230132,3,1,1,5,-1,0,3,5
61909230132,-4,-2,-1,-2,-2,-1,0,-6
61909243703,0,-2,-1,-3,-2,-1,-2,-12
61909243703,-1,-1,0,-3,-1,-1,-2,23
61909251855,-2,-1,-1,-4,0,0,-3,-35
61909251855,1,1,-2,0,2,0,5,13
61909267505,2,-2,-3,3,0,-1,-2,-1
61909267505,-2,0,-1,0,-1,-2,-2,-12
61909274396,-2,0,0,1,-1,-2,-1,1
61909274396,-1,-1,-1,-4,-1,0,-2,1
61909289298,-1,-2,1,1,0,0,4,15
61909289298,1,-2,-1,6,-2,0,-5,-16
61909290077,-1,-2,0,0,0,-1,0,-2
61909290077,0,-1,-1,1,-1,-1,-4,-7
61909303669,0,0,-3,1,-1,-2,-2,5
61909303669,-1,0,-1,-1,-1,0,3,3
61909311914,1,-2,-2,0,-2,0,-1,2
61909311914,-2,-2,-1,-2,0,-1,-3,-3
61909326183,0,0,-1,0,0,0,2,2
61909326183,-2,1,-2,-2,0,-3,-6,-13
61909334377,-5,0,-1,-1,-3,2,6,0
61909334377,1,0,0,4,-2,0,0,3
61909348684,2,-1,0,-1,-1,1,-1,9
61909348684,-1,-1,0,-1,-2,-1,-2,-2
61909356897,0,-1,-1,0,-2,-3,-4,16
61909356897,-3,-1,-1,1,-2,-1,-1,-13
61909363706,-2,-4,-1,-2,0,-2,-1,-5
61909363706,0,-2,1,0,-1,0,4,6
61909371926,3,-2,-2,2,-1,-2,-4,-4
61909371926,-4,-1,-1,-4,-1,-1,-2,-6
61909386226,0,-1,0,1,-1,-1,-4,-6
61909386226,-3,-1,-2,-1,-3,0,-3,0
61909395127,0,-1,-1,1,0,0,4,10
61909395127,1,-2,-1,1,0,0,1,15
61909408695,-1,-2,-1,-1,-2,-1,-3,-5
61909408695,-1,-2,-1,0,1,1,2,3
61909417638,-1,-1,-1,2,-1,-2,-7,-33
61909417638,0,-1,-1,-1,-1,-1,1,8
61909423711,-3,0,-1,-3,-1,-1,-1,2
61909423711,1,-1,-3,-3,1,-1,-1,5
61909432634,-2,-1,-2,2,-1,-2,1,29
61909432634,1,-1,-2,-2,-2,-1,0,-9
61909446152,0,-2,-1,-1,1,0,1,-4
61909446152,-2,-2,-2,-1,-1,-1,-4,-6
61909455143,1,-1,-1,-4,-1,-1,0,4
61909455143,-3,-3,-1,-3,0,-1,-1,-7
61909468704,-1,0,1,3,0,-2,0,6
61909468704,-1,0,0,2,-1,0,1,5
61909478391,-2,-2,-2,0,-1,0,-2,-2
61909478391,-1,-2,-2,3,-2,-2,0,11
61909492505,-1,-3,0,-2,-2,0,-2,-7
61909492505,-5,-3,-3,-3,0,-3,0,-17
61909494118,1,-1,0,-1,-1,-1,0,-6
61909494118,-4,0,-1,-1,-3,-1,-5,-25
61909506188,0,-1,-1,-2,-2,-1,0,2
61909506188,0,-1,-2,-2,-2,-1,-3,-2
61909515177,0,0,-1,-3,0,-1,1,6
61909515177,1,2,-1,-2,3,-1,0,1
61909528697,-2,2,-2,-1,-2,-2,-5,-8
61909528697,-3,-1,0,-2,-1,-2,-3,-8
61909537726,0,-2,-2,-5,0,0,1,12
61909537726,-1,-2,0,0,-1,1,0,7
61909552534,-1,0,-1,-1,-2,0,-1,-15
61909552534,3,2,0,-1,0,-1,2,9
61909554102,-2,0,-3,2,-2,-3,-3,-8
61909554102,1,-2,-2,-5,0,1,1,3
61909566234,-2,-2,-1,-4,-2,-2,-1,5
61909566234,-3,-2,-1,1,-1,0,0,-1
61909575192,-2,-3,-1,-3,-2,-1,-2,-5
61909575192,1,0,-1,-2,2,-1,-3,1
61909588691,-1,-2,0,1,1,-1,-1,-3
61909588691,1,2,2,0,0,1,1,8
61909597651,1,-2,-4,-2,-3,1,0,12
61909597651,-2,-2,0,1,-1,-2,2,4
61909612584,1,-1,-1,1,0,1,1,11
61909612584,-1,-3,-3,-2,-1,-3,-3,-13
61909614173,2,1,2,0,0,0,1,19
61909614173,-5,-3,-1,0,-3,-4,-4,-18
61909626169,0,-1,-1,-2,-1,0,1,6
61909626169,2,-2,-2,0,-1,-2,-3,-3
61909635181,0,0,0,-2,0,1,-1,-5
61909635181,2,0,-2,-1,-1,-1,-1,-3
61909648827,-5,0,0,0,0,-1,2,-3
61909648827,-2,-2,-1,-2,-1,2,-1,4
61909657621,-2,-2,-2,-3,0,-1,-1,-14
61909657621,-1,1,0,1,-1,0,-1,-6
61909672549,3,-1,-2,-1,-2,-1,-2,6
61909672549,-3,-1,0,-3,1,1,-2,-3
61909674175,-1,0,-3,0,-1,-2,-2,-6
61909674175,-1,0,-3,1,-1,-1,2,8
61909686165,0,0,-4,2,-2,0,2,4
61909686165,-3,0,-3,2,-4,-4,-2,-6
61909695191,1,-1,0,1,0,0,-2,10
61909695191,-2,-2,1,-4,3,11,0,-1
61909708703,-3,0,0,1,-1,-13,-1,-15
61909708703,1,-1,0,3,0,-1,3,14
61909717699,0,-1,-3,1,-4,-8,-3,-3
61909717699,0,-2,-1,2,-3,-2,3,4
61909732536,-3,-2,-1,-3,0,4,-3,-9
61909732536,-3,-1,0,-1,0,0,2,1
61909734174,0,0,0,1,-2,1,-2,-12
61909734174,0,-2,-1,-1,-1,-4,-6,-4
61909746154,-3,-2,-1,1,0,7,-2,-2
61909746154,3,-1,-3,1,-4,-9,0,-8
61909755192,-5,-2,0,-2,-3,-6,0,-12
61909755192,2,-2,-2,3,-1,7,1,38
61909768681,-3,-3,-2,-1,-1,-7,-9,-14
61909768681,2,0,-2,-2,2,-4,3,1
61909777691,-1,-3,-3,-1,1,2,-2,-2
61909777691,1,-4,-1,1,4,31,4,-4
61909792539,0,1,1,-1,-3,11,-1,0
61909792539,-2,-4,-7,0,-30,-72,-19,-3
61909794170,0,-2,-1,-3,5,21,5,7
61909794170,0,2,0,-3,7,-2,5,-7
61909806203,-3,-5,-6,2,-14,2,-12,-2
61909806203,-4,1,2,-5,9,33,1,-6
61909815167,-5,-2,-1,-5,-4,3,-5,-4
61909815167,-2,-4,-7,-2,-24,-57,-21,-18
61909828739,0,-1,-1,0,6,28,10,7
61909828739,-3,-1,-1,-3,-3,-4,-1,6
61909837664,2,1,3,2,6,15,0,-1
61909837664,-2,3,4,-3,7,15,6,3
61909852549,1,-1,-3,0,-7,-23,-3,3
61909852549,-2,-3,-1,2,0,12,0,-12
61909854157,0,1,1,-7,-2,5,2,0
61909854157,-1,1,-2,5,8,-12,-1,-4
61909866239,1,-1,-3,-2,-2,-14,-4,-10
61909866239,0,-2,1,2,3,16,5,9
61909875144,-4,-1,-1,-1,6,-3,-3,-11
61909875144,0,-1,-2,-2,-3,-7,-1,-4
61909888635,1,0,2,-1,-3,0,4,4
61909888635,-2,2,0,-1,12,16,3,8
61909897671,-3,-2,-1,2,6,-10,0,2
61909897671,-4,-6,-7,-2,-46,-28,-11,-8
61909912563,2,0,2,0,23,9,4,3
61909912563,0,0,0,-1,-8,-3,-1,-4
61909914121,0,1,0,-1,-3,1,-1,0
61909914121,2,3,3,-3,11,5,1,-2
61909926192,-1,-1,1,-1,21,15,2,1
61909926192,1,0,-4,-2,0,-1,-2,-2
61909935158,3,1,0,-4,0,6,1,-2
61909935158,-1,-1,2,1,9,12,-4,-2
61909948685,-1,-2,-1,-7,-31,-25,-3,0
61909948685,-2,-3,-4,-2,-4,-4,-4,-4
61909957631,1,0,-3,-2,24,26,4,6
61909957631,-4,-2,-1,0,-14,-13,-7,-25
61909972547,-1,0,1,-3,21,-4,2,6
61909972547,-3,-2,-2,-2,0,10,-1,0
61909974140,1,-6,-4,-2,-28,-21,-4,-33
61909974140,-3,-1,-3,-6,6,10,6,16
61909986849,0,3,2,-2,6,17,-1,-7
61909986849,0,-1,0,-1,-11,-29,-3,-4
61909995185,-1,-3,-2,5,-2,-15,-5,0
61909995185,1,0,-1,-4,14,17,1,-2
61910008756,-1,-2,-4,-2,-19,-8,1,0
61910008756,1,0,-1,0,8,8,3,7
61910017655,0,0,0,-2,-11,-14,-2,7
61910017655,-2,0,-1,1,18,2,0,-2
61910032557,-2,1,0,-4,-33,4,2,6
61910032557,-1,-3,-2,0,32,10,-3,-5
61910034107,-1,-2,-1,-1,-39,-25,4,3
61910034107,-1,-4,-4,2,22,9,-6,-4
61910046172,-1,-4,-6,2,-19,-15,-5,-7
61910046172,1,1,1,2,-3,8,1,-1
61910055198,-2,-2,-3,0,-17,-18,-2,3
61910055198,3,7,4,2,12,17,5,6
61910068726,-2,-2,-1,-5,-2,-16,-5,-2
61910068726,-1,-2,0,-1,-5,5,0,0
61910077644,-1,3,1,2,27,11,2,6
61910077644,-3,-4,-2,-1,-25,-11,-3,-4
61910093638,-1,-3,3,4,17,6,-1,-3
61910093638,-1,-1,2,0,-4,-2,2,0
61910096293,-3,-3,1,1,3,5,0,0
61910096293,1,-2,-4,-1,-9,-1,2,-2
61910106215,-1,-1,-4,2,1,-6,-2,3
61910106215,-1,-3,-3,-3,-6,-4,-3,-10
61910115225,-1,-2,-2,1,11,4,0,3
61910115225,-2,-5,-3,5,-26,-18,-3,5
61910128699,-2,-2,-2,0,7,3,-2,-2
61910128699,-1,0,2,0,4,6,2,3
61910137671,-1,-1,-5,-3,-13,-12,-6,-5
61910137671,0,0,1,-2,9,10,2,-1
61910152580,-1,0,1,3,8,9,2,0
61910152580,1,-1,-3,-1,-21,-34,-8,-4
61910154151,-1,-2,-1,0,9,14,0,-1
61910154151,-1,3,3,-6,3,-2,3,2
61910166187,-1,0,-4,5,-8,-12,-4,-2
61910166187,0,-2,0,-6,16,11,3,1
61910181183,-3,-2,-2,1,-1,-7,-1,-2
61910181183,0,-3,0,3,3,11,2,0
61910188725,1,-1,1,-2,5,-1,1,0
61910188725,0,1,-2,3,-11,-8,-3,1
61910197662,0,0,0,-1,16,20,2,-1
61910197662,0,-2,-2,-5,-20,-27,-5,-3
61910212511,0,-1,1,-2,-2,6,1,-2
61910212511,-1,-2,0,-1,18,12,2,2
61910214130,0,1,1,-3,-7,-7,-2,-1
61910214130,-1,-2,-2,-2,7,9,2,0
61910226191,-1,-1,-2,-3,-3,-9,-2,-1
61910226191,-1,1,1,-1,-13,-2,2,0
61910235206,-1,1,-2,-2,-3,-2,-2,-2
61910235206,-1,-2,-1,2,3,-1,-3,-2
61910248700,-1,-2,-5,-2,0,-3,0,-1
61910248700,-4,-7,-5,1,0,7,-4,-5
61910257680,-1,0,4,1,-5,-8,0,-1
61910257680,-1,-5,-6,-2,-26,-31,-5,-5
61910272540,-3,-2,-1,-3,14,13,0,0
61910272540,-1,1,0,-4,-13,-12,-2,-1
61910274117,-1,-3,-2,4,8,7,-1,1
61910274117,0,1,2,-1,14,8,1,0
61910295907,0,-3,0,-2,9,4,0,0
61910295907,0,-3,-4,0,-22,-18,-3,-1
61910297649,1,0,0,-2,5,2,-4,0
61910297649,0,0,-1,3,-4,2,0,-1
61910308705,0,0,-3,0,-4,-2,0,-1
61910308705,-1,1,-1,0,6,8,1,1
61910317678,-1,0,0,-3,3,1,1,0
61910317678,0,1,-2,2,-19,-8,0,2
61910331907,1,0,1,1,19,11,2,0
61910331907,-1,1,-2,-3,-29,-18,-5,-1
61910338707,-2,-2,-2,0,-20,-16,-3,-3
61910338707,-2,-3,0,-1,62,29,2,0
61910346156,-3,-1,-5,2,-18,-13,-4,-3
61910346156,0,0,-2,-2,47,32,3,2
61910355175,0,2,-2,-4,-70,-41,-2,1
61910355175,1,1,2,2,21,11,2,1
61910368687,-3,-2,-1,-5,-8,-7,-5,-4
61910368687,0,1,3,8,6,8,3,0
61910377710,-1,-2,-4,-1,8,-8,-4,-4
61910377710,-1,-2,-1,-2,-6,1,0,-1
61910392552,0,0,0,-3,-49,-21,1,2
61910392552,-3,-4,-3,-2,54,25,-3,-4
61910399375,-2,-4,-3,0,-5,-4,-4,-1
61910399375,-1,0,-1,-1,-10,-3,-1,0
61910406237,0,-1,-1,-4,7,4,1,1
61910406237,0,0,2,-2,-9,4,1,1
61910415212,0,0,-2,0,21,12,1,-1
61910415212,1,-1,1,-6,-13,11,1,0
61910428740,0,-2,-8,4,-6,-23,-6,-5
61910428740,-1,-2,-3,1,-18,-9,1,-2
61910437706,0,0,-1,3,20,8,-1,-4
61910437706,-4,-2,-2,-4,-16,-13,0,5
61910451891,-1,1,4,-1,13,12,4,2
61910451891,0,0,-2,-1,-12,-14,-2,-3
61910458696,-1,-2,0,-3,10,8,3,1
61910458696,0,0,-3,-2,7,4,-5,-3
61910475108,-2,-1,-1,3,-9,-8,-3,-1
61910475108,0,-2,-3,-4,-4,-5,-5,-1
61910476692,0,-2,2,2,-28,2,2,1
61910476692,1,-2,-3,0,53,16,-2,-3
61910488694,-2,-2,-2,1,-3,-6,-1,0
61910488694,1,1,-2,1,-26,-8,1,-1
61910499011,-2,-2,-2,-1,-6,-2,-1,-1
61910499011,-3,-3,-1,0,-18,-9,-1,-2
61910511943,-1,-2,-2,-2,9,13,1,-3
61910511943,0,-1,1,2,13,12,2,-1
61910518721,-1,0,0,2,1,-14,-1,10
61910518721,-2,-1,-2,2,-20,-21,-10,-20
61910535097,-6,-1,-2,-3,8,12,0,0
61910535097,1,-2,-2,-2,-8,-5,3,6
61910536657,-2,0,0,-5,18,14,1,2
61910536657,-2,1,-3,2,-6,-3,-2,-3
61910548697,1,0,1,1,3,2,-3,-2
61910548697,-4,-1,1,4,-10,-10,-4,-2
61910557673,0,-2,0,-2,-8,-6,-3,-4
61910557673,-1,0,-1,-3,14,7,-2,5
61910571922,1,1,-1,1,-2,-3,2,1
61910571922,0,0,0,-1,-12,-9,0,1
61910578722,-1,-1,-1,2,24,11,0,-2
61910578722,0,-2,1,0,-18,-9,0,0
61910596213,-1,-2,-1,-4,-2,4,0,1
61910596213,0,-1,0,-1,6,1,-2,-4
61910599886,-1,1,0,-1,6,6,-2,-2
61910599886,-1,-2,-2,0,-25,-16,-2,2
61910608666,-2,-2,0,-2,3,-1,0,-4
61910608666,-1,-1,-3,-3,2,5,0,0
61910617676,-2,-3,-1,2,4,-1,-2,-2
61910617676,0,-2,-3,-2,6,14,-1,4
61910631937,1,1,1,-2,-13,-14,-2,1
61910631937,-2,-1,2,-1,-1,0,-2,-3
61910638731,-3,-1,-1,-1,-6,-2,0,-2
61910638731,-2,-2,0,1,12,8,2,0
61910655078,0,-2,-1,-1,-7,5,3,-2
61910655078,0,-1,-5,2,4,1,-2,0
61910656663,-1,-2,-3,-1,1,-3,-2,0
61910656663,0,-1,1,-5,-21,-10,0,2
61910668779,0,-2,-1,-4,8,8,0,-1
61910668779,-3,-2,-2,1,1,-6,0,-1
61910677702,1,-3,-2,-3,-8,-3,-1,-2
61910677702,-1,-1,1,-3,-2,-1,0,0
61910700042,0,1,-2,1,4,2,0,2
61910700042,-2,2,-2,-5,-10,-3,-1,-3
61910701627,0,1,-2,-3,12,0,-3,-1
61910701627,-1,0,-1,-1,9,11,2,2
61910715028,-3,-2,-2,-2,-16,-18,-4,-3
61910715028,-3,-3,-2,-1,-5,-3,-1,0
61910716637,-1,-3,-1,-3,7,14,1,-1
61910716637,1,1,-2,3,-22,-24,-2,-1
61910728765,-2,-2,-2,-3,-6,7,-1,-1
61910728765,-1,-2,-4,-1,14,-7,-6,-2
61910737712,0,-1,-2,0,0,7,-1,1
61910737712,-1,-1,1,-4,3,0,0,-2
61910751970,1,1,-1,2,-1,-2,-1,0
61910751970,0,0,2,-4,-8,3,2,1
61910758690,0,0,-2,0,9,3,0,-2
61910758690,-2,-1,-2,-3,-20,-27,-4,-1
61910775052,-1,0,-1,1,-4,7,-1,-4
61910775052,-1,-2,1,-4,27,7,2,1
61910776631,0,-3,-2,2,-10,-6,2,-1
61910776631,-1,-2,-2,-4,-4,9,0,3
61910788731,-3,-1,-1,-1,18,-2,-2,-6
61910788731,3,2,1,-1,-16,0,2,-1
61910799472,1,1,3,-5,-13,7,0,6
61910799472,-2,-2,-2,1,31,-1,0,1
61910811943,-1,-5,-2,-2,-20,-11,-2,2
61910811943,-5,3,-4,3,7,12,-3,-8
61910818723,-1,0,-1,1,8,3,3,9
61910818723,-2,-1,-4,5,2,7,-2,-13
61910835106,0,-1,1,-4,20,6,1,2
61910835106,-1,-1,0,-3,-3,-8,-2,-2
61910836685,2,0,-6,0,-20,-12,-1,-1
61910836685,-1,0,-1,-2,8,18,-1,1
61910848713,-2,-1,-3,-2,-5,-15,-4,-3
61910848713,-1,-2,-2,-5,-13,-11,-1,-2
61910857693,-3,0,-1,-3,1,-2,-3,-7
61910857693,-2,-1,0,-3,-14,-5,1,5
61910871965,-1,0,2,4,36,11,0,0
61910871965,0,-2,-2,0,-2,1,-1,1
61910878744,-1,-1,-2,2,-20,-14,-4,-5
61910878744,0,1,2,-3,1,-3,1,1
61910895119,-2,-1,0,0,-5,5,1,-1
61910895119,-2,-4,-2,1,1,2,-1,-1
61910898611,-2,-1,1,-2,15,0,-1,-3
61910898611,1,0,0,-2,-7,5,2,1
61910908716,-1,-3,0,-1,-21,-10,-1,-2
61910908716,-1,-4,-3,-4,5,-7,-6,-4
61910917698,-4,1,-1,-3,1,3,1,-3
61910917698,-1,1,-2,0,-23,-9,-1,-1
61910931933,-1,1,-4,-1,2,-3,-4,-4
61910931933,0,-2,1,-3,-4,2,1,-1
61910938708,0,3,-2,1,12,-13,-3,2
61910938708,-1,-1,-3,0,1,4,-3,-2
61910955108,-1,0,-2,2,3,6,1,1
61910955108,0,0,-1,-1,-11,-5,-1,2
61910956700,-4,-3,-1,-1,4,4,-1,-5
61910956700,0,-3,-4,3,-2,-4,-2,-2
61910968751,0,-1,-3,0,2,1,-1,1
61910968751,0,-1,-1,2,-11,-5,0,2
61910977670,-2,-1,2,1,3,1,-1,0
61910977670,-2,-3,-1,4,7,0,-1,-3
61910991910,-1,-3,-1,1,-10,-2,1,1
61910991910,-2,0,-3,0,1,0,0,0
61910999682,-1,-1,0,-3,2,3,-2,-2
61910999682,-1,1,1,-6,2,-1,-3,-4
61911015090,-1,1,-3,5,-13,-9,-2,-2
61911015090,-2,2,0,-3,12,7,0,-7
61911016670,2,-3,-1,-2,4,8,2,9
61911016670,1,0,-3,1,5,2,-3,-1
61911028767,0,1,-1,-3,-4,1,1,11
61911028767,1,-1,0,-3,7,5,4,2
61911037678,-1,1,-1,-1,-14,-10,0,1
61911037678,-1,-4,-3,-1,4,-1,-3,-2
61911060104,-1,0,2,2,3,0,-4,-4
61911060104,-2,-1,1,0,3,-2,-4,0
61911061694,0,-4,-5,-3,-13,-5,1,-5
61911061694,-3,0,-1,-6,-3,-4,0,3
61911075125,1,-1,-1,-4,19,11,1,-3
61911075125,-2,-1,-1,-1,-22,-16,-1,0
61911076694,0,-2,-2,-1,-4,-2,-1,-8
61911076694,-3,-3,-1,-2,4,1,-1,-5
61911088746,0,-1,-1,-3,-1,-1,-1,3
61911088746,1,-2,-1,1,-4,-1,-1,-3
61911097699,-4,-2,-2,2,-1,-5,-1,1
61911097699,1,1,0,1,-5,-2,0,2
61911111911,-1,-2,2,-2,3,3,1,-1
61911111911,0,-2,-2,1,-2,3,-1,1
61911118721,-2,-1,-2,-2,4,4,-3,-2
61911118721,1,0,-3,1,-10,-7,-2,1
61911135065,-1,-2,-3,0,-9,-1,0,-5
61911135065,-1,0,-1,-4,8,4,-1,0
61911136673,0,-1,-1,-3,-4,-2,1,9
61911136673,1,-1,-2,-2,-5,-3,-2,-32
61911157593,-2,-2,-1,-4,-4,-1,0,27
61911157593,2,-2,0,4,1,-1,2,16
61911159162,-6,-4,-1,2,4,1,-3,-15
61911159162,1,0,-2,-2,-6,-2,3,7
61911172012,0,2,4,-1,1,-3,-1,-6
61911172012,1,2,3,-3,0,-4,-3,5
61911178710,-3,-3,-3,-2,2,-1,-1,1
61911178710,2,-1,-3,-1,-4,-6,-5,-3
61911195045,-5,-2,-3,2,0,2,-1,-6
61911195045,0,-2,-3,0,-2,-4,-1,-2
61911196650,-1,5,0,0,-3,-1,-6,-16
61911196650,-2,0,2,0,2,1,1,7
61911208733,0,-1,-2,-4,-1,0,-1,-6
61911208733,-2,-3,-2,0,-3,0,-3,-9
61911217702,0,-2,0,-2,-3,-7,-3,-3
61911217702,-3,-2,1,-1,3,3,1,9
61911231912,-1,-4,-2,0,-4,-3,-2,-5
61911231912,-3,2,-3,2,-1,-2,-2,-3
61911238767,1,-1,-2,1,1,1,0,-4
61911238767,-2,0,2,-4,0,3,1,9
61911254471,0,0,-3,1,-3,-4,0,1
61911254471,-5,-3,-4,-3,-5,-3,-3,-18
61911261244,3,-1,2,2,1,1,1,3
61911261244,-3,0,-2,4,-2,-3,-1,11
61911268720,-1,-12,-4,1,-7,-3,-2,-21
61911268720,3,11,0,-2,6,6,3,9
61911277678,-3,-6,-2,-3,-10,-6,-1,4
61911277678,-3,2,-1,5,4,-2,-1,-5
61911291906,0,0,-2,-5,1,1,1,9
61911291906,-1,-6,-1,-3,-3,-1,-2,-4
61911298717,-1,-1,-2,0,9,3,-2,-2
61911298717,0,-4,-4,-3,-10,-1,2,13
61911314420,0,0,-2,3,-4,-4,-1,-6
61911314420,-1,2,3,3,5,1,3,4
61911321220,2,4,-2,-1,4,3,0,0
61911321220,-1,-2,-5,-2,-10,-11,-4,-18
61911328728,1,0,-4,0,1,-2,-2,11
61911328728,-1,-3,-2,-5,-5,-4,-6,-8
61911337695,1,-1,0,2,2,2,2,8
61911337695,-1,0,-1,-2,6,6,0,0
61911351922,0,3,0,-5,-1,-2,-4,-25
61911351922,2,0,2,-1,0,-1,-1,-10
61911358721,0,-1,-2,2,-1,-1,8,30
61911358721,-1,-3,-1,-2,-2,-5,-4,-7
61911374391,-2,2,1,1,4,2,-2,0
61911374391,-2,-5,-4,-1,-8,-2,0,0
61911381244,-1,-2,-2,-6,0,-2,-4,-12
61911381244,-2,-19,-5,-2,-4,1,-2,2
61911397588,-2,20,7,-1,5,3,1,5
61911397588,-3,-1,-3,3,-3,-3,-2,-6
61911399178,1,-2,-1,-2,-4,0,1,3
61911399178,-1,-3,-2,0,2,-2,0,-2
61911411936,-3,-8,-4,-2,-3,0,-2,0
61911411936,-1,-4,0,1,0,-1,0,0
61911418691,-3,-1,-1,-1,-7,-5,-2,-4
61911418691,-1,0,3,1,6,5,1,-1
61911434425,0,-6,-3,-2,-3,-2,0,-2
61911434425,-2,1,-2,0,-1,0,0,3
61911441186,-3,0,1,0,-3,-3,-3,-4
61911441186,-1,6,0,-1,1,0,-1,-5
61911457592,-1,-3,-2,1,-1,-1,0,2
61911457592,-1,-2,-3,-2,-2,-2,-1,2
61911459150,-2,1,-2,-4,-4,-2,-4,-9
61911459150,3,2,1,-1,2,2,0,12
61911471927,-5,-4,-2,-2,-1,-3,-1,-13
61911471927,0,-29,-6,-2,-1,-2,-10,-8
61911486204,-7,26,-1,2,-3,-4,-7,-1
61911486204,4,-9,0,-1,3,4,7,-33
61911494435,1,12,-1,-2,0,0,-1,7
61911494435,-3,-12,-4,-1,-2,1,3,-17
61911501201,0,0,-2,-5,-3,-1,-3,-10
61911501201,-3,-1,-2,-2,0,-2,-3,4
61911517536,2,-4,0,0,-1,2,1,0
61911517536,-3,1,-1,0,0,-2,-1,-5
61911519145,2,-6,-2,-2,-1,-3,2,10
61911519145,-1,7,0,0,1,-1,-3,3
61911531936,-6,-15,-2,3,0,-4,-4,-14
61911531936,3,19,1,-1,-2,-1,1,14
61911538745,-1,-11,-2,-1,-3,0,1,-2
61911538745,-3,5,-1,-1,-1,0,1,10
61911554473,-2,4,1,1,-2,-1,-2,-4
61911554473,2,7,0,-3,-4,0,6,19
61911561229,0,-4,0,3,0,0,-1,-4
61911561229,-2,-4,-2,-5,-2,-1,-5,-7
61911577606,-2,-7,-2,1,-3,-2,-3,3
61911577606,-1,10,1,0,0,-1,-2,3
61911579217,3,-12,3,-3,1,1,0,3
61911579217,-8,-4,-4,-3,-4,-5,-6,-5
61911591950,-2,-10,-6,1,-2,0,2,17
61911591950,2,12,1,-3,0,-2,1,-3
61911598754,-6,-8,0,4,-1,0,-2,-1
61911598754,-1,6,-3,-3,1,0,-3,-4
61911614512,0,-9,2,-2,0,-2,0,-9
61911614512,-6,-9,-4,-3,-3,-1,-5,-2
61911622169,-2,4,-2,-1,-3,-1,-1,-4
61911622169,1,-6,1,2,0,0,0,4
61911637568,-1,6,-1,0,3,0,-1,1
61911637568,0,-5,-2,1,-2,2,2,0
61911639221,-1,3,0,0,-2,0,-2,-1
61911639221,1,4,0,3,-4,-2,1,0
61911651212,0,1,-1,0,-1,-2,-1,4
61911651212,-4,0,1,0,3,1,-1,-4
61911660223,1,-8,-5,-7,-1,1,0,-1
61911660223,-1,5,1,-1,-3,-2,1,2
61911674424,-4,-11,-1,-1,-1,0,0,-4
61911674424,1,9,1,-2,-3,-3,-3,-1
61911681251,0,-1,-1,-2,2,-2,0,1
61911681251,-1,-6,3,-3,2,1,-2,0
61911697598,0,12,-1,0,-3,-1,-3,0
61911697598,1,-4,-1,-2,0,-1,0,0
61911699200,-2,-3,-2,2,0,1,1,2
61911699200,-2,0,-4,-3,-2,-1,-1,1
61911711937,0,-5,-5,0,-4,-3,-1,-1
61911711937,-2,-7,-3,1,1,-1,-2,0
61911718776,0,6,5,-1,9,8,2,-2
61911718776,1,2,0,2,-15,-12,-3,-2
61911734469,-1,-3,-4,-5,-6,-5,-1,-2
61911734469,2,1,1,0,3,1,1,1
61911741202,0,-2,-2,0,3,0,-2,-2
61911741202,-1,1,-3,-2,-6,0,0,-1
61911757591,1,3,0,-2,0,-1,-1,-1
61911757591,2,0,-2,1,6,4,0,-1
61911759181,-2,-3,-4,-2,-16,-17,-6,-5
61911759181,1,-5,-10,-2,0,2,0,2
61911771950,0,-6,-15,2,-3,-2,-1,2
61911771950,-4,-9,5,-1,7,0,-1,-2
61911778750,2,12,23,2,5,8,1,0
61911778750,4,7,13,2,13,5,2,2
61911794515,-2,3,12,-3,-9,-5,2,-1
61911794515,-1,-1,-18,-1,-1,-1,0,-2
61911801216,-2,-11,-23,-1,-4,-2,-1,0
61911801216,-2,-2,6,0,26,19,1,-3
61911817561,-3,-6,-2,-4,-17,-23,-9,-3
61911817561,-1,3,-4,-3,-6,-1,-4,-1
61911819173,-6,-9,-5,1,-16,-10,0,-4
61911819173,-1,2,-1,1,12,6,-2,0
61911831966,-2,-1,-3,1,2,4,0,-1
61911831966,-2,-2,3,-2,-6,-2,0,0
61911838721,1,-3,-4,-2,-12,-10,-4,-1
61911838721,-2,1,2,-3,-4,-5,-3,-3
61911854443,0,-1,1,-2,5,7,-1,1
61911854443,-1,-1,2,-2,-6,-4,-4,-2
61911861176,1,2,-1,0,9,7,0,1
61911861176,-1,-2,-4,-3,-11,-6,-1,1
61911877625,0,1,1,0,3,1,2,0
61911877625,-2,-4,-2,-3,3,-2,-4,-3
61911879151,3,6,5,-5,7,6,-1,-1
61911879151,0,-1,-1,-3,-11,-13,-2,-1
61911891259,-1,-2,1,-2,-1,7,1,-1
61911891259,1,0,-3,3,-11,-3,1,1
61911907705,-2,-1,0,0,17,1,-1,-3
61911907705,0,-10,-11,0,-10,-5,-3,0
61911914394,1,5,5,3,13,10,2,-1
61911914394,-1,-4,5,-3,12,10,3,1
61911921198,-1,9,1,4,-55,-28,-4,0
61911921198,0,-2,-1,0,17,6,1,-3
61911937564,-1,-5,-7,-4,-6,1,1,1
61911937564,-2,0,4,0,22,10,-3,-3
61911939195,-5,-4,-3,-6,-10,-13,-4,-1
61911939195,1,-2,-4,3,-12,-8,-3,-3
61911951246,-2,0,0,-2,5,3,-1,-1
61911951246,1,1,4,3,5,-3,-2,-1
61911960285,0,-3,-3,0,5,3,-3,-2
61911960285,-2,-1,0,5,3,3,0,-2
61911974473,1,2,-1,-5,9,-1,-5,-3
61911974473,2,-2,-5,-2,-2,-5,-1,0
61911981264,-6,-5,-3,-2,-13,-3,1,-1
61911981264,-2,2,2,-1,5,-1,-5,-4
61911997601,0,1,0,-1,6,0,1,0
61911997601,-3,-4,-3,0,-23,-12,0,-1
61911999224,0,-1,2,-2,22,19,3,3
61911999224,-2,-3,-2,1,-10,-12,-4,-1
61912011278,-2,-1,-2,3,3,-5,-3,-3
61912011278,-4,-4,0,-1,-8,-1,-2,-4
61912020173,1,0,-2,-1,6,2,2,-1
61912020173,1,0,3,-2,-4,-1,0,0
61912034414,0,-2,-2,-1,-8,3,0,2
61912034414,-2,-2,-3,-7,4,-3,-4,-3
61912041261,0,-4,-3,-5,-4,-8,-2,-1
61912041261,-2,0,-2,-3,-6,3,-2,0
61912057592,-1,2,0,0,-12,-8,-1,-1
61912057592,-2,0,2,2,-1,-1,0,1
61912059176,3,-1,2,-3,7,5,-2,-1
61912059176,-1,-4,-4,-2,-4,-2,-3,-4
61912071244,0,-3,-2,-3,1,-6,-4,-2
61912071244,-2,3,-1,1,-5,-3,-1,1
61912080350,-3,0,-2,3,8,3,-1,-1
61912080350,-1,-1,2,0,3,-2,6,2
61912094432,-3,-5,-1,1,2,3,-2,-1
61912094432,-3,0,-3,-3,-1,2,-1,-1
61912101207,-1,-2,-4,3,-11,-4,-1,1
61912101207,-1,-2,-2,-4,-2,-7,-2,-2
61912117595,0,0,0,-3,2,0,1,-2
61912117595,-1,-5,-7,-5,-14,-9,-2,-3
61912119192,-1,0,2,0,13,4,-2,-1
61912119192,0,-3,-4,-1,-11,2,3,2
61912131900,-2,3,4,0,9,-5,-3,-3
61912131900,3,2,1,-3,-7,-5,-4,-1
61912140228,0,-1,-2,-3,-1,1,1,0
61912140228,-1,2,-1,-1,4,2,0,0
61912154471,2,-1,2,-1,3,1,-1,-1
61912154471,0,-3,1,-2,7,5,2,-1
61912161287,-1,-1,-1,0,1,2,1,0
61912161287,-3,-5,-4,-4,-4,-3,-4,-2
61912177661,0,0,-1,-6,-7,-4,0,-1
61912177661,-1,-1,1,-2,1,1,-1,0
61912179205,-1,-1,1,1,4,1,1,-1
61912179205,-2,-2,-2,-1,1,2,-1,-1
61912191272,-1,-1,-3,-1,-5,-2,-1,1
61912191272,1,0,1,1,1,-1,0,-1
61912200213,-1,-1,-3,-3,5,1,-1,-2
61912200213,-1,0,-1,-2,-8,-8,-1,-1
61912214477,-1,0,-3,3,-10,-1,1,1
61912214477,0,0,-3,1,-6,-2,0,-1
61912221243,1,0,0,0,1,0,-2,-1
61912221243,-1,0,0,1,6,3,0,0
61912236900,0,-2,-1,-4,-1,2,1,0
61912236900,-4,2,6,3,3,2,1,1
61912243740,-2,-1,-5,-5,-7,-2,-2,-4
61912243740,-1,-2,2,-6,3,1,0,0
61912251212,4,-1,-6,1,1,-2,-4,-2
61912251212,3,2,8,0,3,1,1,-1
61912260224,-1,0,-1,0,-2,-3,0,2
61912260224,-1,-2,-6,1,-4,-1,-2,-1
61912274466,-5,-2,8,1,4,2,1,-3
61912274466,0,-1,-7,3,-2,1,0,3
61912281232,-1,-1,-1,-4,-1,-2,-1,-1
61912281232,0,2,1,-3,1,0,-2,0
61912296936,-4,-3,-5,2,-7,-1,-2,-4
61912296936,-2,-1,0,-6,1,-1,0,0
61912304315,-2,-2,1,-2,-3,-3,1,-2
61912304315,0,-3,-1,1,0,1,0,1
61912311262,1,4,0,-3,-3,-2,-1,-1
61912311262,-2,-5,-2,0,-3,-2,-1,-1
61912320170,-4,-7,-7,-1,-1,0,-4,-4
61912320170,-2,2,-1,0,3,-1,-2,-3
61912335464,-1,-2,0,-2,-1,-2,0,0
61912335464,1,-1,-5,-3,-6,-2,0,0
61912341285,-1,2,0,0,-1,-1,-1,1
61912341285,-1,-3,-2,2,0,0,-2,-2
61912356941,-1,-2,-5,2,0,1,0,3
61912356941,-2,0,-4,5,-1,-1,-3,-3
61912363765,-7,-8,0,2,-7,-3,-3,-3
61912363765,3,3,4,2,0,3,3,1
61912380149,0,-2,-8,-2,-3,1,2,2
61912380149,-1,-1,0,1,4,-2,-3,-2
61912381700,3,-1,-3,-1,-6,4,2,0
61912381700,-2,-3,-2,1,-4,-4,-3,-1
61912402564,0,0,3,-3,2,-1,-2,-4
61912402564,-3,-4,-6,0,-2,-1,-3,1
61912405069,0,2,2,-1,4,1,1,0
61912405069,0,1,2,-3,2,2,0,1
61912416956,0,0,1,1,3,0,0,0
61912416956,-1,-2,-2,-1,-2,0,0,-2
61912423740,0,3,2,-1,-7,-1,0,1
61912423740,-2,1,0,-2,-2,-3,-1,-1
61912440105,-3,-6,-9,-1,-2,-5,-1,-2
61912440105,-4,-2,4,-6,1,0,-1,-2
61912441691,-1,-1,-1,-2,8,0,0,-2
61912441691,-1,-1,-4,2,-5,-2,-1,-3
61912454470,2,3,-1,-2,-2,1,0,3
61912454470,0,4,7,-1,2,-2,-3,-2
61912461234,1,1,1,-4,0,0,0,-1
61912461234,-2,-1,-2,-5,-6,-1,-1,1
61912476955,-2,0,0,-3,5,0,-1,-1
61912476955,0,-1,-4,-3,-14,-7,-3,0
61912483705,0,1,0,0,2,-2,-4,0
61912483705,2,0,0,1,3,0,1,-1
61912500083,-1,0,-1,-1,-1,-1,-3,-2
61912500083,-2,-4,-6,0,1,1,-2,0
61912501674,-1,-2,-2,-3,-4,-2,0,0
61912501674,0,-5,-2,-2,-2,-3,-1,-2
61912514431,-1,1,1,-3,-4,0,0,0
61912514431,1,1,-2,0,1,0,-1,-2
61912521261,2,-3,-10,0,-6,-4,-2,2
61912521261,-1,4,5,-7,2,2,0,2
61912538126,-1,-1,1,-4,2,0,-3,-2
61912538126,-2,-2,0,0,-4,-5,0,0
61912543727,-1,1,1,-2,2,-1,-2,-2
61912543727,-4,-2,-3,0,-3,-1,-2,-2
61912560159,-2,-1,1,2,-2,-1,-1,-3
61912560159,1,0,-3,-2,1,1,1,0
61912561669,1,0,1,0,-1,-1,-2,0
61912561669,-2,-2,-2,-1,5,3,-1,0
61912574444,0,-1,-1,1,-6,-4,-2,-1
61912574444,0,-2,-1,1,0,-2,-2,-2
61912581262,-1,-1,3,1,-3,-2,-2,-2
61912581262,-2,0,-2,2,1,0,1,0
61912597017,-2,-1,-2,3,-2,0,-1,0
61912597017,0,-2,-3,-2,0,1,-1,-1
61912603763,-3,0,-2,-2,1,-3,0,-1
61912603763,0,-1,-2,-4,-2,-2,-2,-3
61912620090,-1,-1,1,4,2,0,0,0
61912620090,-2,-2,1,1,-1,2,0,0
61912621672,-2,0,0,-3,1,-1,-1,-1
61912621672,-1,-2,-3,-2,-2,0,-3,-1
61912634405,0,-1,3,2,-4,-2,0,-1
61912634405,-2,-1,-4,-1,-1,-3,-4,-1
61912642038,-3,1,2,-4,1,-1,0,-2
61912642038,0,-2,-1,1,-1,-2,-1,-1
61912656923,-2,-2,-1,-3,-4,0,2,-1
61912656923,-1,-1,-1,-3,-1,-2,2,-1
61912663803,0,-1,-1,1,-1,-1,-2,-1
61912663803,-2,-4,0,-4,-1,-3,-3,-1
61912680123,-1,-1,-3,-1,1,0,-1,-2
61912680123,-3,-1,0,1,-1,-2,-2,-2
61912681736,1,-1,-1,3,-4,-1,-3,-1
61912681736,1,-1,1,0,0,0,1,-1
61912694457,0,-1,-3,0,0,-1,-1,-1
61912694457,0,1,0,0,0,0,-3,0
61912701253,0,-1,-1,-2,1,-2,0,0
61912701253,-3,-4,-3,-4,-4,-2,-1,-1
61912717012,-2,-1,0,1,0,-2,-1,-3
61912717012,-1,-1,-3,-2,-1,-1,-2,-1
61912723733,-1,0,-2,0,1,-1,-2,-2
61912723733,1,-1,-4,6,-1,-1,0,2
61912740632,-1,-2,-5,-3,-3,-1,0,0
61912740632,2,-2,1,0,0,1,2,-1
61912744153,-1,1,-2,1,-1,-4,-2,-2
61912744153,5,2,-4,-5,-5,0,-1,-1
61912754473,-5,1,0,-2,-1,-2,-2,0
61912754473,0,-4,0,1,2,1,0,0
61912761340,-2,0,-1,-5,-1,1,1,-2
61912761340,9,1,0,-1,0,-1,0,0
61912776953,6,1,0,0,-1,-1,-1,0
61912776953,-9,-3,-4,2,-2,0,0,-1
61912783756,-1,-1,0,-1,-2,-1,-1,-1
61912783756,-7,-3,1,2,0,-1,-1,-1
61912800095,7,-2,-2,-4,0,0,-1,0
61912800095,1,0,-1,-3,-1,-1,-3,-2
61912801717,-2,-1,-1,3,-2,-1,0,-1
61912801717,1,0,1,-3,0,-2,-2,-1
61912814485,-6,-2,-3,-1,-1,0,-1,-2
61912814485,-1,1,-2,-4,-3,-2,0,-1
61912821283,-1,-3,-1,2,0,0,-2,0
61912821283,-4,0,-1,2,0,-2,2,-2
61912837019,-5,-3,0,-1,-1,0,0,-1
61912837019,-1,1,1,-1,-1,0,-3,1
61912844674,3,-2,-1,-3,-6,-2,-1,0
61912844674,-4,-1,1,3,0,0,0,0
61912860115,-6,-4,-2,-4,-1,-3,-2,-1
61912860115,2,-1,2,1,-1,-2,0,0
61912861745,0,-1,-1,0,1,0,0,1
61912861745,-1,-1,-1,0,-2,0,-4,-1
61912873797,0,1,-2,-2,-1,-1,1,0
61912873797,0,-1,-3,-5,-1,-1,-2,-1
61912882734,2,3,-1,0,1,0,-1,0
61912882734,12,-1,0,-3,-2,-2,0,-1
61912896974,-31,-1,1,1,0,-2,-3,-5
61912896974,0,-3,-3,0,-2,-1,-1,0
61912903740,-5,-2,-3,-5,-1,1,0,1
61912903740,4,-1,-2,0,1,-1,-3,0
61912920136,8,0,-2,-3,-1,-1,-3,2
61912920136,-2,1,-1,2,1,-4,0,-1
61912921695,-2,-1,-1,-2,-2,-2,-2,-6
61912921695,-6,-2,0,0,-2,-2,-1,0
61912933766,3,-1,-2,1,2,0,0,0
61912933766,-3,0,0,4,0,-2,-1,-3
61912944827,4,-1,-1,1,0,0,1,0
61912944827,-6,-1,-3,-3,-2,-1,0,-1
61912956971,2,-2,-1,2,-2,-1,1,-1
61912956971,2,1,-2,-1,-2,-1,0,0
61912963794,-1,-1,0,-1,0,-1,-2,0
61912963794,-2,0,-3,-5,-2,-1,-1,-2
61912980132,3,-1,-1,1,-2,-3,-2,1
61912980132,0,-3,0,0,0,1,-2,0
61912981678,-3,0,1,-4,-2,-1,-1,-1
61912981678,-5,-1,-1,-1,0,-1,0,-1
61912993822,5,0,-1,0,0,-2,-1,-2
61912993822,1,-2,-3,-2,-2,-1,0,-2
61913002701,-3,-1,-2,1,-1,-4,-1,-1
61913002701,-1,-1,-1,-3,0,-1,1,-2
61913016959,0,-2,-1,-3,1,1,1,-1
61913016959,0,0,-1,2,-1,0,1,0
61913023755,-1,-2,0,3,1,0,-2,-1
61913023755,-3,-1,0,-1,-1,-1,-1,-1
61913041389,0,-2,-2,2,-1,-1,-2,0
61913041389,-2,0,1,-2,0,-2,-1,-1
61913045038,1,-3,-2,-3,0,-1,1,1
61913045038,11,-1,0,-1,0,0,-2,-3
61913053769,-27,-4,-4,-5,0,1,-3,-3
61913053769,3,0,-1,-2,0,-1,1,0
61913062711,-1,0,-2,5,-1,-2,-1,-1
61913062711,-5,-1,-3,1,0,0,-2,1
61913076942,10,1,-1,3,-2,0,-2,0
61913076942,-5,-1,-1,0,-3,-1,0,-2
61913083759,-4,-2,-2,1,-3,0,1,-1
61913083759,2,0,0,-2,0,-2,0,-1
61913100119,6,0,0,3,-1,0,1,1
61913100119,-3,0,-3,-1,-2,-2,0,-1
61913101727,2,-1,0,-1,-3,0,0,0
61913101727,-5,-2,0,1,0,-1,-3,-2
61913121989,3,0,0,-3,-2,-1,0,-2
61913121989,-1,-1,0,1,0,0,-2,-1
61913122711,-3,-1,-1,-1,-1,-2,-1,1
61913122711,-5,-3,-1,-2,-3,0,-1,-1
61913137787,2,0,-2,0,-1,-1,-1,-1
61913137787,8,1,-1,1,0,0,0,1
61913144564,9,-2,0,-4,2,-2,-1,-3
61913144564,-31,-9,-3,5,-5,-4,1,-4
61913158743,3,-2,-3,-4,1,0,0,-1
61913158743,-5,0,-2,-2,-2,-2,0,-3
61913166316,4,-2,-1,1,-2,-1,-1,0
61913166316,5,1,-2,-3,1,-1,-2,1
61913181892,-2,1,-2,1,-1,0,1,-2
61913181892,-2,-2,1,-2,-1,-2,-2,-1
61913182687,-3,2,-1,-3,-2,-2,-1,-3
61913182687,6,3,0,-3,2,-2,-1,-1
61913197769,-4,-5,-2,-2,-4,-1,0,3
61913197769,0,-1,0,-2,1,-1,-3,-3
61913203731,-7,-3,-4,-2,0,0,-1,0
61913203731,0,2,-3,-3,-2,0,1,2
61913218767,5,2,2,-2,1,-3,0,-2
61913218767,-1,-2,-1,0,0,-2,-2,2
61913234553,16,0,-1,0,-2,-1,0,1
61913234553,-39,-3,-3,-2,-1,-2,-1,-6
61913242872,-2,-1,0,-3,-1,-1,-3,-3
61913242872,-2,0,-2,-1,-1,-1,-2,-1
61913244605,0,2,-1,-3,-1,-1,0,1
61913244605,15,2,-2,-4,0,0,0,3
61913257755,-8,-7,-3,4,-1,-2,-1,-5
61913257755,-3,-3,-1,0,-1,1,-2,-2
61913263788,-2,-3,-2,-5,0,-1,2,0
61913263788,10,-2,1,-2,-1,-1,-1,1
61913278775,-2,1,0,0,-2,-2,1,0
61913278775,2,-1,-2,-4,0,-2,1,1
61913286294,-8,-1,-1,2,-1,-1,-2,-4
61913286294,3,-1,0,-2,-2,0,-2,-2
61913301945,2,-1,-1,-5,-1,0,-2,-2
61913301945,0,0,0,-4,-2,-1,-1,2
61913302697,-7,0,-1,0,-3,0,-2,-6
61913302697,1,-3,-2,0,-2,-1,1,-1
61913317729,1,0,-1,-4,-1,0,-2,0
61913317729,-1,-1,-1,-1,-1,-1,1,-2
61913323779,-5,-2,-2,1,0,-1,-2,0
61913323779,5,0,0,0,0,-1,-3,-2
61913338752,1,1,-1,-2,1,-3,-2,-1
61913338752,-3,-1,-1,-2,-2,0,-2,-3
61913347004,-1,-1,0,-1,-2,-1,0,-1
61913347004,3,-2,0,-2,-1,-1,-3,-2
61913361932,-1,-3,0,1,2,-2,-1,1
61913361932,-2,-1,0,2,0,-2,-3,-2
61913362719,-5,-4,0,-3,-1,-1,-1,-2
61913362719,0,-2,-2,-2,0,-1,-1,1
61913377748,-2,1,1,0,-1,0,1,-1
61913377748,1,-1,-1,3,-1,-1,-1,-1
61913383775,0,1,1,0,0,-1,-1,-1
61913383775,0,0,1,1,-1,-1,-3,-2
61913398791,-1,-1,-3,-1,-2,-1,-2,0
61913398791,2,1,-2,1,-2,1,-1,0
61913406319,12,0,-1,0,1,-1,0,0
61913406319,-34,-6,-1,-3,-1,-1,-1,-5
61913421975,3,0,-1,-2,0,-1,-1,1
61913421975,-4,-1,-2,-3,-1,-1,0,-1
61913422701,-1,-2,-1,-1,-1,-1,-2,-1
61913422701,13,1,0,5,0,1,1,0
61913437732,-1,-2,-1,-2,-2,0,1,-1
61913437732,-5,-1,-1,0,-1,-2,0,0
61913444991,2,0,-2,-6,0,-1,0,-1
61913444991,2,-1,-1,-2,-3,-1,-1,-1
61913458759,-3,-2,-1,-1,-3,0,-2,-2
61913458759,3,1,-2,-4,1,0,-1,0
61913466276,-6,0,-3,1,-2,-2,0,0
61913466276,1,-2,-2,-2,-1,0,0,0
61913481989,1,0,-1,0,0,0,-1,0
61913481989,-3,-3,-2,-4,-1,-2,-2,-3
61913482718,-5,-1,-1,1,0,1,-2,-3
61913482718,3,-1,-2,0,-1,-1,0,-2
61913497742,2,1,2,1,-1,-1,-2,-1
61913497742,-2,-1,0,-4,-1,-1,1,-3
61913503758,-4,-2,-2,3,-3,-1,-1,-3
61913503758,3,0,-2,0,-2,-2,0,0
61913518736,2,0,-2,-2,1,0,-1,-2
61913518736,-2,0,-1,2,0,1,0,2
61913526290,-5,-4,-4,-6,-1,0,0,1
61913526290,5,-1,-1,-3,-1,-3,0,-2
61913541955,1,-1,-2,1,-3,-1,-1,-1
61913541955,12,2,0,-2,0,-2,-2,1
61913542729,-16,-3,0,-1,-1,0,-1,-3
61913542729,1,-2,0,0,-1,-2,-2,-1
61913557720,0,-2,-2,2,0,0,-3,0
61913557720,-3,-2,-1,-1,0,0,-1,-4
61913563797,7,2,1,0,-1,-1,0,1
61913563797,1,0,0,-1,1,-1,0,-2
61913578768,-5,-2,-1,-3,-2,-1,1,-1
61913578768,2,-3,-2,-1,-1,-2,-1,-1
61913586284,1,-1,0,-3,1,-1,-1,-1
61913586284,-2,0,-2,0,-1,1,-1,0
61913601934,-1,-4,-2,0,-1,-2,-1,1
61913601934,-5,-2,-1,-5,-1,0,0,-4
61913602694,1,0,-2,-2,-2,-1,0,1
61913602694,-1,0,-1,1,-2,-2,-2,-2
61913617753,13,0,0,-1,1,-2,0,0
61913617753,-38,-1,-1,0,0,-1,-4,-6
61913623915,-2,-2,0,2,-2,-2,-3,-3
61913623915,3,-1,-2,-2,-1,1,3,3
61913638739,4,-1,-1,2,-1,1,0,0
61913638739,10,-2,-2,-1,-2,1,0,4
61913646326,-5,-3,-1,-2,-1,-2,-1,-2
61913646326,-3,0,-1,-5,-1,-1,-4,-3
61913661949,16,1,-2,-7,2,-2,-1,0
61913661949,-17,-1,-3,3,0,-2,0,0
61913662669,1,-3,-1,1,-1,0,0,0
61913662669,6,1,1,2,-1,-1,-1,3
61913677788,-21,-6,-2,-2,0,-1,-1,-10
61913677788,15,-3,-2,-1,-3,0,-2,0
61913683761,1,2,0,-1,0,0,1,1
61913683761,2,-3,-3,3,1,-1,0,0
61913698776,5,3,0,-3,-1,-2,0,4
61913698776,-2,0,0,-5,-2,-2,-1,-6
61913706263,-4,0,-3,-3,-1,-2,0,0
61913706263,4,-2,-1,0,-2,-2,0,-2
61913722193,-8,-1,-2,-1,-1,-2,-1,-2
61913722193,2,-2,0,-1,-1,0,-1,-1
61913723099,5,1,-2,4,-1,-1,0,-1
61913723099,-2,-2,-1,-2,0,-2,-3,-1
61913737726,-7,1,-2,-2,-2,-2,-2,-1
61913737726,0,-3,1,-1,-1,-1,-1,0
61913743796,1,-2,0,-2,0,0,-1,-2
61913743796,-3,2,-2,-4,-2,-1,0,-2
61913758722,-4,-2,-1,2,-1,1,-1,1
61913758722,4,0,-2,0,-1,-1,3,-2
61913766247,-4,-2,-2,-1,-1,-2,-1,0
61913766247,1,-1,-1,-1,-1,0,0,1
61913781933,-3,-1,-3,-4,-1,0,-3,-8
61913781933,11,2,-1,1,0,-1,-1,4
61913782668,-5,-2,-3,3,-1,-1,0,-6
61913782668,0,-1,-1,0,-1,-1,1,-2
61913797821,0,0,1,2,-1,-1,1,1
61913797821,-2,-1,-2,-2,-1,-4,-3,-2
61913803775,8,1,0,-7,-2,-2,-3,0
61913803775,-3,-4,-3,-2,-1,0,-2,1
61913818765,-9,-3,-2,-1,0,-1,-3,-3
61913818765,2,1,-1,1,-1,-1,0,0
61913826255,2,1,-1,1,-1,-1,-3,1
61913826255,-3,-2,-3,-4,-1,-2,-1,-3
61913841937,1,0,0,-1,-2,1,-1,3
61913841937,-3,-2,-2,2,0,-1,0,0
61913842732,0,-2,-1,-4,-1,-1,0,-1
61913842732,5,1,2,4,-2,-2,-1,-2
61913859699,-13,-3,-1,0,0,0,-2,-5
61913859699,5,-1,-2,-3,-2,-1,-3,-1
61913863826,3,1,0,3,-2,0,-3,0
61913863826,1,0,-1,2,0,1,1,4
61913878772,-6,-5,-2,2,0,-3,0,-3
61913878772,-1,1,-1,1,-2,-1,-2,-3
61913886280,-3,-1,-2,-2,-1,2,0,1
61913886280,-3,-1,-2,1,-3,0,-3,-2
61913901929,5,1,0,-1,-1,-2,0,2
61913901929,-7,-3,-2,2,-1,-2,-1,-2
61913902707,16,-1,-1,-1,0,-1,-1,2
61913902707,-20,-2,-1,-6,-1,-1,-1,-1
61913917759,-2,-1,-2,1,-2,-2,-2,0
61913917759,5,-2,-1,-3,-2,0,-1,0
61913923851,-3,0,0,5,0,-2,1,-2
61913923851,-3,-3,-2,-2,2,-2,1,-4
61913938832,4,-1,-1,-1,-1,0,0,3
61913938832,-4,-2,0,-1,-3,-1,0,-7
61913946411,3,0,-1,0,-1,-2,-2,-1
61913946411,-2,-1,-1,3,-3,-2,0,-1
61913962073,1,-1,-1,-3,-1,-2,0,-1
61913962073,-3,-2,2,-2,0,0,-1,-1
61913962841,-11,-4,-2,-3,-2,-1,-1,-2
61913962841,1,-1,1,2,-2,-3,-3,-4
61913977734,0,-1,-2,-2,0,-1,-2,0
61913977734,6,-1,1,-2,-1,0,-1,3
61913983802,8,0,0,-5,-1,0,-2,-2
61913983802,-22,-3,-3,1,0,1,-2,-2
61913998723,0,-1,0,-3,-1,-1,-1,-2
61913998723,-8,-6,-2,-3,-1,-3,-3,-1
61914006235,3,-3,-1,-1,-2,-1,2,-1
61914006235,11,0,-1,0,0,-2,0,2
61914029552,7,2,-2,0,-3,-1,0,0
61914029552,6,1,-1,-2,2,-3,-1,-1
61914030226,-29,-6,-1,-2,1,-3,-4,-6
61914030226,5,1,2,-4,1,-2,-1,-2
61914037779,-6,-4,-1,-1,-4,1,0,-3
61914037779,14,0,-2,2,-2,-1,0,4
61914043757,3,1,0,0,-1,-3,-1,-1
61914043757,5,2,0,-1,-1,-1,2,0
61914059521,7,2,0,-3,0,-1,-2,2
61914059521,-21,-4,-4,0,0,0,0,-6
61914066314,-7,-3,-1,0,1,-1,0,-1
61914066314,0,-1,-2,-1,-2,0,1,-2
61914081908,15,0,1,0,-3,0,-1,2
61914081908,-29,-3,-2,0,-3,-3,-2,-2
61914082718,-3,-1,-1,1,-2,-1,-2,-2
61914082718,14,1,-1,-3,-1,-2,-1,4
61914097733,-14,-6,-4,-4,-1,-1,-1,-1
61914097733,5,-1,-3,-3,0,-2,-2,-2
61914103832,1,0,-2,1,0,1,0,0
61914103832,-3,-1,1,1,-1,-2,-1,-2
61914118782,3,1,0,-2,-1,-1,-1,0
61914118782,1,-1,1,-1,-1,-2,-1,1
61914126247,2,-2,-2,-5,-1,0,-2,3
61914126247,7,1,-2,-2,0,0,0,2
61914141308,-24,-2,-1,3,3,0,0,-9
61914141308,7,-3,0,1,1,1,1,-1
61914148807,9,3,1,-1,-3,-3,0,1
61914148807,-7,0,-1,0,0,1,-1,-3
61914157771,6,-6,-3,0,0,-2,-2,0
61914157771,-1,0,-1,-5,-1,0,-1,1
61914164701,-2,0,0,-4,-1,-1,0,-2
61914164701,3,-2,-3,-3,0,0,-2,0
61914178773,-3,-1,0,-1,-1,-2,0,0
61914178773,4,2,-1,-2,-1,0,0,-1
61914186272,-3,-1,-1,-2,0,-1,-1,-1
61914186272,-8,-5,0,-3,-1,-2,-4,-4
61914201285,10,2,0,-2,-1,0,0,3
61914201285,-16,0,-1,-1,0,-3,-2,-2
61914208770,1,-2,-1,4,1,1,-1,1
61914208770,-2,-3,-2,-4,0,-2,3,-2
61914217802,5,-1,-3,-3,-3,0,-2,2
61914217802,-1,0,0,1,-2,-3,1,-3
61914223756,-5,-2,-3,-3,-3,-3,-2,-5
61914223756,-3,-2,-2,1,0,0,-1,1
61914238800,6,0,-1,5,1,-2,0,3
61914238800,5,2,-2,-1,0,-1,-2,0
61914246244,-6,0,0,-2,-1,-2,0,1
61914246244,-2,-3,-3,1,-2,-3,-3,-1
61914262343,-2,-2,-2,-5,-2,0,-1,-2
61914262343,2,-2,-1,1,0,1,-1,0
61914268785,-5,-2,-1,-2,-1,-2,-1,-2
61914268785,2,1,-1,0,-1,-1,0,0
61914284469,-5,1,0,0,0,-1,-4,-7
61914284469,13,0,-2,1,-3,-2,2,1
61914285222,-21,-6,-2,1,-1,0,-3,-4
61914285222,-1,-1,0,-1,-4,0,-3,0
61914298821,-10,-1,0,-2,-1,-3,-2,-4
61914298821,6,-1,-1,0,-1,0,1,1
61914306316,9,2,-2,-2,-1,0,0,0
61914306316,-3,-2,-1,0,-2,0,-1,-1
61914321332,4,1,1,-2,-2,-1,-3,2
61914321332,-3,-1,-1,1,-3,-1,-3,-5
61914328803,-15,-6,-1,3,-1,-1,0,-2
61914328803,-4,-1,-1,4,0,0,-2,-2
61914345930,3,-1,-1,-8,-1,-3,0,-3
61914345930,4,-4,-1,-3,0,-1,-1,2
61914346747,4,-1,-1,-4,0,-1,0,0
61914346747,-4,0,1,-4,1,0,-3,-5
61914358810,-1,-1,-2,1,-1,0,0,-1
61914358810,-4,1,-1,-4,0,-2,2,-1
61914366750,3,0,-2,2,-1,-2,1,-2
61914366750,-3,-3,-1,-2,-2,-1,-1,-1
61914381319,-3,0,-3,-4,-3,-1,1,0
61914381319,-6,-2,-1,-2,-1,0,-1,1
61914388856,6,1,0,3,-3,-2,-2,1
61914388856,17,3,-1,-3,-1,-1,0,5
61914404520,-8,-3,-1,-1,-1,-1,-1,-5
61914404520,-9,-4,-2,8,-2,-2,-5,-4
61914405181,11,3,0,-5,1,0,0,3
61914405181,-8,-4,-3,-2,0,0,-1,-3
61914418818,9,-1,-1,1,1,0,0,5
61914418818,1,-1,-1,-2,-2,0,-2,-1
61914426343,-1,1,2,-3,0,0,0,-3
61914426343,0,-1,1,-2,-1,-1,1,-3
61914441270,-2,-1,-1,1,-1,-1,-2,-1
61914441270,-2,1,0,-4,0,-2,-2,-3
61914448804,-1,2,-2,3,-1,-1,0,-1
61914448804,13,2,0,1,0,-1,-1,2
61914465346,-43,-7,-2,-3,0,-1,-2,-4
61914465346,0,-4,-2,-1,2,-1,3,0
61914467083,8,-1,-1,0,-2,-1,0,2
61914467083,-3,-2,-2,1,-1,-2,0,-1
61914478766,-5,0,-1,6,-1,0,-2,-5
61914478766,2,0,2,-4,0,0,-3,-4
61914486261,-5,-1,0,-2,-1,-2,-4,1
61914486261,1,-5,0,0,-2,-1,-1,0
61914501265,9,0,-2,-2,-2,-1,0,5
61914501265,-5,0,-2,-2,-2,1,0,0
61914508826,5,-2,0,0,-2,-2,-1,-3
61914508826,8,3,2,-3,-1,-2,-2,-3
61914524457,-35,-8,-3,-3,-1,-2,-1,-4
61914524457,2,1,-3,1,-1,0,0,-1
61914525250,-4,-2,-2,-2,-1,-1,1,-1
61914525250,-5,-2,-1,0,-1,0,0,-2
61914540293,10,3,1,-1,1,0,0,1
61914540293,2,-1,-3,0,-2,-3,-2,-1
61914546334,-9,-6,0,0,-2,-1,-2,0
61914546334,-10,-2,-2,-2,-3,0,1,-2
61914561279,15,3,0,1,0,-2,-2,0
61914561279,-2,2,0,0,-1,-1,-2,3
61914568904,18,-3,-1,2,2,1,2,4
61914568904,-42,-1,-2,-3,-2,-1,-4,-7
61914584407,13,1,-1,1,-1,-3,0,2
61914584407,-2,1,0,1,1,-2,-3,-2
61914585209,-2,-1,-1,-1,-2,-3,0,-3
61914585209,7,-1,-3,1,0,-2,1,1
61914598756,3,0,-1,1,-1,-2,-1,-2
61914598756,0,0,0,1,-2,-1,0,0
61914606276,-5,-1,0,-2,-2,0,0,-3
61914606276,2,-3,-2,-1,0,-1,-2,0
61914621330,2,0,-1,-3,-1,0,-2,-2
61914621330,12,-1,-1,3,0,-1,-1,1
61914628793,-8,1,-2,0,-1,-2,-1,-1
61914628793,-12,-10,-3,2,-1,-1,-2,-2
61914644429,16,-1,1,-2,-1,0,-1,0
61914644429,-44,-6,-2,-2,-1,0,-2,-7
61914645198,12,2,0,0,-2,-1,1,10
61914645198,-2,2,0,0,-2,-1,-1,-8
61914658753,3,-5,-2,3,-3,0,0,-1
61914658753,10,-1,0,0,-1,-1,-1,0
61914666336,-3,0,-3,-1,-1,-3,-3,-2
61914666336,7,1,-1,-1,0,1,-2,0
61914681279,6,4,2,3,-1,-1,-1,4
61914681279,-7,0,-2,-2,-1,0,0,-3
61914688785,-6,-3,-2,-5,0,0,-1,-3
61914688785,6,2,-2,-3,-1,-1,0,-1
61914704543,6,-3,-3,1,-1,-2,0,-1
61914704543,-11,-1,0,-4,-2,-1,-1,-3
61914705233,1,-2,0,1,0,0,-3,-4
61914705233,2,-2,-1,-2,-1,-1,-2,0
61914718759,-2,0,-1,-3,-1,0,-2,1
61914718759,12,2,0,-4,-1,-1,1,3
61914726308,-5,-3,-1,-1,-3,-2,-2,-7
61914726308,2,1,1,-1,-1,-2,-1,1
61914741266,-1,0,-3,-3,-1,-2,-1,-2
61914741266,17,1,0,-5,0,-1,-2,5
61914748830,-22,-2,-2,0,-3,-1,0,-7
61914748830,2,-3,0,1,1,2,-1,-1
61914764537,-10,-3,-1,-3,0,1,1,-2
61914764537,8,-1,-1,0,2,-2,-3,2
61914765255,7,3,-2,-4,-1,-3,-1,-2
61914765255,1,-1,-2,1,-2,-2,-1,2
61914778737,6,-2,1,-3,0,0,-1,0
61914778737,-15,-2,0,2,-4,-1,1,-2
61914786290,7,-3,-2,1,-1,0,-1,3
61914786290,-5,-3,-1,-1,1,2,0,-1
61914801302,1,1,1,2,0,0,-2,-5
61914801302,3,-3,-2,-1,-3,1,-1,0
61914808794,-5,-2,-3,-3,-1,0,-2,0
61914808794,1,0,1,-4,-2,-2,-4,-5
61914824473,-5,2,-1,-1,1,0,1,1
61914824473,3,-1,-2,-2,-3,-4,-1,-1
61914825227,1,0,-1,-1,0,1,-1,3
61914825227,-10,-7,-4,-1,-1,-2,-1,-4
61914838868,0,-2,-1,0,0,-3,-1,-4
61914838868,2,-1,-3,-3,0,1,0,-2
61914846330,13,-2,-3,-1,-2,0,-1,2
61914846330,7,3,0,-1,-2,-2,-1,2
61914861286,-10,-3,-1,1,0,-1,-3,-4
61914861286,-1,-2,-2,-2,-1,0,0,0
61914868845,1,0,-1,0,-2,-2,-2,-1
61914868845,-1,1,-1,-2,-3,0,0,1
61914884439,-2,0,-2,-3,-2,-1,2,0
61914884439,-3,-3,0,0,0,0,-2,-3
61914885263,-3,-1,0,2,0,1,-3,-2
61914885263,-1,1,-1,1,-1,-1,3,0
61914898821,1,-3,2,-1,0,-1,-2,1
61914898821,8,0,-1,-2,1,0,-1,0
61914906345,-23,-5,-5,0,1,-1,0,-9
61914906345,3,-2,0,-1,0,-1,0,0
61914921319,3,1,-2,0,0,0,0,3
61914921319,7,-1,0,3,0,-2,0,0
61914928822,1,-1,0,2,1,-4,-1,2
61914928822,-1,1,-2,0,-3,-1,1,0
61914944660,4,-1,-1,-4,-1,-1,-1,1
61914944660,-16,-3,-2,0,-1,-2,-3,-4
61914945268,-2,0,-1,-4,-1,0,1,-1
61914945268,5,-1,-3,1,-2,0,0,6
61914958810,6,-3,-2,-1,-2,-3,2,-8
61914958810,-32,-2,-1,2,-1,-1,-3,-7
61914966316,4,2,0,-2,0,0,2,3
61914966316,2,-4,-3,0,-1,-1,-2,-1
61914981334,-7,0,-1,2,1,-1,-2,-1
61914981334,8,-2,-2,-1,-3,-3,-1,-1
61914988797,-1,-1,-1,-6,1,-1,-1,-2
61914988797,-1,1,-2,-1,-2,-1,0,2
61915004495,-6,0,-1,-3,0,-2,-4,2
61915004495,3,-2,0,1,0,0,-1,0
61915005201,2,-2,-2,-6,-1,-2,-1,0
61915005201,0,2,0,-1,1,-1,-2,-2
61915018824,-4,-4,-2,3,-3,2,0,3
61915018824,-1,-2,-4,-1,-2,-1,-2,-5
61915026326,12,1,-1,2,0,0,-2,2
61915026326,11,1,-1,0,1,-1,-2,1
61915042072,-14,-1,-1,-2,-6,0,0,-5
61915042072,10,-1,-1,-4,-1,1,-1,1
61915048852,-5,0,2,2,2,-1,-3,-2
61915048852,5,0,-1,-9,1,-3,-3,-3
61915063792,1,-1,-2,0,-2,-1,-1,1
61915063792,0,-3,-1,-4,-1,-1,1,0
61915073396,1,-2,0,-2,-3,0,-1,-3
61915073396,-4,-1,0,-1,-1,0,-3,0
61915078767,2,2,-1,-2,-2,-1,1,2
61915078767,-9,2,-1,-2,1,-1,0,-1
61915086281,4,-4,-2,1,-2,-2,-3,-5
61915086281,-16,-3,0,0,-1,-1,1,-4
61915101321,6,-1,-1,-1,0,0,-2,-2
61915101321,10,2,-1,-3,-1,-1,-3,3
61915108825,-10,-4,-1,-3,-2,0,1,1
61915108825,2,-2,-1,-2,-1,-1,-1,1
61915123880,3,-1,0,0,1,0,1,0
61915123880,-8,-2,-2,-1,-2,-1,1,-4
61915131968,4,-1,-2,1,-1,-3,-1,-2
61915131968,-5,-3,-3,-1,1,0,0,0
61915138753,-8,-2,-2,-1,1,0,0,-1
61915138753,8,-2,-2,-5,-1,-2,-3,0
61915146371,-4,1,0,-2,-2,1,1,-1
61915146371,-3,-3,-2,1,-1,-2,0,0
61915161314,8,1,-2,-4,-1,-2,-2,1
61915161314,-9,-1,1,1,-1,-1,0,-3
61915168839,1,-1,-1,0,0,1,-1,-2
61915168839,-1,-1,-1,-3,-4,-1,0,1
61915183819,-3,-2,-2,0,0,0,-2,-3
61915183819,7,-1,-3,0,0,-1,-2,-1
61915191991,-2,-1,-2,-4,-2,0,0,0
61915191991,-4,-2,0,1,-1,-3,-1,-3
61915206961,0,-3,-2,-6,-2,0,-1,-5
61915206961,4,0,0,0,-1,-1,0,4
61915207785,-8,-2,-2,-2,0,-1,-1,-1
61915207785,1,0,-1,0,2,0,-2,-5
61915221426,-3,-6,-1,-3,0,-3,1,-1
61915221426,-4,1,0,-2,-1,-1,1,-1
61915228895,8,1,-2,0,-4,-3,1,0
61915228895,1,-1,0,-4,0,-1,-4,0
61915243789,-5,-3,-1,-1,-2,-2,-4,-1
61915243789,2,-3,-3,-4,-1,1,-2,1
61915252020,-1,-3,1,2,-3,-1,-1,0
61915252020,8,1,-2,-1,-2,0,0,1
61915266944,-2,2,-3,-1,0,0,0,0
61915266944,-7,-3,-1,-1,-1,1,-1,-2
61915267756,2,-2,-1,-5,-2,2,1,0
61915267756,-14,-6,-1,2,1,-1,-2,-4
61915281301,2,0,0,-2,-2,1,1,2
61915281301,-8,-3,-2,0,-1,-2,-1,-2
61915288849,5,0,-2,2,1,-2,0,1
61915288849,12,-1,1,-1,-2,0,-1,0
61915303819,-13,1,-1,2,-2,-1,-2,-4
61915303819,4,1,-1,-6,-1,-2,-1,3
61915312005,-5,-2,-1,0,-1,-1,-4,-4
61915312005,1,2,-1,-1,0,0,0,0
61915327010,2,-4,-2,1,-3,0,-2,-1
61915327010,-2,1,-2,3,0,-2,-3,-2
61915327749,4,1,0,-5,-4,-1,1,3
61915327749,7,0,-1,-4,0,-1,-1,-2
61915341321,-19,-3,-2,1,1,0,0,-2
61915341321,-9,-2,-1,3,0,1,2,-2
61915348756,-1,1,0,-2,3,-2,0,-2
61915348756,7,3,-2,-2,-3,1,-1,-1
61915373837,0,0,-2,-4,-3,-3,-3,-4
61915373837,5,-3,-1,-1,0,-1,2,-1
61915375679,9,4,-1,2,1,-1,-1,3
61915375679,-2,-2,0,2,-2,-1,1,1
61915386978,-14,-3,-1,-1,-2,-2,0,-4
61915386978,0,4,1,3,-1,-1,-1,-1
61915387725,-18,-10,-3,-2,-1,-2,-2,-5
61915387725,6,-2,-3,2,-1,-2,2,1
61915401349,8,4,1,1,0,-1,-1,2
61915401349,8,2,0,0,-1,-2,-4,-1
61915408845,3,3,0,0,0,0,-2,4
61915408845,-22,-4,-1,2,-1,0,-1,-3
61915423810,6,0,-1,0,0,-2,-2,0
61915423810,-2,-3,-1,3,-1,1,1,1
61915431991,-1,-2,-3,-2,-3,-2,-4,-4
61915431991,-7,-3,-1,-2,-1,0,-1,-4
61915455193,-1,0,0,0,1,-1,1,1
61915455193,11,-1,-1,4,0,-2,0,2
61915455960,-10,-1,-1,-1,-3,2,1,0
61915455960,4,-3,-1,-4,-3,-3,-2,-5
61915461314,2,-2,-2,2,-1,-1,-2,1
61915461314,-2,0,0,-1,-1,0,1,-2
61915468784,2,-3,-2,1,0,-2,-1,2
61915468784,3,4,0,1,0,-2,0,3
61915483854,3,-1,0,2,0,0,-1,-7
61915483854,-5,-1,-2,-2,-1,-2,0,1
61915492090,-1,-2,0,2,-2,0,1,0
61915492090,-4,-1,0,-2,-1,0,-2,1
61915507006,-2,-2,-1,0,-1,1,-1,-1
61915507006,-2,-1,0,-6,-1,-2,-4,-3
61915507787,-1,0,1,-1,-1,-1,-2,0
61915507787,5,0,-2,-4,-2,-1,-1,-6
61915521285,-37,-5,-2,-2,-2,-2,-1,-4
61915521285,5,-3,0,-3,-3,0,-2,-1
61915528885,-2,-2,-1,-2,-1,-1,0,-1
61915528885,-7,-3,-1,-3,0,1,0,1
61915543832,5,0,-1,-1,-2,1,-1,-2
61915543832,-5,-2,-3,-3,-4,-5,2,3
61915551969,-3,1,-2,-1,0,-2,-1,-4
61915551969,2,-1,1,3,1,1,-2,0
61915566977,9,-6,-2,-6,-1,-2,0,1
61915566977,-4,-2,-1,1,-1,0,-1,-4
61915567734,3,0,-2,0,-1,-2,0,-1
61915567734,-4,-1,-1,1,0,-1,-1,0
61915581474,11,3,-1,1,0,0,-1,4
61915581474,-5,0,0,-2,-2,-1,-1,-4
61915588857,-4,-4,-1,-5,0,0,-2,-3
61915588857,-4,-2,-1,0,1,-2,-1,0
61915603867,15,1,0,-2,-1,-2,1,1
61915603867,-12,1,0,-1,0,0,-1,1
61915612011,-4,-7,-4,1,-4,-1,-2,-13
61915612011,-4,-1,-1,-4,-1,0,0,1
61915627012,5,1,-1,-1,0,-2,-4,1
61915627012,15,0,0,-4,-1,0,-4,3
61915627748,-6,2,0,0,-1,-3,0,1
61915627748,-11,-3,-2,1,-3,0,-1,-1
61915641289,6,-1,0,1,0,1,-1,-4
61915641289,0,-1,-1,-1,-1,2,0,-1
61915648841,11,1,-2,1,0,-1,-1,1
61915648841,-33,-4,-3,-1,-2,-1,-2,-5
61915663865,3,1,0,-5,-3,-1,2,3
61915663865,-6,-5,-2,-2,-2,-1,-2,-3
61915671974,0,1,1,-2,-1,0,1,2
61915671974,11,3,-3,6,-1,-1,-1,-1
61915686983,-7,-2,-1,-1,-2,0,1,-1
61915686983,3,-6,-3,-2,-1,-1,1,2
61915687723,-3,1,0,1,-1,1,1,1
61915687723,15,0,0,0,-1,-1,-1,0
61915701304,-9,1,0,-4,1,-1,-2,-5
61915701304,4,-5,-3,2,-1,-1,-1,-6
61915708830,-2,0,-3,-1,0,1,-2,1
61915708830,-4,-6,-1,-1,-1,-1,-2,2
61915723882,7,0,0,2,-1,0,-3,2
61915723882,21,2,0,0,-4,-2,-1,-2
61915732141,-50,-5,-2,-1,-3,-2,-2,-6
61915732141,7,1,-1,-4,1,-1,2,0
61915746995,1,-4,0,-2,-1,-2,1,-2
61915746995,-5,-1,-3,0,-2,-2,-2,0
61915747769,11,1,-1,1,-1,-1,-3,0
61915747769,2,3,-2,-2,-1,-1,-2,-2
61915761300,-13,-5,-2,1,-3,0,-2,-3
61915761300,-12,-2,-1,0,-2,-1,-2,-4
61915777031,9,-1,2,4,0,1,1,3
61915777031,-3,-1,-1,2,0,1,1,-1
61915784729,3,-3,-3,-3,-1,-1,0,1
61915784729,-3,1,0,-1,0,1,0,-3
61915792030,1,-3,-1,0,-1,-1,-1,-2
61915792030,6,-1,0,1,-1,-2,-2,2
61915806970,-13,-5,-2,-2,-1,0,-1,-1
61915806970,-5,0,-1,-1,-4,-3,-2,-5
61915807724,4,0,-1,0,-2,-1,-1,2
61915807724,14,-1,0,-4,0,0,1,1
61915821317,-38,-2,-2,2,-2,-2,-1,-5
61915821317,-1,0,0,-2,0,0,0,1
61915828797,4,-2,-3,-2,-2,-1,-2,-1
61915828797,3,1,-2,-1,-2,-3,-1,0
61915843858,10,3,-1,-3,0,-2,-2,0
61915843858,-11,-5,-2,2,-1,0,1,-2
61915851971,0,-3,1,0,-1,-1,0,1
61915851971,-5,-3,0,-3,1,0,-1,-1
61915867021,2,-1,1,-2,-2,-1,1,4
61915867021,-8,-1,-2,-4,0,-2,-1,-9
61915867754,9,2,-1,-3,-2,-2,-2,0
61915867754,-7,-1,-2,-1,-3,1,-1,-2
61915882258,8,-3,0,0,-1,2,-2,1
61915882258,3,1,0,-4,2,0,-1,0
61915888768,10,-2,-1,1,0,-1,1,-3
61915888768,-37,-3,-2,1,-2,-1,-2,-4
61915903812,-5,-1,-1,-2,1,-1,-1,-5
61915903812,2,-1,0,-1,-1,-1,1,1
61915912038,-1,-2,0,-1,-2,1,-1,-2
61915912038,8,1,0,-4,-1,-2,-1,1
61915927453,4,0,-1,-1,-1,-3,-1,0
61915927453,-1,1,0,-1,0,-2,-1,2
61915928206,-2,-1,-1,-3,-1,-2,-2,-1
61915928206,3,-3,-2,-1,-3,-1,0,-2
61915941290,0,1,-2,2,-3,-1,0,-1
61915941290,5,5,2,-1,1,1,0,2
61915948786,-5,-1,-6,-2,-4,-2,-1,2
61915948786,2,-1,1,1,-1,-3,-4,-6
61915963861,18,-1,0,-5,1,2,3,3
61915963861,-23,-3,0,0,-3,-1,-4,-3
61915972025,-1,-1,-1,-4,1,-2,2,2
61915972025,7,2,-1,-1,0,-2,0,-4
61915987346,2,-2,0,-2,-1,-1,-2,1
61915987346,0,-6,-3,2,-1,0,1,-4
61915994536,-5,-3,-1,-8,-1,-1,-3,-3
61915994536,2,-1,-2,-1,-2,0,1,0
61916001304,4,4,1,-1,0,-1,-3,1
61916001304,2,0,-2,-2,-2,-1,-3,0
61916008793,-9,-4,-1,2,0,-1,0,-3
61916008793,0,-3,-3,1,0,-1,1,-2
61916023828,-3,-1,-1,0,-2,-1,0,-1
61916023828,-1,0,-3,0,-1,-3,-1,-2
61916032035,20,3,-2,-1,0,2,0,3
61916032035,-38,-3,-1,-5,-2,-1,-2,-5
61916046302,-1,-3,-3,0,0,0,-1,-3
61916046302,9,0,0,0,-1,-2,-2,2
61916054555,-4,-2,-1,-2,0,-1,-1,-4
61916054555,1,-7,-1,-1,0,0,1,1
61916061502,-5,-1,0,-1,0,0,-3,-5
61916061502,4,2,-1,3,-1,-1,-1,0
61916068811,1,2,0,-1,-1,-1,0,-2
61916068811,1,-4,-2,-1,0,1,-1,1
61916083858,3,-1,-2,0,-1,-3,-2,1
61916083858,1,1,-2,-2,-1,-1,3,-1
61916092575,-1,-1,-1,-2,-2,-2,-1,-2
61916092575,18,3,-1,0,1,0,-1,0
61916106338,-30,-6,-5,2,-2,-1,0,-2
61916106338,1,-3,-1,-6,-2,0,-3,1
61916114565,-5,1,-3,-2,-4,0,-3,-4
61916114565,8,3,2,-1,-1,-2,-3,0
61916121327,8,-1,-2,-1,-1,-2,0,2
61916121327,-5,-3,-1,2,0,0,-1,-6
61916128786,-4,0,0,-1,0,-1,1,-2
61916128786,0,-3,-4,-2,-3,-2,-2,-1
61916143829,-3,0,-1,1,-3,-1,0,-3
61916143829,-3,-2,-2,-1,1,0,-1,0
61916152012,0,-2,2,2,-2,-2,-1,-1
61916152012,1,2,0,2,-1,-2,0,1
61916166353,-2,0,-2,0,-1,0,-1,-3
61916166353,21,0,0,-1,-2,-1,-1,2
61916174545,-40,-6,-1,-2,-1,1,-1,-4
61916174545,-3,-6,0,2,-1,1,1,0
61916190543,5,0,0,-2,0,-1,0,0
61916190543,-1,-1,-1,-2,-1,-1,-1,-1
61916192370,7,1,-1,-1,-1,-2,-2,0
61916192370,-3,1,-1,-3,0,1,-1,0
61916203841,-2,-3,-2,2,-2,-1,-2,-2
61916203841,-6,0,-1,-3,-1,-1,-1,-2
61916212037,2,-2,0,-1,0,-1,0,1
61916212037,-3,-2,-1,-5,-2,-1,-2,-1
61916226367,10,-2,0,-5,-1,-1,-1,0
61916226367,-5,1,-1,1,-1,0,-1,1
61916234543,1,-1,-3,-2,-1,-1,-3,-1
61916234543,13,4,1,-1,-1,-1,0,3
61916249544,-25,1,1,-3,-1,-1,-2,-5
61916249544,1,-2,-3,1,-3,-3,-2,-1
61916250233,-2,-5,-2,-4,0,0,-1,-1
61916250233,-4,-2,-1,1,-1,-1,-2,-4
61916264027,17,3,0,-2,1,-2,-2,5
61916264027,-10,1,-1,0,0,0,0,-2
61916272019,-1,-9,-3,-3,0,-1,-2,-2
61916272019,3,1,-2,-4,-1,1,0,1
61916286352,1,-3,-1,2,-1,-1,-2,-2
61916286352,0,-3,-1,-3,-1,-2,-2,1
61916294505,7,2,-1,2,-3,-2,1,-1
61916294505,-9,-1,-1,-5,-1,1,0,-3
61916309557,2,-1,-1,2,0,0,-1,0
61916309557,15,0,-1,-4,0,-2,-1,-1
61916310312,-42,-2,-1,-4,-3,-3,1,-3
61916310312,-1,1,-2,3,-1,-1,-3,-1
61916323850,-1,0,-1,-5,1,1,0,1
61916323850,-5,-2,1,1,0,-1,-1,-2
61916332021,14,2,0,0,2,-1,-1,2
61916332021,-1,1,-1,0,-1,-1,-1,-1
61916346368,-3,-5,-2,-5,-2,-4,-1,4
61916346368,-7,-4,-1,-1,-2,0,-2,-6
61916355174,8,0,0,-2,1,0,-1,-3
61916355174,1,0,-2,-1,-2,-1,1,0
61916369948,5,2,0,0,1,-1,-1,0
61916369948,-6,-3,-1,-4,-1,-2,-1,-1
61916370695,9,1,1,2,-2,-1,-2,0
61916370695,15,-4,-2,-2,-1,-4,-2,0
61916383817,-26,1,1,0,-1,-1,-1,-7
61916383817,-5,-5,-2,-5,3,-1,-1,-1
61916392696,3,0,-3,2,-2,1,0,-2
61916392696,12,2,3,1,-1,1,-1,2
61916406335,4,0,0,3,-2,-2,1,-1
61916406335,-6,-5,-1,-1,-2,2,2,1
61916414568,3,-3,-5,1,-2,-2,-1,-1
61916414568,-8,3,-2,2,-1,-1,-2,-4
61916429544,5,2,1,1,-1,0,-2,-2
61916429544,-1,1,-1,1,-2,0,2,1
61916430275,4,-2,0,2,0,0,-1,-2
61916430275,-6,-5,2,0,0,-1,0,-1
61916443920,4,-3,-2,-2,0,0,-2,0
61916443920,26,3,1,0,-1,-2,-2,3
61916452032,-41,-5,-2,-3,0,-1,-1,-5
61916452032,-8,-3,-2,0,-1,0,-1,-4
61916466986,3,-2,1,-5,-1,0,0,1
61916466986,3,1,0,-1,-1,0,0,1
61916482115,14,4,-1,-1,-1,-2,0,2
61916482115,-9,-3,-1,-4,1,-3,0,-2
61916489552,1,-4,-3,0,-3,-2,-1,0
61916489552,-6,1,1,-2,-2,-1,-2,-1
61916490234,0,1,-2,0,-1,-1,-2,-1
61916490234,-6,-7,-5,-2,1,1,-2,0
61916503858,3,-5,-4,0,-1,1,-2,0
61916503858,-5,7,-1,-1,-3,-1,-1,-2
61916511996,6,1,-1,-1,-1,-3,-3,0
61916511996,11,3,3,-3,-2,-2,-1,4
61916526329,3,0,-3,-1,0,-1,-1,-7
61916526329,-14,-5,-4,3,1,-2,0,1
61916534561,5,-3,-1,-4,0,1,-1,-4
61916534561,-2,-2,-2,-1,-1,-3,0,1
61916549568,9,0,0,-3,-1,-1,0,2
61916549568,-1,0,-1,-2,-1,-2,-5,-4
61916550261,6,2,0,-2,-3,-1,0,1
61916550261,-5,-2,1,-1,1,-2,0,-2
61916565293,-8,-5,-2,1,-1,0,1,-1
61916565293,-3,-1,2,-4,1,-1,-2,-1
61916572017,2,-5,-2,-2,1,1,0,2
61916572017,-3,1,-1,0,-2,-1,-2,-5
61916586330,-4,1,0,-2,-2,-3,-2,-3
61916586330,-7,-4,-4,3,-1,0,0,0
61916594571,4,2,0,0,-1,-2,0,1
61916594571,-4,1,0,-1,0,-2,1,-1
61916610330,-2,-3,-3,0,0,-2,0,-2
61916610330,9,4,-1,4,-2,0,0,2
61916612132,5,0,0,-2,-1,-1,-1,3
61916612132,-6,-3,-1,3,-1,0,-4,-12
61916623930,-3,-1,-2,-3,-2,0,1,1
61916623930,-6,-1,-1,0,-1,-4,-1,-4
61916631999,3,0,0,-2,1,0,0,0
61916631999,6,2,-2,-2,-1,0,0,0
61916646522,0,1,-1,2,-2,0,-1,-1
61916646522,-1,-9,0,-2,0,-1,0,-2
61916654750,-10,0,-1,-4,-1,0,-2,-1
61916654750,-7,-10,-3,-1,-3,-1,3,3
61916669530,1,7,0,-1,0,-1,-2,-1
61916669530,1,-2,-2,1,0,-3,1,0
61916670288,-1,0,0,1,0,-3,-1,-2
61916670288,-2,-1,-3,-2,-2,-2,-1,0
61916683964,19,-1,1,3,0,-2,-1,0
61916683964,-45,-1,-3,-7,-3,0,0,-4
61916692043,-1,-4,-1,2,-2,-1,0,-3
61916692043,3,1,0,3,-1,-2,-2,1
61916706337,0,1,2,-4,-1,-3,1,2
61916706337,10,-2,-1,-1,-1,1,-1,-5
61916714482,-1,1,0,3,1,-1,0,-1
61916714482,-3,-1,-1,-2,-2,-2,-1,0
61916729531,-2,-1,-1,1,-1,-1,-1,-2
61916729531,5,-4,0,1,0,0,-2,-5
61916730289,6,3,1,-2,-1,-1,-2,3
61916730289,-4,-4,0,-3,0,1,-2,-1
61916743900,-9,-6,-4,-2,1,0,-1,-2
61916743900,0,-4,-2,0,-2,0,0,-1
61916752019,1,0,-1,4,-2,-1,-1,-3
61916752019,3,2,-6,-2,0,-2,0,3
61916766382,-4,1,0,-7,-2,0,-2,0
61916766382,5,0,-3,0,0,-3,0,2
61916774520,12,-1,-1,-6,-1,-1,-4,-2
61916774520,-36,-5,-2,1,-1,0,-2,-4
61916789559,0,4,2,0,0,-2,-1,-1
61916789559,7,-4,-4,1,-2,-1,-1,2
61916790235,-6,0,0,0,-2,-2,-1,-5
61916790235,9,-1,-1,-3,1,0,-2,0
61916803848,1,3,0,-2,0,-1,-1,1
61916803848,-2,5,2,-1,1,-2,0,1
61916813110,-1,-5,-5,-2,0,-2,-1,0
61916813110,1,2,2,-2,2,0,0,-2
61916834261,-4,-6,-6,2,-2,-1,-2,-1
61916834261,5,5,1,1,0,-1,-2,2
61916842057,-5,-3,-3,-1,-2,-1,-1,-5
61916842057,4,-1,-2,-2,1,-2,0,-4
61916849553,0,-3,-4,-2,-1,-1,-4,-2
61916849553,7,2,0,2,-1,0,0,5
61916850271,4,-5,3,-1,-1,0,0,-1
61916850271,-11,-4,-3,1,-2,-2,-2,-3
61916863838,0,-4,-1,2,-1,-2,0,-3
61916863838,-4,0,-1,-4,-4,-1,-1,-3
61916872838,3,0,-3,-2,-1,-1,1,4
61916872838,9,1,0,-1,0,0,-1,-6
61916886345,-4,-4,-4,2,-2,0,-2,0
61916886345,-2,-4,-2,-3,1,0,-1,-4
61916895322,-8,1,1,-2,0,-1,-2,1
61916895322,-1,-3,-1,-3,-2,-2,-1,2
61916908867,-6,-6,-3,-1,-2,-2,-3,-3
61916908867,0,0,-2,-1,-1,0,-2,0
61916919770,-3,1,-3,0,-1,1,0,-1
61916919770,2,-2,-1,-3,-3,-2,-2,0
61916923824,5,7,2,1,1,-2,1,1
61916923824,-5,-6,-3,-3,-1,-2,-1,-3
61916932839,-8,-4,-2,-2,-1,-2,-3,-3
61916932839,17,2,-2,2,-3,-1,-3,4
61916946386,-31,-5,-1,-5,-1,0,2,0
61916946386,7,2,-1,-3,-2,-1,-2,-4
61916955289,-6,-1,0,0,-1,0,1,-1
61916955289,1,0,-1,-2,0,0,0,-2
61916968840,8,1,-1,-1,-2,-2,-1,3
61916968840,-3,-1,-1,3,-1,-2,-3,-2
61916977834,0,0,-3,1,-1,-1,0,1
61916977834,3,2,3,1,0,-1,0,4
61916983924,1,-2,-1,0,-1,-3,-2,-3
61916983924,-1,-2,1,2,-2,-1,-1,0
61916992803,1,2,0,-1,-1,-2,-1,-5
61916992803,-7,-4,-4,1,-3,0,-2,-1
61917006362,1,-3,-3,0,-1,-1,1,-3
61917006362,0,0,2,-2,0,0,0,-1
61917015394,0,2,0,-1,-2,0,0,1
61917015394,10,2,0,-1,-1,0,-1,3
61917028906,8,1,0,-4,-1,0,-1,-2
61917028906,-38,-8,-4,-2,-2,-1,-1,-7
61917037818,0,-3,-2,-5,0,-1,-2,-4
61917037818,-2,-1,-1,0,-2,-1,2,1
61917052698,10,1,1,1,0,-1,-1,2
61917052698,8,0,-2,2,0,-1,0,4
61917054278,-8,-5,-2,-1,-3,-1,-1,-1
61917054278,-3,0,-2,0,-3,-1,-4,-4
61917066389,-2,-1,1,0,2,0,1,-1
61917066389,3,3,-3,-3,-1,-1,-3,-2
61917075315,2,1,-1,-3,-1,-1,-1,0
61917075315,5,2,-1,-2,-3,-2,1,1
61917088854,-6,-1,2,-3,-1,0,1,-3
61917088854,15,3,0,2,1,-1,0,4
61917097817,6,-5,-2,0,-1,-2,-1,-1
61917097817,-19,-5,0,1,0,0,-1,-5
61917121539,-2,2,-1,-2,-1,0,-4,-4
61917121539,1,-2,-2,-3,0,0,0,-5
61917125202,12,6,0,0,-1,0,0,2
61917125202,5,-1,0,-1,0,0,-2,-1
61917127285,-5,-2,-3,0,-2,1,0,3
61917127285,6,-5,0,-2,0,-1,-2,-5
61917135286,-6,-2,-3,0,0,0,-1,-2
61917135286,-4,2,1,-3,0,-1,0,-1
61917148915,-1,1,-3,-1,0,-2,-2,0
61917148915,3,-2,-3,-3,-4,0,1,2
61917157853,-12,-3,0,-1,-2,0,-1,-2
61917157853,1,-1,-2,2,-2,-1,-1,-1
61917172735,7,-1,3,-1,-1,-2,-2,1
61917172735,4,3,-2,0,0,-3,-2,1
61917174326,6,-4,-1,0,0,-2,0,0
61917174326,-20,-5,-2,2,-1,1,0,-4
61917186527,-1,-3,-2,-1,-1,-1,-3,-1
61917186527,-2,-2,1,0,-1,0,0,1
61917195345,6,3,0,-2,0,-2,-2,-2
61917195345,1,-4,-2,-1,-1,-2,-1,1
61917208884,-3,-1,-1,-2,-1,0,1,-6
61917208884,1,-1,0,-2,-1,0,4,6
61917217828,-4,1,-3,-1,-1,-1,-1,-2
61917217828,0,-4,-4,0,-1,-2,-1,-4
61917232703,2,-1,-2,-1,-1,0,1,0
61917232703,-4,1,1,0,0,-1,-2,-2
61917234338,-5,-4,0,0,0,-1,-1,-7
61917234338,3,0,-2,-3,-1,1,-2,2
61917246370,4,-4,-2,1,-3,-2,-1,2
61917246370,3,1,-2,2,-1,-1,-2,1
61917255352,3,-1,-2,-1,-2,0,1,3
61917255352,3,4,1,-3,-2,-2,-2,-4
61917268862,-1,-3,-3,-2,-2,-2,-2,-2
61917268862,-2,-2,-2,-1,-1,-1,-1,-2
61917277831,-10,-1,1,2,0,0,-2,0
61917277831,13,2,-2,-1,-1,-1,-2,2
61917292714,-7,-1,-1,-3,-1,0,-2,1
61917292714,-7,-4,-2,-3,-1,0,-1,-4
61917294295,10,1,-1,2,0,1,-1,1
61917294295,-7,-2,0,-2,-1,-2,1,-2
61917306332,-3,-3,-2,1,-2,-2,-2,-3
61917306332,-5,-3,-4,1,-2,-1,-3,-1
61917315434,-4,-1,-2,0,0,-2,-1,1
61917315434,-1,-2,-1,-5,0,0,-1,0
61917328796,-2,2,-1,2,-2,-1,-2,-3
61917328796,3,0,1,-3,-2,-2,-1,-1
61917337848,-4,-6,0,-1,-1,-2,1,0
61917337848,5,-1,0,-4,0,1,0,1
61917352741,-1,-3,-3,2,-1,0,-1,-1
61917352741,-1,1,1,1,0,0,-2,-5
61917354308,-2,0,0,-1,-2,-2,-2,-1
61917354308,1,1,0,-2,0,-3,-2,-4
61917366369,4,0,-3,-4,-2,-3,3,8
61917366369,-2,-5,-1,1,-2,-1,-1,2
61917375290,-15,0,-2,-2,-1,-1,-2,-4
61917375290,8,0,-1,0,-1,1,-2,2
61917388902,-2,-2,-5,-1,-2,0,-3,-4
61917388902,0,5,2,-6,2,0,3,-1
61917397928,4,1,-1,-5,-1,1,0,1
61917397928,-7,-2,0,1,-1,-1,-2,2
61917412713,-2,0,-1,-2,-1,-1,-2,-8
61917412713,-3,-2,-1,1,-2,-1,-1,2
61917414323,4,0,-3,-3,-1,1,-1,0
61917414323,-4,-1,-3,-2,0,-2,-1,-2
61917426879,5,3,-1,1,1,1,0,3
61917426879,5,-2,-2,1,-2,0,-4,-7
61917435324,-2,-2,-3,0,0,-4,-1,-1
61917435324,-5,-5,-2,-1,-1,0,0,-2
61917448907,-6,-6,2,-2,-2,-2,-2,1
61917448907,6,2,-3,-4,-1,-1,-2,-1
61917457795,0,-2,-3,-4,-2,-2,-1,1
61917457795,-6,6,2,2,0,0,-1,-3
61917471775,5,-2,1,-2,0,0,-1,-1
61917471775,-6,-1,-2,0,-2,-1,2,6
61917480343,0,-2,-3,0,0,-1,-1,-2
61917480343,1,1,-1,1,-1,-3,1,0
61917486386,-3,0,0,-2,3,0,3,-2
61917486386,-2,-5,-3,3,-1,-3,-1,0
61917495339,17,4,4,1,2,2,-2,1
61917495339,-33,-4,-2,-2,-1,-1,-1,-2
61917508870,-1,-2,0,0,-2,0,-1,3
61917508870,-5,-3,-3,1,-1,-1,1,-6
61917517852,8,-1,-1,-2,-1,-1,-1,-2
61917517852,10,-2,-1,-1,0,0,-2,3
61917532682,-6,-2,-1,-1,-1,-2,-2,-4
61917532682,-7,1,1,-3,0,0,-2,-2
61917534297,-11,-3,-4,-2,-2,-2,-1,-3
61917534297,3,0,-3,1,-1,-2,-1,-2
61917546346,-1,0,-1,-2,0,1,1,1
61917546346,4,-4,-2,-3,-1,-1,0,1
61917555351,-4,0,-4,1,-3,-3,-1,-1
61917555351,3,1,1,-3,-3,0,1,0
61917568860,8,0,-1,-1,-1,-2,-3,-2
61917568860,9,2,0,-1,-1,-1,-3,-1
61917577793,-24,-6,-3,2,-4,-2,-3,-3
61917577793,6,-1,-2,0,-2,-1,-2,1
61917592707,-5,1,-3,-1,-1,-1,-3,-4
61917592707,3,-4,-3,-1,-2,-2,-1,-1
61917594279,2,0,1,-3,-1,-1,0,1
61917594279,-2,-4,-2,1,1,-1,0,-2
61917606404,-1,-2,-2,-2,-2,-1,0,-6
61917606404,-7,1,-1,-2,-2,-1,-4,0
61917615308,4,1,-4,0,-1,-1,-1,0
61917615308,-4,-5,1,-1,1,0,-1,1
61917629845,0,0,1,-3,1,0,1,4
61917629845,-4,1,0,-4,-2,-1,1,-3
61917637856,-1,1,0,-3,-1,-1,1,0
61917637856,9,0,-5,3,-2,-2,-2,-1
61917652695,8,-3,0,-1,0,-2,-1,-1
61917652695,-34,-6,-3,2,2,0,-1,-7
61917654285,5,0,2,2,1,0,0,0
61917654285,-2,-1,-1,-2,-2,-1,-2,-1
61917666411,7,-2,-4,-1,-4,-1,1,3
61917666411,3,1,-1,-3,-3,1,-3,3
61917675300,-4,-4,0,-4,0,-1,4,4
61917675300,-2,-2,1,-1,0,-3,-1,-3
61917688854,-7,0,-2,-3,-2,-2,-3,2
61917688854,3,-1,-1,-3,0,-1,-1,-2
61917697864,-4,1,-2,3,-1,-2,-2,-8
61917697864,4,-4,-3,-2,-1,0,-2,1
61917712699,-1,4,4,-1,2,-1,0,0
61917712699,8,-1,-2,-1,0,1,1,4
61917714284,3,-2,-2,-1,-2,-2,-2,-1
61917714284,2,-1,-3,-1,-2,-2,0,-1
61917727206,-4,-1,0,0,0,-1,-2,-2
61917727206,-2,-2,-1,2,-1,0,-1,-1
61917735296,6,3,1,-3,-1,0,-2,-3
61917735296,1,-4,0,-3,-2,-1,0,1
61917748941,-9,1,-2,-1,-3,-1,-1,-1
61917748941,10,-1,-1,0,0,-3,0,1
61917757798,-6,-5,-5,-1,-3,-1,-1,-1
61917757798,-3,3,2,-2,1,1,1,-4
61917772695,1,-2,-3,-1,-2,-3,-2,-2
61917772695,1,0,1,-2,-1,0,1,-1
61917774312,8,-1,-1,-1,-1,0,-3,-3
61917774312,-39,-1,-1,-4,-1,-1,-1,-4
61917786357,4,1,0,-1,0,0,2,0
61917786357,-1,-4,-4,-2,-2,-1,0,0
61917795355,-5,-1,-1,-3,1,1,0,1
61917795355,11,0,-4,4,-2,-2,-2,-4
61917808878,-3,1,0,-2,-3,-1,-2,0
61917808878,-2,0,0,-1,0,-1,0,-3
61917817859,3,-1,0,3,-1,0,-1,2
61917817859,4,-1,-2,-6,-2,1,-1,1
61917832684,-7,-2,-3,1,0,1,-1,-2
61917832684,0,-1,-3,0,-2,-3,-4,-6
61917834271,-5,-1,0,-3,0,-1,0,1
61917834271,5,-1,0,0,0,-2,-1,-1
61917846383,0,0,-1,1,-2,-2,-1,-1
61917846383,3,-1,0,0,0,0,1,2
61917855351,9,2,1,-2,-1,-1,2,-3
61917855351,-31,-5,-3,0,-2,-1,0,-3
61917868864,5,-2,-2,-3,1,-1,-1,0
61917868864,-2,0,0,0,2,0,-4,-2
61917877849,3,0,-2,-1,-2,-1,-3,0
61917877849,9,1,-1,-4,-1,0,4,4
61917892178,-1,0,-1,-2,-3,-1,0,-4
61917892178,-5,1,-3,-5,-3,0,-1,1
61917898858,-7,-8,-4,-3,-1,-1,-2,-2
61917898858,8,0,1,0,0,0,-3,-1
61917906347,-4,-2,-1,-3,-2,-1,0,-2
61917906347,4,2,0,-2,0,-1,1,3
61917915295,-4,-1,-2,-4,-3,-2,-1,-7
61917915295,9,-1,-2,0,-2,-1,-1,2
61917929595,8,-3,-3,2,-1,-1,-2,0
61917929595,-26,-3,0,-1,-3,-1,-1,-4
61917937812,0,2,1,-3,1,1,1,2
61917937812,2,1,-1,-3,1,0,0,-3
61917952046,-1,-1,-1,2,-1,-2,-2,-4
61917952046,8,0,-4,-4,-1,-2,-1,-2
61917958886,-7,0,0,0,-1,0,-1,-2
61917958886,3,-2,-4,-1,-1,-1,-2,0
61917966364,5,0,5,-3,2,1,-1,3
61917966364,0,-1,-3,-2,0,-3,0,0
61917975333,-7,-5,-2,0,-1,0,-1,-3
61917975333,5,0,0,2,0,0,1,-1
61917988896,-9,-5,-3,-3,-2,-1,-1,-3
61917988896,3,-3,-2,-4,-2,-3,0,-2
61917997798,3,2,1,1,1,-1,1,7
61917997798,-2,0,-2,1,-1,-2,-2,-7
61918012072,13,-1,-2,-3,-1,-1,-2,0
61918012072,-39,-5,-1,2,-1,1,-1,-2
61918018815,1,-3,-3,0,-2,-3,-4,-5
61918018815,0,-2,0,-3,0,-1,1,0
61918036578,2,0,-1,-7,-1,-2,-1,-1
61918036578,12,1,1,-1,0,0,-1,0
61918039211,-5,-2,-2,1,-1,-1,-1,-3
61918039211,-4,-4,-1,-2,-1,-2,-1,0
61918048872,-8,-1,-3,-1,0,0,1,0
61918048872,9,-1,0,-2,-1,-1,0,-1
61918057831,-2,0,-1,0,0,-2,1,0
61918057831,7,2,0,-3,-3,0,-4,-1
61918072066,-13,-4,0,3,-3,1,-1,-3
61918072066,3,-7,-2,2,-2,-1,-3,-2
61918078894,16,0,0,-3,0,0,1,1
61918078894,-39,-6,-4,-4,0,-1,0,-4
61918095235,-3,2,1,1,-1,-3,0,-1
61918095235,2,0,0,-1,-1,0,0,4
61918096854,0,3,-2,-2,-1,-2,-2,1
61918096854,10,0,-2,-3,-2,-2,-2,5
61918109069,1,3,-1,-1,1,-1,-3,-4
61918109069,-4,-3,-2,0,-1,-1,-1,-4
61918117804,-3,-2,-1,-2,0,0,-1,-4
61918117804,5,0,1,3,0,0,0,0
61918132087,-2,-3,0,-5,0,-1,1,2
61918132087,10,2,-1,-2,-2,-3,-4,-4
61918146375,-10,-5,-1,-1,0,-1,-1,-1
61918146375,0,-1,-1,0,0,0,1,-2
61918155251,0,-1,-1,1,0,-1,-1,-1
61918155251,1,-2,-2,3,-1,-1,-1,0
61918156888,-3,-1,-2,0,-4,-2,0,0
61918156888,7,0,0,1,-1,-1,-1,0
61918168840,5,0,-2,-2,0,1,-2,-1
61918168840,-2,1,0,1,-2,-1,0,0
61918177887,-4,-3,-1,-2,-1,-2,-2,-3
61918177887,3,-3,-1,2,-1,-1,-1,4
61918192067,7,-1,-1,0,-4,-2,0,1
61918192067,1,1,0,0,-1,2,1,-2
61918198836,0,2,-1,1,-1,0,-1,-1
61918198836,0,-1,-1,-5,-1,-1,-3,-2
61918215248,-12,-7,-4,-3,-2,-2,-3,-7
61918215248,5,-2,0,-5,3,-1,1,3
61918216833,-2,-2,-2,1,-3,1,-1,1
61918216833,10,3,1,-3,-1,-1,0,-2
61918229356,-14,1,-1,0,-1,0,0,-4
61918229356,3,-2,-2,2,-2,-1,0,1
61918240088,7,0,0,-2,-1,0,-1,-1
61918240088,-8,-3,-1,-5,0,-1,1,-2
61918252068,8,-2,0,0,1,0,0,4
61918252068,-3,-3,-2,-1,-1,-3,-2,-2
61918258902,-9,-3,-4,-3,-1,-2,-1,0
61918258902,5,0,-1,3,-1,-1,-1,0
61918275230,0,1,-2,-1,1,-1,0,0
61918275230,-9,-2,-1,2,0,1,-2,-2
61918276791,-1,-2,0,2,-1,1,4,4
61918276791,-2,-2,0,-1,-2,0,-1,-2
61918288927,0,-2,-1,4,-1,0,-1,0
61918288927,8,5,0,0,0,-1,-1,2
61918297842,-4,0,0,-4,0,1,-1,-4
61918297842,3,-1,-1,2,-3,0,0,-4
61918312214,-4,0,0,-1,0,-3,-1,-3
61918312214,1,-3,-2,0,1,0,0,0
61918318841,6,0,-3,-3,-1,0,-1,-2
61918318841,-5,-1,-2,-2,-1,-2,-2,0
61918335800,-2,-2,1,2,-2,-1,-1,-2
61918335800,-1,0,2,-6,-2,-1,0,-3
61918339391,-3,-2,0,-1,0,0,0,-2
61918339391,-4,-4,-4,-5,-1,-2,-2,-1
61918348830,4,-2,-3,-1,0,-1,1,1
61918348830,-3,2,0,-4,0,-3,0,0
61918357859,-6,-1,1,0,0,-1,-1,1
61918357859,-1,-2,-2,2,-1,-1,1,1
61918372082,17,0,-1,-5,-1,0,-1,0
61918372082,-38,-4,-3,1,-2,-2,-2,-5
61918378831,1,-3,-1,0,-1,-1,-2,-3
61918378831,-1,0,1,2,0,0,-2,-6
61918395232,1,-1,-1,-1,-3,0,1,3
61918395232,7,0,-3,-1,-3,-1,-2,0
61918396803,-3,-1,-1,0,0,-2,-1,-5
61918396803,-3,-1,-1,-4,0,-2,-1,1
61918408918,-8,0,0,-1,0,-1,0,3
61918408918,9,0,-2,-1,-1,-3,-1,-5
61918423864,1,2,-2,-3,-1,-3,1,1
61918423864,8,1,-1,0,0,0,0,2
61918432066,-9,-4,0,3,-1,-2,0,-2
61918432066,1,-3,0,-2,0,-1,-1,1
61918439829,5,0,-1,-3,0,0,-1,-1
61918439829,8,1,-2,-2,-1,-1,-1,-1
61918455246,-23,1,-2,-2,0,0,-1,-7
61918455246,11,-2,1,1,1,0,1,1
61918456821,-5,-2,-3,3,-3,-2,-3,-3
61918456821,-4,-2,-1,-4,0,0,-2,-2
61918468919,1,-1,-3,-1,1,-2,-1,-2
61918468919,1,0,0,-4,-1,-2,-1,-1
61918477840,-3,0,-3,-2,-2,-2,-3,-1
61918477840,4,-1,-1,-3,-1,-2,0,4
61918492058,0,0,-1,3,0,0,-3,0
61918492058,0,-4,-3,-1,-3,1,1,1
61918498881,3,1,-1,-5,-4,-1,-1,2
61918498881,-7,-1,-1,3,-2,1,-2,-2
61918515230,2,-4,0,-3,-2,0,2,2
61918515230,8,0,0,-2,-1,0,-2,-2
61918516831,-13,-5,0,3,0,0,-1,2
61918516831,-5,1,-2,-1,-1,-2,-1,-8
61918528909,-1,1,-1,-7,2,-1,-1,0
61918528909,11,0,1,-6,-1,-1,-1,1
61918538880,2,-2,-2,-1,2,0,-1,1
61918538880,-5,-2,-2,-1,-3,-4,-5,-3
61918552053,3,-2,0,-1,-4,-3,-1,0
61918552053,-2,1,-2,-4,-1,-3,0,-1
61918558873,-7,0,-2,-4,-1,-1,-1,-4
61918558873,-6,-6,-1,2,2,0,-2,-1
61918575232,3,1,-2,-6,0,1,-2,0
61918575232,-9,-2,-4,4,-1,-2,-3,-5
61918576834,5,1,-2,1,0,-1,-1,4
61918576834,2,0,-3,0,-3,0,2,1
61918588937,-4,-4,-2,-1,-2,0,-1,0
61918588937,0,1,0,-1,-2,-1,1,1
61918597841,15,0,-1,-1,-1,0,-3,-1
61918597841,-16,-2,-3,-1,-2,-1,-3,-5
61918612028,0,-3,-2,-1,0,-2,1,-2
61918612028,-6,1,0,1,2,0,0,0
61918618863,8,-1,-3,1,-2,-2,-2,-1
61918618863,6,1,0,1,-1,-2,1,1
61918635191,-5,3,0,1,-2,-1,-5,-3
61918635191,1,-3,-3,0,-2,0,-3,0
61918636800,-9,-2,-2,0,-1,-3,0,-2
61918636800,1,-2,-3,-3,0,3,0,1
61918648921,-1,-1,-3,-1,-1,-2,-1,0
61918648921,-2,-2,0,-2,-1,-1,-2,-6
61918657821,-6,-2,-2,-3,0,-2,-1,0
61918657821,4,-4,-1,2,-3,-3,-2,2
61918672079,1,0,-1,-1,-2,1,0,-1
61918672079,0,-3,-1,0,0,2,-1,-3
61918678876,1,0,0,-1,-1,1,0,-1
61918678876,2,1,-1,5,1,1,-1,2
61918695248,6,-3,-1,0,1,0,-1,0
61918695248,-3,-2,-1,2,-1,-2,0,0
61918696789,-6,0,-1,-1,-3,-2,-2,-3
61918696789,5,-1,-2,-6,-1,-2,-2,-1
61918708887,-5,-5,-4,2,-1,-1,-2,-3
61918708887,0,-1,-2,1,-1,-3,-2,1
61918717835,0,3,3,-1,-1,-1,3,2
61918717835,-13,-2,0,-1,-1,0,1,-1
61918732054,-4,-3,-2,0,-1,-1,-2,-7
61918732054,8,1,-2,-5,-1,-1,0,1
61918738894,-4,-1,-3,-1,-3,-2,-1,-2
61918738894,3,2,-1,-1,1,-1,1,2
61918754528,-2,-1,0,2,0,1,-1,-1
61918754528,0,-2,-3,0,-3,-1,0,2
61918761392,1,-1,0,0,-1,0,-3,0
61918761392,-3,-4,-1,1,-1,-1,-2,-5
61918768898,-2,-2,-1,3,-1,-2,-2,1
61918768898,5,-2,-1,-5,-2,-2,-1,-2
61918777834,0,0,-1,0,-2,-1,0,-3
61918777834,0,0,-1,0,-1,-1,-2,0
61918792092,-7,-2,-2,-3,0,0,1,-1
61918792092,-7,0,-1,2,0,-1,-1,-3
61918798902,-4,-2,1,0,0,-1,-2,1
61918798902,3,1,-2,0,-2,-1,-1,0
61918815401,16,2,-3,-1,-2,-1,0,7
61918815401,-15,1,-2,2,-1,-1,-2,-6
61918816825,2,-1,-2,1,1,0,-1,-6
61918816825,4,-1,0,-2,0,-1,0,-2
61918828921,-7,-4,-3,-5,-1,0,-2,-2
61918828921,-3,-3,0,-4,-2,1,0,3
61918837863,7,-3,-2,1,0,-1,-1,-1
61918837863,-3,-1,0,0,-1,-1,0,-1
61918852038,-9,2,-2,1,-3,-2,-2,-2
61918852038,-9,-4,-1,1,0,-1,-1,-1
61918866368,9,0,0,1,-1,1,2,-1
61918866368,-5,0,-4,-5,0,-1,0,5
61918874534,-11,-8,-1,2,-3,-2,1,-5
61918874534,15,8,-1,0,1,-2,-1,3
61918881383,-9,-1,2,0,2,-3,-2,-6
61918881383,13,-1,-3,-2,0,0,0,6
61918888898,-11,-2,-3,0,-4,-4,-6,-10
61918888898,-10,-11,-4,-3,0,0,-1,2
61918897853,2,-3,-1,1,-1,1,-1,-1
61918897853,-6,-2,-2,-2,-1,-2,-2,-4
61918912065,8,0,0,-2,0,1,1,1
61918912065,3,3,-2,-1,-2,-1,-1,-4
61918918871,-8,-1,-3,-1,-1,-2,-2,-1
61918918871,2,-1,1,-1,0,0,1,1
61918934546,0,4,0,-4,1,0,0,-4
61918934546,-3,-5,-1,0,-2,-1,0,-2
61918941399,-2,-3,-1,-2,-1,0,1,3
61918941399,-8,-1,0,0,-3,-1,0,-4
61918957754,16,3,0,0,-1,-1,1,3
61918957754,-18,1,0,0,2,0,1,2
61918959314,-1,-2,-2,-1,-1,-2,-1,-9
61918959314,2,1,0,0,0,-1,-1,0
61918972097,0,-1,-1,-3,0,-1,-1,2
61918972097,7,-2,-1,-3,-2,0,-1,1
61918978897,-3,-2,-2,-1,-3,-4,-2,-2
61918978897,-7,0,-1,-4,0,0,-2,-5
61918994576,6,-1,-3,2,1,0,-3,0
61918994576,-2,-1,-1,-2,-1,-1,-2,3
61919001365,-5,-6,-3,-4,-1,0,0,1
61919001365,-3,1,0,0,-3,-1,0,-6
61919017691,7,1,-1,-2,-2,-1,1,2
61919017691,-1,-2,0,1,-1,-1,-1,-6
61919019328,-1,0,-3,-1,-2,0,0,1
61919019328,-10,-5,-4,3,-1,-2,0,2
61919032083,12,0,1,1,0,-1,-1,-2
61919032083,-40,-5,-3,3,-2,-4,-1,-4
61919038859,3,2,0,-5,-1,1,-1,0
61919038859,1,-2,-2,1,-1,-2,-3,-1
61919054592,-4,-1,-1,-1,-1,-1,-3,0
61919054592,12,1,0,0,0,0,-2,-5
61919061463,1,-2,0,2,0,1,-1,5
61919061463,-5,0,0,-1,0,0,-1,-2
61919077763,-2,0,0,0,1,0,-2,-2
61919077763,10,1,-1,-1,0,-1,0,4
61919079348,-9,-1,0,2,-1,-3,-1,-6
61919079348,6,-3,-3,-1,-2,-1,-1,-2
61919092065,-5,1,1,-3,1,0,-1,0
61919092065,4,1,-2,-1,2,0,0,-2
61919098898,4,0,-1,1,-2,0,0,3
61919098898,-4,-1,0,2,-2,-1,-1,0
61919114630,4,-2,1,2,-1,-1,-2,-2
61919114630,2,0,-1,-2,-1,-1,-3,-6
61919121516,-5,-3,-3,0,-3,-2,-6,-1
61919121516,-9,-1,-1,-1,-1,0,3,0
61919137741,-5,-6,-3,-1,-1,-2,1,2
61919137741,16,1,-1,0,-2,1,4,8
61919139375,14,6,1,0,0,-2,-2,5
61919139375,-1,0,0,1,-3,-5,-8,-25
61919153169,-10,-12,-5,-1,-2,0,-1,-15
61919153169,1,0,-1,3,-1,-1,-1,-5
61919158847,-15,-2,0,-2,0,1,1,5
61919158847,2,-2,-1,1,2,1,-2,8
61919174552,5,5,1,-2,0,-1,2,0
61919174552,-13,-6,-2,0,-1,-2,-3,-3
61919181458,6,2,-3,2,-1,-1,-3,-2
61919181458,18,2,0,-3,0,-1,-1,8
61919197894,-41,-6,-1,-1,-3,-3,-1,-4
61919197894,3,-1,-2,1,-2,0,1,0
61919199292,2,-1,0,-3,-2,-1,0,2
61919199292,1,-2,-5,-1,-2,-2,0,-3
61919212116,4,-1,-1,1,-1,-1,-1,2
61919212116,0,-1,-3,-4,-1,-2,-2,-2
61919218879,-5,-3,-1,0,-2,-2,1,-2
61919218879,-2,-5,-2,-5,-2,-1,-1,-3
61919234578,3,2,-2,1,-1,-1,-1,5
61919234578,0,-1,1,1,0,-2,-1,-5
61919241430,5,3,-1,-1,2,0,-1,0
61919241430,-7,0,0,-1,-1,0,3,9
61919257686,8,2,0,0,0,-2,0,1
61919257686,-9,-5,0,-1,0,1,-1,-7
61919259289,-6,-4,-2,0,-1,-4,0,0
61919259289,-2,1,0,-1,1,-1,-3,-1
61919272049,14,1,-1,-6,0,-1,-1,0
61919272049,-18,-1,0,-4,-1,-1,-3,0
61919278898,0,-3,-1,-3,-2,0,-1,-9
61919278898,-10,-3,-1,-2,0,0,-1,2
61919294601,2,0,-4,2,0,-2,-1,2
61919294601,5,0,-2,0,0,-1,-1,1
61919301404,-1,-1,-3,-3,-1,-1,-1,-3
61919301404,2,1,1,-3,-1,0,2,-2
61919317782,0,-4,-1,-2,-2,2,0,-1
61919317782,2,2,-1,-6,-2,-1,-3,2
61919319344,-10,-1,0,0,-2,-3,-1,-1
61919319344,2,-2,-3,-3,-1,-2,-2,-8
61919332094,-8,-2,-3,-1,-2,-1,-2,-1
61919332094,13,0,0,-2,-2,-1,2,5
61919338944,-12,-2,1,-4,0,2,-2,-4
61919338944,4,-1,-1,1,-1,-2,1,-1
61919355184,-5,-4,-1,2,-1,-1,-1,-2
61919355184,-1,-1,-2,-1,-2,0,-1,0
61919362036,9,1,0,1,0,-1,-2,-2
61919362036,-2,0,-1,2,-2,-1,0,1
61919377782,-4,1,-1,-3,0,1,1,-2
61919377782,10,1,-1,2,0,-1,-1,0
61919379399,2,-4,0,-1,0,1,0,3
61919379399,-5,2,-2,-3,0,-2,-5,-4
61919392099,-3,-3,-1,2,-1,1,-2,1
61919392099,-2,-1,-2,-1,-3,-7,-1,-5
61919398849,-3,-2,-3,1,-2,-2,-1,-2
61919398849,-1,-3,-1,0,-1,-4,0,1
61919414594,1,3,1,-1,-3,1,0,-2
61919414594,1,0,-1,-2,-5,-4,-4,2
61919421381,4,2,-1,0,-2,0,1,1
61919421381,9,-5,-3,2,0,1,-1,-5
61919437767,-10,-1,0,-1,3,2,-1,-2
61919437767,0,-1,-1,4,-2,-8,-1,-1
61919439355,0,-3,-3,-2,0,-1,-3,0
61919439355,7,3,1,-1,0,0,0,5
61919451456,-1,-4,-2,-1,-1,-2,-1,-4
61919451456,-5,-1,-2,-4,1,5,-1,-4
61919462235,7,-2,-2,-2,-2,-3,1,0
61919462235,-12,-1,-1,-2,-1,0,-1,0
61919474620,0,-2,-2,-2,-1,-3,-2,-3
61919474620,-1,0,0,-3,-3,1,0,1
61919481578,6,0,1,-1,-2,-2,-1,-9
61919481578,-5,-4,0,-2,-3,-1,-2,7
61919497747,-1,0,0,-2,0,-4,0,1
61919497747,3,-1,-3,3,0,1,0,3
61919499329,-3,0,-2,-3,1,0,-3,-3
61919499329,1,0,0,3,-1,1,-2,-6
61919511461,-4,0,0,-1,-1,-2,-1,0
61919511461,0,-1,0,3,1,2,-1,1
61919520350,-2,-2,-2,-2,-1,0,0,1
61919520350,0,4,-2,3,-1,-1,-2,-1
61919535217,3,0,-3,-2,-3,-3,-1,1
61919535217,-3,-3,0,1,-1,0,1,4
61919541360,-9,0,-3,-1,-1,-1,-3,-10
61919541360,2,-2,-2,-1,-1,-2,-1,-6
61919557734,0,-2,1,-2,0,1,1,-1
61919557734,-3,-1,-1,-5,1,0,-3,0
61919559328,3,-2,0,3,-1,-3,1,3
61919559328,-6,-3,-2,-1,-2,-1,-3,-1
61919571414,-3,1,0,3,-1,-1,-2,-2
61919571414,-6,-4,-4,0,0,1,0,-3
61919580352,-1,-2,-1,-3,-2,-4,-2,1
61919580352,5,0,-3,-4,0,1,-2,0
61919594574,13,-1,-2,-3,-2,1,0,5
61919594574,-11,-3,-2,-1,-2,-3,-3,-11
61919601425,-6,-1,-1,1,-2,0,4,6
61919601425,-5,-5,-2,-5,-1,-3,1,1
61919617748,12,3,0,3,-1,-3,-2,0
61919617748,4,0,-2,-3,-1,0,-1,3
61919619323,-4,-2,-2,0,-2,-1,-3,-1
61919619323,2,-1,0,-3,-3,-2,-2,-3
61919631412,-10,-2,0,-1,1,0,1,-2
61919631412,6,-3,-1,0,0,0,0,-2
61919640362,-3,-1,0,0,0,-1,-1,3
61919640362,3,-2,-1,-6,0,0,-1,-5
61919654566,-3,-1,-2,-3,-1,-1,-2,-3
61919654566,-6,-3,-2,-3,-1,-2,-1,-5
61919662047,4,0,1,-2,-1,-2,-1,1
61919662047,0,0,0,3,-2,0,-1,1
61919677771,9,-5,-1,-2,-1,-2,-2,-2
61919677771,-27,-4,-2,-1,-1,-2,0,-2
61919679352,-2,-4,-2,-2,0,1,0,-1
61919679352,-6,0,-1,-2,-1,-3,0,1
61919691388,3,-1,0,-2,-2,-1,-1,-4
61919691388,12,1,-1,2,-4,1,0,3
61919700403,-3,-1,-3,-3,-2,0,-3,-4
61919700403,-4,-3,-1,-1,0,1,-1,-2
61919714616,-4,-1,-2,2,0,-2,0,2
61919714616,2,0,1,-3,0,0,-1,-2
61919721418,-5,-1,-2,-2,-1,-1,2,-2
61919721418,2,-1,-2,3,-1,-1,-2,-1
61919737740,-7,-3,-3,-1,-2,-3,-1,0
61919737740,0,4,2,-1,0,-1,-1,1
61919739302,5,1,-1,0,-1,2,-2,0
61919739302,2,-1,0,0,0,-2,-1,-1
61919751402,9,-1,0,-6,0,-1,-2,1
61919751402,-22,-3,-1,0,1,-4,-5,-5
61919760550,0,0,-2,-1,0,-1,3,4
61919760550,-2,-2,-1,-2,-2,-1,0,-3
61919774624,-3,-1,1,3,-1,-1,0,0
61919774624,12,-1,-1,0,0,-1,1,0
61919781425,2,0,-1,-3,-2,0,-2,-2
61919781425,-5,-3,-2,1,-1,0,-1,1
61919797136,-4,-1,-2,-2,2,0,-2,0
61919797136,6,1,-2,-1,-2,-1,-1,-1
61919803884,-7,-2,-2,-2,-2,-4,-4,-2
61919803884,1,2,-1,-1,-1,-2,-1,-2
61919811536,-4,0,-2,-2,-2,0,1,-1
61919811536,2,-2,-1,1,1,0,-1,-2
61919820479,4,-3,-2,-3,0,-3,-3,-1
61919820479,24,0,-2,-3,-2,-1,0,2
61919834550,-51,-5,-3,-2,-1,-3,-4,-8
61919834550,3,2,0,1,-1,0,-2,5
61919841458,-2,0,0,-3,0,-1,2,-6
61919841458,-5,-3,-3,-1,1,-2,0,0
61919857140,11,1,-1,-3,-1,0,0,7
61919857140,5,-1,-2,-7,-1,-1,-3,-4
61919863918,-6,-4,-3,0,-3,-2,-3,3
61919863918,-5,-2,-1,-1,0,-1,0,-4
61919872328,5,2,1,-5,0,-2,2,2
61919872328,-4,-7,-2,-3,0,0,0,-1
61919880349,7,2,0,0,-1,0,1,0
61919880349,-6,0,-3,-1,0,-2,-2,-2
61919894602,4,0,-1,0,0,0,-1,-2
61919894602,12,1,0,0,-3,-1,1,1
61919901431,-15,-4,0,-2,0,-1,-3,-6
61919901431,1,0,-1,4,-3,-2,0,2
61919917100,2,0,1,-2,0,0,-1,-3
61919917100,-5,-6,-2,1,-1,-3,-1,-1
61919923958,8,-3,-1,1,-1,1,0,1
61919923958,-8,-1,0,-1,1,2,-1,-1
61919940333,3,-3,-3,0,-1,-1,-2,-1
61919940333,6,5,-1,-2,-2,-1,-2,-1
61919941823,-7,-2,-1,0,-1,1,-1,-3
61919941823,-4,-2,0,-4,0,-1,0,-2
61919954564,-2,-1,-2,2,-1,-3,0,-3
61919954564,-2,-2,0,-4,0,-3,0,4
61919961406,-4,1,1,-4,0,-3,-3,-5
61919961406,-1,0,0,-1,-1,-1,-1,2
61919977094,1,-1,-1,-3,-1,-1,-2,-4
61919977094,5,-2,-1,3,-1,-2,2,3
61919983926,5,-2,-1,-3,-2,-2,1,4
61919983926,-2,1,-1,4,-1,0,-1,-3
61920000252,3,0,-4,-1,-2,-1,-2,1
61920000252,-4,1,-1,0,-1,0,0,-1
61920001872,5,-2,-1,-3,-1,-1,0,-1
61920001872,-4,-3,-1,-4,1,0,-2,2
61920014604,-9,-3,-1,4,1,-1,-2,-8
61920014604,2,-3,0,-2,0,-1,-2,0
61920021426,-5,1,0,0,-1,-2,-1,-4
61920021426,-2,0,0,-3,0,-1,-2,1
61920037176,2,0,1,2,-1,0,-1,1
61920037176,-3,0,0,-3,-1,-2,0,-1
61920043932,-6,-3,-4,-2,1,-1,-3,-7
61920043932,0,-3,-1,4,-2,-2,-1,-1
61920060318,16,1,-1,-3,-3,-1,-1,-3
61920060318,-30,0,0,2,0,1,-3,-10
61920061872,5,-1,0,0,0,2,1,5
61920061872,0,0,-3,-3,-1,-1,-2,-3
61920074919,0,-1,-1,-1,-1,-2,0,3
61920074919,3,-1,-2,0,-1,-1,0,0
61920088896,-6,-1,-1,3,0,-2,0,-3
61920088896,-7,-2,-2,-6,-1,0,1,0
61920097156,4,-2,1,0,-1,-1,0,3
61920097156,3,0,-4,-2,-2,-2,1,-2
61920103882,0,1,0,3,0,-2,-2,0
61920103882,7,1,-1,0,-2,-1,-1,0
61920120294,-8,-3,0,2,1,1,0,-2
61920120294,1,-2,-2,-3,-2,0,-2,-3
61920121853,-1,-1,-2,1,0,-2,-2,0
61920121853,-13,-3,-2,-5,0,-1,-1,-4
61920134626,4,0,0,-3,-1,-2,-2,1
61920134626,2,-3,-2,0,1,-1,0,4
61920141429,4,-1,3,-4,-2,0,-1,2
61920141429,9,3,-1,-1,0,-2,-2,0
61920157113,-11,-3,-3,-1,0,1,-2,-2
61920157113,-3,-5,-2,1,-2,-3,0,3
61920163893,3,1,-2,-3,-1,-1,-2,2
61920163893,-4,0,-1,-1,0,1,0,-2
61920180291,-2,-2,-1,1,-2,-2,-1,-1
61920180291,2,1,-1,-2,-1,-2,-2,0
61920181898,-3,-3,0,-1,1,-2,0,-1
61920181898,3,-4,-1,2,0,-1,-1,-1
61920194623,-8,-1,-2,1,-2,-3,1,-2
61920194623,2,-3,-1,-1,0,-1,-2,-2
61920201398,-4,-1,-2,0,-1,1,0,-1
61920201398,4,0,0,1,-1,-1,0,1
61920217130,17,2,0,-4,0,-1,-1,0
61920217130,-18,-4,-2,0,-1,0,-1,-2
61920223950,1,1,-2,-2,-1,-1,0,-1
61920223950,-3,-2,-1,0,-4,0,-1,1
61920240708,-3,-7,-1,0,1,-2,-1,0
61920240708,5,2,1,2,-1,0,-1,-3
61920242367,0,0,-1,6,-3,0,-1,2
61920242367,-2,1,0,-2,-1,-2,0,1
61920254620,-6,0,-3,2,-1,0,-2,-2
61920254620,4,-1,-2,-2,0,0,-1,6
61920261413,-8,-3,-2,-1,-2,-1,-3,-16
61920261413,1,-3,-1,1,0,-2,-2,0
61920277098,-3,0,-2,-5,0,-2,-4,-2
61920277098,-1,-2,-2,-2,-1,-1,2,2
61920283898,7,0,-2,3,0,0,-2,1
61920283898,12,2,0,1,0,-2,-3,-2
61920300072,-44,-7,-3,-1,1,0,0,-5
61920300072,5,-1,1,1,-2,0,-1,-2
61920306456,-4,-2,-3,-4,-3,-2,1,1
61920306456,-3,-1,0,-4,-2,0,0,-1
61920314659,10,3,-2,0,-1,0,0,0
61920314659,2,2,-1,1,-1,-4,-3,-4
61920321443,-7,-3,-1,-4,1,-1,2,0
61920321443,-6,-2,-2,1,-1,-1,-2,-3
61920337111,7,0,-1,-3,-4,-2,0,1
61920337111,-3,0,-3,-1,1,-1,-1,-1
61920344073,15,0,-1,-1,0,-3,-3,5
61920344073,6,0,-2,-3,1,-1,-1,0
61920367742,-6,-2,-3,0,1,0,1,-3
61920367742,2,-1,0,3,-2,-1,-1,1
61920369500,-4,1,0,-3,-1,-2,0,-1
61920369500,4,0,-2,0,-2,-1,1,0
61920375395,6,-2,-1,-2,-3,-1,1,-2
61920375395,-1,0,-1,-4,-2,1,0,-1
61920388886,-1,-3,0,-3,0,1,0,0
61920388886,-12,-3,1,-2,-4,-2,-1,-2
61920397151,5,1,-1,-1,-1,-2,1,5
61920397151,3,-1,0,0,-2,-1,0,-2
61920403887,-8,0,-2,-1,-1,-1,-1,-1
61920403887,-7,-3,-2,-5,-1,0,0,-5
61920420440,3,1,0,0,1,-1,-1,0
61920420440,3,-1,0,-2,-1,-3,-2,-1
61920421849,3,-1,-1,-2,-3,-2,0,3
61920421849,-5,0,-1,1,1,0,-2,-1
61920433943,21,1,0,-4,-1,-1,0,1
61920433943,-39,-3,-5,-5,-1,-1,-3,-6
61920443092,-2,-5,-1,0,-1,1,-1,0
61920443092,-1,-1,-1,-3,-2,0,2,1
61920457142,5,1,1,0,-3,-1,-2,2
61920457142,5,-2,0,-1,-1,-1,-2,-3
61920463888,-4,0,0,-2,-1,0,0,0
61920463888,-2,0,-1,0,-1,-2,-2,-4
61920480296,0,2,0,0,-1,0,-2,-1
61920480296,2,0,-1,1,0,-1,0,-1
61920481848,-6,-6,-4,0,-2,-2,0,-4
61920481848,1,-1,-2,1,2,-4,-1,1
61920493971,-4,-2,2,2,0,-2,-1,0
61920493971,6,-1,-1,-1,-3,0,1,-2
61920502879,19,1,-1,-1,-1,-2,-1,1
61920502879,-44,-3,0,-2,0,-2,-1,-5
61920517121,-4,-3,-2,-1,-1,-2,-1,-2
61920517121,6,0,0,0,-1,0,0,4
61920523912,2,3,0,1,-2,0,-2,-2
61920523912,7,-2,-2,-2,-1,0,-1,0
61920540252,-4,-2,-1,-4,-2,0,0,0
61920540252,2,0,2,-3,0,2,0,0
61920541862,2,2,-1,3,-1,-2,-2,-3
61920541862,3,-1,-1,0,-2,-1,1,2
61920553991,-10,-7,-3,1,-4,-1,0,-3
61920553991,7,-1,-1,-1,0,0,-2,-1
61920562875,-6,-1,-2,0,0,0,-2,-8
61920562875,7,3,1,3,-1,-1,1,1
61920578184,0,-1,-3,-3,-1,-1,-2,-1
61920578184,0,-2,1,0,-3,0,1,2
61920583925,3,1,-2,1,-3,-2,-7,-9
61920583925,-20,-3,-2,-6,-1,-1,0,5
61920600270,2,1,-3,-2,-2,-2,-3,-6
61920600270,1,-2,-1,1,-1,-2,-1,-6
61920601855,-5,-2,-1,1,0,-2,2,10
61920601855,14,-2,0,-2,-1,-1,-2,-4
61920622141,-2,1,-1,0,0,-1,-2,-1
61920622141,-5,-2,-2,-2,-1,-2,0,-1
61920622860,1,-1,1,-3,0,0,-2,-1
61920622860,2,-2,-3,3,-1,-2,0,1
61920645093,-2,1,0,-2,0,2,2,0
61920645093,-3,-3,-2,-3,-1,1,-2,-1
61920645947,-6,-1,-1,-3,-3,0,0,-1
61920645947,-1,-4,-2,-5,-2,1,-1,0
61920659608,0,0,-1,1,-1,-2,-5,-5
61920659608,4,0,-2,0,0,-2,-1,-3
61920660360,-5,-1,-1,-6,-1,-2,1,0
61920660360,1,0,1,0,-1,-1,-1,-2
61920682034,3,-1,0,0,-1,-2,-2,1
61920682034,0,-2,-1,-2,-1,-1,-3,2
61920682851,-3,-1,-2,1,-3,-1,-1,-4
61920682851,5,2,-2,-4,-2,-1,-3,-2
61920697907,1,0,-1,2,0,1,1,3
61920697907,11,1,-2,-4,0,-2,-3,1
61920703919,-36,-6,-2,-1,-1,-1,-1,-3
61920703919,4,-4,0,-1,-1,-1,-1,-7
61920718939,-6,-3,-1,0,-2,-1,1,3
61920718939,5,0,-1,1,-3,-2,1,0
61920726413,8,0,-2,2,-1,-3,2,0
61920726413,-2,2,-2,0,0,0,0,-1
61920742116,-1,0,-2,-1,-1,-1,-2,-1
61920742116,-8,-1,-1,-1,-2,-1,-2,-4
61920742848,5,-2,0,-3,-1,1,-1,-3
61920742848,1,-1,1,0,-1,0,1,0
61920757928,-1,-1,0,-2,0,0,-1,-2
61920757928,-7,-7,-5,0,-2,-1,-1,-1
61920763926,2,-1,-4,-3,-2,-1,-1,0
61920763926,6,3,0,1,-1,-2,-3,-2
61920779723,-1,-1,-1,-3,-2,0,0,-4
61920779723,-3,1,-1,2,-1,-1,2,-1
61920786399,9,2,-1,-3,-1,0,1,3
61920786399,2,-1,0,-1,-1,0,1,-1
61920801895,-8,-2,0,-1,-1,-1,0,-3
61920801895,-1,0,0,1,1,-1,0,0
61920808909,2,1,0,-2,1,0,-3,-1
