timestamp,emg1,emg2,emg3,emg4,emg5,emg6,emg7,emg8
138380614982,-2,-2,-1,48,-1,-1,1,-5
138380614982,3,0,0,-12,0,-1,1,-4
138380615743,0,2,0,-11,0,-3,1,-5
138380615743,1,-1,-2,11,1,2,3,2
138380618761,0,4,-3,-19,0,2,-3,-7
138380618761,-3,3,-1,-35,1,0,1,0
138380619484,0,0,-2,-31,0,5,-3,1
138380619484,-1,1,-2,-21,-2,-4,-4,1
138380627151,1,-1,-1,2,-1,-2,2,3
138380627151,0,-6,-6,-22,1,-1,0,-4
138380633095,-1,-5,2,26,-2,0,-4,-2
138380633095,-5,-4,-14,21,2,1,-3,1
138380649627,-1,-5,-12,34,3,0,1,-1
138380649627,-1,0,0,-18,-1,1,-3,-1
138380655567,-1,1,-6,-24,0,-4,3,-1
138380655567,2,8,6,-12,0,1,-2,1
138380664575,2,-3,9,-37,-4,-1,-1,-1
138380664575,-5,-2,13,18,-6,-2,4,1
138380678134,-3,0,4,15,-1,-1,0,2
138380678134,-3,3,3,16,-7,0,0,-4
138380687146,1,1,-7,11,-4,1,0,0
138380687146,-2,-1,-8,1,-4,1,0,-2
138380693125,-4,-4,-3,-8,3,0,-6,-3
138380693125,1,-4,0,-30,2,-3,0,-3
138380709571,-2,-3,7,-19,1,-1,0,2
138380709571,0,-4,12,-5,-1,-1,-3,-1
138380715676,-3,0,11,8,-3,1,6,-1
138380715676,0,-3,9,-10,-3,5,1,-1
138380724638,-3,0,4,-23,-1,-5,-3,-2
138380724638,-3,0,4,2,6,-5,0,-5
138380738141,-5,-4,-1,-19,0,0,3,1
138380738141,-8,-1,5,-1,1,-3,-1,-7
138380747081,-3,-1,8,-7,2,4,-1,-3
138380747081,-3,-3,-10,13,-2,4,-1,2
138380753087,7,-3,-15,12,-2,0,-4,1
138380753087,3,-8,-13,15,-1,-7,-1,0
138380769616,-1,-2,-15,21,-2,1,-5,3
138380769616,4,3,-21,28,-4,0,1,-1
138380775643,-2,1,-10,12,-5,2,-1,-3
138380775643,1,2,-10,3,-4,2,-5,-5
138380784591,2,2,-8,9,-5,-1,1,0
138380784591,0,-1,-4,15,-2,-4,-3,2
138380798142,1,0,-1,10,2,1,1,-5
138380798142,-3,-2,-5,3,-1,1,2,-3
138380807078,-6,-1,-10,-7,-3,-1,2,-6
138380807078,2,6,-4,0,-3,-3,-4,2
138380820625,-1,-7,9,-8,-2,-6,2,-4
138380820625,-4,-1,3,-3,0,-2,-1,-1
138380829594,0,-6,3,-16,4,1,-1,2
138380829594,-6,-1,11,1,2,1,-1,-2
138380835596,3,1,-3,-5,-2,-3,1,0
138380835596,3,0,2,-7,0,-3,1,-1
138380844641,-1,-1,1,-4,-4,-3,3,0
138380844641,3,-1,-1,-2,-2,1,0,-2
138380858182,1,0,-1,0,-3,1,1,-1
138380858182,-4,-5,1,-11,-3,1,-5,-3
138380867090,1,-2,-5,3,-1,1,1,2
138380867090,-1,-4,-5,3,-1,-5,0,-3
138380880652,-2,-4,-5,12,0,-2,0,-8
138380880652,0,-8,-1,10,0,-1,-1,2
138380889661,-2,0,3,-5,0,-3,-4,1
138380889661,-5,-4,-6,-2,-4,-1,3,1
138380895648,-6,2,1,0,1,-4,0,3
138380895648,0,3,-3,1,0,-2,1,2
138380904636,-2,3,1,-2,0,-3,-2,-2
138380904636,-2,-1,-3,4,1,-1,-2,1
138380918204,-4,-5,-2,5,0,1,-5,-1
138380918204,2,-4,-5,-4,-5,1,-2,-2
138380927129,-2,4,1,0,1,-2,-1,-3
138380927129,1,0,-1,10,-7,1,-1,2
138380940661,-4,-3,-2,0,-2,0,-3,1
138380940661,-6,-4,-4,5,-3,-2,0,-6
138380949626,-1,-8,9,-4,0,-1,-2,-2
138380949626,-6,-2,14,-1,2,-3,-2,-3
138380955672,-1,1,-3,-5,-5,-2,-2,6
138380955672,1,2,-15,3,-4,1,0,-8
138380964620,-2,-1,-5,1,-3,-2,-3,4
138380964620,0,-6,25,-2,-2,5,-4,7
138380978145,0,-2,9,0,1,-2,-6,7
138380978145,-5,1,0,-3,0,-1,1,6
138380987125,1,2,-18,-2,1,-1,-4,-3
138380987125,-1,-1,-19,-9,2,-1,-1,-5
138381000688,-2,-1,-27,9,10,-1,-2,-5
138381000688,-3,-2,-4,10,-6,2,-2,-6
138381009643,0,-3,8,9,-4,3,2,-3
138381009643,0,-2,13,-6,-21,-4,1,-2
138381015729,1,-1,20,-19,-12,0,0,-5
138381015729,-4,0,17,-18,-1,-3,-5,9
138381024690,-5,-3,12,-16,7,-3,1,6
138381024690,5,4,-9,0,7,-1,-1,-1
138381038190,-1,-4,-11,18,0,-2,1,-5
138381038190,7,-7,-6,12,4,3,2,-1
138381047202,0,3,-15,30,-1,0,-1,-5
138381047202,0,2,-10,25,-1,-2,0,-4
138381060613,3,2,-16,31,-21,-3,-5,-3
138381060613,4,2,-10,48,-24,0,-1,2
138381069634,0,-2,-14,8,-19,0,-2,-1
138381069634,-1,-3,-33,-10,-3,2,3,-4
138381075651,-2,3,-54,16,1,2,1,-2
138381075651,3,-1,-113,80,-19,-4,1,1
138381098880,-1,-1,-12,92,-16,-4,-2,-1
138381098880,-2,-5,93,29,56,4,4,6
138381099590,-2,-4,43,-57,109,-1,0,-1
138381099590,-4,-4,117,-33,-4,4,-2,2
138381107244,0,-2,-108,-123,-44,-2,2,-1
138381107244,4,1,-128,-104,-70,-2,2,4
138381120656,-3,1,81,44,-44,2,-2,18
138381120656,0,3,92,90,13,-1,1,34
138381129677,-2,2,127,95,3,-1,1,45
138381129677,-2,-2,120,82,3,-2,-3,26
138381135589,-1,1,-31,-11,-3,-4,2,-29
138381135589,-5,4,-66,-52,0,-6,-10,-105
138381150689,2,5,-71,0,4,1,-7,-96
138381150689,-2,-1,-128,-29,4,0,-10,-91
138381158176,2,2,-65,3,-10,1,-5,-40
138381158176,0,3,80,-16,-7,-1,4,7
138381174674,-3,-3,88,-26,7,-4,2,26
138381174674,-2,0,0,7,1,-3,-1,43
138381180617,-1,3,-44,-5,-20,-3,3,31
138381180617,-2,-3,-14,-10,0,-3,-4,19
138381189660,0,-1,-8,-11,10,-5,3,12
138381189660,2,2,29,15,-5,3,-3,0
138381195645,2,1,-7,17,-16,1,-1,0
138381195645,2,0,-58,-17,27,-1,-2,6
138381210622,5,-2,16,12,15,2,3,13
138381210622,-4,2,1,6,-13,-5,-7,12
138381218151,-3,2,9,-30,-47,-4,-10,-44
138381218151,-2,-2,-5,-8,-91,-2,-5,-27
138381227092,-1,-9,-11,85,97,1,-1,-8
138381227092,1,-2,23,-83,35,6,5,10
138381240600,2,-3,5,16,-68,10,4,25
138381240600,0,1,-5,-63,-64,-3,0,10
138381249657,-2,-2,-21,-90,-79,-10,1,-13
138381249657,2,-2,-5,57,11,-16,1,-4
138381255693,2,-9,12,-40,17,-4,-4,4
138381255693,0,-3,-23,24,14,12,0,0
138381270672,-3,-2,-18,113,5,3,-1,0
138381270672,-3,2,4,99,11,-1,-3,-4
138381278145,1,0,6,-33,4,-9,1,-4
138381278145,-1,2,-4,-88,12,-6,1,-8
138381287081,-5,0,-5,-120,2,1,2,-2
138381287081,-5,-1,-9,55,-22,-2,-2,-4
138381300601,0,2,0,42,-3,-3,2,3
138381300601,-2,2,-3,20,44,-2,-1,12
138381309604,1,1,8,-11,-14,5,-2,6
138381309604,0,-2,2,-14,-11,3,-1,-3
138381315686,-7,-6,20,-54,15,3,-3,-2
138381315686,-2,-4,6,-79,15,-4,1,0
138381330589,2,-3,0,-60,-18,-1,-4,-8
138381330589,-2,0,-3,47,-18,7,0,-3
138381338068,0,0,-1,91,18,1,-2,12
138381338068,1,-4,-12,40,0,4,-6,3
138381347130,-1,0,-5,50,-14,-2,0,6
138381347130,2,2,8,-21,-3,1,2,-5
138381360684,-3,2,10,-51,0,-3,-6,-15
138381360684,1,-1,0,-51,5,-3,1,-4
138381369624,1,-2,-3,-32,8,4,-3,-4
138381369624,0,1,-3,-31,-1,-5,-2,0
138381375572,-1,-4,-2,6,-2,0,2,6
138381375572,1,7,-4,54,4,-4,0,4
138381390611,-5,2,-4,-15,4,-6,-3,-14
138381390611,0,1,-3,6,-5,-4,-2,-1
138381398051,-1,-4,-7,-95,-4,-7,-7,-52
138381398051,-2,-2,1,24,5,-1,0,20
138381407100,-6,-3,-4,-86,-4,-4,-4,-41
138381407100,-4,-2,2,-17,-7,5,2,3
138381420658,5,3,0,-24,7,-5,1,-4
138381420658,-3,-4,-1,-61,5,-5,-1,-21
138381429572,-4,8,-7,-120,-6,-17,-13,-103
138381429572,-1,0,4,64,-9,13,8,81
138381435620,-3,1,3,-100,5,-18,-14,-106
138381435620,0,-2,-1,-69,39,-10,-3,-61
138381450681,2,-4,2,-6,26,-4,-3,-13
138381450681,-3,-2,-6,-118,17,-12,-12,-59
138381458190,-1,-2,-1,32,-4,10,6,39
138381458190,-3,0,-7,14,-25,-4,0,2
138381467209,3,-2,-11,6,-15,-5,-6,-5
138381467209,-5,1,-8,-12,-14,-1,-1,-23
138381480673,-1,0,2,41,-12,0,5,14
138381480673,-1,-6,-10,1,-6,-2,-1,-24
138381489664,-2,4,-2,20,-31,0,0,39
138381489664,-3,-4,-2,-74,-12,-4,-3,-16
138381495573,4,0,8,-58,-4,-2,-6,1
138381495573,5,3,13,-77,-28,-1,0,8
138381510669,-1,-5,9,-33,7,7,5,6
138381510669,-1,3,10,6,91,-6,-6,-58
138381527027,-3,4,11,55,96,-1,0,-29
138381527027,-2,-4,8,64,72,3,-4,-33
138381528596,-2,5,-14,29,47,-10,-6,-101
138381528596,-1,1,-25,-30,-68,-4,-2,-38
138381540614,-4,-4,-33,10,-53,-7,-4,-32
138381540614,-1,-3,-25,28,-34,-3,-1,38
138381549663,4,-1,9,72,50,-2,-1,-37
138381549663,-2,-4,24,-99,61,-4,3,63
138381555593,2,7,11,96,-68,7,-3,80
138381555593,0,1,38,-85,21,7,3,34
138381570679,-5,-2,79,-106,77,1,-3,25
138381570679,-2,-8,-47,-14,-17,-4,0,-38
138381587020,2,-12,-92,66,-72,-11,-1,22
138381587020,0,-7,-126,127,-128,-1,-3,0
138381588590,-2,-6,-67,43,-128,17,2,84
138381588590,-1,9,81,-43,-114,3,-6,21
138381600620,-1,14,127,69,-100,-6,7,-100
138381600620,0,-4,101,109,93,-16,-2,-46
138381609694,-6,-3,56,127,119,-6,-3,-5
138381609694,-2,-5,-19,125,81,2,-2,26
138381623839,-2,1,-55,49,-81,7,-1,25
138381623839,0,3,-23,-78,-97,-5,-5,-29
138381630635,-1,-9,-24,-125,-55,5,5,30
138381630635,-2,-1,-12,-128,-128,2,5,-4
138381646954,-3,-6,-10,56,-47,3,-2,4
138381646954,-2,3,9,86,90,1,-5,0
138381648606,5,6,2,91,83,-2,-3,12
138381648606,6,-3,-5,89,127,-11,-2,-27
138381660685,-1,0,12,-25,127,1,0,-7
138381660685,-2,1,-1,75,105,9,-2,6
138381669634,1,5,-10,-26,-68,-1,-5,1
138381669634,-5,2,-18,-56,-101,-2,-2,-26
138381683881,0,-9,2,-128,-99,-1,5,25
138381683881,-1,-4,2,-128,-128,-6,1,12
138381690672,-3,0,-10,-40,-99,-1,-1,-5
138381690672,-1,-4,4,-20,-56,1,-2,-8
138381707015,-2,0,10,-68,19,3,-4,7
138381707015,-2,2,1,9,5,1,-3,-6
138381708645,-3,-2,-6,67,-23,1,3,-1
138381708645,-2,-3,-4,11,11,-1,-3,-10
138381720672,3,6,-13,69,37,0,1,6
138381720672,-1,5,-4,44,-9,2,-1,-5
138381729674,2,1,0,35,-39,1,0,11
138381729674,2,-3,7,49,2,-3,2,3
138381743830,-4,-2,-2,27,33,1,0,0
138381743830,-4,-1,7,-26,-11,1,2,-5
138381750629,-1,-2,0,-33,-2,1,1,-5
138381750629,3,-2,3,7,13,-3,-2,-9
138381767063,-1,-6,5,-39,25,2,-3,-3
138381767063,1,-1,-3,-5,-15,0,3,13
138381768575,-1,-1,-13,65,-8,-1,2,11
138381768575,1,1,-8,53,5,0,-1,-1
138381780715,-3,-1,-1,14,7,-7,-1,-2
138381780715,4,2,0,28,-8,1,-5,6
138381789664,1,-5,-6,55,-6,-3,4,9
138381789664,-1,1,3,36,-3,-2,2,4
138381803881,-2,1,2,1,8,-3,-1,6
138381803881,-3,-5,0,-13,6,-3,-1,-12
138381810683,-1,2,0,-13,-6,-1,-1,-2
138381810683,3,-2,2,-24,-6,1,-3,-6
138381827015,-2,-2,5,-38,6,1,1,0
138381827015,0,-4,3,-27,-3,-4,2,-4
138381828644,0,-1,4,-23,-8,1,-4,-6
138381828644,-2,-1,-5,-9,4,0,-1,-6
138381840639,-2,-4,-10,18,3,2,0,3
138381840639,-2,1,-6,20,-1,-2,2,1
138381849686,3,0,-9,39,0,3,0,3
138381849686,-5,0,-3,12,4,1,0,-3
138381863879,1,-4,2,-17,4,-4,-6,-6
138381863879,3,1,-7,-10,-6,1,1,3
138381870676,4,2,-14,-7,0,-2,2,-7
138381870676,2,-9,-1,12,-2,-2,0,-3
138381886989,-2,-2,7,26,1,-1,1,9
138381886989,0,0,5,34,-2,-2,-2,7
138381888631,1,0,16,10,-1,-1,0,-7
138381888631,-3,1,10,2,-2,-4,4,2
138381900659,1,-4,5,17,0,-3,-2,-1
138381900659,2,-2,7,0,-3,-6,-2,-3
138381909606,-2,-3,-3,2,0,0,-4,-3
138381909606,1,1,7,10,-3,3,-1,1
138381923771,0,-3,4,-16,0,0,-5,-3
138381923771,-1,1,-9,-18,1,4,1,-2
138381930681,-3,-7,9,-11,2,-4,0,-2
138381930681,-3,-5,3,5,-1,-2,-4,-7
138381946939,-3,-1,-4,6,1,1,-1,-4
138381946939,0,-1,5,-5,-2,0,-2,-5
138381948548,-7,-2,7,-11,3,-3,0,-1
138381948548,-1,-3,-7,-17,0,1,-1,-3
138381960629,-5,-7,0,-10,5,-4,-2,-1
138381960629,-5,-6,11,-11,1,-2,-3,0
138381969621,-2,2,4,-11,-2,-1,-4,-2
138381969621,-2,-2,0,-3,4,-4,-2,-2
138381983845,-2,-1,3,-1,-6,-2,0,5
138381983845,-2,0,-9,15,-2,1,-2,2
138381990582,4,0,-15,2,-1,-1,1,-1
138381990582,-4,0,-13,15,-3,-1,-2,3
138382007011,1,-3,-10,6,-2,0,1,1
138382007011,-4,-1,-4,8,0,-2,1,1
138382008594,0,-2,-4,-1,-1,0,2,1
138382008594,0,3,0,6,3,-2,1,-3
138382029495,-1,1,-3,-8,-2,2,1,3
138382029495,-2,4,-2,-5,-9,-3,2,0
138382031071,-2,1,0,0,-1,-2,0,0
138382031071,3,0,5,-1,0,-2,0,-4
138382043865,0,-3,4,-5,2,-4,-2,5
138382043865,4,0,1,-10,-2,1,-3,0
138382050667,1,0,-3,-2,0,-1,0,-2
138382050667,0,-3,0,-1,0,-2,-3,-2
138382066436,1,3,1,1,-3,2,-2,-6
138382066436,-1,0,-7,-7,-3,2,-1,-4
138382073201,4,3,-4,-1,-2,-2,-1,-3
138382073201,1,-2,2,7,1,-2,-1,2
138382080668,1,1,7,1,0,-2,2,-2
138382080668,1,-3,-1,-1,-3,2,2,3
138382089620,-1,3,-15,-7,-1,1,-3,2
138382089620,1,-3,-7,16,-2,0,-3,-1
138382103867,4,3,-9,15,0,-2,0,-1
138382103867,-3,-4,-6,8,3,-3,1,-3
138382110694,-1,-2,-6,-2,-4,-2,0,0
138382110694,3,0,-8,1,-2,3,-1,2
138382126367,0,3,-4,0,-1,2,3,-3
138382126367,-2,-1,5,-1,-1,1,-2,1
138382133185,-3,-4,0,-4,0,-1,1,0
138382133185,-5,-1,-1,-6,-4,-4,4,2
138382149503,-4,1,2,1,-2,3,-4,0
138382149503,1,0,-1,7,0,2,-1,0
138382151091,0,0,5,-1,-1,0,-4,-5
138382151091,1,2,-9,2,-4,-4,2,4
138382163639,-2,-3,-5,-11,1,-6,0,-4
138382163639,-3,-3,-12,2,-3,-6,-2,3
138382172131,-2,1,9,5,0,-1,-1,-1
138382172131,-4,-3,18,6,-2,1,-3,-2
138382186316,0,-1,-8,10,1,-3,2,4
138382186316,-3,-5,-1,0,3,2,-2,-1
138382193231,3,2,-12,-3,-4,-4,1,4
138382193231,-4,-2,-8,-1,-4,1,-3,3
138382209478,-5,2,0,8,-3,0,-4,1
138382209478,-5,1,18,7,-3,2,-1,-1
138382211108,-5,-3,-5,-2,3,-1,0,-8
138382211108,-1,1,-7,-12,6,-4,-3,1
138382223870,1,-3,-14,0,-1,3,-1,-2
138382223870,0,-2,-11,1,-3,-1,2,-2
138382230727,-4,-6,6,6,-10,-2,-1,-4
138382230727,4,0,2,1,-9,-1,-3,-6
138382246369,0,-5,3,11,-3,0,1,2
138382246369,1,-3,12,-5,8,-6,-4,1
138382253165,-4,-4,20,1,17,-1,1,3
138382253165,-6,0,-4,3,32,-1,1,-4
138382269556,-3,2,9,-21,-44,-9,2,3
138382269556,-3,1,-7,-7,-10,-1,3,2
138382271114,3,2,-7,2,-15,-2,0,2
138382271114,-5,-3,-20,13,-3,2,2,-2
138382283874,1,1,-6,18,10,-1,1,0
138382283874,-1,-1,-8,10,5,-5,0,-4
138382290567,-3,2,-5,-5,-5,-3,-2,-3
138382290567,2,-2,5,9,-6,0,-5,-4
138382306409,-2,-5,-21,17,17,0,1,-1
138382306409,0,2,-17,15,-5,1,-4,-1
138382313172,-1,-5,-6,0,-20,-2,0,-5
138382313172,1,1,-5,-27,-25,-1,2,2
138382329508,-4,-4,11,-53,-5,-3,-1,-4
138382329508,-2,-3,9,-44,-2,-1,0,0
138382331091,2,-3,13,-31,8,-2,-6,2
138382331091,-4,1,9,6,0,2,-6,-3
138382343824,-5,0,11,34,7,0,0,-3
138382343824,1,1,2,91,1,-5,1,-1
138382350670,-9,-4,18,121,11,-3,-3,-1
138382350670,1,-1,22,127,0,0,0,-2
138382366408,1,-2,102,127,7,0,-1,-3
138382366408,1,4,-98,1,-5,0,1,-1
138382373195,2,2,-111,-104,-2,0,-3,-4
138382373195,-2,0,-95,-128,-3,-4,-2,2
138382389527,1,0,-35,-128,-1,1,0,-2
138382389527,-1,2,60,-118,7,-2,-3,-1
138382391106,-2,-5,39,-97,7,3,2,-5
138382391106,-3,-2,41,-113,2,2,5,2
138382403149,2,-7,-4,-99,-3,-4,-2,0
138382403149,-1,-1,24,-91,-12,-1,-2,0
138382412148,1,-2,-7,41,3,2,0,3
138382412148,-3,1,-3,98,-3,0,-4,1
138382426383,-1,-2,-19,126,0,0,-3,0
138382426383,2,1,-1,65,6,4,-1,-4
138382433141,3,3,30,-30,-3,-2,1,-2
138382433141,2,-5,19,-87,-2,-3,0,-1
138382449487,-3,0,-11,-124,0,-2,-2,5
138382449487,-2,-4,3,-50,2,-4,3,8
138382451098,1,-1,-3,3,-2,-3,3,5
138382451098,-3,-3,6,36,-1,1,-2,4
138382463206,0,-3,-25,85,-1,3,-1,0
138382463206,-1,-3,-23,84,-1,-2,-1,-7
138382472138,-1,3,-4,109,0,-1,-1,2
138382472138,2,3,-10,111,2,2,4,3
138382494522,-1,-1,7,53,-2,2,1,7
138382494522,4,1,15,25,-2,-1,3,3
138382496109,-3,0,-6,99,0,-2,0,12
138382496109,1,-5,-45,61,-7,-4,-1,-2
138382509517,1,6,-31,114,-8,-3,-3,-5
138382509517,-1,2,7,-13,0,-1,-4,-15
138382511088,-5,4,-5,-76,3,0,1,-9
138382511088,-2,-3,24,-98,14,0,1,-1
138382523191,-2,0,11,-117,11,-1,2,13
138382523191,-5,-7,5,-77,-4,1,-2,5
138382532195,6,3,5,-16,-7,5,-3,5
138382532195,1,1,-5,16,-15,0,-6,-7
138382546363,3,0,-11,-6,-6,-3,3,-13
138382546363,-4,-4,-2,-7,0,-1,-2,-7
138382553231,-5,-5,-2,-1,1,-2,5,-2
138382553231,-2,-3,-2,-18,1,-4,2,-6
138382569485,3,2,-2,-22,-2,-2,-4,-18
138382569485,5,5,-5,29,-7,-2,-4,-2
138382571122,-1,2,5,1,-5,3,0,-2
138382571122,2,1,4,-8,2,-1,-4,-11
138382583171,-2,4,2,-16,-2,-3,-5,-7
138382583171,1,-1,-9,6,-2,-4,-1,-18
138382592157,-5,1,-2,-18,-3,-4,-7,-14
138382592157,3,2,-6,-44,-4,-9,-7,-104
138382606378,-3,2,-5,-11,-2,-2,-1,-42
138382606378,-1,-1,-9,-6,-2,-3,-5,-40
138382613200,3,-1,-7,-21,-6,-1,-5,-23
138382613200,0,4,-7,-22,-3,-5,-4,-39
138382629553,2,2,-13,-29,-2,-5,-13,-55
138382629553,-1,3,-7,-36,-4,-13,-14,-100
138382631158,2,-2,0,-23,-3,-4,-6,-34
138382631158,-2,3,7,-11,-7,-4,-4,-46
138382643160,-2,7,-11,-46,-2,-8,-19,-111
138382643160,-4,1,-3,-20,1,-9,-7,-74
138382652131,1,-5,-7,-33,-4,-11,-6,-71
138382652131,-2,-5,4,32,4,9,10,94
138382666350,-4,-1,-15,-33,-4,-11,-9,-72
138382666350,1,2,-14,-25,-8,-9,-14,-96
138382673154,-1,5,-14,-54,-8,-18,-25,-128
138382673154,-3,2,-15,-54,-9,-21,-21,-128
138382689491,-2,1,-8,-36,-12,-14,-13,-91
138382689491,-4,6,-10,-46,-9,-17,-18,-128
138382691101,4,2,-13,-44,-6,-15,-19,-128
138382691101,3,7,0,-33,-4,-11,-19,-128
138382703204,-2,-2,-5,-27,-6,-10,-20,-128
138382703204,-1,2,-6,-26,-8,-9,-18,-119
138382712224,-5,1,-2,-3,2,-3,-5,-15
138382712224,-6,0,-5,-41,-11,-14,-21,-128
138382726839,-1,-4,-5,-12,-3,-2,-5,-84
138382726839,1,-1,1,12,-2,2,1,33
138382733089,-3,-2,3,33,7,10,15,87
138382733089,-2,-4,5,30,2,11,18,114
138382749537,-4,-1,2,-21,-1,-6,-5,-60
138382749537,2,-2,-3,-33,-3,-14,-17,-107
138382751118,-6,-2,2,29,6,8,6,51
138382751118,4,-2,-4,-32,-4,-14,-12,-100
138382763233,0,1,-14,-13,-1,-6,-8,-48
138382763233,1,-4,-12,16,1,-1,2,57
138382772155,0,-6,-12,27,-5,2,5,36
138382772155,-5,1,-13,-22,-3,-6,-10,-45
138382786345,0,-3,2,79,1,13,12,127
138382786345,-2,4,20,8,-11,-10,-11,-122
138382793099,1,4,34,77,-7,3,-1,-97
138382793099,-3,2,32,-87,-6,1,-2,-76
138382809523,-1,0,35,-128,35,-3,-8,-32
138382809523,2,-9,-13,-25,9,7,9,112
138382811140,2,-6,-40,-14,-13,-11,-5,-25
138382811140,1,2,-36,61,-16,-9,-8,-27
138382823161,-3,-4,-17,100,-21,8,15,107
138382823161,-6,-4,-19,-104,24,-8,-4,-37
138382832190,-3,1,-17,40,-8,-4,-7,-9
138382832190,6,-3,-22,125,-10,1,-1,44
138382846425,2,-2,2,50,-6,2,5,49
138382846425,-2,-4,14,-30,7,-2,2,11
138382853167,-2,3,27,-23,-11,0,-2,-8
138382853167,-2,0,27,-125,13,-2,0,-2
138382869573,-5,-3,15,-80,14,-1,0,-35
138382869573,-2,-1,7,-24,-8,2,4,7
138382871171,5,1,-3,-66,-1,-6,-6,-18
138382871171,0,-3,-1,24,-4,5,8,71
138382883140,1,0,-15,-11,-12,-4,-7,-33
138382883140,0,0,-2,79,-13,3,0,30
138382892198,0,2,1,5,-9,-4,0,4
138382892198,-7,0,3,14,12,1,1,-8
138382906323,0,2,-2,-6,0,-3,2,-13
138382906323,-5,3,-4,35,-6,0,3,11
138382913154,-2,-8,-2,-32,8,-1,0,2
138382913154,-3,-4,0,-44,6,1,-3,3
138382929480,0,3,-11,-16,-1,-6,-4,-10
138382929480,-4,0,-4,32,-3,8,5,35
138382931057,0,3,-13,-26,1,-4,-5,-30
138382931057,-4,1,-10,20,3,2,1,-4
138382943130,-5,-3,-4,24,-2,1,3,10
138382943130,-3,0,0,67,-8,1,3,15
138382958190,-1,-1,3,50,-13,-4,-3,-9
138382958190,3,-1,12,58,-11,2,-2,13
138382966347,-1,0,5,32,-4,-1,2,5
138382966347,3,4,2,19,-4,1,0,4
138382973144,-5,-1,5,-24,2,-2,-4,-17
138382973144,-1,2,10,-4,2,-2,-4,8
138382988847,1,1,20,-2,1,-3,-3,-9
138382988847,-2,1,13,-2,0,0,-4,3
138383003846,0,1,-10,15,-7,3,-2,0
138383003846,1,-1,-18,35,-11,0,-1,1
138383004686,2,0,-38,47,-9,1,-1,3
138383004686,-3,0,-34,37,-8,1,1,14
138383012212,-1,3,-27,18,1,0,-3,-4
138383012212,-2,-3,-18,8,-1,0,-2,1
138383026402,3,1,-3,1,1,-5,-3,-3
138383026402,0,-4,17,-17,5,2,-1,5
138383033205,-2,0,35,-45,9,-4,-2,-15
138383033205,0,-2,19,-39,7,-3,1,-5
138383048962,-7,0,18,-31,4,-4,-1,3
138383048962,0,1,0,3,-2,-2,-4,0
138383055638,-3,-2,-15,0,-3,0,0,-7
138383055638,1,-3,-11,0,-6,5,0,1
138383063166,0,2,-8,15,-8,1,1,0
138383063166,2,1,-5,11,-3,0,2,1
138383072213,0,-4,2,-20,0,-6,-7,-5
138383072213,1,2,2,0,0,-3,-5,3
138383086366,-1,-2,0,7,-1,3,0,0
138383086366,2,-1,6,-19,0,3,2,-1
138383093121,0,-2,3,-12,3,-4,4,0
138383093121,-2,-1,6,-3,-1,-5,-1,-4
138383108892,-3,-3,1,-6,-3,2,-4,-2
138383108892,-2,-5,-2,5,0,0,-1,-1
138383115679,-1,-5,-11,4,-6,0,0,5
138383115679,4,-1,-9,7,-5,-2,2,-3
138383132071,-1,-3,-19,13,-7,0,2,3
138383132071,2,0,-5,2,-6,-4,-5,1
138383133656,0,-4,-1,-3,4,1,-4,-2
138383133656,-1,0,-5,-2,3,-4,-1,0
138383146346,-1,-4,2,-8,1,0,-3,3
138383146346,-1,2,2,3,2,-1,0,0
138383153208,1,2,2,-6,-4,0,-1,-7
138383153208,-1,-1,-3,-5,-3,-3,-5,-4
138383168852,0,2,2,-4,-1,0,-3,-4
138383168852,-1,-3,-12,4,-3,3,6,4
138383175698,-3,-2,-14,5,-3,-3,5,1
138383175698,0,1,-8,1,-5,-1,2,-2
138383192043,-2,3,1,-2,-1,-2,-5,-3
138383192043,4,-4,0,2,-1,-6,0,1
138383193682,-1,-3,1,-5,-4,1,0,2
138383193682,-2,-2,4,-2,2,1,0,4
138383206394,2,1,4,0,-2,1,-1,0
138383206394,2,6,0,-1,-4,0,-3,-4
138383213156,-3,0,-1,2,-3,0,3,5
138383213156,-3,1,-4,-3,1,0,3,1
138383228866,1,-2,0,1,-3,-2,-1,-1
138383228866,0,-1,-4,-3,-1,-1,-2,2
138383235665,0,-3,5,-5,2,0,-5,-3
138383235665,-4,0,-1,3,-1,-1,2,-1
138383252053,-3,-1,0,-2,0,-3,2,-1
138383252053,-1,-1,0,1,-2,-2,-1,0
138383253673,3,-2,-11,6,-4,-1,-2,3
138383253673,0,1,-1,3,-5,0,0,2
138383266438,2,2,-1,3,-1,-1,-1,-4
138383266438,2,-3,-4,1,-2,-2,0,3
138383273140,3,2,-5,0,-5,0,0,-5
138383273140,1,-2,-4,1,-4,4,1,3
138383288872,-2,1,-7,4,-3,-4,0,3
138383288872,1,-5,-8,8,0,1,0,-2
138383295653,0,1,-4,4,-4,0,0,-5
138383295653,-1,-6,-6,-1,-4,0,0,-1
138383311968,2,-5,-1,3,1,-1,3,-5
138383311968,-4,-3,2,0,0,-2,-2,-3
138383313553,0,-4,-3,2,1,-6,-1,-4
138383313553,-2,-1,1,1,-2,-4,3,1
138383326435,-2,-5,6,0,0,0,-5,-2
138383326435,-4,1,2,-3,-1,-6,-2,0
138383333192,1,4,1,-2,1,1,-3,3
138383333192,0,0,-1,2,-1,-3,-2,-5
138383348931,3,1,-3,-2,-2,2,-1,-2
138383348931,1,3,-12,6,-4,-1,2,1
138383355669,-4,0,-2,3,0,-2,-2,-1
138383355669,0,2,-4,4,-3,-1,1,2
138383372063,-5,-3,-2,2,1,-3,-6,2
138383372063,-4,-5,0,-3,0,-4,-2,-7
138383373624,0,-3,2,-2,1,-3,-5,-3
138383373624,2,-3,-3,1,-2,-2,-1,-6
138383386403,0,-6,-6,3,-1,-3,6,1
138383386403,0,4,-3,-5,-3,0,-3,0
138383393169,-1,-5,0,1,-1,0,2,0
138383393169,1,-5,0,-1,4,-3,-5,-1
138383408866,1,-4,-7,0,-3,-2,-3,-3
138383408866,1,-6,-4,4,1,1,1,0
138383415738,-3,1,-6,2,-4,0,-2,-1
138383415738,0,0,0,1,0,-1,-4,-3
138383431992,-4,-3,3,1,-1,-6,0,1
138383431992,-2,-3,-2,5,1,0,-6,-2
138383433591,0,-1,4,-7,1,-6,-2,-1
138383433591,-2,-2,-1,0,-2,1,2,-4
138383447248,-1,0,0,-4,1,1,-5,-2
138383447248,-3,-4,2,1,1,0,1,-2
138383453194,0,-5,-1,-8,0,-2,-4,-5
138383453194,-2,0,-3,-2,-1,-1,0,1
138383468219,5,0,-9,6,0,-2,3,2
138383468219,-3,-2,2,-7,-4,-1,-2,-4
138383475776,-1,-3,3,-2,-1,0,-4,-3
138383475776,-3,-1,0,-3,-1,-1,1,4
138383491392,-5,-2,-1,0,-2,0,0,-4
138383491392,-4,2,-1,0,1,2,-3,0
138383492112,2,1,-1,-3,3,0,2,-5
138383492112,-4,-3,-1,-5,-2,-5,-6,-1
138383507192,-3,3,-7,0,-2,0,-3,1
138383507192,3,-1,-6,5,-4,0,-3,6
138383513300,-2,-2,-3,-3,0,-1,-1,-2
138383513300,0,-4,-5,-3,2,-3,-1,-4
138383529663,1,-1,1,0,2,0,2,-2
138383529663,-1,1,4,-4,-1,-5,-3,-6
138383535692,0,-2,-1,-4,-2,1,-2,3
138383535692,1,-7,2,-6,0,3,2,1
138383558840,-2,-4,-1,-1,-5,2,0,2
138383558840,0,1,-1,3,1,-4,-2,-1
138383559633,-3,-5,-2,2,-5,1,0,0
138383559633,1,-2,-4,-1,-5,-3,-2,-2
138383567176,2,-1,-6,4,1,4,2,0
138383567176,2,-1,-3,1,-2,-1,-5,0
138383573147,-2,1,0,-3,0,-5,-4,-6
138383573147,-6,1,-4,3,-1,0,-4,0
138383588214,-2,-2,6,-2,1,-1,-5,-4
138383588214,0,-2,1,-4,-3,1,1,4
138383595715,-2,2,-5,-2,1,-2,-2,-2
138383595715,1,4,-6,0,-2,-2,-3,0
138383611378,2,-2,-1,0,-1,-2,-5,-5
138383611378,-4,3,-8,9,-4,-3,0,5
138383612091,1,-5,3,-3,-1,-3,-2,-3
138383612091,-1,2,-6,2,4,0,-3,-2
138383627175,4,-3,-3,0,-5,1,-2,2
138383627175,0,-5,0,-3,0,3,0,-6
138383633167,-4,0,-5,0,-1,0,-2,1
138383633167,-1,1,8,-6,-1,-3,-3,0
138383648196,0,2,0,-1,-1,-6,2,-6
138383648196,-3,-1,-5,-1,3,2,-1,0
138383655707,-6,0,8,-5,-1,-2,-3,0
138383655707,0,6,0,1,-2,-2,-4,-6
138383671307,-5,2,1,-6,-5,-4,-2,3
138383671307,-3,-4,4,-6,-1,-3,2,-5
138383672074,3,2,-9,9,0,-2,2,2
138383672074,1,-5,-8,6,1,0,-1,3
138383687124,-2,0,1,5,-1,0,-1,-1
138383687124,0,1,-4,2,-9,-1,2,5
138383693234,0,-4,3,-5,-2,3,-2,-3
138383693234,0,0,8,-4,2,-2,-1,-4
138383708237,-1,3,3,-5,-3,1,2,-3
138383708237,-1,2,0,-5,2,-2,-4,0
138383715717,-3,1,-8,8,-6,2,3,4
138383715717,-6,-5,-13,9,-6,2,0,3
138383731369,2,-3,-8,3,-7,3,-1,3
138383731369,-5,0,4,-3,-2,-2,0,-1
138383732134,2,2,-10,4,-5,-4,0,0
138383732134,2,-1,-4,5,-4,2,2,2
138383747217,-1,2,-9,11,-3,-2,-4,-1
138383747217,4,-4,-3,2,0,-2,-5,-4
138383753200,0,-3,-4,2,-1,-3,0,-5
138383753200,5,2,2,-2,1,-1,1,-3
138383768205,-2,-5,4,-6,3,-2,-4,-6
138383768205,1,-3,6,-8,0,-1,2,-1
138383775640,-2,-5,6,-5,1,-4,-3,-4
138383775640,2,3,4,-3,-2,-1,-1,3
138383791407,-3,1,-5,2,-1,0,-1,3
138383791407,-7,2,-4,1,-2,-2,-1,-2
138383792188,-4,-4,-4,-5,2,-3,-5,0
138383792188,-3,-1,0,-6,0,-3,-5,-6
138383807237,-1,-1,-2,-1,1,-4,-1,-1
138383807237,-3,0,2,-1,-2,-3,-2,-1
138383813191,-1,0,6,-3,0,-1,-1,3
138383813191,-9,-3,5,-5,-3,-3,-4,1
138383829643,3,0,-2,-3,-2,-1,-2,0
138383829643,0,0,-4,4,-5,-1,0,-3
138383835693,-7,-1,-1,3,-3,4,-2,2
138383835693,4,-1,-5,1,-4,1,2,7
138383851335,-4,-4,-5,2,-2,0,-4,-1
138383851335,0,-1,-3,3,-1,0,-1,-2
138383852159,-4,-3,5,-10,2,-1,-3,-6
138383852159,-4,1,-7,5,0,4,-1,2
138383867162,0,-3,6,-2,0,-4,0,-2
138383867162,-7,-4,-2,-5,4,-1,2,-3
138383873187,3,2,-3,-3,0,-1,-1,-4
138383873187,-3,-3,-2,-3,-1,4,-1,-1
138383888197,1,3,-3,-1,-2,1,-2,2
138383888197,-2,-7,-8,-2,1,-3,-4,1
138383895727,-2,-1,0,3,0,1,1,0
138383895727,-4,-3,2,-7,-1,-1,-1,2
138383911401,-3,-1,-6,1,-3,0,1,1
138383911401,-1,0,1,-2,-1,1,-3,3
138383912243,-2,1,-2,-1,-2,-6,3,0
138383912243,0,-1,3,-1,2,-2,-3,-4
138383927204,-3,-1,-5,3,-1,4,1,0
138383927204,3,1,0,2,-4,-3,-3,3
138383933216,-2,-1,0,-3,-2,-3,0,3
138383933216,1,2,6,-3,-1,-6,4,-3
138383948266,-1,-3,6,-5,1,-3,-4,-5
138383948266,0,-2,-6,3,0,1,2,1
138383955810,3,1,2,-1,-1,0,1,4
138383955810,1,-1,-3,3,0,-6,5,-3
138383970662,-5,2,0,-1,-2,1,-3,2
138383970662,-1,2,-5,7,-2,-3,1,-3
138383978162,-1,-1,-5,6,-2,3,0,4
138383978162,-2,2,-2,-4,0,-3,-3,-3
138383987181,-3,6,1,-1,-1,-4,0,3
138383987181,1,2,-5,5,-2,-1,-5,2
138383993193,-1,0,-3,5,-1,1,-3,-1
138383993193,-2,-1,-3,3,-1,-3,-2,-1
138384008223,6,1,-5,5,-2,-1,1,2
138384008223,-1,-4,1,-2,0,0,4,-1
138384015738,0,5,-1,3,-4,-1,-5,0
138384015738,0,-5,-7,6,-6,0,0,7
138384030750,0,-6,-2,-1,3,-2,-2,-2
138384030750,-3,-2,0,-2,0,1,0,-4
138384038265,2,-2,-1,3,-1,1,3,5
138384038265,-6,-5,-3,0,0,1,0,-5
138384047192,-4,-10,-1,0,-1,-1,-2,-1
138384047192,1,2,-2,5,-2,1,-1,0
138384053227,2,-1,-1,-2,2,-3,-4,-6
138384053227,-3,-5,-2,2,-1,1,-2,-1
138384068203,-2,0,0,0,-1,-3,0,-4
138384068203,2,-5,3,-4,0,-3,-5,0
138384075692,1,-2,0,-2,-3,-3,2,0
138384075692,1,-3,2,-2,4,-4,-5,-6
138384090679,-2,5,-3,1,-4,-1,4,0
138384090679,-3,-2,-2,-1,-3,-1,1,-1
138384098168,1,-3,-4,0,-4,-1,-2,0
138384098168,-1,0,1,-2,-2,0,0,-1
138384113852,-4,-3,0,-2,2,0,4,-1
138384113852,-1,5,-2,5,-2,1,-3,1
138384114684,-2,-3,-11,4,-4,2,0,-1
138384114684,5,-4,-4,0,-5,-3,3,2
138384129712,-2,-4,3,-3,0,-6,-3,-2
138384129712,-2,-3,-2,-3,-4,1,0,1
138384135667,-4,-3,0,-4,-1,-1,-2,-8
138384135667,1,-5,4,-3,-2,1,-4,-1
138384150644,-2,-1,1,-3,1,1,-2,-3
138384150644,-1,-1,5,-7,0,-1,-2,-3
138384158232,-1,0,5,0,-3,1,2,-1
138384158232,5,-1,1,-2,-8,1,0,-1
138384173903,-1,-5,0,0,0,-2,-4,-4
138384173903,-1,0,-7,0,-1,-3,1,6
138384174630,-2,-1,-5,-1,-3,0,-1,1
138384174630,-2,0,0,-1,2,0,-5,-5
138384188218,-3,-1,-3,3,-1,4,-1,0
138384188218,0,-2,-1,6,-3,-4,0,-5
138384195723,0,4,0,-3,-4,-3,-1,1
138384195723,-3,-7,1,-7,1,-3,2,-1
138384210699,-1,-6,-2,-2,-1,-1,-2,3
138384210699,-4,-2,4,-6,2,-3,-4,-3
138384218210,0,-5,3,-1,0,-4,-4,-4
138384218210,-2,4,-1,0,-1,0,-2,-2
138384233824,0,1,-2,-6,-1,-1,-1,-2
138384233824,-2,-3,-3,-7,-3,0,-3,-6
138384234566,-2,-4,4,-7,3,0,-3,-2
138384234566,-2,2,2,2,-4,-4,-2,0
138384248245,0,-1,-2,-3,-1,-2,-2,0
138384248245,-2,-5,-4,-7,-3,1,0,1
138384255702,-3,2,-7,4,2,-3,0,3
138384255702,-5,-6,-3,-4,3,-2,0,-6
138384270751,-4,-4,9,-5,-2,-3,-1,-1
138384270751,-2,-2,13,-11,3,1,-3,-10
138384278247,-7,-4,-2,-2,-1,-1,-5,-3
138384278247,-3,-3,1,-1,2,1,0,3
138384293852,3,2,-5,4,-3,3,3,3
138384293852,-4,-4,3,-2,3,1,0,4
138384294695,-2,-2,-8,1,1,-1,-1,3
138384294695,-1,2,2,0,-3,-4,0,1
138384308290,2,-1,-3,2,-3,-2,1,-1
138384308290,2,-3,-2,0,1,-2,-3,3
138384315767,-1,2,1,0,-6,-1,-1,0
138384315767,4,2,-4,1,1,0,0,0
138384330702,-3,3,-1,-3,-1,2,-1,-3
138384330702,-1,2,0,3,-4,-3,-1,3
138384338186,0,4,5,-1,1,-1,1,-6
138384338186,-3,2,4,3,0,2,-2,1
138384353835,-1,2,-2,-5,-4,-5,0,5
138384353835,-1,0,-3,5,-5,-1,-1,6
138384354628,-1,-2,1,-2,-5,3,-1,1
138384354628,-2,-3,-7,1,-3,0,0,2
138384368197,2,2,-12,9,-2,0,3,2
138384368197,0,1,-8,4,4,-1,-2,-1
138384375656,1,-1,-5,6,-3,-4,6,4
138384375656,-3,-2,-5,7,-4,1,2,1
138384392217,0,-1,-2,-1,-4,0,-6,2
138384392217,2,4,-7,2,-3,-5,-3,-1
138384398277,3,-1,0,1,-2,-1,0,0
138384398277,-3,1,-1,-4,-2,-1,0,3
138384413846,-4,-1,5,-1,2,-2,-5,-8
138384413846,-1,3,1,4,-4,-3,-1,1
138384414665,3,2,-2,0,-3,2,0,3
138384414665,1,-4,-4,3,-5,-1,-2,3
138384428251,-3,-1,-10,9,-3,-2,2,-5
138384428251,-2,-1,-2,1,-4,-3,1,2
138384435732,0,-7,-7,4,1,2,-1,4
138384435732,-1,1,-3,1,4,-1,0,-3
138384450758,-4,-7,-3,-4,0,2,1,0
138384450758,1,-6,-1,3,-2,4,2,-4
138384458249,-4,-1,1,5,-5,-1,-2,0
138384458249,-2,-2,0,-3,-2,1,0,-2
138384473906,3,-2,2,-2,4,0,0,0
138384473906,2,-3,-2,0,-4,-1,-2,5
138384474687,0,5,4,-2,2,-3,-8,-9
138384474687,0,-1,-3,1,-5,1,0,1
138384488193,0,2,-5,6,-5,-2,-1,4
138384488193,3,0,-9,2,-2,0,2,0
138384495669,-5,-2,-4,4,-2,1,-2,0
138384495669,2,2,-11,7,-1,-1,-3,2
138384510702,0,1,-7,3,-5,1,3,2
138384510702,1,5,-1,6,-3,1,-5,-5
138384518189,-2,-1,1,-8,0,-2,-2,1
138384518189,-3,0,5,0,0,-1,2,-2
138384533871,1,-2,2,-1,-3,-1,-2,2
138384533871,-1,-3,7,-2,-2,0,-4,-2
138384534659,1,-2,-6,2,-3,0,0,0
138384534659,-2,-2,0,-8,-8,-5,-2,2
138384548260,-2,-3,-2,-5,-4,1,-3,-2
138384548260,-4,3,-9,3,-4,-4,4,0
138384555754,-1,-1,-1,1,0,-2,1,-1
138384555754,-5,-6,-2,0,1,0,0,-7
138384570727,1,2,0,3,2,1,-1,-2
138384570727,-3,-6,6,-10,-1,-3,-2,-3
138384578200,-2,-2,-2,-5,1,-2,0,-1
138384578200,2,2,-2,-2,0,-3,-5,0
138384593840,2,-3,0,-4,1,-3,0,-2
138384593840,1,-5,-8,-1,-2,-2,-2,-2
138384594637,-1,3,-5,5,-4,2,1,2
138384594637,-4,-1,4,-6,1,1,-3,-6
138384608239,-3,-2,-3,0,0,-3,2,-2
138384608239,0,3,2,-3,1,-3,-3,1
138384615694,1,-4,7,-3,1,-4,-2,-2
138384615694,1,-2,-6,-3,-3,-2,0,1
138384630731,-3,4,4,-5,-1,-2,-4,0
138384630731,-6,-3,5,-2,1,3,3,-2
138384638275,-4,-5,-1,-5,0,-3,-6,2
138384638275,-1,-5,5,-3,2,-2,0,-3
138384653904,-2,-9,4,-3,2,-5,-5,1
138384653904,-1,-5,5,-5,-1,-1,-4,-4
138384654661,-1,-1,2,-5,-3,2,-2,-1
138384654661,1,0,1,1,1,-1,-1,0
138384669739,0,3,-6,2,-1,4,1,0
138384669739,-3,-6,5,-6,-3,-4,-4,-2
138384675719,-3,3,1,-4,1,-1,-3,2
138384675719,0,-3,5,-1,-5,-2,-1,0
138384690722,-2,-4,0,-2,2,1,-5,-1
138384690722,-1,0,-8,6,-3,1,7,0
138384698256,-2,-2,1,0,0,-3,-4,-1
138384698256,0,1,2,-2,-2,-2,0,-1
138384713891,-2,-1,-6,0,-2,-2,-2,0
138384713891,-2,4,-4,1,-3,3,-1,4
138384714689,-1,-3,0,-1,2,-4,-3,-1
138384714689,-1,3,-11,4,1,2,0,3
138384729710,-2,-3,2,0,-7,-3,0,-1
138384729710,-1,1,0,0,0,-3,-2,2
138384735716,-3,-1,-3,0,-3,1,4,-4
138384735716,-2,1,-4,2,-5,5,-2,1
138384750712,-4,0,3,-2,-1,-3,-1,3
138384750712,0,0,-2,-1,-1,1,1,-1
138384758190,1,1,-3,2,0,-2,-3,-3
138384758190,-2,-8,-3,-1,-3,-2,0,2
138384773795,1,1,1,-2,-3,2,-3,-2
138384773795,-1,-4,-3,-1,-1,0,3,-2
138384774585,-2,0,-5,3,-5,1,3,-1
138384774585,-1,-1,0,-5,1,-5,-7,0
138384788149,1,-1,-4,2,1,-5,3,2
138384788149,-2,5,-1,-5,0,1,-4,-4
138384795683,-4,-4,5,-9,-2,2,1,-2
138384795683,0,0,3,3,-1,0,-3,-2
138384810665,-5,-2,-5,-2,3,-2,0,0
138384810665,0,1,1,0,1,-4,-7,0
138384818153,5,0,-6,1,-5,-2,1,2
138384818153,-1,0,-7,2,2,-2,-1,1
138384833836,-1,-3,-2,-3,-2,1,-3,-1
138384833836,2,2,-4,6,-3,-2,-1,-3
138384834619,-1,1,4,-2,-1,-2,-3,-2
138384834619,-2,-1,-8,1,-1,0,1,0
138384848175,1,-1,-1,0,2,-3,-6,-3
138384848175,1,-2,-4,2,-3,-1,0,0
138384855663,3,-7,-5,2,4,0,-2,1
138384855663,1,0,2,0,-4,-2,-1,-5
138384870711,0,0,1,-2,-2,1,0,1
138384870711,-1,2,-8,4,-2,4,0,-1
138384878219,-1,-5,-2,1,-2,-1,-4,2
138384878219,-4,-7,0,-1,-1,0,-3,0
138384893248,1,2,0,4,-1,-3,2,2
138384893248,-5,-9,-8,2,0,2,3,0
138384901375,-2,0,-6,5,0,1,1,0
138384901375,-2,1,-2,4,1,-3,1,-5
138384908245,-5,0,-5,3,0,-2,0,-1
138384908245,0,-2,2,-2,-6,-3,1,-1
138384915747,-1,1,5,-5,-3,-5,-1,-7
138384915747,-1,2,-5,-2,-3,-4,-3,1
138384930716,0,1,0,0,0,-2,-1,-4
138384930716,-2,-3,-2,-3,5,-6,-4,0
138384938215,-2,0,-9,5,0,2,-1,-3
138384938215,-4,0,2,0,0,2,1,-2
138384953235,-3,-2,-11,6,0,2,-6,-1
138384953235,-2,-3,3,2,0,-5,-3,-3
138384961364,-1,1,7,-4,-1,2,-1,-6
138384961364,-2,-4,8,-4,3,-4,-1,3
138384968224,-5,-4,10,-8,0,0,-1,-3
138384968224,1,-1,0,-1,2,-2,-1,1
138384975716,-5,5,-1,-2,3,-3,-4,2
138384975716,6,2,0,-1,-5,0,-1,1
138384990793,-2,-1,-7,6,1,0,-2,-1
138384990793,1,-2,-3,-3,1,-3,0,1
138384998267,-5,-2,1,-8,2,-2,-2,-3
138384998267,-2,-4,-1,2,2,-5,-5,-3
138385013169,0,0,3,0,-2,0,1,-3
138385013169,-3,-3,5,-8,-4,0,-1,1
138385020765,-3,-3,-4,1,-1,-1,3,-1
138385020765,-1,-3,7,-7,3,-1,-3,-4
138385036429,2,-2,-4,-4,-4,-1,-1,-1
138385036429,-3,0,-5,-4,-1,2,-5,-3
138385037155,1,-4,1,-2,-3,-1,-1,-2
138385037155,-1,-2,-6,2,-2,1,-1,4
138385050723,-5,-4,1,-3,-5,-1,-2,2
138385050723,-4,-2,2,-2,-4,4,-1,-2
138385058214,-1,-3,-3,-1,-2,-4,1,0
138385058214,-1,-4,-1,1,1,-4,-1,-4
138385073224,-3,-6,7,-7,3,4,-6,-1
138385073224,-3,-2,0,0,-2,-1,0,-1
138385081439,-1,-1,2,0,-2,5,0,3
138385081439,2,-2,0,-4,5,2,-3,-5
138385096433,-1,-1,1,0,-3,3,-2,1
138385096433,1,0,-1,1,0,-1,-3,-1
138385097147,-1,1,-8,2,-2,1,-2,-3
138385097147,-3,2,-5,2,-2,2,2,4
138385110738,-1,-3,1,-2,2,1,0,-4
138385110738,0,-2,9,-1,2,1,-4,-2
138385118295,-2,-3,-3,-3,-1,-1,0,0
138385118295,1,5,-3,1,-4,1,-2,3
138385133233,-2,-5,-9,3,-3,-3,1,2
138385133233,-5,-3,-3,4,1,-3,3,0
138385141425,2,-1,-1,2,-3,-3,1,-1
138385141425,-3,4,-2,-1,-3,1,0,0
138385156434,3,0,2,-4,-6,0,4,-1
138385156434,2,2,1,-2,-1,-1,-2,-1
138385157193,2,-2,-6,5,-2,-4,2,0
138385157193,0,1,-3,-3,1,1,3,-1
138385170706,1,0,2,-1,-1,-1,1,-2
138385170706,-2,0,-8,3,-5,-3,1,1
138385178239,1,2,6,0,-2,-2,-4,-4
138385178239,-3,0,-1,-2,-3,0,1,-2
138385193194,0,3,-8,7,-2,-3,-1,-3
138385193194,0,-2,5,-1,0,-4,-6,0
138385200723,-2,-2,2,-7,2,-1,0,1
138385200723,-4,-7,1,0,0,-3,-3,2
138385216364,-2,-2,2,-4,0,-1,-4,1
138385216364,0,2,-2,-1,-3,3,-3,-1
138385217125,-1,-3,-13,8,2,1,-2,-2
138385217125,-5,0,-9,7,-4,-2,1,-2
138385230722,-1,0,-8,6,1,-4,-2,-4
138385230722,-2,-2,-9,5,-2,2,0,-2
138385238254,0,3,-1,1,-2,-2,0,0
138385238254,-3,-3,4,-4,0,0,-4,-2
138385253256,-2,2,9,-10,-1,0,-3,-4
138385253256,-3,3,2,-3,1,-5,-1,0
138385260751,-3,-7,-7,1,3,-1,-1,-3
138385260751,3,-2,-10,4,4,2,4,1
138385276361,2,1,2,4,3,-1,3,-1
138385276361,2,1,2,2,2,-3,2,-3
138385277209,1,2,22,-15,-11,-2,-4,4
138385277209,-1,-7,10,-11,-18,0,-2,-1
138385290689,-1,2,-3,6,-8,-4,-3,-1
138385290689,0,-7,11,-8,-10,-1,-1,-2
138385298192,-3,3,-19,11,-4,-2,-3,3
138385298192,4,-1,-29,20,9,-1,-3,-3
138385313203,-4,-3,-3,-5,-1,-2,-2,0
138385313203,-5,-1,-7,0,3,-3,-3,2
138385321375,0,-3,6,0,0,0,-5,-4
138385321375,-2,-7,5,-7,0,-1,-1,0
138385336354,3,-1,2,-1,3,-3,-1,-4
138385336354,-2,-3,-1,-1,2,0,-1,-4
138385337126,0,-3,2,-7,3,-3,-2,-4
138385337126,0,3,3,-2,-3,-3,-6,-2
138385350760,0,-1,5,-7,1,-2,-1,3
138385350760,-1,-6,0,-9,2,-5,-5,-3
138385358189,0,3,-9,3,3,-1,2,3
138385358189,-6,-3,-2,2,-1,-2,1,-4
138385373254,-2,0,-6,1,-6,0,-4,1
138385373254,-1,2,-8,1,2,0,-1,6
138385381445,-4,3,0,1,1,-1,0,-1
138385381445,-3,0,10,-5,1,0,-2,-2
138385396331,-2,-3,5,-6,-3,-2,0,1
138385396331,0,-1,0,3,-4,-3,-3,0
138385397186,-2,-4,3,-3,1,1,-4,-2
138385397186,-2,-1,6,-6,1,-2,-5,-1
138385410751,-2,-10,-3,1,-1,-5,-3,-3
138385410751,0,-3,3,-1,-1,1,0,2
138385418216,1,1,1,0,-3,0,-3,3
138385418216,-1,0,-3,-1,1,-2,-1,-1
138385433217,-2,-2,-10,2,0,2,-2,3
138385433217,-1,-3,-10,8,1,1,1,1
138385441391,-5,-7,3,-1,0,2,0,-5
138385441391,-2,-2,-2,-1,-5,4,1,4
138385456406,1,3,-9,4,3,3,1,-2
138385456406,2,-1,-3,-1,-1,-2,-2,-1
138385457189,-3,2,1,-3,-1,-1,3,0
138385457189,-1,-5,-2,1,7,0,2,-5
138385470739,1,3,-1,2,1,1,1,-1
138385470739,-1,-7,3,-7,-2,-2,-2,2
138385478241,-2,-6,-1,1,-3,-2,5,-1
138385478241,-3,-9,-3,2,1,-1,-5,0
138385493276,-3,-3,2,-2,1,2,-6,-1
138385493276,0,-1,-6,0,-3,-2,1,-3
138385501443,-1,4,-4,-1,-2,-1,-4,3
138385501443,1,3,0,4,-4,1,0,1
138385516389,2,-7,-2,1,-3,0,1,2
138385516389,-4,-2,0,3,-3,0,-6,-1
138385517217,-3,0,3,0,0,-3,0,-3
138385517217,1,1,-3,0,-1,0,-1,0
138385530741,-2,-5,3,-5,-1,3,-4,5
138385530741,1,0,2,-3,-5,0,-2,5
138385546495,1,-6,-5,-1,-1,-2,-2,-2
138385546495,-1,-1,-2,1,-3,-2,0,-4
138385553295,0,1,-4,2,1,-3,3,0
138385553295,1,-2,-4,1,-1,-4,3,-5
138385561364,1,-3,-8,6,-4,0,-4,2
138385561364,0,0,1,-2,-1,0,-3,4
138385576337,-1,0,3,-2,-2,-7,-2,-5
138385576337,-1,2,-2,2,8,0,1,-2
138385577153,1,-1,-3,2,-2,1,-3,2
138385577153,2,-3,-3,1,2,-3,1,-1
138385590801,-2,-1,-7,5,-1,-2,-4,-3
138385590801,-2,-2,-6,-1,-2,3,-1,1
138385598288,1,0,-7,4,-1,1,1,0
138385598288,-3,0,-1,3,-4,0,-3,1
138385613261,1,0,-3,1,-3,1,-3,2
138385613261,-5,-5,1,0,-1,-3,0,-2
138385621416,-1,-4,1,0,-2,-1,4,3
138385621416,0,0,-2,-1,1,-4,0,2
138385636386,-5,-1,2,-3,-1,-1,2,-3
138385636386,-1,2,-9,5,0,3,0,1
138385637240,-1,-2,-6,3,-2,-4,-7,0
138385637240,-3,-3,0,1,1,-7,0,-3
138385650745,4,4,-4,2,-1,-3,1,-1
138385650745,-2,-1,-3,-2,-3,-2,-1,-1
138385658275,-2,-1,-3,2,-2,4,0,2
138385658275,-4,-1,-7,1,-2,4,-1,-1
138385673226,-3,2,-4,-1,4,-1,-1,0
138385673226,0,-3,7,-4,-3,-1,0,0
138385681424,0,1,-4,-1,-3,1,1,-5
138385681424,-1,2,-1,-4,-2,1,-3,0
138385696419,-5,-8,-3,-3,-6,2,0,-3
138385696419,3,2,-1,1,1,-3,-4,-5
138385697166,0,-3,2,-5,4,-7,-3,-2
138385697166,1,1,3,1,1,-2,1,-3
138385710690,-5,-2,3,-7,0,-1,-3,2
138385710690,-2,0,7,-3,-4,-4,-2,-4
138385718152,1,1,3,-7,-1,0,-3,-2
138385718152,-1,4,2,-4,-1,-4,0,-1
138385733194,-4,-8,-1,-5,-3,-2,-2,2
138385733194,-2,0,-5,-1,3,-2,-1,-3
138385741392,1,-2,-9,7,-1,-4,-1,-2
138385741392,0,-1,-9,6,-3,1,2,0
138385756330,-1,1,8,-1,-1,-3,-1,-4
138385756330,0,3,2,-5,0,-2,0,2
138385757156,-2,2,10,-8,6,-3,1,0
138385757156,2,-3,9,-7,-5,0,-4,1
138385778911,4,-1,1,-1,1,1,1,1
138385778911,-2,-2,-7,2,-2,0,-2,0
138385779666,0,-2,-5,2,-5,-5,-3,3
138385779666,-1,4,1,2,-2,-2,1,-5
138385793252,0,5,-1,0,-4,0,-2,-1
138385793252,-1,1,3,-1,2,-1,1,1
138385801468,-2,0,-1,0,0,2,0,2
138385801468,-5,-4,1,-3,2,-1,-9,2
138385815736,2,3,-3,7,-4,-5,-3,0
138385815736,-7,-2,-2,2,0,-1,-2,1
138385823878,-1,3,2,2,-4,-3,0,-1
138385823878,0,-7,-3,-2,2,-2,4,-1
138385830749,1,0,-8,4,0,-4,2,-4
138385830749,3,2,-5,2,-1,4,-3,-2
138385838257,0,-1,1,-2,-5,-2,-6,0
138385838257,0,1,1,2,-2,-2,0,0
138385853167,-3,2,3,0,-2,0,-3,-1
138385853167,1,-3,-3,-3,1,-3,3,-2
138385861476,-3,-2,-4,-1,1,-2,0,-5
138385861476,-1,5,-5,7,-5,-2,0,1
138385875709,-1,-6,-4,3,-4,-2,3,-1
138385875709,-1,-4,-3,3,-1,-4,-5,-4
138385883991,-2,-6,-6,2,2,1,2,2
138385883991,0,2,-7,2,0,1,0,0
138385890688,-2,-2,5,-1,-5,0,1,-4
138385890688,2,-2,6,-1,-5,0,0,0
138385898205,3,0,5,-1,-1,-4,2,-1
138385898205,-2,0,-1,2,-1,-5,2,-1
138385913275,1,1,0,0,2,2,2,3
138385913275,-2,-2,4,0,-1,-5,-3,-5
138385921390,-3,1,-6,0,-2,-4,-5,-3
138385921390,-1,0,-7,3,-2,0,0,-5
138385935742,2,-1,-8,5,-1,1,-3,2
138385935742,-1,3,-15,11,-6,-3,-2,-2
138385944035,-2,-1,-12,10,-7,6,0,0
138385944035,2,0,2,-4,-2,2,0,-1
138385958864,2,-1,-4,0,4,-1,-1,-1
138385958864,1,-2,20,-19,1,4,2,0
138385959645,0,-3,29,-22,2,-1,3,0
138385959645,-4,-6,-2,0,-1,2,-1,2
138385973244,-5,-3,-12,5,-3,-2,3,-3
138385973244,0,0,-17,8,-1,-2,0,0
138385981483,2,1,-14,5,-3,-3,1,1
138385981483,-4,-5,-10,1,3,-3,-5,-2
138385995724,-1,1,-8,5,0,3,1,-1
138385995724,0,-4,1,1,0,-2,-1,3
138386003923,-4,-5,-2,-1,-2,-1,2,-2
138386003923,1,6,4,-2,2,3,0,-4
138386018823,-1,-4,-7,2,1,2,-2,0
138386018823,-3,2,-5,-2,-3,2,2,-3
138386019630,-7,-7,1,-3,2,-1,-9,2
138386019630,3,-4,-4,0,-2,-3,1,2
138386033147,-1,-4,0,-4,0,2,-4,-4
138386033147,1,1,3,-1,-4,-4,-2,-3
138386041404,-4,-5,0,3,-2,-3,-1,0
138386041404,-5,0,2,1,-2,-6,0,0
138386056150,-2,3,5,-5,-6,-5,-6,-1
138386056150,-4,-1,0,-2,-1,-3,0,-3
138386063949,2,-3,-10,3,0,4,1,-4
138386063949,0,-9,2,-1,0,0,-2,-2
138386078922,-4,-5,4,-9,-4,-5,-2,1
138386078922,-2,2,-4,-3,-2,0,0,2
138386079670,-1,0,2,0,-4,-3,-1,-4
138386079670,5,-1,1,-1,-1,-1,-2,-2
138386093210,-4,-1,1,-2,3,-3,-2,-2
138386093210,-3,-4,-6,1,-1,1,-2,-2
138386101493,0,-2,0,4,-1,-1,-1,1
138386101493,-4,7,1,-3,-5,2,-6,-4
138386115702,-1,1,5,-6,-3,-6,0,-4
138386115702,1,-1,1,-3,-3,-6,-1,-2
138386123960,1,0,1,-7,0,-3,-5,0
138386123960,0,-1,-1,0,-5,0,-2,-1
138386138937,-2,-5,5,-7,2,0,0,-3
138386138937,-2,2,1,-3,1,3,3,1
138386139739,-2,-2,-5,1,-1,2,1,-1
138386139739,-1,-3,2,-3,-1,-4,-3,2
138386153253,1,0,3,2,-3,1,-1,4
138386153253,-3,-1,1,3,-2,2,1,-1
138386161491,0,5,-2,1,1,-5,0,-2
138386161491,-3,-5,4,-4,-1,-6,-4,-4
138386175804,2,2,6,-3,0,-2,-1,-3
138386175804,1,-1,-2,2,0,-1,-1,0
138386183959,0,0,-2,-2,-4,2,1,-1
138386183959,-2,2,-6,-2,-1,-2,0,-2
138386198910,-4,-2,-9,7,-3,3,1,-2
138386198910,-2,-2,-2,2,1,-3,-2,-3
138386199676,-4,-2,-2,1,-2,4,-2,2
138386199676,-1,-5,-2,4,-3,-1,1,4
138386213222,-1,0,-7,6,-3,1,-1,1
138386213222,0,1,-7,2,0,1,-4,3
138386221409,2,0,-9,5,-1,-4,-3,-4
138386221409,-1,0,-7,7,-1,1,3,-1
138386235782,-2,0,0,-3,1,-1,3,-4
138386235782,-1,-1,6,-6,-2,-5,2,-3
138386243896,-1,-3,8,-5,-3,1,1,-1
138386243896,-5,1,1,-4,1,-1,-1,-1
138386258897,0,3,-5,0,-5,2,0,1
138386258897,-2,3,2,-3,-2,6,-2,-1
138386259669,-6,-1,3,-4,0,-3,1,1
138386259669,0,-6,-8,1,1,-4,2,-1
138386273217,-1,-2,-13,16,2,-1,-5,-2
138386273217,-5,1,4,-8,-2,-6,1,-5
138386281437,0,2,19,-11,1,0,-2,-1
138386281437,0,-1,0,-3,-1,-2,0,-2
138386295725,0,-4,5,-13,1,1,-2,4
138386295725,1,-6,-10,6,0,2,1,-2
138386311227,-3,-2,-13,6,0,-5,-3,-1
138386311227,-3,2,5,-3,-4,1,-2,0
138386320194,-1,1,-2,2,-1,-2,4,-2
138386320194,0,-5,-5,6,-2,0,0,-2
138386326357,0,-3,-3,3,-2,-2,0,-4
138386326357,1,-1,-9,9,-6,3,1,3
138386333236,-1,11,-6,4,-1,-1,-1,0
138386333236,-6,-2,-2,0,1,-6,-2,-2
138386348979,0,3,-1,1,-2,1,-1,0
138386348979,-3,1,-6,1,1,-1,-1,-7
138386355757,-5,-3,5,-5,-2,1,3,-1
138386355757,0,0,2,-3,-1,-3,-2,-2
138386363672,0,1,-5,3,-1,3,1,0
138386363672,1,-1,1,2,1,1,3,0
138386378879,-1,-3,-4,2,0,0,-3,-3
138386378879,-5,1,-1,-2,0,-3,0,1
138386379626,2,3,5,1,-5,-4,-1,-5
138386379626,-1,2,5,-3,-2,0,-3,-4
138386394734,-2,1,2,-1,-2,2,-1,3
138386394734,-2,2,-5,4,-4,-2,-1,4
138386400713,0,-1,-6,0,2,-3,-4,-6
138386400713,-1,-3,-2,-1,3,-3,1,0
138386415702,3,-1,6,-2,0,-5,-2,-5
138386415702,-2,-5,5,-7,-3,0,-1,-4
138386423902,-2,1,-2,0,-5,1,-2,0
138386423902,4,1,-2,0,-3,-5,-1,-1
138386438973,0,-6,-6,3,-2,-1,0,-3
138386438973,2,1,-5,1,-4,-1,3,2
138386439683,0,2,-8,4,-5,-1,0,4
138386439683,-2,-3,-5,-4,1,2,0,-5
138386453243,2,2,-9,1,-1,0,1,-6
138386453243,0,-4,1,-1,1,-4,-5,-1
138386460732,-3,0,-3,-3,3,-5,-2,-2
138386460732,-2,4,7,-4,-3,2,-1,0
138386475667,-2,2,9,-4,-2,-2,-1,0
138386475667,0,-6,-2,0,1,0,3,-1
138386484017,-1,-1,2,1,-1,2,2,-1
138386484017,1,1,-5,1,0,-5,3,-1
138386498984,-4,-4,-2,0,6,0,0,2
138386498984,0,1,-1,-2,-2,0,-6,-7
138386499709,-3,-5,-17,4,-6,1,-1,0
138386499709,-2,-2,-4,2,-3,2,2,-3
138386513190,-3,-1,1,-2,-5,4,-1,2
138386513190,-1,3,9,-6,0,1,-2,2
138386520678,2,-5,33,-21,8,1,-1,0
138386520678,0,1,14,-17,2,1,-5,0
138386544636,-1,-10,3,0,0,-6,-3,-1
138386544636,-2,-1,-10,7,-4,-2,0,-2
138386545363,2,-6,-20,10,-2,-3,-1,-3
138386545363,-1,-6,-2,-2,2,-4,0,-5
138386558980,3,1,-8,4,-4,-5,-2,-5
138386558980,-2,-5,-10,6,-3,-2,0,-1
138386559671,-6,0,5,-8,-1,-1,1,-4
138386559671,0,-1,-1,3,-3,-5,-2,2
138386573238,-1,1,3,-2,-1,-4,-2,1
138386573238,2,-4,-1,-2,1,-4,-2,2
138386581445,3,-2,-5,3,-5,-2,2,-2
138386581445,2,-1,0,0,-5,1,2,-3
138386595830,0,-5,0,-4,0,-3,0,0
138386595830,3,-1,-3,6,-5,1,0,3
138386603904,-1,0,-2,-2,-1,-3,-2,1
138386603904,-1,-4,-5,-2,0,-2,-5,-2
138386618918,3,0,-12,9,-2,0,1,0
138386618918,-3,5,-5,4,-3,-3,2,0
138386619719,-2,-1,2,-5,1,-1,3,-1
138386619719,1,1,-1,5,-1,2,-3,4
138386633197,-5,2,8,-11,-1,-4,-4,-3
138386633197,1,-1,7,-5,2,2,-2,5
138386641463,0,3,1,2,-1,0,0,2
138386641463,1,-6,-1,0,-2,-4,-3,-2
138386655756,0,-2,-3,1,3,-3,1,0
138386655756,3,-1,-6,1,-4,1,-1,-3
138386663949,0,-2,-11,5,-3,-3,-4,0
138386663949,-1,-1,-11,2,-7,3,0,-2
138386678962,3,-1,-10,6,-4,1,2,5
138386678962,-4,2,1,-1,-5,2,2,-4
138386679674,-4,4,-1,-4,-2,2,-3,-4
138386679674,-4,-7,5,-4,1,-2,2,-1
138386693267,0,0,8,-6,-1,-4,0,-4
138386693267,-1,-1,4,-5,3,0,-6,0
138386701461,1,-3,-2,2,-3,3,-2,0
138386701461,4,6,-8,5,-3,3,-1,-1
138386715740,-5,2,-7,5,1,-3,3,-2
138386715740,3,-2,6,-4,2,-6,-3,-4
138386723913,0,0,-6,6,-6,0,-3,-1
138386723913,-1,-4,0,0,1,-2,-4,-1
138386738863,-2,0,0,0,-5,1,-4,1
138386738863,1,-3,-5,1,-6,1,3,-5
138386739638,2,0,7,-2,-4,-3,4,-5
138386739638,1,-2,2,-1,1,-1,-5,1
138386753330,-2,3,4,-8,-2,0,-5,-4
138386753330,-2,1,4,-3,0,-1,1,2
138386761419,1,-6,-4,0,0,-1,2,-1
138386761419,-2,1,-9,8,-2,0,-1,1
138386775712,1,-5,-3,2,3,1,-4,-3
138386775712,-5,0,-5,3,-4,0,-1,6
138386784002,-2,0,-6,1,5,-5,-3,-1
138386784002,-4,4,2,-2,2,-2,0,2
138386798293,-1,-4,0,1,0,-2,-4,-4
138386798293,0,-2,0,0,-2,-2,-2,-2
138386806467,2,-2,3,-3,-4,-4,-2,-3
138386806467,-3,3,-5,2,-1,-3,-1,-4
138386813196,-1,-4,-8,1,-1,-1,1,-3
138386813196,3,-4,-5,-5,-6,1,2,-2
138386821513,2,2,-9,5,-2,3,-1,1
138386821513,1,-2,0,0,-4,-1,2,4
138386835747,0,1,-5,4,0,2,4,1
138386835747,-4,1,1,-3,1,0,-3,-2
138386843968,-5,-5,2,-3,-4,-1,0,2
138386843968,0,1,2,-7,0,1,2,0
138386858279,-2,-1,3,-9,-1,-2,-1,-2
138386858279,0,-9,0,-1,2,-1,-4,2
138386866450,2,-1,-7,4,-1,-8,-3,-1
138386866450,-2,-5,-1,-2,0,-2,-3,0
138386873241,-2,1,-5,-3,0,-3,-5,4
138386873241,-1,-4,2,-4,2,-1,-1,-3
138386881475,-6,-7,10,-7,2,-2,-2,-8
138386881475,0,1,4,1,-1,-4,-1,-3
138386895754,-2,-2,3,-1,-1,-2,0,1
138386895754,-6,-1,-5,2,-3,-3,2,-4
138386904053,-3,4,3,-1,-3,-1,-2,1
138386904053,-4,-1,2,1,-4,0,2,-4
138386918221,-1,-3,-3,6,-6,1,2,0
138386918221,-2,3,-4,19,-7,2,5,0
138386926457,4,-1,21,48,-10,-3,3,0
138386926457,0,-2,-5,102,-19,1,-4,2
138386941372,3,0,-13,125,-37,-2,0,3
138386941372,4,-2,-30,127,-44,-3,-4,0
138386942202,-2,2,102,-19,-17,-4,-5,6
138386942202,-4,1,-87,-106,72,-3,-1,-4
138386955691,1,-2,-78,-128,66,-1,1,-4
138386955691,0,0,-39,-128,43,0,-1,0
138386963998,-4,-4,-42,-103,19,4,0,1
138386963998,1,0,40,-54,-22,-1,-6,-1
138386978341,-4,1,8,-18,-10,6,-1,0
138386978341,-3,4,-5,17,1,-1,2,-2
138386986424,-2,-4,-15,30,5,0,-2,3
138386986424,-3,-1,25,-53,7,0,2,-4
138387001507,1,0,17,-10,-7,0,3,0
138387001507,1,1,36,-11,-15,-1,-2,1
138387002249,-3,-5,-10,16,-8,1,0,2
138387002249,-8,-4,-5,39,-10,-1,0,4
138387015775,-1,-1,11,28,-3,-4,-4,0
138387015775,1,4,12,-6,2,-3,0,2
138387023955,-2,1,-18,18,-4,-1,0,1
138387023955,3,-1,-3,34,-14,1,-1,-2
138387038333,-5,-2,18,22,-11,-3,-3,2
138387038333,-2,-2,4,14,-1,-1,2,-2
138387046453,-1,0,-21,31,-1,0,1,-3
138387046453,-2,0,10,20,-11,2,5,4
138387061427,-2,0,10,-6,-1,-2,-2,-8
138387061427,-5,-1,-2,12,-2,-1,0,-2
138387062284,4,2,-12,6,-3,-6,-4,-1
138387062284,-2,-3,7,16,-10,0,-2,1
138387075816,1,2,7,5,-7,-2,3,3
138387075816,-1,-4,3,9,2,-2,-1,-2
138387084035,-2,2,-1,3,-4,2,3,-1
138387084035,3,-3,1,-1,-5,0,-2,-1
138387098319,-1,-2,0,0,-2,3,-1,1
138387098319,-1,2,7,-7,-5,1,0,-4
138387107192,-1,1,-6,9,0,1,0,-6
138387107192,1,0,-1,8,-3,-2,2,-1
138387120774,2,-1,4,11,-4,-2,0,1
138387120774,4,-1,1,2,-9,0,-7,3
138387129765,0,-2,-4,1,-4,5,3,-4
138387129765,-2,6,0,13,-6,0,-4,2
138387135808,-4,-2,5,-17,4,-5,-2,-3
138387135808,0,0,5,-3,2,0,-4,-1
138387144725,1,6,-8,-7,-1,-2,-3,-1
138387144725,-4,-3,1,-7,-2,1,1,0
138387167131,-2,1,3,8,0,-2,2,-2
138387167131,-7,1,-4,14,-2,-2,3,-2
138387168694,-1,1,-6,4,-5,2,2,0
138387168694,0,-2,-5,-2,2,-2,-1,-4
138387181484,2,0,-1,-14,2,-2,-2,-5
138387181484,-2,-4,-6,-21,6,1,0,-3
138387188246,-7,-3,1,-22,7,-3,-3,3
138387188246,-2,1,0,-23,7,-3,-2,-3
138387195817,0,-5,1,-9,-3,1,-2,2
138387195817,-2,2,-5,-10,1,4,3,0
138387210859,-3,0,-1,4,-4,-5,-5,-2
138387210859,0,-3,3,11,-6,1,1,0
138387218295,-2,-2,-3,-4,-1,2,-5,-6
138387218295,-3,0,-1,-2,0,1,-2,2
138387227295,2,-3,-3,3,-1,-1,-3,-2
138387227295,-2,-4,-3,-1,0,-3,1,-6
138387241499,-1,0,3,-10,-1,-2,2,-2
138387241499,-1,1,-4,-12,0,-1,-1,-1
138387248344,-1,-7,0,-12,3,-4,1,-4
138387248344,-4,2,-1,-2,0,-3,-4,-3
138387255802,-2,0,-2,11,0,1,-2,-3
138387255802,-2,-4,-1,3,-1,0,0,3
138387264789,0,4,-4,6,-5,-3,-1,1
138387264789,-3,4,4,10,-10,-3,1,-3
138387278217,-2,-4,1,-4,-4,2,0,0
138387278217,1,-5,3,2,0,-3,-1,0
138387287225,3,1,0,6,-2,-2,1,0
138387287225,1,-3,1,-7,2,-7,-1,3
138387301486,-2,-1,-4,-10,1,1,2,1
138387301486,-1,-4,5,-14,-1,-1,0,3
138387308264,-3,-3,1,7,-1,-4,0,1
138387308264,2,1,-3,11,-6,6,3,-1
138387315820,-5,-5,-5,13,-2,-1,-3,0
138387315820,-3,-1,-9,10,-4,-6,-8,1
138387324795,-3,-3,-11,7,0,-1,-2,-1
138387324795,-3,0,-5,10,-3,-1,-3,0
138387338248,-3,-3,6,17,-4,-5,3,-1
138387338248,1,-1,10,12,-3,-1,1,-4
138387347234,-2,4,11,7,-1,-1,-3,0
138387347234,0,-1,4,-1,1,-2,-2,-2
138387361540,1,0,3,-12,0,0,1,1
138387361540,-2,-3,1,2,2,-2,-2,0
138387368211,2,2,-2,5,-3,0,2,-2
138387368211,-3,-3,-3,20,-2,1,-2,0
138387375747,2,5,-5,22,-3,-4,-2,0
138387375747,0,5,-10,20,-2,-1,-3,-5
138387384779,-1,-4,-6,2,-1,2,3,-5
138387384779,1,0,0,3,-1,-2,0,-2
138387398324,-1,2,-2,0,-4,2,-2,2
138387398324,0,0,2,-7,-2,-1,0,-5
138387407255,-6,-7,0,-9,0,-2,1,3
138387407255,3,-5,-2,-20,4,2,3,-2
138387420833,-2,-4,-3,-8,-1,-4,-2,0
138387420833,0,-3,-3,-2,2,0,-1,-1
138387429770,-1,3,-1,-10,1,-2,-9,-1
138387429770,1,1,-5,-5,1,-3,0,1
138387435764,1,3,-4,2,-2,-5,-4,-2
138387435764,1,-1,-3,-3,-2,1,2,-2
138387444752,2,-1,3,-11,-1,3,2,1
138387444752,-6,-3,1,1,0,-2,-1,7
138387467089,1,-3,-3,3,-3,-2,0,0
138387467089,0,-1,5,-4,-1,-3,-1,-6
138387468631,-2,-2,-4,4,-1,6,4,-1
138387468631,-2,1,-6,7,-1,-2,-6,-2
138387481508,-5,-3,-5,2,-1,2,1,-1
138387481508,-1,-5,1,0,2,-2,-3,-2
138387488293,3,-2,-1,-2,-1,-2,-1,-1
138387488293,-3,-4,-1,-1,-4,-4,-6,-5
138387495771,2,1,-1,-3,-2,2,1,-4
138387495771,-3,1,-9,2,-3,-3,-2,1
138387504764,0,0,-2,1,0,-1,6,-3
138387504764,-5,3,-5,-1,-4,2,2,0
138387518264,-1,2,-1,-5,-1,-4,-4,-1
138387518264,0,-2,-2,3,-5,2,-2,3
138387527349,-1,-1,0,-2,-3,1,-2,-1
138387527349,-6,-1,5,-8,-2,-2,-3,-7
138387541433,-1,2,3,1,-2,0,0,-3
138387541433,3,6,-5,3,0,-8,-1,0
138387548284,-5,2,-5,2,-3,-3,-6,-1
138387548284,4,-2,-4,3,-1,-3,0,0
138387555738,-2,-5,-1,-2,-1,-2,-5,0
138387555738,-3,-3,-1,-4,-2,-1,-1,-3
138387564851,4,0,-1,-1,1,-5,0,-2
138387564851,0,0,0,-7,-1,-3,1,-6
138387578279,-2,-5,-4,-1,3,2,-5,0
138387578279,2,-1,-3,-3,-1,0,-2,-1
138387587248,-2,-6,-1,-3,2,-3,0,-5
138387587248,2,0,-4,-2,2,-2,-10,-1
138387601502,1,1,-2,3,5,0,2,1
138387601502,-5,-6,2,-7,-2,-2,0,2
138387608268,-1,-8,5,-8,0,-3,-1,-1
138387608268,1,1,2,-2,0,2,-3,3
138387615859,2,-5,1,-3,-3,2,4,-4
138387615859,-1,-4,0,-3,-1,-3,-3,0
138387624750,4,1,-7,4,-3,-1,-3,-3
138387624750,0,-3,0,4,-4,0,7,1
138387638218,-2,-2,3,-11,-1,-4,-1,-7
138387638218,2,-1,1,2,1,-3,4,-1
138387647320,-6,-1,-1,-1,-1,1,0,2
138387647320,5,-2,-7,2,-2,-5,4,2
138387661523,-2,0,2,1,-3,-5,-4,3
138387661523,-1,-1,3,-7,2,-1,-1,-4
138387668272,-2,-7,6,-3,6,-3,-2,0
138387668272,-3,-2,1,4,1,2,1,-1
138387675747,-3,-5,5,-3,1,0,-1,-1
138387675747,6,-1,1,0,-4,0,-3,0
138387684810,4,4,-5,3,-5,2,1,4
138387684810,-2,-2,-6,2,-2,2,-6,1
138387698307,-1,2,0,-3,-4,0,2,1
138387698307,-1,0,1,-2,2,-3,0,-4
138387707292,-2,-4,1,1,0,-3,-2,-1
138387707292,-5,-3,2,-6,-2,0,4,3
138387720731,-2,-3,-3,1,1,-1,1,3
138387720731,-4,4,-2,4,-2,7,2,3
138387729771,5,2,0,2,-8,0,-6,3
138387729771,3,-2,-4,6,-4,-1,4,3
138387735740,-3,0,-5,2,0,-2,0,-1
138387735740,-4,-1,3,1,1,-2,3,0
138387744788,3,-1,-9,0,-2,-3,0,1
138387744788,-2,2,-6,10,-1,2,4,3
138387758333,-1,2,-7,4,0,0,-4,4
138387758333,-5,-3,-6,-2,-5,-3,-1,3
138387767304,-1,-1,5,-5,-3,1,1,-1
138387767304,3,-1,10,-4,-5,1,1,2
138387781488,1,-3,6,-4,-1,1,-3,1
138387781488,1,-2,-2,3,-4,-1,0,-2
138387788223,0,-3,-2,2,-1,-3,-3,3
138387788223,-2,-4,-6,1,-1,-3,3,-1
138387795740,1,-2,-8,3,-5,0,-2,-2
138387795740,-6,3,-4,8,-2,-1,-4,3
138387804772,-5,-3,5,-2,-1,-2,0,-1
138387804772,1,2,5,1,3,-2,-6,-5
138387818315,2,2,5,-3,0,-3,0,-3
138387818315,-1,-6,4,-8,0,-4,0,-3
138387827249,-7,-3,1,-2,0,3,0,2
138387827249,-5,-1,0,-1,1,-1,-2,0
138387841474,-2,0,1,2,-1,-2,3,-3
138387841474,1,0,-4,1,-1,-3,-5,-1
138387848372,-3,-2,-7,2,-4,1,2,0
138387848372,1,-5,2,0,3,-6,-6,-3
138387864596,-2,-2,2,1,-2,-2,-1,-2
138387864596,0,2,-1,3,-2,3,2,0
138387866232,1,6,-1,0,0,1,-1,-4
138387866232,1,3,-10,4,-2,0,-1,-2
138387878223,-1,-2,-4,0,-2,-4,0,-3
138387878223,3,0,-2,2,0,1,-4,-2
138387894808,2,3,-3,6,-4,-3,-1,4
138387894808,0,-2,-2,-1,-3,0,-6,-1
138387901443,0,0,-1,1,-2,-6,-3,-5
138387901443,-3,3,0,1,-4,1,-5,-2
138387908309,-4,-2,-5,-2,0,1,-3,-2
138387908309,-8,-2,-2,-6,0,-4,-4,-1
138387924567,1,-5,-5,2,-5,-2,-5,4
138387924567,-4,0,-4,-2,-2,-5,-2,-3
138387926176,-2,0,0,-1,1,1,-4,2
138387926176,3,-7,4,-13,0,1,2,-3
138387938340,1,2,0,-7,0,2,-2,-3
138387938340,-3,-1,-3,0,-4,-3,-2,-3
138387947286,-1,0,-4,1,0,-4,-9,-3
138387947286,-1,-1,-2,-6,1,3,2,1
138387961372,-2,-2,-7,3,3,5,1,2
138387961372,3,-4,-2,3,2,0,0,0
138387968222,-4,-2,1,-4,-2,-3,-1,-4
138387968222,-1,0,2,-3,3,-1,1,3
138387984591,1,0,-3,-3,-1,0,-1,-3
138387984591,2,-2,1,-8,2,-3,3,-5
138387986244,2,-4,2,0,4,-7,-2,-2
138387986244,-1,-1,1,3,-2,-2,0,1
138387998296,-1,3,1,-2,0,1,0,2
138387998296,-1,-1,1,-2,-3,1,-3,-1
138388007271,-3,1,2,-3,0,-1,-2,-2
138388007271,0,-1,4,3,-2,-1,0,-2
138388021525,-3,2,5,-6,-1,-1,-3,-5
138388021525,-3,-8,4,-5,0,-2,2,1
138388028313,2,-8,0,-3,1,0,1,0
138388028313,-3,1,0,4,-5,-1,-1,1
138388044649,-3,-3,-3,1,1,0,-3,-1
138388044649,-2,-3,3,-5,-2,-1,-4,-4
138388046273,-2,-1,1,-1,-1,0,4,1
138388046273,2,2,-5,1,-5,6,2,1
138388058218,2,-2,0,3,-1,0,-1,1
138388058218,1,-1,6,-8,-1,-6,0,-3
138388067289,1,1,-5,0,-2,2,-2,-2
138388067289,-1,-1,1,-4,-1,-3,-1,-4
138388081489,-3,-4,1,2,-3,0,-1,5
138388081489,0,-1,-7,3,-3,3,-4,0
138388088328,0,2,1,2,-7,0,4,5
138388088328,0,-5,-5,1,-1,-1,-5,-1
138388104643,-5,-3,-3,0,-3,-3,1,-2
138388104643,-1,-3,2,-1,2,2,-1,0
138388106201,1,-1,1,-3,-7,1,2,-1
138388106201,-1,7,2,1,2,-2,3,-2
138388118372,-3,1,-1,1,3,-3,3,1
138388118372,-2,-3,-5,-1,-1,0,-1,4
138388134759,-2,-4,0,-2,-2,-4,-1,-4
138388134759,0,-1,-9,2,-1,1,0,1
138388141504,1,-2,-3,1,-1,-3,0,0
138388141504,0,5,-5,4,-2,1,3,-1
138388148301,0,0,-2,9,2,3,-1,-1
138388148301,2,4,-9,5,-2,0,-4,1
138388164643,3,-2,-6,1,-4,2,1,2
138388164643,-1,2,-6,7,-2,2,-1,1
138388166288,2,-2,-1,-2,-3,0,1,1
138388166288,-2,-4,0,6,-7,-6,1,-3
138388178304,-4,0,-5,1,1,-1,-2,0
138388178304,-3,-4,2,-5,-1,0,-1,0
138388187264,1,2,0,-2,1,0,-2,-3
138388187264,-4,-1,1,-2,0,1,2,-3
138388201393,-7,-6,7,-5,-1,-3,-5,0
138388201393,-1,-1,1,-3,3,-2,-2,-2
138388208254,-2,1,-2,7,-3,-1,-1,-2
138388208254,-5,-4,-3,1,4,1,-3,-1
138388224643,2,-5,-6,6,-3,1,2,1
138388224643,1,3,-3,4,-6,-2,1,2
138388226267,-5,-7,-7,0,3,0,-4,0
138388226267,-3,-3,4,-2,0,-3,-1,-2
138388238290,3,-2,-3,2,-1,2,-2,0
138388238290,2,2,2,2,-4,2,-3,2
138388247283,-2,-1,-3,-1,1,-4,-2,-1
138388247283,1,0,0,1,-6,1,0,1
138388261461,2,2,1,-2,-3,-6,2,-2
138388261461,3,1,-10,3,-1,-3,1,0
138388268337,-2,1,1,2,2,0,0,0
138388268337,2,0,-12,-1,-2,-3,2,1
138388284729,4,5,-9,5,-6,-2,-3,0
138388284729,-5,-4,-4,6,0,-1,4,1
138388286247,0,1,0,-1,-4,-6,-1,-2
138388286247,-3,-7,7,-7,2,-6,1,-2
138388298271,2,2,2,-3,-1,2,-1,-2
138388298271,-3,-5,-1,-1,-4,-2,-6,1
138388307344,0,-3,1,1,-1,-2,2,0
138388307344,-3,-4,1,-3,1,-4,-1,-1
138388321969,-2,0,-1,-5,-2,1,-1,-3
138388321969,-1,-4,8,-10,4,-7,-6,-8
138388328206,0,-1,-2,1,2,-6,-1,-3
138388328206,3,-1,1,-4,-1,0,-7,-5
138388344667,-3,-7,4,-2,3,-5,-3,-5
138388344667,1,-1,-2,-3,-3,-1,-1,-1
138388346209,0,-6,0,-7,1,-2,-2,-1
138388346209,1,4,3,-5,2,2,2,-10
138388358339,-2,-1,3,2,1,-2,2,-4
138388358339,-2,-3,2,-1,-2,-2,3,0
138388367297,-3,-5,1,-6,2,-2,0,-6
138388367297,-5,-4,-3,2,-6,2,0,5
138388381449,-3,1,-1,-1,-1,1,0,1
138388381449,-2,5,-4,-1,-4,-1,0,5
138388388306,1,3,4,-2,-2,-3,-1,2
138388388306,0,-2,1,0,-2,2,-1,4
138388404668,-3,-2,-1,-3,-2,1,-4,-1
138388404668,2,-2,0,-2,0,-4,-1,1
138388406296,-2,1,-7,1,-3,1,1,1
138388406296,3,-1,-1,2,0,1,-3,2
138388418302,-1,-5,4,-3,-3,0,0,0
138388418302,2,-1,0,0,3,0,-2,-3
138388427319,0,5,-1,3,-4,-1,-1,2
138388427319,-2,0,-2,2,1,2,-2,0
138388441563,-4,-1,-3,2,-4,-3,2,0
138388441563,1,-5,-3,-2,-1,2,1,0
138388448288,3,2,-4,1,-7,-1,0,1
138388448288,-3,-4,0,-2,-2,-6,2,-1
138388464644,-1,-1,1,-4,1,-2,3,-2
138388464644,1,-2,5,-1,-4,3,0,0
138388466216,1,0,0,-4,-4,-4,-2,-1
138388466216,-1,4,-1,-3,0,-3,0,-2
138388478329,-1,-3,-8,5,-2,0,4,2
138388478329,-7,1,3,-2,-2,-3,-2,0
138388487217,-2,-3,-5,2,0,1,-3,2
138388487217,0,-1,-3,-2,-1,-6,0,-3
138388501527,-4,2,5,-6,2,-6,-7,1
138388501527,-6,-3,-3,0,2,-2,3,-2
138388508289,-5,0,5,-4,-3,0,-4,-1
138388508289,-2,1,-6,4,0,0,1,1
138388524614,-3,4,-2,1,-6,2,-5,2
138388524614,-1,2,-5,5,0,-8,3,0
138388526185,-4,2,-1,1,0,0,-1,-4
138388526185,3,-3,-7,1,-2,1,0,-2
138388538319,-4,-4,2,-1,3,-3,-2,-6
138388538319,1,-2,3,-2,-1,-2,1,-2
138388547324,5,0,0,1,-1,2,-2,-2
138388547324,-2,3,0,0,-1,0,0,1
138388561546,4,0,-3,3,-1,-3,0,-3
138388561546,-3,1,-1,-2,-1,1,-2,0
138388568335,-3,-6,3,-4,-2,-1,-3,0
138388568335,-1,0,-3,0,-3,-2,0,-3
138388584668,0,1,-1,-2,1,-3,0,-1
138388584668,-1,-4,-2,0,0,-4,-3,-4
138388586222,-4,-4,2,-5,-2,0,-1,-3
138388586222,-4,-1,-2,4,1,0,-3,0
138388598349,3,-2,0,-1,-1,-2,3,1
138388598349,5,0,5,-2,0,-1,-4,0
138388607257,2,0,3,1,-2,-2,1,-2
138388607257,-3,-1,-4,1,-3,3,-4,2
138388621533,-4,4,-5,4,1,-3,-3,-4
138388621533,-3,0,-5,1,0,0,-8,-1
138388628277,-1,-1,-5,3,-2,0,3,-1
138388628277,0,3,-1,-1,-3,-2,1,2
138388644636,0,2,-5,2,0,3,-2,2
138388644636,-2,0,-4,0,-1,0,-2,-2
138388646246,-3,-4,-4,4,2,-2,-1,-3
138388646246,-2,-4,7,-5,1,-2,-3,-3
138388658301,3,-1,-7,2,-2,1,2,1
138388658301,2,-3,-2,-2,-2,2,-2,0
138388667350,-6,0,1,-2,-2,-5,0,1
138388667350,-3,-6,-1,2,2,1,-3,-4
138388681538,-3,0,0,-3,-5,1,-1,2
138388681538,2,-1,-9,4,-4,5,4,-2
138388688249,-2,-1,-10,10,0,-1,2,4
138388688249,3,-1,3,-6,-2,1,-3,1
138388703994,-6,0,0,-2,0,-1,-5,-1
138388703994,-2,1,-1,1,-2,-2,-5,1
138388710796,-2,-2,-9,0,0,-1,2,2
138388710796,-4,-3,-3,4,2,-2,1,-4
138388718292,-5,-5,-1,-2,-1,6,-1,0
138388718292,1,-1,4,0,-1,-2,1,-4
138388727318,1,-2,-1,0,-1,-2,1,1
138388727318,-2,5,0,-1,0,-3,-4,1
138388741524,1,1,4,0,0,-2,0,-3
138388741524,-5,-1,4,-6,-1,0,1,-4
138388748290,-3,-3,5,-6,0,3,-1,-1
138388748290,-1,-4,-1,0,3,1,2,-3
138388764031,-3,-4,-5,1,3,0,1,-1
138388764031,-4,-1,-4,0,3,-3,-5,-2
138388770766,-2,-2,-3,0,-3,2,1,-7
138388770766,-6,0,-5,-1,-2,-5,0,-2
138388778204,-5,1,0,1,0,5,-1,1
138388778204,-1,2,-3,1,0,1,3,1
138388787291,-2,-1,1,-4,-1,2,3,-2
138388787291,4,2,1,0,-3,-2,-1,0
138388801495,-3,-4,5,-3,-1,-4,1,0
138388801495,-3,-1,-1,-4,-1,-3,4,0
138388815732,-1,-2,3,-5,-3,2,-3,-3
138388815732,1,0,-1,-2,-2,-2,0,0
138388823960,2,-3,4,-5,0,-4,-2,-8
138388823960,0,-3,3,-2,-4,3,-2,-4
138388830774,0,-2,-4,-2,-3,-3,-2,-1
138388830774,0,-3,-5,4,-2,-5,3,-1
138388847148,7,1,-2,-4,-1,0,-1,-5
138388847148,-2,-1,-8,7,0,-5,-1,2
138388848765,-3,0,5,-8,0,-3,-9,-5
138388848765,-8,-5,6,-3,-3,4,-2,1
138388861464,-3,0,-2,1,-3,-1,0,-3
138388861464,-5,-2,4,1,-4,-6,0,0
138388868306,0,3,-5,3,0,-3,-3,0
138388868306,0,-1,-3,-3,1,-2,-3,0
138388884057,0,1,-1,-2,0,2,-1,0
138388884057,-2,-2,-2,-1,-4,0,0,-3
138388890820,-2,0,-1,1,2,-4,1,-2
138388890820,2,1,-3,2,-2,6,1,-1
138388907177,0,-5,-4,-1,-1,0,-1,3
138388907177,-5,0,-1,1,5,-4,0,-4
138388908747,1,1,-2,3,-3,2,1,2
138388908747,-2,2,-1,2,-3,-2,4,-1
138388921536,2,-1,-4,-3,-3,-1,0,3
138388921536,0,6,1,-4,-3,-1,-7,3
138388928271,-2,-2,4,-2,-1,-2,-1,-5
138388928271,0,-7,-3,6,4,-3,1,-2
138388944046,2,-5,-2,4,-2,-3,1,-3
138388944046,-2,-8,-4,2,-5,2,1,-2
138388950792,0,-4,-7,1,2,0,1,3
138388950792,0,-3,2,-6,-2,-1,0,1
138388967080,-4,-2,0,3,3,-7,-2,2
138388967080,-2,-3,-6,0,0,-1,-1,3
138388968688,-4,0,0,3,-3,-2,-4,-2
138388968688,-3,0,1,0,-1,-3,0,-1
138388981515,-3,-2,-2,3,-5,1,3,3
138388981515,3,0,0,-1,-5,-1,1,-2
138388988274,-2,-2,-1,-1,3,-3,2,-2
138388988274,2,-1,-7,5,-3,0,-3,0
138389003955,-2,-4,-3,2,-2,0,3,1
138389003955,1,-1,2,-3,1,-1,1,1
138389010861,7,6,-5,6,-2,-1,0,4
138389010861,0,-1,-2,1,-1,-5,-1,1
138389027157,-1,-5,0,-4,0,-4,-7,-6
138389027157,1,-2,-2,0,-2,-1,0,1
138389028708,1,-2,1,2,-8,4,-6,-1
138389028708,0,2,-1,2,3,-4,-1,-1
138389041518,-2,1,-2,1,-1,-5,-1,0
138389041518,-3,-4,-4,3,1,-2,1,-3
138389048346,-3,-4,-4,3,2,-6,-2,2
138389048346,-3,-2,-2,-1,-2,0,-2,-1
138389064024,1,2,4,-2,-4,-6,-3,-2
138389064024,0,-2,0,-1,1,-2,-3,1
138389070870,2,-1,-3,3,-1,2,0,0
138389070870,-5,-1,-2,-8,0,0,-5,-2
138389087168,-3,1,0,0,4,0,-5,2
138389087168,-1,3,-2,2,-1,-2,1,0
138389088765,2,0,0,-2,-4,-4,-3,-1
138389088765,-6,-4,6,-1,-4,1,0,-2
138389101457,-1,0,-9,2,1,5,2,-3
138389101457,-2,-6,0,0,-2,0,-4,-3
138389108226,-6,-3,-7,3,3,3,1,-3
138389108226,4,-2,1,-4,-3,0,1,-2
138389123981,-1,3,-9,4,-6,-3,-2,0
138389123981,1,0,-5,6,-2,-1,-1,-2
138389130788,-1,2,18,8,-3,-1,3,-2
138389130788,-5,-3,17,12,-2,2,-1,-6
138389146181,2,-1,9,15,-3,-1,-2,-2
138389146181,1,-3,-17,16,-1,-2,0,1
138389154866,2,-1,-18,2,0,0,-2,-3
138389154866,-2,4,-9,-14,-1,-3,-3,-3
138389161580,-1,2,-3,-9,-1,-3,1,-1
138389161580,-2,1,5,-21,1,3,-1,-4
138389168319,-5,2,-5,1,2,3,1,-1
138389168319,-2,-5,-10,-5,1,-2,-2,3
138389184045,-1,0,3,-9,1,0,0,-4
138389184045,2,-4,1,5,-2,1,-3,1
138389190818,-2,-3,10,-13,-1,-1,1,1
138389190818,1,-1,-2,-7,-2,0,-3,1
138389207179,-2,-3,0,-8,0,-3,0,-4
138389207179,1,6,1,-3,-5,-2,0,4
138389208784,-5,4,-2,-4,-6,-2,-5,-3
138389208784,2,0,-10,4,0,0,3,1
138389221572,1,2,-11,13,0,2,2,4
138389221572,1,2,-8,17,-8,4,1,1
138389228291,-3,-3,-1,40,-6,-4,-2,0
138389228291,-1,1,2,92,-13,0,0,-2
138389243972,0,-2,56,120,-20,2,-1,-4
138389243972,-1,1,-11,57,-8,-2,0,-1
138389250731,1,-2,8,3,-4,-2,0,-2
138389250731,1,1,-15,-67,12,-4,1,0
138389267164,-2,-1,20,-102,14,-2,-3,2
138389267164,-3,-3,15,-91,17,-1,-2,1
138389268707,3,-3,30,-54,0,0,1,0
138389268707,3,-3,-33,-48,4,-2,2,4
138389280791,-1,-4,-49,-16,1,1,-1,2
138389280791,1,-5,-21,-37,5,1,-3,-2
138389289803,-2,4,-25,-13,3,-4,-4,-3
138389289803,-2,4,17,15,-8,-6,-4,-3
138389304006,-2,2,-1,12,-9,2,-4,3
138389304006,0,1,10,22,-7,-3,-1,0
138389310808,4,-2,8,35,-9,-1,7,1
138389310808,0,0,15,25,-9,1,-2,-3
138389327129,2,-2,-8,3,2,-1,-4,-4
138389327129,0,5,7,29,-13,-1,2,-3
138389328709,0,0,-3,28,-8,-2,1,3
138389328709,-1,-1,1,9,-2,3,-1,-3
138389340830,2,0,-10,5,-4,-4,2,-1
138389340830,-4,-6,7,-1,0,1,1,-3
138389349788,2,0,-9,12,-3,2,0,-2
138389349788,-3,-8,0,0,-1,-2,2,1
138389372190,-2,0,-2,-1,-3,-1,-3,-4
138389372190,0,-1,0,14,-2,-2,-5,3
138389373735,-2,0,-4,-15,3,-4,-5,0
138389373735,-1,-2,3,-17,-1,1,-4,0
138389387686,1,-7,0,-14,-1,3,-1,-6
138389387686,0,-5,-3,-13,5,-2,-3,-4
138389389195,-1,-5,-10,-5,-1,2,-2,-4
138389389195,0,3,2,20,-6,1,-5,2
138389400785,-3,-2,-5,31,-8,0,0,5
138389400785,-2,1,-5,16,-9,-3,-3,-3
138389409842,-2,-1,-1,13,-2,-2,3,2
138389409842,0,-1,0,-10,4,-3,-5,-4
138389423939,-3,-1,0,-22,0,-3,-2,-3
138389423939,-5,0,0,-8,-5,-1,4,4
138389430774,-3,0,2,-8,0,-3,-5,0
138389430774,1,-1,-8,-21,5,0,1,-3
138389447131,-5,0,-2,-16,1,-2,-2,2
138389447131,-2,1,-1,12,-2,-1,-3,-1
138389448734,1,1,-1,-15,2,-3,-5,-4
138389448734,-3,-5,-3,12,-5,-3,-4,1
138389460748,2,-2,-3,7,1,-6,-4,1
138389460748,0,-1,-4,12,-3,1,2,2
138389469747,-2,-5,-7,5,1,-5,1,-5
138389469747,-3,-3,12,-6,4,-2,0,-3
138389483946,-1,-1,4,-18,2,1,2,4
138389483946,-3,-1,8,-6,2,-5,0,1
138389490752,2,-1,-1,1,0,3,-3,3
138389490752,1,-2,-5,4,-3,-1,0,1
138389507090,1,0,-2,15,2,2,-2,-3
138389507090,0,-1,-1,5,0,1,-1,0
138389508698,-7,-8,-8,5,-2,1,-3,0
138389508698,-3,1,-3,-2,0,-4,1,-2
138389520777,-4,-5,-2,-1,-3,-1,-2,-4
138389520777,-2,-3,2,-11,-1,-2,-2,-6
138389529734,-2,-1,-1,-5,0,-1,0,-1
138389529734,-4,-5,3,-4,-1,-1,-3,3
138389544014,0,-1,-5,-4,2,0,0,-2
138389544014,-5,-4,0,-6,0,-3,-3,2
138389550774,-2,1,-1,-1,3,-4,3,0
138389550774,-4,-1,2,0,-2,0,2,-4
138389567134,2,0,-4,-2,0,-2,-4,0
138389567134,-3,1,-2,-4,-1,-6,4,-7
138389568757,0,0,8,-8,-2,-1,-2,-2
138389568757,0,-1,4,-5,0,-5,-3,-3
138389580748,3,1,1,-3,0,-3,1,2
138389580748,2,0,3,4,-4,2,-3,1
138389589787,-3,-2,-3,-4,3,2,-5,-2
138389589787,3,-2,-4,-5,2,0,-2,-3
138389603939,-3,-6,2,-3,-4,1,0,-4
138389603939,-2,-5,1,-1,0,-1,-2,4
138389610749,0,-2,-5,-3,3,5,0,0
138389610749,-1,2,0,-1,-3,-2,-2,-4
138389626473,0,-1,0,2,6,1,-1,-5
138389626473,-3,-3,2,-3,3,2,1,-2
138389633209,4,-1,-5,-2,-2,-3,-2,2
138389633209,-2,2,-5,6,-2,-4,-2,0
138389640763,1,1,-4,2,-7,-3,3,-3
138389640763,0,5,-2,3,-2,-1,-2,1
138389649738,-2,-3,5,-3,-1,1,-1,-3
138389649738,-1,-5,-3,-1,1,-1,1,3
138389663953,-2,0,3,-6,-3,-2,0,-1
138389663953,3,-3,-2,2,1,0,-3,1
138389670754,4,0,0,0,-1,-4,-1,0
138389670754,0,-4,-2,1,-6,-5,2,1
138389686440,-1,3,-1,0,-1,-2,-2,1
138389686440,5,1,2,1,-2,1,0,-1
138389693300,2,2,-6,6,-5,-6,-2,1
138389693300,-2,-1,1,-3,-1,2,-5,-4
138389700778,-2,-4,-5,6,-1,2,1,-1
138389700778,-1,2,-8,2,0,1,-5,2
138389709774,1,-1,-2,-1,-1,-3,1,0
138389709774,0,-1,-5,0,0,3,-4,1
138389723988,-3,-2,-2,3,2,-4,-2,2
138389723988,-2,-4,-3,0,-3,0,2,-4
138389738291,-3,-6,2,-5,4,3,-7,-4
138389738291,-1,3,5,-1,-1,-2,1,-2
138389754664,-5,-2,3,-2,2,-5,-4,2
138389754664,-1,1,-2,1,2,-2,-2,0
138389756254,-1,7,-14,6,-1,3,3,3
138389756254,2,1,-7,6,-3,-2,-3,-2
138389769625,-2,1,-2,2,0,-1,-5,-3
138389769625,6,-3,-1,0,-3,0,-1,-3
138389771228,-5,0,0,0,0,-1,-2,-2
138389771228,1,2,-4,-2,1,3,0,-1
138389783985,0,-3,-7,4,-4,-1,1,0
138389783985,-1,1,-5,4,-8,-9,0,-6
138389790735,3,-4,0,-1,-4,2,-4,-6
138389790735,-3,1,-2,-4,3,-4,-2,4
138389806454,4,2,1,-2,-4,3,-3,-5
138389806454,-1,-2,-4,0,2,1,-4,1
138389813268,-4,1,-3,-2,-4,-4,2,-2
138389813268,0,0,-2,1,-5,-1,-3,1
138389829608,-2,-8,-1,2,-5,-4,-2,-2
138389829608,-2,-5,-3,-2,-1,-5,0,0
138389831205,-6,-2,2,-3,5,0,0,-1
138389831205,-5,-5,1,-6,2,1,-3,-5
138389843947,-1,-5,2,-3,2,-2,-1,0
138389843947,-2,2,-3,-1,-2,-1,-2,-1
138389850801,-2,2,6,-6,-3,-5,-3,-1
138389850801,-2,-5,6,-6,3,0,2,-4
138389866534,2,3,3,-11,0,-1,0,0
138389866534,-4,-1,5,-4,3,-1,-2,0
138389880779,0,-4,-3,-2,-3,-3,-1,-4
138389880779,0,0,-12,12,-5,-2,0,2
138389889649,-5,-2,-4,0,-1,0,0,-3
138389889649,-2,-5,4,-4,2,1,0,0
138389891231,2,0,3,-7,-1,2,-4,1
138389891231,1,-2,5,-4,3,1,-5,-5
138389903991,-1,1,0,-1,0,0,-2,0
138389903991,2,-1,-2,1,-1,-2,0,-4
138389910787,1,-1,4,-5,-2,-3,-1,3
138389910787,-3,2,-1,-1,-4,-1,-1,-1
138389926488,0,0,3,0,2,1,-4,1
138389926488,1,1,1,-2,-1,-4,-3,-1
138389933241,3,0,-3,3,0,1,5,-3
138389933241,-3,0,3,1,-1,-2,-1,2
138389949611,-1,2,-3,0,-1,-2,2,-1
138389949611,-4,-2,1,-2,-3,3,3,-2
138389951256,0,-3,-2,2,1,-4,0,1
138389951256,0,4,3,-2,-4,-4,4,-2
138389963952,1,2,6,-3,3,-3,-3,-5
138389963952,-7,0,-1,0,-2,0,1,2
138389970793,-2,-5,-3,-2,-4,4,-1,-3
138389970793,1,-5,-7,6,0,-3,5,0
138389986516,-3,-4,-6,1,-5,-3,-3,1
138389986516,1,1,-9,7,2,0,-5,-2
138389993279,0,1,2,5,-1,-6,-3,0
138389993279,-1,-6,4,-3,-1,0,2,-5
138390009666,-2,-1,3,1,-1,0,3,-2
138390009666,-1,-6,-1,1,3,-1,-1,-3
138390011252,2,-3,-8,3,-1,0,-5,1
138390011252,-2,-1,-8,1,-2,-1,4,3
138390023932,-1,3,-6,5,-1,-1,-2,-1
138390023932,0,0,0,3,-1,-4,1,-2
138390030777,-4,-4,-2,-3,1,0,1,-4
138390030777,0,-1,-4,4,-2,1,-6,-2
138390046538,-3,4,3,1,1,-1,1,0
138390046538,-2,2,0,0,0,-2,-3,-3
138390053236,0,3,1,3,1,-5,2,1
138390053236,0,-6,-2,-4,0,-1,-4,-1
138390069650,-4,1,-3,-2,-4,0,-3,3
138390069650,-2,0,-4,3,1,1,-3,1
138390071199,-2,-1,0,-2,-1,-4,0,-1
138390071199,-2,0,5,-8,2,-4,-4,0
138390083954,-1,-2,-6,2,1,0,2,1
138390083954,1,-3,2,-2,-4,-1,2,0
138390090755,-6,-4,0,-1,-4,1,0,1
138390090755,-3,-3,-4,4,3,-2,2,-3
138390106475,2,-5,-2,-1,1,-2,-1,-7
138390106475,-1,0,-7,2,-1,-3,1,-4
138390113298,-1,-2,-7,3,0,-2,-5,1
138390113298,-1,1,1,-4,0,-2,-5,-3
138390130052,0,-3,-7,3,0,0,1,3
138390130052,-3,1,-5,5,0,-1,-3,-3
138390131673,-1,-3,-3,1,4,-2,-1,2
138390131673,-3,0,0,-1,-5,1,-3,-3
138390143976,-3,1,1,1,-1,-3,2,-4
138390143976,-2,1,-4,-3,-4,0,3,3
138390150771,-3,0,-2,0,-1,6,-1,-5
138390150771,-2,0,-9,4,0,1,-4,-1
138390166472,5,3,0,1,-3,-2,2,1
138390166472,3,0,-3,-3,-4,-5,-6,-3
138390173237,-2,-2,2,3,-4,-4,0,-1
138390173237,2,1,2,-1,-5,2,-4,1
138390189617,1,-5,-3,0,-3,-1,0,0
138390189617,1,-2,-6,7,-6,4,-3,1
138390191236,-1,3,-8,1,0,0,-3,-3
138390191236,-1,-1,-8,4,-5,5,2,-1
138390203957,-3,-7,-3,-3,-3,1,-4,0
138390203957,-4,-1,8,-4,4,-4,-3,-5
138390210757,1,0,1,-3,1,0,-3,-3
138390210757,2,0,-2,-1,3,-3,-2,1
138390226468,-3,-1,3,-2,6,-3,-5,0
138390226468,-1,-3,4,-3,0,-1,-4,-1
138390233331,-1,2,-4,1,-2,-4,-1,2
138390233331,-2,-4,-3,-2,2,0,3,-1
138390249616,0,-1,-4,1,-3,-5,1,1
138390249616,0,2,-6,0,-2,-1,0,-2
138390251250,2,1,-3,0,-2,3,0,-3
138390251250,0,-4,-5,-2,0,-3,3,3
138390263707,-1,-5,-2,-1,-2,-3,2,-3
138390263707,-2,0,1,0,-2,-2,3,1
138390272925,-2,-4,2,-1,0,-4,-1,2
138390272925,-4,-2,3,-3,4,-7,-2,-4
138390286499,-3,2,2,-1,-1,1,-4,-2
138390286499,1,-1,1,-1,0,5,1,0
138390293288,-2,-8,4,-4,-1,-2,-3,-2
138390293288,-1,-2,7,-3,0,-3,-2,0
138390309637,-3,3,3,-1,-2,-3,0,-1
138390309637,0,-1,-5,3,-1,3,-1,1
138390311215,-2,1,-6,4,-5,-2,-3,1
138390311215,1,3,-2,2,-2,-3,-1,-1
138390323302,-4,-1,0,0,1,0,-1,-1
138390323302,3,2,-5,5,-1,-4,-4,-4
138390332266,-5,-5,7,-9,0,1,3,0
138390332266,-1,0,6,-5,-6,0,-3,-3
138390346464,2,3,-2,1,-2,1,-3,-3
138390346464,1,-4,-2,-7,-3,-1,4,2
138390353316,5,-3,-5,1,-4,-2,1,-2
138390353316,-4,-6,-7,1,2,0,-2,-1
138390369605,-2,0,-25,4,-4,-3,1,2
138390369605,0,2,-29,5,-3,-2,-2,1
138390371299,-1,2,11,-3,-4,-5,-3,-2
138390371299,-1,3,28,-4,1,-2,-1,1
138390383267,1,-3,33,-11,3,0,1,-6
138390383267,-8,-8,32,-18,8,-4,2,-5
138390392314,-4,-5,5,-4,0,0,-2,-3
138390392314,-2,1,-1,-3,-4,-2,0,-2
138390406507,-2,-3,-6,2,0,2,-1,1
138390406507,2,0,-7,4,-3,0,-3,0
138390413252,3,3,-18,3,-5,1,1,-1
138390413252,-3,-4,-12,0,-1,-5,-3,-4
138390429700,-3,-2,-9,2,-3,2,-2,-3
138390429700,1,-6,-6,7,-6,1,3,-2
138390431256,-4,0,-2,5,2,-2,-1,1
138390431256,2,0,-3,1,-3,-4,6,3
138390443340,2,3,0,-2,2,-1,-5,-1
138390443340,1,-2,4,1,1,-1,-3,-1
138390452289,0,2,1,2,-3,-2,-2,-2
138390452289,2,-3,-5,1,-4,5,-4,0
138390466478,1,-1,-2,-2,-2,-3,0,-3
138390466478,-3,0,-3,4,-2,-1,-3,3
138390473258,-3,-4,-3,-1,-1,-3,-2,-1
138390473258,-2,-5,-1,0,1,-1,-3,-4
138390497164,-5,0,5,-2,-1,0,-2,3
138390497164,-2,3,2,-1,2,-4,-4,-1
138390498741,-3,-1,4,-4,3,-4,-1,-1
138390498741,-3,1,-7,3,-2,5,5,1
138390503264,-3,-5,-7,1,1,-3,-2,0
138390503264,-1,1,-2,0,-4,-1,1,-1
138390512304,0,3,-11,4,-4,-1,2,0
138390512304,2,2,-2,1,-1,-5,-2,-4
138390526495,2,2,-4,1,0,0,4,-1
138390526495,2,1,2,1,-3,-1,-1,0
138390533304,-1,-5,-3,-4,0,5,1,0
138390533304,-4,0,1,0,-3,-5,0,-2
138390548976,0,-1,-2,0,-3,-4,-1,-1
138390548976,-5,-4,1,4,2,-2,-1,-4
138390555761,-3,4,-3,4,-2,-5,-6,-2
138390555761,-2,-1,-3,3,-4,3,-1,0
138390563276,2,-1,1,2,-1,-2,-3,-5
138390563276,1,-2,1,0,-1,-1,0,3
138390572334,2,2,2,-5,-2,-4,-2,0
138390572334,-1,0,-6,1,-2,0,-4,-1
138390586485,-1,-5,5,-3,3,1,-2,-1
138390586485,-6,1,2,-6,-1,2,1,-4
138390593285,-2,-4,4,-3,0,-5,-1,-3
138390593285,0,-1,0,0,0,3,-1,1
138390609008,0,-6,-5,-3,-2,0,2,2
138390609008,0,-2,-5,1,-3,0,-2,0
138390615771,0,0,-1,0,3,4,0,-2
138390615771,-1,-1,0,-2,2,-5,-2,-3
138390623275,-1,-5,-5,3,0,-2,-1,-1
138390623275,-1,-1,4,2,-1,-1,-1,-4
138390632300,-4,-3,0,-1,-1,-2,-1,-4
138390632300,-4,-1,5,-5,-1,0,-2,-2
138390646482,-5,3,-2,0,2,-2,-2,1
138390646482,-5,1,-8,0,1,-1,-4,3
138390653273,1,-2,-5,2,-3,2,2,-1
138390653273,1,-1,-7,2,-3,0,0,0
138390668971,5,-4,-1,6,2,-3,-3,1
138390668971,-1,-2,2,-4,-1,1,0,-5
138390675774,-1,-2,-1,-1,2,3,-6,1
138390675774,-5,-8,2,-5,1,-2,-2,-1
138390683241,-2,3,-1,3,-1,-2,0,1
138390683241,-1,-1,-4,2,-2,0,1,-2
138390692306,-2,-4,-3,-4,0,-4,-5,-1
138390692306,-3,-4,4,-4,0,-3,0,0
138390706469,-6,0,-8,0,-4,-1,0,-4
138390706469,1,-2,0,7,-2,-3,0,-1
138390713246,-3,-2,11,-3,-3,0,-1,-2
138390713246,-2,-1,7,-3,1,2,0,2
138390728980,-4,-3,11,-12,2,-3,-1,-2
138390728980,2,-2,-3,-7,-1,0,0,2
138390735773,-1,-2,-1,-2,-5,-2,2,-1
138390735773,2,-3,2,1,2,3,-4,-4
138390752195,-5,0,-1,2,-1,5,0,-3
138390752195,-1,0,-2,2,-1,-6,-5,-3
138390753801,-2,1,-4,0,-3,-3,2,4
138390753801,-3,-3,0,-5,-1,-2,0,-3
138390767283,1,0,-4,1,0,0,0,-1
138390767283,-4,-4,-1,-3,2,0,-4,-3
138390773318,1,-2,-3,-1,-1,-1,1,-2
138390773318,-2,-1,-5,-1,-2,-1,-2,-3
138390788313,1,-1,-2,6,-4,2,0,-3
138390788313,-2,-2,0,-5,-2,-2,-3,3
138390795814,-2,-3,-3,-5,3,0,-7,-6
138390795814,2,3,-5,2,-3,3,-1,-2
138390811504,-4,-2,1,-2,0,-1,-5,-2
138390811504,0,3,-3,3,1,-1,2,-1
138390812334,-6,-3,2,-1,-2,0,0,1
138390812334,-2,-2,-2,-2,0,-4,4,3
138390827342,-1,-1,0,-2,-3,1,-1,0
138390827342,1,1,0,1,1,-1,-7,0
138390833381,-1,-4,-3,-2,-2,-1,0,0
138390833381,3,1,-1,3,1,-7,0,3
138390848352,-2,1,-3,-2,0,-1,1,1
138390848352,0,-3,-3,0,-3,-1,1,-1
138390855819,0,1,-2,4,-4,-1,-1,1
138390855819,-3,1,-4,2,-5,-4,-1,-3
138390871491,0,-2,-9,4,-3,-2,-4,-1
138390871491,-2,-1,-3,4,-3,-2,4,1
138390872270,-2,-5,-4,2,-3,1,0,-2
138390872270,-3,-1,-6,3,1,1,-4,0
138390887376,3,-1,3,-2,-1,-2,-3,-1
138390887376,-1,-3,0,-1,-1,-2,3,-1
138390893331,-3,0,-9,0,0,-3,0,-7
138390893331,1,-1,-5,6,-4,-3,0,-3
138390908301,-4,-1,-1,0,-2,-2,2,-2
138390908301,-3,-3,-1,3,-2,-3,1,-3
138390915772,0,-4,0,1,0,3,3,-1
138390915772,-2,6,-5,-2,-3,-4,-2,-4
138390931479,2,5,-9,-1,-3,-2,1,0
138390931479,-7,-4,-2,-7,-2,-2,-1,-4
138390932302,3,-6,-2,-3,-2,-2,-2,-4
138390932302,-2,-7,-1,-4,1,-2,-6,0
138390947370,0,-1,-3,4,-1,0,-2,-2
138390947370,2,-5,5,-4,2,-3,-2,-3
138390953346,-5,-2,6,-6,4,-2,-4,0
138390953346,5,-3,4,-3,-1,-1,-3,-2
138390968346,0,2,3,-5,1,-4,-6,0
138390968346,-2,-2,-1,0,-2,-2,-3,-1
138390975803,1,4,-5,0,4,3,-6,-4
138390975803,-4,-6,4,-6,-1,-1,4,-4
138390991597,-1,-2,3,-2,0,-1,-1,0
138390991597,1,2,-4,0,0,1,3,-4
138390992357,0,5,5,-4,4,-2,-1,-3
138390992357,0,1,-5,-1,0,0,-2,3
138391007319,4,3,-3,2,-3,1,3,-3
138391007319,0,-3,-6,-3,-4,-4,-2,3
138391013409,2,0,3,2,-2,-4,4,5
138391013409,0,0,-2,-2,-5,2,4,-1
138391028369,0,-7,0,-3,0,-2,1,-2
138391028369,1,5,-2,3,3,2,-3,-5
138391035864,-1,-4,-8,5,-1,0,2,0
138391035864,-3,-1,1,-1,0,-6,0,-4
138391053086,-2,-2,-6,2,0,-3,-1,2
138391053086,-3,4,0,3,1,5,-5,0
138391053805,2,-2,-8,5,-5,-1,-4,1
138391053805,-1,-1,6,-3,-1,1,-1,0
138391067362,-3,-1,4,1,-2,3,-1,4
138391067362,-3,-4,1,-4,0,-3,-1,2
138391073375,5,7,-1,-1,-5,-4,-3,-2
138391073375,1,4,-10,5,-5,2,-2,0
138391088346,-6,-5,-2,-1,1,-1,-2,2
138391088346,3,-3,-7,3,-1,2,2,0
138391095861,-5,-1,-1,2,-1,0,-5,-3
138391095861,1,4,-5,0,0,-5,-5,-1
138391111520,0,2,-4,-2,-5,1,-1,-5
138391111520,-2,3,4,-1,2,0,-1,-1
138391112333,-4,3,-3,-5,-3,-2,1,0
138391112333,-4,-5,5,-1,-1,2,0,-3
138391127432,-2,-2,-3,4,4,-2,-7,-5
138391127432,3,3,0,0,-2,-2,-1,-3
138391133373,0,-3,-2,1,-2,1,3,-6
138391133373,0,-4,-2,-2,-4,0,-2,1
138391148408,-1,-5,-2,4,2,-1,-1,2
138391148408,2,-2,3,-4,-2,-5,0,0
138391155903,2,0,1,0,0,-1,-4,-2
138391155903,2,1,-1,2,-1,4,-2,3
138391171457,-3,-3,7,1,-1,-4,2,-7
138391171457,-1,0,-10,1,-4,1,-2,2
138391172297,-6,-3,4,-2,-1,-4,-2,0
138391172297,0,-3,-3,4,1,3,0,-2
138391187305,0,1,-8,4,-1,0,2,-1
138391187305,-1,0,1,2,-3,-4,-4,-2
138391193372,-4,0,-2,-4,5,-1,2,-2
138391193372,-2,-5,-5,1,0,-2,0,0
138391208374,-4,-1,-3,5,-3,-1,2,0
138391208374,-3,-3,1,-7,-4,-1,-4,-7
138391215865,2,-1,0,1,-1,-5,-3,1
138391215865,0,1,7,-1,0,-7,-3,-2
138391231491,-2,-6,1,-3,1,0,0,1
138391231491,-4,-2,-5,-3,1,2,3,-2
138391232287,1,-3,1,-1,-1,-1,-3,2
138391232287,-2,0,2,-4,0,-5,-1,0
138391247260,-1,4,-2,1,-6,2,0,-1
138391247260,-5,0,2,2,0,-4,0,-3
138391253336,-1,-3,-3,1,-1,0,-3,-1
138391253336,-2,-1,-2,0,-2,2,-1,0
138391268346,1,-5,-6,0,2,4,-1,-1
138391268346,2,-1,-6,3,1,4,-2,0
138391275817,-2,-2,-3,-4,-3,2,2,1
138391275817,-3,-1,1,-1,0,-4,-5,3
138391291493,3,-3,1,-1,-2,-1,-4,0
138391291493,0,-6,4,-1,-1,-4,-7,2
138391292263,-4,-5,-4,2,-1,-3,-2,3
138391292263,2,0,-10,5,1,-2,1,0
138391307339,1,3,-4,-1,-2,-5,-4,1
138391307339,-3,-4,-8,4,-2,0,7,2
138391313375,1,-1,3,-6,1,-6,1,-1
138391313375,-1,-4,1,-3,-1,0,1,-3
138391329883,2,0,1,-7,-2,-1,-2,-5
138391329883,4,0,-8,2,-8,-2,2,4
138391335874,-3,-1,2,-2,-5,0,-1,-4
138391335874,-3,-5,-1,-7,-1,-1,-2,-4
138391351449,-4,-6,8,0,3,-4,-4,-3
138391351449,-5,-5,-4,2,-3,3,-1,4
138391352252,-2,-2,0,-1,2,-3,2,1
138391352252,1,3,1,1,2,0,1,0
138391367333,-3,-1,-9,3,-4,5,2,2
138391367333,-3,-1,4,-4,-2,-1,2,1
138391373267,2,-3,3,-1,2,0,-1,2
138391373267,-1,-1,-6,3,2,1,3,-2
138391388365,-2,-1,2,-6,-2,-4,0,5
138391388365,0,-4,-4,0,-3,0,-3,-3
138391395889,-4,1,-7,4,-2,-1,-2,0
138391395889,-5,0,-7,0,-3,-4,4,3
138391411518,-2,-8,1,0,2,1,5,0
138391411518,0,-2,7,-2,6,-5,-2,-3
138391412270,2,3,-6,0,-5,5,3,-1
138391412270,0,1,4,-1,-4,2,-5,-2
138391427293,-2,7,-9,2,0,-3,4,-1
138391427293,1,2,0,-2,-2,-3,-2,2
138391433330,2,0,-9,4,-2,4,2,-2
138391433330,5,-2,-4,0,-2,-2,-2,1
138391448374,-1,3,1,-5,1,1,-5,1
138391448374,4,3,-2,-3,-2,-1,0,-2
138391455840,-2,1,-3,4,-1,1,-1,4
138391455840,-1,-2,3,-3,-5,3,-1,0
138391471554,4,-1,-4,-1,-3,-1,-2,2
138391471554,-1,-2,-5,1,-1,0,2,0
138391472369,-5,-5,3,-3,-1,-5,-4,4
138391472369,0,1,-7,3,1,1,0,0
138391487327,2,1,-3,3,0,-3,-1,-4
138391487327,4,1,-1,4,-1,1,-2,3
138391493354,-3,-1,-2,1,0,-3,-2,2
138391493354,-4,2,-3,3,1,-1,0,3
138391508331,-5,-5,3,-6,0,-3,0,-1
138391508331,-3,-2,-10,4,-1,5,-3,2
138391515882,0,-3,-2,3,1,-2,1,-5
138391515882,-4,-1,1,1,3,-6,-5,-6
138391530871,4,-6,-6,-1,-2,-2,3,0
138391530871,-3,1,1,1,-3,-2,-4,-4
138391538408,0,2,4,-3,-1,-2,0,-2
138391538408,-3,-4,6,1,0,-1,-2,-5
138391547372,3,2,2,1,-5,-1,-2,-3
138391547372,7,3,-2,2,-6,-2,-3,3
138391561526,0,1,-8,5,-2,3,-1,1
138391561526,2,0,-5,1,-2,0,1,-2
138391568382,0,1,-5,2,0,0,-4,0
138391568382,-4,-6,-7,-3,-4,3,0,-7
138391575835,-2,1,-7,5,-5,3,2,-1
138391575835,1,1,-10,4,-2,0,2,4
138391590877,-6,-6,4,-4,-1,-6,1,-4
138391590877,-3,-5,3,-8,1,-6,-4,-6
138391598359,1,-2,3,0,0,-1,4,-2
138391598359,-1,-2,-2,0,3,0,-4,-3
138391607344,0,-1,-1,0,-1,0,1,-1
138391607344,-6,2,1,-4,2,0,-4,-1
138391613375,0,-4,-1,-7,0,0,-1,-2
138391613375,2,2,0,-1,-3,-4,-1,-4
138391628436,1,2,-9,11,-3,1,1,2
138391628436,-1,-3,2,-8,6,-3,-2,-1
138391635852,2,-1,-1,-2,-2,-8,-3,-3
138391635852,-1,-4,-2,1,-1,0,3,1
138391650840,-6,-4,0,-4,1,-2,-6,-3
138391650840,-4,0,2,5,-3,1,2,1
138391658381,1,3,-3,-1,-2,-3,-5,-2
138391658381,-2,-3,-3,0,-2,2,1,-3
138391673993,-5,-7,4,-5,1,-1,0,-1
138391673993,1,-3,-6,7,-5,0,1,1
138391674841,1,1,1,1,-3,-3,-6,1
138391674841,1,0,1,0,-3,-1,-3,3
138391688322,-1,4,-3,-3,-1,2,-4,-1
138391688322,-2,4,-6,2,-2,-1,-4,-4
138391695837,-4,-1,-2,3,-4,2,1,0
138391695837,-2,-6,-1,1,-2,1,0,-3
138391710866,3,-3,1,-2,-2,-4,-3,-3
138391710866,2,-9,2,-1,5,-1,0,-3
138391718371,-6,-3,2,-6,-2,-5,0,-3
138391718371,-2,2,3,-5,2,-2,-3,-3
138391734021,-1,-3,1,-1,-3,-1,-4,3
138391734021,-3,1,1,0,1,-2,-4,-1
138391734772,0,-6,6,-6,-1,-1,-2,-6
138391734772,0,-6,-3,2,-1,-2,0,-1
138391748366,-4,-2,-1,-4,1,2,0,2
138391748366,0,0,-2,-4,-5,3,3,3
138391755906,-1,-1,-4,2,0,-1,0,4
138391755906,2,2,1,-3,1,3,-5,0
138391770834,-1,3,4,3,-2,0,-1,1
138391770834,5,4,-4,0,2,-2,2,-1
138391778319,-3,-1,-4,-2,-3,3,2,1
138391778319,-4,-2,-5,4,-2,-2,3,3
138391794007,1,0,-5,1,-2,0,1,-3
138391794007,-5,-8,-1,-1,-2,-1,3,5
138391794807,2,-5,-2,-1,1,2,1,-2
138391794807,-5,-3,2,1,-2,-4,4,3
138391808260,0,-1,-1,2,-2,1,3,0
138391808260,1,4,-4,-3,-6,-5,-3,-1
138391815873,3,-1,2,-1,-3,-1,-1,-4
138391815873,0,-4,3,-5,-2,-2,2,2
138391830927,-2,-2,-7,2,1,-1,3,-3
138391830927,-5,-2,-3,0,-1,1,-2,-2
138391838385,0,2,-5,4,3,3,0,1
138391838385,-1,-5,2,-3,0,-5,-4,1
138391854022,4,1,2,-1,-5,-2,0,-2
138391854022,-1,1,8,1,0,2,-2,1
138391854786,1,2,1,-1,-2,-1,-3,2
138391854786,-4,1,-1,0,-1,1,0,-2
138391868368,1,-1,-1,2,-2,-4,-2,-2
138391868368,-5,-5,-1,2,1,0,-1,-2
138391875913,0,1,-1,0,-3,-5,-9,1
138391875913,1,4,-3,-2,-4,0,3,0
138391890867,-1,-1,-2,0,-1,3,-7,1
138391890867,0,2,0,5,1,0,1,-3
138391898335,-4,-8,-4,2,4,-2,0,1
138391898335,4,2,-10,3,-5,1,-3,-1
138391914032,-4,0,-4,4,-2,3,1,1
138391914032,0,4,-5,8,-2,-3,1,1
138391914760,-3,-3,3,-1,-1,-1,-1,1
138391914760,3,-3,-5,3,-2,-1,-1,-1
138391928349,-3,4,2,-2,-3,-5,0,2
138391928349,-3,-7,0,-2,-3,-3,-4,-1
138391935806,1,7,-8,2,-6,-1,4,1
138391935806,-2,-3,1,2,-2,-2,-1,3
138391950760,0,2,-1,-1,-1,-2,-5,-2
138391950760,3,-2,0,-3,0,-2,-3,-1
138391958317,0,-3,-7,6,-3,3,1,0
138391958317,-4,-3,-1,-1,1,1,-5,0
138391974018,6,-3,-6,2,-3,0,0,-4
138391974018,-2,-3,0,-5,1,0,-3,4
138391974843,1,-3,-1,-3,-3,-2,-1,-3
138391974843,1,-1,3,0,0,-1,-6,1
138391988320,-5,-3,-3,0,-4,1,1,0
138391988320,1,0,-3,-3,-3,-2,1,0
138391995971,4,0,-1,0,0,-1,0,1
138391995971,0,-1,-3,-1,-3,1,-1,-4
138392010904,1,-6,3,-5,1,-5,-3,-2
138392010904,-1,-4,11,-7,2,-2,-6,-2
138392018396,-2,1,-1,0,-6,1,1,1
138392018396,-2,-3,6,-1,-1,-3,-2,-3
138392034035,-1,-3,-1,-2,0,-4,-1,0
138392034035,1,-5,-11,7,-5,1,5,4
138392034767,-2,-5,-3,-4,-2,0,-5,-4
138392034767,0,-1,3,-2,-2,-1,-2,1
138392048348,-1,0,5,-1,1,-5,0,-5
138392048348,-1,1,-1,2,-5,-2,2,2
138392055872,-6,-3,-4,4,0,2,-1,1
138392055872,-1,0,-3,3,-4,1,1,2
138392070816,0,0,2,-6,0,-1,-6,-1
138392070816,-3,1,-4,0,-2,-5,-4,-3
138392078314,1,-1,-1,1,2,0,2,1
138392078314,-2,-3,-4,-5,0,-2,-1,-4
138392094038,-5,-1,-8,3,-4,-1,0,3
138392094038,0,2,-7,-1,1,1,1,-4
138392094767,-1,-3,4,0,-4,-2,0,-4
138392094767,-1,-1,0,-2,0,0,-3,-2
138392108313,-3,0,2,-5,1,-1,-3,-2
138392108313,0,-4,8,-2,2,-2,-1,0
138392115869,1,-4,12,-10,11,-4,-6,-1
138392115869,-3,-2,12,-8,6,-3,-2,-7
138392130819,-1,-3,3,1,-3,1,5,0
138392130819,-1,2,-4,-1,-4,-5,-7,-2
138392138264,0,-4,-9,5,-2,0,0,1
138392138264,2,-1,-2,3,1,-3,-2,0
138392154029,1,0,-3,1,-1,1,2,-3
138392154029,-1,-6,-2,-3,-2,-1,4,-2
138392154785,4,2,8,-5,-5,-1,-2,0
138392154785,0,-1,0,1,-1,0,0,0
138392168377,1,1,4,-1,2,-2,-5,1
138392168377,1,-3,2,1,-2,1,-1,-1
138392175850,0,1,-1,-1,-3,-3,-3,-3
138392175850,0,1,-4,3,-2,3,1,1
138392190869,-2,-1,-6,3,0,-1,-1,4
138392190869,-1,6,-5,1,-3,5,3,4
138392198302,-2,-2,-3,1,-2,2,1,-1
138392198302,-1,-4,2,-3,-4,-1,-1,3
138392214046,3,-2,0,-2,-2,3,-1,2
138392214046,3,0,2,-1,-1,2,-1,1
138392214877,-1,-2,-3,4,0,2,-1,-1
138392214877,-2,-3,-5,2,-2,0,4,2
138392228396,3,-1,-7,9,-5,4,1,1
138392228396,0,-6,0,2,-2,-5,2,-4
138392235883,0,-1,-8,5,-1,0,1,3
138392235883,2,6,-7,11,-5,1,2,1
138392250854,-3,4,-14,2,-4,3,1,-2
138392250854,-3,-5,-9,8,-3,2,1,-2
138392258323,-4,0,-7,3,-7,1,0,-5
138392258323,0,-2,-6,2,-2,1,2,-2
138392274050,-1,-3,4,-1,3,-4,-7,-4
138392274050,-3,4,-5,2,-2,1,-4,4
138392274721,0,-2,-2,0,1,-1,-2,-1
138392274721,-6,1,-3,-4,2,-2,-6,-3
138392288428,4,-1,-1,1,1,0,-2,1
138392288428,3,5,-1,-2,-1,-3,-1,3
138392295949,1,-2,5,-2,0,-2,-2,4
138392295949,-2,-3,0,-4,1,0,-4,-2
138392310907,-4,-4,7,-7,2,1,0,-4
138392310907,0,-3,0,-3,0,-4,0,1
138392318361,1,1,2,-2,-1,-3,-1,-1
138392318361,0,-2,7,-7,-6,-4,1,3
138392334014,-7,-2,1,-2,0,-2,3,-2
138392334014,-1,-3,8,-6,1,-3,0,-4
138392334814,-3,2,4,-6,-3,-3,0,-1
138392334814,1,-3,3,-3,3,-3,-2,-3
138392348378,-1,3,3,-3,1,-3,-4,-1
138392348378,-4,-2,4,-8,-3,0,0,-7
138392355844,-4,0,1,-3,1,-4,-1,1
138392355844,-2,-1,-7,0,-2,-1,-2,-1
138392370826,0,-1,-12,7,-5,-3,1,2
138392370826,0,0,-10,8,-3,1,-1,3
138392378375,-2,-3,-7,2,-5,1,4,-1
138392378375,2,-2,-6,3,0,-3,5,1
138392394083,-3,-1,2,1,2,-3,-5,-3
138392394083,-3,-6,-6,0,0,-1,0,0
138392394819,0,-2,-5,2,-1,-3,-1,2
138392394819,1,4,-4,3,-1,1,-1,0
138392408309,-1,1,-3,-1,-4,-1,3,1
138392408309,-4,1,5,-2,0,2,1,2
138392415813,-1,2,4,-4,-1,2,0,-4
138392415813,-3,1,5,-1,1,-5,-2,1
138392430897,-3,-2,3,-4,-2,1,1,-2
138392430897,1,0,-1,-2,-1,1,-1,-6
138392438373,-1,1,0,-2,-2,2,-5,-1
138392438373,-2,-7,-2,4,-1,-2,1,-2
138392453406,-2,-4,-6,0,3,-6,-6,-3
138392453406,-1,-1,-1,-1,-6,-1,-4,-2
138392461461,2,-8,-3,0,-1,-3,0,0
138392461461,-6,-7,-3,-2,-3,-1,-3,-2
138392468351,2,0,-3,-1,-3,-1,-1,-3
138392468351,1,-1,-3,2,3,1,1,-1
138392484059,-1,0,-1,0,0,-2,-7,-4
138392484059,-2,2,1,-2,2,0,-2,-4
138392490899,0,-1,5,-3,1,-1,4,2
138392490899,2,1,1,-3,-1,-2,-4,-4
138392498433,-7,-2,-2,2,1,1,2,-3
138392498433,1,7,3,2,-7,3,-4,1
138392513356,-1,1,0,-3,2,-2,-6,0
138392513356,-1,-3,-3,0,-2,-2,4,-1
138392521571,0,4,-1,-2,1,-1,-1,1
138392521571,-2,-4,5,-4,2,-4,-2,-6
138392528411,-1,-2,-8,5,-4,3,2,2
138392528411,3,-1,2,0,3,-6,-4,0
138392535871,4,-4,-5,-1,-5,0,-1,-2
138392535871,0,-1,-2,1,0,-1,-3,-1
138392550876,-1,0,2,-1,1,0,-4,-2
138392550876,-1,-3,-2,-5,0,0,-1,-3
138392558359,-1,-1,-2,3,0,-3,-2,0
138392558359,-1,-1,-5,1,0,0,-1,0
138392573360,3,-6,-1,-1,-2,-4,0,1
138392573360,-2,-1,-2,-2,-1,-2,-8,-4
138392581551,-4,-1,0,8,0,-1,-4,-1
138392581551,3,-1,0,0,-4,1,4,1
138392596549,-2,-1,1,-3,-1,0,0,0
138392596549,0,-2,-10,7,-6,4,2,3
138392597276,0,-4,-6,0,1,0,1,3
138392597276,-1,-3,-3,3,2,0,-5,2
138392610882,3,2,-4,0,-2,1,-3,-2
138392610882,0,-1,2,-1,0,-2,-4,-2
138392618456,2,5,-2,0,0,0,-1,3
138392618456,5,0,-2,3,-6,-2,0,1
138392633447,3,1,3,1,-2,2,2,2
138392633447,2,0,0,-2,-4,-2,-4,3
138392641558,0,0,0,0,-2,-2,-6,-2
138392641558,2,-2,-7,0,-1,2,-2,0
138392656454,-2,1,4,-2,1,-2,-3,-5
138392656454,2,0,4,-7,-3,-2,-3,4
138392657295,1,3,0,-1,-2,1,2,1
138392657295,1,-1,-1,-2,-4,1,-1,0
138392670946,-1,-6,-1,-3,-1,-3,3,-5
138392670946,-4,-3,3,0,1,-1,-4,-1
138392678442,0,-5,1,-4,-3,-5,2,1
138392678442,-6,-1,-4,2,0,-3,-3,0
138392693382,-1,2,-6,5,-2,1,1,-1
138392693382,0,3,-3,0,-4,1,1,-2
138392701596,2,-3,5,-2,-4,0,1,1
138392701596,1,4,2,-3,1,-2,3,2
138392716552,1,0,-2,-1,-2,0,-6,0
138392716552,1,0,-11,10,-2,-1,3,1
138392717370,0,-3,-5,3,0,2,-2,-4
138392717370,1,2,-4,-1,-1,-3,2,-3
138392730852,-4,-1,5,1,-3,-1,-5,4
138392730852,-1,-1,2,1,1,-3,0,-2
138392738356,-1,-3,-1,0,0,0,-5,-1
138392738356,-1,-4,-3,1,-2,3,-5,0
138392753362,-3,-2,3,0,-2,-1,-1,4
138392753362,-4,-1,6,-6,2,-2,-5,-3
138392761576,-1,-2,7,-10,0,-3,-1,0
138392761576,2,-1,7,-4,0,-1,-3,2
138392776529,3,-3,-1,-3,-1,1,-6,-2
138392776529,-3,2,4,-4,-1,0,3,-3
138392777318,1,0,-11,3,-2,0,-2,5
138392777318,-3,3,-8,6,-4,1,1,-1
