timestamp,emg1,emg2,emg3,emg4,emg5,emg6,emg7,emg8
281110851003,0,-1,-4,1,0,-3,-4,0
281110851003,1,0,-4,-3,1,0,4,-2
281110866616,-3,-2,-2,-2,-6,-6,1,0
281110866616,-2,-2,0,-3,-1,-2,2,-1
281110872192,-1,-1,-2,1,1,0,-1,-1
281110872192,-2,0,-5,-1,-7,-1,-2,-1
281110888604,-2,-1,2,-3,-2,-1,1,-1
281110888604,-2,-2,-2,-1,-4,1,1,0
281110890218,-1,-2,-1,-1,0,2,-3,1
281110890218,-4,-1,-1,-4,-1,-2,-3,0
281110902281,-3,-1,3,-4,-6,-1,-3,-1
281110902281,-2,0,-3,-2,-2,0,4,-1
281110913754,-1,-1,1,1,0,1,0,0
281110913754,-4,3,0,6,4,-1,2,-1
281110926647,0,-3,-1,-2,-3,-1,-3,0
281110926647,-1,0,2,1,-1,-4,-1,-3
281110932262,0,0,2,-3,-3,-3,-4,-1
281110932262,2,2,1,2,3,0,1,-1
281110947712,-3,-3,-4,1,0,-3,3,-2
281110947712,-4,-3,3,-3,-2,1,-1,-4
281110956740,-3,-3,-2,-5,-1,2,1,-3
281110956740,-2,-2,4,-1,-1,0,-1,-2
281110962342,4,-3,0,-1,-1,-2,-1,-2
281110962342,1,1,-4,-1,-1,-5,-8,-1
281111001095,1,-1,-2,0,4,0,0,-1
281111001095,-3,2,7,4,-1,-2,-3,5
281111009134,-3,-2,-5,-4,-2,1,-1,-3
281111009134,-1,0,-8,-3,2,0,4,-4
281111009877,-1,1,6,1,-4,-2,-3,5
281111009877,2,-3,-4,-3,3,-3,-1,-2
281111011406,-3,-2,-5,-3,0,1,4,-4
281111011406,-1,-1,2,3,0,-2,0,-1
281111022171,0,-5,5,-1,-2,-2,-2,4
281111022171,-1,-2,-7,-2,-2,0,0,-6
281111031002,-3,1,3,-2,-2,-4,-5,-2
281111031002,0,0,8,4,-4,-5,-7,4
281111037065,-5,4,-3,-1,6,-2,3,-3
281111037065,0,-7,-1,-5,1,-3,-2,-3
281111052056,0,-2,0,0,1,0,-5,2
281111052056,-2,-7,-2,-5,-6,-1,-1,2
281111059520,-4,-3,-7,-5,-2,0,2,-9
281111059520,-1,-2,1,2,-1,0,3,1
281111068568,-3,1,3,-1,-1,0,-2,3
281111068568,1,1,-5,-6,1,1,3,-4
281111082137,2,2,0,0,0,1,-3,0
281111082137,-3,2,-5,-1,-2,1,-5,4
281111091028,-3,4,-4,0,-2,-2,0,-2
281111091028,0,-4,-3,-1,-2,-1,-1,-2
281111097070,-3,-2,2,-6,-5,-3,-1,-2
281111097070,-3,7,-1,-2,-4,-1,-1,-4
281111112234,4,-2,2,-1,-1,1,4,1
281111112234,-2,3,6,-2,2,0,-8,-2
281111119734,-3,3,0,2,0,-1,0,-1
281111119734,3,-3,0,-2,0,-1,5,0
281111128558,-4,-2,-2,-2,-2,-1,-5,1
281111128558,1,0,-5,-2,-3,-3,-1,-2
281111142172,-2,-4,-4,-1,-2,-2,-1,2
281111142172,-1,3,4,3,-1,0,-4,-3
281111151062,2,-2,3,-2,-3,-3,-1,0
281111151062,1,0,-2,0,2,0,4,-2
281111157041,-2,-1,-3,-4,-6,-2,-6,-5
281111157041,0,-1,0,-3,-4,-4,-1,0
281111172325,-3,1,-1,0,1,-4,2,1
281111172325,1,4,-1,0,4,4,2,-1
281111179794,0,0,-6,-1,1,4,-1,-1
281111179794,-3,-1,5,-1,1,3,-3,-4
281111188746,-2,-4,-3,-4,0,0,-1,-2
281111188746,-2,4,0,1,-5,2,-1,-2
281111202097,3,-2,1,-1,-1,-3,1,-1
281111202097,-1,-6,-5,-5,-1,2,-2,-2
281111211046,-2,-4,-1,1,2,5,-2,-1
281111211046,-1,0,0,-1,0,0,-3,2
281111217233,2,-1,-1,-1,-5,-1,-1,-6
281111217233,-1,1,-3,1,-5,2,-1,-1
281111232270,5,-2,3,2,3,-1,-2,-1
281111232270,-1,-8,-2,2,0,4,-3,0
281111239722,-1,2,-2,0,3,0,0,4
281111239722,2,-2,-3,4,2,-3,4,3
281111248628,2,-3,-2,-3,-5,-4,-4,-4
281111248628,1,-5,-1,0,1,0,-1,1
281111262267,1,-6,2,-1,-2,0,-3,4
281111262267,-5,1,-2,-1,0,-1,0,-3
281111271134,0,-1,-2,-4,-1,-4,-5,-3
281111271134,3,-3,-4,-1,2,-6,2,-4
281111277250,-3,-1,1,-1,0,1,-2,-3
281111277250,1,-1,-3,-1,3,2,-2,1
281111292160,0,0,-2,0,0,-1,0,-2
281111292160,-5,-4,-1,-7,-5,-4,-6,-2
281111299583,2,0,1,1,-1,-2,0,-4
281111299583,4,-3,2,0,0,-3,-2,-3
281111308607,1,-4,0,2,4,-6,1,-2
281111308607,-2,-7,1,-1,0,-3,1,0
281111322054,-3,-5,-3,-4,-1,0,0,-1
281111322054,-3,-4,-2,-5,-3,-2,-2,0
281111331029,-1,0,-3,-3,-1,1,-2,0
281111331029,-3,-3,0,0,0,-1,-1,3
281111337079,-1,-5,-1,4,-2,2,6,-2
281111337079,-5,-2,0,-2,-1,-4,-1,-5
281111352029,-2,2,-3,-4,-2,2,6,1
281111352029,-1,1,-1,3,-2,-1,-3,-1
281111359540,2,-2,1,-4,-3,-2,-3,-1
281111359540,0,-3,1,0,-2,1,-3,-1
281111374526,-3,-4,0,2,0,-5,-1,-4
281111374526,1,2,6,-1,3,2,-1,-4
281111382026,0,-3,2,2,1,-2,-1,2
281111382026,1,1,-2,1,1,-6,-2,-3
281111391076,-1,-5,0,-3,0,-1,-2,0
281111391076,3,6,-3,0,-1,-3,1,0
281111397171,-1,1,-1,-2,0,1,-3,-3
281111397171,-3,-1,0,-3,3,0,1,-2
281111412097,0,-1,-1,1,-2,2,0,-1
281111412097,-4,3,0,0,-4,-3,3,1
281111419555,0,-2,-2,2,0,4,0,-1
281111419555,-2,-4,-4,-4,-3,-1,-3,-1
281111434582,-1,-3,2,0,-3,1,1,-1
281111434582,3,-2,-3,-3,1,-3,0,-5
281111442289,-1,-3,-3,-5,-2,0,-2,0
281111442289,3,-2,-2,-2,-2,-4,2,2
281111451134,0,0,1,-2,0,-3,-5,1
281111451134,0,0,0,0,-3,-3,3,-4
281111457128,-1,-1,-2,-4,-1,-3,-3,2
281111457128,-2,-6,-2,-7,1,0,-3,1
281111472105,-2,-4,-1,-1,-3,0,-1,-1
281111472105,1,-1,7,-3,0,0,0,-1
281111479552,3,4,3,0,0,-7,1,-4
281111479552,0,3,-3,1,1,2,1,-1
281111494639,1,-2,-4,-2,1,-2,0,-1
281111494639,-3,-2,-2,-1,-2,0,-6,-1
281111502285,0,-1,0,-1,-1,-1,-4,-1
281111502285,-1,0,-5,-2,-4,-1,-1,2
281111511168,1,-1,0,-1,-2,-1,-1,-1
281111511168,-1,4,0,2,-5,-5,0,-2
281111517277,0,-2,-1,1,6,-2,-1,-1
281111517277,1,-2,-1,0,-1,3,-1,-2
281111533683,3,3,2,-2,-5,2,-5,4
281111533683,0,-2,-2,1,-1,1,-2,1
281111539830,-3,-3,0,2,-1,-2,5,-4
281111539830,0,0,5,0,1,0,-4,-2
281111554781,3,-4,-3,-2,0,1,4,-5
281111554781,-3,-3,-1,-6,2,5,-2,-2
281111562165,2,1,0,-1,2,-5,-1,5
281111562165,-1,-3,1,-2,-3,1,-1,0
281111571226,-4,4,1,4,1,-3,2,-3
281111571226,0,-2,2,4,-1,-6,-2,-3
281111577258,-3,-3,-1,-3,2,0,-4,-3
281111577258,2,-3,-2,0,-2,-1,-3,-2
281111592160,-1,2,-4,-2,2,-3,-2,-1
281111592160,0,-3,-3,-6,-5,-4,1,2
281111599592,0,-2,-3,-2,-2,-3,-1,-1
281111599592,1,3,1,0,0,0,1,3
281111616129,-1,-4,-3,-2,0,4,1,1
281111616129,-3,0,1,1,-1,2,1,1
281111622241,-1,2,-4,-1,-3,0,2,-1
281111622241,-3,-4,-1,-1,-3,-2,-3,0
281111631113,0,-3,1,-1,2,-4,1,-7
281111631113,0,2,-3,-1,1,-2,0,0
281111645379,-1,-2,0,-1,-2,0,1,-1
281111645379,-4,0,1,-2,-7,-3,1,-3
281111652179,2,-3,0,-1,-4,1,-1,-1
281111652179,-3,-4,-4,-4,1,-4,0,-5
281111659805,-3,0,-2,-1,-1,0,-3,-3
281111659805,2,1,0,2,0,-3,-1,0
281111674697,0,6,-1,2,-6,-6,3,2
281111674697,0,-2,3,-4,-3,-1,0,0
281111682327,-3,0,-3,2,-6,0,0,-1
281111682327,-1,4,-1,0,-1,0,2,0
281111691073,-3,-3,0,-5,3,1,0,-1
281111691073,1,-3,-5,2,-2,-2,1,0
281111705446,-2,-1,2,-4,-5,-1,0,2
281111705446,-2,-3,-5,2,1,-3,-3,-3
281111712288,-5,-1,-1,0,-7,0,0,2
281111712288,-1,-3,2,3,2,0,-1,0
281111719674,3,-4,-1,-3,2,-1,-2,-2
281111719674,-7,0,-1,0,0,2,3,-1
281111734741,0,2,1,-1,0,1,-5,2
281111734741,2,-7,-4,-3,-3,-2,-3,0
281111742045,-1,0,-2,2,0,-1,-5,-3
281111742045,5,-2,-3,-2,-3,-1,0,-1
281111751154,-2,-1,0,-3,0,-4,-3,-4
281111751154,1,-1,-2,-1,-1,4,1,0
281111765465,3,7,3,-1,3,2,-3,2
281111765465,-3,-4,-3,-3,0,2,1,-2
281111772106,0,2,0,-1,-1,3,-3,0
281111772106,-2,2,0,-3,0,-1,-3,0
281111787911,1,-2,-3,0,-1,-1,-1,-2
281111787911,2,-1,1,-4,0,2,1,-2
281111794617,-1,1,-2,-3,3,-1,-5,0
281111794617,-4,2,0,2,-4,0,3,-5
281111802142,-2,3,0,-5,-4,-4,0,-1
281111802142,3,4,-1,-1,3,-2,1,-1
281111811183,0,-2,-3,1,2,-1,-1,-1
281111811183,2,-1,-2,-6,0,2,-2,-1
281111833547,-5,-4,0,2,-2,-2,3,-4
281111833547,0,-1,-1,-4,-8,-4,1,0
281111835082,-1,4,-1,1,-1,-2,1,-2
281111835082,-2,-2,-4,-5,-3,-3,-1,-5
281111839776,0,-4,-4,-5,0,1,-2,2
281111839776,-8,1,2,1,-3,-3,-3,-1
281111854834,7,-2,2,-1,-4,0,-1,0
281111854834,4,5,1,5,2,3,-1,2
281111862138,-2,0,-1,-2,0,-3,-2,3
281111862138,-2,-2,1,-3,-2,-4,-3,0
281111871125,0,-2,1,0,1,-1,0,-2
281111871125,-5,-2,-2,1,-1,0,-1,-1
281111885376,2,0,2,2,0,4,0,1
281111885376,1,1,-4,-1,1,0,0,0
281111892134,-4,0,1,-1,-4,-2,-2,-1
281111892134,-1,-3,1,-3,1,-2,-3,2
281111899791,-2,-1,-3,0,-1,-1,5,-4
281111899791,-2,-2,1,-1,0,1,-4,1
281111914782,1,-4,-1,-1,-5,1,1,-5
281111914782,1,0,-3,-3,1,0,0,0
281111922199,-1,-1,-1,-5,2,2,-1,0
281111922199,-1,-5,2,2,2,-2,-1,1
281111931092,-2,1,0,0,0,-5,-1,7
281111931092,-1,-2,3,4,0,1,2,-3
281111945363,-6,-3,1,3,-1,2,-2,-1
281111945363,2,2,3,4,-1,0,-1,-1
281111952136,1,-3,-2,-5,0,1,-2,1
281111952136,0,3,2,-2,-4,-5,-4,0
281111959734,3,2,2,2,3,-4,-4,1
281111959734,3,-4,-1,-2,0,2,-2,1
281111974610,-6,-1,-2,-6,2,-1,-1,-5
281111974610,0,3,-2,0,-4,1,-2,2
281111982197,-2,1,-1,-1,-1,-5,-4,-2
281111982197,-2,-1,-2,-1,-2,-2,-1,-1
281111997243,-2,-5,-3,0,-1,-1,-2,-2
281111997243,-2,-1,0,-5,3,1,-2,-4
281112005464,1,3,-2,0,-3,0,0,-1
281112005464,-5,4,-2,0,0,0,-2,-3
281112020415,-2,5,-4,2,1,0,-1,1
281112020415,-2,-4,1,-2,0,3,0,0
281112021109,-2,-5,0,-3,-4,-1,-2,-3
281112021109,0,-3,0,-2,1,-3,3,-5
281112034727,-1,0,1,-3,-2,-1,-3,-2
281112034727,-1,-1,-2,-1,-1,-7,-1,-4
281112042166,5,0,-2,3,-2,-4,1,2
281112042166,-1,-7,-2,-6,-3,-2,0,-1
281112057095,-1,-6,0,0,-5,1,3,-8
281112057095,-2,-3,-1,-2,0,-1,1,1
281112065251,-1,-2,-1,-1,-2,4,4,-5
281112065251,5,3,-1,3,3,1,-2,-3
281112080205,-5,-1,-2,-3,-3,-2,-1,-1
281112080205,1,0,-3,1,-5,-5,-1,-1
281112087929,-1,2,0,-1,-2,2,2,1
281112087929,-3,-1,-5,-4,-2,2,0,-5
281112094759,-1,-1,-1,-1,1,1,-3,1
281112094759,0,-4,-4,-5,2,-4,0,-3
281112102153,-1,-2,0,0,0,-1,-2,0
281112102153,2,-1,-2,-5,0,-3,-1,0
281112117120,1,-2,-2,0,-2,-4,1,2
281112117120,-6,-3,-2,-1,5,1,1,-2
281112125371,3,-2,-4,-3,2,1,0,-3
281112125371,-1,-5,1,2,2,-1,-2,0
281112140420,-1,-4,-3,-1,-3,-2,-1,0
281112140420,1,2,1,1,-3,-1,-2,-3
281112141138,-1,1,1,-5,-3,1,1,0
281112141138,3,3,2,-1,-4,2,1,2
281112154776,-3,3,-2,-3,-2,-3,2,-4
281112154776,-1,-4,2,-2,-4,2,-3,-3
281112162188,-2,-1,2,-1,3,-4,-2,1
281112162188,-1,-3,-1,-4,-8,-3,3,0
281112177274,4,1,1,1,-1,0,6,-4
281112177274,-3,3,-1,1,-3,-1,-3,3
281112185458,-3,-2,-1,3,2,-2,-1,-2
281112185458,2,3,2,3,-2,-3,-3,0
281112200403,-2,-2,0,-3,-2,0,-4,0
281112200403,1,-3,-2,-4,-1,0,1,-3
281112201175,-2,0,2,-3,1,2,-4,-2
281112201175,-5,-2,-1,2,1,0,-4,-3
281112214574,1,-3,-2,-1,-1,5,1,2
281112214574,-2,-1,1,-1,-2,-5,1,0
281112222323,-3,-3,1,0,-5,-3,-3,1
281112222323,-5,-2,-1,-4,-5,3,-4,-3
281112237243,0,-2,3,-2,1,-3,-3,0
281112237243,0,-3,-3,-3,0,2,-1,-1
281112245475,-4,1,-2,-2,-3,-3,-3,-6
281112245475,-6,1,-4,-3,1,2,-3,-1
281112260395,0,-1,1,-2,-1,-4,-3,-2
281112260395,-1,-2,2,-2,0,-1,0,-1
281112261106,0,-4,-5,-1,-1,1,3,-3
281112261106,-1,-2,1,-4,-4,-1,1,-6
281112274678,0,1,-4,-1,2,1,-2,-3
281112274678,4,2,-2,4,-3,-3,-1,-1
281112282081,0,-2,-4,-7,-2,-1,-3,2
281112282081,-2,-3,-5,-1,-1,-1,2,-1
281112297293,-4,-3,-2,0,-1,5,3,0
281112297293,-3,-4,4,-4,0,0,-2,-2
281112305480,2,1,-6,2,-1,-2,1,4
281112305480,-1,-2,-3,-1,1,0,4,0
281112320397,-1,0,0,0,4,-6,-7,0
281112320397,-1,-2,-4,-2,-2,3,-3,-4
281112321057,0,0,0,5,0,2,-3,-1
281112321057,1,3,0,-1,-4,4,-2,0
281112334785,0,-1,-1,3,-11,4,4,1
281112334785,1,5,-3,2,-3,3,-1,3
281112342223,0,-3,4,-2,-4,0,0,-1
281112342223,1,-1,5,-1,-2,-4,-3,0
281112366132,-2,2,-4,-4,-3,2,3,-3
281112366132,-1,1,-3,1,-2,-2,-4,1
281112366829,1,-2,1,-3,-3,-2,3,1
281112366829,1,-3,0,-1,2,1,-4,-3
281112380312,-2,-1,6,0,-1,0,0,1
281112380312,1,-2,1,1,-2,1,-1,-2
281112381117,-1,0,-2,0,-1,-1,-1,-1
281112381117,0,2,-5,2,2,-5,-1,1
281112394623,2,-2,-1,2,4,-4,-3,3
281112394623,-1,-1,-5,2,-1,-1,-1,-2
281112402141,0,-3,-3,-2,1,-1,2,0
281112402141,2,0,1,2,2,-1,3,0
281112417085,-1,0,-1,3,-5,-3,-1,-3
281112417085,1,1,-1,-5,2,0,-4,0
281112425310,-2,-2,-3,0,2,-5,-2,0
281112425310,-5,-3,0,-4,-5,-6,-2,-2
281112440281,1,2,-1,2,6,0,-1,-3
281112440281,-2,4,0,-1,1,-2,4,-3
281112441024,-1,-4,0,-2,-4,-1,-1,-6
281112441024,5,1,-4,-2,-3,0,0,-5
281112454589,-5,-2,0,0,-1,-1,1,-2
281112454589,-1,1,1,2,1,-1,2,0
281112462113,3,2,0,1,0,-2,-1,-2
281112462113,-1,-1,-2,1,3,-2,2,1
281112477111,3,-5,-4,3,-1,-4,-1,2
281112477111,-4,-3,-5,-1,0,-3,-1,1
281112485324,-7,-4,-4,-2,-5,-1,-3,-2
281112485324,-2,-4,2,1,-4,2,-1,-1
281112500284,1,1,-4,-3,0,-1,1,-3
281112500284,-2,-7,0,0,-2,-4,0,2
281112501072,1,2,-3,-2,0,-1,-3,-3
281112501072,-5,-1,-1,-1,1,0,-3,1
281112514644,-4,-5,-2,-5,-3,1,-5,1
281112514644,0,0,-2,-2,-1,0,-5,-4
281112522064,-1,2,4,-1,0,1,-2,-2
281112522064,-3,0,-5,-1,-3,-2,0,1
281112537087,-1,0,-1,-2,-3,-3,1,-2
281112537087,3,1,4,4,-5,5,3,2
281112545287,1,-1,0,1,0,-3,-2,-2
281112545287,-4,3,0,1,-4,-1,-3,-2
281112560311,2,-7,-1,-4,-5,-2,-3,-2
281112560311,0,-2,-2,-2,6,-2,-3,-1
281112561031,1,-2,3,3,-3,-1,3,4
281112561031,0,0,-4,-1,0,-5,-2,-6
281112574583,-3,-1,-3,-2,0,-3,-2,-2
281112574583,-2,3,2,-4,-5,-1,-3,-1
281112582127,-1,-2,-1,0,2,2,1,4
281112582127,4,-3,-5,-4,-6,-1,4,3
281112597038,-2,-2,2,2,2,1,-3,1
281112597038,-2,1,-2,-4,-1,-3,-1,-1
281112605318,-2,1,2,-4,-2,3,-2,-1
281112605318,-2,-1,0,-4,-2,-3,2,0
281112619566,0,4,0,2,4,0,1,0
281112619566,0,-3,1,0,0,0,4,1
281112627819,-1,0,-1,1,-3,-1,-1,-2
281112627819,-4,-2,4,1,-2,1,-2,-1
281112642789,-3,4,-3,-2,0,-3,-2,0
281112642789,-1,0,-7,0,-5,-3,-6,-1
281112643547,2,-2,-4,2,-2,1,-3,-4
281112643547,3,1,0,0,-1,0,-2,4
281112657067,0,-4,-2,-4,-2,-1,4,-3
281112657067,-3,0,3,-5,-4,-1,0,-1
281112665305,0,-3,-5,1,2,-3,2,-4
281112665305,-1,0,1,-3,0,1,-3,1
281112679643,-2,1,-5,-5,-6,0,-4,-1
281112679643,0,-5,-2,-2,-3,-2,1,4
281112687776,-4,0,6,2,3,3,-1,1
281112687776,-4,-2,-3,0,1,-4,2,-4
281112694578,0,1,3,2,0,1,0,-1
281112694578,-1,-3,-3,-2,3,-3,1,-3
281112702082,-1,1,-2,0,1,-1,-5,-1
281112702082,-2,0,3,3,0,1,-1,-3
281112717087,-2,1,1,1,-4,0,0,1
281112717087,2,-2,0,1,3,2,-1,-2
281112725266,0,2,-1,-3,-1,-2,1,-2
281112725266,-2,1,-1,-1,0,2,-1,0
281112739591,1,-3,-3,-1,-4,0,-4,-1
281112739591,1,2,-3,-2,-3,-4,-3,1
281112747841,-3,1,-1,-2,-7,-7,0,-2
281112747841,0,1,-4,-1,2,-6,-4,1
281112754615,2,-2,1,0,-1,0,0,-2
281112754615,-2,-2,0,0,-3,1,-2,0
281112762085,-1,-6,1,-1,-3,-1,-4,-2
281112762085,-5,0,-4,-2,2,-1,0,4
281112777113,1,-4,-2,1,-3,-4,1,-5
281112777113,-2,0,-2,-2,-3,2,0,-2
281112785307,-2,-2,3,-3,-2,0,4,-5
281112785307,-1,-1,-4,0,3,2,-2,-1
281112799579,-2,1,2,4,1,2,-3,1
281112799579,-1,0,0,0,-4,-3,-2,0
281112807780,1,-4,-6,-1,-2,-4,0,1
281112807780,1,-4,-2,-5,-2,1,-1,-2
281112822764,-3,2,4,-4,-1,-5,3,-2
281112822764,-1,-4,3,2,2,-4,-1,0
281112823546,-3,2,-1,-2,2,-2,2,1
281112823546,1,-3,-1,0,-1,-2,-6,2
281112837073,1,2,-3,-3,-3,-4,2,1
281112837073,1,3,-1,-3,-2,2,-2,-4
281112845282,0,2,-7,-4,-5,-2,-2,-2
281112845282,-2,-1,2,2,0,1,-1,-2
281112859638,-2,-3,-5,-3,0,1,-3,-1
281112859638,-2,0,-1,1,-2,-1,2,-2
281112867810,-1,-2,-2,-3,-2,-3,-1,0
281112867810,-1,0,0,-3,-4,-2,2,-3
281112882827,1,0,0,-2,2,-1,-3,-1
281112882827,0,1,-2,-2,-2,2,1,1
281112883514,-2,-1,0,-1,0,-2,-1,-1
281112883514,3,-3,1,-2,-3,-4,0,-3
281112897096,-2,2,3,0,1,0,-3,1
281112897096,-4,0,-2,-4,2,-1,3,-6
281112905324,2,-1,-2,1,-2,2,-1,1
281112905324,-1,-2,2,0,-1,-3,0,0
281112919565,-2,-7,-1,-4,-2,3,-1,-2
281112919565,0,-3,1,1,-2,-3,-1,3
281112927793,-2,-7,2,-3,-2,4,-4,-4
281112927793,-4,5,-4,-1,1,-1,-1,-2
281112942835,0,0,1,-1,3,-3,-4,-1
281112942835,-3,-2,-4,-4,2,-2,-2,-2
281112943563,-2,2,-2,0,2,-3,-1,-3
281112943563,1,-2,0,2,-3,-4,-3,-2
281112957162,-2,1,-4,-2,-2,-1,4,-6
281112957162,-1,-2,-1,-2,-3,0,-1,2
281112965289,0,2,1,-2,-3,-3,-2,-4
281112965289,1,-5,-3,-6,-2,2,0,4
281112979568,2,-1,0,0,0,-1,-2,-2
281112979568,1,0,7,1,-5,0,-6,0
281112987796,-1,2,0,2,1,-1,3,-2
281112987796,-1,-2,-3,-5,-2,-1,0,-4
281113002773,0,0,0,-1,-4,2,1,0
281113002773,1,-4,0,3,2,-1,3,-1
281113003550,-1,1,3,1,0,-2,-3,2
281113003550,-4,-1,3,4,0,-2,-3,0
281113017086,-3,-6,-2,0,-1,-2,-1,0
281113017086,-3,-1,-2,1,0,4,-6,-5
281113025280,0,2,0,-4,-6,-1,-1,0
281113025280,-2,1,-2,0,3,1,1,0
281113048406,0,3,4,5,-1,1,0,0
281113048406,-1,2,0,1,1,0,0,-1
281113049207,-2,0,-2,-2,2,-2,-1,5
281113049207,4,4,-1,0,-2,0,-3,0
281113062767,-6,-1,-3,-4,-3,-1,-4,1
281113062767,1,-1,1,0,-4,-3,0,-4
281113063549,-1,3,4,1,-2,4,-1,0
281113063549,2,-3,0,3,-1,-2,1,-3
281113077121,-1,0,1,-1,1,1,1,-3
281113077121,-2,2,0,-2,-4,-4,-3,3
281113085353,-2,-5,-2,-1,3,1,1,-1
281113085353,-2,-1,-4,-2,-4,-1,0,1
281113099604,2,3,0,0,0,-2,-1,2
281113099604,-3,2,-2,-7,-4,-2,1,2
281113107837,1,0,-6,2,-3,0,1,1
281113107837,-4,-2,1,-1,-1,6,-1,-1
281113122753,-1,-1,0,-2,1,-4,0,3
281113122753,-2,1,-3,-2,4,1,-1,0
281113123506,-2,-2,0,1,-4,-4,-6,-3
281113123506,0,3,4,-2,1,-4,2,2
281113137093,-2,-2,-3,-7,-2,-1,1,-2
281113137093,-1,-3,5,-6,-2,-3,3,-3
281113145005,0,-2,-4,-1,1,1,-3,-1
281113145005,-1,-3,0,-6,-2,-5,-3,0
281113159620,0,-3,1,-1,-3,-1,-4,-4
281113159620,-1,1,-2,-2,-1,-4,-2,-4
281113175319,-1,-6,0,0,-2,-1,0,-1
281113175319,4,0,2,-1,-3,0,-5,0
281113182800,1,0,-1,0,4,-1,0,0
281113182800,-3,-1,1,4,0,-1,-4,0
281113183546,-2,0,0,-2,0,0,2,-3
281113183546,0,2,-1,2,2,1,3,-4
281113197145,-1,3,-1,-3,1,2,-4,1
281113197145,-3,-3,2,0,-1,2,-3,1
281113205283,0,-1,-3,-2,1,-1,-2,-4
281113205283,0,1,-1,0,-4,0,0,-1
281113219587,1,-3,-3,2,0,-3,-2,-4
281113219587,1,1,-1,1,-1,-3,3,-2
281113227852,-3,-3,-2,-1,2,-3,0,3
281113227852,1,-1,-2,2,0,4,-1,-1
281113242772,-1,-2,-3,5,-1,-1,5,1
281113242772,-1,-4,-1,3,-5,-3,1,-2
281113243545,-2,-5,1,-5,-5,1,0,-3
281113243545,0,0,0,1,4,-2,-4,-3
281113257094,4,-2,3,-1,1,4,-5,-2
281113257094,-2,-1,-5,0,1,3,0,0
281113265330,-2,1,0,-4,-5,-1,0,-4
281113265330,0,-1,0,4,1,-4,1,0
281113279604,-2,-3,-4,-5,-8,-2,-8,-4
281113279604,-4,-1,-4,-1,1,-1,-6,0
281113287828,1,-4,3,-5,-2,-5,-6,2
281113287828,-5,0,-2,1,-2,0,-3,-4
281113302774,-2,-2,1,1,-3,0,3,-3
281113302774,6,-2,-2,0,-1,1,5,-2
281113303540,-2,4,0,0,1,-2,2,-2
281113303540,1,-3,-3,-6,-6,1,-4,2
281113317120,-4,0,-1,-1,3,-1,0,1
281113317120,3,-3,1,-2,2,-1,-3,-5
281113325310,-2,3,0,6,4,2,1,0
281113325310,-2,-2,-3,-4,-2,-2,3,-2
281113339600,-1,-5,-1,-4,-1,-3,-1,-3
281113339600,1,1,-2,0,-2,-4,-1,3
281113347825,1,-2,-1,0,-3,-2,3,2
281113347825,-6,-3,-1,-3,-1,-1,-2,0
281113362775,-2,2,2,1,-3,-1,3,2
281113362775,-3,1,-3,-1,0,-2,-2,2
281113363526,0,-2,-4,-3,-1,-4,-1,-4
281113363526,1,0,0,-1,2,-1,0,0
281113377081,0,0,-2,0,0,-2,-1,-4
281113377081,-3,0,-1,0,0,-2,0,-2
281113385321,-1,5,0,3,0,5,-5,3
281113385321,-1,2,1,-3,-1,-4,-2,-2
281113399593,1,3,-3,-4,-2,2,1,3
281113399593,1,2,-1,-2,-3,0,-2,2
281113407798,1,3,-4,4,1,-1,-2,-3
281113407798,0,-4,0,-2,-3,-5,0,0
281113422819,1,-2,-2,2,1,1,3,-1
281113422819,-1,0,1,-1,3,-1,0,-2
281113423576,1,0,1,-1,2,1,-1,-1
281113423576,1,-4,1,3,0,-3,-1,0
281113437075,0,-2,-2,0,0,1,-2,-3
281113437075,-1,-5,-2,-2,-3,0,-2,-4
281113445333,1,-3,1,5,4,-1,2,0
281113445333,0,-1,-1,-1,-3,2,-3,-1
281113459649,-1,-1,5,-2,-1,0,-1,-1
281113459649,3,0,-2,-2,-1,1,-4,0
281113467795,2,-1,2,-2,-1,-2,-6,1
281113467795,0,-2,2,-1,2,-2,3,-3
281113490986,-3,-3,-3,3,-2,-1,0,2
281113490986,-2,2,4,1,1,0,1,0
281113491767,1,-1,0,-4,-2,1,1,-4
281113491767,1,-4,-2,-1,-1,1,0,-1
281113497125,3,0,0,1,3,-3,-4,1
281113497125,-5,-5,-2,0,-2,-3,-2,-2
281113505308,-1,-1,-3,-2,-3,-1,1,2
281113505308,1,-2,1,-1,2,0,-1,-2
281113519651,-4,-2,0,-2,-1,-1,-6,2
281113519651,-1,-1,-3,2,-4,2,0,2
281113527831,0,-2,1,-3,-1,0,-1,0
281113527831,4,-1,-3,1,-1,-1,-5,2
281113542120,-1,4,-4,1,-1,2,4,-2
281113542120,-1,4,-1,1,-3,2,2,0
281113559257,-4,-2,-1,3,-2,-2,0,-2
281113559257,0,0,-5,1,-3,-1,-2,-5
281113560055,1,1,-4,2,-2,-1,-1,0
281113560055,-2,-2,0,-1,-3,1,-4,-2
281113566105,-4,0,-3,-1,-1,-10,2,-3
281113566105,-5,3,4,-4,-2,-4,-2,4
281113579626,-3,1,-1,0,3,1,-2,-2
281113579626,0,-2,-2,-1,-2,-4,2,-6
281113588636,-1,-2,0,2,0,-1,-4,-1
281113588636,-2,-2,-2,-1,-1,-1,-2,2
281113602168,0,-2,-1,-2,-1,0,-3,-2
281113602168,0,-3,0,-4,-3,-3,1,0
281113611109,-3,-3,-2,-2,0,-2,-4,2
281113611109,1,-2,0,-2,-3,0,-2,-3
281113625952,3,1,-3,0,-5,-2,3,-3
281113625952,0,-4,2,-1,1,-1,-3,-6
281113627592,3,2,1,-1,-1,1,-1,-3
281113627592,3,3,-3,-1,1,-2,-2,-3
281113639652,0,-2,-4,-3,-2,-2,-8,-2
281113639652,1,0,2,2,-2,-1,-1,-1
281113648566,-3,-2,-1,-6,-5,0,-1,2
281113648566,0,2,-5,1,3,4,-2,-1
281113662136,-3,-4,1,-1,1,-5,2,-4
281113662136,3,2,-4,-4,0,0,0,-1
281113671142,-4,1,2,-1,1,3,1,-3
281113671142,-7,-2,2,-3,-6,1,0,1
281113677124,1,-4,-1,-4,0,3,1,-2
281113677124,-3,1,0,1,-2,1,2,-1
281113686079,-3,-3,-2,1,-1,-3,4,1
281113686079,-1,0,3,-1,4,0,3,-2
281113699606,2,4,2,0,-1,-1,0,-3
281113699606,0,-2,-1,-4,1,1,-2,1
281113708614,2,-2,0,-1,-3,-3,6,-2
281113708614,-2,-1,4,2,-1,0,2,-4
281113722100,-1,0,1,0,-3,-2,1,2
281113722100,2,-2,1,-2,3,-5,3,0
281113731115,1,0,-1,-2,-6,3,-3,-6
281113731115,-1,-4,-3,-5,-2,1,3,0
281113746006,-5,1,-2,-1,-2,-2,-2,0
281113746006,-2,-1,1,0,2,1,-3,-4
281113747600,1,2,-2,-4,-1,-2,-6,-3
281113747600,0,-3,-3,-1,1,0,2,-2
281113759627,-1,-1,5,-2,1,2,-4,-1
281113759627,-5,-2,1,-4,-6,-1,0,-3
281113768604,3,-3,1,0,-4,0,0,-2
281113768604,0,-3,-3,-4,2,-1,-4,1
281113782132,2,-6,0,-2,-2,-4,-5,5
281113782132,0,-2,-5,0,-1,-3,-5,2
281113791086,-3,-4,-4,-7,-2,1,4,1
281113791086,-3,-3,0,-1,3,-1,4,0
281113805988,2,-1,0,1,-3,-1,1,-4
281113805988,0,-4,-3,-3,-1,-3,-1,-4
281113807577,-2,-2,-1,2,0,-1,-4,1
281113807577,2,0,4,-1,0,-1,-2,0
281113819655,-1,-2,-2,-5,-1,1,1,0
281113819655,-3,-3,0,2,0,0,0,1
281113828612,1,-1,-6,4,3,2,-2,3
281113828612,-1,-1,-3,-2,-4,-3,-1,-9
281113842157,-1,-2,-5,-2,2,-3,-3,-5
281113842157,-2,3,-5,1,0,3,-1,0
281113851164,-4,0,-3,0,-4,0,-2,0
281113851164,0,0,1,-2,-1,4,-4,1
281113866024,-2,-2,0,-3,-2,3,-2,-2
281113866024,3,-3,1,0,-1,0,1,-3
281113867583,3,-2,4,-4,-2,-4,-2,-5
281113867583,-4,-1,-2,-1,-2,-1,1,0
281113879617,1,1,-6,1,-3,-3,-2,-2
281113879617,2,3,-3,0,-6,-2,-2,3
281113888621,1,-3,-2,-2,2,0,-3,0
281113888621,-1,2,1,4,-4,-5,4,-5
281113902126,1,-5,-3,-1,-3,-5,0,2
281113902126,-1,1,-1,0,-1,-2,-4,-2
281113911110,0,-2,0,1,-2,-2,1,1
281113911110,2,2,-4,-2,-6,-2,-1,-3
281113926000,-3,-4,1,-1,1,4,2,-2
281113926000,-1,-3,-4,-2,2,-3,4,-4
281113927562,-4,-3,-2,-3,2,0,-4,1
281113927562,0,-6,0,-2,-3,-4,-2,0
281113939646,3,2,0,0,-1,-7,-3,-2
281113939646,-1,-2,-4,-3,-2,-2,2,0
281113948632,1,1,-2,3,-2,-2,-4,-4
281113948632,-1,2,-1,-2,-1,3,-2,1
281113962154,-3,0,2,-2,1,2,1,0
281113962154,-3,-7,-2,-1,-2,-3,2,-1
281113971079,3,-1,-1,0,1,-4,-3,-3
281113971079,-1,0,-2,1,-1,1,-2,-2
281113985982,-3,-2,1,-2,-4,2,-2,-2
281113985982,2,-1,-2,2,0,-1,0,-1
281113987621,-5,2,0,-2,-1,-1,5,-4
281113987621,-5,-3,-2,-5,-3,-6,-1,0
281113999604,-3,0,5,2,-2,3,-1,0
281113999604,-3,0,0,-3,-3,-3,-5,-2
281114008628,-1,0,-1,-4,0,1,-2,-2
281114008628,-3,3,-1,1,1,1,-1,-1
281114022099,-4,1,-8,-2,0,-1,-3,-1
281114022099,0,1,0,-2,-1,1,-5,-3
281114031110,-5,-2,-3,-2,0,-2,2,4
281114031110,1,-4,-2,-3,1,-3,-6,-1
281114046006,2,-3,-1,-4,-4,-2,-1,1
281114046006,-1,1,4,3,1,1,2,3
281114047573,-2,-3,-4,-4,5,-2,-1,0
281114047573,4,-1,3,1,0,-1,-2,-2
281114059646,1,0,-6,-1,0,-1,-2,-1
281114059646,-1,-1,2,-3,-3,-5,-1,-6
281114068648,-1,-3,-2,-1,0,1,-1,-2
281114068648,-4,-2,2,-1,-7,0,7,0
281114082167,-1,0,-2,0,0,-2,2,-2
281114082167,-2,-1,4,0,0,5,-2,-4
281114091087,-3,4,-1,1,-4,1,0,1
281114091087,-2,-3,-5,2,3,0,-5,-1
281114105952,-5,0,1,-4,-1,-1,5,-3
281114105952,-1,-2,-4,1,2,2,-2,1
281114107535,4,2,6,-2,-2,-1,-2,0
281114107535,3,-1,-1,-1,-4,0,1,-1
281114119617,5,5,-5,-1,0,-2,3,2
281114119617,-1,-1,0,-3,-1,3,-2,-2
281114128628,0,1,-2,-2,-2,-3,3,-2
281114128628,-5,-2,4,1,-6,-2,-4,-5
281114142136,-2,-1,2,-1,-1,2,-4,-1
281114142136,2,3,-1,3,-2,0,1,0
281114151117,1,-2,-1,-1,-7,-1,-1,-2
281114151117,0,0,-1,0,-2,3,1,1
281114166006,-4,-4,1,1,0,1,3,-2
281114166006,-4,-4,3,-8,-3,-6,1,-4
281114167591,-2,-3,1,-1,-2,-2,-1,1
281114167591,2,2,1,1,4,3,-5,2
281114179687,0,-2,3,3,-2,-4,-2,-3
281114179687,-1,2,-3,-3,1,-1,-4,2
281114188612,-1,2,1,2,0,1,3,-4
281114188612,-2,-2,-3,-1,-1,-3,-4,1
281114202165,0,-6,-1,1,-1,-2,0,0
281114202165,-2,-3,-2,-2,-1,-5,3,0
281114211089,-1,0,2,1,-4,2,2,-1
281114211089,0,0,-1,4,-2,1,1,-4
281114225943,-1,-6,0,-4,-1,-6,0,0
281114225943,-1,-2,-3,1,5,2,0,1
281114227590,-2,-1,-1,0,1,0,2,0
281114227590,1,-3,-2,-2,-2,1,2,2
281114239632,-3,3,0,-2,-3,-1,2,-2
281114239632,2,2,-2,-1,-4,3,0,0
281114248654,-3,-3,-1,3,1,-2,-2,-1
281114248654,-1,3,2,-3,2,1,0,-3
281114262142,-3,0,-2,3,-3,-2,0,0
281114262142,0,-5,-1,1,-2,4,-3,0
281114271169,0,-5,-1,-5,0,-2,-2,-5
281114271169,-1,-4,-4,0,-2,0,-1,-2
281114286022,-1,2,0,-1,-1,-1,-3,-2
281114286022,-1,-1,-2,1,0,-4,2,2
281114287610,0,-3,-3,-4,-4,-2,0,-2
281114287610,-2,1,0,5,0,-3,-3,-2
281114299606,1,-2,-1,1,2,-1,-1,0
281114299606,-5,-1,3,1,-1,-6,2,1
281114308609,-1,-2,-5,-3,-3,2,-2,-2
281114308609,2,-3,-6,-4,-1,2,-2,-3
281114322151,-3,-3,-4,-1,2,-3,2,-1
281114322151,-2,-2,-3,-5,-3,-1,-1,-2
281114331116,-2,-2,-1,-1,3,0,-1,0
281114331116,-5,-8,-3,-5,-1,-1,-2,-2
281114345997,0,1,-2,-4,0,0,-3,-4
281114345997,1,-1,2,-6,0,-3,0,-2
281114347561,4,-6,2,-2,-4,-2,-4,-2
281114347561,-3,-2,-3,-4,0,-5,-2,-1
281114359681,-2,-5,-2,1,-6,3,-2,-3
281114359681,-3,-1,-5,-1,1,-3,2,-3
281114368622,-1,-1,0,2,0,3,-2,2
281114368622,-3,-3,3,-6,3,0,-2,-2
281114382152,-4,-1,3,-4,-2,2,-2,-2
281114382152,2,1,-3,-1,-3,2,-1,-5
281114391141,3,3,-4,-2,-5,-2,0,-2
281114391141,0,3,-1,-2,-2,-4,1,0
281114406021,-4,-1,0,-1,-1,0,3,0
281114406021,-1,1,-1,-2,3,-1,0,-5
281114407593,-1,-1,-5,-1,-3,-5,-2,-5
281114407593,-2,3,-1,-2,2,-5,0,-1
281114419654,0,-4,-3,-7,2,0,-2,0
281114419654,0,2,0,0,0,1,-4,1
281114428621,-3,-3,-1,-3,1,-2,-4,3
281114428621,5,-3,1,0,-4,1,3,2
281114442103,2,-2,-6,0,-4,-4,-2,0
281114442103,-2,-3,-2,-1,-3,-4,-1,-4
281114451121,-4,2,3,2,5,0,-2,2
281114451121,-2,-3,4,1,1,1,-1,3
281114465961,2,1,0,1,3,-1,4,-3
281114465961,1,-2,-1,2,-3,2,-7,1
281114467576,0,-3,-5,2,0,0,1,5
281114467576,0,4,-1,-1,-2,0,3,-2
281114479666,0,-3,0,-2,0,-1,-1,0
281114479666,-2,0,2,-1,1,-1,1,2
281114488615,1,0,0,-3,0,-3,-3,-4
281114488615,1,-6,0,5,2,-1,-5,-3
281114502165,-2,4,-2,-1,-2,1,-3,1
281114502165,-2,-6,-5,0,4,3,-2,1
281114511161,0,0,0,-4,-4,1,1,2
281114511161,0,-1,-1,1,1,0,0,0
281114525343,2,0,1,-3,0,-1,-2,-1
281114525343,0,0,-4,-2,-3,-3,-2,-1
281114532155,0,-3,3,2,0,0,-2,-4
281114532155,-2,-5,-1,-2,1,-1,-1,-2
281114539652,0,-6,2,-3,-7,1,0,1
281114539652,-3,0,0,-2,-4,5,0,3
281114548664,0,2,-3,1,1,-5,1,-2
281114548664,-6,7,-1,2,1,2,0,1
281114562132,-2,-5,0,-1,3,-1,-9,-1
281114562132,0,-4,2,-4,-1,-3,2,-4
281114571224,-2,2,4,2,-1,5,-2,-2
281114571224,-1,-4,0,-1,-1,-2,1,2
281114585341,3,-1,1,-2,-3,-2,3,-2
281114585341,-1,1,-3,0,-2,-1,-2,1
281114592134,-3,0,0,-4,-1,2,3,-1
281114592134,-2,1,-3,0,-2,-3,-5,-3
281114599649,-5,6,3,4,1,4,-4,4
281114599649,0,-1,0,-1,-5,-3,-1,-4
281114608662,0,0,1,-2,-4,-1,0,-1
281114608662,-2,-4,-3,1,1,-4,1,-1
281114622143,-7,-1,0,1,1,-3,2,1
281114622143,1,-4,0,2,2,-4,-3,0
281114631136,-4,0,-1,1,-3,-3,-2,-3
281114631136,1,-3,-4,1,-1,0,1,2
281114645389,1,4,0,-2,1,-2,-1,0
281114645389,0,1,-4,1,4,-1,-1,-2
281114652119,1,1,-1,-5,-6,-3,-4,-2
281114652119,2,-1,-1,-6,-1,-6,-2,-4
281114659605,0,-4,-1,0,-4,3,1,-3
281114659605,-4,-1,-4,0,0,-1,2,-1
281114668637,-3,-1,-2,-4,-3,-1,-1,-4
281114668637,-1,1,0,1,-7,1,-2,-5
281114682112,1,2,-2,0,-1,-3,-4,-3
281114682112,-1,-8,-5,-4,-4,-3,-3,-6
281114691146,1,-3,-1,-1,-1,-3,1,-3
281114691146,0,-1,0,-4,-6,2,-3,-3
281114705349,-1,-4,-2,-2,-4,-2,1,1
281114705349,2,2,1,0,-5,2,-1,0
281114712105,-2,-3,-1,0,1,6,-2,7
281114712105,-3,-1,-3,-2,-4,-2,-3,-2
281114728466,-1,-3,-1,0,-5,1,-1,-2
281114728466,-4,-5,-1,-3,-2,-1,-3,-2
281114730102,-3,-6,-1,-3,-4,-3,0,-4
281114730102,6,2,3,-1,-2,2,-1,-1
281114742136,-5,-3,-5,-3,2,-2,1,2
281114742136,-1,2,-1,-1,-4,-2,-1,1
281114751119,-3,-3,-4,-5,2,-3,1,-1
281114751119,-2,-5,-4,-3,-2,-2,-1,-3
281114765283,-1,-2,0,-3,-3,-2,-5,-3
281114765283,0,3,2,-3,2,-2,0,3
281114772135,0,-3,1,4,1,1,0,0
281114772135,-4,-1,0,-4,5,-2,-4,-4
281114788699,-5,-3,-1,-2,-2,-3,-1,-1
281114788699,-1,-2,-2,1,-2,2,-1,2
281114790159,0,0,-1,-3,-1,-3,-8,-3
281114790159,-2,-1,2,2,1,-3,-2,2
281114802324,2,1,0,2,-3,-4,-2,-1
281114802324,0,-4,0,1,0,0,-3,0
281114811241,1,3,0,-1,0,-6,-1,0
281114811241,-4,0,-1,-1,-4,1,-1,-1
281114825485,4,-1,-3,-2,2,2,2,-2
281114825485,-1,2,-2,-1,-4,5,4,-3
281114832318,-1,1,4,-2,-1,3,-1,-4
281114832318,0,1,-2,-2,3,1,4,0
281114848698,-1,1,-1,0,0,-4,-1,-3
281114848698,-3,-2,0,0,-5,-3,0,4
281114850078,0,-3,-4,-1,0,0,2,-2
281114850078,-4,1,-1,-3,-6,0,3,0
281114862781,-2,-3,1,-3,0,1,0,-3
281114862781,2,-1,-2,-1,-1,-3,-6,0
281114871199,-1,0,-2,0,-6,2,1,-2
281114871199,-1,-4,4,-1,0,0,-5,3
281114885485,-1,-4,-3,2,-4,0,-1,1
281114885485,1,-4,0,-2,3,-1,-3,-3
281114892293,1,0,-2,-3,0,1,-2,-1
281114892293,-3,3,-3,2,-4,2,0,1
281114908647,1,-2,-1,-1,-5,-4,-4,0
281114908647,-3,0,-2,-1,2,-1,-1,0
281114910170,-1,-2,0,-2,-1,-2,1,-2
281114910170,-1,-4,-4,-3,-2,-3,0,-4
281114922305,3,0,2,-5,-1,0,-2,0
281114922305,-1,-4,-3,-2,-1,-3,2,-5
281114931240,0,-6,4,0,1,-4,0,1
281114931240,2,6,3,1,0,-1,-1,1
281114945530,-5,0,-4,-1,5,3,-3,-1
281114945530,4,1,2,1,-2,-2,0,1
281114952338,-1,3,0,0,-1,-1,-2,1
281114952338,1,-5,-5,-3,-1,-3,-1,-4
281114968559,-3,-4,-4,-3,1,1,4,0
281114968559,-4,1,3,2,1,-1,-2,0
281114970154,-2,-3,-6,0,-2,-3,-1,-1
281114970154,3,-3,4,-1,0,-1,0,-3
281114982356,-1,9,1,1,-1,-1,-1,-1
281114982356,-3,1,-3,-5,-4,2,-2,-2
281114991131,-3,-2,-1,0,-4,0,-1,3
281114991131,0,-2,-1,-1,-1,4,2,2
281115005516,-2,-4,-1,0,-2,1,-2,-1
281115005516,0,0,-4,-3,0,-4,-6,-4
281115012290,-4,-1,1,-4,1,-2,-5,3
281115012290,-3,1,2,-2,-2,-2,-1,2
281115028719,1,-2,0,2,-1,-1,1,1
281115028719,-2,-3,0,-1,-3,-1,-1,-1
281115030122,1,0,0,3,3,0,-3,3
281115030122,-2,-3,-6,-4,2,0,-1,-1
281115042266,0,-1,0,2,0,-1,0,-1
281115042266,-6,-1,0,0,-3,3,-7,2
281115051265,0,-1,-4,-5,-6,-3,-4,0
281115051265,-4,-6,-3,4,-1,-1,-1,3
281115073678,-2,4,-2,-2,-5,-3,-3,1
281115073678,-1,-6,0,-1,-5,0,2,-3
281115075114,1,5,-4,1,0,1,0,-4
281115075114,-2,-5,-1,-4,2,-1,-2,-1
281115088614,-4,-8,-2,-4,0,1,-2,-2
281115088614,-2,4,1,-1,2,-1,-2,3
281115090131,1,-4,-6,-3,-2,-1,1,-3
281115090131,-1,1,-3,0,-3,-2,-4,-1
281115102170,6,4,0,3,-1,-5,-2,-3
281115102170,-2,-2,-1,-4,3,-3,-1,-3
281115111114,-1,-2,4,-2,3,-5,-2,-5
281115111114,3,2,-1,0,-2,-4,-7,-2
281115125379,-2,1,4,0,-3,0,1,-3
281115125379,1,-2,-5,1,1,-3,0,1
281115132175,-5,1,-3,3,-1,-2,0,0
281115132175,-1,2,-1,-5,-1,2,4,-2
281115148508,-1,-6,-1,-4,-2,-5,-2,5
281115148508,1,-2,-5,-1,-3,0,-2,-1
281115150113,1,-5,0,-5,-1,-3,3,-1
281115150113,-2,-3,-4,1,1,1,-3,-1
281115162151,1,4,-3,-3,0,-1,2,-2
281115162151,-1,-2,-1,-6,2,-2,-2,-5
281115171148,1,-1,-3,-2,-1,0,-3,0
281115171148,-2,-2,1,0,4,0,0,1
281115185325,-3,-5,0,-1,4,-2,2,2
281115185325,2,2,3,3,-1,-3,4,-4
281115192165,0,-2,1,1,-2,-1,-2,1
281115192165,-1,8,1,-2,-6,-1,-5,-2
281115208521,-3,4,-4,-2,-1,2,-4,0
281115208521,1,2,-2,1,3,-1,2,1
281115210084,-1,-3,-2,1,2,2,-2,-6
281115210084,0,1,-4,0,-2,-7,3,2
281115222165,0,-2,0,2,2,0,-1,-3
281115222165,-1,-5,-2,-3,-1,2,-3,-3
281115231117,-2,3,1,2,4,2,0,2
281115231117,-3,-1,-3,-2,3,-1,2,-4
281115245316,-2,-2,-6,-2,-3,1,-3,-1
281115245316,0,2,2,4,0,-2,1,1
281115252144,2,-1,-2,-4,-4,0,4,3
281115252144,-3,-4,-5,1,1,3,-2,-5
281115268793,-4,-3,-1,1,3,-2,3,0
281115268793,2,3,-2,1,-1,0,0,3
281115270192,-4,-3,1,-1,-3,-1,1,-5
281115270192,-4,2,0,2,-2,-4,-3,3
281115282368,0,5,-2,0,-6,3,-2,-2
281115282368,0,-4,-2,1,1,-2,-1,3
281115291177,-2,0,-2,1,-2,-4,-4,0
281115291177,-2,-4,4,2,-4,2,-1,-2
281115305446,-2,-4,-1,0,3,2,0,0
281115305446,-4,-3,0,-3,3,-2,2,-1
281115312169,-1,-3,3,-2,-5,3,2,-3
281115312169,-2,-4,3,-1,-3,2,-3,-3
281115328543,-2,-4,-2,3,0,-3,-1,-5
281115328543,-6,3,0,-3,-5,0,0,-2
281115330117,-1,0,-7,-2,-3,-2,-1,0
281115330117,0,-1,-1,-1,0,-1,-1,-1
281115342246,2,1,0,0,-3,6,-5,0
281115342246,3,-1,1,-4,-7,-4,-2,-2
281115351173,0,-2,-1,4,6,0,-2,-2
281115351173,1,0,-1,-1,4,-3,1,-5
281115365595,0,-3,1,-3,1,0,-6,2
281115365595,-1,-4,1,-1,-2,-3,-6,2
281115372226,-2,-1,-3,2,-1,-2,-3,0
281115372226,3,1,0,0,-1,-2,1,1
281115388307,0,-4,2,-3,1,-3,5,-4
281115388307,-5,-4,-2,1,-3,4,2,0
281115394654,-1,-5,-4,-4,2,-2,1,-2
281115394654,-2,-3,-1,-2,0,4,-3,-1
281115402362,-1,0,-5,-2,2,-5,0,-7
281115402362,0,4,-4,-4,2,-3,3,-4
281115418800,-3,6,0,-4,-2,-2,-3,0
281115418800,-2,-1,-1,-1,1,-8,2,-2
281115425463,2,1,-1,-2,-2,0,-2,3
281115425463,-1,-3,-3,0,-4,2,-3,-2
281115439803,-1,-1,1,6,1,2,-2,0
281115439803,-1,-5,-1,-7,1,2,1,-3
281115447940,-2,-2,-1,0,-5,-2,-3,0
281115447940,-6,0,2,0,5,0,1,-1
281115454845,2,-2,0,0,-5,-8,-4,1
281115454845,-5,-6,-1,-1,-1,-3,-1,-1
281115462190,2,3,-2,3,0,-1,0,3
281115462190,0,-3,-3,-3,-2,0,-1,-1
281115471190,-6,-1,1,-2,0,1,0,-3
281115471190,0,2,-2,-4,-3,1,-5,2
281115485355,-2,0,-2,-4,-5,1,-5,-2
281115485355,1,-5,-1,-4,-5,-6,-2,-4
281115492165,0,2,-2,2,0,1,-1,2
281115492165,0,0,-5,5,-3,1,-2,3
281115507850,-1,0,0,2,1,4,-2,1
281115507850,1,0,-1,2,2,3,-8,-3
281115514637,-2,1,3,-4,-2,2,1,-2
281115514637,2,2,0,3,1,-4,2,1
281115522161,-2,0,-1,0,-1,-3,4,0
281115522161,0,1,-1,-3,6,-1,5,-2
281115531159,2,-1,1,-2,0,5,1,-6
281115531159,-5,-5,-5,-4,-2,4,2,0
281115545362,0,-4,0,2,2,-2,-3,-1
281115545362,-3,3,-4,-1,-3,-2,-4,1
281115552133,-1,2,1,1,-1,1,1,0
281115552133,2,0,1,0,-1,-2,-1,2
281115567841,2,-3,5,-1,-3,1,-2,-3
281115567841,1,-1,-1,-1,-4,0,-5,-1
281115574623,3,-4,-1,0,-6,-2,-1,-5
281115574623,-1,-1,-4,1,1,-1,0,-1
281115582136,-3,-2,0,-1,2,-2,5,1
281115582136,1,1,2,0,4,0,2,2
281115591265,0,-2,2,0,2,-4,-4,1
281115591265,4,1,1,3,-3,-4,0,-1
281115605538,1,0,-4,1,-2,-3,1,-1
281115605538,-3,-1,-3,1,-3,1,4,-2
281115612355,-4,-1,-2,-4,2,-3,-1,-2
281115612355,-3,-5,-2,-3,-2,-6,0,-5
281115628045,-1,-1,-1,-6,0,4,-1,1
281115628045,3,0,1,0,-1,-5,1,0
281115634807,2,1,-3,0,-1,0,-6,2
281115634807,-3,0,0,-2,4,-2,-4,2
281115651527,1,-3,2,-1,-2,-3,-5,4
281115651527,-3,-2,-3,-1,-4,1,-4,-3
281115653151,-3,-2,-4,-6,-2,0,2,-3
281115653151,-1,1,0,1,-2,0,0,-1
281115665531,-4,-3,-8,-4,1,-2,-1,-7
281115665531,0,-3,1,-1,4,1,-5,-2
281115672300,0,0,-1,1,0,-3,0,1
281115672300,3,1,3,1,-5,1,0,-3
281115696186,-1,-5,-3,1,-4,1,-1,1
281115696186,-1,1,-5,-1,-3,0,-2,5
281115697658,-1,-3,-3,-3,-3,0,-2,-1
281115697658,0,-3,0,1,-2,2,-1,-1
281115711174,0,0,1,-4,-3,0,-1,-3
281115711174,-4,-4,-1,-2,-1,-2,3,-4
281115712607,-1,-1,-1,-4,-3,-1,-1,3
281115712607,-5,-3,-1,-5,-4,2,-2,0
281115725609,0,0,-1,0,0,-7,-5,1
281115725609,1,0,7,5,-1,-4,2,-1
281115732315,-1,1,-2,-1,0,-4,2,-2
281115732315,2,0,-2,1,3,-1,0,-1
281115748006,-4,-1,0,0,-2,0,0,-1
281115748006,0,1,5,-2,-1,1,0,2
281115754782,1,3,1,1,-2,2,1,-2
281115754782,0,-1,-1,-1,-3,-3,-3,-3
281115771026,-4,0,2,2,2,0,-3,-1
281115771026,3,-4,0,1,-3,0,-1,0
281115772611,-2,-1,3,0,-1,1,2,2
281115772611,-1,0,-4,-1,-3,1,0,-1
281115785496,-2,0,0,-5,-4,-2,-2,-1
281115785496,0,0,-5,1,-2,0,-5,-1
281115792277,3,-1,1,4,0,2,-2,0
281115792277,-1,1,2,-5,-3,-3,-4,1
281115807913,-2,3,-1,1,0,-1,-1,3
281115807913,-1,1,-1,-1,-1,-1,0,-2
281115814952,2,-3,4,2,-2,-2,2,0
281115814952,-1,-4,-5,1,0,-2,-2,-2
281115831220,1,0,1,3,1,6,0,-2
281115831220,-2,3,0,1,-1,-4,-2,2
281115832701,-1,1,-1,-1,3,-1,0,-1
281115832701,-2,1,1,1,-2,-2,-4,-4
281115845473,-1,2,-4,-4,-1,-2,-2,1
281115845473,-2,-1,-3,0,-1,-2,2,-6
281115852350,-4,0,1,-4,-1,-2,-3,0
281115852350,1,4,1,3,1,-1,0,2
281115868010,0,-2,3,0,3,-10,0,3
281115868010,2,-1,2,-4,-2,-2,-2,3
281115874742,2,4,-3,0,-4,3,2,0
281115874742,-4,-1,2,-2,4,-2,-7,-1
281115891655,0,1,1,-1,-2,-2,3,-7
281115891655,0,-2,-2,-2,5,2,-1,-2
281115897223,0,-1,-3,1,2,-5,-2,0
281115897223,-1,-4,1,-1,-4,2,3,-1
281115905445,-1,-3,-4,0,-4,-1,-1,1
281115905445,-5,0,-2,-2,-4,-1,1,0
281115912177,-2,-2,3,1,1,-2,-3,4
281115912177,2,2,0,-1,-2,0,0,0
281115928306,-1,-1,-2,-5,-4,-2,-4,-3
281115928306,-1,-2,0,1,1,-4,1,2
281115934684,0,-1,-5,-4,-4,0,1,-3
281115934684,0,-1,-6,3,1,-2,-3,1
281115951019,3,-2,0,-4,-3,-3,-1,3
281115951019,1,3,3,1,0,3,-3,1
281115952660,0,-6,-3,3,1,2,5,-3
281115952660,-3,0,-2,-5,-3,1,4,-1
281115973556,0,2,0,-1,0,3,3,0
281115973556,0,-2,-6,-4,1,-1,-1,-5
281115975115,-3,1,-2,-3,-6,-3,-7,-2
281115975115,0,-5,1,-3,4,0,-4,-1
281115987876,-4,-1,0,1,1,0,-3,0
281115987876,1,1,1,-2,1,-1,4,-3
281115994651,-1,1,0,4,-3,1,0,-2
281115994651,2,2,3,1,0,-2,1,0
281116010992,1,-2,-1,-1,3,-2,-3,0
281116010992,0,-2,1,0,1,1,-8,1
281116012625,0,-3,-2,0,2,1,-4,-5
281116012625,2,0,-7,-3,-3,-2,-3,-3
281116024653,-2,-2,3,3,0,-2,0,-1
281116024653,1,2,-2,3,-2,-3,-3,-1
281116033731,-1,2,-3,-2,-2,1,4,-4
281116033731,0,-2,3,-3,0,4,3,-3
281116047854,-3,2,-3,-3,-2,1,0,1
281116047854,3,-3,-3,0,-4,-3,1,2
281116054772,-1,1,4,-2,-2,-3,0,4
281116054772,2,1,-2,0,-5,0,-1,-3
281116071294,-3,-5,-3,-3,-3,1,-2,-5
281116071294,-3,-6,-2,0,3,0,3,-1
281116072708,2,0,0,-2,2,-6,2,-2
281116072708,-2,-2,0,2,-5,-3,4,-2
281116084725,-4,-3,1,2,-5,-3,-4,-3
281116084725,1,-1,0,1,-1,-2,-2,1
281116093817,0,-3,-1,0,-5,-2,-5,2
281116093817,0,0,-2,-1,2,-3,-5,0
281116107880,3,6,-7,1,-1,1,1,-3
281116107880,-6,-1,1,-2,-1,-4,-1,-1
281116114620,-1,-3,1,4,3,-2,4,1
281116114620,0,-3,-1,-4,-2,-3,-1,2
281116131269,2,-1,0,0,2,0,-1,1
281116131269,-2,3,4,2,-4,0,-3,0
281116132650,-1,4,-3,-2,5,-2,-5,0
281116132650,-4,0,1,-2,-1,-1,1,-2
281116144868,2,0,-3,1,1,1,5,-1
281116144868,1,5,-1,0,0,0,0,-1
281116153645,-5,-4,-3,1,-2,-2,-3,0
281116153645,-2,0,-1,2,1,-3,-5,-3
281116167978,1,-2,-1,-4,1,-2,0,-1
281116167978,-1,-2,-1,-4,-5,1,-1,-4
281116174927,1,-5,3,-1,0,2,-3,2
281116174927,-4,0,0,1,0,-1,0,4
281116191389,-4,0,0,-1,-3,-2,-4,-2
281116191389,-1,-1,-7,-2,-2,-1,0,-1
281116192649,-1,2,0,-2,-1,-4,0,-6
281116192649,-5,3,-3,1,-4,-1,3,-2
281116204837,1,-5,-3,3,-2,-2,2,1
281116204837,0,-1,1,2,1,2,-4,-1
281116213670,-4,1,0,-1,-1,2,0,-3
281116213670,0,4,-1,-1,0,3,-2,-2
281116228456,-2,4,-2,-6,-3,-2,-1,2
281116228456,0,-1,-6,1,-2,-1,-1,0
281116234869,-1,-4,-3,-3,1,-2,2,-2
281116234869,1,-1,-4,-2,1,0,2,-1
281116251036,1,-1,3,-1,-1,-4,-6,-1
281116251036,1,1,0,1,3,-3,-5,0
281116252627,-3,7,-3,2,-7,1,-1,-1
281116252627,1,-1,-2,-5,-2,-5,4,1
281116264694,-7,1,-1,2,-3,1,3,-3
281116264694,-3,-3,0,0,3,-1,10,0
281116273658,4,-3,0,1,1,2,-1,-2
281116273658,-2,-4,2,-2,-2,-1,-6,0
281116287889,1,-6,0,-3,2,0,-3,-5
281116287889,-2,2,1,0,-1,0,-4,-2
281116294673,-4,-4,-1,-2,1,3,-1,1
281116294673,-3,-5,-5,-5,-2,-4,1,-2
281116311036,4,-2,2,4,6,0,2,0
281116311036,-1,-5,3,1,-3,0,-3,0
281116312643,1,-2,-1,-2,-5,1,-4,-4
281116312643,-2,-4,-2,2,-2,-1,-4,-2
281116324668,-2,-5,-1,-3,3,-1,1,0
281116324668,0,-1,0,0,-1,5,-1,-3
281116341199,-1,-2,2,-3,-1,1,3,-6
281116341199,3,2,3,2,2,-4,-1,-2
281116348069,-1,-1,-2,2,-3,0,-2,5
281116348069,-1,3,-3,-2,-4,0,-4,1
281116354788,1,0,-3,0,0,-1,-2,1
281116354788,0,-3,-1,0,0,2,-2,-4
281116371252,-1,4,1,-1,-3,-1,-1,0
281116371252,-1,-1,-2,-1,-2,-3,0,-2
281116372676,2,3,-1,3,0,-3,-2,-3
281116372676,2,0,-1,-1,-2,1,0,-1
281116384895,-4,4,-4,-3,-4,-1,-5,-5
281116384895,0,1,1,2,0,0,1,0
281116393703,-3,2,2,0,-5,-7,-2,1
281116393703,1,-1,-4,0,-3,3,1,0
281116408143,-3,-2,3,-1,-1,0,0,0
281116408143,-1,-3,4,-1,-3,2,0,2
281116414775,2,-2,-2,2,4,-4,-1,1
281116414775,-1,2,-2,0,-1,-4,-2,2
281116430598,-4,-3,-3,-3,-1,-4,1,-2
281116430598,-2,-3,-2,-3,1,-4,0,-2
281116437353,3,-4,0,-3,2,0,-2,1
281116437353,1,-6,4,3,1,-2,1,-1
281116444779,-2,-5,0,-3,-2,-1,-1,-4
281116444779,2,-3,1,0,-5,2,-1,1
281116453780,-1,1,-5,-2,-5,-2,5,2
281116453780,-1,4,2,0,0,3,0,0
281116467978,1,-4,-3,-1,-7,2,-3,3
281116467978,1,-8,-1,-2,6,-1,7,3
281116474905,3,0,0,0,-1,1,-2,0
281116474905,-7,-4,-1,-1,2,-1,-2,1
281116490624,0,0,-5,-3,-5,0,1,-4
281116490624,-4,3,-5,-6,-2,-4,-1,0
281116497232,0,-1,2,-1,-1,-3,-4,-1
281116497232,-3,-2,-4,-6,-5,-2,-3,-2
281116504657,1,2,6,1,6,0,4,-2
281116504657,-1,2,-1,-3,-1,-2,-4,-2
281116513741,-2,2,-2,2,1,-1,-5,0
281116513741,0,-1,-1,-3,-5,1,-2,-3
281116528404,2,-2,-4,-5,0,-1,-1,1
281116528404,-3,-1,-1,1,0,0,-4,0
281116534653,0,-4,0,-5,-5,3,0,-4
281116534653,-2,-3,-1,-3,-2,1,2,-2
281116550363,-4,-3,1,5,-3,-2,0,1
281116550363,1,-4,-4,-3,3,0,-3,-4
281116557135,-7,-1,-4,-3,0,2,1,-5
281116557135,0,0,-2,0,0,-1,-4,-2
281116564631,-1,0,-2,-1,3,-1,1,-4
281116564631,0,-5,1,-5,-6,-1,4,-1
281116573728,-2,1,0,-1,0,-1,-2,4
281116573728,2,2,-1,-2,-2,3,-1,-1
281116587905,1,0,0,-1,-1,1,-4,-2
281116587905,-4,3,-3,2,-2,-5,-4,-4
281116594685,-4,-3,1,1,-1,-4,-1,-4
281116594685,1,-4,1,-2,-2,-3,1,1
281116610361,-1,-1,0,0,-2,1,-4,-1
281116610361,1,-2,0,-2,-2,-4,-2,-2
281116617204,0,-1,3,0,-7,-1,-1,1
281116617204,-3,3,-7,-5,-3,-2,-2,1
281116633709,-3,0,0,1,2,1,-5,-2
281116633709,-1,-5,-2,-2,4,1,-2,1
281116635195,2,-1,-3,-4,-2,3,-1,3
281116635195,0,-2,1,-1,3,1,0,-2
281116648038,4,0,2,0,0,-3,0,4
281116648038,-1,0,1,0,-2,1,0,-4
281116654833,1,-1,0,-4,4,-3,0,-2
281116654833,3,-6,-4,0,2,-2,2,-1
281116670527,0,4,-3,1,-8,-3,6,3
281116670527,1,4,0,-1,-4,0,-2,0
281116677381,-3,-5,0,-3,-6,-1,0,1
281116677381,0,2,5,1,-1,0,-2,1
281116693759,1,-1,1,-3,-3,0,-2,0
281116693759,2,1,2,0,-2,-2,-1,0
281116695194,2,1,0,-3,-3,-1,1,-4
281116695194,-2,0,-1,1,-4,-2,-4,1
281116708033,-1,-4,-2,0,0,2,-7,0
281116708033,0,0,-4,-1,0,-3,2,-2
281116714910,-4,-1,0,-2,-1,-1,-4,3
281116714910,2,1,-1,-4,0,-2,2,-2
281116730649,2,-4,-2,-7,-3,-8,1,-4
281116730649,0,4,2,-1,0,-2,-4,-4
281116737367,-8,-4,-4,-2,-1,0,0,-1
281116737367,-1,1,2,-3,0,-3,0,-5
281116761195,0,4,-2,-2,-4,0,-2,1
281116761195,-4,-1,-4,-3,-4,-5,1,1
281116762662,1,-1,-3,-1,-1,-1,2,-2
281116762662,-5,0,3,2,-3,-3,-3,1
281116767880,-4,-4,-3,-3,0,-1,3,0
281116767880,2,-1,3,5,1,-1,-1,1
281116774684,-1,5,-5,0,-1,-1,3,1
281116774684,1,0,1,2,-1,-5,3,1
281116790539,-2,-7,1,1,6,2,2,-3
281116790539,-2,0,1,6,-1,1,-2,-1
281116804866,1,-2,0,-2,2,-1,-2,-3
281116804866,1,1,-1,1,-1,-2,-6,-2
281116813624,1,5,-3,-3,-2,-5,-2,-1
281116813624,1,-8,2,-7,-2,1,-1,0
281116815199,-5,0,1,1,-2,-4,-2,-1
281116815199,-7,1,0,-3,0,2,-3,1
281116828084,-2,-5,0,-4,-4,-2,1,-1
281116828084,-2,4,-3,1,-4,-2,0,4
281116834873,5,1,1,1,-3,-2,-7,-1
281116834873,-4,-1,2,-1,-1,1,1,-4
281116850576,-2,-1,-4,-1,-2,0,1,-3
281116850576,1,0,5,-2,-3,6,4,0
281116857196,-1,-3,0,-3,-1,1,-1,-2
281116857196,0,-4,0,0,2,-4,-1,-4
281116873560,-2,-2,0,0,3,0,0,-2
281116873560,-4,1,-5,0,1,-5,-2,-2
281116875144,1,4,0,1,0,-1,-1,-2
281116875144,-3,0,0,-4,-5,-1,0,-2
281116887860,2,5,-1,3,3,-2,-5,-1
281116887860,-1,3,-3,-3,-1,-4,-3,-1
281116894667,1,-1,1,2,-2,-3,1,0
281116894667,-2,-4,-5,-3,1,-3,0,1
281116910518,-3,-2,2,1,-7,1,-1,-2
281116910518,-5,-2,-2,-2,0,0,-3,0
281116917317,-1,-2,-2,2,-3,-6,-1,-3
281116917317,4,-6,-2,-2,-2,2,0,-4
281116933705,-2,-2,0,3,-4,1,-2,-1
281116933705,-1,0,3,-1,-2,-1,-1,2
281116935159,1,-2,-4,1,-2,0,2,-3
281116935159,2,1,3,-3,4,1,-2,1
281116948084,-1,0,1,-1,-7,-2,2,3
281116948084,0,1,-3,0,0,0,1,-3
281116954868,-3,-3,-3,-3,4,-1,1,-2
281116954868,-1,-3,-3,0,-1,0,0,-1
281116970457,2,3,-5,1,1,1,-1,0
281116970457,-1,0,-3,-1,-2,-2,1,-4
281116977239,-2,-4,3,2,-1,-1,0,-1
281116977239,-2,-2,-3,0,-4,4,-3,-1
281116993723,-6,-4,-3,0,-2,-4,-5,-1
281116993723,0,-4,-1,-1,2,0,-7,-2
281116995192,1,-3,1,-3,0,2,-3,-1
281116995192,-1,5,-5,2,0,-3,1,0
281117007447,2,-7,-2,2,-1,-1,-2,-4
281117007447,-4,-1,-5,-3,-7,-2,-5,1
281117016295,-3,-4,-2,1,-4,-2,0,4
281117016295,2,0,1,1,-3,-6,1,-2
281117030549,0,0,-1,-1,4,2,-2,0
281117030549,2,0,0,-1,0,1,2,-1
281117037208,-2,2,3,-1,2,-2,-5,2
281117037208,-6,-3,-3,0,2,0,4,5
281117061203,2,4,-4,-1,-2,-6,-1,0
281117061203,-5,0,-3,4,3,3,-2,-1
281117062779,-1,0,2,1,-2,1,4,3
281117062779,2,-1,-2,-2,0,-2,-5,-1
281117067409,-3,2,5,-2,5,1,-4,-4
281117067409,-2,0,1,2,-4,-2,-3,-1
281117083751,3,4,-4,3,-1,1,-4,2
281117083751,0,1,0,0,-5,-1,-3,-1
281117090430,2,0,3,0,0,-1,1,0
281117090430,2,-2,2,0,-2,-1,-2,2
281117097236,1,-2,-1,-1,1,2,-3,-4
281117097236,-1,-3,-2,-2,-4,0,0,-3
281117112861,-6,-5,0,0,1,-1,0,-3
281117112861,-2,-3,3,0,-4,0,-2,2
281117113658,-2,-4,-6,-6,1,-2,1,-10
281117113658,-2,-2,1,2,2,3,2,-8
281117142835,1,-1,-1,-3,-3,3,4,-2
281117142835,-5,-1,-2,-4,-3,1,4,-14
281117143600,-2,-4,-2,-6,-6,0,0,-15
281117143600,0,-1,-2,-2,0,3,3,-13
281117151194,-4,-4,2,-3,-2,-1,4,-9
281117151194,0,-2,-1,5,1,1,11,9
281117157162,-2,3,1,-1,1,-5,4,-7
281117157162,-1,1,0,-1,-2,-2,10,-11
281117173033,0,1,2,-6,-4,0,11,7
281117173033,0,0,-5,-1,-4,-3,12,8
281117173723,2,-1,-3,1,1,-4,2,31
281117173723,-4,-5,2,-1,1,-8,-4,24
281117195466,1,-3,3,1,3,0,1,12
281117195466,0,-3,6,1,-2,-4,-13,18
281117196255,-1,0,2,1,-4,-4,-10,27
281117196255,-2,2,-4,-3,-4,-2,-4,19
281117211326,3,0,-6,1,3,2,-3,36
281117211326,1,1,-1,-4,6,3,-7,25
281117217420,3,0,-2,2,5,3,-9,14
281117217420,-1,-1,-2,2,3,1,-16,16
281117232908,-2,-9,-3,-4,-5,-4,-17,17
281117232908,-1,3,6,1,-1,-2,-22,4
281117233645,1,-2,4,2,-5,-1,-21,-14
281117233645,-3,1,10,5,-6,-6,-16,-25
281117255544,-7,3,2,1,-4,-3,-12,-58
281117255544,3,1,-3,0,-2,-2,-2,-46
281117256172,-4,0,-5,-5,-4,-2,10,-36
281117256172,0,-3,-8,-5,2,3,6,-21
281117271251,-2,7,-4,-4,4,-1,8,-14
281117271251,-1,-9,-2,-7,5,2,8,-10
281117277337,2,4,-5,-6,2,3,8,-11
281117277337,3,-3,-3,-3,3,-4,6,-7
281117293017,0,2,-6,-3,1,-2,0,-1
281117293017,0,-2,-7,-2,0,-2,4,-1
281117293743,-2,-3,-4,-3,-1,-2,1,3
281117293743,-5,-1,-1,-2,3,0,-1,5
281117315395,0,1,-1,1,1,-1,-6,4
281117315395,3,-1,2,-1,-2,-5,2,0
281117316142,-6,-6,-2,-3,-1,1,1,8
281117316142,0,-6,-2,-3,-2,-1,-1,12
281117331182,-4,-4,3,-2,-5,-1,-3,5
281117331182,-1,0,-5,-3,-3,-2,-3,0
281117337198,-3,-4,3,-2,-3,-2,-5,2
281117337198,0,-2,0,-1,-2,-2,-3,4
281117360391,4,-4,-3,0,-3,-4,4,0
281117360391,-5,-6,-1,-5,4,-4,-3,2
281117361169,-1,-3,0,-4,-4,-4,-1,-8
281117361169,-3,-5,0,-1,1,-1,-1,-2
281117375311,-4,-6,1,-1,1,-2,-3,-1
281117375311,0,-1,0,2,1,0,-5,-3
281117376133,-2,-4,-3,2,5,2,-3,1
281117376133,-2,2,-3,-3,-1,-1,-2,-4
281117391161,0,-2,-1,-2,0,-2,-6,3
281117391161,-1,-3,-4,-2,0,0,2,-3
281117397215,-5,-5,-2,-7,-1,-3,1,-2
281117397215,0,2,1,-2,-1,5,0,-1
281117412147,-3,-6,-5,-2,0,-2,-2,-1
281117412147,-3,14,-2,0,0,-3,-3,0
281117419654,-1,2,-2,0,-2,-7,-3,4
281117419654,-3,-4,0,-1,1,2,-1,-2
281117435395,0,-7,0,-2,-3,-1,-2,1
281117435395,1,2,-2,-2,-5,2,2,0
281117436112,-2,3,0,-4,-2,-1,-1,-1
281117436112,1,2,-1,-3,-6,-2,1,-3
281117451211,-6,3,-3,-2,0,-1,2,0
281117451211,-4,-4,-4,-4,-3,1,6,-3
281117457197,4,-4,2,-2,1,0,1,0
281117457197,2,-2,1,-3,-2,1,2,3
281117472297,0,2,3,-1,1,4,2,-4
281117472297,-1,-7,-1,3,-2,-2,-1,0
281117479800,-4,0,1,1,1,-1,0,-5
281117479800,4,2,-1,0,-3,-2,-1,2
281117495382,2,3,-3,-2,-5,-4,4,1
281117495382,-3,-5,-2,2,1,3,2,-4
281117496162,0,0,-4,-1,-3,6,-2,-5
281117496162,0,1,0,2,-1,-2,0,-1
281117511294,-4,-4,-3,-2,-3,0,0,-3
281117511294,3,1,1,-5,-1,-2,-4,-3
281117517227,3,3,2,0,-1,-6,1,-3
281117517227,0,-6,-2,0,0,-1,1,-4
281117532278,1,-1,-2,3,2,1,-3,3
281117532278,-3,-2,1,-6,2,0,-4,0
281117539673,-1,0,-2,-2,4,2,0,-3
281117539673,-1,2,1,-4,0,-3,-3,-2
281117555516,0,-3,1,2,-5,0,-2,-1
281117555516,-1,-7,-4,-1,-6,-3,1,0
281117556314,1,-2,-3,-1,-1,1,1,-1
281117556314,-2,0,1,-2,-1,-1,2,-2
281117571253,1,-3,2,0,1,0,1,-2
281117571253,-5,0,2,2,-3,-5,-1,-1
281117577228,1,-5,-4,-5,-5,2,-1,-3
281117577228,1,-3,-5,0,0,-2,-2,-3
281117593764,2,1,0,-2,-4,-3,-2,-5
281117593764,-1,-2,-1,1,4,-2,-1,-2
281117599726,-2,2,3,-3,-3,-5,4,2
281117599726,3,7,2,-1,-6,-4,-8,15
281117615387,-4,1,5,-1,-6,-9,-9,21
281117615387,-4,-1,5,0,-5,-1,3,22
281117616178,-4,2,1,1,-4,-2,7,18
281117616178,-3,-3,-6,-1,-1,-1,14,0
281117639336,4,3,4,1,-2,2,11,-2
281117639336,3,5,0,-1,-2,1,1,-6
281117640134,-2,-4,1,-2,-1,-2,-7,-5
281117640134,-2,-1,-6,3,-3,-1,-9,-3
281117652189,-1,-4,-7,-3,3,-2,-7,-11
281117652189,1,-1,-3,-3,0,-1,-4,-9
281117659667,1,-3,-2,-3,-4,-1,1,-3
281117659667,-2,-2,2,0,0,1,2,-3
281117675340,-3,0,0,-2,-1,-2,0,-4
281117675340,2,-3,-2,-5,-3,2,-12,-8
281117676155,-3,-1,-4,-1,-2,-2,-14,-12
281117676155,-3,-2,-1,-2,-1,1,-5,-8
281117691182,2,-3,-3,-2,3,1,-1,-7
281117691182,2,-3,-2,1,-3,-5,1,-5
281117697199,-2,-6,1,0,-1,-3,7,-6
281117697199,-1,-2,0,-2,0,-2,4,-2
281117712395,-4,-3,-3,-2,-1,3,5,3
281117712395,-4,1,-2,-1,-3,-4,-2,15
281117719872,-6,-3,-2,4,-3,2,2,11
281117719872,-1,1,-2,-3,-1,0,-3,5
281117735601,-2,4,-1,-5,-2,-1,3,3
281117735601,3,-1,-1,2,1,-1,6,-1
281117736192,2,-4,3,1,2,-1,1,4
281117736192,-4,-5,1,-6,-7,1,3,-1
281117751315,1,0,1,0,-1,-1,-2,-20
281117751315,-5,-3,-2,-1,2,0,-15,-37
281117757384,-1,-1,-3,3,4,3,-17,-19
281117757384,1,-2,2,-1,-1,1,-14,-7
281117772298,0,1,-2,0,-3,-2,2,4
281117772298,-2,-1,1,1,2,-3,-1,15
281117779800,2,4,-1,-2,-3,-5,1,6
281117779800,-4,-3,-2,-2,-1,-4,5,6
281117795429,-5,2,-5,1,3,-2,-3,7
281117795429,0,1,-2,-8,-3,-6,8,3
281117796243,-3,-1,-4,-5,1,-6,1,3
281117796243,4,-2,-6,-3,0,-2,-5,1
281117811242,0,-6,0,-1,0,-2,-5,1
281117811242,1,-4,0,-2,-1,2,-3,3
281117817236,-4,2,2,0,0,-1,-4,2
281117817236,1,1,2,5,-4,-4,3,-6
281117832274,-2,-4,-1,-2,0,0,-4,-4
281117832274,-2,-1,-1,-4,-2,-2,-5,-1
281117839967,-2,-1,-4,0,2,2,-3,1
281117839967,-3,-4,-5,-1,5,-5,-2,-6
281117855552,0,0,-2,-2,-2,2,-1,-1
281117855552,2,0,2,-1,-3,0,3,-2
281117856244,-3,-3,-2,0,-1,4,2,-1
281117856244,-4,1,0,0,0,-2,1,-1
281117871228,-1,1,1,-5,-4,0,-2,-1
281117871228,-1,6,2,-1,0,5,1,5
281117877442,1,-3,1,2,-1,-3,0,0
281117877442,-1,0,-1,-1,-2,-1,3,0
281117892215,-2,-2,4,0,-4,-3,-2,-3
281117892215,-2,-4,-2,3,-3,2,3,-4
281117899702,1,5,3,-1,0,-4,-3,-3
281117899702,-1,-2,0,1,-3,4,-4,-1
281117916859,-9,0,-2,-6,1,-5,-1,-2
281117916859,-5,-1,-1,-2,-3,-4,-1,-1
281117917658,3,-1,3,0,-3,-6,1,-3
281117917658,1,-1,-5,-2,0,-2,0,0
281117931225,3,1,0,2,2,-4,-1,-3
281117931225,-5,-4,-3,-4,1,2,-2,-7
281117937222,1,-3,-4,-4,-7,0,2,-2
281117937222,1,-1,0,1,-3,-4,-1,-3
281117952230,-1,1,1,2,-1,-3,1,-3
281117952230,0,2,-1,-2,-2,-1,0,-1
281117959744,2,-2,-1,-2,-1,2,-1,1
281117959744,-3,-6,3,0,1,3,0,3
281117975435,-1,-3,-4,-1,-4,-1,-3,1
281117975435,0,2,4,1,2,2,-1,2
281117976177,-3,2,2,1,-4,2,0,-2
281117976177,-1,-3,-2,-5,-3,-2,-2,-4
281117991248,-6,-3,-1,0,0,2,-2,-2
281117991248,0,0,3,-1,1,0,-2,0
281117997405,0,-2,-3,-3,1,-2,-4,0
281117997405,-3,-4,-6,-2,-4,1,-2,-4
281118012324,-1,1,2,-2,-6,5,-1,3
281118012324,-4,-3,1,3,-2,-3,2,-2
281118019868,-1,-1,0,3,1,-2,3,0
281118019868,-3,-1,0,2,-1,-1,-4,-2
281118035428,2,-5,-2,-5,-3,-2,-1,0
281118035428,1,-2,-5,-1,0,1,-1,0
281118036133,-2,-2,-3,-1,1,-2,-2,-2
281118036133,1,1,-3,0,4,-3,0,-1
281118051337,-9,-2,2,2,0,-3,-1,-4
281118051337,2,3,0,2,-3,3,0,1
281118065577,-2,3,-2,-1,1,-5,2,2
281118065577,-1,4,0,0,1,1,-5,4
281118072408,2,-3,1,-2,-3,2,-4,-2
281118072408,-7,-10,-2,0,-9,-2,-2,-1
281118079865,-5,1,2,-1,4,0,3,-5
281118079865,0,-2,1,-1,-5,-4,0,2
281118095532,1,1,-6,4,-2,-4,3,-1
281118095532,-4,-5,-3,-3,3,-7,-4,4
281118096228,-1,-1,4,-1,-6,1,-1,-2
281118096228,-1,-2,0,-2,1,-2,-1,-2
281118111333,3,-1,-1,-2,-1,0,1,0
281118111333,1,3,0,0,1,1,2,-3
281118125613,1,-6,-2,-5,-2,-6,-3,-1
281118125613,-3,1,1,2,0,-4,-1,-1
281118132288,0,-3,-1,-2,-3,0,-4,-1
281118132288,-1,-4,1,3,2,0,1,2
281118139961,0,1,-1,-1,-4,2,-4,-3
281118139961,-4,2,-1,-2,0,4,-6,-2
281118155383,1,-4,-2,2,-1,0,-5,3
281118155383,2,0,-3,-2,-1,-3,-1,0
281118156121,0,-5,-2,-2,2,0,0,1
281118156121,0,-8,-1,2,0,2,-3,-1
281118171167,-4,0,-2,-2,0,-2,2,-1
281118171167,-4,2,-1,-7,-2,3,-1,-2
281118177205,-2,0,-3,-1,5,2,1,-3
281118177205,2,3,-1,-3,3,3,3,0
281118193732,1,-2,1,-6,-3,-2,-4,1
281118193732,-2,-2,0,-1,-2,-8,-1,0
281118199802,4,0,-4,-2,-6,-1,-1,-2
281118199802,-1,4,-5,-3,0,-6,1,-1
281118215414,-3,3,-1,-2,-2,2,3,1
281118215414,3,-1,0,2,-1,-1,-6,-4
281118216163,-5,-5,0,-1,4,1,-5,-7
281118216163,-4,-1,1,-1,-5,-1,-3,1
281118231234,1,2,0,1,-1,-3,1,2
281118231234,2,-6,3,-5,-3,1,1,-3
281118237272,-3,3,-1,-1,1,-2,1,0
281118237272,0,3,-1,3,-5,2,-1,-4
281118252308,-4,0,-2,-4,0,-6,-2,-3
281118252308,-4,-4,-3,-5,-4,1,2,1
281118259955,-5,0,0,-1,-3,-3,0,-4
281118259955,-5,-3,-2,-4,0,-2,0,-2
281118283083,-2,-3,-3,1,0,2,0,2
281118283083,0,3,-2,2,2,-5,-1,-3
281118283830,3,1,1,-2,-3,0,-1,4
281118283830,1,-5,0,-1,2,1,1,-3
281118291211,-2,-1,2,0,-3,0,-2,-2
281118291211,-5,3,-4,-2,4,-1,1,-3
281118297446,-4,-3,2,1,0,-1,-3,0
281118297446,0,1,0,1,2,2,2,-3
281118312241,-1,-3,-2,0,6,-4,-2,-3
281118312241,-5,-4,-2,-4,-6,0,-3,1
281118319757,1,-2,-1,-5,1,-1,-3,2
281118319757,2,-3,0,-2,1,-8,-2,3
281118334957,1,3,-3,-4,-6,1,-4,-2
281118334957,0,1,-3,-2,-1,-1,-2,-6
281118342220,0,3,-4,0,0,-5,-2,-3
281118342220,0,-3,-2,-4,0,-3,-1,-2
281118351329,-4,3,2,-2,1,-1,-4,-2
281118351329,5,4,-2,-1,3,-3,-1,1
281118357471,0,2,1,-2,0,5,-2,0
281118357471,0,3,1,-1,-3,-2,3,-3
281118372394,4,-3,0,0,-2,-2,0,-1
281118372394,-2,1,1,2,4,-2,2,0
281118379958,2,-2,3,2,-4,-2,0,-2
281118379958,-2,2,1,-3,-5,-1,1,3
281118394829,-2,-3,2,2,5,-2,0,-1
281118394829,-1,-3,1,2,-5,-5,-4,-1
281118402225,5,0,-1,5,5,1,2,8
281118402225,-8,0,-5,0,0,-1,1,0
281118411179,-1,1,-1,1,1,1,4,1
281118411179,3,-4,0,2,0,-3,-3,-2
281118417174,-5,-4,-2,-3,-1,-2,-3,-3
281118417174,3,-2,0,5,-3,0,-1,-2
281118432179,-4,-3,-1,-1,2,-2,1,-2
281118432179,0,0,-3,0,1,0,-6,-1
281118447967,-2,-1,-5,1,0,5,0,-1
281118447967,-1,-4,4,-3,1,-2,-3,0
281118454782,0,-2,-4,-4,-1,-3,-1,-5
281118454782,2,-2,1,5,3,1,0,2
281118462425,-2,0,-5,-5,-2,-4,-7,0
281118462425,2,-2,-2,1,1,-1,-2,-1
281118477895,1,-2,1,0,-3,3,0,0
281118477895,-3,1,4,-2,-2,1,2,-2
281118478648,-3,-3,1,2,-4,1,0,1
281118478648,1,0,-1,4,3,-2,4,-2
281118493881,1,-2,-1,-7,1,-5,-3,-4
281118493881,1,1,-2,-3,-5,-1,-4,-2
281118500024,-2,-3,-1,-3,-5,-1,-3,-3
281118500024,-3,0,-1,-2,-3,3,-2,1
281118514894,1,-3,0,0,-3,-3,-2,2
281118514894,-6,-6,-2,-1,-1,1,-1,-2
281118522247,3,-5,-2,-3,-4,-3,1,-4
281118522247,-2,1,3,-2,1,-6,-4,-3
281118537999,-3,-1,-4,0,-2,2,0,2
281118537999,3,1,1,-2,-1,0,4,-1
281118538656,-1,-2,-2,0,3,-2,1,-1
281118538656,4,-4,-1,-3,1,1,-1,2
281118552460,2,1,1,3,1,-1,-1,2
281118552460,-3,-2,-1,-3,1,-2,1,0
281118559941,-2,-3,0,-1,1,2,1,0
281118559941,-2,1,-2,-2,-3,-2,-2,0
281118574999,-1,-1,-3,-1,2,-4,0,-2
281118574999,3,3,-2,2,0,-2,0,3
281118582415,-1,-1,-2,1,-3,-4,1,0
281118582415,-5,4,-1,0,-2,-1,-2,0
281118606260,-2,-4,-1,-2,0,2,-1,-2
281118606260,-1,3,1,-3,-3,-1,1,2
281118606903,-1,2,-2,2,3,-3,1,-1
281118606903,0,-1,-2,1,1,1,-2,2
281118612460,-2,2,2,3,-2,1,-1,-1
281118612460,1,-6,0,0,2,-2,-3,-3
281118619787,1,2,-2,2,1,-3,2,2
281118619787,-1,-1,2,1,-1,2,-1,-2
281118634685,-4,-1,0,0,-3,-6,1,-1
281118634685,-2,-2,-3,-2,1,-2,-1,2
281118642217,1,-5,0,-4,-3,-4,-1,-3
281118642217,1,-1,1,-1,-2,-2,0,-2
281118657927,-3,1,1,0,3,-5,1,2
281118657927,-3,-5,-2,-1,1,2,0,-1
281118658677,-1,1,-7,0,-2,-2,-1,-1
281118658677,-2,0,-2,0,-4,-2,-3,1
281118672199,3,1,2,0,-1,2,-1,2
281118672199,-6,-4,0,2,-1,-4,3,0
281118679759,2,2,1,0,0,-4,-5,1
281118679759,-3,-2,0,-2,0,-1,2,2
281118694735,0,2,-2,2,-1,2,0,0
281118694735,1,0,-1,-5,-2,2,-3,-4
281118702188,-4,-2,-3,-1,1,-2,1,0
281118702188,-1,-4,-2,0,3,-1,-3,-4
281118726070,-5,-3,-1,-4,0,-2,0,-4
281118726070,-3,-1,-1,1,1,0,-2,2
281118726882,3,-3,-2,-3,-4,-2,0,-1
281118726882,1,0,-3,-2,-1,-3,-6,-1
281118732407,-1,-2,-1,-3,-5,1,0,1
281118732407,-1,-6,-5,-1,-1,-4,1,-3
281118748115,2,-1,5,1,-1,0,-2,1
281118748115,-2,1,1,1,-4,-4,1,2
281118754941,1,-2,-3,-2,-2,1,-1,-3
281118754941,1,1,-5,2,-6,-1,-2,0
281118762274,1,4,-3,-1,2,4,-1,-2
281118762274,1,-5,-1,-5,-2,-3,3,-4
281118777983,-2,-6,-2,-2,2,-1,-1,1
281118777983,0,0,5,-2,-4,4,-3,-2
281118778859,-3,0,4,-4,-5,0,-2,3
281118778859,-1,-8,-5,0,1,3,0,-5
281118792337,1,-1,-5,-1,1,1,-1,-1
281118792337,-2,-3,-1,2,-2,-5,1,0
281118799937,1,-2,-1,4,3,1,0,-4
281118799937,3,2,-1,4,-2,-2,1,0
281118814804,-2,-2,2,0,-6,-2,-1,-2
281118814804,1,0,-3,-2,-4,3,1,-1
281118822257,-4,-4,-1,2,1,-1,0,3
281118822257,-3,3,0,-2,-4,-1,3,-2
281118838069,2,3,-2,2,1,0,-1,-1
281118838069,-2,-4,-2,-3,-1,-3,2,-5
281118838745,-3,-1,2,-3,-2,-1,-2,-4
281118838745,-3,-2,0,0,-1,-3,0,-1
281118852480,-3,-1,1,0,-2,-4,1,2
281118852480,-2,3,-1,1,4,-7,-4,-2
281118860055,-4,1,-3,-3,-4,-5,-2,1
281118860055,-4,-1,0,-3,0,0,-4,2
281118875034,2,0,-1,1,1,-1,1,-2
281118875034,-2,2,-5,0,-1,-2,0,-2
281118882427,-1,-2,-2,5,2,2,0,-3
281118882427,-2,-5,-5,0,-3,1,1,-2
281118898060,-3,-1,-2,-4,-2,-2,0,-2
281118898060,0,1,2,2,0,-3,2,-1
281118898827,-2,-1,2,-2,1,-2,-3,-2
281118898827,-5,-1,-1,-4,1,0,-1,-1
281118912424,-1,1,3,3,1,2,0,-1
281118912424,1,-2,5,-2,0,1,-2,3
281118919980,0,-1,-1,-4,0,2,1,0
281118919980,1,1,0,1,0,-2,0,0
281118934924,4,1,-5,-3,-3,-1,-3,-3
281118934924,-3,-1,0,-1,-3,-2,0,1
281118942384,3,0,-1,1,-9,-1,0,0
281118942384,1,1,0,-3,-8,-2,-1,3
281118957938,0,-1,1,-1,-1,-2,-1,-5
281118957938,-1,0,-2,-1,0,1,-5,-2
281118958667,-1,6,2,1,-1,1,1,0
281118958667,-1,2,-2,2,2,0,1,-5
281118980397,-2,-3,0,-2,3,0,3,-6
281118980397,-2,1,0,-5,-2,-1,-2,1
281118981134,-2,-1,0,4,-1,-6,-2,4
281118981134,0,-1,1,-1,1,-3,-1,1
281118994764,3,-2,1,-1,-3,-5,-2,1
281118994764,-1,0,-1,2,-3,-2,1,0
281119002179,-3,0,0,-4,-3,-4,0,-2
281119002179,-1,0,0,1,-3,-2,0,-3
281119026072,-4,2,1,1,-2,-6,-7,-1
281119026072,1,-5,0,-1,-2,0,-3,-1
281119026871,-1,-7,-6,-5,-3,-4,-2,-4
281119026871,3,-1,-1,3,4,5,-1,-1
281119032211,1,-2,-1,1,-1,-1,-3,3
281119032211,-6,-3,-6,-6,-3,0,-5,-2
281119039701,0,0,1,-1,2,-5,-1,-4
281119039701,4,-6,-1,-3,-2,-4,-3,5
281119054799,0,0,-2,-7,-3,1,0,-2
281119054799,-2,1,-1,2,-3,-3,0,0
281119062398,2,2,-2,0,0,-2,2,2
281119062398,4,-1,-2,-5,-2,-2,-2,-4
281119078115,2,2,-1,0,0,-3,-1,3
281119078115,-5,-2,-1,-2,-2,-2,-3,-1
281119078848,-5,-4,-2,-2,-2,1,0,-4
281119078848,0,-2,-4,-1,-2,0,-6,-3
281119092316,0,-4,-4,-3,1,-1,-2,0
281119092316,-1,0,1,0,2,0,3,-4
281119099958,-3,0,-1,-3,3,0,-2,2
281119099958,1,1,0,0,-3,0,3,-2
281119114812,-8,-5,1,-1,-4,1,0,-3
281119114812,2,3,-3,0,2,-1,-2,1
281119122296,2,0,-3,-4,-3,0,-8,-1
281119122296,-6,-3,1,-1,-3,-4,0,-3
281119137923,-3,0,0,-2,-3,-2,-1,-4
281119137923,1,-1,2,-2,0,2,1,-2
281119138696,-2,0,2,-2,3,1,1,-1
281119138696,3,1,1,1,-7,-1,-2,1
281119152286,0,0,-2,2,-4,-1,1,-3
281119152286,2,-6,-3,-6,-2,-1,-1,0
281119159906,-5,-2,1,-2,-3,-5,1,0
281119159906,1,-3,-3,-4,0,0,-1,1
281119174994,-2,-3,-3,-2,-4,2,-4,2
281119174994,3,2,-3,-2,-1,-5,-5,-3
281119182332,-1,-4,-1,-1,-5,4,-5,-2
281119182332,-2,-1,-2,-1,0,-3,-2,-5
281119206228,-5,-3,-6,-2,-2,-4,4,2
281119206228,0,-2,-5,5,1,4,-2,4
281119206948,-1,-4,-3,0,-2,-1,0,1
281119206948,-4,-1,-4,-3,0,-4,-1,1
281119212269,-1,-2,-2,-2,-5,0,1,1
281119212269,-3,2,2,-2,-2,2,1,2
281119219832,3,1,-2,4,0,1,2,-2
281119219832,-1,3,1,2,0,-3,-5,0
281119234764,-2,-6,5,-2,2,-2,-4,-2
281119234764,-4,-5,-1,-2,-4,-3,4,-1
281119242214,-1,-7,-3,-2,-6,0,0,-5
281119242214,-7,0,-1,-5,-1,2,0,1
281119257216,-1,-1,-1,-1,3,-4,0,-1
281119257216,1,1,6,3,0,0,-3,0
281119265442,-1,3,0,-2,-3,-1,3,-2
281119265442,-2,-6,0,-2,-3,1,2,-1
281119280415,0,1,-2,-2,-4,-3,-3,-3
281119280415,0,-1,0,1,3,-3,-1,0
281119281234,-1,-1,-2,-5,-3,-2,0,-3
281119281234,1,2,-1,0,0,-1,2,2
281119302889,1,1,3,2,-2,4,-3,-1
281119302889,-2,-3,-3,0,-4,-2,-1,0
281119303829,-2,1,0,-2,-3,1,-5,1
281119303829,-3,-6,-2,0,1,0,0,-1
281119317506,0,-1,1,-3,-3,2,-2,-4
281119317506,5,-2,-4,4,-1,-3,1,0
281119325467,2,-2,0,-2,0,0,0,2
281119325467,-1,-1,-2,-4,-4,-5,0,-1
281119332317,-3,1,-1,1,2,3,1,-1
281119332317,-1,0,2,0,-2,-4,-3,-3
281119339827,-4,3,5,1,1,4,-3,-2
281119339827,-3,-2,1,-2,-2,2,-4,-3
281119354943,-2,-2,-8,-2,-1,-3,5,-4
281119354943,1,-2,-3,-2,1,4,-1,0
281119362381,-2,1,2,1,-3,-6,-2,-1
281119362381,6,-1,-2,-1,1,2,-1,0
281119377302,-3,-4,-2,-3,-3,3,-2,0
281119377302,-2,-3,-3,-2,1,3,-1,-5
281119385609,6,2,-4,0,-2,-4,3,-2
281119385609,-3,2,-1,2,-1,2,2,-2
281119400574,-1,2,0,-3,-5,-5,0,3
281119400574,-2,-7,-2,-5,-3,-5,0,0
281119401248,-1,-1,-3,-1,-2,-2,-3,1
281119401248,-3,0,1,-1,0,0,1,-5
281119414927,3,0,-3,4,7,1,-4,5
281119414927,0,1,-1,-3,-2,-2,2,-1
281119422390,0,-2,1,0,2,-1,0,-2
281119422390,0,0,5,-2,2,-6,-5,1
281119437349,1,3,-2,4,-1,-1,-2,-4
281119437349,0,1,-3,-5,-7,0,0,-3
281119445697,0,-5,-1,-2,1,-4,1,2
281119445697,2,4,2,1,-1,1,2,-2
281119461044,-4,-4,0,1,-1,-6,1,1
281119461044,-3,1,-3,0,-5,-3,0,-3
281119468142,-1,-2,-3,-1,-1,1,-2,-1
281119468142,-2,-3,0,-4,-4,-1,-3,-1
281119474837,-3,-2,2,1,-2,-2,-3,1
281119474837,-1,2,-5,3,2,0,-2,1
281119482268,-1,1,-4,1,-1,1,-1,-1
281119482268,1,0,-4,0,6,0,4,-2
281119497286,0,1,0,0,-3,3,-2,-3
281119497286,1,1,1,-2,-2,-3,-1,0
281119512960,-4,1,-1,-1,-1,0,-1,-1
281119512960,3,0,0,0,-3,-3,1,-1
281119520385,-3,4,-3,-7,1,1,-4,1
281119520385,-5,0,2,-2,2,-2,-6,-7
281119521169,-1,-1,-2,2,0,-4,2,-1
281119521169,-7,-4,-3,3,-4,-4,-2,-2
281119536223,1,-3,0,-4,3,2,-1,1
281119536223,-2,-5,0,-3,-2,-3,-4,-2
281119542184,1,-2,1,-1,0,0,-1,-3
281119542184,-4,-2,-2,1,-7,0,-2,0
281119557231,-1,-5,-1,-3,-4,-1,-3,-4
281119557231,-1,1,-5,-4,1,0,-1,3
281119565495,-2,-1,0,-1,3,-3,-2,1
281119565495,0,-3,-3,-1,1,2,-3,-3
281119580593,4,-4,0,3,-3,1,5,3
281119580593,-1,0,0,3,-5,0,5,0
281119581302,-3,-1,-5,-3,-2,-5,-4,-7
281119581302,-2,1,2,-1,1,-5,-1,-1
281119594935,4,1,0,-1,6,-2,-2,1
281119594935,-3,-1,0,-1,-4,2,-3,0
281119602298,-2,-2,0,-4,-1,-1,-4,-6
281119602298,0,0,0,-1,-4,-5,-3,2
281119617450,-5,2,-7,0,-2,-5,0,0
281119617450,3,-2,0,0,3,0,0,0
281119625561,0,2,-1,-1,0,-1,-2,3
281119625561,-1,2,-3,-1,1,-2,-1,-4
281119640472,0,0,-3,-1,-2,-2,2,-5
281119640472,-2,1,0,-1,0,-1,0,0
281119641267,3,0,2,3,-1,0,0,2
281119641267,0,-2,1,0,-5,3,1,-2
281119654965,1,-4,-1,-4,-3,1,1,0
281119654965,2,0,-2,1,1,0,1,-4
281119662436,-4,-5,1,1,-1,-1,-1,0
281119662436,-1,0,-2,0,0,1,-3,1
281119677342,-2,-3,0,0,-8,-5,1,0
281119677342,-2,-1,0,-1,1,-4,-3,2
281119686134,-1,-1,-1,0,-3,1,0,1
281119686134,2,-2,2,-3,0,-3,5,1
281119700453,-3,-2,-2,-2,2,0,-8,4
281119700453,1,2,0,-1,0,1,0,3
281119701252,0,-1,1,1,0,2,3,0
281119701252,1,-2,-5,-3,-2,5,-2,-3
281119715035,4,2,1,1,-2,-4,2,-3
281119715035,-4,-8,1,-1,-2,-3,-1,0
281119722325,-7,-6,-6,-1,0,1,0,-5
281119722325,-5,3,0,1,1,-1,3,3
281119738805,-3,1,-1,-3,-1,2,-2,-3
281119738805,1,3,-2,-4,-5,-1,-3,-5
281119745606,-3,-2,-1,1,-2,-1,0,-4
281119745606,0,-4,-3,-3,0,1,0,0
281119760427,1,0,-4,-1,1,-1,5,-3
281119760427,-3,-1,0,0,-4,3,0,0
281119761230,2,0,4,-1,-1,-2,-4,2
281119761230,4,0,0,1,2,-4,1,2
281119774767,1,-2,-6,-2,2,-6,-3,-3
281119774767,1,-2,2,2,-1,-2,5,-2
281119782237,-3,2,-2,-5,-2,-2,-8,-3
281119782237,0,-2,1,-1,1,1,-2,0
281119797236,1,3,3,0,0,-2,4,-1
281119797236,0,-4,-5,0,4,-6,-4,-6
281119813013,0,2,-4,-4,0,-2,2,1
281119813013,-3,1,-3,-3,-1,-4,-5,0
281119820474,1,1,1,2,-3,4,-2,0
281119820474,-2,-8,-1,-3,1,3,2,1
281119821210,2,-1,8,0,0,0,3,-3
281119821210,-3,0,-3,0,-1,3,-2,-3
281119836263,-5,2,6,3,2,-3,-3,5
281119836263,-1,0,-1,-7,-2,-2,-7,-3
281119842224,2,2,-4,-1,2,-2,-4,1
281119842224,-3,2,-2,-3,0,-3,0,-1
281119858737,1,-8,1,-1,-2,0,-5,-2
281119858737,1,3,-3,3,1,3,1,3
281119865438,-5,-2,-3,-2,1,-3,0,3
281119865438,-3,-5,-4,-4,1,-1,-3,-4
281119880371,-1,5,-1,0,1,-1,3,-7
281119880371,-1,4,0,-2,1,-4,1,7
281119881162,-3,-2,-4,-2,-4,-2,1,-3
281119881162,5,-2,1,5,-2,-2,-2,1
281119894749,2,4,-2,-1,-3,1,-7,-1
281119894749,-1,2,-1,3,-3,2,-1,-3
281119902277,2,4,-3,0,3,-1,3,0
281119902277,-2,-4,-2,2,-1,-2,3,0
281119917509,-6,3,-1,-2,-2,-6,3,-2
281119917509,-2,2,-3,-4,-3,0,-2,-3
281119925451,4,-6,0,1,-2,0,-2,-2
281119925451,1,0,-2,-4,-1,-4,-2,0
281119940569,-3,-7,-4,-4,-1,0,1,-5
281119940569,-5,3,-6,1,2,-2,4,-1
281119941308,-5,0,-2,-1,-5,-1,4,-5
281119941308,-6,-1,-5,-2,-3,-3,-1,-4
281119954995,2,-2,2,3,2,0,-1,-1
281119954995,-2,-1,-1,2,1,-2,-3,-1
281119962380,-3,2,-1,-3,-2,0,-1,-2
281119962380,-3,-3,0,-2,-2,2,3,-3
281119977306,1,-4,-1,0,1,-3,-2,-3
281119977306,-2,3,1,-1,0,0,-3,-7
281119986005,1,-3,-2,-1,-1,-4,-3,2
281119986005,-3,-5,1,-4,0,-2,1,-4
281120000599,-5,1,-6,-4,3,2,-2,0
281120000599,1,-2,1,-3,-3,-2,-5,-3
281120001194,-1,5,-2,-7,-2,0,1,-3
281120001194,1,6,-1,1,1,0,3,0
281120014906,2,-3,2,1,1,0,0,-2
281120014906,-1,-4,-1,-2,0,-2,2,2
281120022392,-1,-3,-2,4,5,1,-4,-1
281120022392,0,1,2,-1,-2,-1,-3,-1
281120037452,-3,-2,0,-4,-2,-3,4,1
281120037452,-3,-3,-2,0,-2,1,-1,-2
281120045655,-1,-1,2,-1,-1,-3,-2,-2
281120045655,-4,-2,1,1,-1,1,-2,4
281120060568,0,1,-2,2,-3,-4,3,2
281120060568,2,-1,0,2,-3,-2,1,2
281120061246,-1,-1,0,-3,-1,1,1,-4
281120061246,1,5,0,0,0,0,3,-1
281120074880,0,-1,0,-6,-5,-1,-4,-1
281120074880,-2,-3,-3,-4,-3,-2,-1,-3
281120082302,2,1,-1,0,5,1,-4,0
281120082302,0,-6,0,2,-3,-1,-2,-2
281120097239,-2,-5,-3,-2,-3,4,-4,-1
281120097239,-2,-5,0,-5,-2,-3,2,0
281120105147,-2,-6,2,-1,0,-3,0,-2
281120105147,-5,1,-2,-2,0,1,0,-2
281120120427,0,0,-4,0,2,0,1,-2
281120120427,-2,1,-3,1,-2,1,-4,-2
281120121213,0,-4,-6,-2,-6,-1,-2,1
281120121213,-1,-2,6,2,-1,-1,-1,-2
281120136262,-4,-2,0,-1,1,-7,-2,0
281120136262,-1,-4,-2,-4,-1,-5,-3,-3
281120142215,-1,4,1,-4,1,-1,-3,3
281120142215,-3,-3,-5,-2,-1,-6,-2,-1
281120157301,2,-3,1,-1,0,-2,2,2
281120157301,4,2,1,6,1,-1,2,2
281120165458,1,-3,2,1,-3,1,1,-3
281120165458,2,1,-3,-1,-3,0,-2,-1
281120179805,-3,2,1,1,-2,1,-5,-2
281120179805,-4,-5,3,-2,1,0,-2,-6
281120188121,0,-2,-1,3,-3,-7,0,-1
281120188121,3,0,3,1,-1,-1,0,0
281120194922,-2,1,-2,0,-2,1,-4,1
281120194922,-4,1,-1,-4,0,1,-1,-2
281120202294,0,1,-1,1,-3,2,-4,1
281120202294,-2,0,-3,-2,0,-3,-2,5
281120217473,3,0,2,-1,-4,-3,-3,-4
281120217473,-3,-1,-1,-4,2,-1,-4,-3
281120225667,-1,-1,3,-1,1,0,3,2
281120225667,-3,-7,-7,-3,0,-1,-1,-2
281120239963,0,-3,-1,1,3,1,-5,1
281120239963,0,-1,-1,2,-3,-2,4,6
281120248183,-5,1,2,1,0,1,-1,-1
281120248183,0,-1,-2,-3,-3,0,-2,0
281120254804,-3,-1,-1,-5,3,1,7,-2
281120254804,1,0,-4,-1,-3,-4,-1,2
281120262429,-1,-3,-4,-3,-3,-5,0,-3
281120262429,-3,-3,-1,2,0,-1,0,-7
281120277414,-4,3,-3,0,-6,-3,2,-1
281120277414,1,2,0,0,1,-1,-2,0
281120285427,-2,-5,-7,0,0,1,2,-3
281120285427,3,0,2,-1,1,0,-1,-2
281120299937,1,-6,1,1,-3,-1,-1,0
281120299937,0,-4,5,0,-1,1,0,4
281120308192,-3,0,-4,1,0,-4,-2,2
281120308192,-1,-1,2,3,1,2,0,-3
281120314845,-3,0,-7,-3,-2,-1,2,2
281120314845,0,2,1,-3,1,-2,-2,-2
281120322293,1,-4,-2,-2,-1,1,-2,0
281120322293,-4,-3,0,-4,-5,-1,-1,0
281120337472,-2,-3,-3,-1,-1,-1,0,-3
281120337472,-5,0,-3,1,-1,-4,0,-8
281120345412,0,3,-2,-1,-3,1,-3,-2
281120345412,0,-2,-2,1,-5,1,-6,-2
281120359793,2,-3,-1,-2,-1,0,1,3
281120359793,3,0,-2,0,-3,-1,-1,-2
281120367901,-2,-6,-3,-3,-2,2,-3,-3
281120367901,0,1,2,4,-6,3,30,-1
281120382897,0,0,-1,1,-2,-1,-5,-4
281120382897,-1,2,-6,-2,-2,1,-5,0
281120383736,-1,-1,1,-5,1,-3,-7,-1
281120383736,-2,-2,-4,-1,2,-1,-7,-5
281120397461,-2,-2,-2,-1,2,-3,4,-4
281120397461,-1,-5,-2,-1,0,1,-1,-4
281120413241,-5,-3,2,-1,-3,-4,4,3
281120413241,-1,3,-3,-4,0,-4,-4,-1
281120419918,-3,0,1,0,4,0,2,-1
281120419918,0,-6,-7,-1,-1,1,0,-2
281120435639,1,0,0,-1,-1,2,1,-2
281120435639,-1,-3,-1,1,1,0,-2,3
281120443001,1,0,2,1,2,7,-3,2
281120443001,-2,4,1,-1,1,-3,2,1
281120443787,1,4,0,1,-3,-3,1,3
281120443787,2,-2,-3,-1,-1,-2,-3,-2
281120457481,1,-2,0,-1,-5,-1,0,-2
281120457481,2,-1,3,0,-1,-3,1,0
281120465700,-1,-1,-3,2,-1,3,5,-2
281120465700,-4,1,3,0,3,2,-7,3
281120479899,2,-6,0,3,4,-3,-2,-2
281120479899,0,-4,0,0,1,-1,1,-3
281120488171,-6,0,0,2,4,-3,-5,-4
281120488171,0,-2,-6,-3,2,2,0,-1
281120502973,-3,-3,-2,-5,-3,-4,0,3
281120502973,-1,-1,2,0,1,3,-3,0
281120503819,1,-5,2,-1,0,3,6,0
281120503819,-2,-3,0,-3,-1,-1,-2,-5
281120517442,0,2,-1,0,-1,3,-1,3
281120517442,1,-1,-2,-3,-1,-6,-4,-2
281120525575,-3,4,2,-1,-3,-5,-1,-1
281120525575,-3,-1,-4,0,-1,-7,-1,-1
281120539869,2,0,-3,-4,-7,-6,0,-1
281120539869,2,-3,0,-2,0,2,1,1
281120548213,0,-3,0,2,0,2,0,-2
281120548213,0,-4,0,-3,-4,-4,-6,2
281120562893,-3,0,-4,-2,0,-2,-1,-5
281120562893,0,1,-1,1,-1,0,-1,-3
281120570539,-1,1,-1,1,-5,-2,-4,-3
281120570539,1,-5,-2,-6,0,1,0,-5
281120577404,-2,-3,0,-3,-2,1,5,1
281120577404,1,3,2,-3,-4,-2,-4,0
281120586192,5,2,-2,1,-1,-4,-3,-3
281120586192,1,1,2,1,-2,0,-2,-2
281120599813,-5,0,1,0,-2,-2,-4,2
281120599813,-2,-3,-3,-5,-3,-2,2,-2
281120607955,-2,-1,0,-1,-4,1,0,1
281120607955,-3,1,2,0,0,2,4,3
281120623655,-2,-1,1,2,-3,-3,-1,-3
281120623655,-2,-3,1,-1,1,-6,0,-1
281120624415,1,-1,-2,-5,-1,-1,-3,3
281120624415,3,-2,-1,-3,1,-1,-1,-4
281120637281,0,2,2,-2,-2,2,1,-6
281120637281,-1,0,-5,0,-2,-2,0,-3
281120645432,-3,-1,-3,-3,-1,-3,0,-5
281120645432,2,0,2,0,-1,3,-2,2
281120659751,-2,0,-1,-2,-5,2,4,0
281120659751,0,-2,0,2,-1,0,0,-3
281120667889,3,-5,-4,0,1,2,-3,1
281120667889,4,-2,-1,-1,1,-3,-2,-1
281120682948,-3,0,-5,4,1,-6,0,-2
281120682948,-2,-3,-2,2,0,5,2,0
281120683734,1,-1,1,1,2,-2,5,-1
281120683734,-8,3,3,2,-6,-2,2,0
281120697452,1,3,3,-5,-2,-1,0,3
281120697452,-3,-3,2,1,0,-2,-1,-4
281120706363,-2,-3,-4,-5,-4,0,0,-3
281120706363,4,0,-3,-1,2,-4,-4,-5
281120719966,-4,-1,-1,-2,7,3,-2,-6
281120719966,0,-1,-7,-1,3,3,1,-2
281120728885,1,1,-7,-1,0,-3,-2,0
281120728885,-3,-2,-1,3,-1,2,0,-2
281120742357,-2,-1,-2,-3,-2,-1,-6,-5
281120742357,-2,0,-2,-6,-6,3,-2,1
281120751367,-4,-4,0,-3,-3,-1,1,0
281120751367,0,3,-4,-4,0,-3,4,0
281120757469,3,-2,0,-3,0,-2,-4,1
281120757469,0,0,-1,-3,-3,-1,-1,0
281120766368,1,-5,-3,-1,-5,0,3,0
281120766368,0,-1,-3,-3,3,-4,-2,-3
281120780006,0,-2,-2,-4,-4,1,-2,1
281120780006,-4,-2,-3,-1,-3,-2,0,4
281120788842,-3,-1,-2,-2,5,-2,-6,-2
281120788842,2,2,0,-1,-3,-2,1,3
281120802328,2,-3,-3,0,2,0,-1,2
281120802328,4,1,4,0,-2,-2,0,-2
281120811273,2,5,2,-3,-2,-3,-2,1
281120811273,-4,-3,1,0,-4,3,-4,1
281120817428,0,-4,-3,-3,-3,-3,0,0
281120817428,-8,-2,-2,0,1,-3,0,1
281120826342,-3,-1,4,-1,-6,0,-1,-3
281120826342,-2,4,-4,-2,0,-1,0,3
281120840015,-2,4,0,2,1,2,-1,-1
281120840015,-1,1,1,1,-2,-2,-3,-2
281120848852,-2,-1,-3,2,5,1,0,0
281120848852,-4,-5,-3,-4,3,-1,0,-1
281120862315,-1,1,-4,2,2,-4,-2,1
281120862315,0,-1,-5,0,2,0,4,0
281120871268,0,1,2,1,2,-5,-7,1
281120871268,2,-4,2,0,-6,3,2,5
281120877219,-3,-6,-2,3,-1,-4,-2,-1
281120877219,0,1,3,-2,0,2,0,-1
281120886264,-1,-2,-6,-1,-4,0,1,1
281120886264,-2,-4,2,-4,0,0,-3,-3
281120899762,-5,-1,3,-1,-3,4,-1,-1
281120899762,2,1,-5,-5,-2,-4,0,4
281120908758,4,-3,-3,-2,1,0,-1,-2
281120908758,-6,-5,-4,-6,-1,-5,0,-3
281120922291,0,4,-4,-2,-5,-3,1,-1
281120922291,-1,-4,1,0,2,-1,-4,-5
281120931253,-1,0,-4,-6,-2,1,5,-1
281120931253,-4,0,-2,2,-2,-2,-4,-2
281120946227,1,-3,-3,-2,-3,-4,1,-2
281120946227,1,-1,-1,-4,-3,-2,-6,-2
281120947781,-3,-3,1,2,1,-1,0,-2
281120947781,1,1,-2,-4,-1,-3,-1,-1
281120968902,0,-4,-4,-5,-4,2,0,-5
281120968902,0,-1,-2,2,3,2,1,1
281120970303,0,0,0,-1,-4,-2,-3,-1
281120970303,0,5,4,2,-1,1,-6,1
281120991324,1,0,2,2,1,1,-3,0
281120991324,0,-1,-1,-4,-4,-3,1,0
281120992836,-1,1,-2,-3,-2,-3,1,-1
281120992836,-4,2,-2,-2,2,-1,-2,-2
281120997388,0,0,1,-5,1,0,0,3
281120997388,-4,3,-2,1,-2,1,-1,-5
281121006273,-4,-3,2,-1,-2,-1,0,-3
281121006273,-3,0,-5,-2,-3,-2,0,-4
281121019814,-1,1,1,0,-2,1,0,-1
281121019814,-6,-7,-3,-6,-2,3,-3,-4
281121028777,-2,-1,-1,3,1,1,0,-1
281121028777,2,0,-2,0,-1,0,-1,-5
281121042489,-1,-6,-2,-2,-5,-4,-2,-1
281121042489,1,-1,-1,2,-3,1,1,-1
281121051370,1,4,-2,-2,0,0,1,-2
281121051370,0,0,-3,5,3,3,-1,-2
281121057410,-1,0,1,-3,0,-2,-2,-2
281121057410,1,0,-4,0,-10,-3,1,0
281121066317,-3,-3,-1,-8,-1,-2,-2,-7
281121066317,0,-3,-4,3,-2,2,3,-2
281121079947,-4,-1,-5,-7,0,-4,5,-2
281121079947,-5,2,-3,0,1,-6,-5,-3
281121088900,-4,-6,-1,1,-6,-1,3,-3
281121088900,-3,-3,1,-3,-2,-3,-3,2
281121102319,-4,-6,-4,1,-2,0,1,-2
281121102319,-1,1,-1,-5,-2,-2,3,-2
281121111332,0,-2,-1,1,-1,-4,-4,-1
281121111332,1,-3,2,-2,-1,-6,-6,-3
281121117260,-1,-1,-2,-3,-4,-2,-3,-3
281121117260,-6,-4,-2,2,1,1,-1,1
281121126311,-3,1,-2,-6,4,-1,-4,-2
281121126311,-1,-1,0,0,-2,1,2,-2
281121139794,-4,0,1,-1,-2,0,-1,-3
281121139794,-1,-3,-3,-2,-2,-2,-2,-3
281121148760,-4,0,-1,-2,2,0,-3,2
281121148760,-3,-1,2,0,-3,-3,0,0
281121162274,0,1,-3,-5,-1,0,0,3
281121162274,1,0,1,-3,-1,0,-5,-4
281121171232,-2,1,1,-1,-1,0,-2,-1
281121171232,0,-1,-4,-5,-5,0,0,-1
281121177286,0,5,2,0,-2,1,-4,0
281121177286,-1,-4,4,-3,0,-3,1,-3
281121186311,1,-3,-7,-3,-1,-2,0,-6
281121186311,0,-1,0,2,0,-2,5,1
281121200031,0,-3,-2,0,1,3,-2,-1
281121200031,0,-3,3,-5,-1,-2,0,2
281121208854,-1,0,-2,3,-3,-1,-4,2
281121208854,4,3,1,1,3,1,-1,1
281121222393,0,-2,-1,-1,0,0,2,-2
281121222393,3,2,0,3,-3,-4,-1,1
281121231410,-2,-1,5,-3,-1,-1,1,3
281121231410,-2,1,-2,-3,-4,-5,0,0
281121246245,-1,0,-2,-2,3,-2,-5,-3
281121246245,-2,-2,-8,1,2,1,2,2
281121247821,1,4,4,-2,-3,1,0,3
281121247821,0,0,-3,5,1,-1,2,-3
281121259895,-1,-5,-1,1,-2,-5,1,-5
281121259895,-2,-4,2,-2,-5,2,-1,3
281121268775,2,-3,-4,3,0,-1,-1,-1
281121268775,2,2,-1,-5,-2,0,-4,1
281121283173,1,1,-2,1,-1,-2,0,-2
281121283173,-3,-1,-3,-1,-3,1,-1,-4
281121289932,-3,2,-2,-4,-6,0,1,-4
281121289932,2,-4,0,-2,-5,-1,-1,-3
281121306352,4,-1,-1,-3,2,-3,-1,3
281121306352,-2,1,0,-3,0,-3,1,-3
281121307834,0,1,-2,2,2,3,0,1
281121307834,-3,2,-2,-1,-4,-1,-3,1
281121319990,0,-5,-4,0,-1,2,-4,-2
281121319990,-3,-2,-3,-6,1,-5,1,-4
281121328800,-2,-5,-1,1,-2,-5,-4,-1
281121328800,0,-4,4,-3,-8,1,-1,2
281121342976,3,1,4,1,-1,4,0,-3
281121342976,0,0,0,2,0,0,1,0
281121349775,0,0,-1,0,3,-3,4,-1
281121349775,-1,-3,-4,-5,1,1,-6,-1
281121366081,0,2,0,2,-2,2,-3,0
281121366081,-2,-2,-1,-2,-5,0,-1,1
281121367734,0,1,-1,-2,-2,2,1,-1
281121367734,-3,0,-1,2,7,-4,1,-3
281121379774,-3,-2,1,-1,-2,-3,3,0
281121379774,3,0,1,-2,-3,1,-2,1
281121388785,1,-4,3,1,-1,2,-2,0
281121388785,2,-1,-1,1,-1,0,-3,-2
281121402982,-3,0,-5,2,1,-4,-1,1
281121402982,1,-1,-2,2,-2,-1,4,-2
281121409809,-1,-6,-2,-1,-3,2,4,-2
281121409809,-2,-1,2,2,1,-5,-2,-1
281121426150,0,1,1,1,-5,2,-1,3
281121426150,2,0,-3,-3,0,-3,-4,-6
281121427732,0,1,0,0,1,0,-6,-1
281121427732,-6,-5,0,1,-5,-2,6,-1
281121439824,0,1,0,0,1,-1,-1,-3
281121439824,-4,0,2,2,1,-2,-1,2
281121448791,2,-5,-4,-2,0,2,-5,0
281121448791,-6,-3,-6,-2,-3,-1,1,-3
281121463167,-2,0,-2,-4,-4,0,-3,-5
281121463167,-2,0,-2,2,4,-1,-2,-2
281121470000,-1,-2,-5,3,3,-7,-1,-6
281121470000,1,-1,-1,-1,-2,0,-1,0
281121486261,3,1,2,3,0,0,0,3
281121486261,0,-2,-2,0,2,-1,1,-1
281121487773,-2,-4,-4,-2,-3,-2,1,-1
281121487773,0,0,1,-1,-4,-1,1,0
281121500276,-4,2,-4,0,-3,-1,-2,0
281121500276,3,-2,2,1,-1,-5,-5,-1
281121508799,-2,0,-2,-1,-4,-5,-2,-4
281121508799,4,-4,-8,-4,-1,-2,-4,-4
281121523634,-4,-4,-3,-3,0,-2,-2,-5
281121523634,-3,-2,-2,1,-1,-1,-3,0
281121529849,1,-2,0,-3,-3,-3,-1,0
281121529849,1,-3,-2,-2,0,-2,-3,-3
281121546283,-5,-3,-2,-6,-1,-3,2,-1
281121546283,-1,-1,-2,2,1,1,-2,1
281121547776,-2,0,-1,-6,-3,-1,-2,0
281121547776,-1,-4,-1,-2,4,0,-4,-4
281121559935,-4,-2,-1,-3,-1,-3,-1,0
281121559935,-3,-3,1,-4,-6,-1,-1,-2
281121568881,-2,0,2,-1,0,-2,-1,4
281121568881,-2,5,1,0,3,3,2,-1
281121583197,-2,-7,0,-3,-2,1,-2,-2
281121583197,0,-2,-2,0,0,-2,0,-3
281121590033,-2,-1,2,-2,-1,-1,2,-2
281121590033,-4,-1,2,-1,-2,4,0,2
281121606345,1,-3,-2,-1,0,-4,1,-4
281121606345,-3,4,-3,-3,0,0,-1,-5
281121607826,0,-2,-1,3,-3,-1,-4,-6
281121607826,0,0,1,-1,3,-1,2,1
281121619999,0,2,-1,0,0,-1,0,-3
281121619999,2,-1,-1,-2,0,4,-1,1
281121628923,-2,-5,-3,-6,-3,-1,0,0
281121628923,0,-4,-3,2,1,1,2,1
281121652053,-1,-1,-4,2,-2,0,-3,-1
281121652053,-4,-1,-4,3,-3,-1,-3,1
281121653377,0,2,0,1,-4,0,-1,-2
281121653377,1,1,-1,-2,-4,-1,-1,-2
281121666199,0,3,-2,-3,-1,-2,1,0
281121666199,0,-2,1,-4,-4,-3,-1,-2
281121667752,0,-4,-2,-1,-1,0,2,0
281121667752,1,3,0,0,-2,-1,-1,-1
281121679796,1,0,0,-1,-3,-4,1,5
281121679796,-1,-1,1,0,7,-1,-1,-2
281121688750,-4,0,0,-4,-1,-3,-4,2
281121688750,-2,2,1,-3,2,-2,-6,3
281121702928,0,-5,-2,1,5,1,3,-2
281121702928,-1,-1,0,-1,0,0,1,-1
281121709770,-5,2,-2,0,1,-2,2,-2
281121709770,-1,2,-4,1,1,0,3,-1
281121726186,-3,0,-4,-1,-5,0,0,2
281121726186,-3,1,-1,0,-1,-2,0,-1
281121727755,-1,-1,-1,1,3,3,2,-1
281121727755,-1,1,-1,-1,-2,-4,-2,-7
281121739747,1,2,2,0,1,-4,-2,-1
281121739747,-2,-1,-1,1,-1,1,1,2
281121748799,3,1,-5,-3,-2,-1,-5,-2
281121748799,1,0,1,3,-2,2,-3,-1
281121762982,-1,1,1,1,0,-3,-1,-3
281121762982,-4,-2,-3,-4,-6,-2,3,-1
281121769766,-1,0,-1,1,-2,-1,0,-4
281121769766,-4,-3,1,-2,-2,1,-1,4
281121786243,-1,2,-2,1,1,-1,-1,-3
281121786243,5,-2,-2,-2,-4,-2,-6,0
281121787722,-1,-3,-2,3,2,-2,-1,0
281121787722,1,-4,0,-2,-3,-2,0,0
281121800002,-3,-5,0,-3,-1,-3,-2,-8
281121800002,-2,3,-3,0,1,-4,0,-5
281121808876,-1,-1,1,-1,-5,-1,-3,-2
281121808876,-3,-3,-7,-1,0,2,-4,-3
281121823166,-3,-1,0,-3,-3,1,0,0
281121823166,-1,-4,0,0,-5,-2,-2,-3
281121829901,0,2,1,-1,-2,0,-2,-2
281121829901,-1,-5,-7,-3,-2,-5,-1,-1
281121846238,0,-3,-1,0,-1,2,-3,3
281121846238,-1,1,-3,2,3,-2,-2,1
281121847842,-3,0,-4,-1,0,-5,0,-4
281121847842,-2,0,-1,-2,-6,0,0,-3
281121868871,4,-2,1,-2,0,-2,-1,-3
281121868871,1,-2,1,-2,1,2,-5,2
281121870322,-2,-6,-4,0,0,0,-3,-1
281121870322,-4,-2,4,0,-1,-1,1,-5
281121883168,-4,-1,-1,1,-2,-3,-2,-4
281121883168,1,-4,0,-4,-2,0,1,0
281121890019,-4,-1,2,-1,-1,-1,1,2
281121890019,1,-2,-2,-3,-4,-4,0,-2
281121906373,-3,2,-1,-3,-4,-2,-1,-2
281121906373,-3,2,0,-1,-3,-4,1,-1
281121907783,2,1,-2,1,-2,-1,-3,5
281121907783,-3,-7,1,0,2,-1,-2,4
281121920061,0,-4,1,-1,5,-3,1,-3
281121920061,0,-2,-1,-6,-3,-5,-3,-4
281121928835,0,-1,-2,-2,-2,-1,-1,-2
281121928835,1,1,-4,-1,2,1,4,-3
281121943068,0,-3,-8,0,-1,-1,-3,3
281121943068,-1,-3,-5,-2,-2,-1,0,-7
281121949845,1,-6,-2,-4,6,4,-1,-3
281121949845,4,-3,-2,-4,1,0,-6,-3
281121966196,-4,-4,-5,-1,1,1,-7,-4
281121966196,-1,-1,0,0,-3,1,0,-4
281121967760,1,1,-3,2,-2,0,3,-2
281121967760,0,-4,0,-1,0,-2,-1,0
281121979731,3,-3,-1,-1,1,0,0,1
281121979731,-3,1,-4,1,0,3,-1,5
281121988782,-5,-2,5,1,-2,1,-6,-2
281121988782,-1,1,0,-1,-2,-2,0,-2
281122002999,-2,3,2,1,-1,-1,2,-2
281122002999,0,-1,-5,0,-3,-1,1,-1
281122009755,1,6,-1,0,0,-1,-3,3
281122009755,-2,0,1,-1,-1,-2,0,2
281122026107,-2,-2,-1,-3,-4,1,-1,2
281122026107,2,-3,-3,0,-1,-1,-2,-4
281122027739,1,1,3,2,0,-1,1,-5
281122027739,0,2,-5,-1,2,-5,-6,-4
281122039772,-1,-1,-3,-1,-2,0,5,-1
281122039772,0,-3,-2,-1,-2,-1,1,2
281122056351,1,1,-3,-6,-3,0,-2,-1
281122056351,0,-1,0,-3,-1,-1,0,2
281122063162,-1,4,-3,3,-3,-1,-2,0
281122063162,-2,0,0,0,3,3,0,2
281122077368,-2,1,-1,0,0,-3,2,0
281122077368,-4,2,2,2,-7,-2,5,1
281122085772,-2,7,-2,-4,-3,0,-7,-2
281122085772,-2,0,0,2,3,-4,1,-2
281122092537,0,1,-8,-3,-3,-2,4,-2
281122092537,-4,0,2,2,1,3,1,0
281122099985,2,-2,0,-2,4,-4,-1,-1
281122099985,-2,-2,2,0,-1,-2,-1,-1
281122108927,-2,1,-1,-6,-2,-2,-4,1
281122108927,0,2,2,0,0,2,2,-2
281122123195,-2,-6,2,-1,0,-1,2,-3
281122123195,-3,0,1,0,0,0,-3,5
281122130063,2,-6,-1,-2,-2,-5,0,-1
281122130063,-1,1,-1,1,-1,2,-4,3
281122145660,0,-4,-1,-3,2,-2,1,-2
281122145660,-1,0,2,-3,-2,-5,1,-3
281122160686,-1,-2,-1,1,-3,1,2,-6
281122160686,0,-1,-7,-1,-2,3,-1,-3
281122161301,-1,1,-2,-1,1,1,-3,2
281122161301,0,-2,-3,-1,-1,3,-8,-3
281122168916,1,-5,-3,-2,-3,-3,1,-6
281122168916,2,-7,2,0,-2,-2,0,-2
281122183144,1,1,3,5,-2,-4,-1,0
281122183144,-4,-5,-2,0,1,-1,1,-1
281122189834,-4,-5,1,1,-1,2,0,5
281122189834,-2,1,-2,-7,-1,-2,-1,-3
281122205324,-3,0,0,1,-2,0,-1,-1
281122205324,1,-1,0,-5,-3,-4,-6,-2
281122213825,1,-2,3,0,-2,-2,3,-1
281122213825,-5,0,-4,-6,-3,0,1,-2
281122220000,0,-5,1,-4,-2,5,1,-1
281122220000,3,0,-2,-1,0,3,0,-2
281122228826,1,-4,-4,-3,0,-2,-2,2
281122228826,2,0,0,-1,0,-4,-4,-2
281122243043,-3,-1,-1,-1,-5,2,-1,-4
281122243043,-6,-5,-4,-1,1,-1,-2,-1
281122249790,-6,-3,-2,-3,1,2,-2,0
281122249790,-5,-3,-5,-2,1,-1,-1,-3
281122265475,-2,-5,-5,-1,0,-4,-1,2
281122265475,-1,6,-2,1,-6,0,3,2
281122272303,-4,3,-2,0,-4,-1,0,-1
281122272303,-1,-4,-8,-6,0,-3,-2,1
281122288656,0,-3,-2,-4,1,-3,0,-1
281122288656,2,-3,-2,1,-2,-1,3,-4
281122290279,1,2,5,3,-1,-7,0,0
281122290279,2,1,3,4,-1,1,-4,1
281122303122,4,-4,3,1,0,0,2,-4
281122303122,-3,-1,2,-4,-3,-3,-3,0
281122309984,1,2,-1,-3,-1,3,-5,-2
281122309984,1,-1,0,-1,-3,-4,2,-1
281122325540,-1,1,-2,0,0,-1,1,0
281122325540,2,-2,0,-1,0,-5,-3,0
281122332492,-2,-3,-1,-3,3,2,2,1
281122332492,-4,0,-3,-6,-3,-7,-5,-3
281122356344,3,2,2,-2,-4,-2,-1,0
281122356344,-5,-3,2,-5,-3,0,-2,1
281122357841,-5,0,-7,1,-1,2,-8,-2
281122357841,0,-1,0,0,-1,3,2,-3
281122363164,-1,-3,1,1,-5,0,-1,-2
281122363164,-1,-1,-3,-2,0,1,-4,-5
281122377458,1,0,4,-4,2,-1,-4,-3
281122377458,-3,0,0,3,3,1,-3,0
281122385673,-3,-2,2,4,2,-1,-5,-6
281122385673,1,0,-2,-2,2,-2,1,-3
281122392383,-1,-3,-1,0,-4,0,-1,-1
281122392383,-3,-1,1,-1,-1,0,-1,3
281122408809,-4,-3,0,-1,-3,-2,-1,0
281122408809,-1,0,-4,0,0,1,4,3
281122410288,-1,2,2,-3,1,1,1,-6
281122410288,3,0,-6,5,1,-3,-2,1
281122423193,1,-3,0,-4,1,2,4,-5
281122423193,-1,-5,1,0,0,-5,0,1
281122429971,1,-3,0,1,-1,-2,-1,-2
281122429971,-3,0,-1,-2,-3,1,-3,-1
281122445668,1,0,-1,-1,0,1,-6,3
281122445668,0,1,0,2,-2,2,-6,-2
281122452526,0,-5,-2,-4,0,-5,0,-1
281122452526,0,2,1,0,3,-1,-3,-1
281122468873,-7,0,-2,-3,0,-6,-1,9
281122468873,-1,-1,0,-2,3,-1,2,0
281122470345,-1,-1,-3,-1,-1,-3,0,1
281122470345,0,-3,3,2,-5,-1,-3,-3
281122483052,1,1,-7,-2,-2,-2,-4,0
281122483052,-2,-4,-1,-5,-3,-3,-1,-4
281122489808,-2,0,-2,-2,-5,-1,-2,-2
281122489808,3,-6,-4,1,3,1,0,5
281122505477,0,1,-6,-2,1,2,3,-1
281122505477,-3,0,-2,2,-5,1,-4,3
281122512255,0,-1,-1,1,1,0,2,1
281122512255,-1,1,-3,-11,-2,-4,2,0
281122528653,-3,0,-3,-1,2,0,-3,-3
281122528653,0,1,1,-2,-5,0,-4,0
281122530229,1,0,0,6,0,0,-3,3
281122530229,-5,3,3,2,-3,-1,1,-3
281122543005,-1,-3,-3,0,2,2,3,0
281122543005,6,2,2,2,1,-5,0,-6
281122549785,-4,1,-2,0,1,1,-4,0
281122549785,-2,-5,-1,0,-2,-3,-1,-3
281122565509,-3,-3,5,-5,-5,-1,-4,-1
281122565509,-1,0,-2,-4,-5,-3,3,-1
281122572304,2,-2,-5,1,-2,1,-5,1
281122572304,0,2,2,3,-2,3,-1,-1
281122588651,-3,-4,1,-1,-1,-5,-4,-3
281122588651,-2,0,-9,-1,1,3,-4,-2
281122590257,-5,0,-3,-4,-1,-2,2,2
281122590257,0,-2,-1,1,-3,-4,-1,3
281122602352,2,-3,-2,4,-4,-1,4,2
281122602352,-3,0,2,-1,0,2,-4,2
281122611355,-3,3,2,2,-6,-5,2,2
281122611355,-5,-1,5,-1,1,1,-2,-2
281122633837,3,1,0,0,-6,-1,-2,-3
281122633837,7,1,5,2,1,-4,0,1
281122635319,1,1,3,-1,-9,0,-3,2
281122635319,-4,-3,-3,0,1,-4,-5,4
281122648764,0,3,-2,1,-1,-3,-3,4
281122648764,2,-2,-2,0,-3,-4,1,-1
281122650340,2,2,-3,0,1,-1,0,1
281122650340,1,-4,-1,1,1,4,2,1
281122663210,1,3,3,2,1,2,0,1
281122663210,-3,-4,-2,-2,2,-1,4,0
281122670039,-1,2,-4,-2,1,1,-2,-3
281122670039,-2,0,-2,-2,0,-4,-4,-7
281122685596,-1,-3,-4,-4,-2,0,-1,-3
281122685596,-3,-2,-3,1,-2,-2,3,-4
281122692340,-3,-6,1,-4,4,-1,1,-5
281122692340,-2,-6,-8,-3,0,-2,2,-3
281122708796,1,0,0,-4,-1,3,-4,-2
281122708796,-1,0,-1,-3,-3,-1,-3,0
281122710314,4,-2,-3,1,-2,-2,-3,-3
281122710314,-1,0,-6,-1,1,-1,4,-1
281122722486,1,1,-5,-1,-1,-3,0,-3
281122722486,-1,2,-1,-2,1,-2,-3,-2
281122731371,0,1,-4,-2,1,0,0,0
281122731371,1,-1,1,-6,0,-1,-1,1
281122745576,-4,0,-1,-2,-1,-3,1,0
281122745576,-3,-1,1,2,-1,1,0,4
281122752533,1,-1,3,1,0,-1,0,3
281122752533,2,1,-1,1,0,2,-2,2
281122768627,-4,0,-4,2,2,2,-3,1
281122768627,-1,-2,2,1,-2,2,-5,1
281122770238,-1,-4,1,0,1,0,0,1
281122770238,0,2,1,0,-1,-2,-1,-4
281122791811,3,1,5,1,3,0,0,0
281122791811,-5,-3,-5,-7,0,1,-5,-2
281122793415,0,1,-2,-1,-4,0,-4,-6
281122793415,-1,-1,2,-2,-1,-3,-2,-1
281122805519,-1,0,0,-4,2,-1,3,3
281122805519,1,0,-3,2,3,-4,1,-1
281122812299,-1,-1,0,-1,0,-3,-4,-5
281122812299,-1,-2,1,2,1,-1,-9,0
281122828662,-3,-1,-1,3,-3,-2,0,0
281122828662,-1,-3,0,-1,-3,-2,1,-3
281122830269,-2,-3,-4,-2,0,1,2,0
281122830269,1,-5,1,-3,0,1,6,-1
281122842308,6,0,0,-2,-3,-3,-3,2
281122842308,0,-2,-1,-2,2,-4,-2,-3
281122851266,-1,-5,-2,1,3,4,-1,-1
281122851266,-4,0,-2,1,-1,-3,0,0
281122866164,-4,1,-2,0,-2,-4,1,2
281122866164,-1,1,1,0,-1,1,-1,4
281122872446,-1,0,-1,-3,1,-7,0,0
281122872446,-4,-1,-2,-2,-1,-3,0,2
281122888875,0,-3,-3,2,-1,-1,-3,-5
281122888875,1,0,-2,-2,0,-2,-2,-1
281122890338,-2,0,0,-7,-5,-8,0,-1
281122890338,0,-1,-4,-1,-2,3,-2,-4
281122902485,0,1,-3,1,-1,-2,-1,-2
281122902485,-1,-2,0,-5,-3,-5,2,-3
281122911336,-5,1,5,1,-2,1,-1,-3
281122911336,-4,-2,-4,-4,-3,-7,-1,1
281122925709,0,-1,0,-3,-6,-3,-2,-4
281122925709,2,3,-2,3,-3,-2,0,0
281122932556,1,0,-2,1,-4,0,-4,2
281122932556,1,-2,-5,-2,-5,-3,1,-2
281122948787,-1,-2,-2,-1,0,-1,0,-1
281122948787,-3,-9,-2,-4,-3,-2,-2,0
281122950309,3,-4,-2,-1,-1,2,-1,2
281122950309,1,2,-1,-1,-3,1,-4,1
281122962394,-3,-2,-2,-2,4,2,-2,-1
281122962394,-5,2,0,1,-3,-1,-1,0
281122971378,-4,-2,-2,1,5,1,5,0
281122971378,0,-4,0,-1,-1,0,4,-2
281122985737,-2,-1,1,-2,2,0,-1,1
281122985737,-1,7,-1,-1,-2,-3,-2,-2
281122992641,-1,0,-1,-2,2,-4,-1,-1
281122992641,-2,2,-3,1,0,1,-3,1
281123008061,-2,-1,1,-3,-4,1,0,-3
281123008061,-1,-1,-10,4,-6,1,1,0
281123015009,7,4,2,2,-5,3,-3,0
281123015009,1,3,-3,-2,-6,-1,-3,1
281123022543,-2,1,2,0,-2,-3,-2,2
281123022543,0,-4,1,-4,0,4,1,0
281123031422,1,-3,-2,-5,-2,1,0,-1
281123031422,-1,-2,-2,2,4,-5,0,-3
281123045518,2,0,-1,-1,-3,-5,-1,2
281123045518,-3,-1,2,0,2,-2,-2,0
281123052319,-5,-2,2,2,2,-4,-4,0
281123052319,0,-1,3,1,2,1,0,2
281123068006,-3,-2,1,-2,1,-3,-1,-3
281123068006,4,3,0,-2,0,-3,1,-1
281123074781,-4,-2,-2,-1,-3,-1,-2,-2
281123074781,-1,2,3,-1,0,-1,-2,0
281123082258,-3,-1,-5,-3,-4,-2,2,-2
281123082258,3,-3,1,-4,4,-1,1,1
281123091310,-2,1,-1,6,32,-1,-1,1
281123091310,1,-4,1,1,-5,0,1,-5
281123105504,1,-3,-1,2,-3,0,-1,-2
281123105504,-3,-3,-1,-1,-2,-1,1,-1
281123112332,1,-4,3,-4,-6,-3,-1,-2
281123112332,0,0,0,2,0,2,1,1
281123128034,2,-1,-4,-1,0,-1,2,-1
281123128034,-2,-2,-3,-4,-1,2,-2,3
281123134829,2,-2,-2,-2,-12,1,4,-1
281123134829,-5,-1,-4,-6,4,1,1,2
281123142279,-2,-1,3,0,1,1,-3,-4
281123142279,-4,-1,-7,0,4,2,1,-3
281123151315,-5,-1,-3,1,-7,-3,-2,1
281123151315,0,-2,-1,-2,1,-1,0,-8
281123165502,-2,0,-5,-3,0,-1,0,2
281123165502,-4,-1,-1,-2,-2,-2,-5,-2
281123172484,-1,-3,-3,-2,-6,-3,2,1
281123172484,2,-1,-4,0,-3,-1,-3,2
281123188173,-1,-1,0,2,1,1,0,-3
281123188173,0,3,4,1,-1,-1,1,-4
281123194897,-2,5,-1,2,-4,-3,-1,-1
281123194897,3,-3,-1,-1,-5,-4,-2,-1
281123211335,6,0,-2,-2,0,-1,0,-1
281123211335,-2,2,-3,-1,-5,-4,2,2
281123212781,1,-2,1,0,1,-2,3,-3
281123212781,-4,-8,1,-2,0,-2,0,0
281123225722,-2,-3,-1,-1,-1,-3,1,1
281123225722,1,-5,0,5,-1,0,0,0
281123232522,-3,-5,-5,-1,-1,-1,-2,0
281123232522,0,-3,-1,-4,-1,-3,-3,-1
281123248145,-4,-5,-2,-4,1,-2,-4,-3
281123248145,0,-5,-1,2,3,-3,-6,5
281123254864,-3,0,-1,0,-2,1,-1,-1
281123254864,-3,0,0,1,0,2,-1,2
281123271390,-6,-4,-2,-1,-1,-1,1,0
281123271390,-1,-1,-1,-2,0,1,-3,-1
281123272871,3,0,-3,-2,4,-2,-1,0
281123272871,-1,-3,-2,-3,0,-7,-6,-2
281123285579,2,9,-4,0,-2,-2,-1,0
281123285579,2,-2,0,-2,0,1,-2,2
281123292433,1,1,-6,-5,-6,-1,-1,-1
281123292433,1,-2,-2,2,0,3,0,1
281123308257,-4,1,-10,2,1,-2,-1,1
281123308257,0,-4,-2,-1,-4,2,1,-2
281123314983,0,-4,0,-5,-8,-4,0,-5
281123314983,-3,-1,-4,0,0,0,5,0
281123331353,-2,-5,0,2,-1,2,2,1
281123331353,-2,2,-5,-2,-4,-3,0,0
281123332800,-2,-3,2,0,1,-1,0,-5
281123332800,-4,0,-6,-2,-2,-1,-4,-4
281123345544,2,-6,-3,-4,-5,-1,-2,-1
281123345544,1,0,-1,-3,0,-4,0,-7
281123352361,-2,-5,1,-2,-3,6,-1,1
281123352361,-1,2,-4,-2,-5,0,-1,-2
281123367978,3,0,-3,-2,-2,-1,-3,-2
281123367978,-1,0,-1,0,-2,-1,-1,-4
281123374812,0,0,-1,1,2,0,-3,-4
281123374812,-1,3,0,-1,-6,-2,-1,0
281123391182,1,-6,-1,-3,-2,-6,-6,-4
281123391182,-3,0,0,-2,-5,-2,3,1
281123392808,1,-2,1,1,-2,-1,-2,0
281123392808,-3,-3,2,-3,0,2,3,2
281123404815,0,-4,1,-1,5,-2,1,-2
281123404815,4,3,-1,0,3,-7,-4,0
281123413803,0,4,-4,-2,1,-2,2,0
281123413803,-1,0,-1,2,2,0,0,-3
281123428012,-1,3,-2,-5,-1,0,-1,-3
281123428012,-1,-3,0,-1,-1,1,-1,-3
281123434787,-1,0,-1,0,-1,-5,1,0
281123434787,0,-3,-3,0,-3,-2,-3,-2
281123451224,-2,-1,0,2,1,3,0,0
281123451224,1,-1,0,-1,0,0,0,-1
281123452812,1,-1,-2,1,0,-2,0,-1
281123452812,-1,1,-1,-7,1,1,-3,1
281123465521,-2,-3,-2,1,-1,-1,-2,0
281123465521,3,-2,-2,0,1,1,-2,-4
281123472264,-3,0,-2,2,0,-2,-3,-1
281123472264,0,0,1,-1,-2,0,-1,1
281123488135,0,-4,2,-6,-3,0,-3,-4
281123488135,-3,0,-2,-2,-2,-1,2,-2
281123495045,-3,-3,0,-3,1,-1,-4,-3
281123495045,-1,0,-4,1,-1,-2,1,-1
281123511193,-6,-4,1,0,0,-2,4,0
281123511193,-3,-2,-1,1,-1,-1,1,0
281123512835,-2,-1,-4,0,-2,-5,-3,4
281123512835,-2,-4,-5,-1,1,0,0,0
281123525775,5,8,2,0,1,-2,2,0
281123525775,-2,-1,2,2,-2,-1,-2,3
281123532588,-1,-1,-3,-1,-4,0,-5,-1
281123532588,-1,0,5,1,-3,-1,-2,1
281123548257,-4,-2,2,-3,1,-2,0,3
281123548257,-2,3,0,-1,1,1,-1,0
281123555029,0,-1,3,-1,-1,0,0,-2
281123555029,1,-4,-2,2,-7,-4,-3,-3
281123571214,-2,-3,-1,-1,1,2,-1,-1
281123571214,-1,1,-7,-3,0,6,-1,0
281123572822,-1,-5,-8,-5,-3,-3,-1,-5
281123572822,-3,2,0,-2,0,0,4,-2
281123585040,2,2,3,3,-2,2,-1,-2
281123585040,0,4,1,-2,-5,-5,4,3
281123593850,1,1,6,-2,-3,-1,2,4
281123593850,6,2,-1,-1,0,1,-3,1
281123608062,1,-3,-4,0,4,-4,-2,-2
281123608062,-3,-10,1,-1,0,1,0,-3
281123614976,-2,0,-1,0,6,-1,1,-2
281123614976,0,-5,1,0,3,-2,0,-6
281123631334,-5,-3,-2,-7,-4,-4,0,-1
281123631334,-3,-3,0,0,1,0,1,1
281123632897,0,-2,-2,-7,-1,0,0,1
281123632897,-1,-2,1,0,3,2,0,-3
281123645133,2,0,-4,0,-4,1,1,-6
281123645133,2,-2,-2,1,4,-1,-2,-1
281123653974,-2,3,1,5,-3,0,2,-1
281123653974,-3,-1,-4,-6,-2,-4,2,2
281123668235,0,2,1,1,-2,-1,2,1
281123668235,-4,2,3,-3,-1,-4,-4,-3
281123674929,-2,0,-2,2,-2,0,-3,-3
281123674929,-2,3,0,1,0,-1,-5,-3
281123691453,0,-3,-4,0,-1,-2,-3,-2
281123691453,4,0,2,2,-2,-4,-2,0
281123692845,-1,0,0,-1,-4,3,-2,2
281123692845,-2,0,1,1,0,-2,1,-3
281123704971,0,4,-5,0,-1,-1,-2,1
281123704971,0,1,4,4,0,1,-2,-2
281123719900,1,-1,-1,-4,2,-5,-1,-6
281123719900,2,-6,-1,-1,-2,-2,1,-1
281123728206,-2,0,1,2,1,-1,-3,1
281123728206,0,-5,-3,0,-1,-4,1,-2
281123742499,1,-4,0,-2,-5,-1,-1,0
281123742499,-3,1,-1,-4,-1,-3,1,0
281123751248,-1,-3,4,-2,-2,1,3,-4
281123751248,-2,0,0,-1,-3,1,-1,0
281123752841,-3,-1,-1,-1,5,-3,-2,-4
281123752841,-1,-1,1,-1,0,1,-4,-1
281123764836,-1,0,-6,-3,-1,-4,0,-2
281123764836,-3,2,-5,-4,-4,4,-4,3
281123773809,-2,-1,-4,-3,0,-2,-1,1
281123773809,-1,-3,-1,-2,-4,-2,0,-2
281123787990,0,-1,-5,0,-2,-1,-1,-1
281123787990,-7,-2,-1,0,-2,-1,-1,-6
281123794814,-1,1,-2,-2,-1,-4,-1,0
281123794814,-4,-2,1,-2,2,0,-3,1
281123811133,0,-2,5,2,-1,2,1,-2
281123811133,1,-3,0,-7,0,-4,-1,-3
281123812751,0,-3,-1,-2,-2,-1,-1,2
281123812751,1,-1,-8,-2,-7,-1,-5,0
281123824801,-3,-4,3,-2,-1,-2,-2,1
281123824801,1,-2,0,2,-3,0,1,-2
281123833836,-2,-4,-3,0,-4,2,1,1
281123833836,5,4,-1,-2,3,2,4,1
281123848091,3,-1,-1,2,-1,-3,-3,-2
281123848091,-3,0,0,-1,1,-2,-3,3
281123854864,2,3,-1,-4,1,2,0,-4
281123854864,0,1,-1,2,-2,4,-4,-2
281123871218,0,-1,-1,6,0,3,2,2
281123871218,0,0,-2,-2,2,-4,-1,-1
281123872814,-3,1,0,3,-5,-3,4,-3
281123872814,-2,0,2,-3,0,-4,-4,-4
281123884834,0,-7,-1,-5,0,-1,-1,-2
281123884834,0,1,-1,-6,-1,1,-7,-2
281123893802,1,5,2,0,3,2,-6,2
281123893802,-1,-1,2,2,-5,-4,-1,-1
281123908021,2,4,-1,-7,0,-5,-1,1
281123908021,-3,-2,-1,1,-4,-1,-1,-2
281123914828,-4,-1,1,-4,-4,-1,-3,1
281123914828,-6,-5,0,0,1,-1,1,-2
281123931391,0,0,-3,-2,-1,3,-2,1
281123931391,0,0,1,-1,-3,2,2,3
281123932818,1,1,1,2,-1,-1,1,-2
281123932818,0,2,2,1,-5,0,-6,0
281123944967,3,1,-2,2,0,0,1,2
281123944967,0,0,1,5,7,-3,5,3
281123953995,1,-2,-2,0,-3,0,1,-2
281123953995,0,1,-4,1,0,1,3,1
281123968279,-5,-1,-1,-4,-1,-4,1,-4
281123968279,1,3,-1,-2,-1,-4,2,-1
281123974987,-2,-1,-3,0,0,-2,-1,1
281123974987,2,-4,-4,0,-1,-4,3,2
281123990750,-4,1,-3,-1,0,1,0,-3
281123990750,1,-3,-2,0,-3,0,-5,1
281123997512,-1,0,2,4,1,-2,0,0
281123997512,2,0,-5,-2,-1,-1,1,-1
281124004995,-2,0,-4,-1,-6,3,-6,1
281124004995,4,-2,-4,2,1,1,-2,-5
281124013946,0,0,0,-1,2,-2,-5,-2
281124013946,-3,-1,-3,-2,6,-2,3,-1
281124028240,-1,-5,0,-2,-5,1,-2,2
281124028240,-3,1,-2,-5,-2,0,2,2
281124034994,-1,-1,-2,-2,2,0,1,-2
281124034994,0,-2,0,0,3,3,-7,-1
281124050569,-3,0,2,-1,3,-2,-2,-1
281124050569,1,-8,-2,-4,-3,1,4,2
281124057452,-1,-2,-4,0,-4,-2,0,-1
281124057452,-2,-2,-2,-5,-4,0,3,-2
281124064917,0,3,-3,0,4,-2,-3,-4
281124064917,1,1,-5,0,-3,-2,-3,-1
281124073885,-1,-4,0,1,-2,-2,2,-3
281124073885,-1,1,0,-4,-4,0,-3,0
281124088307,2,-3,2,-1,0,-2,-2,-1
281124088307,-2,0,-2,1,0,-3,3,1
281124094951,0,0,-2,-1,-1,1,-5,0
281124094951,-1,1,0,3,2,-6,-3,-2
281124110570,0,-5,0,0,-2,-1,1,-3
281124110570,-3,-1,0,1,1,-3,-7,-2
281124117449,0,-4,1,-2,0,-5,1,-1
281124117449,0,-3,-1,-2,-3,3,0,-5
281124124991,-4,-2,-2,-1,2,1,1,3
281124124991,1,-3,8,3,-1,0,5,0
281124133934,-1,-4,0,2,-4,0,-4,-2
281124133934,-3,5,4,1,0,-1,-2,4
281124148271,-3,1,-3,-1,-5,1,0,2
281124148271,-2,0,-5,-3,0,-2,-5,-7
281124154902,-2,-1,2,1,3,3,3,2
281124154902,-1,-5,-6,-2,-3,-7,-2,-5
281124170586,2,2,2,4,-2,2,-2,-1
281124170586,1,-4,-3,2,-5,1,-4,-2
281124177503,-1,2,-1,3,1,1,5,0
281124177503,0,2,-2,4,-2,1,-4,-1
281124193780,4,0,1,0,1,1,0,-2
281124193780,-4,3,0,-6,-2,-3,1,0
281124195380,-3,1,1,0,3,0,2,-3
281124195380,0,-8,1,-1,-2,4,-2,2
281124208176,-2,-1,0,-1,1,-6,1,-1
281124208176,1,1,-2,0,-1,0,0,-4
281124215043,2,-2,-1,-4,-4,2,-4,-3
281124215043,-1,-4,-3,-2,-2,-3,1,-7
281124230692,3,-8,-1,-2,0,0,-1,-2
281124230692,-4,-1,-2,2,3,0,-2,2
281124237389,-3,-2,-3,-2,1,-3,-3,1
281124237389,-4,-1,1,-1,1,-1,-4,-2
281124253688,-8,0,-4,-4,-2,-1,-3,-1
281124253688,-1,-4,0,-3,0,-1,1,-8
281124255305,0,-1,-4,0,-2,0,0,-2
281124255305,1,1,0,-2,-1,3,2,-2
281124268022,-1,0,-2,-5,-3,-2,-1,-1
281124268022,-6,-2,0,-1,-2,1,1,-1
281124274795,-2,2,-1,1,-3,0,-4,0
281124274795,-2,0,1,1,1,-3,0,-4
281124298667,1,-2,2,0,-5,2,2,-4
281124298667,0,0,-3,-5,1,2,-1,4
281124300251,-4,4,1,0,-2,-1,-3,-8
281124300251,-3,2,-7,-4,-4,0,1,-1
281124312939,-1,2,-2,1,-1,-2,1,-2
281124312939,1,-1,0,1,-4,0,0,-3
281124313775,0,-5,-6,-6,-2,-2,1,5
281124313775,2,0,3,0,2,-1,-1,-2
281124328802,-5,-5,-1,-1,-3,-2,0,-2
281124328802,1,-2,-4,-2,-1,-3,-1,0
281124334857,-4,1,-1,-4,1,-6,-4,-3
281124334857,1,-1,-2,2,-3,0,3,0
281124349788,-2,-5,-2,-3,0,-4,1,-3
281124349788,-1,0,-1,1,2,-2,-1,1
281124357357,-2,-5,0,-1,-1,-1,-3,-2
281124357357,-2,-2,-1,-2,1,-2,-2,4
281124380507,-1,-2,-1,2,-1,1,-1,2
281124380507,-2,2,-3,-5,1,1,1,1
281124381307,0,-2,-5,-4,-3,-3,0,-2
281124381307,-5,0,0,1,2,-3,2,1
281124388811,1,2,-1,1,0,-1,-1,-5
281124388811,-3,0,0,4,1,2,-6,-3
281124394786,-1,-3,2,-2,1,1,4,1
281124394786,-5,1,-4,-2,-2,-3,0,-2
281124409956,0,1,-3,-4,2,1,-2,2
281124409956,1,-3,0,1,2,-1,-5,-4
281124417447,1,1,-1,0,-3,-4,-2,0
281124417447,0,-3,-4,-4,-3,-1,-4,-2
281124433256,-1,0,0,-1,-1,-3,-4,-2
281124433256,1,-4,0,2,-2,-1,-1,-5
281124433863,-1,-2,-5,-2,2,2,-1,0
281124433863,1,-1,4,-3,-2,1,-3,0
281124448999,4,-5,-4,-1,2,-1,-1,-1
281124448999,-3,0,-2,2,0,-3,2,-2
281124455041,-2,-2,-2,-3,-3,-1,1,0
281124455041,2,-1,1,-1,0,-3,0,-2
281124470038,-2,0,-6,-1,-2,1,2,-2
281124470038,4,0,-2,-1,-3,-2,0,0
281124477414,0,-1,0,2,1,2,-2,0
281124477414,-2,-2,-5,0,2,-4,-1,1
281124493107,-1,2,0,2,-2,1,-3,-4
281124493107,-1,0,-2,1,0,-4,-2,3
281124493846,-3,2,-3,-2,-1,-2,-1,-7
281124493846,-3,-3,-2,-1,4,0,1,-6
281124508891,-6,1,-1,-2,-2,0,3,1
281124508891,-2,-2,-3,-2,-7,2,0,1
281124514920,3,-6,-2,3,0,1,4,-4
281124514920,-2,0,-4,-4,-4,-2,1,0
281124530063,-1,-3,3,-3,0,-2,-4,1
281124530063,3,2,-3,-3,0,-3,-5,-3
281124537539,-2,0,-1,-1,0,-2,-2,1
281124537539,3,-1,-3,-2,-1,4,-2,-3
281124553079,6,-4,-2,-1,3,-3,-2,1
281124553079,-5,4,-1,-4,-2,2,1,-1
281124553903,2,-4,-3,1,1,1,-1,2
281124553903,-3,2,0,0,0,-4,0,0
281124577030,-2,2,-3,-5,2,0,0,-4
281124577030,3,-4,-2,-1,0,1,-3,1
281124577906,-3,4,3,-3,-2,1,0,-2
281124577906,-1,2,0,-3,-1,-3,5,1
281124590051,1,0,-4,-1,4,1,0,0
281124590051,1,-1,2,-1,-2,-4,0,-1
281124597487,-2,1,-1,-2,5,-2,-3,1
281124597487,-2,0,5,2,-2,4,-1,2
281124613230,0,0,5,-2,-2,-1,0,-5
281124613230,-2,-2,2,1,1,2,1,0
281124613859,0,-2,-8,-5,-4,-1,-5,-5
281124613859,-1,-1,-3,0,-4,-3,1,-1
281124628944,-3,1,-1,2,2,-2,-3,1
281124628944,-2,-2,0,0,3,-3,1,1
281124635019,1,-2,2,3,-1,-1,-1,-4
281124635019,-1,-1,1,2,-4,1,-2,2
281124650059,1,1,1,-1,-4,-2,1,3
281124650059,-7,0,-2,-1,-5,-1,1,2
281124657634,-5,-1,4,0,-2,-3,-1,-1
281124657634,-2,-2,1,-2,-2,-3,1,-4
281124673068,-4,1,1,1,-5,1,0,-1
281124673068,-1,-1,-3,-5,-2,1,-1,-5
281124673836,-1,3,0,-2,-6,-5,-1,0
281124673836,1,-3,2,-1,-3,0,-6,0
281124688887,-2,-2,-5,1,-2,0,0,3
281124688887,-2,-2,3,-3,-2,-4,-1,0
281124695067,-3,-3,-1,0,1,1,0,2
281124695067,2,-2,-3,-1,1,0,-1,1
281124709986,2,-2,0,1,-4,-3,-3,-2
281124709986,-2,-4,-2,-3,-1,-4,-4,-1
281124717492,1,-3,1,-1,-3,-5,1,-3
281124717492,-6,2,-2,-2,2,-1,-1,3
281124733177,-4,-7,-2,-1,0,-1,-5,-2
281124733177,0,-1,-2,2,3,0,1,-3
281124733872,-3,1,-1,-2,0,0,-1,3
281124733872,1,-4,-3,-1,-2,-3,-2,-2
281124748873,-8,3,2,-1,-2,-6,-1,-3
281124748873,0,-1,-5,-3,1,-1,1,-3
281124755073,-1,0,1,3,-5,-2,2,1
281124755073,2,-4,4,0,-5,2,0,-1
281124770036,-1,3,-2,-2,-3,1,-3,1
281124770036,-1,2,4,2,3,5,0,-1
281124777385,-2,0,-4,-1,-5,-3,-1,-2
281124777385,-3,1,0,-3,0,-4,-4,-4
281124793022,-1,-3,1,-4,-3,-3,-2,-2
281124793022,2,-2,-2,-4,-2,-8,-5,1
281124793774,1,-2,-2,-5,4,0,-2,-3
281124793774,2,-3,-1,-2,-1,1,2,1
281124809335,1,0,-2,1,0,3,-6,-1
281124809335,-5,3,0,-3,-1,-1,-4,1
281124815019,-1,-2,-4,1,5,0,0,0
281124815019,-2,-1,-3,1,-4,2,-4,-2
281124830027,-5,-3,-1,-1,-2,-5,-1,-3
281124830027,0,-2,-3,-2,-3,3,0,-2
281124837345,-3,0,0,-2,0,0,-6,-2
281124837345,-3,-2,-3,-6,2,1,-2,-4
281124854550,4,0,-3,1,-1,3,-1,-3
281124854550,-6,3,-2,-8,-2,-1,-6,-3
281124855308,-2,0,-1,-2,-4,-4,-3,-3
281124855308,0,-1,-7,-2,2,-5,-2,3
281124868837,4,0,3,1,3,2,1,-2
281124868837,7,-1,0,1,0,2,-5,0
281124874835,1,-2,1,-1,-1,3,-2,-3
281124874835,-2,-5,2,-1,0,-3,-3,-8
281124889816,-3,-5,-5,-2,-2,0,0,1
281124889816,-1,0,4,3,-3,-2,2,-2
281124897318,-2,0,0,-1,0,3,-1,4
281124897318,2,-5,-4,1,-2,-3,-1,-4
281124912321,-2,-1,-2,-5,-5,-4,1,-1
281124912321,1,0,-4,2,1,-1,3,-2
281124919821,0,2,-1,-6,-1,0,-4,1
281124919821,-1,-3,1,1,-1,-2,-1,-4
281124928860,0,1,-2,1,0,-1,-4,0
281124928860,-2,-6,-1,-1,0,-1,1,2
281124934858,-3,2,-4,0,-1,1,0,-2
281124934858,-1,3,-2,1,-5,0,2,0
281124949892,2,-1,0,-2,1,-3,-3,1
281124949892,-3,-1,-1,-2,-3,1,3,-2
281124957369,-1,-1,0,0,-3,-1,-3,-2
281124957369,-1,0,3,2,4,-1,0,2
281124972529,-1,-1,-3,-4,-3,-3,-1,2
281124972529,-3,-1,-3,0,-5,-1,-3,-1
281124980067,-1,-4,3,0,-1,-2,1,0
281124980067,-2,2,-1,-5,-4,0,-3,1
281124988919,-5,-4,-1,-3,2,1,-1,0
281124988919,1,-4,2,2,-2,1,-1,-3
281124994993,0,-4,-4,-3,-3,-1,6,-4
281124994993,0,1,1,-2,-2,-1,-4,-1
281125009877,-2,1,1,3,-2,0,2,4
281125009877,1,-1,1,-2,-1,-1,2,4
281125017345,0,-2,-3,-2,-3,2,-2,-1
281125017345,-1,0,-3,2,2,0,0,1
281125032337,-3,-4,1,-3,-7,-2,2,-2
281125032337,-2,1,-2,-1,-1,-1,-3,-2
281125039917,-1,-3,-2,1,4,1,-3,-1
281125039917,-2,-1,0,-4,0,0,1,-1
281125048976,1,-1,-2,2,2,0,-2,0
281125048976,-3,1,-1,-2,-3,-1,-3,-2
281125054880,0,2,2,3,-4,-4,1,0
281125054880,-3,-1,-6,-2,4,2,-4,0
281125086406,-2,4,1,0,1,1,-1,-4
281125086406,-3,-1,-5,0,5,3,3,-1
281125087102,2,0,-1,-1,2,-1,-5,-1
281125087102,0,3,1,-1,-2,-4,0,-4
281125092359,-1,-4,-4,-4,-1,2,0,-1
281125092359,0,1,-3,-2,-1,1,-3,2
281125100038,-4,-3,-3,-2,3,-1,-2,0
281125100038,1,2,-1,0,-3,0,-1,-4
281125115771,-1,3,-1,-2,-1,0,-1,-3
281125115771,-2,2,-1,-2,-5,-3,3,-3
281125116326,-3,-2,2,1,0,2,4,1
281125116326,-2,0,-1,-3,-1,-4,2,5
281125131419,-1,-1,0,2,1,-3,3,3
281125131419,-3,-1,-1,-3,-1,1,-1,0
281125137547,-4,-2,0,-3,-3,-4,-1,2
281125137547,-3,-4,-2,-3,-4,-3,0,0
281125152408,-2,1,0,-2,0,0,-1,-2
281125152408,-3,0,-4,-1,0,-3,1,2
281125159962,-3,-4,1,1,4,2,3,-5
281125159962,0,2,-2,2,4,0,-5,-1
281125175574,-1,-1,-3,-1,3,-3,3,-1
281125175574,3,-1,1,2,-1,-1,-6,0
281125176350,3,-1,-2,-2,-2,-2,-3,-1
281125176350,-6,-3,-4,2,-3,-2,1,-2
281125189964,0,-7,1,-4,-4,1,-6,5
281125189964,1,3,-1,-2,0,-4,0,1
281125197491,-4,5,-2,0,-1,-4,-6,3
281125197491,-2,-2,5,2,0,1,-2,1
281125212495,-1,-4,2,-2,-3,0,0,-3
281125212495,1,-2,-1,-1,-3,-1,-3,0
281125220022,0,-2,2,0,-3,0,-3,3
281125220022,-1,0,0,-3,1,0,-2,-1
281125237020,-1,0,-3,-1,-4,2,-1,-4
281125237020,2,-2,1,-4,0,-1,-2,-5
281125237845,0,-3,-2,1,-5,-5,-1,-4
281125237845,-2,-1,0,-3,-6,0,-1,-2
281125250024,0,2,-1,0,-3,-2,-2,-3
281125250024,-2,-4,-4,3,2,0,4,0
281125265509,-1,3,0,0,0,2,2,2
281125265509,1,-6,-5,-2,-3,0,0,1
281125272356,-4,1,-3,3,1,-3,0,-4
281125272356,-3,5,1,3,-4,1,-1,1
281125280035,-1,6,-1,1,-3,-1,0,1
281125280035,-2,-2,0,-5,-5,-4,2,-2
281125295511,-2,2,2,-1,-2,2,4,4
281125295511,-4,-1,1,2,-3,-2,1,0
281125296268,-2,0,-6,-1,2,-3,-1,-3
281125296268,-1,2,-3,1,-2,0,0,0
281125309902,-2,0,0,1,-1,0,-2,2
281125309902,-1,-5,-1,-1,-2,0,-3,3
281125317542,-2,-8,-4,-3,0,1,-1,-3
281125317542,-1,1,6,1,1,-3,0,0
281125340750,-3,-2,-4,-3,-1,1,1,-5
281125340750,-1,-2,1,2,-1,2,-2,1
281125341434,6,0,3,3,1,-3,-4,3
281125341434,2,-1,2,-1,-1,1,-2,2
281125355689,0,-4,0,0,-3,-2,-1,-2
281125355689,-7,-2,-2,-4,-3,-4,-1,-4
281125356384,1,-2,0,-6,0,2,-1,-4
281125356384,1,0,-3,-1,1,-1,-1,-2
281125370075,0,-1,0,-3,-1,0,-2,-1
281125370075,-3,-1,0,-3,2,2,1,-1
281125377366,1,0,-2,0,-3,-2,3,-2
281125377366,2,-1,0,0,-2,-2,3,0
281125392606,1,-3,1,-1,0,-1,-3,0
281125392606,2,4,-1,5,1,-1,-1,-3
281125408133,-2,-2,-4,1,-1,-1,1,-1
281125408133,1,-4,0,-2,0,2,-1,0
281125415699,-2,-1,1,-2,-3,2,-5,-1
281125415699,-1,1,0,-5,1,-2,0,1
281125416357,-1,-3,2,-4,-5,2,-1,-3
281125416357,0,1,1,2,-5,-4,-3,-1
281125429938,1,0,-1,-1,-5,-2,1,0
281125429938,4,-9,0,-1,-2,-1,-4,-1
281125437497,-3,2,3,-4,0,-1,1,2
281125437497,-3,-1,-6,-1,-3,0,-4,1
281125452479,-1,-3,-5,-2,2,2,0,0
281125452479,0,-2,0,-5,-4,0,-3,-4
281125459960,-2,0,0,1,0,-3,-2,1
281125459960,-1,-6,1,-1,-1,4,3,-3
281125475834,-1,0,-7,-2,2,-5,-1,1
281125475834,2,-1,-3,-1,-2,1,4,-1
281125476379,-2,0,-2,-1,-1,3,-1,-2
281125476379,-3,0,-8,-4,-4,-1,-3,-2
281125490040,4,-5,0,-4,2,-5,0,-1
281125490040,-3,1,-4,-1,-8,2,-3,0
281125497605,-3,-3,-3,-5,-2,-1,-6,-8
281125497605,1,-5,0,0,2,3,-1,3
281125512346,-3,2,7,6,-4,2,2,-2
281125512346,2,0,-4,-1,2,-3,-5,3
281125520019,1,1,-3,1,-2,-2,-1,2
281125520019,-2,1,6,-7,1,1,1,0
281125535599,2,-1,2,1,1,-2,-2,-1
281125535599,-2,1,1,1,2,-2,4,-2
281125536360,-2,-5,3,2,0,0,2,-1
281125536360,1,0,-2,2,2,-4,-3,-3
281125550052,-2,-4,-4,-3,1,-1,-1,-3
281125550052,0,-3,-2,1,0,-1,4,-2
281125557613,-4,-5,-4,-2,-2,2,1,4
281125557613,0,3,-1,1,-5,1,-2,-3
281125572516,2,0,0,-3,-4,-2,-5,1
281125572516,1,-2,1,-1,-1,-2,-3,-3
281125580009,-2,-5,0,-3,0,-3,-2,-2
281125580009,1,2,-3,2,2,2,1,-3
281125595733,-3,-2,-4,-2,-2,0,-4,0
281125595733,2,-4,0,-2,4,-3,0,3
281125596400,-3,2,0,1,-4,5,-3,0
281125596400,1,-1,-1,1,-3,-4,-5,-2
281125609917,-2,3,-3,1,3,-2,-1,0
281125609917,3,-2,0,3,-6,-1,0,-1
281125617352,3,-5,-4,1,-2,-4,0,-7
281125617352,-1,-1,2,1,-3,-4,0,-1
281125632550,-4,1,-3,-3,-7,4,5,1
281125632550,-4,-3,-3,-3,-3,-3,-1,1
281125639925,1,-4,0,0,0,-2,0,0
281125639925,0,0,1,-2,-3,-1,-2,-3
281125655715,-4,-3,0,2,1,-2,3,0
281125655715,-5,2,0,-1,2,1,-2,-3
281125656383,0,0,1,-3,-3,0,1,3
281125656383,-2,-6,1,-2,2,-1,-3,2
281125670137,1,1,3,3,-4,-1,-1,1
281125670137,-5,-8,-7,-5,-1,3,-2,-5
281125677485,-1,3,0,0,-5,-2,0,1
281125677485,-3,-7,-7,-1,-3,2,-6,-2
281125692483,1,0,0,-4,-2,-1,1,-1
281125692483,3,4,3,2,3,-3,-6,-4
281125699954,-3,-2,-3,-4,4,2,-3,0
281125699954,1,2,1,-2,-2,-3,1,2
281125715545,-1,-1,0,1,-3,-3,1,-3
281125715545,-1,2,-2,2,-3,-1,-1,0
281125716382,-2,-2,-2,1,3,-1,0,-1
281125716382,-4,0,-2,-3,5,-1,-1,-4
281125729840,1,3,-1,-6,-2,1,-4,-2
281125729840,-2,-3,3,-4,-2,0,-3,2
281125737347,0,4,0,1,-3,1,-4,0
281125737347,4,2,1,4,-3,3,5,1
281125752365,-3,0,-6,1,3,-1,-2,-6
281125752365,-1,1,-2,-1,3,-4,-4,2
281125759857,0,1,1,-6,-1,-5,-2,-1
281125759857,-6,-2,-2,-1,1,-3,-3,0
281125775563,2,0,-4,-2,-3,-3,-5,-1
281125775563,-2,2,-1,1,-2,-3,0,1
281125776310,1,1,-2,1,1,-5,-2,0
281125776310,-2,-4,-5,-5,0,4,0,-3
281125798018,-3,-3,5,0,0,1,0,1
281125798018,0,1,-3,2,-4,1,-1,-6
281125798809,1,-1,4,2,-3,-2,1,3
281125798809,-1,-4,1,-2,-3,0,1,-2
281125812360,-1,-4,-1,-2,1,-1,-3,-2
281125812360,2,0,-1,-1,1,-4,1,0
281125819855,-5,3,0,-1,1,1,1,-5
281125819855,-1,0,1,-2,-6,-1,3,2
281125835569,-2,-3,-2,2,-2,2,-3,-1
281125835569,-2,0,0,-2,-4,0,1,0
281125836338,0,1,-3,2,-5,-4,-2,-1
281125836338,-4,0,0,2,0,-9,-2,6
281125849917,2,-1,-1,-3,-4,-3,4,-1
281125849917,-1,-2,2,-1,-3,1,-1,-5
281125857439,2,0,-3,-4,-4,-2,-4,0
281125857439,-1,0,-3,0,2,3,-4,-2
281125872340,-2,0,3,-1,2,-5,1,2
281125872340,-3,-1,-3,-4,-2,1,-2,-2
281125879868,-1,-1,-1,0,-1,-3,-5,-4
281125879868,-2,-2,-2,-2,-2,-3,3,-3
281125894857,-2,0,-4,-2,-3,-1,3,-5
281125894857,4,-3,-1,1,-1,2,1,2
281125903093,0,1,-4,1,0,3,-1,0
281125903093,-1,3,-3,-4,-2,-4,-9,-2
281125909892,1,2,-2,-1,2,3,1,-3
281125909892,0,0,0,-1,3,-2,-1,-2
281125917410,-1,-6,-1,0,0,1,0,4
281125917410,-3,-2,-3,0,1,2,-1,-6
281125940589,-2,-6,-3,-3,2,-1,0,1
281125940589,4,2,-4,1,-1,2,-5,0
281125941347,-2,-2,3,0,2,1,3,0
281125941347,1,2,3,2,-3,-2,1,-2
281125963786,-2,1,-2,-1,0,1,-4,-1
281125963786,-6,-7,0,-1,-2,-1,2,-1
281125964564,-3,-3,-1,3,-4,1,-2,-2
281125964564,1,-1,-1,-3,-2,-1,4,0
281125969923,-3,-2,2,-3,-3,-1,-3,-6
281125969923,0,-1,-3,-7,-5,-5,-8,-3
281125977362,-3,-2,-2,-3,-2,0,-2,-4
281125977362,-1,0,-1,0,-2,-3,3,-3
281125992508,-5,2,-1,1,-1,-2,-4,3
281125992508,-1,-1,-1,1,1,1,4,-1
281125999894,1,0,1,-1,-4,-3,-2,1
281125999894,-4,0,0,3,1,1,-1,1
281126014903,1,-2,-2,2,-4,-1,-2,2
281126014903,-4,-4,-3,1,1,-3,-3,0
281126023055,-3,1,0,0,-2,-2,-1,-2
281126023055,-2,-3,3,3,-1,-2,-3,4
281126029902,1,-3,0,-1,3,1,-2,-1
281126029902,-4,0,-1,-1,-1,2,-2,-6
281126037420,2,-2,0,-3,0,0,0,-4
281126037420,7,-2,-1,3,0,-1,-3,-4
281126052384,-1,6,2,0,-3,-3,1,0
281126052384,-3,-4,0,-3,4,-4,0,4
281126059892,-1,-3,5,1,-1,1,1,-4
281126059892,-2,-1,0,-1,3,-3,-1,2
281126075061,-1,-3,-2,-3,-4,-3,-1,3
281126075061,-1,-1,1,0,-1,2,1,-4
281126083176,-2,1,-3,-3,-1,-1,-5,2
281126083176,1,-3,-1,-3,1,0,0,-3
281126098317,0,-3,0,1,1,2,-4,6
281126098317,-4,3,3,1,-4,-3,3,3
281126098830,-2,0,-1,-3,0,2,-1,-1
281126098830,-1,4,0,-2,-3,1,0,-5
281126112548,-3,-5,-1,0,-1,-3,0,0
281126112548,0,2,-3,-4,-5,0,0,-1
281126120060,2,1,-3,-2,-4,-6,-1,-2
281126120060,-2,3,-2,-3,-3,-1,-4,5
281126135117,1,2,-2,0,-2,-4,0,-4
281126135117,-3,-2,0,1,-3,-2,-2,-1
281126143263,0,2,-2,1,5,-4,0,-1
281126143263,-7,-4,1,-1,0,-1,-3,1
281126158075,-4,1,0,-1,3,-1,1,-2
281126158075,4,-3,5,1,4,-1,1,0
281126158822,-4,0,3,2,-3,-2,-3,0
281126158822,2,1,1,-3,1,0,-4,0
281126172348,-1,1,2,0,-1,-3,0,-3
281126172348,2,2,1,-1,-3,0,1,-2
281126179853,0,1,3,3,-2,-2,-1,0
281126179853,-1,-3,-1,-2,-2,-2,3,2
281126194959,2,-4,0,-2,-5,-1,1,-4
281126194959,-4,3,-4,-2,-4,3,2,-3
281126203038,-2,-2,-3,-4,4,-2,-2,0
281126203038,4,0,-4,2,-3,-1,0,-3
281126218689,-3,-1,-1,0,2,-3,-2,4
281126218689,-1,-3,-1,0,-2,-2,-3,2
281126219404,-4,-5,-1,-5,-3,1,0,-2
281126219404,0,2,6,0,-4,2,3,-2
281126240770,-4,-4,-4,1,3,-1,1,-7
281126240770,-1,1,-3,1,2,-4,-6,-1
281126241435,1,-3,0,0,-2,-3,-1,-4
281126241435,5,3,-1,1,1,-1,1,0
281126254975,-5,1,0,-3,-4,1,1,-3
281126254975,-1,-1,2,-3,2,-3,-2,4
281126263288,-5,-1,-6,-4,2,-1,1,-1
281126263288,-5,-1,-1,-3,3,-2,-2,-3
281126278224,1,1,-3,-5,-2,4,-4,3
281126278224,-3,-5,-3,2,-2,1,1,2
281126278932,-5,0,0,2,3,1,3,-2
281126278932,0,-5,-4,-3,-7,-2,-4,-4
281126292468,6,-1,2,-1,-1,-3,-6,2
281126292468,-3,-4,-5,0,0,-4,-2,0
281126299874,1,-1,-5,1,-1,0,3,-1
281126299874,-4,1,-2,-4,-2,-2,-4,1
281126315010,0,0,1,-3,-5,4,1,-5
281126315010,2,1,2,2,-3,-6,0,-5
281126323109,1,3,3,1,2,2,-2,0
281126323109,-2,0,0,0,0,3,0,-4
281126338048,-1,-4,-1,1,-4,0,-3,-1
281126338048,-5,3,-2,-4,-2,0,-1,-1
281126338832,1,-8,-2,2,-3,1,-1,-2
281126338832,-1,-3,2,0,0,0,-1,-1
281126352612,0,1,2,-2,-4,0,2,1
281126352612,2,-4,-3,-1,-4,-1,1,-4
281126359960,-1,-2,-1,-4,2,-3,-4,1
281126359960,-2,3,-1,0,1,-3,-4,-2
281126375060,-1,1,-3,-2,3,-3,-5,-2
281126375060,1,-4,0,-7,-1,-6,-4,1
281126383169,0,-3,0,-1,-5,0,-2,1
281126383169,0,-4,-3,-3,1,0,1,-1
281126398148,1,0,4,1,1,-2,-2,-3
281126398148,-1,-1,5,1,3,3,2,-4
281126398871,-2,-1,-1,-2,-1,-2,0,-1
281126398871,3,2,-4,-1,-2,-2,2,-3
281126412564,-1,-1,-1,1,-2,-5,0,0
281126412564,-1,-1,-4,-3,-3,-1,-2,-1
281126419953,-4,2,-5,-3,-4,1,-1,1
281126419953,-3,-2,1,1,4,-1,-2,2
281126435003,-3,-1,0,3,1,0,3,1
281126435003,-1,2,1,1,-1,2,-1,0
281126443168,-1,-3,0,0,-3,2,4,1
281126443168,-3,-1,-1,-1,-4,-1,-5,2
281126458202,-5,-1,-4,-3,-2,1,6,-3
281126458202,1,-1,3,-5,0,-4,-4,4
281126458914,3,0,0,-1,-3,-2,-4,2
281126458914,-2,-3,-2,1,5,2,6,3
281126472549,-2,2,2,0,0,1,1,1
281126472549,-1,2,1,-2,-5,2,0,-2
281126480056,-1,2,-3,-5,-1,-1,-2,0
281126480056,-3,3,-6,2,-2,-5,-1,-1
281126494906,-1,-2,0,-1,0,1,-4,-1
281126494906,-3,-4,-1,-3,0,2,-2,-2
281126503250,3,-1,1,2,2,0,-1,-1
281126503250,-2,-3,2,-7,-2,-1,-3,0
281126518156,-2,-4,-3,0,-4,-6,-3,-2
281126518156,3,-2,-1,4,4,5,-3,0
281126518869,-1,-1,-1,-2,-4,-5,-2,-3
281126518869,-1,-4,0,-2,2,1,3,-3
281126532541,1,3,-3,1,2,0,-2,0
281126532541,0,2,0,0,-3,-5,-1,-1
281126539972,-2,0,2,-3,-3,-5,0,-2
281126539972,-3,-2,1,0,1,0,-1,1
281126555027,1,-2,-2,-6,-2,2,-1,3
281126555027,-6,3,-3,1,-4,0,-3,-1
281126563270,-3,-1,-3,-2,1,3,0,-1
281126563270,0,3,0,1,0,-4,-7,-6
281126578238,-1,-1,-5,-4,2,-2,-2,-2
281126578238,1,3,-5,-7,-2,2,0,1
281126578917,-2,-2,1,-2,-5,-1,-2,-5
281126578917,2,0,-4,1,-5,0,4,-3
281126592586,3,1,-2,2,-2,0,0,-3
281126592586,-4,0,-2,0,2,-5,2,-5
281126600085,-4,-1,0,5,1,2,-2,1
281126600085,-1,-5,2,-2,-2,-4,1,3
281126614959,0,1,3,-1,0,-4,3,1
281126614959,1,-5,-3,3,2,-1,0,1
281126623098,1,1,-1,-2,3,1,-2,-3
281126623098,-2,0,1,2,1,-1,-1,-6
281126638290,0,0,0,2,-6,0,1,-1
281126638290,-1,-2,-3,-7,-3,-2,-2,-7
281126638905,0,-2,1,-1,-2,-2,0,-1
281126638905,1,-1,-4,-2,-2,1,-2,1
281126652593,-3,0,1,-3,0,-1,4,0
281126652593,-2,1,2,-1,-1,2,-2,-3
281126660019,-4,-1,-4,0,0,-6,-2,2
281126660019,2,-3,-3,-6,-5,-1,2,-2
281126675101,0,-5,0,-4,2,-1,-2,1
281126675101,5,-4,0,1,2,0,1,0
281126683291,0,-1,-3,3,-1,1,-1,-2
281126683291,2,0,0,-1,-2,-4,-1,4
281126698300,-2,0,0,1,-3,-2,-2,0
281126698300,-3,2,2,-1,-1,-3,1,-1
281126698997,0,-2,1,4,-4,1,-3,-2
281126698997,-1,2,-5,0,3,2,-4,-6
281126712498,-4,-3,-1,-3,-7,1,-2,-2
281126712498,-4,2,-1,2,-2,1,-3,1
281126720169,1,-4,1,-4,4,-3,-1,2
281126720169,-1,-2,-5,-4,1,-1,-3,2
281126735037,1,-4,-2,1,2,-6,-6,-4
281126735037,-2,-5,-1,-1,-7,0,-1,-1
281126743149,1,1,-1,-4,0,-3,1,2
281126743149,-2,-3,-6,-1,1,-3,0,-1
281126758253,1,-5,-3,1,3,-2,-5,3
281126758253,-3,-4,-3,-3,0,-1,-3,-1
281126759054,-1,1,-2,-1,-3,0,-3,-2
281126759054,0,-3,1,3,-1,5,-1,-3
281126773957,6,7,2,1,0,-6,1,1
281126773957,1,-7,1,-3,3,-1,3,0
281126780036,-2,-4,0,1,-1,0,-1,-8
281126780036,-2,-1,3,-2,-4,-5,4,1
281126796446,-7,-5,-2,-2,-1,0,-7,-2
281126796446,-2,-1,-1,0,-2,1,-4,0
281126803164,3,-3,-6,-4,-1,-3,2,-5
281126803164,-3,3,-3,2,-3,-2,0,3
281126817631,1,0,-1,0,1,0,-3,-2
281126817631,-1,-2,-3,-2,-4,-2,2,-2
281126825834,-5,5,0,1,-1,-1,4,4
281126825834,0,-5,4,-2,-6,0,-3,-2
281126832665,-4,-3,-1,-4,-4,0,1,-1
281126832665,1,-3,-1,2,3,-2,1,1
281126840002,0,-2,1,0,-2,2,-2,3
281126840002,-1,-2,2,1,4,-4,-3,0
281126855105,-1,-3,-6,-3,-2,-3,0,2
281126855105,-1,-2,2,1,0,1,-2,-5
281126863254,-3,-1,0,-4,3,0,1,0
281126863254,-2,1,-2,2,3,0,-2,1
281126877436,-2,-1,-5,1,-3,-2,-1,-1
281126877436,1,-4,0,-3,-4,-1,-3,0
281126885756,0,2,-1,-1,2,-3,0,1
281126885756,-3,-2,-1,-8,-2,1,-4,-4
281126892654,1,0,-2,-4,-5,-2,4,0
281126892654,2,1,-1,0,2,-6,7,3
281126900176,1,-3,-4,-5,-1,-1,-5,-1
281126900176,-3,1,3,0,-5,0,0,-2
281126914944,3,-2,-2,-1,0,-2,-1,-3
281126914944,-4,-1,-6,-4,-1,-7,-2,-2
281126923147,1,-1,0,-3,-7,3,1,-3
281126923147,0,0,2,-1,0,-3,4,-1
281126937409,-5,1,0,0,2,4,4,-5
281126937409,0,-3,1,-1,-2,-2,-1,-3
281126945547,-1,0,-1,0,0,0,-1,1
281126945547,2,0,-5,-1,1,1,-4,3
281126952342,-1,0,-3,-2,-4,2,0,0
281126952342,1,-2,-2,0,-5,3,-3,1
281126959872,-5,-1,2,-1,-1,-4,3,1
281126959872,-3,-5,-3,-4,-2,-1,-1,-2
281126974854,4,-2,3,0,3,0,-5,-3
281126974854,-2,-3,-2,0,-2,1,0,0
281126983093,2,-2,-3,0,0,-2,1,-3
281126983093,-3,-1,-6,-4,-5,-5,0,-4
281126997395,-1,0,-1,-1,1,0,1,-2
281126997395,-2,1,0,-2,2,0,-3,0
281127005628,0,-1,-1,-2,-1,-2,-5,0
281127005628,2,-3,-2,-1,1,2,1,0
281127020624,-1,-2,-3,1,-2,-2,-3,0
281127020624,-2,-2,-1,-3,3,-5,0,-5
281127021385,-1,-3,-2,1,-2,0,1,1
281127021385,4,-1,2,1,3,4,-3,-1
281127034885,0,1,0,3,-2,-1,1,-2
281127034885,-1,3,-3,-5,-5,-2,-2,-4
281127043168,2,2,-2,-4,0,-5,-1,-3
281127043168,-3,0,-5,0,-1,7,0,1
281127057669,-3,0,-2,-2,-1,1,-4,4
281127057669,-1,-2,-1,2,0,-2,-1,-2
281127065438,-4,1,-3,2,0,1,0,-4
281127065438,-1,-2,0,-2,-2,0,0,-7
281127080668,0,-1,-1,-2,3,-4,3,-3
281127080668,-4,1,-3,-1,-3,1,0,3
281127081327,3,2,-3,-2,1,0,1,1
281127081327,2,0,2,0,0,-2,-3,0
281127095067,1,-3,-1,2,-2,-2,-8,-3
281127095067,1,-1,-5,0,0,2,-4,-3
281127103292,-8,-8,0,-4,-1,-3,0,-5
281127103292,0,-1,0,-1,-7,-7,3,-1
281127117537,-5,1,0,-1,3,3,2,0
281127117537,1,-2,0,0,2,4,0,-1
281127125838,1,1,1,0,-5,0,1,4
281127125838,-4,-2,1,-1,-1,-2,0,1
281127140564,-5,-2,-1,-4,-7,0,0,3
281127140564,1,-3,4,1,1,-1,-2,-1
281127141359,0,-3,-1,2,0,0,-5,0
281127141359,2,-3,2,2,2,-2,1,0
281127155028,1,-1,-5,1,-1,0,1,-1
281127155028,2,-1,-2,-3,-1,-2,5,1
281127163268,-1,-3,5,-2,-2,0,2,-4
281127163268,0,2,-3,-1,2,0,3,-2
281127177510,2,0,6,4,1,-1,0,0
281127177510,-1,1,-3,-3,0,-3,0,0
281127185768,-4,-2,-2,1,-2,0,1,-5
281127185768,1,-1,-1,1,-2,-2,-1,-1
281127200778,1,2,4,-1,-1,3,-4,-3
281127200778,-1,-3,2,0,-1,0,-1,-1
281127201509,0,0,0,-1,-3,-4,4,0
281127201509,-1,2,4,2,0,-1,-6,0
281127215015,1,-6,-3,-1,-3,-2,-3,-2
281127215015,-4,1,-1,1,-4,-2,2,2
281127223285,0,-1,1,-5,-3,2,-5,1
281127223285,-1,-2,0,-2,-2,1,1,2
281127237620,-1,-1,1,-5,-1,-2,5,-2
281127237620,0,-1,2,-2,-4,-2,-4,-4
281127245745,0,-2,-4,0,0,-3,2,0
281127245745,1,0,-1,-2,0,-2,-5,-2
281127260749,0,2,-7,-2,0,-6,-2,-5
281127260749,-2,1,0,0,-2,2,0,0
281127261435,1,-2,-4,1,-2,1,-2,1
281127261435,-4,-2,-4,-4,-2,-2,3,-2
281127275117,-2,-6,-1,0,-2,-2,-1,-4
281127275117,2,-4,-1,-5,-3,-2,-6,-1
281127283215,-2,4,-1,0,3,-3,-4,-5
281127283215,-2,2,2,5,-3,-1,-1,3
281127297596,3,1,-3,-4,-2,-2,-1,0
281127297596,-1,1,3,-1,-3,0,0,-5
281127305566,3,-3,-1,-2,1,2,-2,-3
281127305566,-1,-1,-4,-3,-4,-1,2,0
281127320634,-3,-2,-2,0,5,2,-1,-3
281127320634,0,1,-1,4,1,-1,-1,0
281127321390,-4,-3,-2,-4,-6,-2,0,0
281127321390,-1,0,-6,-1,5,-3,-2,-2
281127335161,-1,-1,-1,1,2,1,3,-2
281127335161,-1,0,-1,0,-1,-2,-1,0
281127343226,2,-1,-2,-3,1,-1,0,-2
281127343226,0,-3,0,-1,-4,-2,0,-1
281127357522,0,1,6,1,-1,2,-3,-3
281127357522,-5,0,-1,-5,-3,-3,1,2
281127365771,-1,1,-2,3,1,-1,-4,-2
281127365771,3,1,-2,-3,-1,-1,-2,-3
281127380763,-1,1,-3,-3,1,-3,2,3
281127380763,-1,-1,-6,7,4,1,-1,-2
281127381425,0,-2,0,-3,2,0,-4,3
281127381425,-3,1,1,0,3,-2,0,-3
281127395119,1,2,3,2,-3,1,-2,0
281127395119,-2,0,-2,-2,-3,-3,3,-1
281127403274,-1,0,-2,-2,-1,0,1,-2
281127403274,-4,0,0,2,0,0,-2,0
281127417641,-3,-2,-1,-1,-7,-2,6,-2
281127417641,0,1,0,-1,3,-2,-4,2
281127425649,-1,-1,2,2,4,2,2,0
281127425649,1,-1,3,0,-2,-1,5,0
281127440681,-1,1,0,1,-2,1,1,2
281127440681,3,-1,0,-6,-2,1,-1,1
281127441416,1,2,-2,0,-2,-3,-2,-5
281127441416,-2,-3,-3,-2,0,0,-2,-3
281127455114,-3,0,-2,-2,1,4,-1,2
281127455114,0,1,1,-3,-2,0,1,-2
281127463134,-2,-1,-1,2,-3,-1,-3,3
281127463134,-1,-3,-2,1,0,-3,2,-7
281127477480,-2,-3,-2,1,-4,-6,-4,1
281127477480,-4,2,-5,-2,-6,1,1,2
281127485770,-2,-2,-2,1,-3,-4,-3,-3
281127485770,1,-1,4,1,-3,1,-3,2
281127500814,1,0,0,-4,-2,-2,-1,-4
281127500814,-2,-1,-5,5,0,1,0,0
281127501399,-4,0,-1,-3,0,-1,-3,-3
281127501399,0,5,-3,0,1,1,-5,1
281127514984,-2,1,-2,-5,1,-3,-4,3
281127514984,-1,-2,-1,-2,-1,-3,1,-1
281127523229,-1,0,-3,-2,0,-2,-1,1
281127523229,3,-3,-1,-4,-2,-2,-2,-1
281127537439,1,-3,-5,-1,1,2,3,-5
281127537439,-1,-3,-2,-2,0,-1,-1,-3
281127545816,0,1,-2,4,4,-6,3,-1
281127545816,-6,-2,0,-2,-5,-1,-1,-2
281127560575,2,-3,1,-2,0,-1,1,4
281127560575,-4,-4,1,-1,3,-4,-6,-2
281127561378,1,-4,-2,-3,2,0,4,-3
281127561378,3,-3,-1,1,-1,1,-2,1
281127575188,-3,1,0,-1,1,-2,0,-3
281127575188,-1,-2,-3,1,-1,3,1,-2
281127583317,-2,-2,2,-2,2,1,-1,0
281127583317,4,4,-1,0,-2,2,-5,0
281127597444,-5,-3,-6,1,-1,0,1,-3
281127597444,5,-2,-4,-4,-3,-4,-2,-4
281127605664,2,-2,1,-1,0,-3,0,-3
281127605664,-3,0,0,-1,4,-1,2,-2
281127628943,-1,-6,4,1,-1,-1,-1,0
281127628943,-4,1,1,1,2,-2,4,-1
281127629695,-5,-1,1,-3,-3,-1,-2,3
281127629695,0,-1,-2,1,1,3,2,0
281127635180,0,6,-1,-2,0,-3,-1,-2
281127635180,-1,-5,-2,-2,1,1,1,-4
281127643258,-2,3,-5,-2,-7,3,-2,0
281127643258,0,1,0,-1,2,3,-3,2
281127657612,-1,-1,-1,0,0,-1,0,2
281127657612,-1,0,1,-1,-3,4,-4,2
281127665842,-5,-4,-3,-1,2,-1,4,-3
281127665842,-3,-2,-2,-2,1,-8,-2,-3
281127680766,1,3,5,1,-3,-2,-1,-3
281127680766,0,-3,0,-1,0,-1,1,0
281127681468,-3,0,-1,-1,-6,-1,-3,1
281127681468,0,0,0,1,0,0,1,1
281127695079,-3,-5,3,1,-3,0,5,1
281127695079,1,4,1,1,0,-2,-2,1
281127703286,2,3,2,3,-3,-1,-3,-7
281127703286,-2,-2,-2,-3,-5,-5,-5,-5
281127717613,3,-1,-7,-3,1,-2,-7,-3
281127717613,1,2,-1,-1,-1,1,3,0
281127725614,4,2,3,1,-2,-1,-1,3
281127725614,-2,-2,8,2,1,-2,1,0
281127740794,3,-1,-5,-3,-4,0,2,1
281127740794,-2,1,5,2,0,-3,-2,2
281127741406,2,5,1,1,-2,-2,-1,5
281127741406,-1,2,-2,-3,-5,-1,-2,-1
281127755132,-3,-1,-1,3,-1,-4,-6,-1
281127755132,0,-2,2,-1,-2,0,-2,4
281127763165,-4,-1,2,1,-1,0,-1,-3
281127763165,2,2,0,-1,3,-5,0,0
281127777483,-2,2,-1,-1,-2,1,-1,0
281127777483,1,1,-4,-5,-1,-2,-3,-1
281127785677,0,-1,0,-1,4,1,-4,1
281127785677,1,1,-5,1,2,0,0,-5
281127800027,1,-4,0,-2,-1,-1,1,0
281127800027,-1,-5,0,-2,-5,1,1,-3
281127808303,2,-5,-2,-2,-6,-2,-4,-3
281127808303,-1,-6,0,1,1,2,-1,0
281127815198,0,0,1,-2,-3,0,-5,-1
281127815198,-4,-4,-2,-1,3,0,-4,0
281127823262,-3,-3,-1,3,0,-4,0,-1
281127823262,-5,-7,1,-1,0,-5,0,-1
281127837560,-6,-3,1,-3,1,-3,0,-4
281127837560,2,2,-1,0,-2,-1,0,0
281127845799,-1,0,-3,-3,-1,-2,1,1
281127845799,1,-3,-2,0,-2,2,-1,-1
281127859958,-4,-5,-3,1,1,-2,-4,1
281127859958,-3,1,-1,0,-1,-3,-3,-1
281127868219,2,2,-4,-5,1,-6,2,-3
281127868219,-2,-2,-1,-2,-4,-8,0,-1
281127875028,6,-5,0,-2,-1,2,-4,0
281127875028,-2,3,-8,3,-3,-1,-4,4
281127884009,-4,-2,-2,-1,2,1,1,-1
281127884009,-1,2,2,-1,-1,1,-2,1
281127897475,2,-3,-3,3,-2,-3,-1,-1
281127897475,-3,-3,2,-3,-3,0,1,-4
281127906500,0,-2,-2,-3,1,2,1,-3
281127906500,-2,-4,-1,-4,-5,-2,-3,2
281127920115,1,0,-3,-3,-3,1,-3,-2
281127920115,1,-2,-1,-4,-3,0,-2,-1
281127928911,-5,-4,-1,-3,-4,-1,-2,1
281127928911,0,3,3,-1,0,1,0,1
281127943824,0,0,-3,-2,-2,-1,3,-3
281127943824,-1,-1,1,0,3,-3,-2,-1
281127945389,3,-2,-3,1,-3,4,1,-2
281127945389,2,2,-4,-2,2,-3,-1,0
281127957647,-5,-1,2,-2,2,-3,1,-1
281127957647,-1,0,2,-1,0,0,3,-2
281127966433,3,1,-1,3,-3,2,0,0
281127966433,-1,-3,-3,-3,-4,2,1,0
281127980049,5,5,0,4,-1,-1,0,3
281127980049,-1,1,0,-1,-1,-5,1,-2
281127989064,1,1,0,0,-5,-2,-2,1
281127989064,0,-2,-3,-2,0,-1,2,-2
281128003968,-4,-1,-4,-3,-1,-4,0,-1
281128003968,-3,-5,-4,-2,-3,1,-3,-1
281128005379,-1,-2,-1,-2,2,4,0,-2
281128005379,-2,-1,0,3,0,4,-2,-3
281128017546,-1,1,-2,-4,-1,1,-1,-1
281128017546,-4,-2,-3,-4,-3,1,2,-4
281128026506,-2,-6,0,2,0,1,-2,1
281128026506,2,-2,-1,-4,-1,-3,0,-4
281128039994,-1,-1,0,0,1,-5,-4,0
281128039994,1,1,-1,-4,-1,1,2,-1
281128049043,-3,-2,-2,-4,-4,-3,-1,-2
281128049043,0,1,-3,-1,1,-1,1,-3
281128063828,-2,-2,0,-3,-1,1,0,-1
281128063828,-3,-2,-2,-1,2,-3,-4,-3
281128065405,3,0,-2,-5,1,-6,1,-3
281128065405,-3,-2,-1,-1,-1,0,-2,4
281128077566,-4,-1,-2,1,-1,0,0,2
281128077566,1,-4,-2,0,7,2,-3,-1
281128086394,-2,4,-1,0,3,-1,2,1
281128086394,-4,0,0,0,1,0,-2,-1
281128100132,-2,-3,2,1,3,-1,1,-2
281128100132,3,-2,0,0,-3,-3,-2,-1
281128108917,-2,0,1,-3,-3,2,-5,0
281128108917,4,3,-3,-1,-1,-1,0,-3
281128123839,-2,-3,-1,2,-1,2,2,-6
281128123839,-2,1,0,0,-1,-2,1,-1
281128125380,-1,-3,0,-3,-3,0,1,-1
281128125380,-4,-1,-4,-1,-1,-1,-2,1
281128137625,1,0,2,-5,-9,-2,-2,-4
281128137625,1,-3,-1,3,-9,-3,1,0
281128146499,-1,-1,-4,-3,2,-1,0,0
281128146499,2,3,-1,6,-2,-4,3,0
281128160192,4,1,-2,2,0,2,-4,1
281128160192,-1,3,1,-3,-4,2,2,-1
281128169039,-2,-5,-2,0,2,3,-3,-3
281128169039,-2,-3,0,-2,2,3,0,-1
281128183971,3,1,1,0,3,0,-1,-1
281128183971,0,0,-2,3,0,0,2,-1
281128185435,-4,0,-1,-2,1,-4,3,1
281128185435,0,-4,-4,-3,-4,-2,-6,-3
281128197604,0,2,-4,-1,1,2,-1,4
281128197604,-1,4,-6,-5,2,-2,-5,-3
281128206459,-1,-2,-3,-2,-3,0,-2,-1
281128206459,-2,-3,1,3,-1,-1,0,-3
281128220027,-1,-2,-2,-8,-2,-3,0,-7
281128220027,-4,-2,-1,-1,-1,0,-6,3
281128228921,0,0,-1,2,1,0,3,2
281128228921,-2,-9,-2,-1,-6,-3,0,2
281128243827,-6,0,2,3,-1,-3,4,-2
281128243827,0,-3,-1,-5,-4,1,-1,-4
281128245350,-4,4,-1,-3,-1,-6,-4,-2
281128245350,1,1,-5,-1,4,1,1,1
281128257550,0,-6,0,2,5,-2,-3,1
281128257550,-6,-5,-2,1,-1,-3,1,1
281128266496,0,0,0,3,-2,-2,0,-2
281128266496,-1,2,0,-1,-1,-1,-4,0
281128279955,-4,-3,-1,-1,-2,-2,-3,-2
281128279955,-2,-2,2,2,1,1,0,-3
281128289016,-1,-3,1,0,-2,0,-2,0
281128289016,-2,-1,-1,0,-2,-2,1,1
281128303973,-2,0,-1,-1,0,4,-1,2
281128303973,-2,-4,1,2,0,3,-3,0
281128305496,3,-1,3,-1,-1,-1,0,-3
281128305496,0,0,-3,-6,-1,-3,-2,-4
281128317511,3,2,-2,1,1,-3,4,1
281128317511,3,-3,-1,-3,0,-6,-4,-5
281128326556,0,0,0,1,-2,0,-6,0
281128326556,-5,-1,0,-3,-1,-4,6,-1
281128340144,0,-1,-2,0,-6,0,-2,-2
281128340144,-1,2,-4,-5,-2,0,-2,1
281128348981,-2,-1,-2,1,3,-1,4,0
281128348981,3,-6,0,-1,0,2,-3,-3
281128363888,-2,-3,-4,-3,-3,4,-1,-5
281128363888,-2,-2,-5,3,2,-4,-1,1
281128365429,2,-1,1,1,-1,-3,0,-1
281128365429,0,2,-3,0,1,3,0,1
281128377508,-7,-3,-2,-4,4,-3,-3,0
281128377508,1,1,-2,0,2,0,-1,2
281128386472,-4,-2,-1,-2,-3,0,-2,5
281128386472,-3,0,0,4,-1,-2,-3,0
281128400019,1,0,-3,-4,-2,-3,-2,-3
281128400019,-3,2,-1,0,1,-3,2,2
281128408950,1,2,-4,1,4,-1,-3,-4
281128408950,1,-1,1,0,-2,3,-2,-2
281128423786,1,-5,-1,-4,-3,-3,-2,-3
281128423786,0,-1,1,-2,-2,-1,1,-6
281128425412,0,-3,-4,-3,-2,3,1,0
281128425412,-1,-3,2,-4,-5,-3,-1,1
281128437403,-1,-1,-5,-3,0,-1,0,5
281128437403,1,-1,2,0,-2,-3,-1,-5
281128446443,-5,-1,1,-3,-1,1,4,-2
281128446443,1,-1,-1,0,-2,2,-1,-5
281128460367,0,3,1,1,-4,2,-4,-1
281128460367,1,-4,-3,1,-1,2,2,-3
281128468929,0,-3,-1,0,-1,1,-5,-4
281128468929,1,-1,-1,-1,-3,0,-3,0
281128483779,1,3,-4,2,-3,1,0,-1
281128483779,-4,0,-5,-7,0,1,-1,-1
281128485379,2,3,-1,0,-5,-3,-2,0
281128485379,-4,4,1,0,2,3,1,2
281128497436,-3,-3,-3,-7,1,-1,-1,-4
281128497436,0,-1,3,-3,-4,-2,-1,-1
281128506395,-2,1,2,-2,-1,-1,0,2
281128506395,3,1,-4,1,-2,-3,2,-6
281128519969,1,-4,-1,0,3,-1,5,0
281128519969,1,-1,1,1,-6,-1,-3,1
281128528937,0,-1,-2,-2,-4,-3,-2,-3
281128528937,-6,-4,-3,-5,3,-4,2,0
281128543813,0,-1,0,3,-6,1,-2,1
281128543813,-1,-4,1,-2,5,-1,-2,-2
281128545413,-2,-2,-3,-3,2,-3,0,-6
281128545413,-1,-1,-3,3,1,-1,-1,-1
281128557446,-5,5,1,-3,-1,-3,2,-1
281128557446,-4,-6,-6,1,-5,-2,0,-1
281128566442,1,1,1,-2,-2,1,-6,-4
281128566442,-3,-5,0,-2,-1,-2,0,-5
281128579954,-2,-5,-1,-4,3,0,-2,-4
281128579954,-2,1,-5,3,1,0,-1,2
281128588916,-1,0,-1,0,2,-5,1,-2
281128588916,-3,1,-3,-4,-1,-2,-2,-1
281128603557,0,-1,0,2,-2,-3,-4,-2
281128603557,2,-2,-1,-2,0,1,-1,-2
281128609938,-2,3,-5,2,-8,-6,-2,3
281128609938,1,2,0,3,0,1,2,-1
281128617402,-2,1,-1,-2,-1,4,-6,-5
281128617402,-4,3,-2,1,1,0,0,4
281128626431,1,-5,-2,-2,4,1,-2,0
281128626431,-6,2,-5,0,-3,-2,-1,0
281128639969,1,6,-1,-2,-4,3,-2,2
281128639969,0,-1,-2,0,0,0,-2,-1
281128648908,-3,-4,-1,-3,2,-3,3,-1
281128648908,-1,-6,-2,-3,1,-3,-4,-4
281128663803,-3,-7,-2,-2,4,-3,3,2
281128663803,-6,2,3,0,-3,-1,-1,1
281128665416,-4,-10,3,-2,-4,1,0,0
281128665416,-1,-1,-4,-3,-5,-2,-4,-2
281128677446,2,-3,0,-1,-1,-2,0,0
281128677446,-1,1,-3,0,3,-1,3,0
281128692486,1,1,0,1,-1,-1,-4,-3
281128692486,-2,-5,1,-2,-1,-7,0,4
281128699968,-3,-3,1,4,1,4,1,-1
281128699968,0,-1,2,-4,1,-3,1,-1
281128708948,-6,-2,-1,-2,-1,2,-2,-1
281128708948,0,1,-1,-3,-4,-1,4,0
281128723115,-1,-1,-3,-3,-6,0,2,-2
281128723115,-3,-1,2,0,-1,0,-2,1
281128738100,-1,1,-3,0,-2,-1,1,-1
281128738100,0,-2,0,1,4,-2,-6,-1
281128738883,-2,-1,-2,-1,1,-6,-1,2
281128738883,-3,0,1,-1,-2,-1,0,-2
281128746461,-2,-1,-3,-2,-4,2,-1,-1
281128746461,1,0,2,1,0,5,-2,2
281128759932,3,3,1,4,-2,-3,-2,-2
281128759932,-2,-2,-3,-2,-1,-2,-1,-2
281128768962,0,0,2,2,-2,-3,2,2
281128768962,-3,5,2,-1,0,-1,0,0
281128783162,1,0,-3,-1,1,-4,0,0
