timestamp,emg1,emg2,emg3,emg4,emg5,emg6,emg7,emg8
71478530333,-109,-111,-111,-111,-111,9,-4,110
71478530333,-120,-124,-124,-124,-124,-9,-5,62
71478531017,10,74,81,80,71,-7,4,-85
71478531017,97,107,108,108,105,-8,3,-116
71478531804,60,25,4,10,36,2,1,4
71478531804,-64,-81,-85,-83,-77,10,4,104
71478532684,-128,-128,-128,-128,-128,-7,-6,93
71478532684,-24,42,47,45,38,-6,-4,-67
71478543240,122,127,127,127,127,-9,-3,-128
71478543240,95,78,63,81,102,7,-1,-16
71478551968,-49,-100,-105,-101,-95,8,-4,115
71478551968,-128,-128,-128,-128,-128,3,-6,126
71478559816,-9,43,51,49,45,-10,0,-77
71478559816,124,127,127,127,127,-3,0,-128
71478573263,94,58,57,54,70,4,5,-12
71478573263,-80,-122,-128,-125,-116,10,-2,127
71478584790,-128,-128,-128,-128,-128,-6,-1,89
71478584790,24,54,58,52,48,-14,-3,-97
71478588356,127,127,127,127,127,1,-1,-128
71478588356,61,16,-7,16,31,6,1,19
71478603377,-47,-122,-127,-122,-116,8,-3,127
71478603377,-128,-127,-124,-127,-128,1,-2,124
71478611988,-44,-13,4,-4,-52,-16,-5,-62
71478611988,118,127,127,127,127,-5,1,-128
71478651583,55,110,110,110,108,-6,1,-110
71478651583,112,118,118,118,115,-7,0,-114
71478652402,16,-36,-60,-55,-26,6,0,51
71478652402,-70,-92,-95,-94,-87,2,-4,102
71478653257,-128,-128,-128,-128,-128,-12,-2,74
71478653257,20,61,63,61,58,-5,-2,-79
71478656245,122,127,127,127,127,-4,0,-128
71478656245,11,-49,-60,-61,-50,0,-2,45
71478663138,-94,-120,-125,-124,-119,1,-1,108
71478663138,-28,40,56,46,35,-5,-2,-55
71478670547,80,87,97,94,79,-10,3,-114
71478670547,127,127,127,127,127,-2,4,-128
71478679580,56,-3,-17,-16,-3,8,2,48
71478679580,-124,-128,-128,-128,-128,6,-1,127
71478693173,-128,-128,-128,-128,-128,-14,-4,46
71478693173,35,89,94,93,84,-10,-5,-117
71478702110,127,127,127,127,127,-3,1,-128
71478702110,117,108,103,116,121,12,2,-8
71478708167,-45,-126,-128,-128,-125,9,3,127
71478708167,-128,-128,-128,-128,-128,4,5,127
71478723157,-18,38,56,47,2,-10,-3,-72
71478723157,92,84,84,83,86,-12,-1,-101
71478730656,107,127,127,127,127,8,-3,-49
71478730656,-36,-75,-75,-74,-74,3,-3,82
71478739636,-92,-101,-100,-100,-97,1,-5,77
71478739636,-12,21,23,22,12,-10,0,-57
71478753108,97,127,127,127,122,5,-3,-108
71478753108,55,17,-19,-1,37,1,16,16
71478762132,-39,-91,-101,-94,-79,11,-1,124
71478762132,-128,-128,-128,-128,-128,-6,-4,115
71478768227,-24,35,44,36,25,-15,-1,-79
71478768227,125,127,127,127,127,-7,-4,-128
71478783163,52,9,-18,-11,29,4,1,20
71478783163,-62,-118,-128,-124,-109,7,-1,127
71478790654,-128,-128,-128,-128,-128,4,-7,127
71478790654,-10,47,61,55,36,-10,-2,-94
71478799665,127,127,127,127,127,-11,1,-128
71478799665,127,127,127,127,127,12,1,-84
71478813071,-27,-126,-128,-128,-119,3,-3,127
71478813071,-124,-122,-118,-121,-128,6,-6,127
71478822142,-89,-99,-93,-98,-112,-13,-1,-9
71478822142,71,97,96,96,97,-7,1,-97
71478828087,118,127,127,127,127,1,5,-105
71478828087,21,-58,-75,-57,-48,1,-4,66
71478843109,-85,-90,-87,-87,-91,7,-2,117
71478843109,-128,-128,-128,-128,-128,-12,-4,73
71478850608,34,94,98,95,90,-10,1,-105
71478850608,121,125,127,124,119,-9,-1,-128
71478859681,59,24,-3,5,53,10,0,32
71478859681,-83,-112,-117,-113,-109,6,-1,121
71478873114,-128,-128,-128,-128,-128,-8,-5,68
71478873114,41,79,85,80,72,-4,-1,-96
71478882123,127,127,127,127,127,-5,2,-128
71478882123,127,127,127,127,127,17,3,-39
71478888183,-26,-121,-125,-124,-119,7,-1,127
71478888183,-124,-128,-128,-128,-128,8,-4,127
71478903125,-120,-124,-117,-121,-128,-10,-6,53
71478903125,23,74,85,80,68,-6,-5,-96
71478910568,112,127,127,127,127,-1,1,-128
71478910568,127,125,127,125,122,-2,7,-111
71478919571,91,85,71,88,114,14,4,23
71478919571,-77,-125,-125,-126,-128,2,0,120
71478933148,-117,-110,-113,-110,-106,4,1,126
71478933148,-119,-128,-128,-128,-128,-16,-6,15
71478942117,29,101,114,109,92,-7,2,-119
71478942117,125,125,124,122,118,-8,3,-128
71478948098,127,127,127,127,127,-3,0,-128
71478948098,127,125,125,127,127,8,-1,-61
71478963203,86,97,97,99,109,12,3,7
71478963203,9,-40,-100,-98,-55,7,2,79
71478970637,-48,-102,-113,-108,-93,6,-2,125
71478970637,-123,-128,-128,-128,-128,10,-2,127
71478979631,-121,-128,-128,-128,-128,3,-3,115
71478979631,-124,-117,-112,-109,-111,-4,1,79
71478993137,-111,-112,-112,-119,-126,-18,-1,-10
71478993137,6,75,100,97,72,-11,0,-105
71479002081,68,110,113,110,99,-6,-2,-128
71479002081,126,127,127,127,127,-9,-2,-128
71479016051,127,127,127,127,127,-6,-4,-128
71479016051,127,119,121,121,120,-7,11,-110
71479024585,125,115,112,112,108,-7,-2,-120
71479024585,119,123,127,127,127,1,0,-91
71479030544,96,119,111,121,127,9,-1,5
71479030544,-17,-80,-99,-98,-89,12,-2,113
71479039541,-104,-128,-128,-128,-128,5,-1,127
71479039541,-128,-128,-128,-128,-128,5,-2,127
71479053072,-123,-113,-102,-104,-114,-6,-3,69
71479053072,-62,-48,-26,-44,-82,-11,-7,-31
71479062085,8,38,72,71,43,-14,3,-112
71479062085,99,116,127,127,112,-9,-2,-128
71479076262,127,127,127,127,127,-7,6,-128
71479076262,127,127,116,122,127,-3,10,-112
71479083034,127,107,108,103,96,-5,19,-123
71479083034,127,127,127,127,127,-1,13,-119
71479090539,126,126,124,123,123,-1,11,-118
71479090539,127,127,126,127,127,0,3,-121
71479099593,127,127,127,127,127,-4,1,-128
71479099593,123,127,127,127,127,1,7,-104
71479113076,127,122,120,119,117,9,-2,-73
71479113076,95,124,116,127,127,12,-8,4
71479122058,10,-33,-91,-90,-69,9,-8,98
71479122058,-57,-123,-128,-128,-124,5,-8,127
71479136262,-59,-128,-128,-128,-128,1,7,121
71479136262,-60,-125,-119,-120,-123,5,-2,126
71479143059,-74,-120,-120,-118,-113,8,-12,127
71479143059,-123,-128,-128,-128,-128,2,-21,125
71479150549,-128,-126,-122,-125,-128,-3,-6,75
71479150549,-128,-125,-128,-127,-118,-11,-2,77
71479159622,-115,-126,-122,-126,-128,-21,-9,-3
71479159622,12,59,92,90,69,-12,-5,-119
71479173058,77,125,127,127,127,-1,-11,-124
71479173058,127,127,127,127,127,-7,-11,-128
71479182062,127,127,127,127,127,-3,3,-128
71479182062,127,120,121,119,116,-2,0,-115
71479196273,124,127,127,127,126,6,2,-73
71479196273,123,124,121,123,127,6,0,-78
71479203045,127,127,127,127,127,15,7,-50
71479203045,67,68,38,55,91,13,-2,32
71479210606,-7,-81,-98,-97,-94,8,-1,94
71479210606,-65,-128,-128,-128,-128,7,9,127
71479219574,-88,-128,-128,-128,-128,8,-6,127
71479219574,-115,-128,-125,-128,-128,0,0,105
71479233053,-43,-3,15,-2,-35,-12,-15,-64
71479233053,61,95,95,94,92,-10,-6,-109
71479249563,127,127,127,127,127,-5,0,-128
71479249563,127,127,127,127,127,3,4,-106
71479264409,85,82,69,87,105,18,0,18
71479264409,-21,-89,-99,-101,-102,7,-2,91
71479266061,-65,-95,-102,-99,-93,1,-1,124
71479266061,-128,-128,-128,-128,-128,5,6,127
71479270717,-127,-128,-125,-128,-128,-17,-3,8
71479270717,7,88,118,110,80,-5,-3,-111
71479279646,100,104,100,101,105,-9,-3,-117
71479279646,127,127,127,127,120,-6,2,-128
71479293185,127,127,127,127,127,4,2,-90
71479293185,122,121,112,116,124,6,2,-62
71479302053,90,107,110,110,105,18,13,3
71479302053,27,-15,-62,-55,-1,6,1,64
71479316393,-15,-100,-104,-103,-97,9,6,115
71479316393,-128,-128,-128,-128,-128,2,-9,127
71479323134,-128,-128,-128,-128,-128,5,-9,113
71479323134,-110,-103,-95,-98,-118,-19,-4,-6
71479330695,14,93,92,93,103,-9,-4,-100
71479330695,111,112,114,109,106,-8,5,-128
71479353766,127,127,127,127,127,-6,4,-128
71479353766,127,127,127,127,127,6,2,-83
71479354533,122,109,107,104,104,13,0,-33
71479354533,13,-32,-66,-53,-17,9,4,75
71479362091,-54,-112,-123,-118,-102,5,1,122
71479362091,-116,-128,-128,-128,-128,2,-2,127
71479376269,-128,-128,-128,-128,-128,-7,1,80
71479376269,-112,-90,-85,-89,-99,-13,-7,-8
71479383157,-6,54,73,64,59,-10,-6,-96
71479383157,51,120,127,122,110,-8,-2,-128
71479390662,127,127,127,127,127,-2,0,-128
71479390662,127,127,126,127,127,-7,3,-118
71479405661,112,97,93,93,93,-12,-6,-128
71479405661,127,127,127,127,127,-5,1,-128
71479413060,118,124,116,120,127,-5,1,-116
71479413060,127,123,127,126,121,-3,-1,-123
71479422130,126,127,127,127,122,-5,2,-128
71479422130,127,127,127,127,127,-3,0,-128
71479444421,114,105,101,102,102,-16,-2,-117
71479444421,-1,72,65,41,4,-13,-5,-86
71479446049,-104,-80,-83,-83,-84,-4,-11,43
71479446049,-128,-128,-128,-128,-128,-4,-2,90
71479450574,-128,-128,-128,-128,-128,0,14,127
71479450574,-109,-104,-95,-92,-92,-5,0,52
71479465564,-125,-115,-122,-120,-114,-13,-3,40
71479465564,-128,-128,-128,-128,-128,-10,-11,48
71479473148,-128,-123,-118,-121,-126,-15,-17,28
71479473148,-122,-120,-117,-113,-108,-12,-3,50
71479482101,-128,-128,-128,-128,-128,0,14,109
71479482101,-119,-128,-127,-126,-126,0,-2,100
71479496309,-128,-122,-123,-124,-125,4,2,127
71479496309,-54,-100,-128,-128,-128,7,-11,127
71479503038,-25,-90,-128,-128,-108,0,-14,94
71479503038,123,119,113,113,110,9,14,-8
71479510544,115,114,104,106,112,-3,10,-98
71479510544,126,123,127,127,127,-4,-4,-117
71479525606,127,127,127,127,127,-6,0,-128
71479525606,85,119,110,111,114,-7,-8,-122
71479533105,-6,14,67,59,22,-14,-11,-112
71479533105,-104,-97,-83,-84,-87,-6,-2,27
71479542029,-119,-111,-103,-102,-109,-4,-9,68
71479542029,-128,-128,-128,-128,-128,1,-8,111
71479556300,-124,-126,-128,-128,-128,-5,-3,113
71479556300,-120,-121,-116,-116,-116,5,-3,109
71479563071,-122,-122,-116,-116,-119,10,2,116
71479563071,-34,-58,-123,-119,-83,7,5,104
71479578835,100,90,75,73,78,9,2,-42
71479578835,127,127,127,127,127,-2,8,-103
71479585589,127,127,127,127,127,-8,-6,-128
71479585589,48,95,127,127,113,-16,8,-128
71479593067,-118,-119,-128,-128,-123,-6,9,76
71479593067,-126,-117,-115,-115,-114,-2,-4,87
71479602082,-128,-128,-125,-125,-128,-2,0,81
71479602082,-128,-128,-128,-128,-128,5,-12,106
71479616444,-126,-126,-128,-128,-128,0,-10,90
71479616444,-125,-122,-114,-112,-112,-2,-5,91
71479623210,-124,-120,-127,-127,-124,5,-4,121
71479623210,-128,-128,-128,-128,-128,0,0,121
71479638904,-85,-128,-128,-128,-127,6,-1,127
71479638904,-10,-44,-121,-88,-48,12,2,103
71479645596,95,107,91,104,111,20,-4,24
71479645596,123,114,108,112,115,-26,4,-36
71479662037,127,127,127,127,127,-2,34,-104
71479662037,127,127,127,127,127,-17,6,-127
71479663597,127,122,118,119,121,-11,5,-128
71479663597,-22,-85,-99,-96,-95,13,-19,90
71479675595,33,21,-23,-2,25,15,5,94
71479675595,107,99,100,99,98,30,5,47
71479684613,118,117,116,120,124,24,5,3
71479684613,114,119,122,124,127,25,-10,-18
71479698796,4,-80,-103,-104,-100,14,-33,68
71479698796,-31,-126,-128,-128,-128,11,39,127
71479705678,-55,-128,-128,-128,-128,1,-3,125
71479705678,-44,-128,-128,-128,-128,2,5,94
71479722016,-104,-109,-111,-111,-107,14,-13,101
71479722016,-120,-106,-105,-104,-103,0,-22,39
71479723647,-94,-86,-66,-79,-128,-20,-5,-41
71479723647,-26,23,57,42,10,-18,2,-89
71479735689,-45,-30,-38,-45,-74,-39,-14,-107
71479735689,-104,-92,-77,-86,-109,-27,-19,-32
71479744763,-128,-128,-128,-128,-128,-32,-13,71
71479744763,-128,-128,-128,-128,-128,0,-18,96
71479758858,-103,-92,-86,-89,-96,6,-17,94
71479758858,-128,-128,-128,-128,-128,-11,-21,87
71479765694,-128,-128,-128,-128,-128,7,-15,108
71479765694,-128,-128,-128,-128,-128,-3,-11,88
71479781967,100,103,106,104,108,19,9,-16
71479781967,-103,-106,-108,-110,-114,2,-15,75
71479783620,-23,-54,-17,-22,-17,-14,3,-52
71479783620,46,-15,61,57,47,-17,16,-103
71479795676,26,-34,24,25,38,-6,9,-27
71479795676,60,26,85,86,85,-11,-2,-51
71479804580,38,9,71,78,66,-10,5,-40
71479804580,18,-43,15,21,33,-8,7,-28
71479818818,26,-17,29,26,31,-21,8,-76
71479818818,121,83,127,127,127,5,14,-81
71479825560,52,54,7,21,43,19,3,27
71479825560,16,59,-15,3,34,12,6,38
71479841916,-66,-6,-81,-81,-80,11,-31,93
71479841916,-99,-47,-113,-115,-122,1,-22,55
71479843516,-59,-53,-44,-50,-46,1,-8,17
71479843516,42,21,47,45,46,-8,11,-62
71479856217,1,23,-44,-34,-23,10,-7,59
71479856217,-128,-42,-128,-128,-128,-13,-31,57
71479863088,50,-15,51,46,55,-30,5,-28
71479863088,-128,-53,-128,-128,-128,-13,-28,35
71479870614,23,-39,24,39,29,30,4,20
71479870614,-6,-18,20,19,5,-16,16,-104
71479885595,-68,28,-86,-81,-77,19,-28,105
71479885595,84,19,88,94,88,29,13,9
71479893093,-17,-39,41,36,29,-20,11,-64
71479893093,-52,59,-78,-67,-61,25,-21,87
71479902067,21,23,-36,-11,1,15,0,28
71479902067,25,-11,-6,5,3,-5,4,-23
71479916272,-103,-33,-73,-76,-95,-40,-6,-19
71479916272,-21,-14,2,-6,-1,-5,-9,24
71479923027,-7,-40,-14,5,8,37,12,19
71479923027,85,-22,62,73,69,-8,24,-53
71479930579,1,-19,15,26,9,-56,-3,-48
71479930579,71,51,69,99,72,0,-24,31
71479945554,-128,-63,-128,-128,-128,-48,-46,81
71479945554,46,-11,26,32,33,17,13,-15
71479953067,120,109,122,118,127,31,56,-32
71479953067,-54,-9,-108,-90,-83,50,2,122
71479962082,-105,-90,-102,-97,-102,-37,2,53
71479962082,-43,-51,-28,-30,-38,-68,19,-51
71479976287,12,66,12,-2,-12,-10,5,-23
71479976287,118,80,91,94,93,50,23,-12
71479983063,-13,-53,-23,-22,-26,18,-14,26
71479983063,-102,-48,-50,-105,-128,-70,-22,-32
71479998763,61,67,46,53,57,8,5,-44
71479998763,69,51,52,63,79,63,5,-21
71480005548,-51,-53,-37,-49,-53,1,-2,-14
71480005548,-77,-18,-90,-77,-81,-1,-16,7
71480013057,44,55,17,29,49,41,-10,19
71480013057,-17,-62,-20,-30,-26,1,-12,28
71480022076,-35,-15,-7,-6,-22,-63,-6,-23
71480022076,106,127,93,101,99,68,3,-7
71480036352,-128,-128,-128,-128,-128,2,-45,127
71480036352,84,67,103,92,96,-27,33,-120
71480043137,-26,-24,-20,-23,-28,-52,6,-26
71480043137,42,59,-7,19,28,88,-10,98
71480058805,11,26,47,40,28,-55,10,-111
71480058805,-89,-98,-84,-79,-83,-28,-11,52
71480065690,114,111,79,83,110,69,7,23
71480065690,55,69,69,66,68,-35,8,-81
71480073222,-128,-128,-128,-128,-128,-32,-29,85
71480073222,-75,-97,-65,-71,-84,-32,-6,19
71480089694,116,106,117,117,123,67,20,-13
71480089694,21,39,10,13,24,4,-1,-1
71480096395,-30,-34,-29,-39,-58,-50,7,-65
71480096395,-98,-104,-84,-95,-104,-49,-8,9
71480103226,-112,-128,-128,-128,-128,-7,-19,94
71480103226,36,49,21,32,43,70,-4,76
71480118888,120,123,118,122,122,10,19,-89
71480118888,-1,-17,33,-9,-29,-66,5,-109
71480125671,-60,-43,-41,-49,-61,-19,-9,-14
71480125671,-128,-128,-128,-128,-128,-26,-31,125
71480133167,-95,-128,-128,-128,-128,13,-25,127
71480133167,46,38,-20,23,54,39,-2,110
71480142157,127,127,127,127,127,-4,28,-107
71480142157,5,66,54,52,47,-27,5,-91
71480164537,63,37,127,127,127,-82,3,-94
71480164537,-68,-76,-75,-68,-67,91,1,11
71480166127,109,-38,127,127,126,14,11,-67
71480166127,-4,-68,-27,-45,-118,-3,-8,33
71480178904,-81,-47,-92,-71,-102,21,-5,-14
71480178904,-69,45,-60,-63,-75,-8,-8,-27
71480185640,0,1,-44,13,5,40,6,21
71480185640,58,-10,64,50,77,7,0,-58
71480193098,-12,-4,69,-15,27,-34,-3,-75
71480193098,-38,-5,-25,-47,-43,-62,-6,40
71480202112,38,20,52,48,68,-1,-6,-5
71480202112,17,-25,41,-2,57,-31,1,-54
71480216298,-84,-5,-94,-83,-84,32,-4,80
71480216298,105,28,98,127,127,-5,16,-48
71480223064,43,25,66,52,34,-14,6,-87
71480223064,-103,5,-128,-116,-123,12,-7,94
71480238780,37,-27,96,51,53,-10,2,-63
71480238780,66,26,81,72,69,-35,2,-69
71480245590,93,51,108,106,89,-19,-1,-94
71480245590,51,20,77,66,56,-16,-3,-62
71480253047,43,53,30,49,56,44,-4,1
71480253047,106,60,116,115,100,0,17,-61
71480268091,29,25,44,27,30,-20,6,-84
71480268091,-3,-29,34,24,20,-26,7,-78
71480276732,-40,-32,-53,-36,-50,28,-23,86
71480276732,-36,-63,-49,-53,-42,-20,-39,42
71480284660,-128,-63,-128,-128,-128,-27,-15,127
71480284660,-128,-89,-128,-128,-128,-16,-37,127
71480299388,-67,-58,-125,-81,-87,-1,-41,127
71480299388,-57,-25,-62,-55,-44,4,-58,83
71480305657,-106,-23,-128,-128,-128,5,-32,102
71480305657,-84,-41,-95,-77,-86,18,-29,103
71480313161,-2,20,-43,8,17,31,-11,48
71480313161,57,61,58,46,56,4,30,-65
71480328187,66,76,71,58,57,1,40,-73
71480328187,14,-10,16,20,16,-5,47,-61
71480336263,65,47,89,75,80,6,49,-37
71480336263,-5,-26,-8,0,6,-11,39,18
71480343203,-9,-10,-36,-26,3,-6,25,19
71480343203,21,8,1,18,52,3,17,26
71480358855,-12,17,12,0,-7,4,6,-8
71480358855,35,21,85,67,44,2,20,-87
71480365663,-9,-7,-3,-1,5,0,11,6
71480365663,41,-11,59,56,62,-8,-3,-64
71480373197,-34,-38,-41,-39,-35,4,-3,44
71480373197,-21,-17,-3,-10,-28,-1,-7,14
71480388216,-68,-44,-23,-55,-75,-9,-18,-3
71480388216,76,14,95,77,66,-1,0,-85
71480396333,66,26,27,49,39,-1,-23,-34
71480396333,-60,16,-125,-109,-106,-3,-69,118
71480403181,-64,5,-57,-46,-75,3,-120,47
71480403181,-99,-3,-99,-94,-98,-4,-109,100
71480418823,78,7,67,58,76,-3,-12,-69
71480418823,-72,-21,-77,-93,-84,-16,-19,54
71480425645,122,16,96,113,118,2,-21,-102
71480425645,5,13,41,-86,-23,-1,35,-74
71480433182,-82,-5,-118,-127,-114,14,7,122
71480433182,103,2,127,71,121,2,57,-128
71480448132,-128,-24,-128,-128,-128,-1,7,127
71480448132,-90,2,-128,-94,-108,0,17,127
71480456327,61,3,99,79,90,1,99,-106
71480456327,113,11,125,127,127,1,120,-126
71480463097,-38,-9,-42,-23,-46,-4,102,30
71480463097,-86,-5,-85,-6,-86,-8,59,86
71480478808,-113,-10,-128,-91,-128,5,21,127
71480478808,-57,5,-128,-16,-116,10,-20,127
71480485607,95,6,127,107,127,-7,42,-128
71480485607,-118,-12,-128,-121,-123,3,-3,127
71480493180,70,11,56,87,67,-9,-19,-57
71480493180,-78,-16,-76,-80,-96,-6,-17,78
71480508078,-67,1,-122,-26,-124,6,-34,122
71480508078,50,8,-70,10,-56,10,23,69
71480516823,48,-1,72,58,62,-5,-23,-81
71480516823,-78,-11,-89,-80,-85,-1,-16,87
71480524659,83,15,98,84,103,-3,8,-98
71480524659,-64,3,-78,-54,-64,-6,-28,87
71480538806,-27,-3,-83,-25,-78,3,-34,56
71480538806,48,3,109,92,108,-4,-15,-113
71480545670,-66,-2,-128,-85,-128,15,-13,127
71480545670,55,4,54,71,59,5,0,-96
71480553177,-124,-26,-117,-128,-128,-9,2,100
71480553177,57,12,44,79,65,7,32,-30
71480568180,-91,-2,-74,-83,-72,-3,-20,82
71480568180,47,2,127,58,127,-8,13,-128
71480576415,-85,-11,-85,-124,-128,-14,-29,24
71480576415,-15,8,100,69,99,-7,-4,-109
71480583129,-2,6,-2,35,-6,-6,34,-10
71480583129,31,-8,80,48,41,-20,-24,-70
71480599334,22,3,27,64,48,1,28,-20
71480599334,26,3,-10,16,15,2,21,-1
71480605658,51,6,93,68,105,12,19,-105
71480605658,60,13,52,79,71,3,-10,-54
71480613116,68,8,127,99,123,5,-14,-94
71480613116,34,-6,41,22,36,-3,-23,-46
71480628175,7,-4,79,41,82,-10,35,-87
71480628175,60,1,67,52,64,-5,-2,-70
71480636431,37,-3,50,52,59,-11,5,-32
71480636431,-47,-18,-63,-73,-94,-10,-25,47
71480643182,-43,-12,8,-36,-20,0,-47,5
71480643182,-11,-7,28,-13,4,-1,46,-23
71480658858,-36,-14,-40,-69,-55,-7,40,1
71480658858,-90,-15,-81,-79,-88,-6,-38,68
71480665691,-52,-3,-81,-60,-81,1,-39,58
71480665691,54,1,68,98,84,2,0,-12
71480673158,-87,-12,-75,-72,-87,2,11,-2
71480673158,17,14,3,40,11,7,-14,18
71480688180,16,-1,17,24,24,-4,-19,-15
71480688180,-67,-7,-74,-52,-58,6,-23,80
71480696289,10,12,-46,2,-8,10,-30,60
71480696289,-36,-11,-38,-42,-34,-9,-28,-35
71480703115,15,11,-71,-40,-72,-3,94,71
71480703115,81,23,69,97,80,4,-43,-91
71480718768,14,13,63,42,28,3,-22,4
71480718768,-52,1,-119,-82,-91,8,-11,108
71480725586,-11,3,-40,-38,-38,7,-65,33
71480725586,-37,0,-128,-89,-118,10,-1,102
71480733155,21,2,-36,-4,-14,-6,-35,0
71480733155,9,6,27,18,21,4,24,8
71480748063,70,9,59,67,65,-3,9,-69
71480748063,-20,3,-43,-59,-65,-5,35,26
71480756289,22,4,34,24,29,11,-4,-19
71480756289,-4,-12,-43,-33,-39,-14,27,42
71480763083,18,3,8,15,29,-5,11,7
71480763083,-3,-2,62,46,70,3,8,-37
71480778949,-23,6,20,-2,11,-4,0,1
71480778949,32,9,61,32,41,5,1,-70
71480785643,2,2,-32,14,-7,-1,-42,17
71480785643,-31,-3,22,-1,6,-1,-88,11
71480793115,-73,-30,-109,-107,-110,4,101,123
71480793115,82,16,15,61,40,12,51,-15
71480808198,-106,-25,-90,-96,-91,1,-16,100
71480808198,13,-3,-32,-28,-38,-1,-3,-13
71480816359,-4,2,2,-11,-14,6,-78,18
71480816359,41,17,33,22,21,4,-93,-10
71480823158,21,-12,86,44,19,1,118,-25
71480823158,-1,-55,33,13,6,-10,31,-45
71480838241,-43,-28,-37,-44,-54,-3,-5,17
71480838241,-7,5,-23,-35,-36,-5,-33,-7
71480847180,3,37,46,28,35,5,-121,-16
71480847180,-53,13,-113,-86,-83,-5,-37,118
71480861392,43,6,29,49,43,-5,86,-7
71480861392,-19,0,-52,-56,-57,-9,74,12
71480868167,41,13,63,57,64,-1,-13,-88
71480868167,3,34,-63,-13,-27,8,3,42
71480884532,13,1,-19,4,-22,-6,-78,-44
71480884532,3,37,15,47,49,5,-8,37
71480886080,23,52,18,19,20,-4,12,-53
71480886080,-35,-34,-32,-30,-35,-9,0,14
71480898187,-28,-40,-49,-48,-41,-4,9,77
71480898187,30,19,26,17,11,7,34,11
71480907199,34,6,6,7,10,18,-35,22
71480907199,67,71,81,77,76,7,13,-35
71480921393,106,120,127,127,127,9,-5,-123
71480921393,29,71,92,86,81,-1,-4,-62
71480928141,-43,-59,-53,-53,-37,-31,-2,4
71480928141,-47,-73,-71,-68,-72,-4,27,87
71480944516,-1,-13,-30,-27,5,9,-1,67
71480944516,22,5,3,-1,-3,5,-26,8
71480946094,77,86,75,73,63,6,7,-27
71480946094,48,72,75,74,62,-3,11,-73
71480958078,-43,-29,-11,-9,-14,-19,-24,-10
71480958078,-92,-103,-111,-91,-126,-9,-3,53
71480967098,-78,-105,-112,-109,-114,4,3,97
71480967098,-23,-35,-25,-43,-34,11,9,61
71480981283,35,28,29,29,26,20,-15,25
71480981283,45,30,38,35,45,18,-6,23
71480988063,55,56,38,41,45,5,36,-41
71480988063,43,64,64,67,59,-9,-20,-87
71481004545,34,61,57,56,57,-14,-39,-93
71481004545,-7,26,63,43,26,-5,14,-66
71481006152,-72,-46,-41,-43,-44,-17,-6,-8
71481006152,-73,-55,-54,-51,-51,-17,-6,-30
71481018213,-91,-76,-79,-74,-80,-27,-5,-23
71481018213,-7,11,20,18,27,-8,20,-41
71481051628,-18,-40,-40,-41,-56,-17,-8,-34
71481051628,-36,-45,-53,-49,-47,-18,-9,-2
71481052387,-73,-79,-80,-74,-78,-8,65,70
71481052387,-114,-124,-128,-128,-120,-6,-29,79
71481055651,-54,-73,-79,-78,-69,3,7,72
71481055651,41,43,32,39,40,22,31,40
71481072034,107,103,102,107,102,14,-10,-68
71481072034,17,4,34,32,7,-7,-17,-33
71481073588,-24,-42,-16,-14,-28,-1,-6,35
71481073588,-24,-34,-16,-35,-55,-15,-93,-75
71481078184,-65,-64,-57,-60,-64,-8,-4,46
71481078184,-41,-35,1,-6,-27,-9,101,66
71481087242,93,111,124,116,113,5,23,-81
71481087242,83,64,70,68,64,7,-7,-49
71481101388,-1,-4,32,15,7,-8,-66,-50
71481101388,-35,-33,-21,-36,-32,-10,-47,7
71481108146,-58,-52,-68,-64,-51,-1,7,51
71481108146,-38,-54,-76,-73,-67,3,34,100
71481132061,69,54,39,43,47,19,-12,9
71481132061,81,75,57,62,78,10,-6,-33
71481133600,63,80,73,74,76,-1,4,-60
71481133600,-2,0,9,0,-8,-5,1,-33
71481138165,-77,-85,-53,-58,-73,-6,9,52
71481138165,-76,-88,-77,-84,-87,-7,1,37
71481154651,-70,-97,-99,-102,-99,6,-9,102
71481154651,-20,-27,-78,-65,-35,9,-9,93
71481161371,64,67,33,36,43,19,24,20
71481161371,92,90,71,74,86,1,-22,-59
71481168211,46,55,75,67,65,-4,1,-85
71481168211,-47,-34,-24,-19,-31,-4,14,41
71481191948,-32,-39,-63,-61,-64,7,14,68
71481191948,19,23,15,14,21,12,-22,-9
71481193546,-28,-43,-47,-46,-76,-17,-11,2
71481193546,-43,-49,-48,-45,-48,5,15,46
71481198090,39,40,18,21,29,-6,-1,-45
71481198090,-29,-29,-35,-31,-32,-5,-9,5
71481207085,26,39,36,36,41,21,-11,20
71481207085,-5,-27,-28,-28,-26,-8,6,-31
71481221279,8,25,28,24,35,6,-7,13
71481221279,5,-4,14,6,-5,1,-10,-46
71481228118,20,25,29,42,46,9,4,21
71481228118,8,13,9,14,13,0,-12,36
71481251048,-3,1,-16,-14,-10,-5,-14,4
71481251048,-23,-27,-77,-74,-71,0,-2,60
71481258832,-1,-2,-35,-48,-58,-6,1,-20
71481258832,39,48,34,33,30,5,-63,-28
71481266346,-17,-24,-73,-47,-39,0,-20,51
71481266346,-1,-2,-26,-33,-39,-1,-9,12
71481267110,-10,-20,-23,-16,-1,-6,9,15
71481267110,17,17,26,21,58,1,12,-1
71481282176,5,0,12,6,-5,-7,13,-19
71481282176,0,-4,0,4,13,-7,-8,19
71481288163,8,-1,-7,-10,-5,-8,4,6
71481288163,26,-1,3,2,-8,-9,28,-14
71481303165,-8,-4,47,44,39,1,11,-4
71481303165,-4,0,-19,-16,-21,7,3,13
71481310744,2,-47,28,15,-4,2,-6,-23
71481310744,-7,10,33,37,35,11,0,5
71481326354,-33,-11,-50,-42,-43,-1,-5,30
71481326354,29,1,20,22,18,0,3,-22
71481327093,-37,10,-11,-18,-11,5,-3,18
71481327093,-9,-2,36,37,43,-6,-3,-6
71481342180,-77,-20,-74,-80,-81,-6,20,75
71481342180,-60,-6,-68,-63,-56,-6,0,72
71481348213,3,3,32,34,34,-4,10,-13
71481348213,-4,8,-25,-10,-13,9,8,29
71481371334,16,7,60,50,44,7,6,-45
71481371334,-6,-1,-48,-47,-45,6,0,44
71481372132,7,5,43,42,36,2,-10,-30
71481372132,-28,-2,-17,-21,-44,-5,2,21
71481401991,52,8,22,24,21,-1,-3,-52
71481401991,-34,-16,-22,-21,-22,-2,-11,28
71481410211,-32,1,-5,-10,-24,4,-56,16
71481410211,29,14,40,30,15,-5,102,-38
71481411870,-83,-16,-97,-100,-100,0,2,90
71481411870,31,14,65,48,44,4,-30,-54
71481412616,-7,-1,-67,-70,-82,-2,20,54
71481412616,55,-10,50,53,68,0,-56,-69
71481431283,14,-23,57,54,78,0,5,-20
71481431283,-6,-42,31,49,72,2,7,9
71481432047,6,-6,17,13,21,1,-24,17
71481432047,-11,12,19,26,18,5,-7,17
71481446292,29,5,30,30,31,1,3,-18
71481446292,9,7,25,24,23,6,32,-21
71481447095,18,20,11,15,21,4,21,-43
71481447095,-9,4,-39,-17,-14,1,-1,47
71481462114,3,6,-38,-29,-64,-5,-27,-4
71481462114,-8,0,-29,-16,-27,-8,-19,34
71481468081,26,30,-26,-4,16,-4,22,-8
71481468081,-10,12,-12,-19,-18,-12,-9,-1
71481483281,17,15,28,20,10,-1,-14,28
71481483281,-9,-4,1,-15,-9,3,8,24
71481490736,6,-6,-22,-33,-50,-8,10,6
71481490736,21,22,32,32,44,-6,-17,-18
71481506441,22,5,-11,-14,-7,-1,8,-2
71481506441,8,10,-22,-21,-20,-8,11,4
71481507121,1,-8,-1,-2,1,3,-10,4
71481507121,15,12,3,-1,-12,3,5,-5
71481522161,1,5,12,10,14,-5,7,-18
71481522161,9,18,6,7,7,6,3,-1
71481528189,4,3,4,-2,-27,-3,-9,-23
71481528189,5,-2,-7,-16,-22,4,-1,-6
71481543207,5,4,12,3,2,5,-5,-5
71481543207,1,0,12,9,4,-3,2,-13
71481550744,-31,-18,-22,-23,6,-11,-5,30
71481550744,-19,-11,-23,-33,-20,-7,-5,-1
71481566391,2,10,13,6,-75,-2,-7,7
71481566391,-12,-7,21,5,17,-7,-4,-1
71481567179,-14,-7,10,7,5,2,1,9
71481567179,-25,-27,-19,-16,12,-7,-5,23
71481582151,3,-13,3,7,39,-3,6,-2
71481582151,-12,-16,-7,-9,-15,4,7,4
71481588182,-1,-5,-4,0,10,-3,3,8
71481588182,21,0,36,33,11,5,-5,-11
71481603254,-7,-9,5,5,14,1,7,-14
71481603254,-2,-4,17,17,3,9,11,5
71481610721,12,6,9,30,15,-3,3,-3
71481610721,16,1,-11,8,-5,1,4,-40
71481626388,-9,-3,2,5,9,-4,0,-3
71481626388,-5,-1,1,-3,40,-9,-17,-8
71481627085,-7,-10,2,-3,-8,0,-22,7
71481627085,5,2,28,4,-12,4,-16,-22
71481642113,-2,-9,1,6,25,5,0,5
71481642113,3,-1,5,9,-17,1,-9,-3
71481648210,12,-2,19,10,4,5,3,-10
71481648210,11,7,-3,-5,-8,-5,8,8
71481663122,-16,-4,22,-2,11,4,-19,-6
71481663122,-2,0,5,2,-9,0,43,5
71481670592,7,1,4,-15,-7,0,31,-1
71481670592,-12,-10,8,3,11,1,6,12
71481686240,-1,-2,1,1,-2,-3,13,4
71481686240,-5,-5,-12,-6,-11,-6,-25,8
71481687069,-15,-3,5,7,9,-1,8,6
71481687069,-11,-8,-18,-27,-31,1,29,13
71481702117,8,-7,-4,-1,-1,-4,-5,0
71481702117,4,0,-6,-6,-8,0,4,0
71481708076,7,5,4,4,7,-1,-15,-5
71481708076,9,5,6,3,1,3,-29,5
71481723136,-8,2,-5,-1,0,-1,-8,2
71481723136,5,-4,0,2,4,-2,-56,-5
71481730792,-11,6,-10,-9,-8,-2,-25,10
71481730792,-11,9,-2,0,-2,1,-12,5
71481746366,5,2,-7,-3,1,4,12,-2
71481746366,-1,7,-2,-3,-6,-5,7,2
71481747072,-2,-2,-7,-6,-4,0,-2,1
71481747072,-12,-9,1,0,-1,-1,5,23
71481762165,-10,-10,7,6,6,2,4,34
71481762165,-18,-9,-31,-24,-28,-1,1,27
71481768193,-11,-14,-13,-17,-25,-5,-5,5
71481768193,-2,-1,-1,-11,-16,-3,-4,-1
71481783144,11,6,-2,-3,-6,-2,5,-3
71481783144,13,1,4,4,4,0,9,2
71481790716,10,8,-7,-3,-2,0,7,7
71481790716,-13,4,-1,1,-1,-1,-32,-2
71481806360,-1,-3,-1,0,0,0,15,-3
71481806360,15,2,1,-2,-3,1,51,0
71481807180,1,-1,0,1,5,-1,8,0
71481807180,9,6,4,5,4,-3,-11,3
71481822189,1,2,-3,-1,0,-2,-36,0
71481822189,-5,13,3,4,4,1,12,-2
71481828141,1,-4,-1,-1,0,3,31,4
71481828141,-7,7,-1,1,2,4,-43,2
71481843242,20,9,-10,2,12,-2,15,-7
71481843242,22,-1,2,1,0,-2,86,-11
71481850751,-7,-6,-20,3,13,-3,-42,-21
71481850751,8,-5,-3,-2,3,0,5,-1
71481866345,-9,-11,6,-36,-41,-2,47,17
71481866345,-13,-6,-4,-4,-7,2,-63,8
71481867132,-1,-8,-8,-11,-8,-1,16,7
71481867132,-5,-7,48,46,22,3,-36,4
71481882136,10,19,9,14,11,-2,-38,-7
71481882136,-7,-7,5,-8,-6,1,-14,2
71481888239,-44,-1,-43,-51,-70,7,-32,61
71481888239,0,7,-23,-14,-5,10,21,-6
71481903197,-7,4,7,0,-4,4,42,-20
71481903197,1,10,23,43,51,-53,0,-7
71481910729,12,22,-6,8,-2,-34,18,-15
71481910729,-2,2,-1,0,0,0,14,8
71481926296,-14,9,-14,1,2,72,-18,6
71481926296,-15,1,-30,-59,-36,-24,-30,30
71481927041,33,18,39,49,45,3,-11,-66
71481927041,13,14,-8,-19,-7,7,12,-3
71481942098,1,-7,-6,24,23,-31,-30,-22
71481942098,-30,-26,-13,-12,4,16,-27,32
71481948091,0,-4,-10,-41,-35,10,-5,41
71481948091,25,11,-10,-9,-14,-6,26,-27
71481964699,6,-18,6,-9,-1,-16,-25,12
71481964699,-6,0,17,33,14,14,-8,-18
71481970744,5,-1,17,-10,22,0,2,-16
71481970744,2,-3,-28,-42,-30,-50,0,-6
71481986307,-19,-27,-5,-19,-5,-1,0,40
71481986307,-20,-22,4,4,0,22,0,19
71481987082,-18,-30,7,3,10,-5,4,29
71481987082,-20,-27,13,8,16,-16,2,34
71482002188,-9,-3,-27,-34,-19,41,2,14
71482002188,-6,2,12,-7,4,-23,10,-4
71482008212,-3,-4,-3,0,4,-10,-10,5
71482008212,3,-13,-20,-15,-12,33,8,-36
71482023184,-15,-11,11,12,9,-45,6,0
71482023184,-26,-22,-12,-15,-9,-30,-19,39
71482030690,-7,-4,8,4,7,40,-26,1
71482030690,-2,-7,14,32,26,8,47,-22
71482046306,-2,6,-4,1,-5,-17,-8,-18
71482046306,13,1,-16,-15,-14,21,-5,-20
71482047102,-9,-11,-1,5,5,-9,-14,12
71482047102,-5,-12,16,14,17,-3,60,27
71482062176,-4,-10,0,5,1,-6,7,-3
71482062176,17,5,17,21,9,5,-65,-32
71482068155,-8,-9,4,4,5,0,-21,5
71482068155,-12,-4,2,-9,9,0,-16,16
71482083172,2,7,0,0,-10,8,9,-10
71482083172,-12,6,-8,-8,-11,5,16,11
71482090684,3,5,-39,-30,-29,-2,-22,-12
71482090684,-4,-3,3,4,2,-5,-13,2
71482106343,3,2,-7,-2,-2,-5,38,11
71482106343,0,-8,-9,-10,-12,10,49,7
71482107170,-7,-3,-30,-10,-26,-2,47,41
71482107170,15,3,18,45,51,3,2,-39
71482122116,-16,-19,-8,-3,-4,-9,-6,2
71482122116,-6,-11,-2,2,0,12,1,-1
71482128155,-7,-2,31,29,27,1,9,-7
71482128155,-22,-8,-6,-12,-15,-6,-12,14
71482143256,4,6,2,11,12,5,-28,-7
71482143256,1,-3,-3,-4,-5,13,-15,-7
71482150630,-4,-11,8,6,9,-3,5,-20
71482150630,-7,0,1,2,-3,11,-29,23
71482165683,-6,-7,6,4,3,-4,-7,-5
71482165683,-21,-7,-15,-14,-17,-12,-2,14
71482173143,-4,-3,-2,-5,-2,0,4,-1
71482173143,-11,3,-12,-17,-23,3,-8,15
71482182105,-20,-6,3,1,-2,-14,-8,40
71482182105,-12,10,-6,-4,-4,-1,-12,17
71482188152,-21,-7,6,3,9,17,-6,-6
71482188152,-1,2,20,13,-1,-26,-15,-1
71482203100,4,2,-3,0,4,12,-7,-9
71482203100,2,0,-2,0,0,10,-12,0
71482210720,-1,-4,-5,-11,1,6,-20,36
71482210720,-3,-1,-26,-10,-11,5,-19,25
71482225613,-10,-1,-2,-3,-5,11,-10,23
71482225613,4,4,14,13,19,-30,-4,-16
71482233128,-11,2,7,6,7,7,15,8
71482233128,3,2,4,2,2,-12,5,5
71482248796,9,0,-48,4,-5,-17,22,-11
71482248796,15,3,-17,29,23,4,32,-53
71482249583,8,1,9,13,5,-18,24,-18
71482249583,3,1,-4,-5,-2,10,-3,-10
71482263263,5,2,13,9,13,6,-13,-10
71482263263,4,-5,10,-3,-22,4,-34,-1
71482270736,-9,-2,-5,1,-1,3,-94,9
71482270736,-6,2,8,6,7,6,-104,-5
71482285717,-4,0,42,17,40,-7,-118,-8
71482285717,-2,-4,37,31,30,1,-128,-21
71482293245,-10,-7,49,44,49,0,-68,-22
71482293245,-19,5,7,4,0,17,-30,-12
71482308963,-19,6,14,13,6,-4,-27,-2
71482308963,-8,3,0,-4,3,4,68,5
71482309708,4,1,-23,-23,-33,-4,75,-1
71482309708,1,-3,-26,-28,-25,-7,84,6
71482323189,-11,-10,-1,-10,-5,6,127,21
71482323189,-3,-1,-18,-23,-19,-1,121,17
71482330707,-7,-2,18,5,4,-6,120,26
71482330707,12,9,-7,-6,-5,-1,127,47
71482345686,-7,2,6,-8,-1,-1,100,25
71482345686,-7,-1,24,16,10,0,66,61
71482353151,-13,-8,-16,-16,2,-7,51,29
71482353151,-8,-7,-20,-17,-8,-10,18,30
71482368862,9,-3,-35,-39,-54,-11,6,2
71482368862,-28,1,0,-10,-6,-70,9,6
71482369675,57,36,41,42,50,58,11,-67
71482369675,-15,4,8,4,-1,7,-30,-4
71482383219,2,2,-23,-21,3,23,-12,-16
71482383219,17,-4,-26,-31,-42,70,-28,-35
71482390725,-8,-9,-44,-45,-42,-55,-26,-14
71482390725,10,9,15,1,-7,27,-30,-29
71482405736,-8,-12,45,39,38,-32,-42,-30
71482405736,-24,-16,19,-3,13,17,-47,1
71482413209,-23,-7,-17,-20,-19,-30,-40,22
71482413209,-11,-14,22,25,22,21,-25,-16
71482428779,-3,-11,29,26,18,-22,-15,-18
71482428779,2,-7,-22,-17,-14,19,-13,4
71482429604,-12,-10,-6,4,-8,-13,-9,8
71482429604,-3,-6,-2,5,-8,10,20,3
71482443240,-8,-16,-54,-52,-48,-18,19,-15
71482443240,-24,-3,-40,-19,-7,-27,-9,-5
71482450716,4,0,-26,-26,-39,11,16,-10
71482450716,-25,-7,-35,-32,-36,-8,30,47
71482465656,2,-4,-46,-45,-54,12,61,-29
71482465656,42,9,32,30,22,33,98,-49
71482473149,-57,-29,-47,-42,-39,-18,50,-32
71482473149,-9,-15,-30,-30,-19,-18,-4,42
71482488890,6,-12,-29,-24,-35,-7,-10,40
71482488890,20,17,54,47,73,-8,-14,86
71482489614,10,-7,-38,-40,-25,-1,-27,28
71482489614,3,2,-54,-58,-52,2,-28,-30
71482503182,-5,2,58,57,61,8,-48,-58
71482503182,-12,-2,-19,-8,-15,5,-54,15
71482510759,-8,-7,-23,-24,-22,9,-51,58
71482510759,11,11,68,70,76,-17,-26,-62
71482525829,-5,5,7,7,-7,-9,-39,47
71482525829,0,20,15,3,-4,0,-50,97
71482533285,2,-3,-10,-7,-16,6,-10,59
71482533285,-10,15,7,7,45,-6,30,110
71482548866,2,-9,-50,-34,-49,1,-25,81
71482548866,-8,-3,-24,-18,-19,-12,4,16
71482549636,9,-4,-22,-4,-15,-12,-12,69
71482549636,2,-7,2,2,-2,-9,-9,40
71482563206,0,-14,117,111,115,9,63,-85
71482563206,-17,-53,-95,-76,-76,-16,24,-86
71482570682,8,10,37,38,36,14,111,-72
71482570682,-16,-20,-50,-46,-22,-10,125,8
71482585670,7,33,46,59,69,5,112,66
71482585670,-14,9,35,33,28,-6,93,6
71482593241,7,9,23,8,-23,-3,9,-22
71482593241,7,-21,-102,-91,-107,-13,-57,-102
71482608862,-3,18,4,-10,-1,2,-89,2
71482608862,38,6,6,-23,-15,-12,-68,56
71482609679,17,-28,-80,-18,-36,-6,-72,-77
71482609679,33,19,32,-14,-9,-4,-62,-68
71482623242,21,-6,-3,17,6,-1,-66,-101
71482623242,5,-20,-69,-57,-60,-5,-104,-121
71482630703,2,8,99,108,114,6,-117,-68
71482630703,-11,28,127,119,126,10,-118,-118
71482645782,-25,-36,-105,-90,-95,-4,-50,-104
71482645782,-19,-1,35,70,58,0,-30,-59
71482653232,-14,-10,-26,-37,-39,-2,-34,-29
71482653232,-14,-2,-21,-48,-36,0,-43,18
71482668871,-4,28,40,25,28,8,-27,20
71482668871,-7,8,37,62,54,-2,-26,-9
71482669617,-8,-24,-71,-88,-75,-5,-15,69
71482669617,-1,-37,-65,-44,-56,-5,19,81
71482683218,0,-16,-62,-70,-62,-1,-17,30
71482683218,1,-21,-125,-128,-128,-2,-8,-13
71482690751,-8,-6,-51,-87,-62,3,-63,-5
71482690751,-16,-7,-56,-55,-55,2,-24,54
71482705710,-14,3,-49,-57,-53,-1,-43,5
71482705710,-13,11,-37,-59,-69,9,-11,108
71482713263,-11,8,74,79,83,5,65,59
71482713263,1,18,90,106,82,-2,36,-19
71482728891,13,25,103,101,94,1,21,36
71482728891,6,6,76,90,86,-12,29,-32
71482729688,11,-5,53,67,61,-12,53,-98
71482729688,12,11,88,87,87,-10,33,-101
71482743248,14,-29,-106,-115,-104,-7,50,-6
71482743248,9,-30,-62,-81,-74,0,23,-46
71482758613,10,-18,-8,-3,-7,2,30,-39
71482758613,13,-31,-29,-2,-20,-6,43,-94
71482783568,5,-20,-28,-33,-36,-4,42,28
71482783568,0,21,96,89,97,-4,16,-59
71482784311,-9,44,49,24,37,6,-9,21
71482784311,-6,-22,-128,-128,-128,-2,-19,35
71482788755,-9,-51,-53,-42,-45,-9,13,-110
71482788755,-13,17,88,99,88,-4,7,-93
71482789616,0,42,114,102,117,3,6,-71
71482789616,-2,34,38,11,27,5,0,36
71482803114,-19,12,-44,-65,-51,3,-96,99
71482803114,-5,-26,-84,-95,-95,-1,-114,113
71482810662,-9,-22,-95,-101,-114,-1,85,92
71482810662,-7,10,7,-5,5,4,99,93
71482825691,5,39,45,12,22,11,127,47
71482825691,0,22,-23,-41,-6,3,62,85
71482833142,2,-2,-90,-99,-90,-2,-69,60
71482833142,0,-41,-102,-100,-102,-6,-45,-14
71482848835,1,-23,-17,10,-4,-5,-21,-25
71482848835,1,28,52,22,52,10,14,97
71482849736,21,-10,-96,-103,-96,-6,-6,118
71482849736,2,11,103,95,101,-2,9,-67
71482863112,16,43,127,127,127,2,-31,-114
71482863112,9,-14,96,115,96,-4,11,-128
71482870620,-6,-4,-67,-97,-85,1,-33,25
71482870620,-12,-42,-15,2,-30,-2,-60,-44
71482885715,-11,22,59,43,52,6,-38,-22
71482885715,-9,-19,-84,-79,-87,-2,-24,-56
71482893182,-16,-3,86,108,93,-5,-1,-106
71482893182,-2,18,47,2,11,-1,-26,60
71482908899,8,-16,-64,-70,-66,0,-7,38
71482908899,7,11,35,50,38,-1,13,45
71482909655,5,22,75,46,57,6,-6,28
71482909655,-3,-26,-128,-128,-128,3,-2,30
71482923196,-15,7,80,103,94,-2,16,-101
71482923196,-15,-13,-71,-82,-80,-1,-15,-38
71482930739,-12,1,-44,-89,-80,2,-104,-32
71482930739,-7,-14,-16,3,-2,-3,-55,-11
71482945820,0,-18,-120,-128,-128,-3,-15,93
71482945820,5,-37,-103,-65,-78,-9,12,1
71482953243,0,2,86,127,119,-6,37,-27
71482953243,8,23,59,69,67,1,14,34
71482968816,2,18,59,29,35,-1,-26,29
71482968816,2,-4,-64,-110,-102,3,19,77
71482969614,5,-54,-122,-91,-108,-7,24,-13
71482969614,2,-12,32,84,73,-9,21,-53
71482983182,-2,16,89,117,108,1,28,5
71482983182,2,47,127,108,127,13,-13,25
71482990738,5,-6,-53,-70,-71,-3,-12,64
71482990738,-1,-1,39,74,65,-8,29,-41
71483005650,-8,7,-20,-52,-32,3,-8,35
71483005650,-3,-37,-97,-75,-90,-9,26,-15
71483013129,-6,31,127,127,127,2,21,-35
71483013129,-4,-19,-81,-102,-95,-4,4,44
71483028813,-3,-12,9,56,45,-4,10,-11
71483028813,-1,15,48,15,31,0,-6,7
71483029592,-3,-27,-71,-55,-61,-3,26,1
71483029592,1,17,88,109,101,-2,20,-28
71483043251,-1,-6,-62,-70,-67,5,-8,36
71483043251,-1,-11,-4,41,25,-6,-4,-19
71483050793,2,36,105,88,106,5,5,-5
71483050793,1,-29,-71,-90,-88,1,-17,38
71483065736,3,6,16,21,13,-3,-21,25
71483065736,-2,-7,-28,-22,-30,-1,5,17
71483073239,-5,-34,-48,-31,-44,-1,12,20
71483073239,-2,38,90,104,110,4,-4,-28
71483088857,1,-3,-43,-85,-77,1,-14,46
71483088857,1,-48,-81,-27,-49,-7,-13,-34
71483089558,1,57,127,127,127,3,31,-36
71483089558,-5,-31,-113,-128,-128,2,-27,43
71483103213,-9,-69,-81,-7,-38,-12,-11,-60
71483103213,1,64,127,127,127,3,11,-42
71483110710,1,-6,-74,-116,-102,4,-18,32
71483110710,0,-53,-75,-46,-58,-4,15,-24
71483133868,3,12,49,86,83,0,22,-59
71483133868,-7,37,66,31,49,-1,6,-13
71483134664,-1,-32,-78,-88,-78,-1,-5,3
71483134664,1,-44,-79,-58,-42,-12,12,-25
71483149779,-3,32,79,114,108,-1,-8,-37
71483149779,3,31,42,-4,24,0,-3,28
71483156428,1,-25,-37,-66,-74,-3,-14,21
71483156428,-3,-26,-42,-58,-57,2,-5,23
71483163207,-2,-57,-109,-84,-95,-4,20,-10
71483163207,0,-1,15,75,65,1,14,-37
71483170751,1,73,112,110,118,-3,-2,-18
71483170751,3,35,42,-9,-7,6,-21,26
71483185671,1,-49,-102,-128,-128,-8,-14,41
71483185671,-3,-107,-128,-119,-128,-10,9,5
71483193134,-4,-73,-58,-1,-10,-14,6,-42
71483193134,0,-9,7,53,38,-7,-3,-22
71483208138,-3,21,38,77,64,-8,0,-36
71483208138,0,60,67,32,48,1,9,6
71483216351,0,7,-5,-48,-39,4,-6,22
71483216351,-2,-40,-29,-64,-68,-16,-1,26
71483231319,0,-63,-83,-111,-103,4,-8,16
71483231319,-2,-67,-83,-33,-49,-3,7,-31
71483232099,0,78,94,127,127,2,5,-50
71483232099,2,98,127,74,103,16,12,11
71483245638,2,-23,-9,-83,-72,4,3,51
71483245638,2,-96,-111,-113,-118,-2,-8,12
71483253150,-1,-66,-76,-15,-38,-5,1,-35
71483253150,0,82,97,127,127,4,-4,-41
71483268170,0,33,32,-17,0,-2,-13,23
71483268170,-9,-74,-78,-101,-105,2,-15,30
71483276967,0,-85,-98,-57,-76,-8,22,-13
71483276967,1,31,32,89,75,-4,26,-52
71483291355,1,106,115,110,120,5,-5,-14
71483291355,3,18,28,-39,-17,-1,-40,30
71483292085,-2,-94,-93,-128,-121,0,-67,30
71483292085,-3,-64,-80,-40,-55,-7,-36,-13
71483305876,-1,87,91,127,114,-7,16,-38
71483305876,-5,55,52,11,24,5,-38,24
71483321409,2,-51,-68,-107,-88,4,-34,32
71483321409,-2,-62,-66,-25,-53,-1,-27,-19
71483337142,0,58,61,93,83,1,33,-50
71483337142,-2,69,74,45,55,-1,34,4
71483337888,-5,-54,-46,-78,-65,-4,40,23
71483337888,-2,-41,-50,-32,-41,-4,9,-16
71483351366,10,43,57,65,69,-8,-65,-1
71483351366,11,-45,-58,-72,-65,0,-62,32
71483352157,6,-35,-31,-11,-23,2,-7,-18
71483352157,10,41,70,81,82,3,7,-35
71483365647,1,8,4,-35,-26,6,39,47
71483365647,3,-35,-42,-50,-57,7,62,78
71483373186,-8,-33,-43,-19,-29,2,102,-38
71483373186,-10,31,48,53,55,1,88,-61
71483388253,-7,32,39,34,34,3,37,-37
71483388253,-6,-59,-72,-50,-60,-2,9,-11
71483396505,3,64,83,119,92,2,42,-51
71483396505,-5,65,66,13,27,7,-30,52
71483419578,-3,-128,-128,-128,-128,-3,-17,8
71483419578,1,48,67,127,105,-9,12,-102
71483420324,8,127,127,97,121,1,24,28
71483420324,2,-126,-128,-128,-128,-6,0,25
71483425631,-6,29,44,84,64,-6,16,-39
71483425631,1,-11,-31,-38,-24,5,4,18
71483433266,-1,-43,-47,-21,-36,-4,-30,-19
71483433266,-4,63,68,21,55,5,-10,31
71483448220,-5,-107,-125,-121,-117,-8,5,19
71483448220,-2,67,69,89,88,-4,-36,-55
71483456371,-3,-21,-21,-45,-24,-3,-46,35
71483456371,1,-14,-9,4,0,-6,-106,3
71483471427,2,1,1,-28,-16,-1,-92,29
71483471427,-3,-43,-47,-35,-36,0,-46,-12
71483472153,-4,65,66,55,60,-1,-64,7
71483472153,-1,-67,-66,-65,-58,-3,2,8
71483485720,-4,60,56,42,51,4,-8,-2
71483485720,-2,-104,-101,-79,-95,-5,4,-6
71483493139,-1,125,124,127,127,0,13,-48
71483493139,-1,-125,-128,-128,-128,0,35,45
71483508156,1,8,12,80,48,-8,44,-72
71483508156,1,-21,-38,-106,-67,-3,44,56
71483516480,-3,-64,-71,-21,-44,-11,55,-43
71483516480,2,115,113,76,87,10,19,37
71483531314,-3,-128,-128,-128,-128,-2,5,20
71483531314,4,127,127,127,127,4,17,-27
71483532136,-1,-128,-128,-128,-128,1,-7,47
71483532136,-3,120,127,127,127,1,10,-32
71483545747,5,-118,-123,-128,-128,0,19,28
71483545747,-4,91,103,109,108,1,33,-8
71483553227,0,-75,-78,-87,-78,-2,-26,-13
71483553227,-2,65,67,63,69,6,9,-2
71483568266,0,-84,-81,-83,-77,-2,-11,11
71483568266,6,65,70,64,70,0,-14,-13
71483576391,0,-77,-80,-80,-85,-4,-13,12
71483576391,2,60,65,44,65,3,-7,-13
71483591432,-2,-71,-78,-89,-80,3,-111,54
71483591432,-8,46,50,75,68,2,-116,-46
71483592193,-1,-36,-34,-62,-58,3,-103,55
71483592193,-4,7,-5,47,36,-6,-97,-57
71483605796,3,3,13,-47,-35,7,-51,48
71483605796,-5,-94,-112,-60,-85,-8,-31,0
71483613199,-3,127,127,127,127,6,22,33
71483613199,2,-128,-128,-128,-128,-7,56,77
71483628237,-1,98,86,116,114,1,72,-4
71483628237,1,-30,-14,-58,-51,-4,68,34
71483636408,-3,-25,-31,-13,-19,-3,55,-24
71483636408,3,22,11,36,29,-3,68,-55
71483651793,-3,-15,-7,-19,-19,-7,53,-68
71483651793,2,-12,-43,6,2,-3,67,-66
71483652595,5,34,32,10,20,0,51,-31
71483652595,1,-84,-82,-85,-93,-9,43,-5
71483665753,-6,61,31,86,84,-2,83,-55
71483665753,-5,-54,-43,-80,-70,-2,97,-13
71483673148,1,20,-3,50,28,2,75,-78
71483673148,-7,-23,-18,-52,-38,1,52,-25
71483688191,0,-12,-3,-11,-14,0,38,-32
71483688191,-5,-20,-42,7,-7,-4,28,-22
71483696331,-2,89,93,59,78,1,-6,11
71483696331,2,-128,-128,-128,-128,-3,-10,41
71483711431,3,68,40,117,102,-8,11,-30
71483711431,5,19,56,-29,-3,6,-17,59
71483712207,-3,-128,-128,-122,-128,-8,-26,21
71483712207,5,127,126,127,127,-1,-11,-39
71483725695,-3,-30,-1,-111,-87,7,-14,90
71483725695,-1,-124,-128,-67,-100,-13,-8,-18
71483749581,-2,127,127,127,127,6,-11,-4
71483749581,-1,-128,-128,-128,-128,1,-28,41
71483751222,2,102,101,122,117,-4,8,-22
71483751222,-1,-77,-71,-96,-95,5,-22,30
71483756436,1,39,47,66,68,-4,-13,-25
71483756436,1,-58,-64,-64,-69,-3,-15,25
71483771329,-2,39,51,82,82,-3,-2,-21
71483771329,5,-103,-108,-106,-108,-4,-19,22
71483772117,2,104,114,114,119,-7,-6,-26
71483772117,-3,-120,-117,-120,-118,-6,-15,26
71483793907,6,91,96,101,100,4,-13,-28
71483793907,-3,-70,-65,-73,-73,0,-11,11
71483794676,-5,27,32,21,30,-1,-12,12
71483794676,2,-14,-15,10,-1,-1,-6,-8
71483809731,-2,35,46,9,21,3,-14,28
71483809731,3,-40,-45,-28,-30,-4,-10,-3
71483816317,1,20,21,-18,-1,9,-5,45
71483816317,-17,-33,-39,-15,-26,-9,5,-15
71483831363,10,-128,-128,-128,-128,-4,-74,35
71483831363,-2,77,127,127,127,-1,-34,-31
71483832136,5,-128,-128,-128,-128,-4,-40,66
71483832136,-2,74,105,127,127,-2,-63,11
71483845820,-1,-90,-95,-128,-128,1,-90,101
71483845820,1,42,74,118,116,-1,-42,22
71483853261,5,-128,-128,-128,-128,-2,-5,63
71483853261,8,121,127,127,127,1,74,0
71483868211,-27,-128,-128,-128,-128,-3,78,15
71483868211,7,55,67,105,89,-6,46,-87
71483876461,-4,-23,-25,-55,-49,1,32,-41
71483876461,-1,26,26,52,53,0,17,-85
71483891357,-7,-64,-89,-71,-78,2,24,-18
71483891357,-7,125,122,90,103,3,24,-7
71483892199,-4,-114,-124,-77,-95,-10,19,-43
71483892199,3,-52,-90,-124,-120,0,-8,22
71483905783,6,117,127,127,127,-5,15,-74
71483905783,-11,-110,-128,-128,-128,-7,6,-28
71483913214,1,36,31,-27,-21,1,-14,15
71483913214,-3,37,72,94,94,-5,-5,-41
71483928228,4,-118,-115,-116,-116,-7,1,18
71483928228,11,52,35,-29,11,7,0,54
71483936357,-6,10,41,127,98,-8,-7,-45
71483936357,-6,-113,-121,-128,-128,2,-15,29
71483951451,-2,53,47,7,15,4,-5,2
71483951451,-1,16,32,62,52,-2,-8,-45
71483952176,4,-95,-99,-101,-96,-3,-15,0
71483952176,-1,57,33,-27,7,4,15,26
71483981194,5,19,53,98,91,-7,3,-70
71483981194,-3,-120,-128,-128,-128,-2,-1,24
71483989517,-3,56,68,25,38,8,-8,-7
71483989517,-6,7,34,76,59,-7,-13,-51
71483991133,2,-101,-113,-124,-119,-2,2,34
71483991133,-9,87,79,39,60,5,-7,2
71483996450,-4,43,68,111,104,-11,2,-40
71483996450,5,-88,-116,-128,-128,-3,-10,23
71484011417,4,-15,-33,-20,-29,1,-14,10
71484011417,1,55,54,78,63,-1,-5,-20
71484012206,3,-40,-39,-2,-19,-2,11,-9
71484012206,1,-38,-32,-36,-36,-2,-8,-3
71484025789,1,-61,-88,-73,-85,0,6,9
71484025789,-1,3,-19,-33,-33,2,-9,29
71484033306,-3,67,94,123,124,0,-2,-30
71484033306,2,-22,-21,26,-10,-7,4,-41
71484048218,-4,-121,-116,-85,-99,-5,-2,-7
71484048218,0,-60,-86,-128,-128,0,-4,49
71484056401,3,107,102,89,95,8,-1,-9
71484056401,-2,32,53,114,96,-5,1,-25
71484070827,-3,-54,-41,-52,-43,-8,-2,9
71484070827,0,-40,-38,-90,-71,-3,2,12
71484078910,-3,43,31,32,30,-3,3,-15
71484078910,0,26,2,42,31,-3,-2,-16
71484085775,3,-8,1,11,10,-3,0,-25
71484085775,0,-97,-102,-92,-99,-7,-1,11
71484093212,-4,11,1,-13,-7,4,-5,26
71484093212,-1,100,116,112,127,3,-7,-26
71484108196,0,13,5,57,24,-8,0,-59
71484108196,0,-128,-128,-81,-101,-4,13,-10
71484116397,0,-93,-95,-128,-128,1,3,58
71484116397,0,93,90,48,57,1,-3,-3
71484130757,-7,58,59,127,114,-1,-13,-46
71484130757,-2,-74,-67,-36,-41,-4,3,-19
71484146376,-2,-119,-128,-128,-128,-7,8,31
71484146376,0,47,43,18,23,4,2,17
71484153847,1,118,127,127,127,-1,1,-38
71484153847,0,35,24,110,72,-8,-13,-68
71484154683,-3,-128,-128,-96,-106,-9,-19,-9
71484154683,-1,-88,-107,-128,-128,4,11,66
71484169682,-5,124,123,88,101,2,8,-7
71484169682,-4,117,127,127,127,-6,17,-44
71484183918,0,-40,-56,24,-16,-11,5,-54
71484183918,-4,-128,-128,-128,-128,-10,-19,4
71484190718,-1,-125,-128,-128,-128,2,5,42
71484190718,-2,46,63,0,31,4,-5,35
71484198889,-8,82,89,127,127,-4,-2,-45
71484198889,7,16,36,107,90,-1,-16,-37
71484213846,0,-95,-91,-86,-87,-10,-82,-13
71484213846,4,-128,-128,-111,-118,-1,-44,39
71484214684,0,-29,-45,-120,-87,0,-53,38
71484214684,-4,60,91,94,93,-3,-9,-27
71484228181,-3,-41,-38,-12,-31,-4,13,-26
71484228181,-6,-90,-85,-80,-85,-5,-8,-12
71484236478,-5,-69,-96,-121,-110,-1,12,32
71484236478,-4,55,39,24,28,-2,34,-3
71484250863,-1,45,69,113,94,-3,42,-22
71484250863,-9,-69,-67,-63,-63,-7,25,-25
71484258965,-2,-91,-115,-88,-106,0,34,0
71484258965,-1,10,3,-6,-1,5,11,26
71484273899,-1,71,117,109,124,-3,26,-13
71484273899,-4,-2,-9,40,9,-8,4,-54
71484274686,-2,-96,-76,-46,-51,-4,-3,-4
71484274686,-2,-77,-111,-128,-128,-1,0,40
71484288235,-3,92,81,48,64,1,12,8
71484288235,1,76,120,127,127,-2,9,-44
71484296478,-1,-50,-25,-1,-15,-8,8,-42
71484296478,-3,-128,-128,-128,-128,-12,-3,-23
71484310780,-3,-128,-128,-128,-128,-1,4,45
71484310780,3,-20,-71,-126,-114,0,8,34
71484326390,-1,108,127,127,127,5,3,7
71484326390,0,60,92,115,105,-3,3,-35
71484333882,-3,-14,-2,40,21,-8,0,-32
71484333882,-2,-86,-80,-64,-69,-11,0,-17
71484334703,-3,-112,-110,-101,-100,-4,0,23
71484334703,-1,-68,-106,-128,-128,1,-10,41
71484349725,4,102,99,80,91,9,-9,-6
71484349725,-1,60,98,123,122,3,-1,-27
71484363917,-1,-29,-35,7,-21,-9,5,-48
71484363917,-1,-128,-124,-93,-98,-8,-4,0
71484370821,-3,-128,-128,-128,-128,1,-11,29
71484370821,-4,-9,-44,-125,-98,3,-7,56
71484378977,1,127,127,127,127,7,-5,1
71484378977,-2,84,117,127,127,-4,-8,-58
71484393922,3,45,100,99,110,-3,-1,-38
71484393922,-3,-59,-53,-1,-39,-6,-8,-32
71484394808,0,-114,-97,-90,-89,-2,7,3
71484394808,-5,-128,-128,-128,-128,-3,-4,12
71484408262,2,-128,-128,-128,-128,1,-9,29
71484408262,-1,-10,-18,-86,-49,5,-12,43
71484416428,3,94,107,97,105,0,-28,8
71484416428,0,110,120,122,123,4,-18,-26
71484430762,-4,96,127,127,127,-2,2,-37
71484430762,1,37,71,127,125,-2,-1,-48
71484438941,-2,-94,-85,-68,-82,-11,-5,-37
71484438941,-2,-121,-112,-95,-98,-6,1,1
71484453962,2,-128,-128,-128,-128,-7,-10,26
71484453962,0,-123,-128,-128,-128,-1,-8,33
71484454834,-3,20,26,-26,9,5,-4,26
71484454834,2,90,101,116,111,-2,18,-28
71484468259,-1,61,83,93,97,-5,4,-39
71484468259,-3,-10,-15,55,14,-8,4,-35
71484476462,-4,-117,-104,-84,-91,-9,-3,-5
71484476462,-4,-34,-60,-109,-101,1,-6,44
71484490770,0,100,92,71,79,2,8,-2
71484490770,1,102,127,127,127,-8,9,-40
71484498964,-3,38,58,127,105,-11,5,-63
71484498964,0,-93,-99,-53,-87,-8,2,-33
71484513910,-4,-128,-128,-128,-128,-4,10,7
71484513910,-7,-120,-121,-128,-127,1,13,22
71484514685,1,-33,-62,-124,-112,1,8,36
71484514685,0,101,113,127,127,2,10,-13
71484528271,0,76,98,103,98,-3,2,-33
71484528271,-2,63,73,127,123,-4,14,-48
71484536436,0,-15,-7,65,25,-4,3,-47
71484536436,-4,-127,-128,-88,-108,-9,25,-4
71484550779,-3,-128,-128,-128,-128,-13,-13,-24
71484550779,-7,-122,-128,-128,-128,-5,-5,0
71484558920,1,-103,-100,-99,-92,-1,4,15
71484558920,3,-50,-60,-112,-100,-2,-14,37
71484573922,-1,74,63,57,65,9,4,24
71484573922,1,122,124,109,113,0,5,-21
71484574622,0,119,127,127,127,0,2,-47
71484574622,-2,19,50,127,101,-5,-3,-54
71484588245,-3,-87,-99,-49,-81,-11,6,-30
71484588245,-3,-111,-115,-98,-112,-10,-11,-14
71484596432,-5,-108,-116,-113,-119,-7,1,0
71484596432,-2,-128,-128,-128,-128,-9,-2,-11
71484610822,-2,-128,-128,-128,-128,-4,-9,-1
71484610822,3,-116,-121,-118,-123,-9,-2,10
71484618950,0,-113,-125,-118,-128,-15,0,-31
71484618950,-3,-84,-89,-42,-73,-8,-9,-30
71484633888,-1,-123,-128,-117,-126,-14,-4,-12
71484633888,-2,-118,-123,-119,-126,-8,-1,-9
71484634700,-1,-128,-128,-128,-128,-10,-6,1
71484634700,-4,-127,-124,-119,-117,-10,-9,-6
71484648201,-6,-128,-128,-126,-128,-4,1,11
71484648201,-2,-128,-128,-128,-128,-2,-4,2
71484656363,-2,-117,-113,-109,-109,-6,0,24
71484656363,-4,-127,-127,-125,-124,-7,-6,-20
71484670717,0,-128,-128,-128,-128,-5,-2,9
71484670717,-7,-127,-124,-124,-124,-11,-5,2
71484678970,1,-115,-118,-112,-116,-6,-3,-2
71484678970,-1,-128,-128,-128,-128,-7,-1,6
71484685843,-2,-128,-128,-128,-128,-7,-1,3
71484685843,-6,-121,-121,-116,-120,-7,0,-12
71484693283,-5,-121,-123,-120,-122,-13,0,-15
71484693283,-7,-128,-128,-128,-128,-8,0,-5
71484708140,-1,-109,-120,-90,-126,-10,0,-30
71484708140,-4,-104,-116,-87,-119,-12,-8,-16
71484716501,-4,-120,-124,-117,-124,-6,-6,-22
71484716501,-3,-127,-127,-125,-127,-7,3,-13
71484730837,-7,-128,-128,-128,-128,-9,-4,-4
71484730837,-3,-125,-127,-126,-127,-8,5,-14
71484738929,-3,-123,-127,-122,-128,-8,-14,-30
71484738929,-3,-128,-127,-126,-126,-9,-1,-5
71484745787,-3,-126,-127,-124,-127,-9,-3,-19
71484745787,-4,-128,-128,-128,-128,-4,-13,-3
71484753314,-2,-126,-124,-125,-122,-10,5,6
71484753314,-3,-123,-127,-124,-126,-9,-2,-17
71484768265,-2,-128,-128,-128,-128,-8,-5,-14
71484768265,-2,-128,-128,-128,-128,-8,6,-10
71484776461,-6,-127,-127,-126,-126,-4,-4,-9
71484776461,-3,-126,-127,-123,-127,-10,-7,-2
71484790809,-5,-128,-128,-128,-128,-12,6,-3
71484790809,0,-128,-128,-128,-127,-15,-5,-15
71484807697,-3,-124,-126,-122,-126,-12,-2,-21
71484807697,-4,-128,-128,-127,-128,-6,-3,-10
71484822108,-3,-117,-128,-107,-127,-12,-8,-31
71484822108,-2,-118,-127,-105,-127,-9,-6,-16
71484823773,-7,-124,-127,-121,-127,-11,2,-20
71484823773,1,-100,-108,-80,-119,-11,4,-23
71484828273,-3,-128,-128,-128,-127,-14,1,-3
71484828273,-9,-105,-122,-96,-122,-8,2,-20
71484852914,-1,-123,-126,-117,-126,-12,-5,-10
71484852914,-3,-128,-128,-128,-128,-5,-11,-11
71484853745,-3,-101,-113,-88,-115,-6,5,-22
71484853745,0,-72,-74,-25,-69,-13,6,-25
71484859802,-2,-95,-120,-88,-110,-8,9,-27
71484859802,2,-75,-86,-34,-86,-10,2,-26
71484865788,-4,-122,-128,-125,-128,-9,-15,-17
71484865788,-2,-128,-128,-128,-128,-2,-10,-4
71484882267,-4,-117,-115,-107,-116,-9,-13,-10
71484882267,-8,-128,-128,-128,-128,-9,1,-8
71484888307,-3,-121,-121,-114,-119,-2,-2,5
71484888307,-2,-128,-128,-128,-128,-4,-3,-3
71484897245,-2,-128,-128,-128,-128,-11,-1,-10
71484897245,1,-128,-128,-128,-128,-7,-8,-7
71484910823,-3,-123,-121,-118,-120,-3,6,10
71484910823,-7,-128,-128,-128,-128,-4,-5,11
71484919804,-2,-125,-125,-121,-127,-2,-1,8
71484919804,-2,-128,-128,-128,-127,-7,8,7
71484925790,-1,-123,-123,-120,-122,-6,-5,-1
71484925790,-4,-124,-128,-127,-128,-6,-3,-15
71484942246,-3,-123,-124,-118,-124,-9,1,-11
71484942246,-2,-127,-128,-127,-127,-9,-8,-17
71484948282,-2,-101,-119,-90,-113,-9,5,-22
71484948282,2,-112,-125,-100,-126,-9,-3,-48
71484957206,-2,-114,-122,-112,-122,-8,1,-51
71484957206,1,-82,-85,-37,-86,-4,1,-43
71485026025,-3,-118,-127,-123,-128,-11,4,-28
71485026025,0,-96,-106,-68,-106,-10,-3,-29
71485027546,-4,-69,-82,-21,-70,-10,-6,-19
71485027546,-6,-98,-118,-89,-110,-14,0,-5
71485028367,-1,-118,-118,-106,-117,-9,0,-11
71485028367,-1,-127,-128,-128,-128,-11,0,-3
71485033523,-5,-128,-128,-128,-128,-10,9,-7
71485033523,-4,-96,-110,-73,-105,-8,-2,-19
71485034339,-3,-119,-121,-110,-119,-7,-4,-1
71485034339,-2,-120,-128,-128,-128,-6,9,-3
71485035127,-4,-119,-127,-114,-128,-6,-6,-25
71485035127,-1,-111,-120,-103,-118,-9,-6,-12
71485039753,-2,-77,-87,-46,-80,-8,-2,-24
71485039753,-5,-97,-119,-93,-110,-10,4,-19
71485045825,-5,-103,-113,-96,-117,-11,-1,-30
71485045825,-5,-98,-109,-71,-111,-11,-2,-16
71485062283,-3,-117,-128,-117,-128,-9,-6,-21
71485062283,-2,-84,-103,-63,-98,-5,-2,-26
71485068279,0,-70,-87,-42,-80,-7,5,-33
71485068279,-1,-76,-79,-29,-75,-9,7,-22
71485077284,-7,-64,-75,-20,-71,-7,-6,-45
71485077284,3,-76,-81,-30,-55,-8,3,-23
71485090821,-1,-26,-25,41,0,-6,-3,-49
71485090821,0,-29,-29,30,-6,-7,1,-48
71485099779,2,-76,-81,-30,-72,-4,7,-24
71485099779,-3,-106,-117,-96,-121,-9,-1,-31
71485105790,-6,-78,-94,-41,-95,-14,-2,-30
71485105790,-2,-114,-119,-111,-114,-9,-4,-22
71485122203,-1,-83,-101,-53,-98,-7,2,-28
71485122203,-1,-110,-120,-89,-123,-9,-1,-21
71485128286,-4,-122,-128,-105,-128,-13,-6,-24
71485128286,-4,-102,-120,-85,-118,-12,-3,-30
71485137208,1,-96,-121,-85,-111,-12,2,-22
71485137208,-3,-84,-93,-49,-99,-6,-2,-28
71485150786,2,-33,-29,50,-6,-5,-2,-43
71485150786,-2,-25,-19,49,11,-8,4,-40
71485159782,-5,-97,-112,-92,-107,-12,-1,-23
71485159782,-3,-66,-65,-16,-55,-12,3,-29
71485165792,0,-44,-43,14,-26,-8,-2,-36
71485165792,-1,-41,-38,21,-18,-8,0,-43
71485182791,-2,13,27,114,64,-5,-4,-46
71485182791,0,-12,7,58,34,-7,-4,-46
71485220891,-3,-42,-45,5,-29,-8,-1,-39
71485220891,-5,-24,-38,32,-3,-7,11,-23
71485222556,-5,-44,-41,14,-26,-9,2,-42
71485222556,0,-80,-88,-53,-80,-12,-1,-29
71485223376,1,-53,-57,-2,-35,-9,1,-31
71485223376,0,-55,-66,-15,-57,-8,-2,-39
71485227876,1,-58,-57,-3,-46,-9,4,-34
71485227876,-5,-9,-8,53,34,-6,2,-45
71485228701,-5,-49,-51,6,-45,-8,3,-36
71485228701,-4,-112,-124,-96,-125,-12,-9,-18
71485242280,-4,-92,-108,-80,-101,-9,-4,-23
71485242280,-5,-65,-70,-25,-57,-7,7,-29
71485248219,-3,-75,-87,-39,-75,-8,1,-26
71485248219,-4,-35,-46,16,-23,-8,3,-45
71485257260,-2,2,19,85,49,-7,-1,-46
71485257260,-1,35,64,108,102,-8,-1,-39
71485270741,0,57,82,127,127,-6,7,-49
71485270741,-1,109,127,127,127,1,0,-45
71485279754,1,123,121,125,127,3,6,-35
71485279754,-1,126,127,127,127,-3,-1,-36
71485285756,-2,127,124,116,120,2,4,-36
71485285756,3,118,122,126,124,-2,4,-38
71485302280,-1,127,127,127,127,-3,-3,-35
71485302280,-1,127,125,127,123,-2,-2,-34
71485308261,1,118,121,114,115,-2,6,-27
71485308261,-1,124,127,127,127,-1,6,-36
71485317314,3,127,127,127,127,-1,9,-24
71485317314,-2,116,119,118,116,-4,-12,-43
71485330821,-3,124,120,115,119,1,10,-29
71485330821,-1,127,127,127,127,-1,4,-36
71485339778,-2,126,127,127,127,-6,-2,-34
71485339778,-2,120,119,120,117,1,-7,-39
71485378497,-5,127,127,124,126,-2,2,-34
71485378497,-2,123,127,127,127,-1,-2,-34
71485379995,0,126,127,127,127,-2,2,-42
71485379995,-1,124,123,123,122,0,7,-28
71485380802,-5,127,127,127,127,-3,10,-34
71485380802,-2,127,127,127,127,-3,16,-26
71485384743,-4,123,127,127,127,1,-2,-40
71485384743,-3,127,127,127,127,-4,4,-22
71485390769,1,127,127,125,126,0,-15,-34
71485390769,1,127,127,127,127,-1,1,-27
71485399785,1,127,127,127,127,0,-1,-41
71485399785,1,125,127,127,127,-1,6,-28
71485405787,3,126,126,125,125,0,-2,-39
71485405787,2,125,127,127,127,1,0,-35
71485422303,-3,115,127,127,127,-5,6,-33
71485422303,-2,117,126,126,125,-1,6,-36
71485428295,-1,101,126,125,126,-5,6,-39
71485428295,2,117,127,127,127,-3,-10,-44
71485437234,-1,124,127,127,127,-4,19,-29
71485437234,0,111,126,126,126,-2,-3,-41
71485450814,-1,127,127,127,127,-2,4,-29
71485450814,-1,116,127,127,127,-5,-3,-42
71485459791,3,112,127,127,127,-1,-3,-38
71485459791,-1,118,127,127,127,-2,7,-31
71485465758,-3,123,127,127,127,-3,-4,-41
71485465758,-4,100,127,127,127,-5,6,-33
71485482250,-1,124,127,127,127,2,1,-40
71485482250,-3,121,127,127,127,-6,7,-42
71485488181,-4,116,127,127,127,-1,3,-35
71485488181,1,126,127,127,127,-5,6,-30
71485497278,-3,123,127,127,127,-3,-1,-32
71485497278,1,119,127,127,127,0,10,-36
71485510772,0,123,127,127,127,-1,-1,-34
71485510772,-4,109,127,127,127,-5,-3,-39
71485581737,-2,110,127,127,127,-5,3,-34
71485581737,3,121,127,127,127,2,2,-36
71485582503,2,124,127,127,127,0,1,-26
71485582503,1,127,127,127,127,2,22,-28
71485587804,2,127,127,127,127,3,13,-22
71485587804,-7,124,127,127,127,-1,5,-36
71485588523,-2,115,127,127,127,-3,6,-43
71485588523,-1,127,127,127,127,-1,-2,-37
71485590156,0,127,127,127,127,3,2,-26
71485590156,-1,127,127,127,127,-1,3,-27
71485602269,-2,127,127,127,127,4,-2,-32
71485602269,3,127,127,127,127,2,5,-26
71485608275,1,127,127,127,127,1,2,-35
71485608275,-1,127,127,127,127,-3,-4,-27
71485617229,3,127,127,127,127,2,-2,-29
71485617229,2,126,127,127,127,-3,-2,-24
71485630849,-1,127,127,127,127,-1,-1,-35
71485630849,1,127,127,127,127,4,1,-29
71485645761,0,127,127,127,127,1,-7,-28
71485645761,-3,124,127,127,127,-3,-5,-33
71485653318,1,127,127,127,127,-2,8,-17
71485653318,-1,127,127,127,127,4,-3,-27
71485662255,-2,127,127,127,127,-5,-4,-30
71485662255,5,125,127,127,127,-3,-4,-27
71485677115,1,127,127,127,127,2,0,-19
71485677115,3,126,127,127,127,-1,9,-26
71485678751,2,127,127,127,127,-2,-1,-16
71485678751,-2,127,127,127,127,3,1,-18
71485690827,1,127,127,127,127,1,-2,-27
71485690827,0,127,127,127,127,2,10,-19
71485699735,1,127,127,127,127,1,-9,-30
71485699735,1,127,127,127,127,3,20,2
71485713771,-2,127,127,127,127,-3,2,-12
71485713771,4,127,127,127,127,4,-4,-26
71485722367,-1,127,127,127,127,5,2,-23
71485722367,1,127,127,127,127,1,0,-20
71485737171,1,127,127,127,127,-1,3,-26
71485737171,-1,127,127,127,127,4,-2,-30
71485738812,1,127,127,127,127,-1,1,-30
71485738812,1,127,127,127,127,2,-3,-27
71485750767,-2,127,127,127,127,3,0,-27
71485750767,-1,127,127,127,127,5,8,-32
71485759832,4,127,127,127,127,0,5,-21
71485759832,2,127,127,127,127,-2,7,-28
71485773244,-4,127,127,127,127,-2,-2,-33
71485773244,3,127,127,127,127,-1,8,-17
71485782309,3,127,127,127,127,3,0,-29
71485782309,-4,127,127,127,127,1,-4,-20
71485797083,4,127,127,127,127,3,-6,-29
71485797083,-1,127,127,127,127,0,7,-15
71485798740,-2,127,127,127,127,1,5,-23
71485798740,0,127,127,127,127,-5,-9,-31
71485810785,2,127,127,127,127,4,7,-18
71485810785,-1,127,127,127,127,2,-3,-25
71485819818,-1,127,127,127,127,-2,5,-22
71485819818,1,127,127,127,127,3,-2,-36
71485833222,-1,127,127,127,127,-2,-2,-28
71485833222,1,127,127,127,127,-3,1,-20
71485859284,-5,127,127,127,127,0,-4,-20
71485859284,-4,127,127,127,127,6,2,-22
71485860074,0,127,127,127,127,-1,11,-19
71485860074,-1,127,127,127,127,1,2,-28
71485879335,0,127,127,127,127,-1,-3,-27
71485879335,1,127,127,127,127,0,0,-21
71485880155,-2,127,127,127,127,3,7,-10
71485880155,2,127,127,127,127,1,-6,-36
71485895450,-1,127,127,127,127,2,5,-23
71485895450,2,127,127,127,127,1,6,-19
71485896183,3,127,127,127,127,-4,0,-23
71485896183,1,127,127,127,127,4,5,-14
71485902241,0,125,127,127,127,9,7,-4
71485902241,-3,114,125,121,127,4,-5,2
71485908256,1,99,116,99,124,6,6,24
71485908256,-2,122,127,126,127,7,-7,9
71485917299,1,107,126,118,127,6,1,12
71485917299,0,107,121,102,127,3,-1,12
71485930783,2,124,127,127,127,9,-6,5
71485930783,1,122,126,121,127,3,-3,2
71485939835,2,127,127,127,127,5,8,7
71485939835,2,127,127,127,127,9,5,-9
71485953254,-1,127,127,127,127,5,-3,-3
71485953254,-1,124,127,124,127,6,0,-4
71485962242,-1,127,127,127,127,-2,-4,-25
71485962242,1,126,127,126,127,-1,5,-15
71485968276,1,127,127,127,127,4,5,-31
71485968276,-4,123,127,127,127,-1,7,-18
71485983412,-3,126,126,124,127,-4,-4,-28
71485983412,-4,127,127,127,127,1,0,-35
71485990774,-2,127,127,127,127,-4,2,-26
71485990774,2,127,127,127,127,2,1,-23
71485999854,-4,127,127,125,127,4,-3,-27
71485999854,0,127,127,127,127,1,-2,-26
71486013234,-2,127,127,127,127,1,-2,-30
71486013234,-1,125,127,125,127,4,-3,-24
71486053492,4,127,127,126,127,-1,9,-39
71486053492,-2,127,127,127,127,-1,2,-26
71486054184,2,127,127,127,127,1,5,-21
71486054184,-1,126,127,127,127,1,-8,-33
71486055825,3,127,127,127,127,2,-3,-22
71486055825,-1,127,127,127,127,1,13,-22
71486059621,0,127,127,127,127,0,2,-28
71486059621,1,127,127,127,127,-3,-2,-17
71486061218,-5,127,127,127,127,1,-3,-22
71486061218,0,127,127,127,127,5,-4,-23
71486073749,-2,127,127,127,127,6,1,-17
71486073749,4,127,127,127,127,1,5,-24
71486082318,-2,127,127,127,127,-1,-3,-28
71486082318,2,127,127,127,127,3,-1,-13
71486088331,-2,127,127,127,127,1,2,-15
71486088331,0,127,127,127,127,-3,-5,-25
71486103322,0,127,127,127,127,0,6,-23
71486103322,1,127,127,127,127,-2,-5,-29
71486110735,-1,127,127,127,127,-1,8,-26
71486110735,0,127,127,127,127,4,2,-24
71486119784,1,127,127,127,127,3,-1,-16
71486119784,-2,127,127,127,127,4,2,-21
71486133323,1,127,127,127,127,1,-4,-35
71486133323,-3,127,127,127,127,-2,11,-24
71486142278,3,127,127,127,127,-1,6,-19
71486142278,-1,127,127,127,127,2,2,-26
71486148316,4,127,127,127,127,0,10,-22
71486148316,2,127,127,127,127,3,-2,-22
71486163238,0,127,127,127,127,-1,6,-22
71486163238,3,127,127,127,127,5,5,-22
71486170786,-4,127,127,127,127,0,0,-29
71486170786,-5,127,127,127,127,0,3,-25
71486179778,-1,127,127,127,127,-3,-4,-33
71486179778,-1,127,127,127,127,-4,8,-26
71486193298,2,127,127,127,127,2,-3,-31
71486193298,0,127,127,127,127,0,-1,-25
71486210410,-2,127,127,127,127,5,0,-14
71486210410,2,127,127,127,127,2,9,-17
71486211284,-3,127,127,127,127,-4,4,-18
71486211284,-2,127,127,127,127,1,2,-21
71486247774,-3,127,127,127,127,5,8,-15
71486247774,-1,127,127,127,127,0,-2,-28
71486248523,2,127,127,127,127,6,1,-17
71486248523,0,127,127,127,127,-3,-12,-27
71486250117,3,127,127,125,127,-4,11,-16
71486250117,-1,127,127,127,127,2,7,0
71486253262,-1,127,127,127,127,2,-1,-18
71486253262,3,127,127,127,127,3,6,-7
71486262187,0,127,127,127,127,5,-12,-4
71486262187,-2,127,127,127,127,3,-2,-15
71486268196,0,127,127,127,127,8,0,0
71486268196,2,127,127,127,127,3,1,-9
71486283192,-2,127,127,127,127,2,8,-17
71486283192,-1,127,127,127,127,-1,-5,-27
71486290734,-1,127,127,127,127,3,3,-9
71486290734,-1,127,127,127,127,7,11,-6
71486299719,2,127,127,127,127,6,0,-8
71486299719,-1,127,127,127,127,11,-2,-10
71486313192,1,127,127,127,127,-1,1,-10
71486313192,0,127,127,127,127,1,-3,-20
71486322221,1,127,127,127,127,3,9,-6
71486322221,4,127,127,127,127,0,-8,-30
71486328183,2,127,127,127,127,3,-3,-22
71486328183,-3,127,127,127,127,3,7,-10
71486343210,3,127,127,127,127,6,1,-19
71486343210,1,127,127,127,127,3,3,-15
71486350706,1,127,127,127,127,0,-2,-15
71486350706,3,127,127,127,127,-1,1,-10
71486359717,1,127,127,127,127,-2,-3,-11
71486359717,-1,127,127,127,127,3,-1,-3
71486373186,2,127,127,127,127,10,-5,-11
71486373186,0,127,127,127,127,0,-11,-9
71486388851,-2,120,120,105,124,3,5,-3
71486388851,3,10,11,-38,-25,4,4,39
71486389685,0,-26,-40,-111,-77,2,-2,35
71486389685,0,-80,-112,-128,-128,1,-1,51
71486404712,-2,-98,-128,-128,-128,6,-8,36
71486404712,-5,-85,-120,-115,-117,1,3,35
71486410740,2,-124,-128,-122,-124,-4,-6,28
71486410740,-1,-63,-71,-33,-59,-6,-2,-23
71486419732,-1,83,93,91,89,-6,1,-39
71486419732,1,125,124,127,127,0,4,-22
71486433340,-7,127,127,127,127,3,1,-22
71486433340,1,127,127,124,127,6,1,-9
71486442307,-3,106,106,109,105,2,3,1
71486442307,1,120,127,118,127,5,6,2
71486448301,0,104,120,95,123,8,3,17
71486448301,-1,81,105,69,99,4,-4,25
71486463284,-1,24,32,-16,22,5,-9,31
71486463284,1,-17,-19,-103,-68,3,-9,41
71486470818,1,-40,-68,-114,-116,1,6,38
71486470818,-2,-25,-30,-128,-80,5,-2,48
71486479808,2,-43,-66,-128,-120,-3,-1,43
71486479808,-1,-58,-64,-124,-120,-2,-10,33
71486493307,0,-23,-27,-100,-65,7,-1,42
71486493307,5,-15,-29,-123,-79,6,-8,44
71486502238,0,-53,-63,-128,-128,3,-10,42
71486502238,-5,-49,-63,-122,-115,0,7,44
71486508345,-3,-53,-71,-121,-128,0,1,36
71486508345,-1,-79,-86,-125,-128,4,-5,44
71486523345,0,-86,-123,-128,-128,2,-10,36
71486523345,0,-124,-128,-124,-126,-2,-6,23
71486530725,-5,-82,-87,-52,-83,-9,2,-19
71486530725,-1,65,74,96,94,-3,6,-37
71486539764,0,103,108,114,106,1,0,-26
71486539764,5,127,127,127,127,4,-4,-18
71486562119,4,127,127,127,127,2,-1,-14
71486562119,-1,108,104,111,102,1,1,-18
71486563720,1,117,123,127,121,0,2,-24
71486563720,3,127,127,127,127,3,0,-13
71486568249,-4,127,127,127,127,4,-5,-10
71486568249,-2,121,114,122,112,-1,10,-15
71486592841,3,124,127,124,127,0,6,-24
71486592841,-3,127,127,127,127,4,1,-25
71486593724,-1,127,127,127,127,0,-7,-27
71486593724,0,127,126,127,122,3,12,-10
71486607254,0,118,121,115,116,5,4,-1
71486607254,-2,127,127,127,127,2,-7,-23
71486613234,-2,127,127,127,127,-1,-5,-23
71486613234,-1,126,122,120,121,10,2,-17
71486637691,-3,117,122,121,121,5,2,-6
71486637691,0,127,127,127,127,1,-1,-22
71486644578,6,127,127,127,127,5,-1,-19
71486644578,0,122,120,119,118,2,0,-9
71486646208,1,123,124,125,123,5,-1,-7
71486646208,0,127,127,127,127,7,9,-4
71486690958,3,127,127,127,127,4,1,-15
71486690958,1,124,123,124,122,3,-4,-16
71486692521,-2,126,127,127,126,8,0,-5
71486692521,-7,127,127,127,127,7,4,0
71486693331,4,114,127,119,127,5,5,15
71486693331,1,125,125,126,125,8,-4,2
71486729191,3,125,127,126,127,7,-2,0
71486729191,5,117,124,117,126,5,-1,7
71486730000,-3,62,61,30,57,6,7,31
71486730000,-1,-1,0,-45,-32,5,-10,42
71486765892,1,-53,-87,-128,-119,0,-9,36
71486765892,0,-125,-127,-128,-128,0,4,27
71486766719,-4,-117,-126,-112,-128,-8,-3,-4
71486766719,-1,-22,-18,46,27,-7,1,-32
71486768323,2,127,127,127,127,4,2,-11
71486768323,0,122,120,110,113,2,1,4
71486773551,-1,74,102,88,108,5,-2,15
71486773551,-1,-29,-41,-97,-85,0,-10,35
71486774421,-3,-64,-104,-115,-112,2,4,44
71486774421,-1,-128,-128,-128,-128,2,-2,40
71486775160,-1,97,105,107,101,-2,3,-31
71486775160,1,127,125,127,126,2,3,-17
71486793905,-5,119,127,115,127,7,5,14
71486793905,1,43,39,-1,34,3,-9,32
71486794764,0,-24,-29,-92,-64,7,-9,41
71486794764,0,-58,-95,-122,-109,1,-9,42
71486809718,1,-128,-128,-128,-128,-3,-1,36
71486809718,0,-115,-125,-121,-121,-4,-3,-1
71486840990,-5,32,63,117,100,-5,2,-38
71486840990,-3,103,115,102,110,-1,6,-23
71486842573,-1,124,121,127,121,2,-1,-22
71486842573,1,127,127,127,127,7,1,0
71486843376,6,116,118,115,115,10,2,13
71486843376,-1,83,104,82,104,3,-4,14
71486847205,-1,53,51,15,45,6,-3,22
71486847205,3,-8,-20,-82,-61,3,22,39
71486853228,-1,-41,-67,-128,-128,11,1,47
71486853228,2,-47,-77,-128,-128,6,-7,41
71486862247,-2,-49,-87,-128,-128,3,-5,41
71486862247,2,-40,-64,-101,-92,-1,2,34
71486876453,1,-86,-128,-128,-128,3,-10,40
71486876453,-3,-128,-128,-128,-128,-2,10,15
71486883235,-5,17,42,75,71,-2,11,-47
71486883235,0,118,122,127,120,0,-6,-22
71486898954,1,127,127,127,127,1,-6,-21
71486898954,4,127,127,127,127,7,-12,-9
71486905745,0,85,93,74,84,4,-4,16
71486905745,2,92,104,81,113,8,-5,11
71486922090,0,85,112,81,107,4,-10,18
71486922090,3,3,-11,-70,-28,5,-2,36
71486923811,3,-53,-103,-128,-128,0,0,38
71486923811,1,-49,-100,-115,-112,7,-12,36
71486936431,4,-128,-128,-128,-128,0,0,40
71486936431,-2,-117,-122,-98,-121,-10,4,-9
71486943270,-2,3,16,76,39,-5,-4,-36
71486943270,-2,98,110,115,114,-2,-9,-32
71486958892,-2,127,127,127,127,-6,-5,-39
71486958892,0,127,127,127,127,0,5,-25
71486965784,1,126,123,104,115,4,0,5
71486965784,-1,112,120,127,126,6,-7,-9
71486982091,2,127,127,127,127,2,15,-12
71486982091,1,127,127,127,127,4,10,-2
71486983708,-1,102,115,85,109,6,5,4
71486983708,-4,32,33,-4,19,6,15,25
71486996424,-2,-18,-46,-118,-77,3,0,39
71486996424,-3,-63,-114,-124,-116,2,-10,42
71487003215,1,-111,-128,-128,-128,5,-6,32
71487003215,0,-127,-128,-128,-128,3,-15,15
71487018918,-1,-104,-115,-86,-102,-9,-2,-14
71487018918,2,39,83,108,101,-5,-3,-39
71487025707,1,114,114,106,111,1,-5,-29
71487025707,2,127,127,127,127,2,-1,-12
71487042103,-1,127,127,127,127,6,-6,-5
71487042103,2,127,127,127,125,7,-4,5
71487043682,3,62,70,39,55,1,5,29
71487043682,0,-12,-26,-102,-51,1,3,37
71487056389,2,-12,-42,-105,-81,3,-4,29
71487056389,-5,-64,-98,-128,-128,5,2,49
71487063271,0,-110,-123,-128,-128,0,-1,30
71487063271,0,-120,-128,-113,-128,-6,-1,2
71487078916,-4,-19,-1,59,36,-6,1,-28
71487078916,-4,64,104,108,113,-3,-6,-36
71487085745,0,121,116,115,110,4,-7,-22
71487085745,-2,73,84,61,86,5,9,27
71487125977,5,16,2,-65,-25,7,2,33
71487125977,1,-39,-65,-128,-119,5,-3,46
71487127513,0,-97,-128,-128,-128,1,-7,40
71487127513,-2,-103,-113,-112,-121,-2,-6,15
71487128338,-6,-113,-110,-95,-109,-12,8,-7
71487128338,1,-22,12,63,39,-5,-2,-32
71487141059,3,94,99,90,93,-4,-1,-35
71487141059,1,127,127,127,127,3,-2,-22
71487141859,4,127,127,127,127,9,-2,9
71487141859,3,72,78,47,79,8,1,28
71487145758,3,-5,-10,-58,-42,5,1,40
71487145758,2,-19,-47,-101,-83,0,-2,34
71487162121,1,-30,-64,-121,-122,7,2,43
71487162121,-1,-31,-64,-128,-108,0,-1,44
71487163684,-2,-32,-51,-119,-101,5,-10,35
71487163684,0,-60,-111,-119,-119,1,-1,29
71487176918,0,-105,-116,-120,-118,2,-2,40
71487176918,0,-128,-128,-128,-128,-2,-1,12
71487199577,-3,-13,14,53,39,-6,0,-33
71487199577,-2,101,114,116,111,-1,-3,-41
71487200382,-1,127,127,127,127,-3,2,-26
71487200382,6,127,127,127,127,6,2,-6
71487205775,-1,75,78,55,74,6,-4,21
71487205775,-2,45,58,30,47,6,-3,19
71487213261,4,18,-5,-60,-5,6,0,36
71487213261,3,-21,-50,-128,-95,4,-1,44
71487222221,-3,-36,-77,-128,-111,5,-1,41
71487222221,3,-27,-49,-119,-87,3,0,35
71487236411,0,-33,-66,-128,-122,4,-12,38
71487236411,-1,-43,-103,-124,-126,0,-3,49
71487243266,2,-55,-109,-128,-128,-1,-4,41
71487243266,-2,-57,-109,-126,-127,1,-7,37
71487250725,-1,-53,-117,-120,-121,3,-3,39
71487250725,-2,-70,-125,-122,-121,0,-8,28
71487265815,-1,-107,-127,-121,-123,2,-3,36
71487265815,0,-118,-124,-124,-128,-4,-4,-8
71487273262,-1,28,82,104,97,-6,6,-26
71487273262,-1,112,122,127,123,-1,7,-40
71487282246,0,127,127,127,127,2,5,-27
71487282246,2,127,127,127,127,7,2,-9
71487296446,2,118,119,117,116,3,-9,-18
71487296446,0,127,127,127,127,2,4,-15
71487303291,3,127,127,123,125,3,4,-4
71487303291,0,127,127,127,127,2,0,-13
71487310815,-1,127,127,127,127,4,0,-17
71487310815,1,127,127,127,127,1,-4,-17
71487325748,3,124,116,118,116,1,3,-22
71487325748,-1,127,127,127,127,-3,9,-11
71487333253,0,127,127,126,127,2,1,-22
71487333253,-1,117,119,115,116,5,-1,-13
71487342266,-1,124,126,127,126,2,-1,-13
71487342266,1,127,127,127,127,2,-2,-23
71487364606,3,127,127,122,123,3,9,0
71487364606,3,120,121,123,123,2,-6,-14
71487366215,2,127,127,127,127,0,2,-8
71487366215,-2,127,127,127,127,5,-3,-15
71487370769,2,122,121,118,120,4,-1,-6
71487370769,-2,122,127,127,127,6,10,12
71487385748,2,93,116,83,108,2,-5,7
71487385748,3,48,50,7,40,7,-3,25
71487393239,-1,-19,-40,-99,-75,4,-8,30
71487393239,0,-57,-105,-128,-123,3,3,54
71487402240,-3,-112,-128,-128,-128,3,1,25
71487402240,1,-71,-89,-49,-83,-10,2,-22
71487416412,0,51,83,107,104,-4,4,-34
71487416412,-1,108,123,124,123,0,-2,-30
71487423247,1,127,127,127,127,6,3,3
71487423247,1,91,101,68,102,8,-4,29
71487430752,-2,20,1,-45,-12,8,-11,32
71487430752,1,-36,-70,-114,-106,3,3,41
71487445740,-3,-85,-128,-128,-128,0,-5,29
71487445740,-2,-87,-93,-72,-99,-4,0,-12
71487453227,-1,-1,13,72,44,-8,-5,-36
71487453227,-5,98,116,121,125,-2,4,-29
71487462240,-1,118,127,127,127,0,1,-7
71487462240,-1,83,77,36,80,7,3,34
71487476483,-1,16,6,-39,-19,10,-7,32
71487476483,1,-38,-71,-128,-90,5,-3,37
71487483264,5,-62,-106,-128,-128,0,3,29
71487483264,-3,-89,-108,-116,-116,0,-7,26
71487498949,-3,-75,-87,-49,-88,-8,3,-16
71487498949,-2,16,59,100,93,-1,0,-36
71487513763,1,117,127,127,127,0,1,-25
71487513763,2,127,127,127,127,6,-1,-1
71487522096,4,110,111,82,121,11,2,22
71487522096,-4,56,54,29,70,8,3,27
71487523715,0,-7,-20,-71,-55,3,2,29
71487523715,3,-2,-33,-114,-70,2,-11,26
71487536462,0,-64,-128,-128,-128,0,4,64
71487536462,1,-115,-128,-128,-128,1,-13,20
71487543295,-1,-116,-128,-126,-121,0,-6,27
71487543295,-1,-58,-68,-20,-56,-7,8,-26
71487558964,-1,100,115,105,103,3,-5,-27
71487558964,3,117,121,125,121,-1,-4,-15
71487565773,-3,81,71,48,81,6,7,16
71487565773,4,0,-19,-89,-59,5,-3,40
71487573263,-4,-23,-49,-108,-75,7,-3,38
71487573263,2,-67,-128,-128,-128,1,-7,43
71487582243,1,-58,-111,-125,-128,2,-11,27
71487582243,-3,-59,-109,-104,-104,0,-3,38
71487596511,1,-128,-128,-128,-128,1,5,25
71487596511,-5,5,40,63,51,-2,3,-27
71487603228,4,98,110,114,111,0,-5,-26
71487603228,2,127,127,127,127,1,11,-5
71487618990,2,127,127,127,127,10,-2,-7
71487618990,0,98,94,87,87,4,-5,9
71487625783,1,66,66,48,81,4,2,10
71487625783,0,40,26,-19,6,7,0,24
71487633989,0,-35,-69,-125,-114,0,-3,40
71487633989,-3,-97,-128,-128,-128,3,2,44
71487640813,-2,-116,-125,-124,-128,-2,-6,15
71487640813,-1,-38,-32,16,-10,0,-1,-21
71487656477,-3,85,97,104,104,-7,0,-33
71487656477,2,123,126,119,122,-1,7,-19
71487663270,0,127,127,127,127,4,-2,-1
71487663270,3,104,111,96,121,10,1,16
71487678981,-1,63,76,48,78,0,-12,1
71487678981,-3,26,8,-52,-13,5,-5,37
71487685769,-1,-91,-123,-128,-128,0,-9,23
71487685769,-3,-96,-104,-105,-111,-11,4,6
71487693962,-2,53,78,97,90,1,5,-17
71487693962,2,99,112,110,114,-3,-6,-18
71487700739,-1,127,127,127,127,5,9,-13
71487700739,-1,127,127,127,127,8,-1,-11
71487716469,5,118,115,124,119,8,2,0
71487716469,0,105,108,112,109,5,2,-3
71487723224,-1,101,116,83,115,7,-4,8
71487723224,0,22,14,-38,-6,8,-8,29
71487738980,-5,-65,-104,-128,-128,6,2,42
71487738980,2,-128,-128,-128,-128,2,0,37
71487745776,-5,-59,-68,-34,-71,-9,1,-27
71487745776,1,76,112,127,127,-3,1,-41
71487753962,-3,107,112,117,115,0,5,-28
71487753962,1,127,127,127,127,7,1,1
71487760786,-1,24,1,-50,-15,1,1,29
71487760786,0,-64,-102,-107,-107,3,-9,32
71487776873,-1,-120,-128,-128,-128,0,-6,32
71487776873,-6,-82,-85,-50,-85,-7,-1,-25
71487784777,-1,47,89,117,111,-3,-3,-49
71487784777,2,127,127,127,127,-1,-1,-27
71487798936,4,127,127,127,127,3,0,10
71487798936,3,39,28,-19,24,3,-5,37
71487805745,2,-49,-102,-107,-108,4,-4,31
71487805745,0,-110,-118,-124,-121,-1,2,28
71487813975,-3,-61,-67,-29,-61,-5,-3,-29
71487813975,3,78,94,100,96,1,6,-28
71487820782,3,88,110,89,109,4,1,11
71487820782,2,24,3,-50,-25,3,-2,31
71487836473,2,-69,-115,-128,-127,0,-8,46
71487836473,-3,-128,-128,-128,-128,4,-4,29
71487843233,-3,-116,-126,-121,-128,-9,-4,-5
71487843233,-1,56,83,110,106,-2,4,-32
71487858946,5,102,121,112,121,-1,0,-20
71487858946,2,127,127,127,127,4,0,5
71487865743,-2,44,19,-40,-9,6,0,29
71487865743,0,-64,-95,-117,-119,3,15,41
71487873962,-4,-91,-124,-128,-128,3,-5,32
71487873962,-4,-119,-128,-128,-128,-5,-24,-2
71487888305,0,-13,6,76,34,-3,-11,-21
71487888305,0,110,115,120,116,-9,-18,-30
71487896460,-1,127,127,127,127,1,-1,-13
71487896460,2,98,95,79,100,5,5,20
71487903236,4,-2,-27,-75,-62,3,-4,34
71487903236,-4,-50,-104,-104,-105,8,0,34
71487918951,0,-120,-128,-128,-128,1,11,37
71487918951,-4,-67,-65,-18,-54,-10,5,-21
71487925784,0,110,118,126,122,-1,5,-36
71487925784,-1,127,127,127,127,6,0,-17
71487933972,-1,108,127,108,125,6,5,12
71487933972,2,-4,-25,-76,-56,9,2,44
71487948293,2,-25,-53,-105,-98,4,-2,39
71487948293,-4,-50,-87,-128,-128,3,-10,36
71487956452,2,-72,-128,-128,-128,0,-7,30
71487956452,-2,-96,-110,-124,-117,4,5,36
71487963289,-3,-113,-126,-115,-121,-2,3,9
71487963289,2,-8,36,70,59,-4,0,-34
71487979023,1,97,111,115,109,4,-4,-21
71487979023,4,127,127,127,127,5,-4,-4
71487985791,1,32,7,-40,-12,10,2,40
71487985791,-2,-54,-85,-128,-128,8,-1,45
71487993987,-2,-63,-94,-128,-128,0,-8,32
71487993987,-2,-109,-123,-128,-128,3,-5,35
71488008360,-3,-102,-102,-90,-99,-4,2,11
71488008360,-2,44,78,90,94,-6,1,-36
71488016468,-1,102,112,113,111,5,-5,-22
71488016468,-1,127,127,127,127,1,4,-6
71488023354,2,83,79,42,64,5,1,21
71488023354,-1,-42,-75,-127,-121,4,-7,46
71488038991,1,-71,-128,-128,-128,-1,-1,39
71488038991,-2,-120,-128,-128,-128,-7,-2,-1
71488045798,-4,48,79,127,102,0,-2,-42
71488045798,0,111,112,119,120,-4,2,-24
71488053330,2,120,127,127,127,4,10,-25
71488053330,3,127,127,118,124,2,0,-14
71488068346,4,127,127,127,127,8,0,11
71488068346,2,60,49,23,61,4,1,26
71488076450,-6,-44,-67,-114,-92,4,-4,42
71488076450,-4,-108,-123,-128,-126,0,-1,23
71488083269,-2,-84,-104,-82,-114,-13,-5,-16
71488083269,-2,52,75,102,93,0,0,-28
71488099039,-1,97,112,123,121,-4,3,-29
71488099039,0,127,127,127,127,5,-2,-26
71488105868,3,84,77,23,53,7,-5,33
71488105868,-1,-75,-120,-128,-128,4,-8,40
71488121490,-3,-128,-123,-116,-120,-7,-4,-2
71488121490,0,23,46,69,56,0,0,-23
71488128377,-1,115,113,127,127,2,-3,-37
71488128377,0,80,92,75,98,6,6,14
71488144720,1,25,12,-37,-2,9,-3,32
71488144720,2,-52,-112,-128,-126,9,-2,45
71488146323,-2,-116,-128,-128,-128,6,-5,36
71488146323,-2,-108,-127,-110,-128,-12,-2,-3
71488159027,-5,22,55,105,88,-5,-5,-41
71488159027,3,104,115,108,115,-1,-2,-24
71488165807,-1,96,82,70,79,4,5,16
71488165807,1,-19,-83,-102,-96,6,-6,38
71488181510,3,-116,-123,-121,-125,-1,-10,33
71488181510,-5,-101,-127,-104,-118,-8,2,-11
71488188316,-2,43,74,88,85,-5,4,-36
71488188316,0,110,126,127,127,2,1,-24
71488204602,3,127,127,127,127,2,2,-18
71488204602,0,127,127,121,127,7,-8,17
71488206255,1,-49,-116,-126,-125,6,2,36
71488206255,-4,-109,-104,-102,-100,0,-2,11
71488219048,0,-43,-38,-3,-36,-4,0,-23
71488219048,-5,83,86,86,83,-2,-2,-17
71488225819,3,33,37,17,35,5,7,17
71488225819,-2,0,-45,-59,-56,4,-1,26
71488241407,-2,-107,-128,-128,-128,4,-3,44
71488241407,1,-128,-128,-128,-128,-8,4,-6
71488248346,-4,74,97,114,109,-3,-1,-32
71488248346,2,125,127,127,127,2,-5,-20
71488264682,-1,126,127,114,127,6,5,13
71488264682,-1,-28,-64,-106,-92,5,4,46
71488266297,1,-104,-128,-128,-128,2,-8,35
71488266297,0,-126,-128,-117,-128,-5,1,-2
71488279052,0,59,84,103,90,-5,-1,-38
71488279052,-1,113,127,127,127,1,-3,-14
71488285816,-2,84,83,73,72,4,-1,11
71488285816,2,24,5,-45,-27,5,-2,33
71488301464,-3,-56,-110,-128,-128,0,-2,38
71488301464,2,-127,-128,-128,-128,2,-4,35
71488308380,-4,-126,-128,-128,-128,-6,1,4
71488308380,-5,67,106,127,127,-3,1,-40
71488324647,2,103,107,95,97,-1,-1,-9
71488324647,5,93,98,75,104,5,0,12
71488326235,5,-14,-59,-93,-85,5,-4,33
71488326235,-1,-108,-112,-120,-118,-1,4,33
71488339774,0,-83,-84,-63,-87,-6,6,-13
71488339774,-5,95,97,102,99,3,-4,-25
71488345786,2,100,127,126,127,5,0,3
71488345786,2,40,10,-34,-11,3,-8,21
71488360861,0,-39,-81,-122,-116,7,-3,44
71488360861,-1,-128,-128,-128,-128,-6,-3,15
71488368316,-4,62,78,99,88,-5,-2,-40
71488368316,-2,127,127,127,127,2,-5,-23
71488377355,-1,127,127,127,127,5,4,-8
71488377355,2,126,127,117,121,7,-2,6
71488383348,0,39,31,0,21,11,-5,17
71488383348,-1,-14,-41,-77,-69,5,-2,32
71488399808,1,-59,-111,-128,-113,0,4,39
71488399808,-5,-128,-128,-128,-128,-4,-2,26
71488405894,2,-1,13,68,41,-6,0,-30
71488405894,-1,113,123,127,127,-2,0,-27
71488420852,-2,125,127,127,127,4,2,-11
71488420852,0,127,127,127,127,6,-2,-10
71488428345,-4,79,85,49,84,2,3,29
71488428345,1,-13,-31,-83,-51,2,1,24
71488437348,-2,-89,-91,-96,-92,4,-4,17
71488437348,-5,13,44,76,63,-5,-1,-27
71488443299,-1,81,72,75,66,-2,-2,-24
71488443299,2,127,127,127,127,2,-3,-32
71488459795,0,127,127,127,127,2,3,-5
71488459795,1,109,107,94,101,6,0,19
71488465855,-4,-7,-32,-78,-65,5,1,27
71488465855,1,-54,-92,-86,-86,3,0,38
71488480871,-1,-124,-127,-128,-128,-1,-5,14
71488480871,2,-18,0,45,7,-2,0,-29
71488488334,2,72,101,115,105,-3,1,-24
71488488334,1,114,124,127,127,-1,7,-29
71488497332,-4,127,127,127,127,-1,1,-23
71488497332,-2,127,120,103,116,0,-1,-2
71488503310,1,44,35,5,29,3,-1,25
71488503310,1,-34,-51,-85,-77,9,-2,37
71488519834,3,-54,-85,-93,-88,5,-7,26
71488519834,-3,-111,-128,-128,-128,-5,-3,5
71488525827,-2,1,20,70,42,-2,5,-36
71488525827,-1,100,121,127,127,-3,8,-31
71488540867,5,127,127,127,127,0,4,-25
71488540867,4,83,89,42,82,6,4,29
71488548285,3,-53,-101,-128,-128,1,-11,37
71488548285,-4,-115,-109,-103,-105,0,3,26
71488557378,-3,-107,-110,-98,-118,-7,-4,-19
71488557378,2,35,65,87,78,-5,0,-24
71488563343,-1,107,107,114,108,0,-2,-25
71488563343,2,127,127,127,127,0,-9,-7
71488579829,0,26,-1,-59,-27,4,-3,34
71488579829,-6,-66,-114,-128,-128,7,0,47
71488585892,-2,-128,-128,-128,-128,-3,-7,12
71488585892,-1,-57,-66,-20,-60,-7,1,-23
71488600790,-2,99,127,127,127,1,-3,-40
71488600790,4,127,123,119,119,2,11,1
71488608318,-3,43,26,-19,3,3,1,19
71488608318,1,-45,-97,-114,-108,1,-2,35
71488617370,1,-72,-114,-117,-117,-2,-2,34
71488617370,-1,-128,-128,-128,-128,-2,-9,31
71488623264,0,-56,-65,-24,-54,-9,1,-17
71488623264,1,83,109,104,109,-1,16,-13
71488639784,-4,120,127,127,127,5,-10,-8
71488639784,0,66,47,0,32,7,-9,19
71488645846,1,-38,-74,-112,-107,8,-2,48
71488645846,1,-71,-128,-128,-128,4,-11,29
71488660850,-4,-108,-120,-120,-123,-2,-3,18
71488660850,0,-24,-12,28,-1,-4,5,-29
71488668344,-1,104,115,116,117,0,5,-22
71488668344,-2,127,127,127,127,5,-3,-14
71488677322,0,127,127,127,127,7,0,8
71488677322,6,27,27,-16,11,7,-7,28
71488683329,2,-20,-60,-101,-79,4,-1,31
71488683329,-1,-71,-99,-111,-100,1,-2,38
71488699850,0,-128,-128,-128,-128,-7,-3,15
71488699850,-3,38,69,83,77,-7,-5,-45
71488705854,0,126,127,127,127,0,2,-6
71488705854,0,118,127,119,127,5,-4,4
71488720868,1,51,60,15,50,5,8,32
71488720868,-1,-28,-75,-128,-94,8,-6,37
71488728262,-2,-53,-116,-121,-111,5,-5,43
71488728262,-4,-128,-128,-128,-128,-6,-3,6
71488737353,-1,37,72,111,89,-6,-1,-39
71488737353,1,115,113,117,115,0,-6,-21
71488743334,-1,97,104,94,126,4,15,16
71488743334,2,9,-13,-62,-40,8,-5,22
71488759865,2,-36,-74,-123,-115,1,-3,31
71488759865,-2,-125,-128,-128,-128,1,5,34
71488765790,1,-48,-26,18,-28,-6,-10,-26
71488765790,0,104,113,127,122,1,0,-29
71488780869,-3,127,127,127,127,5,6,-6
71488780869,0,127,127,127,127,13,-4,-1
71488788356,3,12,0,-30,-11,3,-10,33
71488788356,-1,-63,-86,-93,-89,0,-12,28
71488797264,-1,-93,-107,-102,-109,-3,-17,-6
71488797264,-1,70,54,51,49,-1,-5,-10
71488810834,-1,102,124,127,127,6,-1,-7
71488810834,-1,64,63,19,33,0,-9,11
71488819807,0,-39,-100,-115,-106,7,0,62
71488819807,2,-128,-128,-128,-128,-11,7,7
71488825833,-3,40,68,72,69,-7,-2,-45
71488825833,1,127,127,127,127,4,12,-18
71488840829,4,127,127,127,127,5,0,-19
71488840829,0,99,100,79,101,8,9,33
71488848403,0,-67,-114,-116,-117,8,2,30
71488848403,-3,-122,-119,-110,-119,-11,3,-8
71488857255,-3,61,91,89,100,-2,5,-37
71488857255,-4,112,118,127,122,1,0,-13
71488870812,0,16,-1,-46,-24,2,-7,23
71488870812,3,-77,-89,-90,-86,4,7,32
71488879754,-3,-68,-53,-17,-65,-11,7,-16
71488879754,-1,78,76,73,73,2,-4,-15
71488885885,-1,-12,-32,-73,-50,4,2,25
71488885885,-1,-69,-65,-71,-66,3,-7,14
71488900836,-2,21,31,53,50,-4,0,-20
71488900836,-4,56,57,63,56,2,3,-8
71488908339,-1,18,16,-13,-1,-5,0,13
71488908339,-3,-26,-48,-55,-47,6,1,30
71488917375,-1,-117,-128,-128,-128,-3,-9,4
71488917375,-3,3,22,25,24,-5,4,-11
71488930813,3,109,127,127,127,6,-2,-10
71488930813,0,56,29,-13,10,2,5,12
71488939854,1,-65,-87,-110,-96,7,-1,46
71488939854,-2,-98,-101,-71,-85,-5,-4,-12
71488945809,0,62,62,80,65,-4,1,-27
71488945809,3,127,127,127,127,6,-3,-14
71488960833,-1,66,29,-29,20,13,1,34
71488960833,0,-128,-128,-128,-128,5,0,54
71488968303,-1,-123,-116,-78,-108,-8,0,-18
71488968303,1,110,121,127,125,-4,-2,-40
71488977352,2,118,127,118,127,3,-7,7
71488977352,3,-15,-57,-101,-70,6,0,39
71488990830,-3,-128,-128,-128,-128,0,-2,27
71488990830,-1,-1,38,70,52,-5,0,-31
71488999874,1,116,119,127,125,3,3,-7
71488999874,1,35,20,-31,3,6,2,29
71489005831,4,-55,-83,-92,-80,2,-2,28
71489005831,-3,-124,-128,-128,-128,-9,-4,0
71489020770,-3,66,85,85,84,-3,-1,-32
71489020770,3,106,120,127,125,3,5,-7
71489028333,-4,-23,-59,-61,-58,-1,0,22
71489028333,-1,-40,-42,-21,-41,-4,-3,-7
71489037367,1,52,39,42,38,-1,1,-10
71489037367,-6,22,7,-16,17,1,-2,9
71489059681,0,6,-24,-27,-25,2,0,20
71489059681,0,-86,-101,-103,-105,-3,0,7
71489061337,-4,36,33,32,33,0,-2,-12
71489061337,3,89,108,109,109,0,1,-11
71489065848,2,18,4,-32,-26,9,-2,25
71489065848,-3,-79,-91,-111,-95,1,-6,31
71489080817,-2,-6,25,35,28,-3,-1,-23
71489080817,2,71,68,84,66,2,-3,-7
71489088366,-1,21,-5,-31,-19,-1,-2,10
71489088366,3,-32,-39,-58,-45,-2,2,15
71489097330,0,18,17,15,15,2,10,-7
71489097330,-4,16,41,31,41,-2,1,4
71489110804,-3,20,7,1,9,2,-3,11
71489110804,-4,-23,-37,-43,-38,1,-8,6
71489119875,-2,24,8,2,6,-4,-2,6
71489119875,-3,46,42,55,39,4,-5,-9
71489125835,1,64,61,24,51,0,-5,3
71489125835,0,1,-32,-44,-35,7,-7,35
71489140850,-4,-128,-128,-128,-128,-8,4,10
71489140850,0,31,28,26,17,-6,-6,-25
71489148338,0,125,127,127,127,5,1,-16
71489148338,0,77,43,30,35,4,2,31
71489157288,2,-121,-128,-128,-128,-2,0,15
71489157288,-1,-19,-1,4,2,-6,1,-13
71489170767,1,94,117,127,127,1,2,-32
71489170767,0,116,120,78,109,11,0,7
71489179880,1,-69,-94,-109,-97,3,-5,48
71489179880,0,-123,-104,-69,-128,-4,-5,-8
71489185839,-2,78,96,112,100,-5,-2,-41
71489185839,-1,127,127,127,127,4,6,-7
71489200919,3,-4,-43,-70,-58,5,-8,43
71489200919,-6,-128,-128,-128,-128,-10,-6,-4
71489208412,-1,60,74,82,73,3,10,-15
71489208412,4,91,95,89,104,5,-1,-5
71489217336,-2,8,-25,-37,-36,1,-6,22
71489217336,-3,-115,-128,-128,-128,-4,-2,22
71489230805,-5,19,32,33,31,-3,-1,-17
71489230805,-5,96,104,95,115,0,4,-21
71489239853,3,37,14,-16,3,6,1,23
71489239853,0,-89,-105,-128,-112,8,-3,38
71489245857,-1,-37,-8,18,12,-7,-1,-20
71489245857,-2,93,100,116,98,-1,6,-23
71489260805,-2,76,88,67,82,5,-3,12
71489260805,2,-29,-53,-63,-51,11,5,38
71489268356,-1,-56,-39,-11,-37,-6,-5,-18
71489268356,-5,54,55,60,49,0,-5,-16
71489277316,0,91,112,96,113,5,-1,1
71489277316,1,3,-27,-34,-26,0,-2,24
71489290840,-4,-96,-99,-89,-101,-9,-4,1
71489290840,0,34,32,32,29,-3,7,-21
71489299807,1,127,127,127,127,2,-5,-21
71489299807,4,66,17,9,19,6,6,27
71489305805,4,-114,-128,-128,-128,-1,-8,25
71489305805,-5,8,21,38,37,-6,4,-30
71489320880,1,87,91,105,98,2,3,-16
71489320880,-1,27,20,-20,0,2,-6,11
71489328415,1,-65,-76,-90,-86,-5,-3,12
71489328415,5,20,16,11,11,-1,-7,-5
71489343293,1,44,56,58,72,1,1,2
71489343293,-3,41,12,5,6,3,2,8
71489350880,0,-70,-87,-106,-88,5,-1,34
71489350880,-4,-26,5,10,4,-5,-4,-9
71489366493,-4,67,72,85,82,1,3,-7
71489366493,1,65,68,38,62,1,-1,9
71489367270,-5,-37,-60,-78,-63,6,-3,30
71489367270,3,-97,-98,-61,-95,-6,-2,-5
71489380858,-2,44,42,48,37,-2,-2,-20
71489380858,-3,101,118,115,123,4,-2,-1
71489388358,-1,24,-6,-8,-6,9,1,28
71489388358,-1,-80,-86,-68,-93,1,-5,0
71489411504,0,11,1,3,-1,-4,0,-9
71489411504,5,79,95,88,105,3,1,-8
71489412310,-2,17,8,0,7,-1,-4,18
71489412310,-2,-42,-41,-36,-52,2,-3,6
71489426474,1,8,0,3,-4,-2,-2,-7
71489426474,-1,70,70,57,92,1,3,-9
71489427332,3,41,16,-4,5,4,-9,19
71489427332,-1,-79,-88,-91,-85,-4,-2,7
71489440897,3,17,22,24,16,-3,-11,-17
71489440897,-4,78,99,106,104,-1,16,13
71489448402,3,18,-9,-12,-6,4,3,16
71489448402,-4,-11,-15,-11,-19,-6,-11,-9
71489463359,0,28,21,19,20,3,-7,1
71489463359,5,35,41,24,44,-2,-25,-13
71489470805,-3,24,0,-10,0,5,-9,27
71489470805,2,-23,-35,-40,-35,-1,30,10
71489486527,-4,21,17,17,16,0,-4,-9
71489486527,-1,75,87,95,82,2,-8,-11
71489487313,5,48,21,12,21,1,9,17
71489487313,2,-65,-87,-115,-86,5,-25,40
71489500820,0,-79,-60,-27,-44,-8,6,-10
71489500820,-6,54,49,70,44,-3,-9,-26
71489508335,0,61,54,19,54,1,-11,4
71489508335,-1,-11,-36,-61,-36,8,0,48
71489523362,2,-33,-21,-16,-13,-2,-7,-11
71489523362,-3,29,34,45,30,-7,-12,-12
71489530896,-4,46,41,32,33,-1,-28,-9
71489530896,-3,-9,-23,-42,-31,-1,-27,14
71489546565,-2,18,12,-8,6,2,-32,6
71489546565,-3,39,39,61,43,2,-26,-18
71489547317,-2,80,67,37,45,-1,-13,2
71489547317,1,-30,-53,-69,-56,6,-12,42
71489560847,-34,-108,-114,-81,-116,-7,-5,-25
71489560847,-3,41,39,42,36,-6,-16,-14
71489568405,6,27,40,16,19,-1,-17,16
71489568405,14,-2,-10,-26,-14,7,-30,28
71489583316,2,37,43,32,38,-4,-60,2
71489583316,-1,-11,-7,-27,-10,-2,-114,33
71489590816,-5,-28,-32,-8,-22,-4,-124,4
71489590816,-7,0,-2,-7,-4,-12,-47,1
71489599858,6,57,36,10,28,3,33,10
71489599858,1,33,33,35,37,6,78,-2
71489605845,2,73,76,47,72,5,90,3
71489605845,-4,12,-31,-44,-34,3,70,26
71489622341,8,-128,-128,-128,-128,3,64,42
71489622341,6,-124,-127,-86,-128,-9,62,-31
71489628366,-5,81,116,127,126,-4,57,-66
71489628366,0,127,127,127,127,-1,40,-58
71489643377,4,127,127,125,127,3,27,-20
71489643377,-2,54,35,15,40,3,22,16
71489650838,-1,-21,-24,-56,-35,-1,29,4
71489650838,6,7,-29,-35,-27,5,12,11
71489659896,5,-117,-128,-128,-128,3,15,55
71489659896,1,-128,-128,-128,-128,-8,69,-4
71489665887,-5,102,122,127,127,-1,125,-48
71489665887,3,127,127,127,127,4,127,-31
71489682374,-4,15,-19,-65,-20,4,127,34
71489682374,-1,-100,-128,-128,-128,2,127,28
71489688336,1,-128,-125,-113,-119,-7,122,8
71489688336,-4,43,80,100,87,-4,68,-43
71489703354,0,106,111,118,114,5,2,-9
71489703354,-3,-8,-54,-92,-71,0,-49,34
71489710855,-3,-86,-97,-97,-94,-6,-71,34
71489710855,1,-19,17,41,21,2,26,-30
71489719830,10,71,74,86,72,-1,7,-25
71489719830,-2,100,110,76,104,10,-17,6
71489725899,-1,-46,-60,-47,-56,5,-6,38
71489725899,-3,-33,-19,-23,-35,-4,61,-11
71489742376,5,57,57,53,55,-2,117,8
71489742376,2,59,66,37,63,1,127,9
71489748395,3,-2,-36,-32,-32,0,95,18
71489748395,-5,-117,-128,-128,-128,1,-97,57
71489763394,-3,-128,-128,-128,-128,-6,-106,40
71489763394,2,-73,-103,-124,-103,-1,-128,43
71489770856,8,-53,-86,-82,-85,1,-118,4
71489770856,2,-44,-121,-128,-116,1,74,36
71489779828,-1,12,3,-19,5,-1,94,53
71489779828,0,78,70,79,74,-8,16,-8
71489793366,1,127,127,127,127,-4,-27,-13
71489793366,-3,123,127,127,127,-7,-118,71
71489802270,-5,-128,-128,-128,-128,-9,-128,44
71489802270,-6,-128,-128,-128,-128,6,-65,75
71489808306,3,87,91,90,96,14,-86,44
71489808306,-6,-9,-7,13,-7,-3,-110,13
71489823322,-1,-80,-91,-99,-92,6,-70,-8
71489823322,7,101,100,114,95,-2,-56,-109
71489830884,-3,-104,-94,-83,-103,-14,-48,-55
71489830884,6,63,31,0,40,13,-43,-23
71489839868,-2,113,116,123,108,22,-32,108
71489839868,-3,56,50,54,56,30,-23,90
71489853393,-8,-12,-17,-23,1,-11,-16,13
71489853393,-10,81,80,84,56,-24,-3,-14
71489862352,-8,-128,-128,-128,-128,-6,-22,66
71489862352,9,120,120,118,121,-18,-13,-34
71489868398,3,127,127,127,127,-2,9,-86
71489868398,7,114,101,93,108,10,-9,-128
71489883330,8,127,127,127,127,-12,-115,-128
71489883330,-13,-126,-117,-111,-128,-8,-115,-95
71489890867,-4,-96,-94,-93,-68,10,-122,-110
71489890867,4,29,25,27,22,2,-128,-20
71489899858,13,76,67,48,95,8,-123,71
71489899858,-3,82,85,91,63,-9,-111,120
71489913341,2,21,30,41,-9,-12,-94,48
71489913341,14,116,106,98,111,1,-87,46
71489922356,17,25,15,9,32,-4,0,-13
71489922356,0,-125,-128,-110,-128,-10,-39,-128
71489928375,2,-70,-74,-74,-73,-2,-100,-86
71489928375,-6,29,36,46,17,-11,-128,-39
71489943361,-14,80,83,85,35,6,-128,26
71489943361,-12,-91,-107,-109,-84,-108,-95,-77
71489950771,-5,127,127,127,115,90,79,-53
71489950771,-16,-70,-86,-46,-104,-25,103,-58
71489960573,-9,-29,-48,9,-94,89,127,-105
71489960573,-22,127,126,-8,-7,-70,127,-3
71489973334,-25,51,35,-34,-36,65,118,67
71489973334,-19,-6,-38,-128,-45,-84,127,80
71489982327,-20,-46,-59,-73,-10,72,106,75
71489982327,18,98,81,-49,55,21,76,108
71489988320,-2,-77,-96,-77,-31,23,36,87
71489988320,-11,-68,-62,-81,-33,66,77,107
71490003314,-11,-112,-109,-69,5,-69,42,35
71490003314,-1,45,50,-32,97,40,66,45
71490010855,7,127,127,3,127,-29,41,70
71490010855,5,-113,-114,-57,-17,-1,68,44
71490019819,-2,-107,-103,-26,-7,34,118,-12
71490019819,-2,-128,-128,4,-100,51,127,31
71490033345,11,-38,-37,-14,-13,-37,99,119
71490033345,-24,-72,-72,-103,-110,-2,72,95
71490043020,-16,-5,-2,-78,-43,-128,17,61
71490043020,-4,48,44,84,49,-29,3,80
71490048371,18,46,33,12,39,-62,-11,108
71490048371,28,-26,-22,-62,-13,10,-40,71
71490063358,11,-15,-21,-86,-42,24,-12,31
71490063358,-2,-72,-69,-79,-59,23,-16,40
71490070836,-24,-108,-106,-80,-97,-10,-24,-23
71490070836,-13,-40,-42,-47,-53,18,-32,-56
71490085827,-15,47,45,40,-8,-12,-37,-111
71490085827,10,45,44,60,54,18,-41,-88
71490093331,14,66,67,85,73,-3,-21,-77
71490093331,27,39,38,35,50,15,-17,-25
71490102353,5,-30,-30,-65,-51,-1,-16,0
71490102353,-7,-98,-111,-91,-100,-35,-4,21
71490108375,-15,-64,-68,-41,-67,-24,19,4
71490108375,-11,-16,-17,-27,-20,-7,44,2
71490124853,22,18,24,18,10,-10,75,1
71490124853,20,-20,-33,-37,-18,31,121,36
71490130878,14,-36,-56,-68,-41,13,50,27
71490130878,25,25,13,7,11,-9,-16,-1
71490139879,4,36,42,22,28,0,-81,-30
71490139879,-33,-52,-42,-21,-40,24,-79,-12
71490153446,0,29,48,60,32,-5,-39,-11
71490153446,-23,-5,24,35,2,6,-97,-53
71490162333,-22,9,-32,-43,-16,-4,-70,1
71490162333,9,46,57,54,40,0,-111,-25
71490168324,18,45,63,80,50,-7,-67,-21
71490168324,9,-6,6,3,-3,4,-61,-16
71490183390,-5,-15,-20,-18,-33,-12,-39,-28
71490183390,-8,3,2,4,11,-1,-12,-41
71490190832,1,-36,-46,-47,-40,0,0,-28
71490190832,-9,-59,-41,-34,-45,6,28,-59
71490199929,-10,-16,-27,-27,-35,-11,6,-24
71490199929,4,-17,-26,-20,-44,4,15,-36
71490213339,-6,-6,2,7,-20,5,31,-13
71490213339,0,20,20,16,5,4,23,17
71490222335,4,5,0,2,-10,-2,6,-11
71490222335,3,22,25,25,28,3,-15,-9
71490228410,-5,-8,-3,3,3,3,-24,-2
71490228410,-3,-17,-50,-50,-55,-6,4,19
71490243322,4,8,11,8,2,9,-5,7
71490243322,-5,-2,3,5,5,7,-9,17
71490250872,-13,5,4,9,1,-3,-8,-9
71490250872,-17,-3,-14,-13,-27,-2,1,-2
71490259974,-8,-3,-9,-6,2,1,26,-11
71490259974,-9,-2,-44,-40,-7,-3,32,-20
71490273362,-4,4,-10,-23,-2,-6,16,-18
71490273362,4,12,1,-1,15,0,17,2
71490282346,-5,-2,15,14,3,1,14,8
71490282346,6,-2,-2,-2,-15,0,3,6
71490288328,-1,-8,-16,-13,-8,-2,-11,10
71490288328,-3,-2,6,-7,-6,-1,-15,17
71490303497,1,-6,13,13,4,-3,-8,12
71490303497,-6,-7,-14,-10,-15,-2,-4,-1
71490310887,-6,0,-3,2,-2,0,-8,-13
71490310887,1,8,4,4,11,-5,-2,-11
71490319844,-1,4,-22,-21,-21,1,3,0
71490319844,-1,6,7,3,5,1,-5,3
71490333361,-1,-9,-38,-52,-29,-5,0,3
71490333361,-8,-19,2,-1,11,3,8,4
71490342375,-2,-1,1,-4,-1,-2,3,-8
71490342375,-3,-7,7,6,8,-7,-1,10
71490356579,-1,-4,20,2,7,-5,-6,13
71490356579,-3,-1,-14,-33,-25,-3,-7,3
71490363369,-11,-13,1,-4,-4,-2,2,23
71490363369,-3,1,13,10,5,1,2,-2
71490370900,7,14,8,14,1,0,-3,-11
71490370900,1,-4,-49,-42,-29,-1,-4,5
71490385938,-11,-9,7,19,0,3,-6,-11
71490385938,2,1,-3,-7,-5,5,-3,-7
71490393392,-7,-8,-8,18,8,-2,1,2
71490393392,-7,-10,-12,10,2,-2,-2,10
71490402322,1,-2,6,3,3,-7,-12,-5
71490402322,-6,-8,0,5,1,-4,-5,-11
71490408981,-4,-5,-8,-4,-12,-5,-12,-34
71490408981,0,7,8,28,10,3,-2,-36
71490423398,-6,-1,-16,-12,-7,-1,-2,-28
71490423398,-4,-7,0,-1,-1,-3,-3,-17
71490431506,-3,-5,-1,-1,1,-3,3,-20
71490431506,5,12,-3,-10,-8,-6,-6,-13
71490445862,7,4,2,-6,-10,0,-5,-4
71490445862,6,9,-24,-35,-33,2,1,-4
71490453379,6,8,-1,-8,-15,3,-5,16
71490453379,-20,-22,-29,-19,-18,-2,0,22
71490478784,0,-3,14,18,7,-1,0,3
71490478784,-4,-8,-4,11,6,-2,4,13
71490479434,-4,-7,27,27,27,0,7,24
71490479434,2,1,-47,-51,-51,4,4,23
71490483333,-10,-12,-38,-42,-32,-6,9,14
71490483333,-5,-11,-12,4,5,-5,-1,3
71490490890,-16,-23,-76,-50,-38,-3,5,18
71490490890,-13,-14,-27,-30,-22,-2,-5,-2
71490505829,13,11,-18,-16,-20,-7,-1,-5
71490505829,12,8,-66,-67,-69,4,7,19
71490513383,-3,1,-28,-28,-35,-6,0,-3
71490513383,13,17,34,31,37,1,4,-1
71490522304,8,9,-15,-22,-33,7,-20,-1
71490522304,-6,-5,46,36,54,1,31,13
71490528357,7,-3,-46,-48,-51,1,8,21
71490528357,-8,-12,47,43,54,-2,-4,-16
71490544876,-2,-2,-57,-32,-53,0,31,15
71490544876,15,12,52,47,47,6,-33,-16
71490550851,-16,-21,-41,-27,-48,-3,-23,-26
71490550851,24,36,12,9,0,-2,68,23
71490565869,-14,-19,-10,-8,-2,-11,13,-30
71490565869,-3,-1,-68,-64,-78,-3,-14,-12
71490573360,-6,3,59,58,61,1,-22,-32
71490573360,-25,-31,-54,-57,-52,-2,-16,6
71490589091,7,1,0,18,8,0,-38,12
71490589091,18,8,34,33,48,-2,-28,-14
71490589812,1,3,51,15,53,-2,71,-26
71490589812,0,-3,54,17,42,3,-16,-18
71490604807,-24,-11,-6,-35,-11,0,15,3
71490604807,-40,-24,-33,-65,-40,-7,-39,-28
71490610825,-25,-16,-35,-50,-37,0,-43,-7
71490610825,-28,-11,-91,-79,-104,-2,0,36
71490625834,-12,-5,-115,-63,-107,4,14,38
71490625834,-19,-3,-86,-61,-100,-2,-1,21
71490633358,-21,1,-126,-76,-123,-8,19,5
71490633358,-27,-13,-45,-52,-47,-5,31,-36
71490649034,-20,-10,-18,-30,-27,-1,26,15
71490649034,-25,-12,-39,-43,-36,-5,45,4
71490649834,-4,-1,-30,-20,-31,5,18,44
71490649834,-2,-1,-92,-28,-86,4,-3,64
71490663338,-11,-5,-74,-18,-65,-2,2,64
71490663338,-18,-12,-22,-16,-24,-3,37,62
71490670831,3,-1,-20,-3,-15,1,-18,41
71490670831,21,10,-24,33,-8,-1,-47,5
71490685888,41,19,91,87,92,4,-21,-25
71490685888,11,2,66,33,68,1,-33,-45
71490693363,14,0,83,34,87,-4,-44,-45
71490693363,-15,-8,47,-20,20,-4,9,-59
71490708399,9,5,127,48,127,-5,57,7
71490708399,1,2,81,30,78,-8,-9,-71
71490724740,3,7,-28,9,-40,-2,-19,-13
71490724740,34,22,44,66,36,2,-86,-52
71490726341,-15,-11,16,-6,21,4,-35,-12
71490726341,24,18,63,51,73,5,5,22
71490730891,-19,-24,-4,-19,13,-2,-5,10
71490730891,-14,-18,13,-8,47,-6,-18,-27
71490747357,11,17,-5,21,0,5,24,21
71490747357,-2,-5,-39,8,-27,0,0,15
71490753415,11,9,-31,-18,-40,0,127,101
71490753415,-4,-9,21,-4,36,-3,5,-8
71490768389,-12,-20,4,-6,18,-3,-2,-32
71490768389,-6,-16,-42,-6,-20,-3,66,13
71490776307,-7,-12,6,-4,27,4,-48,-30
71490776307,-17,-6,29,-3,43,6,28,39
71490807833,16,0,4,2,6,0,-17,-6
71490807833,-4,-16,-20,11,-20,-1,-11,-7
71490808586,3,4,-13,-17,-22,1,17,-4
71490808586,0,2,-3,6,10,-2,54,42
71490810234,-29,3,-13,-13,7,-10,18,19
71490810234,-12,11,-31,-13,-18,-2,12,11
71490813387,-1,-17,-35,-34,-26,-13,-6,-2
71490813387,3,6,25,36,41,-3,-20,-24
71490837253,27,22,51,46,39,2,-66,-64
71490837253,13,-27,-2,-21,-19,6,-35,14
71490837949,9,15,87,86,71,7,-55,-16
71490837949,14,44,34,35,40,5,34,22
71490851565,6,11,70,44,41,1,-6,-24
71490851565,0,-31,-46,-43,-46,1,-3,25
71490852326,12,42,38,40,43,-11,-73,-49
71490852326,-29,-44,-30,-30,-41,-9,-77,-3
71490882274,-33,-85,-115,-106,-107,-3,-82,29
71490882274,-25,-76,-62,-66,-65,1,-59,29
71490883031,-21,-73,-38,-54,-60,0,-38,47
71490883031,-3,-84,-88,-94,-88,8,-98,36
71490888356,-17,-73,-51,-60,-68,-3,-105,21
71490888356,-23,-50,-35,-42,-41,0,-112,-26
71490897208,-21,-46,-22,-41,-39,-6,-66,-9
71490897208,-8,-61,-23,-33,-45,-6,-38,31
71490911516,-26,-37,-25,-31,-25,-10,-30,-37
71490911516,-1,8,45,37,10,-9,-7,-41
71490912306,20,119,127,127,127,-2,121,-29
71490912306,25,41,3,32,24,0,115,32
71490925866,-4,-60,-44,-43,-56,-12,127,38
71490925866,10,124,127,127,127,-6,127,-115
71490933394,-7,-75,-80,-82,-74,-1,116,10
71490933394,10,96,102,101,90,-4,123,-90
71490948312,38,127,93,100,116,12,59,-28
71490948312,13,-63,-100,-98,-85,9,31,66
71490956624,-20,-87,-59,-70,-69,-2,-18,-41
71490956624,16,112,110,113,110,4,-62,-51
71490971546,16,-52,-80,-65,-55,12,15,116
71490971546,-1,32,86,79,62,-8,-76,-19
71490972342,22,67,8,31,46,6,-26,50
71490972342,-11,-96,-73,-84,-81,-12,105,-28
71490985857,17,44,-17,5,3,4,-22,-10
71490985857,-3,62,76,84,78,0,40,-43
71490993391,-4,-116,-128,-125,-128,1,54,104
71490993391,1,123,127,127,127,2,-11,-1
71491008420,-8,-70,-31,-47,-59,-16,-21,-38
71491008420,5,-79,-122,-120,-118,6,-44,101
71491017216,17,127,127,127,127,-2,-40,-71
71491017216,-14,-128,-119,-128,-128,-10,-16,-25
71491031534,-2,-23,-6,-8,-11,5,-29,17
71491031534,3,-108,-117,-116,-111,-1,-51,43
71491032330,2,-1,-21,-10,-7,3,-90,6
71491032330,10,127,110,113,117,2,-30,9
71491045891,-3,-5,41,12,-9,-4,56,-77
71491045891,12,-77,-76,-79,-75,-12,37,25
71491053385,-4,63,77,74,74,-5,55,-41
71491053385,-3,30,64,66,58,-3,34,-98
71491068390,0,-13,54,39,-10,-12,8,-96
71491068390,-15,-9,18,12,-17,-14,-19,-101
71491076558,-15,-128,-125,-128,-128,-13,26,-15
71491076558,-6,-128,-128,-128,-128,-5,-8,16
71491091576,-5,-60,-32,-13,-70,-14,12,-30
71491091576,3,-74,-68,-72,-85,-10,107,8
71491092367,-1,55,103,103,39,6,70,-97
71491092367,5,88,103,96,88,7,110,-83
71491105861,-2,127,126,127,127,-4,127,-21
71491105861,4,127,127,127,127,1,126,-44
71491113386,2,21,-16,11,23,3,-89,45
71491113386,-4,-128,-128,-128,-128,6,-121,73
71491128406,-2,-105,-118,-113,-104,0,-119,26
71491128406,5,111,103,109,112,1,47,-100
71491136595,-2,-24,-34,-43,-11,4,15,20
71491136595,3,-85,-80,-82,-90,-7,-86,42
71491151595,1,-70,-128,-120,-79,10,-128,84
71491151595,2,2,-30,-20,4,0,-128,92
71491152359,-1,-114,-112,-114,-104,-3,-107,55
71491152359,2,-106,-124,-118,-113,-11,-128,90
71491165872,-5,70,102,93,77,-2,-25,-65
71491165872,-5,-30,-54,-52,-25,4,-18,70
71491173407,-1,-79,-75,-76,-80,-2,-7,-34
71491173407,3,100,103,99,100,-45,108,-53
71491188356,-8,-107,-128,-124,-104,55,32,63
71491188356,2,59,86,87,29,-9,94,-88
71491196501,-1,77,66,72,91,-93,-19,31
71491196501,-7,-128,-125,-127,-128,43,-82,12
71491211561,2,127,127,127,127,49,63,-56
71491211561,-2,-128,-128,-128,-128,20,-128,82
71491212330,-2,82,100,90,78,62,94,-73
71491212330,-1,-60,-67,-65,-71,27,-9,63
71491225861,3,50,59,61,51,-128,95,-101
71491225861,0,57,35,54,58,9,-91,11
71491233400,-6,-128,-128,-128,-128,90,-88,22
71491233400,1,127,127,127,127,-52,54,-84
71491248394,0,-128,-128,-128,-128,-25,-87,124
71491248394,-7,92,104,96,89,72,79,-55
71491256556,7,44,-16,-10,30,-60,-74,34
71491256556,1,-54,-48,-48,-45,-78,-9,1
71491271561,7,83,59,62,87,114,26,35
71491271561,4,-128,-128,-128,-128,-89,20,8
71491272326,0,127,127,127,127,-51,127,-72
71491272326,-2,-120,-128,-128,-127,71,-13,87
71491285857,-2,42,60,53,44,-19,79,-84
71491285857,4,106,103,103,106,42,63,13
71491294032,-4,-128,-124,-128,-128,-14,-53,60
71491294032,4,127,127,127,127,-6,91,-87
71491308286,2,-125,-128,-128,-128,-2,-98,83
71491308286,-5,86,99,90,93,-48,86,-83
71491316555,3,-79,-65,-75,-77,-41,-71,4
71491316555,-1,5,-34,-17,-12,127,-47,35
71491331444,-3,82,104,43,82,-21,48,-101
71491331444,-3,-128,-128,-128,-128,-7,-111,61
71491332233,-1,86,85,90,92,4,76,-46
71491332233,-1,-69,-65,-60,-75,-45,-15,21
71491353998,3,9,-38,18,-5,15,-31,37
71491353998,4,-7,-14,-26,-8,85,47,-8
71491354785,-3,-66,-63,-67,-71,40,-52,21
71491354785,2,70,77,72,78,-31,16,-39
71491368289,1,-62,-34,-57,-64,-17,-8,12
71491368289,2,105,112,100,104,5,77,-52
71491376505,1,-97,-89,-86,-97,7,-65,23
71491376505,0,66,22,57,47,3,-24,25
71491391489,-1,17,45,5,16,-19,40,-32
71491391489,1,-96,-101,-98,-95,-10,-83,59
71491392280,-2,-27,-15,-17,-12,17,-21,30
71491392280,-2,75,65,80,75,-23,61,-13
71491405785,-5,-16,-11,-7,-9,-4,31,-48
71491405785,-1,-128,-128,-128,-128,-12,-128,87
71491414002,-2,54,36,52,47,-8,-14,43
71491414002,0,23,21,13,28,0,18,-19
71491444725,-3,104,79,109,102,-6,40,-26
71491444725,0,102,106,91,101,-9,122,-119
71491445468,0,-57,-7,-58,-70,-1,-12,-25
71491445468,-4,-111,-93,-112,-117,-6,-67,61
71491467792,1,-63,-108,-73,-62,2,-105,67
71491467792,2,114,81,115,119,-76,24,-6
71491468602,3,127,127,127,127,60,127,-79
71491468602,-3,-6,29,-9,-7,-2,91,-46
71491470222,0,33,39,31,28,19,31,-29
71491470222,-3,-120,-103,-121,-122,9,-60,1
71491474070,0,-103,-128,-97,-104,-16,-128,52
71491474070,-2,25,-7,28,28,2,-43,20
71491488331,-3,53,53,58,51,7,20,18
71491488331,-3,94,100,91,90,6,110,-29
71491496569,-2,85,110,82,71,-5,127,-90
71491496569,-3,-60,-26,-63,-72,-3,-2,-6
71491511576,1,-101,-92,-96,-100,-21,-68,27
71491511576,-1,-112,-122,-119,-110,0,-128,59
71491512300,1,-17,-26,-21,-20,2,-66,64
71491512300,3,92,93,93,94,-3,50,-44
71491525859,0,99,84,104,101,2,77,-52
71491525859,3,104,118,98,98,28,112,-69
71491534122,0,-5,-11,-9,-30,0,27,-58
71491534122,-1,-107,-112,-108,-103,-14,-83,9
71491557333,0,-128,-128,-128,-112,-19,-128,88
71491557333,1,62,63,60,46,-1,62,-17
71491558056,-2,71,66,65,70,-17,80,-66
71491558056,0,-94,-85,-94,-101,-15,-65,15
71491572018,-1,-5,-5,-1,-9,-16,-38,46
71491572018,1,45,46,46,51,9,-6,26
71491579772,2,74,77,74,79,-10,69,-42
71491579772,-1,27,25,25,30,5,86,-62
71491585883,-2,-73,-38,-72,-96,-9,0,-34
71491585883,-1,-128,-118,-128,-128,-3,-128,60
71491594116,-3,-118,-128,-122,-112,7,-105,67
71491594116,-2,-51,-68,-60,-39,9,-56,56
71491608381,-2,19,17,16,13,14,7,12
71491608381,0,-12,-39,-33,4,-1,-25,21
71491616539,2,35,16,38,52,-11,-4,17
71491616539,-3,52,48,44,47,-7,27,-15
71491630888,2,46,24,33,52,21,32,-10
71491630888,-6,45,66,48,40,54,39,-10
71491639451,-2,-5,-15,-12,-1,20,22,-25
71491639451,3,66,61,53,58,5,57,-26
71491647326,-2,-6,-13,-4,-5,-11,38,-45
71491647326,-2,-50,-46,-30,-59,-10,-53,8
71491654031,-3,-70,-65,-63,-81,-6,-34,43
71491654031,-3,-69,-57,-69,-86,-1,-35,1
71491668299,-3,-94,-70,-68,-111,2,-43,-1
71491668299,-1,-128,-128,-125,-128,-20,-91,42
71491676519,0,-128,-125,-121,-128,-10,-118,26
71491676519,0,-128,-128,-113,-128,-16,-122,62
71491690845,1,-93,-97,-66,-97,-6,-103,49
71491690845,0,-79,-70,-45,-77,-17,-59,30
71491699000,-2,-35,-15,5,-43,-4,-31,28
71491699000,-2,-3,5,12,8,6,-9,-7
71491705774,5,10,17,8,14,0,14,-16
71491705774,-1,-12,3,-13,-11,-11,60,-55
71491713995,1,42,72,-36,36,0,76,-56
71491713995,0,38,59,-10,54,-2,54,-41
71491728399,-3,61,68,0,69,1,63,-23
71491728399,-1,79,70,-6,84,-16,71,-18
71491736613,0,60,52,2,64,-3,53,-27
71491736613,1,127,127,78,127,1,113,-48
71491750929,0,107,103,91,109,8,119,-56
71491750929,1,127,116,127,127,8,116,-60
71491759064,0,110,89,127,113,6,103,-52
71491759064,1,127,127,127,127,6,28,-39
71491774682,-6,73,73,74,57,-2,40,-38
71491774682,4,72,79,76,64,-2,17,-6
71491775470,-2,93,98,87,91,8,58,-18
71491775470,-5,96,71,94,98,1,65,-19
71491788405,-2,81,72,93,94,6,38,-5
71491788405,-9,72,67,80,74,-4,45,-12
71491796609,2,52,44,57,51,5,-6,8
71491796609,4,25,21,36,23,9,2,16
71491810834,-1,48,52,49,47,0,-17,5
71491810834,-1,41,43,49,41,0,-5,14
71491819136,-1,9,3,22,6,-8,-35,22
71491819136,-1,-96,-104,-85,-102,-5,-57,11
71491834782,2,-128,-125,-119,-128,1,-110,68
71491834782,1,-100,-103,-100,-95,-9,-81,37
71491835555,-4,-23,-21,-34,-45,-6,-7,-6
71491835555,-6,8,6,9,3,15,18,-18
71491848358,-2,48,42,41,47,-2,99,-54
71491848358,-2,80,85,71,74,9,78,-56
71491856558,2,35,37,43,43,-3,45,-16
71491856558,0,38,37,43,36,-9,-12,18
71491870909,1,-34,-35,-14,-7,-4,-52,39
71491870909,-3,-82,-86,-75,-70,-10,-96,58
71491879056,1,-93,-88,-80,-74,1,-112,58
71491879056,2,-121,-117,-119,-128,-7,-110,58
71491893367,0,-79,-84,-83,-83,-12,-69,15
71491893367,4,9,8,-6,-10,-7,22,-23
71491902298,-1,15,14,12,9,-13,35,-38
71491902298,-3,83,74,72,65,-9,84,-41
71491908367,-2,85,84,90,87,-2,71,-31
71491908367,3,63,61,61,59,6,24,8
71491917344,-2,-37,-32,-15,-16,4,-41,30
71491917344,-3,-65,-65,-57,-60,4,-82,54
71491930845,-1,-74,-73,-73,-63,3,-94,52
71491930845,-7,-109,-107,-111,-115,-4,-97,37
71491939785,0,-87,-87,-91,-94,-6,-75,22
71491939785,-1,-49,-49,-61,-70,-6,0,-18
71491962276,1,44,44,20,14,-2,41,-41
71491962276,0,33,33,34,33,3,56,-49
71491963903,-7,58,58,53,51,-3,70,-44
71491963903,5,102,104,109,116,1,76,-39
71491968389,-2,67,64,74,79,0,69,-26
71491968389,6,66,67,66,67,-3,20,4
71491977436,0,-20,-45,-4,-1,0,-25,22
71491977436,0,-61,-62,-52,-52,1,-68,42
71491990878,0,-82,-85,-78,-69,-2,-95,49
71491990878,0,-106,-105,-109,-105,-7,-97,42
71491999942,-2,-83,-79,-86,-88,3,-74,32
71491999942,-6,-89,-89,-86,-87,-15,-29,-23
71492014777,-2,21,41,9,-2,-3,38,-7
71492014777,-5,30,31,35,35,-10,51,-50
71492016300,3,58,61,53,49,-10,67,-52
71492016300,-2,105,118,97,96,-3,92,-7
71492028393,-2,59,59,69,70,9,65,-47
71492028393,-2,71,71,73,72,12,34,4
71492037396,3,39,44,49,65,13,-10,17
71492037396,3,-63,-65,-36,-33,8,-54,30
71492050848,2,-45,-47,-47,-49,-2,-88,50
71492050848,1,-77,-75,-70,-64,-1,-92,59
71492067425,-9,-102,-102,-100,-113,-5,-87,36
71492067425,-1,-77,-80,-86,-91,-4,-87,28
71492073418,-7,-82,-86,-81,-83,-7,-60,10
71492073418,-2,-73,-76,-75,-72,-5,-45,1
71492082394,-1,-55,-53,-60,-60,-7,-6,-17
71492082394,-1,43,42,40,39,-2,44,-38
71492088381,-1,55,51,51,47,0,73,-54
71492088381,-2,103,109,102,108,3,91,-50
71492097347,4,90,92,89,89,7,63,-21
71492097347,-5,8,-4,22,25,5,-19,19
71492110907,3,-29,-31,-27,-23,3,-53,36
71492110907,4,-57,-61,-51,-50,-2,-85,53
71492119812,-1,-93,-100,-98,-103,-6,-83,45
71492119812,1,-70,-71,-70,-67,-5,-61,12
71492142243,1,-27,-21,-36,-56,-8,14,-20
71492142243,-1,27,28,28,22,-1,54,-43
71492143809,-3,69,73,69,67,2,77,-46
71492143809,11,61,64,58,54,-6,64,-34
71492148317,-7,78,76,80,83,3,67,-21
71492148317,-4,76,76,75,72,8,25,-2
71492157336,-9,17,-10,26,33,4,-20,27
71492157336,-8,-37,-38,-36,-35,1,-64,44
71492170859,4,-85,-98,-81,-73,-1,-80,57
71492170859,-3,-105,-100,-107,-108,-7,-77,30
71492179841,5,-74,-72,-76,-77,-5,-50,3
71492179841,-8,22,24,21,16,8,34,-31
71492193282,-6,55,50,48,48,1,86,-50
71492193282,-4,94,100,87,85,1,97,-63
71492202307,5,95,91,98,97,-1,91,-39
71492202307,5,81,84,82,83,7,31,-27
71492208354,-6,27,21,36,44,-6,-23,16
71492208354,3,-84,-95,-77,-70,-4,-79,57
71492217359,-11,-65,-56,-67,-66,-3,-63,33
71492217359,-2,-93,-101,-93,-91,-5,-18,-7
71492230845,1,16,16,10,10,5,22,-36
71492230845,-1,25,22,24,22,2,81,-51
71492239808,2,90,90,67,91,4,97,-62
71492239808,1,77,77,75,81,4,54,-11
71492253365,3,-26,-26,-15,-19,1,-45,28
71492253365,0,-60,-61,-55,-55,-2,-77,41
71492262311,1,-78,-75,-72,-76,-3,-89,37
71492262311,-3,-57,-46,-66,-82,-4,-19,-7
71492268337,2,11,11,7,9,-3,30,-21
71492268337,0,71,61,78,75,-2,60,-34
71492277381,4,82,84,80,77,1,33,-10
71492277381,2,-25,-29,-8,-18,-3,-46,29
71492290973,4,-86,-91,-72,-79,2,-85,43
71492290973,-4,-85,-88,-86,-86,3,-77,35
71492299846,-3,-45,-30,-56,-71,-3,-9,-11
71492299846,-1,15,15,14,17,-3,44,-25
71492314747,-6,108,117,98,92,-3,85,-55
71492314747,0,82,82,88,79,4,73,-33
71492316299,-1,62,62,70,66,2,18,5
71492316299,-4,-30,-33,-27,-27,0,-49,38
71492328427,2,-57,-58,-59,-60,2,-76,43
71492328427,-3,-78,-78,-84,-83,-2,-77,31
71492337355,-8,-87,-86,-83,-88,-3,-18,2
71492337355,-3,16,13,11,17,-2,45,-30
71492350878,-5,78,90,70,69,-3,70,-51
71492350878,-3,81,75,82,79,4,81,-30
71492359900,2,76,71,83,80,-1,20,1
71492359900,5,-19,-20,-19,-16,1,-40,38
71492374782,4,-82,-89,-73,-68,0,-89,47
71492374782,1,-76,-77,-82,-82,-5,-67,44
71492376367,-5,-96,-93,-94,-95,-3,-20,2
71492376367,-4,17,16,19,20,-2,29,-37
71492388383,1,90,98,85,86,2,74,-51
71492388383,3,70,71,69,67,-1,39,-32
71492397479,1,19,-2,30,38,6,-7,13
71492397479,-1,-29,-28,-28,-28,3,-53,33
71492410888,-5,-92,-99,-89,-91,-1,-67,37
71492410888,-2,-12,-1,-23,-22,-5,0,-8
71492419877,3,22,28,22,19,-4,45,-34
71492419877,-2,75,65,72,73,2,69,-34
71492434867,1,85,83,80,79,1,41,0
71492434867,-3,-22,-22,-21,-22,-5,-41,21
71492436321,3,-62,-59,-61,-65,1,-71,32
71492436321,0,-93,-95,-91,-90,-3,-55,15
71492457213,-4,-8,-6,-8,-9,-5,21,-21
71492457213,0,84,86,80,79,1,59,-47
71492458846,2,83,85,83,83,-4,57,-9
71492458846,-2,-5,-4,-3,-3,1,-8,15
71492470875,1,-88,-102,-81,-78,1,-55,50
71492470875,-2,-103,-106,-98,-98,-7,-51,24
71492479878,-2,8,8,5,5,4,-3,-32
71492479878,-3,60,69,53,45,0,49,-50
71492494745,0,70,72,66,63,1,41,-27
71492494745,0,-17,-22,-16,-15,2,-10,25
71492496304,-3,-64,-62,-63,-68,0,-45,46
71492496304,-3,-72,-68,-81,-80,-6,-20,12
71492508349,-5,-9,-9,-10,-11,1,16,-31
71492508349,-3,56,53,53,55,-2,46,-23
71492517311,0,19,4,23,21,-4,11,5
71492517311,-1,-20,-28,-11,-3,-3,-40,25
71492530893,-3,-75,-76,-77,-78,-7,-62,26
71492530893,-3,-77,-68,-84,-97,-4,-23,-1
71492539819,-5,-4,-2,-5,-6,-3,20,-38
71492539819,-3,82,83,79,81,1,72,-45
71492554708,-1,47,39,56,67,-4,14,-6
71492554708,1,-7,-14,-3,1,2,-25,35
71492556283,-1,-66,-63,-70,-69,0,-59,42
71492556283,1,-48,-33,-55,-69,0,-7,6
71492568350,-2,9,14,5,2,-7,41,-29
71492568350,-1,77,77,76,76,2,64,-44
71492584833,0,9,15,24,29,-2,7,-5
71492584833,-1,-50,-58,-39,-31,-3,-55,52
71492590795,1,-83,-83,-85,-87,-4,-69,22
71492590795,-2,-16,-9,-23,-28,-4,-8,-5
71492599833,0,36,37,30,27,-2,65,-42
71492599833,0,86,85,87,86,2,44,-52
71492614052,-1,51,40,60,72,2,0,24
71492614052,1,-24,-34,-19,-14,0,-35,44
71492620836,1,-59,-57,-62,-60,-1,-50,36
71492620836,2,12,14,11,11,-2,7,-21
71492637266,3,51,49,46,41,-1,59,-22
71492637266,-3,-23,-20,-5,-3,3,-6,-17
71492638886,-2,-17,-25,-18,-20,0,-23,5
71492638886,1,-67,-72,-62,-63,-7,-15,33
71492650930,-3,0,2,-2,-4,0,24,-24
71492650930,1,40,40,36,37,-1,24,-10
71492659837,-4,-6,-2,3,-7,2,-8,-5
71492659837,-2,-9,-10,-9,-10,-2,-34,13
71492674088,-1,-32,-19,-44,-62,1,-3,7
71492674088,3,-10,-14,-10,-9,-5,5,-10
71492680933,-3,48,54,42,41,-1,20,-12
71492680933,-1,-2,2,-6,-9,1,-3,4
71492697269,0,-20,-16,-21,-22,2,-17,5
71492697269,0,44,41,38,36,0,21,-8
71492698773,-1,30,35,28,29,-1,18,-3
71492698773,-4,-52,-51,-52,-38,-4,-30,20
71492710865,-2,-38,-39,-44,-42,-1,-31,4
71492710865,1,48,62,37,31,-1,32,-39
71492719921,3,48,48,41,39,2,30,-17
71492719921,0,51,56,50,45,3,-15,17
71492734171,-2,-61,-54,-56,-62,2,-32,24
71492734171,-2,43,43,44,42,3,35,-19
71492740942,3,75,71,76,79,3,44,-17
71492740942,2,-20,-24,-20,-21,0,-26,15
71492757228,-1,-43,-44,-42,-41,-2,-7,-9
71492757228,1,-13,-11,-13,-19,-3,24,2
71492758866,-1,-44,-65,-34,-32,-1,-14,18
71492758866,-4,-28,-32,-26,-27,-2,-11,2
71492770939,-1,-3,0,-12,-18,3,16,-6
71492770939,1,-13,-14,-12,-9,0,-13,-2
71492779915,-1,-69,-61,-57,-59,-8,-42,10
71492779915,-3,-25,-21,-28,-25,-1,-5,-20
71492794022,-1,77,73,80,83,2,57,-17
71492794022,0,31,26,36,44,0,-23,17
71492800848,-3,-46,-44,-50,-49,3,-53,41
71492800848,1,-22,-21,-23,-29,-5,11,-16
71492817177,1,38,38,41,45,-1,41,-23
71492817177,2,-8,-18,0,10,1,-29,10
71492818793,-6,-45,-55,-49,-46,-2,-38,8
71492818793,0,21,30,18,8,-5,21,-14
71492830841,-2,49,63,47,44,1,22,-2
71492830841,-4,-69,-61,-74,-76,-1,-34,28
71492839863,-1,-40,-30,-46,-49,2,-13,0
71492839863,-4,68,62,73,74,4,46,-19
71492854068,1,42,34,45,48,-1,10,21
71492854068,-3,-68,-71,-67,-68,-2,-27,27
71492860835,2,-17,-11,-23,-26,-3,-13,-22
71492860835,1,54,52,52,52,0,51,-21
71492877191,5,19,17,21,23,0,-19,-8
71492877191,-2,-61,-64,-59,-57,0,-53,11
71492878813,1,-9,-11,-11,-8,-3,10,-12
71492878813,-4,57,58,57,55,6,38,-29
71492890794,2,23,23,22,21,-2,-17,-2
71492890794,0,-22,-19,-26,-33,-3,-12,11
71492899833,2,58,78,53,43,-3,39,-33
71492899833,0,56,55,53,50,3,24,-7
71492914005,-4,-65,-63,-67,-55,-5,-40,20
71492914005,-3,-45,-45,-48,-49,-3,-21,-7
71492920793,-7,46,45,46,49,1,37,-19
71492920793,3,17,16,22,24,0,1,11
71492937705,1,-44,-48,-43,-43,-5,-41,24
71492937705,-3,-13,-12,-14,-15,-5,3,-13
71492943481,-3,49,49,50,51,2,45,-22
71492943481,-2,-1,-2,2,4,-1,-14,26
71492950929,-3,-56,-59,-55,-56,-2,-39,17
71492950929,-2,-17,-18,-14,-13,-4,17,-16
71492959890,-1,42,39,44,50,1,33,-25
71492959890,-3,-4,-9,8,15,-1,-19,11
71492974508,1,-69,-73,-69,-69,-2,-28,1
71492974508,-4,38,43,29,21,1,41,-22
71492980932,2,62,64,61,55,-2,9,-15
71492980932,-1,-19,-23,-14,-12,-1,-23,5
71492997232,-5,-27,-31,-30,-35,2,-16,3
71492997232,-3,-13,-8,-21,-31,-1,16,-16
71492998825,-2,-14,-21,-6,6,-2,13,-4
71492998825,-2,-30,-42,-26,-17,-1,-25,19
71493010958,0,-8,-4,-8,-14,-1,-2,7
71493010958,3,72,71,64,57,-2,28,-16
71493019956,-3,5,5,4,-5,-1,18,7
71493019956,-1,-53,-80,-47,-46,0,-31,19
71493034165,4,-22,-23,-25,-27,4,-10,5
71493034165,1,47,48,43,37,1,24,-13
71493040852,2,12,15,11,5,-2,18,-6
71493040852,1,-53,-44,-57,-62,-5,-22,6
71493057287,-1,-26,-21,-25,-28,-3,-4,3
71493057287,-1,31,25,34,38,1,17,-12
71493058866,-2,22,20,20,17,0,5,-3
71493058866,1,-43,-34,-49,-56,-6,-16,9
71493070928,-3,-13,-18,-6,-9,-4,-7,-4
71493070928,0,18,18,21,17,0,11,-9
71493079933,-1,7,-6,3,-4,-2,1,-5
71493079933,-2,6,0,6,13,0,2,-3
71493094117,-3,5,4,6,4,1,-1,1
71493094117,0,-12,-9,-16,-21,-1,-4,-9
71493100883,0,-1,2,1,-3,2,6,-10
71493100883,-1,4,3,7,8,0,-1,1
71493117169,1,-7,-14,-9,-15,-5,-8,-10
71493117169,-1,-64,-67,-55,-47,-2,-1,10
71493118785,-2,-7,-14,-3,6,-2,1,-5
71493118785,-2,5,4,12,19,3,-7,-4
71493130892,0,-17,-15,-19,-11,0,10,-7
71493130892,-2,-56,-58,-53,-50,-1,1,27
71493139881,-2,-5,-7,-2,1,-5,-5,-12
71493139881,2,47,47,43,39,-2,28,-2
71493154083,-2,1,2,1,-2,-3,-14,8
71493154083,-6,-51,-56,-48,-45,-1,-25,-1
71493160805,0,3,4,1,0,0,4,0
71493160805,0,50,59,47,39,5,25,-20
71493177690,-1,-1,-5,0,2,-2,-1,-1
71493177690,-1,-32,-35,-27,-23,-4,-27,17
71493179284,2,2,5,0,-4,0,-6,6
71493179284,2,34,39,29,21,0,15,-16
71493190822,1,-1,-1,2,3,0,2,7
71493190822,1,-30,-37,-27,-22,-3,-43,14
71493199830,-2,-1,-1,-2,-3,-4,-6,4
71493199830,-3,20,24,17,12,-2,24,-7
71493214056,1,3,4,2,2,1,-5,9
71493214056,-1,-15,-16,-12,-10,1,-25,7
71493220795,-3,-2,-4,-2,-1,-1,5,-7
71493220795,-4,18,21,17,14,-1,28,-18
71493237264,-2,2,4,2,-1,0,3,1
71493237264,5,-12,-14,-13,-8,1,-28,10
71493238906,6,-1,-2,-1,-1,0,-7,-7
71493238906,-5,24,10,26,21,0,3,-36
71493250967,2,41,30,46,54,-2,31,6
71493250967,-1,6,-1,5,13,-2,-16,4
71493259840,-1,-84,-85,-92,-92,-8,-22,6
71493259840,-1,5,10,-5,-12,-2,19,-18
71493274209,1,69,69,66,66,1,2,-24
71493274209,1,5,8,3,-2,-2,-13,19
71493281003,-5,-68,-66,-66,-66,2,-24,13
71493281003,1,6,7,7,10,-4,19,-14
71493297326,0,64,64,64,63,1,31,-24
71493297326,0,-23,-23,-23,-25,0,-14,8
71493298898,-7,-62,-63,-63,-64,-8,-41,21
71493298898,1,2,4,1,2,0,15,-10
71493310886,1,58,58,57,56,-1,51,-21
71493310886,-1,-13,-17,-8,-6,-1,-15,5
71493319895,-1,-55,-57,-54,-53,5,-36,26
71493319895,-2,1,4,-7,-8,-3,4,-5
71493334158,-4,56,46,51,49,-3,49,-23
71493334158,2,90,89,102,101,2,18,-8
71493340982,1,-32,-49,-26,-31,-1,-39,20
71493340982,1,-20,-10,-33,-34,0,-4,-10
71493357304,-8,3,2,0,-6,-1,31,-29
71493357304,-1,37,34,37,46,1,15,2
71493358855,0,-13,-10,-16,-20,1,-24,30
71493358855,-3,-45,-40,-50,-64,-5,-15,-2
71493370903,-2,7,6,10,14,-5,24,-20
71493370903,-1,64,64,61,57,5,25,-9
71493379910,0,-14,-10,-17,-18,2,-19,15
71493379910,2,-83,-87,-81,-79,-6,-51,21
71493394217,-5,20,24,21,19,6,21,-7
71493394217,3,37,32,37,36,-5,26,-11
71493408424,3,-19,-20,-18,-15,-4,-25,10
71493408424,2,-66,-68,-62,-60,0,-29,15
71493417240,1,12,16,10,8,-2,9,-9
71493417240,1,40,40,40,40,-1,10,-9
71493418828,1,-13,-16,-12,-7,4,8,27
71493418828,-2,-52,-55,-47,-44,-4,-29,20
71493430889,1,5,8,4,2,-4,-2,-11
71493430889,2,31,32,27,24,3,30,-17
71493439902,2,-1,0,13,1,-5,-18,-1
71493439902,-4,-43,-48,-31,-34,-3,-24,35
71493454050,1,0,0,2,-3,-2,11,4
71493454050,-7,24,22,28,24,-5,21,-32
71493460809,-1,11,-8,19,26,2,4,-6
71493460809,-1,-25,-39,-20,-20,1,-18,23
71493477206,-3,-24,-23,-32,-42,-4,-14,-6
71493477206,1,9,9,7,1,-1,31,-20
71493478805,-2,-1,-14,9,9,-1,0,-3
71493478805,0,-28,-28,-33,-33,-2,-24,12
71493490861,-3,-61,-57,-69,-77,0,-15,3
71493490861,0,0,-1,0,0,-3,14,-18
71493499819,0,71,71,68,69,0,15,-7
71493499819,0,-14,-12,-15,-18,-3,-17,15
71493514010,-5,-74,-75,-71,-67,-4,-21,10
71493514010,-3,-2,-5,0,1,-1,18,-14
71493520861,-2,50,55,56,59,-2,-2,-9
71493520861,-3,-20,-25,-18,-13,-2,-20,8
71493536618,0,-14,-5,-19,-35,-3,-4,-7
71493536618,-5,6,10,-1,-9,-1,29,-8
71493543448,-4,-4,-27,1,-2,-3,9,1
71493543448,-4,-21,-29,-18,-18,5,-19,-11
71493550965,1,-14,-13,-20,-25,-4,3,6
71493550965,-2,18,22,20,16,-2,3,4
71493559952,0,7,12,9,16,0,3,-3
71493559952,3,6,-4,4,0,-4,0,-4
71493574216,0,25,21,30,24,5,5,-7
71493574216,0,-5,-16,-7,-12,-3,4,-9
71493580941,-6,-38,-26,-27,-30,-2,-3,1
71493580941,1,1,5,-3,5,0,-2,-2
71493596672,3,36,32,40,49,-1,14,-11
71493596672,2,1,-3,6,14,-3,-2,-1
71493603463,0,-42,-40,-28,-26,-3,-9,4
71493603463,1,-14,-10,-11,-6,-1,6,0
71493619764,0,29,28,33,42,-1,9,-5
71493619764,-5,-11,-10,-10,-9,4,-1,2
71493621409,0,-32,-29,-24,-25,-3,-5,-1
71493621409,-1,1,2,4,2,1,7,-4
71493642325,-1,25,20,30,35,-1,8,-3
71493642325,-2,2,2,8,9,-3,2,-2
71493643837,-3,-20,-13,-13,-11,0,3,-2
71493643837,-2,-3,-2,1,0,-3,3,-3
71493656673,1,9,4,15,16,-2,7,-3
71493656673,2,-2,-3,2,-1,-1,2,-5
71493663411,1,-14,-7,-6,-6,-1,-6,-5
71493663411,0,-8,-5,-1,-4,-2,-2,6
71493679785,0,-1,4,-8,-13,-5,0,-1
71493679785,-4,-9,-1,-9,-12,1,6,0
71493681432,3,9,-6,0,-2,1,5,-2
71493681432,-1,75,58,72,74,-3,53,-37
71493694188,3,16,10,18,23,0,-15,6
71493694188,-2,6,-2,9,13,0,-27,16
71493700992,4,-20,-14,-34,-37,-4,-24,20
71493700992,-1,-21,-12,-21,-24,5,-3,0
71493716613,-5,4,4,7,9,0,16,-6
71493716613,4,0,0,0,0,-13,-10,7
71493723409,-3,2,3,-8,-11,5,5,-5
71493723409,2,-10,-10,-7,-7,-8,-2,5
71493740243,-2,3,3,6,8,-1,-5,2
71493740243,0,-11,-8,-15,-18,16,-11,6
71493741842,-5,-9,-6,-8,-7,-7,5,-5
71493741842,0,-36,-53,-30,-22,-1,-14,9
71493754111,-1,-95,-98,-90,-87,2,-22,15
71493754111,-1,-27,-29,-24,-22,-1,3,-5
71493768379,-1,73,79,63,59,2,16,-11
71493768379,5,4,12,1,-4,-1,-2,12
71493776610,1,-55,-58,-51,-50,-6,-36,12
71493776610,2,5,1,7,-3,-9,-4,-9
71493783389,-3,43,44,36,32,-7,45,-33
71493783389,0,90,93,85,78,4,51,-42
71493807218,-2,57,56,56,57,3,48,-3
71493807218,-3,-35,-34,-17,-18,2,-27,15
71493808816,-1,-62,-77,-56,-50,2,-40,21
71493808816,-3,-52,-49,-48,-48,21,-32,12
71493814035,5,-26,-27,-25,-38,-2,-32,4
71493814035,-2,12,23,5,-6,-9,33,-25
71493820832,1,100,104,92,86,11,51,-22
71493820832,4,27,29,46,48,-18,12,-4
71493836543,1,-77,-84,-62,-47,-8,-80,44
71493836543,-2,-128,-128,-128,-127,-6,-90,37
71493843328,-1,0,3,-4,-8,-7,19,-21
71493843328,-5,85,88,66,54,1,72,-41
71493859718,-1,77,81,72,80,9,48,-30
71493859718,5,74,73,70,75,1,23,4
71493861307,-1,-3,-1,6,14,-1,-13,17
71493861307,-2,-44,-40,-45,-40,-1,-52,33
71493882232,-2,-93,-93,-96,-103,-1,-58,29
71493882232,-3,-93,-96,-97,-94,-1,-45,18
71493883856,1,-55,-69,-78,-78,-3,-8,-12
71493883856,2,46,46,8,3,-3,29,-25
71493896592,-5,33,33,27,23,-1,35,-27
71493896592,0,88,95,73,67,0,65,-39
71493903379,-2,104,112,102,89,8,73,-38
71493903379,4,68,70,78,78,-1,34,-8
71493919819,-2,14,11,33,38,1,-15,20
71493919819,3,-69,-71,-33,-21,3,-48,38
71493921431,-3,-62,-60,-41,-45,3,-45,32
71493921431,-1,-53,-53,-45,-44,1,-51,33
71493934166,4,-97,-109,-83,-91,-5,-65,36
71493934166,0,-85,-90,-94,-100,-4,-56,21
71493940911,3,-92,-91,-90,-89,-3,-42,8
71493940911,-4,5,13,-10,-22,2,39,-12
71493956609,-3,57,61,41,37,-6,46,-36
71493956609,0,47,45,46,46,-7,64,-39
71493970881,-2,90,94,73,61,0,68,-34
71493970881,-1,93,90,96,99,-6,59,-43
71493979784,3,75,78,74,74,1,46,-15
71493979784,-1,68,65,66,67,6,12,10
71493981343,-6,-9,-33,12,18,0,-24,15
71493981343,1,-54,-56,-48,-50,0,-50,38
71493994163,-1,-77,-79,-66,-55,1,-79,32
71493994163,0,-105,-99,-101,-108,-13,-69,33
71494008438,1,-75,-70,-81,-81,5,-46,18
71494008438,-5,-87,-90,-80,-82,4,-25,1
71494016681,-3,20,27,-7,-17,-3,35,-27
71494016681,-2,39,36,36,37,2,51,-36
71494023474,-2,58,66,49,49,-5,46,-39
71494023474,-1,94,98,90,93,2,60,-35
71494039842,1,70,73,78,77,4,56,-21
71494039842,-2,78,77,74,73,2,7,3
71494041377,0,-13,-35,7,13,-5,-22,22
71494041377,0,-53,-55,-46,-43,2,-53,36
