timestamp,emg1,emg2,emg3,emg4,emg5,emg6,emg7,emg8
58483290767,2,-3,-4,-8,-1,-1,10,0
58483290767,-5,-2,-5,-9,-3,-1,5,-5
58483291547,-6,1,-1,-8,0,0,-7,0
58483291547,-8,-2,0,-5,-3,0,-12,-3
58483292400,-5,-3,2,-2,0,-3,-14,1
58483292400,-7,-3,-2,-8,-8,-4,-14,-2
58483293068,-2,5,2,3,-1,0,-9,-3
58483293068,1,7,-2,-5,8,-2,-6,1
58483305225,-1,-1,-3,-6,-1,-1,-4,-1
58483305225,5,-5,0,-2,0,1,4,0
58483312484,0,22,2,-9,-4,-2,2,-2
58483312484,5,-16,9,5,3,1,5,3
58483320242,-5,5,-7,4,-6,-2,1,-3
58483320242,-4,-6,-22,-2,-1,0,0,-1
58483333771,-5,-2,6,-11,-7,-3,-7,-6
58483333771,-4,5,1,-12,-4,-4,-2,-3
58483345211,3,4,11,-4,1,0,1,-3
58483345211,-3,-12,4,-12,-2,2,1,-3
58483348775,-13,-16,-4,-17,-10,-2,-3,-7
58483348775,-12,-7,-10,-11,-9,-4,-5,-6
58483365327,-4,-8,-15,-12,-3,-3,-7,-4
58483365327,5,8,0,4,1,-1,0,3
58483372431,10,-5,0,13,7,3,1,7
58483372431,6,3,-1,2,-4,-1,0,-2
58483412009,3,-3,1,10,0,-1,-1,1
58483412009,0,2,-1,-1,-2,1,-1,0
58483412834,2,0,-10,3,1,1,-3,2
58483412834,-5,-2,4,-6,1,-4,-1,-4
58483413631,-2,-2,-3,-5,-1,1,-8,-2
58483413631,5,-1,-1,1,0,0,4,1
58483416064,-1,2,-1,-3,-2,1,-1,-3
58483416064,3,0,-8,-2,0,-4,-4,0
58483425027,-8,-6,-8,-7,-5,-3,1,-2
58483425027,-6,-4,-2,-5,-5,-2,-5,-4
58483431086,-2,-2,1,-4,-2,-4,-5,1
58483431086,6,0,4,-1,3,-1,0,3
58483440023,4,-3,8,6,6,-2,1,0
58483440023,3,-6,5,1,1,-2,4,1
58483453586,3,-6,7,-1,2,2,-1,1
58483453586,-3,-2,0,1,0,2,-1,-2
58483462550,2,3,1,-3,1,-2,-2,2
58483462550,-3,1,-2,0,-3,1,-2,-1
58483468633,2,1,-1,3,0,-3,-2,-1
58483468633,-2,-1,2,3,1,-1,0,0
58483485113,-2,-2,-4,-5,1,-2,1,-1
58483485113,-1,-1,1,6,0,2,0,-1
58483491096,-2,1,-1,-2,-2,-1,3,-2
58483491096,-1,1,-3,0,1,1,1,-3
58483500031,-2,-1,-2,0,-3,-1,2,-3
58483500031,-3,2,-1,-9,-1,-3,-3,-1
58483513553,-2,-7,-2,-3,-3,3,2,-1
58483513553,-3,-1,-1,2,2,-2,-1,-1
58483522581,0,1,-1,-5,-3,0,-4,-2
58483522581,0,-4,0,-4,0,-5,0,-4
58483528582,-2,2,-1,-4,3,-4,0,-3
58483528582,2,1,-2,-2,-3,0,-6,0
58483545044,0,-2,0,-3,-1,0,-1,-1
58483545044,1,0,0,6,2,-4,-3,0
58483551079,-7,-2,-4,-12,-9,-6,-3,-6
58483551079,-2,-1,-1,0,-2,-1,2,-2
58483560076,2,0,-1,3,0,0,-1,-1
58483560076,-1,1,-6,3,-1,0,1,1
58483573576,0,0,-1,-4,-1,1,0,-2
58483573576,-4,0,-3,-1,-5,-2,-4,-2
58483582568,-2,-4,2,-5,-2,0,1,-3
58483582568,2,2,-2,0,1,0,2,0
58483588573,-3,-2,-4,4,-4,-4,-3,-3
58483588573,-6,-3,-4,-4,-1,0,-3,-1
58483605092,0,4,-3,-3,-1,-2,-2,1
58483605092,-2,-4,-1,-2,0,-2,0,0
58483611071,0,3,3,4,1,0,-1,1
58483611071,1,-1,-2,-7,-11,-3,-7,-1
58483620106,-3,0,1,2,-10,-6,-1,-3
58483620106,-3,0,-6,-14,7,1,-6,-4
58483633565,-1,0,2,0,9,-1,2,-2
58483633565,3,-6,3,-5,9,-2,2,0
58483642545,0,-1,-1,4,-2,1,-1,0
58483642545,-2,-2,-2,-4,-11,1,-5,-2
58483648572,8,-1,-7,8,0,-3,1,5
58483648572,-1,-3,-21,5,-4,-2,2,-4
58483665058,-4,-1,10,-1,0,1,0,-2
58483665058,-1,-3,12,-5,-2,-4,0,-2
58483671121,-4,-4,11,2,0,-1,3,-1
58483671121,-3,2,4,3,-1,-3,-2,-1
58483680070,-1,2,-13,0,0,-3,0,0
58483680070,-2,-1,-8,4,-1,-3,-1,-1
58483693562,-2,-2,-10,0,-2,3,-2,0
58483693562,-2,1,-6,2,-2,0,3,1
58483702582,-3,-3,-6,0,-1,-1,2,-2
58483702582,0,3,-6,0,-2,-1,3,1
58483708559,3,-1,2,5,-3,0,-4,4
58483708559,-5,-3,-1,-3,5,-1,-1,-5
58483725753,-3,-2,3,-2,-1,5,-5,-3
58483725753,2,0,0,-4,0,-1,-4,-1
58483731041,-2,-1,-1,-5,-2,0,-3,-3
58483731041,1,-1,7,-3,2,-1,2,1
58483740047,1,0,4,-5,0,0,5,1
58483740047,-3,-5,-2,1,-3,-3,-1,2
58483753560,0,4,0,-7,-3,2,2,-4
58483753560,2,0,-1,-2,-4,1,1,0
58483762554,-1,4,-1,-1,-3,-2,-4,0
58483762554,-2,0,-3,1,-1,0,2,-2
58483776112,-3,0,-1,-1,-1,-2,-1,-1
58483776112,-2,2,3,-1,-1,0,0,0
58483785058,1,-5,-4,-1,0,-1,3,1
58483785058,0,-7,-2,-3,4,1,-7,-4
58483791046,0,1,-2,-6,0,-1,-6,-1
58483791046,-1,0,1,-4,-2,0,-7,-2
58483800044,-2,-3,-2,0,-1,-3,-1,-1
58483800044,-4,4,-1,-2,-2,1,-2,1
58483813675,-2,-5,-5,-4,0,-1,2,-2
58483813675,-1,-4,-3,-3,2,0,-4,1
58483822643,0,1,-1,-2,-4,-3,1,-2
58483822643,-4,0,-2,1,-2,0,5,-1
58483836178,-4,-2,-3,0,-3,2,-1,-4
58483836178,-2,4,3,-3,-4,0,0,2
58483845076,-1,-3,-2,-1,1,-1,0,-1
58483845076,-2,2,-4,-1,-3,-3,1,0
58483851144,-2,0,-2,-5,-4,-2,0,0
58483851144,-2,-4,-2,-5,-2,0,0,0
58483860135,-3,3,-4,3,4,1,-1,-2
58483860135,-1,0,3,-6,-1,-4,-3,0
58483873694,2,0,2,0,-2,-3,-6,-2
58483873694,-3,-4,-5,4,-1,2,3,-3
58483882560,0,-1,1,-5,-2,-1,-1,-1
58483882560,1,-8,2,-3,1,2,-3,-3
58483896196,-2,-1,-4,2,2,-1,-3,3
58483896196,-1,-3,2,-3,-5,2,3,-3
58483905068,-4,0,-3,-3,-3,3,-1,-3
58483905068,-6,0,0,6,-3,1,-2,-2
58483911133,-1,0,-4,-5,-1,-5,3,0
58483911133,0,5,-3,-2,-2,-4,-2,-2
58483920136,-2,-3,-3,-3,1,1,-4,-1
58483920136,0,1,-2,2,-5,-4,0,-2
58483933662,-5,-2,2,0,-2,2,-2,-1
58483933662,-2,-6,0,-1,-1,-3,-2,2
58483942571,0,-4,-2,-4,2,-2,4,-1
58483942571,-1,2,-2,9,-2,-3,5,0
58483956083,-4,0,0,2,-1,-4,3,-2
58483956083,0,1,-1,-2,-2,-6,3,0
58483965162,-2,1,2,-4,-2,0,-1,-3
58483965162,-1,-1,0,4,2,2,4,1
58483971089,-4,-2,-3,-3,-3,-3,-3,-1
58483971089,-2,-2,-4,-2,-2,-1,-4,-3
58483980112,-1,1,1,1,2,-4,-1,-1
58483980112,0,0,-2,-3,-2,4,2,-3
58483993681,1,1,1,-3,1,0,0,-4
58483993681,0,-3,0,-2,-1,2,-2,1
58484002572,0,0,-2,-3,-2,-2,0,1
58484002572,0,-4,-2,-3,0,-3,-6,-1
58484016150,-2,0,-1,1,-2,-1,-4,1
58484016150,-1,1,3,6,-3,-1,-4,-1
58484025112,-2,-6,-3,1,-3,-1,-1,1
58484025112,-1,-2,-1,-11,1,-4,-5,3
58484031111,-1,-2,-4,-4,-2,-2,-5,-3
58484031111,-3,0,-3,-3,-3,0,3,-6
58484047593,-1,4,-1,2,-2,2,3,-1
58484047593,-2,4,-1,-3,0,2,0,-2
58484053611,-2,-3,-4,-2,1,1,8,-2
58484053611,3,-2,-1,1,1,1,3,0
58484062586,1,-3,-3,2,-4,-2,-4,-2
58484062586,-1,0,1,-6,-1,4,-5,0
58484076069,-4,1,2,1,1,0,-1,0
58484076069,-3,-2,-2,-1,-2,-1,-4,-1
58484085086,0,-2,-1,-4,0,-3,-1,2
58484085086,4,0,1,-8,-1,-3,-6,0
58484091081,-2,-2,-5,-2,-4,-1,3,0
58484091081,-1,0,-3,1,-3,-4,-1,-4
58484106111,0,-2,-1,-6,2,0,-1,-1
58484106111,1,2,2,9,0,1,2,3
58484113587,1,-6,-3,-1,-1,-3,-5,-2
58484113587,0,-1,2,-8,-1,2,-3,1
58484122520,-1,1,-4,-1,-2,-1,-2,-6
58484122520,-4,3,-2,1,-3,-2,-1,-3
58484136097,-2,6,-4,-3,-1,1,-4,-2
58484136097,-2,1,-2,1,-3,-2,1,2
58484145072,-1,1,-3,-3,-6,1,1,-1
58484145072,-2,-5,0,-7,2,-1,-4,-4
58484151155,4,1,0,0,0,-1,-2,0
58484151155,-2,1,-2,-2,1,0,-3,1
58484166101,-3,2,0,-4,0,-3,-5,0
58484166101,-3,2,-7,-4,-5,-4,-2,-4
58484173684,-2,1,2,-4,-1,0,2,1
58484173684,2,-1,-1,-9,2,-1,-3,-3
58484182621,-3,-4,0,-4,-2,1,-5,0
58484182621,1,-8,-4,-6,3,1,-1,-2
58484196124,-2,-4,-2,-2,-4,0,-4,-1
58484196124,-1,-1,-1,-5,2,3,-2,-3
58484205061,2,0,1,-2,2,-3,-3,0
58484205061,-3,2,0,2,-1,-2,-2,-3
58484211251,0,-1,-3,1,0,0,1,1
58484211251,-1,-1,0,-1,1,-2,-3,-2
58484226129,-5,2,-4,2,0,-3,4,-1
58484226129,-1,-1,1,-2,-4,1,1,-1
58484233628,-3,-3,-2,-2,-2,2,-2,-3
58484233628,-1,3,-2,1,-4,-2,-1,0
58484242640,-1,0,0,-8,-3,0,4,-1
58484242640,-1,1,-6,-5,-2,-2,-3,0
58484256221,-2,4,-2,3,1,-2,1,-2
58484256221,-2,-1,0,0,0,-2,1,-2
58484265148,-2,-1,1,-1,1,0,-2,-2
58484265148,3,-4,-4,3,-1,-4,1,-1
58484271136,1,-5,-2,-4,-3,-1,-3,0
58484271136,-1,-4,-4,-4,1,-2,1,-3
58484286059,-1,-2,-3,-4,-5,-1,-1,-1
58484286059,-3,1,0,2,-1,0,-2,-1
58484293557,0,-4,0,0,1,-1,1,-3
58484293557,-2,-4,2,-2,-2,-1,0,-3
58484302671,-1,-1,1,-5,-3,1,-4,2
58484302671,-3,-2,-3,5,-2,-2,1,1
58484316081,-3,-2,0,0,2,2,-3,-2
58484316081,-2,-1,-3,-1,-2,-1,-3,3
58484325138,0,0,-1,1,0,3,-1,-3
58484325138,-1,-7,0,5,0,-3,6,0
58484331118,1,-3,2,-4,-3,-4,1,0
58484331118,0,-1,0,-1,1,0,-3,0
58484354275,-3,0,-2,0,-1,-3,-1,-2
58484354275,0,4,-2,1,0,1,-1,-1
58484355070,-1,1,0,-4,-1,-4,-5,-1
58484355070,0,-3,-3,-3,-3,2,-1,1
58484362642,-2,-1,-2,-2,1,-1,-1,-3
58484362642,1,1,1,-9,-2,-2,-2,-1
58484376132,0,-1,-1,-6,-1,1,0,-3
58484376132,3,0,-4,-3,-2,-1,-7,-1
58484385112,-3,-1,-1,-4,0,-2,0,-4
58484385112,-3,-4,-2,-12,-2,2,-3,-2
58484399303,-1,-1,0,-1,-1,-4,0,-1
58484399303,-2,-3,0,-5,-1,-3,1,1
58484406192,-1,2,-5,-6,2,-2,-2,0
58484406192,3,-6,0,0,-3,-3,-6,-3
58484422522,-1,1,-5,1,-5,-1,-5,-3
58484422522,-2,0,-1,8,1,2,2,0
58484424055,1,0,-2,-1,1,0,0,-1
58484424055,-4,-2,2,-2,0,1,0,2
58484436127,2,-2,-1,-1,-2,-3,-4,-2
58484436127,-5,-3,-5,4,-5,-1,0,1
58484445158,3,-8,0,2,2,2,3,1
58484445158,-1,3,-3,-3,2,1,-3,-2
58484459352,0,-2,2,3,-2,1,3,-1
58484459352,0,1,-1,-6,-1,-4,0,-5
58484466200,2,-1,-1,-2,-1,0,-5,2
58484466200,1,2,-4,3,-4,-1,5,2
58484482510,-4,2,0,-2,0,0,-1,-2
58484482510,-2,0,-2,-2,1,3,-3,-4
58484484096,1,1,2,-2,-5,1,-3,0
58484484096,-3,-2,-2,-1,3,0,0,-3
58484496128,-1,-1,-6,3,-4,-5,-2,2
58484496128,-1,-4,0,2,2,-4,3,-2
58484505162,0,1,-2,-4,0,-1,0,-1
58484505162,-2,2,3,-3,-1,0,-6,-1
58484519325,-2,-4,-3,-3,2,0,-3,-1
58484519325,-2,-1,0,-2,1,-2,-2,1
58484526164,0,0,-3,-2,1,0,-4,2
58484526164,-4,1,0,1,-1,-2,-5,0
58484542949,2,-1,2,-2,1,-1,-3,0
58484542949,2,0,1,-6,1,0,-2,-3
58484544509,-2,1,-1,-5,0,1,1,-1
58484544509,1,-3,1,-1,1,-2,-4,0
58484556056,-4,0,-4,0,-2,1,-2,-1
58484556056,0,-10,1,0,0,2,-2,0
58484565146,1,-10,0,0,-4,-3,1,-1
58484565146,-2,-7,0,-6,-4,-2,3,0
58484579269,-1,4,3,0,2,3,1,-4
58484579269,1,1,-3,-4,-3,-2,-4,-2
58484586156,-4,-1,-2,-2,0,-4,-4,-3
58484586156,1,-3,1,3,1,3,-6,-2
58484602528,0,1,-4,-5,1,-1,-5,1
58484602528,1,-1,-5,-7,-2,-4,-1,-2
58484604106,0,10,2,-6,-3,-1,-7,-2
58484604106,-3,4,-2,-4,-5,-1,0,-4
58484616119,-1,-1,-2,-6,0,-1,0,-1
58484616119,-4,2,-1,1,3,1,-6,-1
58484625163,-1,-4,0,-3,4,-2,-2,-3
58484625163,-5,3,0,-5,-3,-3,0,-1
58484639347,-3,0,-3,-7,-4,3,-3,-1
58484639347,-2,2,-4,1,-5,-3,-2,-1
58484646118,-3,-6,-3,-2,-2,-1,-4,0
58484646118,3,-1,-2,0,1,0,-4,-3
58484662500,0,-1,3,0,-2,0,-1,0
58484662500,-2,1,0,1,4,-1,-1,-2
58484664085,-1,1,-2,-2,-1,-2,-6,-2
58484664085,0,0,-6,1,-4,-3,3,-1
58484676183,-4,-2,-1,-6,-2,-3,3,-2
58484676183,1,-1,2,3,0,1,0,1
58484685144,2,-2,-1,-2,1,1,1,0
58484685144,-2,1,-3,1,-3,4,1,-5
58484699343,1,-3,-2,-1,1,0,-1,-2
58484699343,-4,-2,-3,-2,-2,2,4,-2
58484706184,-2,-1,0,4,-2,4,-4,0
58484706184,-2,-2,-2,-6,0,0,2,2
58484722492,0,-2,-1,2,0,-4,2,-1
58484722492,0,-2,0,-1,-2,-2,2,2
58484724088,-1,4,-1,1,-3,-5,3,-2
58484724088,-2,-7,1,-1,-1,0,-2,-1
58484736137,-1,0,0,-2,2,-5,-3,-1
58484736137,0,-4,2,-3,-4,-2,-1,0
58484745123,-2,-3,-5,0,-4,-1,-2,-2
58484745123,-1,2,2,-3,2,-1,-5,-2
58484759348,-4,2,-2,0,-3,-1,-2,-1
58484759348,-1,-1,1,-1,-5,0,-4,-1
58484766119,-1,-1,-4,0,0,-1,-2,-4
58484766119,-2,1,-2,3,-3,-5,0,-1
58484782506,-1,-4,-4,-1,-2,-1,2,2
58484782506,-2,0,-1,3,-4,-2,2,-5
58484784063,-1,-1,-4,6,-4,3,-2,-4
58484784063,-2,1,-3,1,-2,-2,1,-2
58484796168,0,-3,3,-2,-2,1,-4,-1
58484796168,-2,-2,2,8,-6,-3,1,-1
58484805057,-2,0,-4,4,1,1,2,1
58484805057,-1,-5,1,-4,-5,0,2,-3
58484819342,-2,-1,-3,7,-5,-4,4,1
58484819342,1,0,-1,0,0,-2,0,0
58484826214,0,2,2,0,-1,-3,-2,1
58484826214,-1,-3,-3,7,-1,-2,4,-3
58484842555,0,-4,2,-1,5,0,-1,-1
58484842555,2,2,0,-1,0,-1,-3,0
58484844109,-3,1,2,1,1,0,3,0
58484844109,1,1,2,-3,3,-4,-5,-2
58484856116,-3,-3,-3,-2,-4,-1,1,0
58484856116,-1,-2,-1,1,-2,1,-2,1
58484865091,0,4,2,-5,-1,-3,-1,-2
58484865091,-1,-2,-2,2,0,-1,-2,-2
58484879307,2,0,2,-3,0,1,-5,-2
58484879307,-3,-5,-3,-3,-2,3,-3,0
58484886090,-2,-1,-1,-4,-4,1,-2,-1
58484886090,-1,0,0,-3,-2,-4,2,2
58484902508,-1,1,0,-1,-3,-1,-1,-6
58484902508,-2,1,-3,-7,3,-4,-5,-2
58484904067,-2,-2,0,-1,1,2,-2,-1
58484904067,-3,-7,-2,-3,0,-2,-8,3
58484916112,-1,-7,2,-1,3,3,0,0
58484916112,5,1,-1,-8,-3,-3,3,0
58484925059,2,-2,0,-9,-4,-4,2,1
58484925059,4,0,3,-1,4,1,3,0
58484939253,-2,-1,1,1,2,-1,-4,-4
58484939253,-3,-1,-1,-1,1,1,-6,-1
58484946091,3,-10,-2,-7,-6,-2,1,6
58484946091,-2,0,0,-2,1,1,3,-2
58484969930,0,3,-5,-7,0,-1,-4,0
58484969930,4,1,-2,-7,-5,1,4,1
58484971538,0,-1,3,-5,2,-3,-6,-2
58484971538,-1,1,0,0,-2,-2,-4,-1
58484976046,-5,0,0,1,-1,0,-4,-6
58484976046,-3,-4,1,-3,2,0,-7,-1
58484985069,1,4,-3,-7,-3,-1,-7,-2
58484985069,2,-2,-1,-2,-4,2,-3,1
58484999403,0,1,-2,-8,-2,-2,1,-1
58484999403,-7,-2,1,-2,-3,1,-5,-1
58485006078,-3,7,-2,-10,-1,-2,-2,-5
58485006078,-2,-9,2,-2,1,2,-2,-1
58485021891,-5,15,-6,-10,-7,-2,-3,-2
58485021891,0,-8,2,1,2,-1,1,-1
58485028693,-7,2,-3,-8,0,0,-2,-5
58485028693,-5,1,-1,-5,-3,0,0,-4
58485036118,2,1,0,-5,-1,0,-3,-2
58485036118,1,-1,-3,-8,0,0,-2,-1
58485045125,-2,-1,0,-3,-2,-4,0,0
58485045125,-2,-1,-4,-2,-1,0,0,-2
58485059338,0,-3,0,0,1,0,0,-2
58485059338,-1,2,-4,1,2,-3,-5,-4
58485066134,-3,-2,15,10,5,-3,1,-1
58485066134,6,3,1,1,3,2,1,3
58485081827,11,-10,-23,-27,-21,-6,11,11
58485081827,24,18,-59,30,18,1,12,11
58485088637,-10,-26,2,-28,-14,-1,-5,-8
58485088637,-17,9,25,4,0,2,-3,-13
58485096115,-16,-15,9,-14,-3,-3,-12,-5
58485096115,-11,8,17,-7,-9,-1,-1,-8
58485105158,1,-3,-5,-5,1,1,-4,3
58485105158,10,5,-2,5,-2,-1,1,6
58485119294,-3,-7,2,-6,1,1,-2,-5
58485119294,3,5,4,-2,-1,2,1,-3
58485126108,-4,-7,-8,3,-3,-1,-4,-4
58485126108,-1,0,-3,-5,-6,-2,-8,-3
58485141815,1,1,1,13,-6,0,-1,-2
58485141815,-2,-9,8,-3,-5,-4,-8,-2
58485148673,-1,4,-1,7,-3,1,-4,-1
58485148673,-3,-4,-15,-8,-2,-2,-2,3
58485156167,2,5,3,13,11,0,4,-3
58485156167,-12,-10,3,-4,7,-2,-5,-6
58485165164,-2,6,-7,1,2,0,5,-1
58485165164,-10,-9,-20,-2,-8,-3,2,-4
58485179316,-3,-8,-8,15,-3,-1,5,-2
58485179316,-6,-6,6,-14,-19,-4,-1,-2
58485186166,0,8,-7,2,-8,-5,3,0
58485186166,5,-4,-6,4,2,-4,-4,-1
58485201867,8,-3,7,-4,2,1,1,3
58485201867,-6,-2,5,2,-3,0,4,-2
58485208668,4,-2,2,4,6,-1,0,1
58485208668,0,1,0,5,1,-1,-1,1
58485225042,-1,-2,-3,11,3,0,2,1
58485225042,5,-3,1,2,1,1,1,3
58485226611,8,0,6,12,9,1,1,4
58485226611,5,1,0,8,1,2,-3,3
58485239417,0,3,1,7,-1,0,-3,-2
58485239417,-2,-2,2,-3,-1,1,2,-2
58485246191,-3,1,-6,1,-2,-2,1,3
58485246191,2,1,4,2,1,-1,6,1
58485261880,2,1,-2,-4,-3,-3,4,1
58485261880,-2,-1,-1,-1,-2,-3,-3,-4
58485276192,-1,-4,-3,2,-1,2,-3,-2
58485276192,-1,-1,-2,-6,-3,-2,0,-2
58485284993,-4,0,1,-3,-1,0,-5,-1
58485284993,1,1,-2,-5,-1,-2,-5,1
58485286589,3,-1,0,0,2,-2,0,1
58485286589,-5,-4,-2,-1,-1,-3,1,-1
58485299350,0,-4,-1,0,3,1,-2,-2
58485299350,-1,-2,-1,-2,-1,1,-4,-1
58485306095,-2,-1,3,-2,1,0,2,-5
58485306095,5,0,-3,-10,-4,-3,0,3
58485321824,-2,-1,-3,2,-1,-2,0,-1
58485321824,3,-4,3,2,3,0,-3,2
58485328668,1,-2,1,-2,2,-4,-5,-1
58485328668,-3,-3,2,-4,-2,2,-1,0
58485344973,23,2,0,-2,0,-2,2,-3
58485344973,8,1,-5,-4,-3,2,-1,-3
58485346565,7,-1,-3,1,-4,-1,-1,-3
58485346565,-1,2,1,6,0,-3,0,-1
58485359399,-1,-2,-1,-6,-5,1,1,1
58485359399,-3,-1,3,-2,-1,-1,2,3
58485366185,-13,-2,8,11,5,3,1,-6
58485366185,15,-4,-14,-25,-14,-5,3,9
58485381873,-23,-1,-2,-1,0,0,-2,-13
58485381873,-6,-2,-4,-9,-5,-4,1,-6
58485388665,-8,5,1,-6,-2,-2,-3,-2
58485388665,-2,-6,6,13,7,-1,-6,0
58485405674,-2,1,0,-2,-2,-3,-4,2
58485405674,-6,-5,-2,-7,-2,0,-4,0
58485407255,-1,-1,-1,-7,-2,-2,-2,0
58485407255,-9,-3,0,-1,-1,1,-2,-6
58485419303,0,-6,-5,-7,0,-5,0,6
58485419303,-3,-3,-5,7,-2,0,0,-1
58485426054,3,-2,-19,-3,-5,2,-2,-1
58485426054,-5,0,17,-7,-4,-1,-2,-1
58485441822,-6,-5,11,4,-7,1,-7,-6
58485441822,-4,-2,16,-4,-3,-4,1,-2
58485448638,1,2,1,-4,3,-1,-2,-1
58485448638,-11,2,-11,-5,7,0,-2,-5
58485464911,5,-1,-8,4,8,0,-1,1
58485464911,-2,2,-10,-4,7,0,-4,3
58485466618,5,2,-7,-8,-8,1,-1,-1
58485466618,5,-2,-2,6,6,-4,-3,-5
58485479388,-6,1,1,-3,-1,-3,-2,-1
58485479388,-5,-4,-3,3,-4,-2,-3,-2
58485486210,3,-6,-9,-6,-10,-4,6,2
58485486210,-6,5,-7,-1,-4,2,-4,-5
58485501878,-4,6,-8,-4,0,-1,-1,-2
58485501878,1,1,-1,5,1,-4,-5,0
58485508719,0,3,4,-2,1,1,-5,0
58485508719,-2,-7,-2,-1,-4,-1,-4,-4
58485524949,9,-1,3,9,3,-5,0,3
58485524949,-6,2,-2,-9,-2,0,3,-7
58485526605,2,-6,6,2,-2,-2,-1,-1
58485526605,0,0,0,2,-4,-1,3,-2
58485539356,-6,-4,-2,-1,-4,0,-5,1
58485539356,1,-3,0,0,0,2,-4,-1
58485546154,-6,-5,-1,2,-2,0,-1,-1
58485546154,-5,3,1,5,0,1,1,-1
58485561862,-2,-7,1,7,-2,-3,1,-3
58485561862,0,0,2,4,-4,0,1,1
58485568651,-6,0,-4,6,3,-2,0,-3
58485568651,-8,-5,0,10,1,0,1,4
58485585027,19,9,-9,-9,-16,1,2,5
58485585027,-6,0,-4,-2,-4,-2,2,-7
58485586573,-2,-3,-1,9,0,0,-3,0
58485586573,-3,-5,2,5,1,-5,-1,-4
58485599320,-4,3,-2,-2,2,1,-6,1
58485599320,0,3,-1,-1,-4,2,-4,1
58485606099,-1,-11,3,5,2,-1,0,-1
58485606099,2,-10,0,2,-4,-2,0,3
58485621972,-3,-8,-1,-1,2,-1,-1,0
58485621972,5,-6,0,3,-2,0,-1,-6
58485628687,-7,3,4,-62,3,1,1,1
58485628687,6,3,-74,14,6,-1,-2,1
58485645033,-4,2,12,10,-1,-2,-1,-2
58485645033,-9,-2,19,8,-7,-4,-3,-2
58485646616,-5,2,21,12,-9,-1,-1,-1
58485646616,1,-5,25,-11,-11,1,-1,-5
58485659415,-7,5,-2,-7,-3,-2,-2,-3
58485659415,-1,3,-12,-10,15,-1,-6,1
58485666150,-1,4,-1,-1,12,-1,-6,1
58485666150,1,6,-2,-16,5,-2,-4,3
58485689969,-4,-3,-17,-3,0,2,-1,-4
58485689969,3,-1,-6,-13,-14,-2,3,6
58485691517,1,-3,-12,12,-5,-1,3,-1
58485691517,-3,-1,10,4,-1,0,0,-5
58485704991,-6,1,1,-2,-1,-1,-4,-4
58485704991,0,0,-2,-3,-3,-3,4,3
58485706566,1,2,-4,4,-3,-3,2,-2
58485706566,-2,5,5,-2,-3,-3,2,-1
58485718581,-5,1,6,-9,-3,0,-2,-4
58485718581,-2,1,-1,2,1,0,-2,1
58485727596,-1,-1,-4,6,-1,-2,-3,-2
58485727596,-1,-3,10,-1,-2,-1,-2,-2
58485741830,-3,-9,-3,3,1,-2,4,-2
58485741830,-4,-3,-5,-1,0,1,-3,-2
58485748576,0,3,-2,2,-5,-3,-5,-3
58485748576,-2,1,1,-1,-4,-2,-3,2
58485764950,-1,5,-4,-1,1,-4,-6,-2
58485764950,0,-1,-7,-1,0,-1,-1,-1
58485766551,-2,-2,2,4,-3,0,-1,-1
58485766551,-4,-4,1,-3,2,0,-5,-2
58485778616,1,-1,0,4,-4,-1,-3,-1
58485778616,-3,-4,4,2,4,-1,-2,-1
58485787579,-1,0,0,1,0,0,1,0
58485787579,1,0,0,-2,-2,0,2,-2
58485801782,-1,-5,1,4,0,1,1,3
58485801782,-3,0,-1,-6,1,-1,-1,-3
58485808603,-1,-1,-6,3,1,0,-3,-3
58485808603,3,-2,2,-2,-6,-1,-3,0
58485824944,-4,-5,-1,-3,-2,-1,1,-3
58485824944,-2,2,-4,-3,1,1,-5,0
58485826520,3,-2,0,-2,-1,0,-5,0
58485826520,-4,3,3,-3,-3,1,-2,-4
58485838598,-1,1,-1,0,-1,-2,1,-2
58485838598,-1,-6,-4,1,0,-1,-2,-4
58485847629,-3,-3,-3,1,-5,-2,0,-3
58485847629,0,-3,1,3,3,-2,2,0
58485861596,4,7,-3,-1,-5,4,-1,0
58485861596,-4,3,-5,-4,-3,-1,6,-5
58485870130,-3,-4,-2,-8,-2,0,1,3
58485870130,2,-4,-1,-3,-4,-1,3,-2
58485884943,-4,-1,2,-2,1,-2,-3,-2
58485884943,0,4,0,-5,-3,1,-3,1
58485892597,-2,-4,-1,3,2,-2,2,-4
58485892597,2,-3,-1,1,-1,1,-4,-3
58485898623,-2,-4,-6,-8,-9,1,-1,0
58485898623,1,-6,2,3,-2,-1,-5,0
58485907592,-1,-2,-1,-3,-1,-1,-1,1
58485907592,-4,-5,-1,0,2,0,-1,-2
58485921827,-4,5,-1,-1,2,0,1,-1
58485921827,0,-3,1,4,-4,-1,-1,-3
58485928572,0,0,-4,0,-2,-1,-2,2
58485928572,0,-1,0,5,0,-5,3,1
58485944351,1,-5,-2,5,-1,-1,-2,0
58485944351,0,-7,-2,5,0,-5,2,-2
58485951101,-5,0,-3,-3,-2,-1,1,-2
58485951101,-2,-1,-3,6,-3,0,-7,0
58485958597,-2,-10,0,2,0,0,2,-2
58485958597,1,-2,3,1,-1,-2,0,-1
58485967624,4,5,5,7,1,-1,-4,-2
58485967624,-7,2,-3,1,-2,-2,5,-4
58485981816,3,-1,2,-2,3,-5,0,-1
58485981816,2,1,-2,1,0,1,1,1
58485988563,-7,-5,-3,0,-1,-2,-1,0
58485988563,-3,2,0,0,-2,-2,0,1
58486004426,-3,0,0,0,0,0,-3,0
58486004426,0,-3,2,-1,0,1,-2,-2
58486011240,3,0,-3,-1,-2,-1,-1,-9
58486011240,1,-1,-4,-2,0,-1,-2,1
58486018690,-4,0,-1,0,-4,0,-3,-3
58486018690,-2,-1,-2,-9,-1,0,-1,-3
58486027652,-2,-5,1,5,1,1,-7,2
58486027652,-4,-4,-2,-3,-1,1,-2,-1
58486041890,-2,-7,-1,0,1,1,3,-3
58486041890,-3,1,-1,-1,-1,-2,-4,-1
58486048645,-3,1,0,0,-1,-2,-4,0
58486048645,1,6,-1,-5,-5,-1,-8,-2
58486064361,1,2,-2,-1,-1,-1,-5,1
58486064361,-3,0,-3,-4,0,-2,0,-1
58486071234,2,1,-1,-2,-1,-1,0,0
58486071234,1,-3,0,-3,2,-1,-2,-2
58486078656,-2,3,1,-4,-2,-3,-8,-2
58486078656,-2,0,-3,-6,-2,0,1,-2
58486087695,0,1,1,3,1,0,3,3
58486087695,-4,0,-2,-4,-4,2,-1,-5
58486101885,-2,-1,-4,0,-1,-2,-1,-1
58486101885,-2,2,-3,-2,-4,-1,-4,-1
58486108686,2,3,0,3,1,2,-2,4
58486108686,-1,-2,-2,-2,0,-4,1,-2
58486124390,-3,2,-1,-4,-5,-1,-4,-2
58486124390,1,0,-2,2,-2,-1,0,-4
58486131208,2,-3,0,0,-2,1,-1,-3
58486131208,-1,-3,1,0,2,-4,-2,2
58486147556,-5,-2,-3,-5,-2,-2,0,-2
58486147556,-5,-2,-5,-2,-2,0,1,-1
58486149149,-4,-1,-1,-8,-3,1,0,-4
58486149149,0,2,-1,-3,1,0,2,-1
58486161878,2,1,0,-3,3,-1,3,-1
58486161878,1,4,2,0,-1,-2,-3,0
58486168671,-3,-4,-5,-4,-3,-2,-1,-3
58486168671,0,-5,-1,1,-1,-1,-4,-1
58486184295,1,0,-1,0,-1,1,0,-2
58486184295,2,0,2,1,4,-2,0,0
58486191210,-2,-5,-2,-4,0,1,-4,-2
58486191210,-2,-1,-6,-2,-5,-2,1,0
58486207571,0,1,0,1,0,0,-4,-3
58486207571,2,-5,-1,-3,-3,-1,-4,-2
58486209130,0,-3,-4,-5,-3,-4,-2,0
58486209130,-3,0,1,-1,-1,1,-2,-2
58486221835,3,-3,-6,-4,1,-2,-2,4
58486221835,-3,-2,0,-6,-1,-1,-3,-1
58486236197,-3,5,-4,-6,-5,-1,-3,-4
58486236197,4,-5,1,-4,3,0,-3,1
58486244298,-1,-1,-1,5,-1,-1,0,2
58486244298,0,-2,2,1,-2,-2,0,1
58486251210,1,-3,-1,5,-2,-3,-5,-2
58486251210,1,2,-1,-3,1,-3,-5,1
58486267493,-2,0,0,0,1,-3,0,-2
58486267493,-5,-4,-4,0,-1,-1,-4,-2
58486269102,-1,-9,-2,2,-1,-6,-1,1
58486269102,-5,3,-5,4,-3,2,-6,-1
58486281889,4,-7,2,0,-1,-3,1,1
58486281889,-4,-2,-5,2,-4,-4,-1,0
58486288706,-1,-2,1,4,0,-1,5,-1
58486288706,0,-4,-2,-2,-2,-1,-3,-1
58486304296,-3,-1,-1,0,-4,0,3,-2
58486304296,0,6,-2,1,1,2,6,-3
58486311178,1,1,1,2,2,-3,-4,1
58486311178,-3,-3,2,1,-3,-2,1,-2
58486327475,-3,-1,-2,1,1,-1,0,-1
58486327475,1,-7,0,0,-2,-1,3,1
58486329124,-4,-2,-4,-2,-1,-3,2,-4
58486329124,-2,-1,-5,-1,-3,2,0,-2
58486341829,1,1,-3,-2,2,-1,-3,1
58486341829,0,2,1,3,0,2,-1,2
58486348649,0,-4,-1,-4,-3,0,-1,1
58486348649,-2,0,1,1,-1,-3,0,-5
58486364386,-1,-2,-1,1,-4,-3,3,-3
58486364386,-1,-2,-4,-2,0,-6,-3,-1
58486371146,-3,1,0,-5,-1,0,-2,2
58486371146,-3,-3,-1,-1,2,-2,2,0
58486387555,-3,-3,-4,-3,-5,3,-1,-3
58486387555,0,0,-1,-8,-5,0,-3,-4
58486389099,1,1,0,7,2,0,-3,-1
58486389099,5,-1,2,3,0,-3,0,-3
58486401901,-3,0,-1,1,4,-1,0,-5
58486401901,0,-1,0,2,-1,-1,-4,1
58486408737,-1,-1,-2,-6,-3,0,1,0
58486408737,-2,-3,-1,-2,0,-2,-2,-1
58486424431,1,1,-2,1,1,0,-7,-1
58486424431,1,0,0,-3,1,0,-4,-2
58486431199,1,0,0,-4,0,0,-2,-1
58486431199,4,0,-1,3,-2,-1,-4,1
58486447551,1,-1,-2,-3,-6,2,-3,-4
58486447551,-1,4,1,-4,-1,0,-7,-2
58486449148,-2,-1,0,3,-2,1,-3,-2
58486449148,1,-1,-3,2,1,1,4,0
58486461890,0,0,3,-4,5,-1,-4,-2
58486461890,-2,1,-2,-6,1,-1,-4,-2
58486468629,-1,3,1,-3,4,1,-5,-3
58486468629,-3,0,0,-4,-1,-3,-4,0
58486484365,0,0,-2,3,-4,-2,0,0
58486484365,-1,-5,0,2,0,1,-4,-1
58486491168,0,-1,-2,-6,-1,-2,2,-3
58486491168,-2,-2,-1,-3,1,0,2,-1
58486507453,-3,-1,-1,-1,-6,-4,1,3
58486507453,-2,-3,0,0,-1,-2,0,2
58486509055,-1,-4,-3,0,0,1,-6,-3
58486509055,-1,-3,-2,0,-2,-1,-2,-3
58486521813,-1,-4,2,-8,3,-6,-3,-2
58486521813,0,-1,1,-3,-3,-1,2,-3
58486528653,1,1,-2,-7,-6,0,2,0
58486528653,-1,4,-1,2,-2,0,1,-2
58486544372,0,-3,1,-7,-1,-3,-2,2
58486544372,-1,-1,0,0,1,-3,-4,1
58486551101,-2,1,-2,-5,-3,-1,-5,-1
58486551101,-1,0,0,-3,0,-1,-6,-2
58486567489,-2,3,-3,2,-4,-1,0,-3
58486567489,-1,-3,0,-3,0,0,2,-2
58486569093,-4,3,-2,0,0,-4,-4,-1
58486569093,1,0,-1,-1,-7,0,-2,0
58486581792,2,2,-2,-1,1,-3,-5,0
58486581792,2,-2,-3,-3,-6,0,3,0
58486588604,-4,-1,4,1,1,-2,7,1
58486588604,-7,2,-1,-1,1,-2,0,-3
58486604303,-1,2,-3,-3,1,0,-4,-4
58486604303,-1,-2,0,-2,1,-2,-1,2
58486611076,-1,-5,-4,-3,-3,2,1,-2
58486611076,0,-2,-2,-2,-2,-1,-1,1
58486627450,0,-1,4,1,-3,2,-2,-1
58486627450,-3,4,-3,-2,-1,2,-2,-2
58486629072,2,-2,-3,-1,-1,-1,-1,1
58486629072,-2,-1,-3,-3,-5,-1,-1,-4
58486641112,-2,-2,-3,0,2,-1,1,-1
58486641112,-2,-2,-4,1,-3,-1,3,-1
58486650062,1,-4,4,3,1,0,-1,-2
58486650062,6,1,-7,-4,-5,-4,0,3
58486664467,-1,-4,-2,4,-3,0,1,-3
58486664467,-3,-1,1,3,-1,-2,1,-4
58486671206,-4,1,-1,1,-5,-1,-8,-9
58486671206,-5,-3,0,5,-3,0,-3,1
58486687976,-1,-3,-3,3,-1,-2,-2,2
58486687976,-1,-1,-2,2,4,-1,-3,-1
58486693725,-1,5,-3,7,-3,-5,4,-3
58486693725,-1,-4,0,4,-2,-1,0,-2
58486709412,-3,-6,-2,-3,-3,-1,2,-1
58486709412,-1,-4,-1,6,-2,-3,-1,-3
58486710132,-2,0,0,5,-4,-1,1,3
58486710132,-4,3,3,1,0,2,-3,-1
58486725276,-2,1,-4,4,-5,-2,9,-4
58486725276,2,-1,-3,-2,-2,0,0,-2
58486731112,-1,-1,-3,7,-2,-1,-3,-2
58486731112,-5,0,-1,6,-1,-5,2,1
58486746883,-3,-2,1,2,0,1,-4,0
58486746883,0,1,0,-3,-4,-1,-1,2
58486747575,0,-6,-1,8,0,-4,2,2
58486747575,-2,-3,-2,0,-2,-1,1,-3
58486769368,-2,0,-1,-3,-2,-1,-2,-2
58486769368,1,2,-2,1,0,-1,-3,-4
58486770165,0,3,-2,-1,3,-2,3,0
58486770165,1,-5,-4,-3,-3,-1,1,-5
58486785167,-2,-2,2,-2,-1,-1,-2,3
58486785167,-3,-3,3,-2,-1,-2,1,0
58486799426,0,-2,-1,-6,-1,-2,-3,2
58486799426,2,-2,0,-2,0,-1,-8,2
58486806842,0,2,0,-4,-3,-3,-3,-1
58486806842,-4,5,-2,-2,2,-3,-2,-2
58486807596,-2,0,0,-5,0,3,-2,0
58486807596,0,3,-2,0,1,-4,0,2
58486829385,-3,-4,-1,1,-2,0,-1,2
58486829385,0,-3,1,0,-1,1,0,1
58486830106,1,-3,-4,-8,-3,-4,-1,-4
58486830106,-1,1,2,-3,0,0,-7,-3
58486845188,0,0,-1,-5,0,-1,-1,-7
58486845188,-3,1,1,0,-1,-2,-3,-2
58486851235,-2,-5,0,7,0,-4,-3,-2
58486851235,5,-5,0,-1,1,0,-5,0
58486866212,0,-2,-2,-3,-3,-3,-1,-2
58486866212,-4,-6,-1,-2,0,-4,0,0
58486873712,-3,-4,-3,5,-5,2,-2,-3
58486873712,-6,-2,1,0,0,0,1,-3
58486889289,0,-1,-2,0,-3,-2,2,2
58486889289,2,-2,-1,-4,-2,-1,3,1
58486890060,-2,1,3,4,-3,0,0,1
58486890060,-2,-2,0,-3,0,-1,2,-2
58486905136,0,-1,0,-2,0,1,0,-1
58486905136,-3,1,-3,-7,1,-4,-3,-3
58486911116,-5,2,-1,-1,4,-4,3,-5
58486911116,0,1,-1,-2,-1,-1,-2,0
58486926124,5,-3,-2,-6,-1,-1,1,2
58486926124,2,-2,-3,-3,-3,0,-5,1
58486933593,-2,1,-3,-11,0,2,4,-2
58486933593,-4,-1,0,1,-2,-1,-3,-1
58486949312,-3,-2,3,-6,1,2,1,-3
58486949312,0,0,-4,-8,-2,-6,-5,-4
58486950066,0,-1,-2,-3,0,0,-2,2
58486950066,-2,-2,-2,-3,0,0,4,-1
58486965117,4,-1,0,-8,2,-1,-4,4
58486965117,-4,0,-3,0,-2,-1,3,-4
58486971102,2,-1,-2,-4,-3,1,-5,0
58486971102,-4,-2,0,-6,0,1,-1,-2
58486986112,-4,-1,-2,3,3,0,-5,-3
58486986112,3,0,-3,-7,-5,2,2,5
58486993631,-2,-3,-1,-11,-1,3,-5,-5
58486993631,-2,1,-3,-2,-1,-4,-7,-4
58487009299,-5,0,3,-1,3,1,2,-5
58487009299,-5,-4,-1,0,4,1,-7,-1
58487010095,5,-2,-4,-6,-4,-4,-5,0
58487010095,-2,-4,0,-3,-2,-1,3,-4
58487025143,0,2,-4,-6,-3,-3,-3,2
58487025143,-3,-4,-1,2,-2,-2,1,-3
58487031107,-4,1,4,5,-1,-2,-1,-2
58487031107,0,-1,-3,1,-4,-2,-5,-2
58487046147,2,-2,-1,7,-4,-2,-3,0
58487046147,-1,4,1,4,-2,-1,1,-1
58487053644,-2,1,-1,6,-3,0,-4,0
58487053644,-4,-2,-2,1,0,-1,0,1
58487069252,-1,2,-2,-2,-3,-1,0,-2
58487069252,6,0,-5,4,-1,1,-1,0
58487070042,-2,-4,1,7,0,0,0,-3
58487070042,-1,2,-1,4,-2,1,-5,-2
58487085098,-2,-5,0,6,0,0,-3,0
58487085098,-2,-4,-2,-7,-1,1,-5,-3
58487091225,-2,-4,-2,4,-3,-5,2,-2
58487091225,3,-4,2,5,-1,-2,5,1
58487106188,-4,1,-4,-1,0,0,0,-1
58487106188,-4,0,-1,4,1,0,-1,-3
58487113694,-6,-1,-5,3,-1,-2,6,-2
58487113694,-2,0,-2,-1,-1,-2,-1,-3
58487129349,-1,-3,-3,3,-3,-3,0,-3
58487129349,-4,-1,0,3,0,0,-3,-4
58487130181,-1,2,0,-4,-1,-1,1,1
58487130181,-1,-5,-2,-2,1,-2,-2,0
58487145151,-2,1,-4,1,2,0,0,-2
58487145151,1,-1,-3,-3,-1,-1,0,0
58487151096,-2,-5,4,0,-1,-1,2,-3
58487151096,-1,3,-2,-1,1,-1,-2,2
58487166202,0,-1,-1,-4,-1,0,1,-2
58487166202,-1,0,4,2,-1,-2,-3,-1
58487173666,-2,0,-2,-3,1,1,-4,-4
58487173666,-2,-2,-2,0,-3,0,1,0
58487189335,5,-5,-5,-3,-2,-2,-3,1
58487189335,-4,0,0,-2,-3,-1,0,-7
58487190093,2,-1,-1,-4,1,-2,-1,-1
58487190093,-1,5,-1,-8,-4,-2,-1,-3
58487205199,-3,0,2,-2,1,-4,-2,-2
58487205199,5,2,1,-3,2,-1,-1,3
58487211180,1,-2,0,-6,3,-2,-1,0
58487211180,0,3,-1,-5,-2,-1,-1,-2
58487226224,-2,4,-2,-3,-2,2,-3,-3
58487226224,1,-1,-2,-7,0,-2,1,1
58487233727,-1,-1,1,-1,-1,-1,-4,-3
58487233727,1,-4,-2,2,-3,4,-1,-1
58487249365,-3,-3,-1,-1,-5,-4,-2,-2
58487249365,-4,-5,-5,-4,-4,1,1,0
58487250118,-1,0,-3,-1,-3,-1,-2,-3
58487250118,-1,2,-3,-1,3,0,1,0
58487265165,0,1,1,-3,-3,1,-1,-3
58487265165,1,3,-3,-3,3,-3,-3,0
58487271173,2,0,-3,-4,-2,-5,-4,0
58487271173,-1,-3,2,-5,1,2,1,1
58487287661,-2,-1,-3,1,-2,1,-2,-2
58487287661,-3,-6,0,-4,0,-1,-3,0
58487293639,-1,2,-7,-4,-2,2,-1,-6
58487293639,-2,1,-1,-1,0,-4,-1,-1
58487309299,-3,-1,-2,3,-2,-3,2,-1
58487309299,2,2,2,-3,-1,0,-8,1
58487310064,3,2,-4,-4,-3,-2,-3,3
58487310064,-2,-3,-1,0,-2,2,-3,0
58487331758,2,1,0,-4,-1,0,-1,-2
58487331758,-3,0,-3,3,-4,-2,3,-2
58487332575,2,2,1,-4,-3,-2,-2,1
58487332575,-1,-2,-2,-6,-3,-4,1,-5
58487346143,0,-3,3,1,-2,-3,-5,1
58487346143,3,-2,-2,-2,0,-4,-4,0
58487353642,0,1,1,-5,1,2,-6,0
58487353642,-1,-4,2,2,0,0,1,-3
58487369304,-3,0,-1,-2,1,-1,0,-2
58487369304,0,0,1,-8,-1,-2,-1,-5
58487370098,-1,-4,0,1,-2,0,0,-2
58487370098,1,1,0,-1,-2,-3,-2,0
58487385125,-3,0,-2,-6,-3,3,-8,-2
58487385125,0,1,-1,3,-4,0,-4,1
58487391143,-2,-3,-1,3,-1,1,1,0
58487391143,-2,-2,-2,-3,0,0,-4,1
58487406122,-1,-3,-2,1,0,-3,1,-1
58487406122,-3,0,-4,2,-1,-4,1,-7
58487413647,2,0,-3,-7,-4,-4,-5,1
58487413647,2,-2,-1,5,-2,0,2,0
58487429351,-1,-3,0,0,3,0,0,-4
58487429351,-2,-4,-7,-5,-2,3,-5,1
58487430115,-1,-1,0,0,2,-2,-3,1
58487430115,-3,-3,1,2,-3,-2,2,-2
58487445195,-3,1,-1,5,-2,1,-2,-1
58487445195,-3,-3,3,-3,-1,-2,-3,0
58487451147,-3,-2,-3,3,-1,-1,-1,-10
58487451147,-2,-1,3,3,-2,-3,1,1
58487466161,2,-1,-1,-1,1,-2,1,0
58487466161,-1,-4,-1,13,0,-2,-1,-2
58487473722,-1,5,-1,-1,-2,-1,-3,2
58487473722,-1,0,-1,3,1,-2,-4,-3
58487489413,-2,4,1,-3,-3,0,2,-1
58487489413,1,-4,-3,2,0,-4,-4,1
58487490113,-3,1,-3,-2,-3,0,-3,-2
58487490113,-3,1,-2,-1,0,0,0,-1
58487505198,0,-6,-1,-1,-3,2,-3,3
58487505198,-1,1,-1,7,-2,-1,4,-2
58487511262,-1,-6,1,2,-1,-2,3,-1
58487511262,-1,-1,-4,-1,-2,-1,0,2
58487526194,-3,-1,-3,-1,3,2,0,-2
58487526194,-5,-2,2,11,-2,-1,0,-3
58487533701,-1,1,1,1,2,-1,-1,-3
58487533701,1,-2,-4,-7,0,2,-2,-2
58487549373,2,-2,-5,-2,-2,-3,0,-1
58487549373,-1,1,2,0,0,3,-1,0
58487550164,-3,-5,1,-5,-1,0,-1,2
58487550164,1,5,-1,-7,-2,-2,-4,-5
58487565121,-2,-2,3,-4,-1,-1,-3,-3
58487565121,-2,2,-1,-5,-1,-5,2,2
58487571197,2,-5,0,4,1,0,-7,1
58487571197,-4,-2,2,-6,0,1,-1,-3
58487586195,1,-3,-2,-3,-1,-3,-3,-1
58487586195,0,1,-2,-7,4,-1,-3,0
58487593725,-1,-1,-1,-6,1,1,0,-3
58487593725,0,-2,-3,-3,-7,1,-1,2
58487609325,-3,2,-3,0,1,1,0,0
58487609325,-3,-4,0,-7,1,-2,-7,-10
58487610127,-5,-2,3,1,1,-3,-1,-2
58487610127,3,0,-4,-2,-1,-5,1,3
58487625642,-2,2,-1,-7,-4,-4,-5,-3
58487625642,0,1,-1,-6,1,1,-1,1
58487631199,0,3,-3,-5,-1,1,-1,1
58487631199,-1,1,1,2,0,-2,-2,-1
58487646240,-5,0,0,0,-1,-3,0,-1
58487646240,3,1,-5,-8,-6,0,-1,-1
58487653713,-2,-1,2,1,1,-1,-3,-1
58487653713,0,-3,-1,0,1,0,-4,-1
58487668661,-1,-2,-2,-2,0,-2,4,-1
58487668661,-4,0,-2,-5,-1,1,-2,-1
58487676152,-1,-1,-2,-2,-2,0,0,-1
58487676152,-2,0,1,-2,-1,-6,0,-1
58487685097,-1,3,-1,-2,-2,0,0,-5
58487685097,1,0,1,-4,-1,1,-2,5
58487691171,0,4,-1,-2,-2,2,2,1
58487691171,-1,-3,0,-3,-1,-1,-2,-1
58487706125,0,-3,3,0,-1,0,-2,1
58487706125,-3,0,3,-2,-2,-1,-5,-4
58487713596,-2,1,0,-2,2,1,-3,-3
58487713596,-1,-1,-2,-1,1,1,-5,-3
58487729277,0,-2,0,0,2,3,-6,1
58487729277,1,-2,-2,-8,-3,-2,-4,-1
58487730093,-4,-3,-3,-2,-4,-3,-1,2
58487730093,-2,-2,-1,-2,-3,4,0,-1
58487745122,2,-6,-2,-2,-2,-1,-1,0
58487745122,-2,-4,-2,1,-2,-4,-1,2
58487751112,0,-3,-1,1,-2,-2,-1,-6
58487751112,0,1,-1,-6,-2,-1,0,1
58487766140,-2,0,-3,0,-1,0,-1,-1
58487766140,-3,-1,1,-1,-2,0,-3,-1
58487773640,0,-2,1,-2,-1,-4,-3,-2
58487773640,1,0,-2,1,0,-3,0,-2
58487789345,1,-1,-2,-1,-4,-1,4,2
58487789345,-4,-3,1,-2,2,0,3,-3
58487790108,-1,-8,-3,1,-3,1,-5,-1
58487790108,1,3,2,2,-2,2,-3,-3
58487805246,-4,-2,-4,4,-1,-2,-1,-2
58487805246,-5,0,-2,-1,1,2,2,-3
58487811253,0,0,0,0,-3,-1,1,0
58487811253,-3,-1,-5,4,-3,-1,1,-2
58487826123,-2,-1,1,5,-1,3,2,-1
58487826123,-2,1,-5,3,-3,-2,-2,0
58487833746,-5,-3,0,0,2,-1,3,-1
58487833746,0,-3,-3,-3,-3,1,4,3
58487848771,1,1,-3,0,-3,-2,-1,-2
58487848771,-4,2,1,8,1,1,2,-3
58487856245,2,-1,-1,3,0,-2,0,0
58487856245,-3,-1,0,3,0,-3,1,-1
58487865196,-4,-1,1,-5,2,-1,-3,-4
58487865196,1,1,0,5,-1,-4,5,-2
58487871181,-3,-2,-5,0,1,-1,1,-1
58487871181,-1,-4,-2,1,2,-2,-2,-3
58487886130,2,-5,-2,-5,-2,1,-5,0
58487886130,-1,-3,-1,7,-4,-1,-1,1
58487893741,-2,2,0,-2,1,0,1,-1
58487893741,-4,-2,1,-2,0,0,-2,-11
58487908748,-1,0,-1,-2,0,-2,1,1
58487908748,1,-5,-2,0,1,2,1,-1
58487916227,0,1,1,-8,0,-2,-4,5
58487916227,1,-6,2,-6,-2,1,1,1
58487925199,2,3,1,0,0,-4,-4,-1
58487925199,0,-2,2,-9,-1,-1,0,-3
58487931227,-4,-1,-4,-8,-4,-1,-5,0
58487931227,2,0,-1,-4,2,-2,-6,-2
58487946259,-2,-1,-2,-6,0,-1,-5,-1
58487946259,1,0,0,-8,-5,0,-5,1
58487953729,3,2,-1,-3,-1,-1,0,-1
58487953729,-4,2,-3,-8,1,-3,-2,0
58487968730,-2,-2,-2,-2,-1,1,0,-1
58487968730,-2,5,-1,-6,-2,3,-4,1
58487976244,-3,-1,1,-2,-1,0,-1,-4
58487976244,2,-1,-2,-3,-2,-1,-1,2
58487985202,-5,-4,3,0,0,-1,3,-3
58487985202,0,0,-4,-4,-5,-4,4,-1
58487991245,4,-1,-5,-4,0,-2,-4,0
58487991245,-1,2,0,4,-1,0,-4,0
58488006236,-3,1,-5,-3,2,-3,-3,1
58488006236,0,1,2,-3,1,0,-1,0
58488013758,-3,1,-1,6,0,-2,-5,-4
58488013758,-3,0,-1,-3,1,-1,-2,-2
58488028764,-1,-1,2,-3,-3,0,-3,-2
58488028764,-1,-5,-1,1,-1,-1,1,-1
58488036242,0,1,1,1,-2,-1,-2,2
58488036242,-1,-2,4,-1,0,-1,-1,-3
58488051903,2,-1,-2,0,-2,-2,0,3
58488051903,4,-3,-4,-6,-1,-5,3,-2
58488052661,-4,-4,-2,-4,-2,0,1,0
58488052661,-3,-4,0,3,-1,-3,-2,3
58488066111,-2,-2,-1,-2,-4,-2,5,-3
58488066111,-1,-1,-1,1,0,-1,-6,-2
58488073750,1,-1,-3,-5,-2,0,-2,0
58488073750,-2,1,-1,-2,0,0,3,-2
58488088695,0,2,1,-1,2,3,-3,-2
58488088695,-3,0,0,-1,-5,0,-3,-2
58488096234,-1,-4,-1,-5,-5,-1,-1,-3
58488096234,1,1,-3,2,-1,0,1,2
58488113371,-2,0,-2,4,-2,-1,1,-2
58488113371,-3,-3,0,-4,1,-1,-6,3
58488114158,0,1,0,-2,1,1,-5,-1
58488114158,3,-1,-2,-5,-5,-1,-3,3
58488126224,-3,2,1,-4,2,0,-3,2
58488126224,-3,-1,-2,0,2,1,-5,-4
58488133702,-4,-1,-2,-4,0,-1,4,-3
58488133702,-2,-6,-2,-1,-3,0,-2,-2
58488148707,0,-2,-1,-5,-2,-2,-6,-3
58488148707,3,3,-5,-4,-2,-6,2,2
58488156204,1,1,-2,3,-2,0,-4,-3
58488156204,1,-4,-4,5,-2,0,-4,-2
58488171873,-4,-2,-1,2,-3,-3,-2,0
58488171873,-4,-4,1,3,-3,-4,-1,-3
58488172601,1,1,-2,2,-2,2,1,0
58488172601,-3,-1,-3,2,0,-2,-2,0
58488186157,0,-4,-4,1,-3,-2,1,-2
58488186157,-2,1,-5,1,-2,-4,0,2
58488193644,0,-1,2,-1,0,-4,-6,1
58488193644,-3,-2,1,1,-1,0,-2,-3
58488208658,2,-2,-2,5,-3,2,-1,-1
58488208658,1,-6,1,0,0,1,-2,-2
58488216221,0,-2,-2,7,-1,-3,1,0
58488216221,-4,0,-2,1,-2,-2,5,0
58488231788,-1,-3,2,1,-1,0,1,1
58488231788,-1,0,-3,5,-1,2,1,-4
58488232589,-3,-5,-1,7,-2,-2,0,1
58488232589,0,2,-3,-1,-6,-1,0,-2
58488246119,2,-1,-2,-6,-3,-3,0,2
58488246119,1,-3,-1,3,-1,2,-3,-1
58488253601,-3,-1,0,-1,1,-5,2,-6
58488253601,-1,0,2,-3,2,-1,-3,-1
58488268659,-3,1,0,0,-3,-3,-4,-2
58488268659,-3,-2,-4,-3,1,1,2,0
58488276172,0,-5,-2,-7,-2,3,-2,0
58488276172,0,-5,4,0,-1,0,-1,-1
58488291939,-2,0,-1,0,-3,-1,1,-3
58488291939,-1,-2,0,-5,0,-2,-3,0
58488292663,-1,-2,0,-1,-2,1,-3,-2
58488292663,-3,-2,-3,-4,-1,0,-1,-2
58488306226,-1,-1,-2,-4,1,1,-4,1
58488306226,-3,2,3,-1,-2,-2,0,-1
58488313790,1,-1,-1,-1,1,-2,-2,-2
58488313790,2,5,0,-3,2,-1,-2,1
58488328738,0,1,-4,-3,0,1,-3,-7
58488328738,0,2,0,-5,-3,0,0,-1
58488336284,1,-1,-1,-8,-2,-1,-4,5
58488336284,-4,1,-3,3,-1,-1,-2,-2
58488351877,-2,0,1,0,-5,3,2,-3
58488351877,0,-4,-1,-7,1,-3,-6,-1
58488352601,-3,1,2,-1,-1,-1,-1,-4
58488352601,0,2,-2,-4,-2,-3,-4,0
58488366225,-1,-1,-2,4,0,-1,1,2
58488366225,-3,-6,3,3,0,2,1,-2
58488373685,-2,0,-2,0,0,2,-1,-1
58488373685,1,-1,-1,-4,3,-2,-3,0
58488388657,0,1,-3,-7,-1,-2,2,0
58488388657,-3,5,-2,-3,-4,0,-2,-3
58488396174,-3,-2,0,-2,0,0,3,0
58488396174,-1,-3,-3,-4,-1,-3,0,-2
58488420095,2,-3,1,1,0,0,-2,2
58488420095,-7,-4,0,-4,-3,-1,1,-3
58488420871,0,1,0,-2,1,0,2,-2
58488420871,-3,-3,1,3,-2,1,-2,-3
58488426232,-2,-2,-2,-2,-1,-3,-4,2
58488426232,-1,1,-2,-8,1,0,-4,1
58488433729,0,-1,-1,-9,-2,-1,-1,-3
58488433729,2,-4,0,-7,-2,-3,0,2
58488448752,-1,-1,-1,-2,1,-1,-3,1
58488448752,1,-6,-2,-2,-1,2,-4,2
58488456172,-2,5,-2,-3,-3,0,-4,-3
58488456172,1,-2,-1,-10,-2,1,-1,4
58488471844,-6,-1,1,-3,-2,-1,1,-4
58488471844,1,-3,-2,-2,0,-2,-1,0
58488472626,1,0,-3,-5,1,-1,-2,3
58488472626,-2,0,-1,1,-2,-1,3,-4
58488486240,0,2,-1,-8,2,-3,-2,1
58488486240,-2,-2,1,-6,0,-2,-4,-2
58488493677,2,-1,-4,-1,-3,-2,-2,0
58488493677,-1,4,-2,-6,1,-1,-2,-5
58488508721,-4,0,-3,-3,1,0,-4,-6
58488508721,-1,3,-2,4,-1,2,-5,-1
58488516218,-1,0,1,1,-1,-2,-6,-3
58488516218,-1,-4,0,-1,-2,2,-5,-2
58488531941,-2,1,-1,2,-2,-3,-3,1
58488531941,-3,4,-6,-3,-1,-1,-4,-5
58488532643,-4,-1,-1,1,-3,-1,0,-4
58488532643,1,-4,-1,2,-1,-1,-2,-1
58488546234,3,-6,1,1,-3,-1,-4,1
58488546234,-2,-1,-2,3,1,0,-1,-2
58488553724,-5,1,-2,4,2,0,-2,0
58488553724,-2,1,2,3,-2,-1,-3,-2
58488568778,-3,-5,-7,2,0,1,-3,-4
58488568778,-1,-1,-3,4,-5,-6,2,0
58488576155,0,0,-2,-2,-3,0,0,-2
58488576155,-2,-1,-2,5,-2,-3,-4,-2
58488591871,-1,-1,-1,6,0,-1,5,-4
58488591871,1,-6,-1,-1,-2,-2,3,1
58488592702,-1,-5,-2,8,-2,2,-1,0
58488592702,-2,0,-2,1,-4,-3,0,-4
58488606141,-2,-1,4,0,-1,-2,-8,-1
58488606141,-3,1,-1,7,-2,-1,-1,-1
58488613767,-6,-3,-1,2,0,-1,1,-2
58488613767,-2,2,-4,-5,0,0,-2,2
58488628765,2,1,0,4,1,2,2,-6
58488628765,3,-6,-1,2,-1,-2,2,4
58488636193,1,-3,1,-2,-2,-1,-3,-1
58488636193,-4,0,-3,5,1,0,2,-3
58488651831,0,1,-2,-7,1,2,-1,-3
58488651831,2,-3,1,0,3,-2,-2,1
58488652662,-1,-5,-1,-3,1,-3,-4,-1
58488652662,1,0,0,-2,-5,-1,0,4
58488666243,-1,-6,-1,-4,-4,-1,0,3
58488666243,-2,1,-1,-2,-2,-1,-5,-6
58488673755,1,-1,-4,-8,-2,-5,0,0
58488673755,-1,1,-1,2,1,1,3,-4
58488688677,0,-5,-4,0,-1,-4,-4,1
58488688677,-2,2,0,-1,-1,1,-1,2
58488696292,-1,1,0,-5,-1,-1,-1,1
58488696292,1,-3,1,-2,0,-2,-3,-2
58488711903,-3,4,2,-5,-4,1,-2,-1
58488711903,1,2,-3,0,-2,1,-2,-2
58488712630,-1,0,0,-2,-1,2,-3,-1
58488712630,-2,1,3,-5,1,-3,0,0
58488726186,-1,-1,-2,-2,-4,-1,1,-3
58488726186,0,-1,-2,-1,1,-3,-3,3
58488733677,-1,-1,3,-2,-1,-2,-6,-3
58488733677,0,-5,-2,-7,0,-4,-2,0
58488748767,-1,1,0,0,-2,-1,1,1
58488748767,1,-2,2,-2,-1,-1,1,-1
58488756190,2,1,-3,-1,0,1,-3,-2
58488756190,-2,-5,-1,0,-1,-1,0,-2
58488771182,-3,1,-2,-6,-2,-4,3,0
58488771182,2,0,-1,-7,-4,-1,-1,-1
58488779318,1,-1,-1,-1,-4,-4,-4,1
58488779318,0,2,1,-5,-1,-2,0,-2
58488786179,-2,2,-1,-4,2,1,-6,-2
58488786179,0,2,0,-6,2,0,1,-1
58488793705,-5,0,-1,-1,-1,-3,0,-1
58488793705,-1,0,2,-4,2,1,-4,0
58488808641,3,-4,1,-2,-1,-4,-3,-2
58488808641,-2,0,-1,-2,0,-2,-1,-1
58488816192,-2,2,-4,-1,-3,1,-5,-1
58488816192,2,0,-4,-4,0,2,1,0
58488831159,-1,1,-3,-2,-1,-3,0,-1
58488831159,-2,-4,-5,-6,-6,4,-2,-4
58488839394,1,2,-2,-10,0,-3,1,-2
58488839394,-2,1,0,-3,0,1,-1,0
58488846142,-1,-2,0,5,1,-2,-2,3
58488846142,-1,0,4,5,4,0,-2,-5
58488853639,2,-1,-7,-8,-9,1,-6,2
58488853639,-2,0,-2,-2,2,-2,-3,-4
58488868666,1,1,-1,-6,-3,-1,-4,-1
58488868666,-2,-3,0,3,0,-1,-2,-5
58488876162,-7,-2,-1,-2,3,-2,4,0
58488876162,1,3,-4,-8,-5,-1,-5,0
58488891184,-7,2,-3,2,-2,1,0,-7
58488891184,-1,-2,-5,-5,-1,-4,-5,3
58488899326,0,-3,2,-1,3,-1,0,-1
58488899326,-6,-6,1,1,-2,1,-5,-4
58488906187,1,0,-1,3,-1,2,-7,-2
58488906187,-1,-3,-3,-6,-5,-1,-6,0
58488913683,0,2,-1,5,-1,-5,-3,-2
58488913683,-3,-4,-4,1,-5,1,1,1
58488928665,-1,-3,-5,-3,-1,-3,-2,-1
58488928665,-2,0,1,5,-3,-2,1,0
58488936228,-2,-2,-1,1,-1,0,2,-3
58488936228,-3,-4,-1,0,-3,-1,1,-5
58488952704,0,-5,-3,12,0,0,4,0
58488952704,-3,0,0,-3,0,-1,2,-2
58488959451,2,-4,0,3,-2,0,0,-3
58488959451,-3,1,-2,5,0,-4,-3,0
58488974455,-1,-4,-1,-1,-2,-1,0,1
58488974455,-2,-2,-5,3,-4,-2,1,-2
58488975245,-1,0,0,3,-5,-1,-3,2
58488975245,-4,-2,0,7,7,-1,0,-3
58488990275,5,-2,-6,-7,-9,0,1,8
58488990275,10,2,-2,-1,-2,0,-1,8
58488996283,-2,-4,2,-3,-3,-3,-3,-2
58488996283,-4,-3,0,12,1,1,2,-2
58489011265,-1,2,3,0,2,-2,-1,1
58489011265,0,-3,-1,4,-2,3,-5,-1
58489019423,-1,-5,-4,-3,0,-3,0,1
58489019423,1,-4,1,-4,-3,0,2,-1
58489034381,-7,-2,3,-7,3,0,-3,-4
58489034381,1,3,0,-2,-1,-1,1,-3
58489035226,1,-1,-4,-7,-3,4,-6,7
58489035226,-3,3,-5,-1,-3,-3,-3,-1
58489048782,-1,4,1,-8,0,1,-2,-3
58489048782,-5,-4,1,-5,-1,-1,-5,-4
58489056287,-1,-2,2,4,3,-1,-2,-4
58489056287,6,4,-3,-6,-2,-5,1,4
58489072713,-1,2,-2,-9,-1,1,4,-2
58489072713,-3,-3,-1,-6,-5,0,2,0
58489079398,0,5,2,-2,3,-3,-4,-3
58489079398,0,-3,2,-9,-2,-1,-1,1
58489094397,0,3,-4,1,-1,-5,-2,1
58489094397,-6,4,-1,-6,2,-1,-6,-2
58489095192,-2,-1,0,-4,1,-1,-3,-1
58489095192,-1,-4,0,-4,0,1,-4,-1
58489108747,1,-3,0,-2,-1,1,9,-5
58489108747,2,1,0,-1,0,-4,-7,-2
58489116294,-1,-1,-4,-5,-3,-1,-1,-3
58489116294,-2,-1,0,-2,-1,3,0,-1
58489131271,0,-4,0,1,-3,-2,-4,-2
58489131271,-1,-3,-1,-2,3,0,3,1
58489139322,8,9,1,12,5,-2,-1,5
58489139322,2,-14,2,-9,1,-1,-6,1
58489154398,-13,1,-7,-3,-5,-2,-4,-7
58489154398,2,-6,-2,-13,-3,-2,-3,3
58489155132,-20,-2,-8,-3,-2,-2,0,-8
58489155132,-8,0,-7,-8,-15,-4,-3,-10
58489168721,-10,-1,-11,-8,-16,-2,1,-8
58489168721,-20,-11,-14,-29,-23,-4,-1,-13
58489176232,-16,-2,-15,-29,-23,-5,0,-9
58489176232,-16,-4,-15,-33,-13,-11,-5,-8
58489191138,-7,-1,-10,-21,-8,-2,1,-2
58489191138,1,3,-9,-20,-7,-5,-2,-1
58489199326,15,-1,9,14,15,4,3,10
58489199326,18,4,13,25,17,10,1,13
58489214351,34,-4,31,45,27,10,-2,15
58489214351,32,14,27,43,21,5,8,12
58489215119,20,-1,12,15,1,6,-6,8
58489215119,11,4,4,10,33,5,2,3
58489228639,4,-2,4,-5,12,1,-4,4
58489228639,-12,0,-5,1,1,-4,-8,-10
58489236124,0,1,2,12,1,-4,2,-1
58489236124,2,1,-4,6,-17,-1,-3,-1
58489251125,-10,1,-7,-10,-10,-4,-1,-7
58489251125,-14,-5,-7,-8,-20,-2,-1,-7
58489259409,-17,-4,-12,-25,-24,-4,0,-13
58489259409,-14,-5,-12,1,-8,-5,-4,-7
58489274296,7,-5,4,9,-1,3,4,5
58489274296,3,1,-5,-12,-28,-4,-2,3
58489275098,-8,3,2,-8,6,-3,-1,-4
58489275098,-7,-2,-10,-48,-28,-2,-4,-2
58489288634,-15,-3,-16,-86,-25,-4,-12,-10
58489288634,-33,0,-17,-87,-2,4,-4,-15
58489296306,-4,-16,13,-52,-33,2,-4,-2
58489296306,12,2,10,20,17,-3,4,7
58489311293,14,1,7,72,28,-2,4,7
58489311293,30,0,7,105,24,0,6,18
58489319482,25,8,4,96,29,3,4,15
58489319482,8,-1,9,67,16,0,-1,3
58489334314,-9,13,2,35,8,-3,0,-8
58489334314,-18,-1,-1,31,10,-4,-5,-12
58489335195,-17,1,-6,-5,-1,0,-2,-10
58489335195,-5,4,-5,2,-15,-3,-1,1
58489348806,5,-8,-29,0,-5,2,-1,3
58489348806,10,4,28,16,-2,4,1,1
58489356221,9,-3,11,9,13,-3,-1,7
58489356221,5,-4,22,2,-1,-1,1,1
58489371251,-1,-6,18,6,5,-1,-3,4
58489371251,-1,1,-4,-1,-1,-1,-1,-1
58489379433,-1,-2,-6,-12,-8,0,-3,-5
58489379433,-17,5,-12,-16,0,0,0,-12
58489394438,-9,1,-9,-8,-8,-2,-2,-5
58489394438,-4,-7,-10,-9,0,2,1,-2
58489395121,-2,-2,-6,-18,2,0,1,0
58489395121,-4,0,-8,-9,1,0,-5,-4
58489408703,-3,0,-1,-17,-2,2,5,-3
58489408703,1,1,-2,-21,2,-2,-2,0
58489416191,-1,1,-11,-21,-3,1,-5,-2
58489416191,2,3,-4,-18,1,5,-4,3
58489431272,3,5,4,-7,-4,-3,-6,-1
58489431272,-4,-1,1,-5,5,2,-1,-4
58489439396,-6,-2,-1,-8,-7,-2,-9,-5
58489439396,-2,0,1,-9,-2,0,0,-4
58489454332,-5,-3,1,-11,-17,-2,-11,-1
58489454332,-2,-1,-11,-30,-6,-1,0,2
58489455219,-1,-4,-3,-2,-7,-4,-4,1
58489455219,-8,-6,2,7,3,-1,0,-6
58489468782,-22,-3,8,31,13,-9,4,-17
58489468782,8,2,0,-12,-15,-1,-2,8
58489476211,7,2,1,-5,7,5,-1,4
58489476211,6,2,-10,-11,-5,-3,-3,4
58489491151,-2,5,-7,-12,7,0,-1,-1
58489491151,1,-3,0,15,6,0,-2,-1
58489499409,-4,-3,-3,13,6,-2,-1,-5
58489499409,-1,-1,-5,0,-4,-2,-3,-4
58489514292,5,1,-24,-10,1,-3,-6,5
58489514292,1,-3,4,-5,-3,1,-4,0
58489515092,7,-4,3,-10,-2,0,-1,5
58489515092,3,2,26,10,5,1,-3,1
58489536848,1,3,17,12,-4,-4,3,-1
58489536848,0,6,-2,-1,-2,2,2,2
58489537649,-4,-2,-7,10,9,-4,-3,-5
58489537649,-6,2,-16,-1,-2,0,3,-7
58489551177,-2,-2,-17,-13,-5,2,-1,-2
58489551177,-3,-7,-9,1,2,-3,-1,-3
58489559341,-9,2,-4,2,-1,0,-2,-6
58489559341,-3,-3,-3,0,-6,-2,2,-1
58489573710,4,1,7,-4,-3,4,1,1
58489573710,5,2,5,7,-6,-3,-5,1
58489581884,4,0,-2,-3,-2,2,-2,-1
58489581884,4,0,-1,-3,-6,-3,-4,1
58489588720,-2,-3,5,0,-1,-3,-5,1
58489588720,0,-2,-3,-4,-7,-4,-1,-3
58489596335,0,-1,-4,-7,-2,0,-3,3
58489596335,-5,-2,-8,-8,1,-3,0,-1
58489611264,3,-6,1,-14,-16,2,-2,0
58489611264,-2,-2,1,-6,1,0,-4,-6
58489619520,-5,5,-5,-16,-1,-1,-4,-4
58489619520,-1,-5,0,-10,-10,0,-2,1
58489634487,0,-3,-3,-16,-8,-1,-2,-1
58489634487,-3,-1,-5,-11,-4,-3,-6,0
58489635254,-2,0,3,6,-2,-2,2,-4
58489635254,-1,6,-7,-2,-4,-3,-5,-3
58489648646,3,1,-5,-4,-9,0,3,2
58489648646,-2,-3,-6,6,-1,-1,2,-3
58489656181,-4,-1,3,8,-3,-1,-2,-4
58489656181,-3,-2,-2,4,-1,-3,-1,-3
58489671243,1,-4,-6,-4,-1,1,0,3
58489671243,-1,0,3,8,6,-2,-7,2
58489679481,-9,-2,4,25,1,-3,2,-6
58489679481,3,-4,-3,-11,-6,1,0,4
58489694399,-3,-4,12,19,5,-1,4,-5
58489694399,5,-4,11,-3,-7,0,3,4
58489695161,7,-3,5,-11,-7,0,0,2
58489695161,3,0,-18,0,4,0,3,0
58489708746,-1,-4,-31,-4,7,0,-4,-1
58489708746,-6,2,-51,20,5,-4,-7,-7
58489716294,1,0,3,-7,0,0,-3,-2
58489716294,-10,1,22,10,4,-4,-6,-5
58489731307,4,2,31,-14,1,-2,-1,5
58489731307,5,1,25,7,4,-1,1,2
58489739449,-6,1,3,14,1,-6,1,-1
58489739449,3,-6,12,-4,1,0,-2,3
58489753754,-10,-1,-5,12,-2,-3,-6,-6
58489753754,-7,1,-3,-4,-5,-3,-1,-4
58489762025,0,0,-21,-7,-2,-2,1,0
58489762025,-3,1,3,4,2,-1,2,-1
58489768771,-5,-4,7,4,1,-4,-1,-4
58489768771,-4,-1,10,3,2,0,-6,-2
58489776246,-3,-1,4,4,-2,-5,-2,-3
58489776246,8,1,-8,7,1,1,-4,0
58489791295,10,4,-9,-2,-5,2,-6,3
58489791295,7,-7,-8,-2,2,-1,0,4
58489806906,6,-6,-4,0,5,0,0,1
58489806906,1,1,-7,-2,-5,0,0,-3
58489813722,-5,-1,1,-8,-6,0,4,-6
58489813722,-9,2,6,-15,-2,0,2,-7
58489821879,-2,-1,-12,-45,-15,1,-1,2
58489821879,-14,2,-7,-4,9,-5,-5,-9
58489828717,-24,-1,-4,20,11,-7,-5,-20
58489828717,0,4,-1,-13,-3,1,-2,1
58489836206,12,1,-4,-10,-3,2,0,8
58489836206,26,2,-1,-26,-2,7,-1,20
58489851138,6,-4,14,25,11,-3,-5,-1
58489851138,-9,-4,1,8,-2,2,0,-6
58489859548,-5,-1,-2,-8,-1,-2,-8,-2
58489859548,-12,-6,-10,-16,-8,1,-4,-7
58489873774,-6,5,-12,-20,-5,-2,-8,0
58489873774,-6,-3,1,-1,-3,0,-5,-6
58489881943,-4,1,1,8,-1,2,-7,-2
58489881943,4,-2,-2,1,-8,-3,0,5
58489888700,8,0,7,7,0,1,-4,8
58489888700,-1,-1,5,32,8,-3,-1,-2
58489896287,4,0,-1,-4,-1,0,1,5
58489896287,1,-4,-2,-3,-2,-4,6,0
58489911291,-4,-4,-1,2,-1,-2,5,-7
58489911291,-4,-4,13,-18,-10,-2,-4,-2
58489919504,-9,-3,5,-5,-1,0,-3,-9
58489919504,-1,0,-9,-8,-4,4,-1,2
58489933718,2,-7,-3,-9,-5,0,2,1
58489933718,0,1,-13,1,0,0,0,3
58489941916,10,1,-59,4,-1,-2,3,8
58489941916,6,-1,-13,3,5,-3,-6,1
58489956924,-11,3,-1,-2,0,-1,-2,-9
58489956924,-4,-2,30,-8,-2,-3,-7,-5
58489957753,-6,2,32,-4,-4,1,-3,-4
58489957753,0,4,23,5,0,-1,-2,0
58489971223,9,1,17,1,-2,-3,-2,5
58489971223,5,-2,-5,6,4,0,-1,3
58489979498,1,0,-4,1,-4,-3,-2,1
58489979498,-9,-2,-8,21,5,-3,-5,-10
58489993765,-2,2,-12,-16,-5,0,0,-4
58489993765,-7,6,-15,-1,0,-2,-7,-8
58490001945,-5,2,2,-3,-4,-2,-7,-7
58490001945,-7,-2,6,3,-5,-1,-5,-4
58490016943,10,-4,12,10,-1,3,6,9
58490016943,19,-6,12,9,-1,3,3,13
58490017713,7,-6,12,31,8,-3,2,3
58490017713,-3,-3,-7,10,-3,-6,-2,-3
58490031212,-2,0,-20,-19,-12,-1,1,-2
58490031212,-6,-8,-26,-17,-4,1,2,-4
58490039498,-12,-3,0,-4,-7,-4,-3,-11
58490039498,-12,-5,-2,-14,-3,0,1,-6
58490062480,-3,-2,-14,-15,-4,-2,-1,0
58490062480,2,3,0,-9,1,-5,-1,1
58490063362,2,-2,6,10,9,-1,4,-2
58490063362,1,-2,1,4,2,-2,2,2
58490076874,-3,-3,-2,-12,2,-2,-3,1
58490076874,-3,0,-1,-13,-1,0,-4,-3
58490077669,-18,-1,2,19,5,-3,-7,-13
58490077669,2,0,3,-11,-4,0,4,2
58490091199,6,-5,5,4,-6,1,2,4
58490091199,8,5,-7,-10,-9,0,0,5
58490099422,2,-3,-7,-18,-8,1,-6,6
58490099422,-4,5,-1,1,-3,0,-7,-3
58490113668,-1,0,-8,-7,-7,2,-6,-3
58490113668,-16,-2,3,39,25,-8,-6,-15
58490121879,3,1,11,12,-7,-3,0,1
58490121879,18,-6,9,16,6,3,6,9
58490136837,17,-1,2,2,0,1,11,14
58490136837,12,2,0,-4,-5,3,6,4
58490137619,-9,-5,-7,-6,-1,3,1,-10
58490137619,-20,-4,-13,-19,-11,-2,-2,-14
58490151176,-17,-1,-11,-19,-5,-1,-8,-7
58490151176,-18,-3,-9,-21,-3,-3,-6,-11
58490159420,-8,0,-9,-13,-5,-2,2,-6
58490159420,3,1,1,-4,1,-1,-4,4
58490173715,7,1,14,22,10,-3,-4,5
58490173715,20,-4,17,21,2,-1,1,12
58490181910,25,2,14,8,6,1,1,15
58490181910,14,3,8,5,2,-3,-4,3
58490196919,-12,-7,-2,30,9,0,1,-13
58490196919,-15,0,-18,-24,-15,0,-8,-8
58490197647,-17,0,-17,-26,-6,-4,-5,-11
58490197647,-26,-5,-4,-18,-15,-6,-3,-13
58490211251,-12,-1,-10,-19,-3,-4,-2,-8
58490211251,5,-6,-3,-7,0,1,6,5
58490219456,16,-5,12,19,9,4,2,11
58490219456,16,-2,13,23,6,0,3,9
58490233763,17,-3,43,16,4,-1,-2,8
58490233763,4,-1,-3,-7,-4,-4,-7,2
58490241992,-10,1,-42,3,1,-7,-7,-9
58490241992,-8,2,-62,-4,-6,-1,-3,-6
58490256945,-1,9,-23,-10,-4,-4,-7,-2
58490256945,1,1,29,-4,-2,4,-2,0
58490257776,5,-2,33,-15,5,0,2,3
58490257776,3,-1,16,-2,9,3,2,1
58490271248,4,-3,-2,7,-2,1,-1,-2
58490271248,5,-2,-6,11,3,2,6,3
58490280236,-4,-3,-2,-3,-9,0,-1,1
58490280236,-8,5,3,13,3,-2,0,-9
58490293809,-7,1,-4,8,-6,0,2,2
58490293809,-7,2,-7,22,-4,-6,0,-4
58490302731,3,-4,-6,2,-13,-1,-2,3
58490302731,-8,-3,-10,-45,10,-2,-10,-5
58490316340,-18,-6,-2,-32,26,-14,-11,-14
58490316340,-5,-5,-12,-67,-22,-1,0,-4
58490325279,-3,-3,5,-41,0,5,3,-1
58490325279,5,0,5,-21,-14,0,0,5
58490331284,-3,4,-10,-34,-16,4,-2,-1
58490331284,-10,0,-11,-12,-8,-5,-4,-7
58490340232,-15,2,-10,-5,-6,-3,-5,-9
58490340232,-10,-3,4,14,-2,-1,2,-8
58490353744,5,2,1,30,8,5,0,5
58490353744,17,1,10,37,16,1,-4,7
58490362729,17,6,11,35,3,6,-5,8
58490362729,8,0,11,34,12,0,-1,2
58490376247,7,1,0,19,-4,-1,-3,0
58490376247,3,5,-3,13,5,1,-7,4
58490385178,0,-7,0,0,4,0,0,-2
58490385178,-4,-2,6,6,-3,-2,0,0
58490400066,-1,-5,-10,-6,-16,-1,3,-3
58490400066,-7,-3,-8,-10,0,1,2,-6
58490401623,-9,0,-5,-10,-8,-4,-3,-5
58490401623,1,-1,-1,-4,-3,-4,-1,-1
58490413722,2,-1,2,1,-7,0,-1,4
58490413722,-6,1,-5,5,-4,-1,-4,-4
58490422695,-1,5,-4,5,1,-2,-1,-5
58490422695,1,-2,-3,-4,-7,2,1,1
58490436174,0,-3,-1,4,-3,0,1,-3
58490436174,-9,0,5,19,5,-1,-1,-5
58490445203,15,-1,12,12,2,1,3,13
58490445203,7,-1,-18,-21,-17,-5,0,6
58490451167,4,-7,4,13,10,-2,9,6
58490451167,0,-3,-2,10,-3,-2,2,-3
58490460199,-9,0,0,17,1,-3,-6,-8
58490460199,3,-3,2,24,4,2,-7,5
58490473759,4,-3,2,17,-1,4,-6,1
58490473759,2,-5,5,13,9,0,-6,1
58490482816,7,-2,0,5,2,2,-8,3
58490482816,3,2,2,10,11,0,-2,1
58490496264,-5,-1,5,-3,15,-2,-4,-6
58490496264,5,-1,10,-34,9,0,2,3
58490505240,-21,-7,-14,-79,-11,-5,-1,-14
58490505240,-23,-4,-33,-105,-28,-4,-12,-14
58490511213,-35,-6,-24,-92,-18,-2,-4,-26
58490511213,-29,-4,-21,-58,-11,-3,-5,-15
58490520309,1,-3,-8,-51,-19,-2,3,10
58490520309,8,2,16,9,4,4,9,7
58490533745,13,8,-3,7,-5,0,5,9
58490533745,5,-1,2,42,6,1,0,2
58490542752,-9,-2,2,62,13,-8,-1,-14
58490542752,-11,-2,-2,47,9,-1,-2,-8
58490556323,2,5,2,48,6,2,-5,2
58490556323,8,2,3,34,2,3,-3,8
58490565275,14,-3,16,46,9,-1,2,6
58490565275,22,0,23,48,8,2,-1,10
58490571264,20,1,10,37,2,1,-3,10
58490571264,21,0,22,39,5,7,6,12
58490580264,-10,-6,-3,2,-1,1,0,-9
58490580264,-22,-5,1,-4,-5,-5,-2,-16
58490593723,-21,-6,5,-16,-12,-2,-9,-9
58490593723,-13,0,-10,-17,-12,-2,3,-10
58490602722,2,10,-8,-1,1,7,-1,7
58490602722,17,0,3,11,12,3,2,8
58490616302,15,-1,15,15,7,5,0,8
58490616302,18,-1,7,2,2,-4,-9,9
58490625302,0,-1,13,8,7,0,-1,-9
58490625302,2,3,-8,-17,-11,-3,6,6
58490631262,-11,-6,-32,-54,-12,-13,4,-14
58490631262,-27,0,-16,-30,-13,-9,5,-12
58490640291,-17,-1,-15,-27,-9,-4,-2,-9
58490640291,-15,-2,9,21,12,5,-2,-12
58490653767,10,1,28,36,15,4,1,4
58490653767,6,1,-16,-23,-9,-9,0,10
58490662706,13,1,15,18,10,3,-3,-8
58490662706,3,-2,-1,-1,-5,-1,-4,5
58490676224,-7,-2,-8,-4,-6,-5,-8,-7
58490676224,-16,-4,-5,-4,2,-1,-3,-15
58490685168,-8,0,-3,-19,-4,-3,1,3
58490685168,2,0,-2,-10,9,-6,-6,-3
58490691248,4,4,13,0,11,3,5,4
58490691248,23,1,52,23,27,8,5,12
58490700214,16,4,36,0,3,-3,0,10
58490700214,3,-3,7,5,6,2,-9,-2
58490713730,-2,-2,-22,-8,-15,-1,-7,2
58490713730,-21,-3,-59,-15,-19,-7,-12,-14
58490722668,-12,-2,-43,-7,-1,-2,-10,-2
58490722668,-18,0,-30,-14,-3,-4,0,-11
58490736231,-17,-4,-21,-10,-1,-4,-2,-3
58490736231,15,-5,-8,-7,4,2,2,6
58490745183,-2,0,24,3,5,1,6,-8
58490745183,13,-1,17,-1,-3,4,7,13
58490760118,35,-5,22,21,23,5,2,15
58490760118,-39,8,-30,-68,-42,-14,-13,-34
58490761754,-22,-2,-28,-25,-10,-4,-4,-7
58490761754,-30,-3,-22,-46,-26,-8,1,-14
58490773814,11,1,-2,-10,1,1,7,16
58490773814,13,-5,37,12,16,1,4,-5
58490782791,11,1,13,-3,-1,1,-6,2
58490782791,-7,5,9,-4,-4,-2,-5,-11
58490796292,-8,2,-3,-3,-13,-4,-2,-4
58490796292,25,-3,-16,-13,-9,-3,7,5
58490805257,1,-4,-11,-2,-14,1,-1,7
58490805257,3,-7,-13,10,4,3,-7,2
58490811298,-12,-4,-15,-3,-2,-9,-3,-10
58490811298,-15,-3,34,13,7,2,-3,-4
58490820308,0,-4,5,2,-7,-2,-5,4
58490820308,-9,-13,-16,-25,-17,-8,-5,-7
58490833702,-18,5,-17,-30,-30,-3,-9,-7
58490833702,-16,-8,-19,3,-5,-3,1,-3
58490842714,-17,-6,-31,-14,-10,-4,-2,-11
58490842714,-1,-4,5,14,7,-6,0,5
58490856296,-3,-1,-1,7,0,3,-3,-2
58490856296,23,2,6,35,4,8,-2,18
58490865243,16,-8,7,27,6,3,-7,5
58490865243,13,4,4,15,-4,4,-4,5
58490880083,4,4,8,6,-9,-1,5,-3
58490880083,13,7,13,17,-7,2,-2,13
58490881695,10,4,4,1,-5,0,5,3
58490881695,10,0,11,6,7,-5,3,2
58490893831,10,0,18,21,19,1,3,3
58490893831,10,1,14,13,14,1,1,7
58490902715,5,2,10,8,11,-2,-18,3
58490902715,-2,1,3,11,7,3,12,-3
58490916323,-1,-11,-20,6,6,-4,-4,-6
58490916323,1,-10,-28,-13,-18,-10,13,0
58490932730,-12,-18,-16,-20,-2,-8,5,-10
58490932730,-19,-12,-9,-22,0,-3,-2,-13
58490940114,-41,-17,-16,-39,-24,-3,-11,-27
58490940114,-44,-31,-16,-44,-35,-3,1,-20
58490941688,-15,-13,0,-21,-13,4,1,-3
58490941688,-7,2,12,-20,-14,8,-3,7
58490953752,20,23,24,10,47,12,-5,18
58490953752,28,50,31,25,23,6,-26,12
58490962749,32,34,17,36,15,-3,-13,14
58490962749,37,17,11,47,22,-5,-11,16
58490976185,13,-1,-13,20,-2,-2,-5,4
58490976185,12,-12,-19,13,11,-5,2,7
58490985206,5,6,-18,-2,-6,-3,2,0
58490985206,-21,7,8,18,9,-3,8,-8
58491000120,23,2,-24,-63,-45,-2,4,25
58491000120,-14,-3,10,3,-1,1,11,-25
58491001666,-12,-12,-1,-11,-10,-3,12,-1
58491001666,-9,-5,-4,-12,-10,-2,-1,-10
58491013854,-12,-12,13,14,4,1,12,-3
58491013854,-6,-5,-9,-15,-2,-1,-3,0
58491022719,-6,1,1,-10,-6,2,1,0
58491022719,14,-5,10,9,5,4,-1,5
58491036320,-9,2,11,18,5,-5,-8,-11
58491036320,1,-4,-5,2,6,0,-9,2
58491045256,0,2,0,12,18,-2,-3,-1
58491045256,-2,1,-12,-11,-5,-4,-13,1
58491060191,-1,7,-6,-6,-5,-6,-4,-4
58491060191,-3,2,-11,-14,-8,4,-7,0
58491061761,2,3,2,-10,-9,-3,-1,4
58491061761,-2,-1,2,-3,-8,4,0,-6
58491073787,-4,0,2,-14,-5,-1,-4,-3
58491073787,-8,0,7,1,7,-1,-1,-3
58491082814,-7,2,1,-5,1,2,1,-1
58491082814,-8,-13,-10,-13,-6,-1,3,-6
58491096198,-4,-11,-14,-2,0,-2,-2,-4
58491096198,-33,-8,-30,-34,-21,-5,14,-18
58491105260,23,-7,10,40,22,2,-27,14
58491105260,9,-1,2,-4,-4,-3,7,1
58491120126,-22,-3,-4,-13,-8,-1,8,-13
58491120126,23,-1,19,19,17,2,-13,15
58491121719,-15,-1,-2,-33,-22,2,21,-13
58491121719,-5,4,9,11,2,1,-14,-3
58491133794,20,0,16,27,11,-2,-3,5
58491133794,-9,1,-6,-11,-10,-4,-2,-8
58491142790,-1,2,-3,16,6,0,-5,-5
58491142790,16,3,-8,6,11,-1,-2,15
58491156266,-17,1,-12,-18,-21,1,5,-16
58491156266,3,-2,13,12,4,-3,-6,3
58491165241,-1,-3,7,-1,11,1,2,2
58491165241,1,2,5,11,6,-5,3,-1
58491180082,-11,-8,-7,-5,2,-4,-10,-7
58491180082,3,9,-3,6,4,4,-3,3
58491181745,-9,-8,-12,-19,-12,-6,2,-9
58491181745,-8,4,-2,-10,-7,-1,-5,-7
58491193810,5,-3,8,6,1,1,-1,4
58491193810,-9,-13,1,4,-6,-1,5,1
58491202862,-9,10,-13,-18,-16,2,-4,-10
58491202862,2,-9,2,1,3,3,0,2
58491216237,5,7,5,5,1,-5,-6,-1
58491216237,7,0,1,10,2,-3,2,2
58491225297,-2,4,-7,7,3,-5,0,-1
58491225297,8,-4,-9,3,-10,-2,-7,3
58491240143,0,4,-9,6,9,0,1,-2
58491240143,-3,4,-4,0,2,-3,-3,-2
58491241736,3,-1,7,4,3,-3,0,4
58491241736,2,-1,3,-4,-3,1,1,-5
58491253798,5,-1,8,0,-1,1,-7,5
58491253798,6,2,-9,-2,1,-4,3,1
58491262760,6,-13,-7,11,-1,-2,0,0
58491262760,-11,10,14,-10,-4,-1,3,0
58491276370,9,-6,30,22,8,2,0,8
58491276370,-2,9,24,4,0,0,-1,-5
58491285286,2,-2,-17,-19,-13,-3,0,5
58491285286,-2,-2,-10,-6,-1,0,-2,-4
58491300121,-9,-5,-4,2,-2,-1,0,-2
58491300121,-3,-2,-27,4,0,1,-9,3
58491301682,-12,-5,-33,4,-5,-3,-4,-4
58491301682,0,2,-28,-2,-4,-2,-2,-2
58491313770,-1,-1,-12,-15,3,-1,1,0
58491313770,5,-3,16,-4,6,1,-3,-3
58491322753,3,5,29,7,3,-3,-6,2
58491322753,8,7,28,3,2,-3,-4,8
58491336300,-9,-3,16,-8,-9,1,1,-10
58491336300,12,-13,29,19,11,1,-1,12
58491345281,-1,23,16,-5,1,-3,0,-2
58491345281,-9,-4,3,1,-6,2,2,-8
58491360108,3,0,-20,3,0,-2,-2,0
58491360108,-9,0,-37,-19,-8,-1,-2,-8
58491361685,0,-13,-11,4,5,0,-3,0
58491361685,-7,-2,-31,-15,-7,0,-1,-4
58491373744,-4,1,-22,-4,-4,2,-3,2
58491373744,-2,-1,-17,-6,-3,0,-7,-2
58491382809,-4,-4,-10,-1,4,0,-8,-5
58491382809,-7,-1,9,-3,2,-3,4,-6
58491396322,4,5,5,-4,-7,0,3,5
58491396322,7,5,17,-8,-4,-2,2,0
58491405229,4,3,82,8,5,-2,7,1
58491405229,3,-6,38,8,7,-3,-8,3
58491420119,-7,2,29,8,3,1,-6,-4
58491420119,6,3,6,-3,-2,-4,-3,0
58491427699,-14,1,-41,-16,-5,-1,2,-10
58491427699,7,-10,-4,-5,0,0,0,1
58491433738,-10,-4,14,9,11,-6,0,-6
58491433738,4,-2,4,19,2,-2,-6,3
58491442691,10,-11,20,2,5,5,0,6
58491442691,-1,0,-3,-3,2,-1,-1,-1
58491456193,3,4,-24,2,-6,-2,1,2
58491456193,-21,-3,-46,-11,-14,-1,3,-10
58491465181,-16,-7,-65,-7,-14,-1,-1,-12
58491465181,10,1,-11,-12,-6,6,-4,5
58491480055,4,-1,21,-2,10,-3,-3,-1
58491480055,-20,-2,40,-3,-4,-17,-4,-17
58491481644,-34,1,-56,-25,-29,-11,2,-17
58491481644,-31,7,-77,-31,-17,11,-1,-17
58491493757,-9,1,-47,-36,-19,14,0,-3
58491493757,2,-6,-5,-47,-12,7,-5,4
58491502747,21,-7,80,-27,16,0,0,11
58491502747,26,-6,81,-49,9,-3,-5,13
58491516180,-5,-4,23,-63,3,-9,-8,-5
58491516180,-22,3,-40,-69,-23,-6,-5,-9
58491525276,-9,-10,-12,-2,56,-4,-2,0
58491525276,13,2,-12,89,58,1,5,13
58491547694,40,-13,17,117,-7,4,7,24
58491547694,22,-3,27,101,-29,-2,-7,8
58491549222,33,-6,-10,104,-23,6,-1,22
58491549222,-10,2,-53,45,-34,-6,-6,-14
58491553878,-24,0,-63,19,-23,-6,-3,-18
58491553878,4,3,-58,41,7,2,1,4
58491562787,8,12,-35,7,1,4,4,0
58491562787,-6,3,-9,-5,24,-4,2,-8
58491576377,-5,-4,7,-24,8,0,2,-7
58491576377,-23,-7,14,-35,6,-1,5,-12
58491585303,-13,-2,34,-29,-4,-4,-3,-9
58491585303,4,-7,43,-29,-18,-4,2,4
58491600074,5,0,34,-28,-1,-1,-6,3
58491600074,13,2,47,2,17,4,-1,9
58491601689,6,-2,18,-10,-5,-5,-10,-3
58491601689,3,-11,11,8,4,2,-5,4
58491613854,2,-4,-8,-6,17,0,2,3
58491613854,13,-4,-2,10,-2,1,2,6
58491622860,-17,-10,-15,2,-11,-2,-3,-9
58491622860,-24,-1,-13,-7,-19,-2,-2,-12
58491636276,-8,-19,1,1,-9,-1,4,-7
58491636276,3,1,8,10,10,4,-2,4
58491645313,20,7,38,6,-1,3,-10,14
58491645313,-4,2,39,7,4,0,-11,7
58491659429,-3,22,34,-12,19,-2,-15,1
58491659429,-15,-10,-5,-47,-3,-2,-9,-10
58491666301,13,6,-12,-24,2,0,-4,1
58491666301,0,16,-30,-13,5,-10,-10,-8
58491673818,14,0,-6,-12,-1,-5,-10,6
58491673818,7,4,-65,-17,5,-3,5,-1
58491682774,-5,-33,-82,-19,1,2,9,2
58491682774,3,2,-42,-18,-6,-1,4,0
58491696303,-4,-12,-4,7,1,2,-3,-1
58491696303,-3,1,34,11,2,2,-1,-6
58491705324,-10,5,32,2,-19,-3,-1,-6
58491705324,-24,-13,7,-12,-25,-3,6,-16
58491719536,-23,-9,0,-3,-7,-2,-1,-23
58491719536,-10,-22,8,10,10,-1,-1,-7
58491726299,-17,35,-9,-21,-19,-2,-4,-16
58491726299,-4,-17,6,-2,3,3,-1,-2
58491733787,-1,23,-6,19,1,1,7,5
58491733787,27,-17,33,22,15,10,6,22
58491742819,47,-18,117,39,25,18,4,30
58491742819,53,-13,55,18,14,13,1,27
58491756320,30,-4,-25,5,13,0,-5,14
58491756320,-5,20,-56,2,-2,-8,-8,-7
58491765311,-21,12,-59,-19,-12,-10,-9,-16
58491765311,-22,13,-46,-27,-15,-9,-11,-14
58491779537,-24,-6,-37,-25,-23,-8,-5,-16
58491779537,-16,12,-14,-11,-14,-3,-7,-9
58491786315,-17,3,-23,-4,1,-7,-3,-10
58491786315,-5,7,-5,4,-1,-7,3,0
58491802614,0,8,12,6,-8,-8,1,-2
58491802614,8,4,24,6,2,2,2,5
58491804175,5,-12,13,8,8,-2,-3,1
58491804175,1,-1,-2,9,5,-2,6,0
58491816329,2,-7,2,4,5,0,8,0
58491816329,2,-1,12,1,6,-2,7,-1
58491825190,-2,-3,0,9,1,-5,18,-2
58491825190,-5,-7,7,-5,-4,-2,-13,-7
58491839496,-4,-4,29,7,1,-1,8,0
58491839496,6,-8,49,-1,-4,-1,1,4
58491853754,2,-7,4,11,-4,1,4,4
58491853754,13,4,4,5,0,3,14,6
58491862621,14,-5,-2,8,1,3,11,6
58491862621,8,12,-20,5,-2,-1,8,4
58491864204,-1,5,-25,-3,-6,-4,-5,-2
58491864204,-4,-5,-32,-5,-4,-3,-2,-4
58491876207,-9,0,-33,-9,1,-3,-8,-6
58491876207,-13,-3,20,-3,0,-4,0,-4
58491885256,-12,-1,5,-5,-3,-5,-8,-10
58491885256,-8,3,9,6,-3,-5,-4,-4
58491899533,0,-3,3,-4,-3,-5,-3,0
58491899533,-1,2,-9,-1,6,2,-7,-3
58491906204,11,0,-1,-5,0,2,-3,9
58491906204,6,-4,9,-6,-4,5,-2,4
58491922644,5,4,13,0,-4,-8,0,0
58491922644,3,-2,3,-7,-10,-7,-4,-5
58491924179,1,0,2,-1,-5,2,-2,2
58491924179,-10,5,-11,-6,-5,-4,-5,-9
58491936327,-10,2,-11,-16,-16,-5,-14,-9
58491936327,-28,-8,-29,-24,-15,-10,-19,-16
58491945299,-43,2,-26,-31,-20,-11,-21,-27
58491945299,-36,-6,-21,-29,-17,-8,-22,-16
58491959501,-43,-4,-30,-33,-3,-1,-20,-23
58491959501,-47,1,-24,-24,-5,-3,-15,-23
58491966344,-13,-1,-12,-14,2,-1,-6,-3
58491966344,-10,0,-12,-4,-4,-2,9,-2
58491982636,7,2,2,13,8,4,16,8
58491982636,19,4,-3,18,9,2,21,10
58491984205,22,0,18,30,17,7,8,11
58491984205,27,-1,21,19,4,1,17,12
58491996310,26,2,10,9,5,6,11,11
58491996310,17,-1,-1,10,-3,2,8,6
58492005278,6,1,-7,-2,-5,-3,-1,-2
58492005278,11,-2,8,11,12,1,-2,8
58492019549,-11,4,9,4,-3,0,-14,-6
58492019549,13,-5,9,-10,5,4,-11,6
58492026307,1,5,8,0,8,-1,-9,0
58492026307,12,-2,14,-1,-7,0,-9,0
58492042674,16,1,8,4,-1,4,-3,11
58492042674,21,-1,13,4,3,0,-3,11
58492044250,20,-1,6,1,6,2,9,9
58492044250,9,-1,-7,4,13,3,14,3
58492065125,6,3,-15,0,-4,-3,10,-5
58492065125,3,-2,-8,-2,-7,2,10,2
58492066737,-8,-3,-14,-6,-7,-3,5,-5
58492066737,-25,25,-7,-19,-8,-2,-18,-13
58492079564,-10,-12,2,-8,-6,-2,-25,-3
58492079564,-21,-4,-3,-6,2,-3,-24,-9
58492086339,-26,-1,-5,-12,-15,-2,-8,-15
58492086339,-4,-5,0,4,-7,1,-2,0
58492102632,7,2,1,9,7,2,3,10
58492102632,9,-2,5,9,4,-2,4,-1
58492104196,10,-5,14,11,11,2,3,10
58492104196,20,-2,8,11,10,0,10,5
58492116248,2,3,3,3,5,3,9,-1
58492116248,4,-8,-3,5,4,-1,3,2
58492125257,-7,0,-6,-12,-9,-4,-7,-7
58492125257,-15,-11,-10,-6,-3,-4,-6,-10
58492139433,-20,-2,1,-18,-7,-2,-3,-6
58492139433,-8,7,-2,-17,-4,-2,8,0
58492146176,-12,4,-2,-17,-3,-2,9,-9
58492146176,4,-2,8,8,9,1,6,3
58492162548,26,-9,18,16,11,1,9,17
58492162548,14,2,1,16,-3,0,4,2
58492164185,41,3,14,38,19,12,1,21
58492164185,10,-8,-1,-2,3,0,-3,0
58492176256,-6,-7,-6,-16,-13,1,-12,-8
58492176256,-18,-8,-6,-30,-11,-7,-35,-14
58492185203,18,-5,-9,-17,-6,-8,-24,-18
58492185203,-44,-1,-7,-22,-13,-4,-22,-14
58492199442,-39,6,-8,1,-1,0,-13,-7
58492199442,-17,4,2,0,-5,3,-4,4
58492206258,-17,-2,-3,0,3,-5,-1,1
58492206258,16,-1,0,13,0,-4,10,7
58492223183,14,-5,0,5,7,-2,11,1
58492223183,12,2,-1,10,7,3,15,9
58492224741,19,-6,1,1,-1,-3,10,3
58492224741,-7,-3,-10,-6,-13,-5,10,-12
58492236294,-34,-4,-12,-24,-12,-5,-4,-14
58492236294,-41,-3,-16,-28,-13,-4,-2,-19
58492245312,-24,-3,-8,-26,-10,0,-1,-10
58492245312,-15,-3,-2,-11,-2,-6,-4,-10
58492259483,11,4,3,3,4,-4,6,-2
58492259483,80,3,40,56,42,13,12,34
58492266321,18,0,5,16,4,1,-3,6
58492266321,43,5,21,5,13,0,9,21
58492282611,30,2,6,8,5,-4,14,12
58492282611,-37,-7,-14,-28,-9,-8,-36,-23
58492284242,-49,-1,-20,-13,-33,-4,-2,-19
58492284242,-13,5,32,-17,0,-1,24,-7
58492296236,-19,-12,19,-37,-20,-1,-6,-14
58492296236,-32,9,-1,-104,-38,3,18,-19
58492305263,107,-8,40,-3,26,-2,91,40
58492305263,-51,-20,-48,90,90,30,26,106
58492319559,4,-79,11,22,-58,-29,-82,-4
58492319559,101,36,9,-66,-67,-64,-105,-84
58492326369,76,-10,127,-67,-15,-20,-79,-65
58492326369,127,0,-18,19,34,32,82,34
58492342713,-28,-65,-6,-34,52,33,39,12
58492342713,-128,-3,-51,-77,-70,15,40,-78
58492344334,-44,-47,-71,59,-22,-1,102,-8
58492344334,76,-77,56,82,37,1,39,70
58492356337,-78,117,15,-51,-26,-3,119,-52
58492356337,37,48,45,25,42,3,127,54
58492365366,-88,72,-40,-88,-13,-11,-2,-42
58492365366,-128,19,-92,-128,-114,-41,-107,-128
58492379512,-58,-12,-25,-40,-44,-6,-128,-61
58492379512,85,-17,43,77,77,12,-128,71
58492386295,69,-13,37,123,107,23,-52,112
58492386295,3,-16,-11,-5,7,5,-65,13
58492402644,0,11,-31,-53,-46,-14,-12,-42
58492402644,-28,-3,-2,42,-12,10,56,10
58492404256,24,-12,15,52,25,10,9,48
58492404256,15,-7,31,-15,-20,-12,12,-18
58492416258,36,12,19,40,21,2,39,3
58492416258,1,-23,-5,34,20,2,22,17
58492425204,-34,-12,-23,-29,-31,-5,-27,-26
58492425204,-19,27,4,-31,-19,-8,-18,-45
58492439464,41,7,-9,28,41,12,21,34
58492439464,-14,-25,-13,4,13,3,-11,9
58492446271,-58,-6,-37,-81,-60,-8,-21,-50
58492446271,-39,14,12,-19,-8,1,1,-28
58492462633,38,-5,22,41,31,4,0,55
58492462633,-2,-17,-12,-18,-13,-6,0,-1
58492464221,-9,14,5,-11,2,-2,1,-13
58492464221,-12,8,7,-11,19,0,12,-3
58492476216,22,10,-1,18,15,-1,4,20
58492476216,-6,-3,-4,6,11,-2,7,-10
58492485244,-12,1,-6,5,2,7,6,2
58492485244,12,0,23,13,1,2,-6,6
58492499459,21,-7,5,5,-20,-4,-4,2
58492499459,4,7,3,10,21,-1,8,5
58492506232,11,-6,-1,2,1,1,-7,12
58492506232,6,1,-3,3,15,-4,-6,-13
58492522579,19,-2,-5,-2,9,-2,-3,17
58492522579,-9,-6,-12,-2,-13,-1,1,-6
58492524199,2,1,4,6,4,0,-10,6
58492524199,-8,5,-5,-20,-23,-5,-2,-15
58492536262,0,9,11,1,7,5,9,-4
58492536262,-5,6,17,2,6,2,0,1
58492545229,9,1,-7,-30,-7,-4,-3,16
58492545229,0,11,10,-5,-1,-1,-5,4
58492559434,18,0,5,14,22,-1,3,4
58492559434,-6,-18,0,-3,3,-1,2,-8
58492566260,-5,-32,10,7,-2,-2,3,-5
58492566260,-9,-25,-2,-12,-7,-1,8,-13
58492581994,-6,-3,-19,-20,-8,1,-5,-5
58492581994,-12,10,-18,-13,-3,2,-12,-10
58492588777,-23,18,-23,-16,9,-1,-2,-14
58492588777,-7,-1,-16,-19,-27,-2,-4,-4
58492596302,-31,1,-15,-30,-22,-4,-2,-20
58492596302,-21,-13,-6,-28,-17,1,4,-13
58492605320,-35,-2,-13,-28,-17,1,1,-20
58492605320,-18,-16,-9,-35,-23,3,-6,-12
58492619545,-28,-3,11,-23,-11,2,-1,-9
58492619545,-17,1,-1,-17,-24,-1,-2,-2
58492626352,-24,1,-14,-21,-22,-2,-3,-18
58492626352,7,4,7,9,1,1,5,14
58492650224,39,-14,7,40,22,-2,-1,26
58492650224,30,1,-5,28,20,2,1,24
58492651760,42,5,13,47,29,1,-9,26
58492651760,18,8,7,20,15,-7,-9,8
58492656318,-10,3,-8,-19,-15,0,-2,-5
58492656318,-44,-20,0,-38,-26,-2,2,-32
58492665313,-72,-1,-18,-43,-37,-1,1,-47
58492665313,-29,1,-25,-41,-36,-1,1,-4
58492679421,-28,-25,-11,2,0,1,0,-14
58492679421,56,7,-40,-17,-19,-5,-2,36
58492686334,18,-23,16,45,24,4,3,20
58492686334,39,-9,41,44,30,-1,-2,26
58492701988,21,23,22,42,26,0,2,-6
58492701988,20,13,14,20,15,-3,-2,20
58492708796,15,25,-7,4,6,1,3,14
58492708796,9,0,3,32,16,0,-1,-2
58492716227,15,-16,-4,12,5,1,-7,10
58492716227,-5,-1,26,16,9,5,-4,-6
58492725350,16,-2,3,7,-3,-5,2,0
58492725350,-21,33,-12,-11,-11,-5,-3,-22
58492739511,1,-14,-10,-3,-7,-4,0,0
58492739511,-2,-28,-9,11,0,-2,-1,-2
58492746299,0,-10,3,-1,-8,-3,-4,-20
58492746299,-2,-12,-8,6,-4,4,4,-4
58492762035,7,9,7,0,-3,-2,6,1
58492762035,-4,3,15,15,8,2,-7,-1
58492768799,6,-7,6,4,-1,-1,5,1
58492768799,-4,6,-8,2,-4,2,4,5
58492785196,1,11,-4,-4,3,-5,0,-1
58492785196,-3,-27,0,13,18,-2,6,-10
58492786745,-3,-4,-8,-8,-8,-2,5,7
58492786745,-2,-6,0,-7,-2,-1,0,0
58492799522,-1,14,-10,3,3,3,1,-3
58492799522,-7,21,6,-5,-11,-2,-1,-4
58492806292,-3,-9,2,3,-1,2,-6,-4
58492806292,-9,-3,0,-4,-10,-1,-12,3
58492822060,3,-8,-9,-13,-4,-3,-12,9
58492822060,-1,2,-13,-22,-16,-3,-9,-8
58492828804,3,1,-5,-12,-6,-15,-13,-3
58492828804,-1,-10,15,3,3,-18,-8,-7
58492845218,-1,-11,5,-10,-7,-24,-8,-2
58492845218,-7,-4,38,-27,-8,6,-7,5
58492846788,7,11,56,16,27,18,-21,0
58492846788,18,-4,55,16,10,29,-10,-23
58492859578,61,-7,-7,22,24,3,19,24
58492859578,32,-3,-45,-9,14,6,13,15
58492866322,31,-1,-60,-37,-15,-16,7,4
58492866322,-27,3,-53,-35,-16,-7,-6,-1
58492882006,-122,-23,-61,9,-46,-3,-14,-48
58492882006,-119,-12,-78,-81,-82,8,13,-84
58492888776,-128,-13,-98,-108,-108,5,17,-112
58492888776,-22,-38,14,-103,-4,-4,59,-24
58492905216,97,-22,112,-52,42,-7,51,54
58492905216,125,-1,113,119,121,-5,44,125
58492906750,127,-14,4,127,127,-1,23,127
58492906750,119,53,-25,127,109,25,3,105
58492919532,61,73,85,114,30,82,-1,-1
58492919532,50,16,28,124,-5,-35,-20,-29
58492926348,-42,3,-67,71,-70,-27,-55,-81
58492926348,-40,-18,-44,88,-74,-23,-70,-28
58492942022,-4,-5,22,42,-49,9,-65,21
58492942022,15,3,46,-32,1,10,-28,16
58492956319,-40,-14,57,-98,-23,-19,7,3
58492956319,-74,-10,-57,-125,-43,-17,16,-39
58492965193,-94,-2,-94,-106,-27,-17,-17,-60
58492965193,-49,-15,-111,-60,-17,-4,5,-26
58492966782,-11,-3,-69,-102,13,-11,19,-1
58492966782,-34,-6,-58,-87,16,13,18,-34
58492987638,-54,-6,-88,-78,-4,-16,9,-43
58492987638,-31,9,-82,-43,0,-9,-17,-21
58492989199,34,7,21,89,27,25,-11,34
58492989199,28,4,45,101,-5,7,-22,13
58493002049,75,-9,33,127,13,-1,3,60
58493002049,67,-3,70,101,19,4,13,46
58493008812,47,3,61,12,6,6,11,21
58493008812,-3,-4,99,-17,-27,-16,-5,-20
58493025235,-66,-11,-3,-73,-19,-26,-12,-52
58493025235,-71,-7,10,-64,-22,-3,-27,-47
58493026783,-56,-1,-23,-45,-27,-14,-40,-38
58493026783,-35,-8,-56,-46,-7,-10,-29,-16
58493038814,29,8,-15,-7,26,6,17,36
58493038814,20,3,19,-14,11,11,17,17
58493047876,11,1,27,3,9,7,-4,8
58493047876,19,-2,-26,-2,10,0,-7,12
58493062010,-7,-8,26,-4,-1,-11,12,-6
58493062010,-5,3,-33,-12,-21,-1,24,-2
58493068812,0,-7,-7,-6,-9,4,39,2
58493068812,10,1,20,10,10,9,44,11
58493085166,10,-3,-6,2,0,-6,2,4
58493085166,-8,-8,8,-3,-16,-4,-19,-7
58493086761,0,7,22,12,5,4,0,2
58493086761,19,6,33,24,1,3,11,14
58493098836,16,2,5,9,0,-1,12,5
58493098836,-15,-10,-27,-4,-7,-3,-2,-18
58493107838,-11,-1,-10,6,-4,4,-9,-6
58493107838,-15,-6,-40,-5,-10,-7,-13,-13
58493122023,-12,-2,-9,5,-4,0,-13,-6
58493122023,-36,1,-32,-76,-6,-11,-80,-24
58493128828,-25,37,80,107,-3,21,-111,-16
58493128828,82,5,31,-29,19,4,67,68
58493145143,70,-16,-21,-105,17,-54,91,46
58493145143,28,-54,14,-47,-1,33,127,-37
58493146744,100,3,5,60,23,10,-54,44
58493146744,-88,-10,4,78,-24,4,-128,-73
58493158899,-99,-23,26,-22,-49,-9,-128,-95
58493158899,-128,17,15,-116,-45,-24,0,-84
58493167860,-106,-11,7,-100,-41,-21,83,-61
58493167860,-66,20,-21,-80,-26,-13,59,-30
58493182022,-11,8,-26,-5,20,9,41,32
58493182022,71,6,22,93,35,8,-46,83
58493188855,116,-3,72,104,71,34,78,114
58493188855,127,-5,78,82,63,-6,64,127
58493196366,78,4,68,54,32,7,56,47
58493196366,94,10,82,103,40,10,-11,56
58493205359,53,-2,34,32,5,-10,-43,15
58493205359,-22,-13,-5,-51,-28,-10,-71,-46
58493219474,-56,4,-43,-43,-31,4,-55,-57
58493219474,-68,7,-72,-52,-36,-13,-44,-46
58493226375,-99,-13,-80,-101,-36,-17,-1,-66
58493226375,-80,-10,-38,-61,-26,-14,-9,-60
58493242020,-76,-4,-48,-50,-36,-2,-24,-50
58493242020,-49,11,-16,-18,-13,-9,-12,-19
58493248818,-65,-5,-31,-72,-23,-9,0,-39
58493248818,-44,9,-29,-38,-18,-3,-5,-31
58493265207,-2,11,-4,17,4,7,12,12
58493265207,5,0,-1,16,7,-9,20,11
58493266827,8,-8,-3,7,3,-7,7,6
58493266827,42,3,28,47,12,10,5,28
58493279506,32,-4,16,39,2,8,3,21
58493279506,46,2,33,53,14,4,15,31
58493293822,53,5,26,32,9,6,20,31
58493293822,28,4,19,27,6,-2,12,13
58493301951,0,-2,0,2,-11,-8,2,-7
58493301951,-19,4,-17,-23,-5,-4,-9,-18
58493308788,-20,0,-19,-29,-9,-3,0,-14
58493308788,0,-5,-13,5,7,-2,3,1
58493316343,0,2,-7,9,12,-3,-2,-1
58493316343,12,1,-3,30,17,6,4,9
58493325324,20,-1,20,21,11,-6,8,14
58493325324,17,1,31,8,-81,-2,-5,6
58493339496,6,1,24,13,25,5,-6,5
58493339496,1,2,-4,-3,11,-1,-3,-3
58493346318,-16,0,-44,-32,16,-7,-11,-18
58493346318,-10,-3,-49,-29,11,0,-4,-12
58493362093,3,-1,14,-14,-19,10,2,4
58493362093,5,-3,24,-21,-11,3,3,5
58493368922,-1,-10,8,-14,2,-5,-1,-2
58493368922,-3,1,5,-29,15,-6,-20,-4
58493376373,2,2,18,0,15,-8,9,3
58493376373,-2,-8,-5,-5,15,-1,13,-4
58493385281,7,-4,4,3,1,4,-42,9
58493385281,-18,3,-9,-11,-5,-6,-55,-13
58493407697,-18,15,-16,0,-18,-4,-17,-13
58493407697,13,-6,-2,11,-4,-1,34,14
58493409270,17,-21,16,8,9,3,59,9
58493409270,9,-17,11,7,0,1,10,0
58493422026,1,5,-3,-9,-15,-1,-38,-4
58493422026,-23,46,8,6,-22,-11,-52,-12
58493428833,-28,26,-17,-2,-18,-3,-14,-6
58493428833,0,-13,-51,18,26,9,11,16
58493436349,14,-22,-51,14,15,1,49,11
58493436349,5,-38,56,-10,6,4,35,-9
58493445356,-10,-22,84,-13,-13,-11,-31,-14
58493445356,-14,5,40,-1,-20,-4,-30,-16
58493459551,-8,18,-22,-1,-22,1,-17,-2
58493459551,12,23,-45,15,-2,0,16,9
58493466415,12,21,-7,14,8,5,35,13
58493466415,20,9,24,24,20,4,35,14
58493482027,32,12,35,22,17,6,-3,15
58493482027,12,-17,2,8,8,-1,-47,6
58493488859,-31,-24,-37,-33,-25,-5,-37,-34
58493488859,-58,-24,-74,-36,-23,-8,-12,-35
58493496292,-52,-19,-66,-35,-27,-11,8,-33
58493496292,-30,-2,-21,-19,-20,-3,7,-15
58493511356,14,11,-3,15,-2,1,25,17
58493511356,32,7,45,23,27,7,43,26
58493519545,30,-2,55,21,24,1,12,23
58493519545,5,-1,1,12,-2,-1,-31,5
58493526316,-1,1,-24,-6,-7,4,-5,-5
58493526316,15,9,12,18,18,8,31,17
58493542056,23,2,18,8,15,6,25,21
58493542056,13,1,-2,-3,-3,-4,-23,10
58493548817,-33,-9,-21,-35,-16,-11,-61,-26
58493548817,-54,-7,-12,-45,-24,-15,-88,-42
58493556306,-38,3,-9,-12,-24,3,-45,-23
58493556306,18,3,2,12,13,6,41,10
58493572772,54,15,19,24,30,10,72,36
58493572772,45,13,23,24,26,-1,40,21
58493579556,0,-8,3,-5,-2,-10,3,-6
58493579556,-24,-5,-11,-21,-16,-1,-11,-18
58493586347,-20,1,-15,-10,-16,1,4,-15
58493586347,-4,-7,-3,-9,-8,0,-6,-3
58493602536,-26,-7,-10,-24,-12,-6,-25,-20
58493602536,-21,7,1,3,-6,1,24,-1
58493608828,-2,-2,-2,6,4,0,17,12
58493608828,7,-4,-8,-15,-5,-1,-21,-7
58493616300,11,-4,7,-7,1,-2,-8,0
58493616300,-4,-8,1,-2,-1,-8,-6,0
58493631335,2,-2,-1,1,2,-1,25,4
58493631335,1,-11,5,4,1,3,13,0
58493639548,8,-9,-4,-5,-4,3,-4,-1
58493639548,4,0,-4,-6,-1,-7,-17,-3
58493653822,-4,8,2,7,7,-14,-21,1
58493653822,14,14,9,28,21,-6,26,18
58493662022,35,14,18,33,20,21,52,22
58493662022,21,-5,1,13,6,22,20,13
58493668803,-6,-9,-10,-40,4,-1,-85,-19
58493668803,-73,14,-48,-68,-67,-34,-113,-65
58493676308,-41,24,-12,1,-15,-10,18,-22
58493676308,7,1,11,6,3,4,63,20
58493691277,16,-3,3,3,-1,13,29,10
58493691277,-14,-18,4,6,10,-9,-71,-9
58493699447,18,-7,-11,-19,-17,-24,-42,12
58493699447,-6,4,-5,-13,-5,13,38,-15
58493706257,24,-13,18,35,17,28,101,22
58493706257,60,-3,38,49,45,-10,103,44
58493730113,33,20,27,45,28,10,49,22
58493730113,18,37,31,4,8,-12,17,11
58493731721,-20,18,-1,-28,-20,-8,-53,-16
58493731721,3,-20,13,-7,0,3,-77,6
58493736251,-69,-83,-68,-62,-39,-9,-77,-55
58493736251,-30,2,-49,-17,-27,-12,-1,-18
58493751225,-26,7,-21,16,3,-21,-57,-21
58493751225,0,-7,-7,14,2,14,94,-1
58493759487,34,-26,27,15,29,4,0,24
58493759487,7,-52,-16,-28,-18,-1,-20,-1
58493766240,12,20,32,-6,1,4,46,12
58493766240,31,18,33,13,25,11,1,32
58493781948,-16,31,21,-33,-21,-2,-9,-14
58493781948,-24,35,-22,12,-20,-2,19,-25
58493788745,15,5,-9,24,14,1,49,7
58493788745,22,4,21,-4,22,9,-15,3
58493796226,-19,14,54,-5,5,2,-15,-5
58493796226,10,-52,120,-1,23,-4,-56,19
58493811252,1,-16,65,-5,14,-13,-1,4
58493811252,-17,-32,-86,-1,6,14,35,7
58493819492,-61,19,-112,-10,-57,2,-27,-44
58493819492,-74,16,-128,-14,-58,10,-70,-60
58493826303,-9,-25,-44,-7,-40,-4,-33,-17
58493826303,78,-18,15,-3,-17,-5,1,-8
58493842553,127,-9,43,25,29,8,27,44
58493842553,36,-12,45,19,39,-1,12,27
58493848793,-64,9,25,-5,16,-5,18,2
58493848793,-128,33,16,-6,-3,-4,10,-6
58493865301,-128,10,-2,-1,-5,-6,15,-9
58493865301,-74,8,0,-10,-5,-4,-12,-11
58493880239,7,-9,-20,-10,-8,3,-9,-1
58493880239,32,13,2,3,-5,1,16,2
58493881808,61,1,10,4,14,-5,20,4
58493881808,64,-4,7,5,13,-6,-1,7
58493886265,31,-10,-7,-8,-2,0,-4,-3
58493886265,20,4,0,-10,-13,2,18,-6
58493902758,14,-7,13,10,13,2,27,0
58493902758,15,-1,7,9,11,0,-1,11
58493908813,-2,2,-10,-2,-7,-3,-7,-11
58493908813,-2,2,8,2,-1,0,-1,-6
58493925326,0,-8,4,6,6,-1,4,12
58493925326,-9,-4,-13,-10,-7,-1,-21,-5
58493931374,-10,2,-11,-8,-12,2,-21,-9
58493931374,-12,6,-4,-3,-8,5,-14,1
58493940311,-12,-1,8,3,2,-4,-17,0
58493940311,11,6,-5,-5,-3,4,-7,-1
58493946348,-4,-4,-8,-5,-6,-2,-7,-4
58493946348,-5,2,-6,-9,-12,-12,-1,1
58493962845,-13,19,-3,-3,-15,-8,4,-7
58493962845,-10,-4,-3,-5,11,-6,5,-9
58493968868,18,-28,3,11,13,0,1,19
58493968868,0,1,4,-5,12,-1,6,-5
58493985397,2,3,-2,-2,6,0,4,-4
58493985397,-10,-4,-2,-12,-11,-7,-3,-2
58493991344,-12,-4,-9,-5,-9,-1,-2,-3
58493991344,-7,3,-1,-8,-7,0,4,-2
58494000329,7,-8,2,-1,2,-3,-4,9
58494000329,-2,3,-2,-1,0,-2,-8,1
58494006323,-9,6,-2,-2,-4,0,-4,-3
58494006323,0,2,1,1,-5,1,-6,-4
58494022808,10,-5,0,-6,-3,6,-2,8
58494022808,14,-7,2,3,4,-1,2,8
58494028806,0,9,-2,2,-1,-3,3,-4
58494028806,-9,0,12,7,9,0,2,-11
58494045335,13,-2,-14,-14,-13,-5,-1,25
58494045335,4,-1,0,-2,-3,-6,0,0
58494051396,-1,4,1,2,-8,-1,2,-4
58494051396,-2,-5,-1,4,0,1,2,-5
58494060331,-2,1,9,17,-7,0,4,0
58494060331,0,7,0,-5,11,-1,1,0
58494066328,-1,-4,-1,11,6,-3,-5,-3
58494066328,-3,2,-7,-2,1,2,6,-4
58494082855,7,-2,0,3,7,0,3,-1
58494082855,-10,-3,8,2,2,-1,-3,-15
58494088854,2,7,5,-10,2,1,-4,12
58494088854,-3,-2,-14,-10,-22,0,2,-13
58494105370,2,-6,-5,-3,-1,-1,2,-4
58494105370,21,19,16,25,12,1,2,14
58494120790,-33,-28,-19,-24,-17,0,-8,-22
58494120790,0,9,2,9,3,1,-2,7
58494122460,-28,-8,-14,-17,-11,0,-6,-16
58494122460,-2,-7,-4,16,-2,1,-5,-5
58494126379,-1,-1,-8,-9,-5,0,-6,6
58494126379,-1,-10,1,-2,0,-2,1,-5
58494142863,-11,-1,-8,-6,-1,5,-1,-4
58494142863,8,-8,-2,-3,2,-3,-2,5
58494148820,0,2,-8,1,-7,0,0,-3
58494148820,-9,-8,-9,-9,-3,-3,1,-5
58494165252,-5,-5,7,-2,9,-2,-1,-4
58494165252,-11,-10,-9,-15,-11,-5,0,-2
58494171386,-6,16,-3,-3,-6,0,0,-4
58494171386,-9,-10,1,-2,-3,-2,-1,-2
58494188398,-3,-4,16,15,3,2,-3,-2
58494188398,-5,-6,-7,2,-14,-1,-4,1
58494189216,3,-8,7,-1,1,-1,-2,-4
58494189216,3,3,-6,1,-6,3,-3,2
58494209448,-13,1,-10,-5,0,-7,0,-7
58494209448,-16,2,-27,-23,-24,-2,0,-11
58494210218,-24,-4,-25,-18,-21,-5,-3,-17
58494210218,-54,-8,-48,-85,-56,-15,1,-29
58494232086,-26,-8,-29,-43,-28,1,-2,-18
58494232086,-11,17,8,-30,58,14,-8,-3
58494232819,57,5,44,28,50,11,3,37
58494232819,55,-1,45,43,25,12,-4,36
58494246997,50,13,43,60,-4,1,0,20
58494246997,41,-14,32,35,-4,-2,2,15
58494247801,1,6,7,21,-2,-1,-5,-11
58494247801,-12,2,-4,-5,-11,1,-3,-5
58494271491,-7,-6,12,-6,7,-5,2,-3
58494271491,-6,-4,36,-19,-13,-2,-4,-3
58494276308,-10,4,50,-30,15,-3,5,-6
58494276308,-14,-16,20,-30,-7,-1,-4,-12
58494285373,-6,-6,-42,-9,16,2,-5,-4
58494285373,2,-7,-55,10,-24,-5,-4,-4
58494291305,30,-5,-42,67,-22,2,-1,15
58494291305,10,1,-37,44,-20,-1,2,3
58494307026,2,8,-36,29,8,2,0,-2
58494307026,-32,-4,-21,15,-16,-8,1,-13
58494307841,-46,-2,-25,-10,-18,-2,3,-21
58494307841,-12,3,21,27,24,-1,-5,2
58494329497,24,3,31,26,26,-2,-5,21
58494329497,8,4,21,15,18,2,-2,10
58494330289,-13,-9,-18,-5,0,-3,-7,-8
58494330289,0,-4,-15,6,2,-1,0,-7
58494345375,-2,-7,-15,-13,-12,-3,-1,-7
58494345375,9,0,-32,-11,-7,1,-5,-5
58494351404,23,-2,3,5,14,-2,-1,13
58494351404,7,-9,5,1,12,-2,-2,1
58494367017,-3,3,22,-3,1,1,0,-4
58494367017,1,2,18,-12,-2,-1,2,1
58494367735,8,-3,16,-10,3,-1,-2,0
58494367735,-8,-7,4,-10,3,0,-11,5
58494389557,-18,-10,7,-15,-12,-3,-11,-8
58494389557,3,-13,4,2,-13,-1,-4,0
58494390251,-2,0,1,-17,2,1,-3,-4
58494390251,15,-1,7,7,14,3,0,8
58494405322,-9,9,7,-12,4,1,-12,3
58494405322,-23,9,-1,-16,1,-3,4,-9
58494411287,-16,14,-8,-36,-25,-8,-4,-14
58494411287,3,35,5,-25,1,0,11,2
58494426986,1,8,5,-14,14,1,2,-4
58494426986,6,5,-1,-3,6,1,-16,-2
58494427749,5,-9,-2,7,-1,-1,3,7
58494427749,-4,-3,3,11,-12,0,9,-3
58494449449,-5,2,-8,-4,-12,-2,8,-11
58494449449,-7,-6,-5,11,16,-4,-1,-1
58494450248,7,1,-6,33,-12,2,-3,2
58494450248,-4,20,-9,6,-11,-1,-20,-1
58494465256,8,-21,7,0,1,1,15,7
58494465256,1,-4,-6,-9,-16,-6,31,3
58494471317,-2,-10,3,0,24,2,7,-1
58494471317,5,-10,5,-6,-14,-1,-2,1
58494495979,24,7,17,14,0,6,-18,9
58494495979,13,-2,19,1,-3,-5,-10,3
58494496771,2,-6,9,-14,4,-2,0,-1
58494496771,-15,16,-13,-23,4,-7,-4,-11
58494509462,1,-15,-28,-28,-10,-1,-5,-7
58494509462,-3,0,-19,-27,-8,1,4,-1
58494510244,-10,13,-19,-13,-12,-2,-6,-9
58494510244,-11,-11,-10,-17,4,-1,-13,-4
58494531952,-17,2,5,-4,-8,-5,-9,-9
58494531952,-5,4,5,-4,0,0,-4,-3
58494532746,-10,-6,1,-3,-5,1,-13,-6
58494532746,4,-12,11,8,-3,3,-3,2
58494546395,0,-2,-2,15,4,3,-3,-3
58494546395,-3,-5,-1,18,-2,4,-9,0
58494553888,-6,4,-5,-10,1,-9,-2,-3
58494553888,4,-6,0,16,9,-5,16,1
58494569449,4,6,-1,9,-9,-2,18,5
58494569449,7,0,3,14,3,7,17,4
58494570300,5,-3,-2,4,0,-17,15,5
58494570300,5,-4,1,11,4,-1,18,0
58494583863,-4,-3,-1,2,-1,-10,8,-3
58494583863,-2,1,4,-6,-5,-2,-1,-1
58494591266,-3,4,-1,-10,0,6,-9,-1
58494591266,4,-5,-5,-7,-2,-7,-3,2
58494606432,-3,6,-2,-6,5,-3,-8,0
58494606432,-6,0,-7,-19,-6,-3,-12,-7
58494613873,-6,2,-5,-10,-11,5,-6,-6
58494613873,-6,3,-3,-8,0,-1,-10,-1
58494629530,-7,-4,-3,-11,-4,-2,-13,-5
58494629530,0,-31,-2,0,-4,-8,-10,0
58494630328,1,4,0,-7,-4,3,4,1
58494630328,2,-2,0,2,3,1,1,2
58494643887,-4,6,0,7,-1,-2,-1,0
58494643887,-8,9,-9,2,-3,-3,-10,-8
58494651410,-8,4,-6,-3,-2,-4,-5,-6
58494651410,-4,-7,0,8,-12,7,-13,-5
58494666338,-1,-5,2,17,37,5,-6,4
58494666338,21,2,16,34,-21,0,-8,11
58494682028,12,-9,-7,-5,-8,1,36,5
58494682028,27,2,9,21,25,5,30,15
58494689547,18,12,0,0,-21,-1,67,2
58494689547,6,72,-1,-1,36,7,68,0
58494690354,40,-9,13,-18,14,13,19,8
58494690354,-21,-25,-17,-25,-18,-19,-78,-23
58494711934,-76,-50,-54,-15,-34,-22,-109,-38
58494711934,-59,-33,-20,13,-13,-10,-57,-22
58494712751,-31,-1,6,11,-4,3,0,-4
58494712751,16,-13,29,16,26,12,39,20
58494726407,17,-32,3,4,-7,4,16,9
58494726407,22,-7,-9,-20,-8,-9,3,5
58494733916,20,16,-11,-24,-7,-10,13,12
58494733916,30,25,13,-1,15,11,21,13
58494750166,13,45,3,-7,10,1,-42,1
58494750166,-23,15,-3,-19,-7,0,-55,-16
58494750875,-14,9,0,5,-13,4,-58,-9
58494750875,-9,5,3,-4,-14,1,-30,-1
58494765788,27,-5,21,2,0,4,13,12
58494765788,26,-41,22,10,18,9,11,18
58494771305,4,-63,6,14,16,-1,2,3
58494771305,-15,5,-10,3,0,-9,18,-2
58494786349,-13,45,-6,-17,9,-4,27,-11
58494786349,-8,15,-11,-22,-10,1,10,-10
58494793808,-40,33,-20,-24,-17,-5,-5,-25
58494793808,-20,16,-22,-31,-26,-3,9,-18
58494811016,-12,-2,-4,-31,-13,1,14,-8
58494811016,-25,-18,-9,-29,-14,-6,3,-19
58494811819,-16,-12,-5,-31,-25,-7,-9,-12
58494811819,-12,-15,-15,-32,-15,-4,-12,-10
58494823856,-2,-2,9,1,-1,-4,-2,4
58494823856,13,-10,6,5,-1,1,11,10
58494831347,21,2,8,31,18,-1,-7,15
58494831347,14,1,7,24,10,3,-5,7
58494846342,16,0,8,28,13,2,3,11
58494846342,8,8,7,30,15,4,-2,6
58494853845,32,9,7,18,4,-2,-9,22
58494853845,6,0,3,7,3,-2,13,5
58494869577,5,-5,5,1,3,4,-10,1
58494869577,-3,6,-4,-7,-3,-6,-8,-6
58494870326,-9,-5,-6,-4,-2,1,-12,-9
58494870326,-10,-6,-6,1,-5,1,-5,-8
58494883880,-4,-10,-5,-1,-7,-1,7,-4
58494883880,5,-3,0,3,3,0,0,3
58494891423,5,12,8,10,7,0,3,5
58494891423,26,-9,8,0,13,-4,1,13
58494906434,-12,0,0,-2,-6,-2,2,-9
58494906434,6,-3,11,-4,0,-5,-2,3
58494913866,-13,-4,-2,-8,-9,-3,4,-13
58494913866,-10,-1,-7,-1,-4,2,-5,-2
58494930983,-6,-9,-16,-1,-5,1,2,1
58494930983,2,-11,-30,-5,-3,-5,1,-2
58494931767,-7,8,-14,14,1,1,-1,1
58494931767,-2,-14,-6,5,4,0,-8,-5
58494943815,3,-1,12,4,8,3,-2,-4
58494943815,-13,8,7,-10,-5,3,2,-4
58494951283,10,-4,8,-2,-1,-1,1,6
58494951283,-11,14,2,-23,-9,3,-2,-5
58494974473,-14,0,4,-13,-1,-10,-1,-10
58494974473,-31,-4,-5,-15,-6,-5,-7,-25
58494975245,-28,-3,-11,-39,-19,-6,-6,-16
58494975245,-14,-3,-9,-9,-14,-6,8,-3
58494989460,14,0,5,6,3,5,5,12
58494989460,22,5,2,22,7,2,-3,18
58494990250,8,0,4,23,11,3,-3,7
58494990250,5,1,3,12,4,0,-2,-2
58495003765,5,3,-1,4,-4,1,2,5
58495003765,4,6,1,5,0,3,1,2
58495011267,0,-5,1,2,0,1,-2,-3
58495011267,-4,-5,-1,3,0,-2,-3,-2
58495026258,-8,0,-7,-2,-2,-3,-6,-6
58495026258,4,-4,-2,-2,-4,-1,4,1
58495033748,0,3,-5,4,2,-3,1,-1
58495033748,-4,5,-1,4,0,0,-1,-2
58495049514,2,-3,1,-5,2,2,-1,1
58495049514,15,-1,-4,-1,-8,1,1,11
58495050227,0,1,3,0,4,2,0,2
58495050227,0,2,-3,-4,-2,0,-3,-3
58495063894,-5,0,-5,-10,-1,-2,0,-2
58495063894,-4,-1,-3,-4,-2,3,2,1
58495071373,0,1,-4,3,-3,0,-6,-2
58495071373,-2,-4,-2,-5,-6,-2,-3,-1
58495086357,6,-2,1,-2,2,1,0,4
58495086357,-1,1,3,-1,5,-3,-5,-2
58495093925,1,3,-3,-1,2,-3,-6,-1
58495093925,-4,-1,0,-2,0,-2,0,-3
58495109432,2,-3,4,2,-3,-3,0,3
58495109432,1,-2,-1,-9,-6,0,2,-1
58495110324,-3,-3,7,-2,-2,0,-1,-4
58495110324,-5,1,-5,-4,-1,-3,-4,-4
58495123857,-3,1,-1,-9,-3,0,-3,-3
58495123857,-7,3,4,-14,3,-3,2,-5
58495131360,-3,-6,1,-4,-5,-1,6,3
58495131360,4,-4,-7,-9,-7,0,0,-6
58495154546,6,-7,-4,-9,-2,4,-5,2
58495154546,-7,3,-4,3,4,-2,-2,-6
58495155300,0,0,3,0,-6,2,-1,0
58495155300,-3,0,-5,-9,-2,-2,-5,-1
58495169478,-4,1,-6,-14,-10,-5,2,-1
58495169478,-18,-1,-16,-31,-8,-3,-9,-14
58495170274,-33,-12,-16,-22,-9,-6,-6,-24
58495170274,-19,-4,-6,-6,-9,-5,0,-3
58495183908,-8,0,-8,-14,-11,-6,3,-5
58495183908,9,2,6,9,0,-2,2,10
58495191366,24,12,8,18,13,3,0,11
58495191366,41,-3,18,36,18,3,-5,19
58495206408,23,1,10,23,14,5,-2,10
58495206408,25,2,12,22,10,5,1,11
58495213883,8,-5,3,8,11,3,-3,0
58495213883,-2,-3,-1,9,3,1,1,-3
58495229577,-4,1,-2,9,-2,-1,0,-3
58495229577,-11,-8,5,1,3,0,1,-8
58495230387,0,8,-6,-14,-16,-4,5,4
58495230387,-15,-2,-1,-5,-3,-1,4,-8
58495243892,5,1,-9,-19,-9,-3,-8,5
58495243892,-12,-3,-6,-5,-10,0,-3,-6
58495251396,-8,-5,-2,-6,-1,-1,-3,-8
58495251396,-5,-2,-4,-4,-6,-1,-8,-7
58495266265,-7,2,1,6,3,4,-4,-4
58495266265,-4,-4,-2,-6,-5,-6,-3,-1
58495273830,7,-2,-1,-13,-1,1,2,4
58495273830,-7,-10,-4,-4,4,-4,-1,-3
58495289475,-16,-3,-2,1,1,-4,-3,-11
58495289475,-6,0,-8,-14,-10,-2,0,-1
58495290238,-8,-5,-7,-5,-4,-6,-1,-9
58495290238,-4,4,-5,-22,-12,-3,-3,0
58495303834,2,-4,-4,5,0,-1,3,-1
58495303834,5,0,1,12,2,-1,0,0
58495311311,5,-7,-4,-15,-12,1,-7,4
58495311311,-26,-9,-18,-52,-13,-7,-14,-22
58495326325,-58,-20,-23,-51,-11,-10,-10,-43
58495326325,-6,-4,1,-67,7,-1,7,-2
58495333783,5,-1,19,-35,12,1,-1,12
58495333783,12,7,21,7,4,6,-1,19
58495349480,29,17,23,73,42,9,4,27
58495349480,24,5,17,96,6,2,-3,13
58495350280,26,5,0,95,1,3,-5,11
58495350280,36,-1,6,84,11,4,4,15
58495363770,5,-1,-10,43,-17,-1,-3,-1
58495363770,-4,-5,-13,34,-8,0,-11,-5
58495371296,-18,11,-11,4,-10,-4,-7,-15
58495371296,-13,5,-8,2,0,3,1,-7
58495386300,-2,-10,5,-14,-6,-3,-3,0
58495386300,3,3,5,-17,0,-3,-7,1
58495393861,-9,-6,8,-23,-6,-2,-1,-8
58495393861,-12,5,-7,-25,-7,-4,6,-7
58495408881,1,3,-9,-22,-2,2,9,2
58495408881,0,0,-16,-23,-4,-5,6,2
58495417048,-16,-3,-10,2,13,1,2,-7
58495417048,-1,-2,-1,-3,3,0,-1,-7
58495423780,-2,-2,11,-6,-6,-3,4,0
58495423780,5,-4,-7,-34,-17,-4,7,8
58495431371,-12,2,-2,-12,-5,-2,7,-9
58495431371,4,-7,0,0,6,-5,-5,4
58495446422,-3,-5,2,-3,3,0,-11,2
58495446422,-7,5,1,7,3,2,-11,-7
58495462102,10,2,3,3,2,1,-3,5
58495462102,4,5,3,-3,5,1,-4,3
58495468889,3,-2,-2,2,-1,0,-2,2
58495468889,-2,0,-5,-13,0,-4,3,-3
58495477101,-5,-2,3,-3,0,-5,-8,-4
58495477101,-16,0,-3,-23,-8,-11,-3,-9
58495492061,4,-2,1,-15,3,-1,-1,3
58495492061,-3,-5,4,-3,4,5,5,-4
58495492836,7,2,-4,-11,4,-5,-1,2
58495492836,3,-1,-6,-9,0,-1,-4,-1
58495506401,-2,-5,-4,-16,-4,-4,-6,0
58495506401,-4,-17,0,-4,-4,-5,-2,-5
58495513872,-6,-6,-3,-11,-4,-8,-4,-2
58495513872,-3,-8,2,3,0,4,3,-1
58495528859,-2,0,-3,-9,-7,-4,0,0
58495528859,-4,2,0,10,5,1,-1,-3
58495537074,5,-12,-4,-1,0,-2,1,4
58495537074,-5,3,1,-11,-11,-1,-5,-3
58495552046,-4,5,6,-6,-2,1,-2,-1
58495552046,-10,-2,6,-4,-7,-5,-4,-8
58495552838,-9,2,5,-6,-8,0,-1,-3
58495552838,-6,-2,-9,-4,-2,-4,2,-4
58495566396,1,-1,3,2,-6,-2,-1,-6
58495566396,-1,4,-5,9,8,4,-4,-5
58495573923,0,-7,-8,-2,4,-2,3,0
58495573923,21,-3,-19,-14,-20,-2,0,19
58495588891,-4,-2,1,1,3,-3,1,-1
58495588891,1,-1,-4,5,-2,5,0,3
58495597129,-8,-1,-3,-2,-2,5,1,-7
58495597129,-1,2,8,-2,5,-1,1,-3
58495612060,2,-1,-5,-1,-2,1,2,-1
58495612060,-7,-4,-6,13,-3,-3,2,-6
58495612778,2,-4,-4,9,-1,-7,-6,0
58495612778,-6,-17,-9,-1,-7,3,-1,-10
58495626345,-10,-1,-19,-18,-22,-2,0,-8
58495626345,-8,4,1,-16,-6,0,-1,-5
58495633900,-1,7,5,-4,-2,3,-6,2
58495633900,5,1,10,7,8,3,-7,3
58495648905,14,3,6,17,14,0,-1,8
58495648905,10,-3,0,6,9,4,-1,5
58495657070,11,11,2,5,1,-4,1,1
58495657070,7,11,7,9,8,-2,-7,0
58495672063,6,-1,1,6,3,-1,-6,0
58495672063,-2,-1,2,-2,-4,-5,-3,0
58495672813,-5,-2,0,-4,1,-5,-5,0
58495672813,-6,-3,3,3,-2,0,1,-5
58495686406,-2,1,0,-2,-3,1,4,-2
58495686406,-1,3,1,-2,-5,-4,2,-2
58495693873,-1,-4,-3,1,-4,-2,1,-3
58495693873,-9,-2,-5,5,-1,1,-2,-2
58495708901,-4,-6,-2,1,-2,0,1,0
58495708901,3,-1,-5,-2,-3,-7,-6,-3
58495717095,-2,1,-3,0,-2,3,-3,-2
58495717095,1,1,-4,-3,-4,-3,2,-3
58495731979,-3,0,0,-3,-3,-4,-2,-5
58495731979,-5,-4,-1,-8,-5,-1,-6,-1
58495732759,-3,10,-4,-4,-3,0,0,-1
58495732759,-7,-2,0,4,2,0,-1,1
58495746331,-2,0,-4,-1,2,0,-1,-1
58495746331,-2,-3,0,4,1,-1,-3,-6
58495753799,-6,-12,5,5,1,0,3,-3
58495753799,7,-3,-16,-20,-18,-5,9,4
58495768797,-11,6,8,3,1,1,9,-7
58495768797,5,-4,-1,-2,-2,-3,1,8
58495776957,14,-2,-3,-2,-7,2,2,6
58495776957,5,4,-7,-1,0,-1,-1,3
58495791977,2,2,-7,-2,-4,-4,-3,-1
58495791977,-9,2,-5,-1,-5,-1,1,-6
58495792745,-6,-2,-2,0,-1,-6,-6,-7
58495792745,-11,3,0,-12,-3,-10,-6,-10
58495806297,-4,-3,2,6,3,5,2,1
58495806297,7,0,6,12,6,2,-6,7
58495813839,2,-4,0,1,5,0,-5,1
58495813839,4,2,7,11,7,6,-2,4
58495828825,-2,2,-3,-7,-10,-4,-5,-7
58495828825,-6,1,-6,-17,-10,-1,2,-3
58495836975,4,-2,-3,-2,0,4,-1,2
58495836975,-3,-4,2,1,-6,-2,-4,-4
58495851958,-7,-3,-1,7,6,-6,-8,-7
58495851958,-10,-8,-7,-4,-13,-1,-3,-8
58495852782,-30,-3,-34,-40,-39,-12,-2,-21
58495852782,-27,1,-17,-35,-22,-5,-2,-15
58495866324,-6,3,-8,-46,-21,-9,-3,-1
58495866324,11,4,17,4,22,2,-1,11
58495873866,27,11,29,25,51,8,5,18
58495873866,24,6,22,26,39,4,-4,14
58495888817,20,-5,11,34,17,5,3,11
58495888817,7,14,5,14,5,1,0,0
58495897122,4,-10,15,-15,-10,1,-4,-2
58495897122,-12,-7,104,-32,-31,-2,3,-8
58495912004,-2,-14,117,-18,-2,-4,7,-1
58495912004,-3,-23,2,-41,-60,-8,-1,-3
58495912878,-12,-10,-94,-24,-21,-2,-8,-7
58495912878,11,14,-128,13,8,7,4,9
58495926376,7,9,-110,20,24,2,-13,1
58495926376,4,19,-52,31,37,0,-2,2
58495933885,-8,3,-81,26,11,-8,-8,-4
58495933885,-20,-4,-24,20,6,-9,-5,-18
58495948782,-6,4,-18,26,5,-2,-5,-3
58495948782,-13,6,30,16,-1,-5,-3,-5
58495957033,-4,19,47,18,-12,-4,-1,-2
58495957033,21,-8,24,42,11,6,3,17
58495972059,6,3,18,28,-2,4,13,9
58495972059,6,-6,4,5,-1,2,3,2
58495972788,-5,0,19,-2,-1,-1,2,-4
58495972788,-6,0,7,-15,-3,-1,3,-7
58495986371,-6,-6,-14,-29,-12,1,2,-8
58495986371,-10,-3,-20,-22,-2,-2,-2,-5
58495993890,-3,-2,17,-9,1,2,-1,-1
58495993890,-2,0,9,-6,-5,0,1,0
58496008903,5,-5,-7,-13,-9,-4,-5,2
58496008903,-1,-3,1,-11,2,0,-1,-4
58496017121,10,-2,25,5,4,-3,-1,5
58496017121,4,-2,4,1,-3,-3,-8,0
58496032044,-3,5,-11,-14,-4,-4,-8,-5
58496032044,-3,-2,-5,-5,3,0,-4,1
58496032806,-4,-1,27,-9,-8,1,-4,-5
58496032806,0,4,-22,-3,6,-3,-3,6
58496046367,-2,-1,-16,-2,3,5,5,-1
58496046367,1,-4,1,1,3,-1,2,-3
58496053911,-3,-7,15,5,29,-1,2,-3
58496053911,2,-5,27,-10,-10,1,2,6
58496068857,0,-3,-7,-16,-24,-8,3,2
58496068857,1,-4,-19,-1,-6,-6,-4,0
58496077045,-16,-1,-9,-16,-33,-3,-7,-9
58496077045,-18,1,1,-13,-19,-9,-5,-15
58496092078,-1,0,12,6,-5,-2,-1,-1
58496092078,-8,-9,6,-10,-3,-3,-7,-8
58496092840,3,-2,3,7,5,6,0,4
58496092840,1,-12,2,3,-1,-1,-2,-1
58496106396,-15,-7,-11,-12,-17,3,-5,-9
58496106396,-2,-12,1,-9,-3,2,-5,-5
58496113890,1,6,-1,5,7,-1,2,3
58496113890,3,-2,-1,6,12,0,1,1
58496128913,4,3,-1,2,1,-5,-4,1
58496128913,-1,1,-4,8,4,0,1,-1
58496137078,-1,-1,-17,-9,-3,-4,-1,3
58496137078,-1,5,-7,2,-7,1,-4,-5
58496152121,1,-12,5,6,10,1,-5,2
58496152121,-1,1,0,5,-2,-2,-1,-3
58496152839,-15,9,-2,5,-10,-6,-5,-10
58496152839,19,-3,-10,-10,0,-2,4,18
58496166424,-6,3,-5,-3,-1,4,6,-15
58496166424,1,-3,-4,-6,-5,-4,7,5
58496173855,6,-4,4,8,9,3,-1,2
58496173855,-9,-1,2,8,11,-1,-11,-9
58496188932,0,-4,4,11,6,1,-5,6
58496188932,-1,8,-6,-10,-3,-4,-3,2
58496197132,1,-9,3,7,4,2,-2,-2
58496197132,0,1,1,4,0,-4,2,0
58496212106,-1,-3,7,-2,3,-3,7,-1
58496212106,-2,-2,4,2,5,-2,-3,-5
58496212835,6,-1,0,-4,-4,-1,0,9
58496212835,0,-2,-1,-1,-1,1,-5,-2
58496226294,3,3,-1,-8,-1,-6,-9,-2
58496226294,1,4,-1,-1,-3,-2,-4,3
58496233867,2,-2,-8,-10,-8,2,-1,1
58496233867,-6,-4,-14,-4,3,-3,-3,-5
58496248829,-4,0,-3,-3,3,0,-7,-5
58496248829,1,1,-1,-1,-4,-2,-3,2
58496257090,-2,-6,-3,-2,-4,-3,1,-1
58496257090,-6,2,2,-1,-3,-1,-2,-5
58496272063,1,0,0,-9,0,-3,4,5
58496272063,0,-2,1,0,4,4,-2,-3
58496272847,0,0,5,0,2,-2,3,0
58496272847,-4,4,3,0,-2,2,2,-5
58496286386,6,4,6,10,-1,-3,8,3
58496286386,-2,-2,-1,-4,-8,0,7,1
58496293873,-5,-3,1,6,6,-3,3,-7
58496293873,14,0,-3,-11,-9,2,-1,6
58496308902,-7,-4,4,3,-3,2,-8,-5
58496308902,-1,-2,0,3,1,0,-4,-2
58496317100,2,-2,-3,-4,-5,-2,-5,-3
58496317100,-5,0,0,2,0,-3,-2,0
58496332047,0,1,-1,-4,0,-2,-5,1
58496332047,-5,-1,2,0,-1,2,-4,-2
58496332809,-5,0,-6,-17,-11,-1,-6,-5
58496332809,-2,-1,3,5,3,1,-3,1
58496346372,7,-3,-2,-2,-2,-5,-3,7
58496346372,-5,3,-3,1,-4,-4,-9,-5
58496353892,3,2,-4,-8,-3,-1,-3,2
58496353892,-4,3,2,1,-2,0,4,-4
58496377774,-3,2,-2,-5,-1,-1,-4,-4
58496377774,2,2,1,-2,-1,-1,3,-1
58496378605,0,0,-1,2,1,-2,-2,-2
58496378605,-6,-3,0,-4,2,-2,-3,0
58496391302,2,1,-4,-4,-3,0,-6,-1
58496391302,-4,-2,2,-6,1,2,-1,-4
58496407662,1,-2,-2,-2,0,2,0,0
58496407662,-3,0,0,-2,-1,-4,0,-4
58496409327,-4,-6,-2,1,-4,1,-4,-5
58496409327,1,-1,1,0,-1,-4,-4,1
58496413844,-3,-2,0,-2,-2,-2,0,1
58496413844,-6,2,-4,-5,-2,-4,-2,-4
58496428778,-4,3,-5,-3,-2,-1,-1,0
58496428778,-1,1,-5,-2,-1,-2,-5,-2
58496437113,7,-3,-3,-2,-5,0,-3,1
58496437113,-3,-2,-1,2,0,1,-3,-7
58496451406,6,-3,-2,5,-9,-4,2,5
58496451406,-3,1,-2,8,2,1,2,-4
58496459600,-1,1,2,7,3,0,-3,0
58496459600,0,-8,-2,4,-3,3,0,-2
58496466428,-7,-1,-8,5,-6,0,5,3
58496466428,3,-1,2,4,0,-2,2,-2
58496473849,-1,-2,0,1,2,-1,1,0
58496473849,1,1,1,4,-2,2,-1,-2
58496488891,-1,-5,3,2,4,1,6,0
58496488891,0,-3,-4,-1,-5,-2,1,-1
58496497149,-1,0,-4,2,-2,-3,-1,-1
58496497149,-2,2,-3,-2,-2,-4,1,-1
58496511396,-3,1,1,-4,0,0,-7,-3
58496511396,-2,-1,0,-3,-2,-1,-1,1
58496519599,-5,1,0,0,0,-1,1,-2
58496519599,2,-2,-6,-4,-1,1,-2,2
58496534564,3,-2,2,-2,2,0,0,-3
58496534564,-4,0,-3,-2,-3,-2,-5,-1
58496535306,0,3,-2,0,0,-1,-2,-3
58496535306,1,-4,1,0,0,-3,0,-2
58496548894,-6,-2,2,-1,6,-2,-3,-6
58496548894,2,2,1,-4,-3,-1,7,3
58496557069,1,-2,-4,-6,-7,-1,5,2
58496557069,-4,-1,1,-1,-1,-2,2,-4
58496571398,6,2,-3,-5,0,-1,-5,6
58496571398,-4,-2,-6,-5,-8,-2,-5,-2
58496579627,-3,-3,3,7,6,-1,-6,-3
58496579627,5,-1,-1,-2,4,-4,-4,1
58496594473,-2,0,2,-5,-4,0,1,0
58496594473,3,-3,-2,-5,-2,-4,-1,0
58496595290,1,2,-3,-2,2,0,-3,5
58496595290,-4,-3,-1,-6,-3,-3,-3,-3
58496608902,-4,2,-1,-4,-1,0,-1,-7
58496608902,2,-2,3,-2,4,2,0,5
58496617118,0,-1,2,0,-1,2,1,-9
58496617118,0,2,0,-2,-1,-2,-1,3
58496631399,4,-1,-3,-4,0,-2,-3,-1
58496631399,-6,4,1,-3,-1,4,-6,-3
58496639592,-4,-1,-3,-5,-5,-2,-3,-1
58496639592,-4,1,0,-3,-3,0,-8,1
58496654595,-5,-3,-7,-5,-2,3,3,-6
58496654595,1,-2,-1,-3,4,2,-7,-4
58496655352,0,1,-1,-4,-1,-3,-2,-1
58496655352,-4,0,-2,-2,0,1,0,-2
58496668907,-3,3,-1,-11,-1,-3,-2,0
58496668907,-1,-2,-2,-1,1,-3,1,-7
58496677147,-6,-8,-2,-4,-1,1,-2,0
58496677147,5,-7,-4,-5,-3,1,-2,2
58496691417,-4,1,1,7,2,0,-1,-4
58496691417,-1,2,-3,-3,-1,0,-1,-1
58496699625,3,1,0,-3,-1,-1,-5,2
58496699625,5,0,-6,-7,-4,2,-1,2
58496714567,0,3,0,0,4,-2,0,-4
58496714567,-1,-2,-1,-3,-4,-2,-3,-2
58496715340,-3,-1,5,6,2,-3,-1,-8
58496715340,-1,0,-1,-4,1,3,-1,-1
58496728885,3,-4,-1,-4,-7,0,-3,-2
58496728885,-7,-4,2,5,-1,0,2,-2
58496737054,1,2,-6,-12,0,-2,0,4
58496737054,-1,-7,2,1,0,-1,2,-1
58496751414,-3,4,-1,-9,-4,0,-6,-3
58496751414,-3,-3,-1,1,-2,0,-4,-5
58496759543,2,-3,2,2,2,-1,0,1
58496759543,-3,-2,5,10,0,-3,6,-1
58496774551,-7,-4,-2,2,1,0,2,-6
58496774551,8,-4,-4,-13,-4,1,-4,16
58496775302,-9,1,-5,-1,-2,-2,-2,-8
58496775302,-4,2,1,-1,1,2,-6,-6
58496788840,-2,-7,-2,11,0,-2,1,-2
58496788840,0,-5,3,9,3,-4,1,-4
58496796992,3,-5,-3,-1,-4,-5,-3,1
58496796992,-1,3,-1,-3,-2,4,-6,-2
58496811339,-4,-1,-4,6,-5,0,-3,-1
58496811339,-2,-1,0,0,-5,0,3,0
58496819522,1,-4,-3,1,-4,-1,1,0
58496819522,-4,-4,-3,4,-3,-1,-3,-3
58496834494,1,2,0,6,-6,-3,2,5
58496834494,-3,4,0,0,-2,1,3,-4
58496835286,-1,2,-1,3,-6,-1,-5,3
58496835286,-1,1,-2,0,-3,-2,0,-3
58496848856,2,-6,-3,2,0,-4,5,1
58496848856,0,0,-2,7,1,-4,-1,-2
58496856991,-1,0,1,2,-3,3,3,-5
58496856991,0,-4,0,1,-1,-6,-1,-2
58496871453,2,-1,3,3,1,2,1,5
58496871453,2,-2,-2,-6,-2,3,4,1
58496879641,4,-3,-3,-4,0,-1,2,-3
58496879641,3,0,0,6,1,-3,-1,2
58496894537,0,-4,-5,-11,-5,-2,-6,-4
58496894537,-2,-3,1,-1,-1,-1,-3,3
58496895307,-2,-2,-1,-4,-4,2,-9,-3
58496895307,-3,2,1,1,0,-4,0,-2
58496908938,0,-2,-1,0,5,1,-4,-1
58496908938,1,-2,0,3,-3,-2,-4,-4
58496917129,-4,2,-2,0,1,-3,0,1
58496917129,4,-3,0,-3,-5,0,-5,-1
58496931374,-2,-3,2,-1,0,0,-3,-2
58496931374,-2,2,-1,-7,0,2,-6,-1
58496939620,2,-3,1,0,1,-2,-2,3
58496939620,-5,3,1,-1,-2,3,0,-3
58496955020,-5,2,-3,-9,-1,-1,0,-4
58496955020,2,1,-7,-4,-2,-1,-4,-2
58496955839,-3,-2,4,-4,1,-1,0,0
58496955839,-3,-1,-2,0,0,3,-2,4
58496968893,8,-1,2,-1,-5,-1,-1,1
58496968893,1,-1,-3,-6,2,0,-5,-3
58496977173,-5,0,5,2,6,1,-2,-5
58496977173,11,4,-6,-9,-4,-2,1,7
58496991412,-2,1,-9,-12,-10,1,-5,1
58496991412,-2,-2,5,10,4,-3,-2,-2
58496999624,3,-2,-3,-1,3,-1,-4,0
58496999624,-8,-4,4,1,4,2,0,-4
58497022702,-5,5,-13,-8,-6,-1,3,-16
58497022702,-2,0,6,1,2,0,-1,-5
58497023524,-3,4,-3,-6,-3,2,1,2
58497023524,-6,-1,-3,1,4,-2,-2,-12
58497028871,-1,2,5,-1,1,1,-5,3
58497028871,-3,-4,-3,0,-1,-1,-4,-3
58497037134,2,-3,-1,2,0,2,-2,0
58497037134,0,-3,-3,-7,-4,0,-2,4
58497051419,1,0,4,3,2,-2,1,-1
58497051419,-4,1,-2,-5,-5,-1,0,-3
58497059573,0,-6,0,-8,-4,0,-1,0
58497059573,-4,0,-7,-3,-3,-3,-2,-1
58497074622,-3,-4,2,0,4,-4,-2,0
58497074622,-2,1,-2,-1,2,1,-4,-2
58497075405,-1,3,-4,-9,-7,-1,-5,2
58497075405,-4,-2,3,-5,-2,3,-4,-2
58497088872,1,-2,-1,-3,-1,0,-1,4
58497088872,-3,5,-2,-2,-3,-1,-1,0
58497097081,-1,2,-2,-6,-1,-1,-2,-1
58497097081,-2,-5,-4,1,0,-7,2,-3
58497111391,-2,-3,2,2,3,-3,0,0
58497111391,4,-3,-1,-6,-5,-1,2,4
58497119511,0,0,-7,-6,-4,2,-1,-8
58497119511,-5,-5,1,4,0,-1,-3,1
58497134500,-2,1,0,-1,0,1,-9,0
58497134500,-7,-6,-4,3,2,0,-1,-4
58497135270,1,0,3,5,0,0,-2,-2
58497135270,0,10,-2,-3,-1,4,-1,-3
58497148821,0,-5,-8,-2,-2,-1,4,0
58497148821,-5,-3,-3,0,-5,0,0,-6
58497156984,-3,-6,3,2,2,-4,2,-3
58497156984,3,-1,-3,-4,3,-2,0,-2
58497171355,2,1,-1,2,-3,1,-1,0
58497171355,-3,-3,-2,-3,-2,-3,-1,0
58497179488,-4,-1,-8,-2,-3,-3,-3,-2
58497179488,-1,-6,2,1,-4,-3,-2,-1
58497194500,1,-2,0,4,1,2,0,0
58497194500,-1,-3,-1,3,2,-2,-1,-3
58497195277,1,-2,-2,1,-3,-2,-4,-2
58497195277,0,-1,-2,-2,0,-3,-5,0
58497208986,-5,-3,1,4,-4,0,4,-2
58497208986,0,-3,-4,6,-2,-2,4,0
58497217128,17,-2,-5,-6,-5,-4,6,13
58497217128,-3,-1,-7,1,-6,-2,2,-8
58497231427,-3,1,4,3,4,1,-4,-3
58497231427,2,-1,0,-5,1,2,-3,0
58497239587,-5,1,3,6,2,0,-6,-3
58497239587,-8,-2,3,8,3,-1,2,0
58497254583,14,2,-11,-10,-8,0,4,4
58497254583,-7,2,-4,-6,-7,-2,-8,-2
58497255344,-4,2,0,3,3,1,-8,-5
58497255344,0,0,1,-1,-4,0,-2,-2
58497268961,-7,1,4,5,5,0,-2,-3
58497268961,4,0,-3,2,0,-2,-4,7
58497277022,-6,-2,-1,-7,-1,0,-2,-1
58497277022,-2,-2,-3,-2,1,1,-1,-3
58497291371,-5,-1,-2,-2,0,-3,-3,1
58497291371,6,2,-2,-4,-1,0,-1,-1
58497299575,-2,1,0,0,-1,-3,-6,-1
58497299575,1,-2,2,0,3,1,-3,-2
58497313911,-1,-6,-1,-6,-7,-2,-1,-3
58497313911,-3,-2,0,0,2,2,-3,-3
58497330308,-2,-1,-1,-1,2,1,0,-3
58497330308,5,-1,0,-3,-1,-2,1,3
58497331844,4,-2,-6,-12,-7,-2,0,7
58497331844,-9,0,1,-6,-1,-3,0,-2
58497337136,0,2,0,3,0,0,-1,-5
58497337136,-2,2,-4,-9,-3,0,-2,1
58497351502,-2,-2,7,2,5,1,-6,-3
58497351502,3,-2,-1,-1,-2,1,-5,-3
58497359647,1,-8,-4,-7,-3,0,1,1
58497359647,0,-2,-3,-7,-1,-1,-7,0
58497373968,-1,-1,1,3,0,2,-1,-3
58497373968,-1,-3,-2,4,3,-5,1,0
58497382107,1,-3,1,-8,0,1,-2,1
58497382107,0,-1,-7,-6,-5,2,-3,-3
58497388879,-3,-3,-1,2,-1,0,-1,5
58497388879,4,1,2,-3,1,-1,-1,1
58497397564,0,-1,-1,10,0,-2,6,-8
58497397564,6,-1,0,-2,-2,-2,3,7
58497411358,1,-2,-5,-7,-2,0,-1,1
58497411358,-7,-5,1,-2,-2,-4,-1,-4
58497419579,-6,2,-1,-4,1,1,0,-3
58497419579,-1,-2,2,-1,0,-2,-6,-5
58497433857,-5,-3,-3,2,4,-1,-1,-3
58497433857,-2,0,0,-2,3,0,-4,-3
58497442866,1,-2,-4,-8,-4,-2,-3,6
58497442866,-1,-1,-4,-3,-3,0,4,-6
58497448841,-2,-1,-3,-1,-5,0,2,-2
58497448841,1,-1,-2,-8,-2,0,1,-3
58497457869,-3,-3,2,2,1,2,-1,-1
58497457869,-2,-1,1,1,-3,-1,-3,4
58497471333,-5,0,-5,0,-4,-6,-1,-14
58497471333,-5,2,2,1,-1,1,-2,0
58497480406,3,-3,-2,1,-1,-6,-2,-3
58497480406,-4,-2,-3,7,0,-1,4,-3
58497493883,4,1,4,7,7,2,-1,2
58497493883,0,3,-6,-7,-8,-2,-1,6
58497502825,-9,3,-1,0,1,-1,0,-8
58497502825,7,0,-9,-9,-9,-1,-2,6
58497517691,-2,0,0,2,1,-4,-3,-6
58497517691,2,-6,5,11,7,-3,-3,1
58497519302,0,-4,2,3,-1,0,-7,5
58497519302,-2,2,-5,-3,-1,2,-2,-1
58497531368,-1,-1,-3,-1,0,0,-2,0
58497531368,-1,-7,-1,2,0,2,-1,-3
58497540309,-5,-1,-5,-3,-4,-4,-3,3
58497540309,-5,-2,2,4,1,-1,-5,-1
58497553904,-2,0,-1,-2,-5,0,-2,2
58497553904,0,2,-3,3,-2,-2,0,-1
58497562901,-2,0,-4,1,-5,-3,-5,-1
58497562901,0,2,-2,-2,-1,-1,-3,-3
58497577758,-1,1,-1,3,1,-3,-5,1
58497577758,-1,-2,-1,1,0,-1,-3,1
58497579401,0,-1,-2,-7,-5,-1,6,4
58497579401,-4,-4,-1,2,-1,-5,2,-10
58497591345,-3,-2,-2,-3,-3,-1,2,-1
58497591345,-1,2,-1,0,-2,1,-4,-2
58497600404,-1,-7,2,6,5,-2,-2,-5
58497600404,-3,-1,5,5,1,-4,-2,2
58497613869,0,-5,-3,-1,0,-2,1,0
58497613869,3,-3,-3,-6,-2,0,2,-1
58497622874,-1,-2,-2,0,-1,-1,7,6
58497622874,3,-4,-2,4,-2,1,1,3
58497637752,-7,1,0,-1,0,0,-4,-8
58497637752,2,0,-1,-5,-2,3,-3,2
58497639320,-2,-1,2,4,4,2,-2,-13
58497639320,-7,1,-1,-7,-6,-3,-1,-7
58497651372,-2,-3,4,7,5,-4,3,3
58497651372,7,-2,-11,-18,-13,-5,0,4
58497660395,-3,2,0,2,0,2,0,-1
58497660395,2,-7,0,0,2,-3,1,-3
58497673880,1,-3,-1,-1,-3,-1,-2,1
58497673880,-10,0,1,1,6,-3,1,-4
58497682892,7,-1,-3,-8,-4,-2,-5,0
58497682892,7,-5,-6,-8,-5,1,-5,8
58497697724,2,-1,1,-3,-2,1,-4,-1
58497697724,-2,1,0,-5,-1,-2,1,-2
58497699399,2,1,-1,-1,-1,-2,-2,5
58497699399,-5,5,0,5,2,-1,5,-3
58497711357,5,-2,-3,-7,-2,-3,-2,-1
58497711357,6,-1,-7,-3,-7,-1,-1,1
58497720401,-7,1,-3,-7,-4,-3,1,-3
58497720401,-3,0,-1,-1,4,2,-2,-4
58497733844,-1,-2,3,4,5,1,0,1
58497733844,14,-2,-4,-9,-9,0,-3,10
58497742880,-2,-4,-7,-4,-2,2,-5,-8
58497742880,2,-1,0,-6,-1,1,0,1
58497757736,-7,-3,-5,-4,-2,0,-3,-3
58497757736,-6,-2,6,4,8,-1,-2,-5
58497759343,0,1,0,0,0,0,2,1
58497759343,-2,-2,-1,-3,-2,1,0,1
58497771441,2,1,-6,-4,-8,-2,-2,-3
58497771441,-3,1,1,5,1,0,4,-5
58497780400,2,1,-2,-4,-3,-2,-3,0
58497780400,-5,-3,5,0,5,2,-1,-4
58497793870,-2,-1,-2,-4,-5,1,-1,3
58497793870,-5,2,-5,-2,-3,0,-2,-4
58497802859,-3,0,-2,-6,-1,1,-5,-9
58497802859,1,0,0,1,0,-5,2,-1
58497817703,2,4,-4,-5,-2,-2,-1,-2
58497817703,-1,1,1,2,1,1,-6,-3
58497819275,-2,-4,1,-5,-4,-4,0,2
58497819275,-4,2,-3,-3,-4,1,-8,-2
58497831373,-1,1,1,-2,1,-3,-6,1
58497831373,-1,-6,1,3,2,-3,-6,-2
58497840402,3,2,3,3,4,-2,0,0
58497840402,1,-1,-10,-10,-11,-2,-1,8
58497853816,-2,-1,3,3,2,-1,3,-8
58497853816,9,1,-9,-10,-11,-5,1,10
58497862889,0,3,0,-1,-2,-2,-4,-4
58497862889,-2,1,7,13,8,-1,2,3
58497877725,1,2,-3,-10,-5,1,1,-3
58497877725,10,0,-10,-9,-12,-2,2,9
58497879398,-5,0,1,2,0,-3,1,-3
58497879398,-2,-3,0,3,0,0,5,-3
58497891819,-1,0,6,-2,2,-1,-2,-1
58497891819,-9,1,6,6,7,1,-2,-7
58497900462,2,-2,-5,-4,-3,-2,-4,5
58497900462,-3,0,0,2,-2,0,-4,-6
58497913912,-3,-4,-4,-4,-3,-4,-3,4
58497913912,-8,0,0,2,-3,-1,-5,-5
58497922820,-2,-1,-2,-1,-2,1,-6,-2
58497922820,-2,1,0,-7,0,-3,-3,-6
58497936381,-2,-5,-3,4,-1,-2,0,2
58497936381,-4,-5,2,3,0,0,-1,-4
58497945428,2,-2,2,5,2,-3,4,2
58497945428,-1,-2,-2,1,1,3,1,-2
58497951494,-4,3,-7,1,-6,-4,0,-3
58497951494,-8,0,4,7,1,0,4,-7
58497960415,-2,0,-4,2,-1,3,1,2
58497960415,9,1,-7,-7,-4,-2,-3,-1
58497973881,-4,0,3,18,5,-2,5,0
58497973881,5,-6,-1,-1,-4,-1,5,1
58497983555,-1,-1,0,5,-3,-1,1,-6
58497983555,3,-1,0,-4,-2,-1,-1,3
58497997746,-2,-6,-4,-3,-1,0,0,2
58497997746,-7,0,5,4,4,-4,-3,-9
58497999385,-1,-1,2,1,1,-1,-7,0
58497999385,-3,-3,-2,0,-1,-5,-6,-2
58498020195,-2,-3,-2,1,-3,2,-2,-1
58498020195,-1,-4,0,3,1,3,-2,0
58498021833,3,-2,-2,-4,-2,0,0,1
58498021833,-4,1,1,3,-1,-3,-2,-5
58498033876,-2,4,-1,-1,-2,-1,-1,-4
58498033876,-7,-1,-2,4,1,1,-2,2
58498042821,-5,-1,-1,3,-1,0,-2,-1
58498042821,7,-6,-7,-9,-9,-3,0,3
58498057672,2,-4,-2,-6,-1,-2,-3,3
58498057672,1,1,-3,-7,-2,-3,-4,-4
58498059300,-6,0,0,4,-3,1,-2,-1
58498059300,-7,-2,2,9,1,3,9,-2
58498071367,5,-4,2,-2,-2,1,-5,1
58498071367,-4,1,-1,3,-2,0,1,2
58498080421,-2,-5,-4,-7,-1,-1,-3,-4
58498080421,-3,-3,4,-1,6,-2,-2,-2
58498093837,-4,-2,-1,0,-2,0,0,1
58498093837,1,0,-3,-5,-3,-3,-2,-10
58498102873,4,-4,-5,-2,-6,0,2,9
58498102873,0,-1,4,0,1,1,4,-1
58498117753,2,2,-1,-4,2,0,-3,4
58498117753,-10,0,-2,-4,3,-1,0,-6
58498119423,-1,-3,0,-5,0,-2,0,3
58498119423,-7,1,-1,-3,-2,1,-6,-3
58498131354,-3,0,0,3,1,-1,3,-4
58498131354,5,-2,-3,-8,-2,-1,-4,3
58498140455,-4,3,-1,-3,1,-1,-3,-6
58498140455,-1,3,0,-4,1,-1,-2,-1
58498153900,1,0,-3,-5,-5,-2,0,0
58498153900,-4,4,-1,-4,0,0,-5,-5
58498162849,0,-1,-1,-9,-1,0,-2,-1
58498162849,-2,-2,-5,-1,-1,-2,-2,0
58498177726,3,3,-2,-9,-3,1,-6,-4
58498177726,4,-2,-4,2,0,-2,-1,0
58498179293,-2,2,4,0,0,-2,1,0
58498179293,-1,6,-3,0,-8,-4,0,1
58498191442,-5,-3,4,1,-1,-1,2,-9
58498191442,3,0,-1,-1,-1,3,3,2
58498200408,0,0,-2,-5,0,1,0,0
58498200408,1,-2,-3,-2,-6,-1,-9,0
58498213911,-4,-1,-5,-6,-2,-1,-3,-3
58498213911,-6,-1,2,2,3,-4,-3,-1
58498222875,-1,-3,0,3,0,-4,3,-5
58498222875,4,-3,-3,6,-8,0,-1,-1
58498237109,-2,-1,2,5,5,-2,-1,-3
58498237109,4,-3,-12,-18,-14,-1,-3,0
58498243874,-1,4,-2,-3,-1,-2,-5,-3
58498243874,-8,1,4,17,5,0,1,-5
58498251363,5,-3,-3,-4,-4,1,5,3
58498251363,-5,0,11,13,10,-1,3,-2
58498260461,17,-4,-5,-10,-5,-4,-2,13
58498260461,-7,-1,-10,-8,-15,3,-4,-10
58498273856,-6,-1,2,3,0,-2,-1,-1
58498273856,-1,0,0,-2,-1,-1,-2,3
58498282871,-1,-3,4,4,1,0,-1,-4
58498282871,3,3,0,-3,8,0,4,1
58498297064,0,0,-8,-8,-6,0,-3,3
58498297064,-5,-3,0,4,0,-1,-4,-5
58498303880,-2,-3,-4,-4,-1,0,-1,-2
58498303880,1,-2,0,-9,-1,-3,-1,-2
58498311379,-2,1,-2,4,-3,0,-3,-2
58498311379,1,-2,-2,-9,-2,-3,-1,-1
58498327850,-8,0,-2,2,-4,3,3,-8
58498327850,1,-5,2,-4,1,-1,-3,1
58498333867,3,1,-2,0,-2,-1,2,-1
58498333867,-5,-1,-1,6,2,1,-3,-3
58498342845,2,-1,-6,2,-5,-2,0,-2
58498342845,-3,3,3,-11,2,-2,-2,-2
58498357110,-4,-4,1,1,0,-3,0,0
58498357110,1,0,-2,5,-2,-1,-1,2
58498363910,-3,-2,-3,-1,-2,-1,0,-4
58498363910,4,-6,-3,1,-3,-3,-7,3
58498371378,-3,-2,-3,8,0,1,-1,-2
58498371378,-2,-4,-3,-4,-3,-2,-3,-1
58498380400,-3,-3,1,4,0,-4,1,-5
58498380400,0,-2,3,8,0,1,-2,-4
58498393866,-5,1,1,-5,3,-3,-2,1
58498393866,22,-2,-9,-11,-14,3,-1,13
58498402849,-11,-1,5,6,4,-1,-3,-7
58498402849,-2,0,-6,-1,-7,-2,-8,-7
58498417073,-3,-1,2,0,4,-4,0,1
58498417073,-1,1,-3,1,1,1,2,1
58498423858,2,2,-3,-6,-8,-2,-1,4
58498423858,-6,-2,-4,-4,-2,-3,0,0
58498440235,2,-2,1,0,-1,0,-2,2
58498440235,-10,3,1,3,0,-4,-4,-8
58498441824,-2,-3,-2,-1,-1,1,-4,4
58498441824,-3,-4,0,-2,4,-3,1,-3
58498453919,5,-6,-2,1,0,1,0,-4
58498453919,-2,-7,-1,-3,1,0,-5,4
58498462902,0,6,0,-8,-1,-1,-6,-1
58498462902,3,-3,0,-5,-3,1,1,1
58498477093,-2,2,0,-5,-5,-1,-6,0
58498477093,-3,1,-2,-3,3,-1,1,-4
58498483884,-3,-2,0,1,2,1,-4,-4
58498483884,-1,7,0,6,1,-1,8,2
58498500212,-1,1,-3,-1,-1,2,-2,-2
58498500212,-5,1,1,-3,-2,-5,-2,-6
58498501871,-1,3,0,-4,0,2,-4,-2
58498501871,-5,-4,2,-6,1,1,-1,1
58498513897,5,0,3,0,0,1,4,0
58498513897,7,-2,-10,-14,-9,-5,-2,1
58498522889,-1,1,-3,0,-3,-1,-1,-2
58498522889,7,0,-1,0,0,-2,0,7
58498537098,-2,1,-3,-3,-2,1,-5,-5
58498537098,-8,-2,10,13,9,4,-1,-11
58498543854,-2,0,3,2,-2,-5,-3,5
58498543854,0,2,-10,-17,-13,-1,-6,-2
58498560211,-2,0,1,0,1,-5,-3,-5
58498560211,0,3,-1,3,-2,2,-2,1
58498561837,-4,-6,1,1,1,2,0,-3
58498561837,-4,-2,-1,1,1,-1,-7,0
58498573895,2,-2,-6,-8,-4,0,-3,-2
58498573895,-2,-1,-2,1,-5,1,2,-2
58498582854,1,1,2,-4,1,-1,-5,-2
58498582854,0,-6,-3,4,3,0,-3,-4
58498597090,-1,0,-4,-5,-3,0,-3,-2
58498597090,-3,-4,0,0,0,-2,2,1
58498603927,3,1,-1,-3,-2,-1,-2,1
58498603927,2,0,-3,2,-6,1,-1,-1
58498620284,-3,1,-1,0,-3,-3,-1,-1
58498620284,-4,2,1,2,1,0,-3,-1
58498621871,2,-4,-3,-6,-5,1,2,-1
58498621871,-2,-1,1,3,2,1,1,-2
58498633912,-1,-4,-4,-10,-5,1,-1,-8
58498633912,0,-2,-2,0,0,1,-1,0
58498642879,7,-9,-6,-8,-3,-3,0,2
58498642879,-1,7,7,6,7,-1,2,-4
58498657112,7,-1,1,-1,0,-2,2,8
58498657112,11,0,-6,-11,-8,-3,-8,-2
58498663868,-3,-1,-1,-4,-4,-4,-3,-4
58498663868,-3,-4,4,4,3,0,-1,-2
58498680257,-1,-4,1,4,3,-4,-3,2
58498680257,-7,1,1,-4,-3,0,-4,-6
58498681818,-1,0,-4,0,-4,2,-1,5
58498681818,4,-2,-2,-7,-8,-3,-5,-1
58498693925,-9,1,1,7,1,-3,-5,-8
58498693925,-2,-6,0,6,1,-2,4,3
58498702853,-4,1,-4,3,1,2,-3,-3
58498702853,-4,3,-4,-11,2,-2,-4,-2
58498716830,1,0,-2,3,-3,1,0,2
58498716830,0,-4,-1,-1,-2,-1,3,-2
58498725404,-1,-2,1,8,2,2,-1,-2
58498725404,-5,-3,-4,2,-3,-1,1,-1
58498740255,1,-2,-1,-2,-5,0,1,-3
58498740255,-2,-2,-1,1,-1,-1,-1,0
58498741833,-6,-1,1,5,2,0,0,-5
58498741833,7,0,-6,-5,-1,1,-2,6
58498753856,-3,-2,0,0,1,-2,-1,-4
58498753856,-1,1,-2,5,-3,0,2,-1
58498762862,-4,-3,0,1,-1,-3,1,-4
58498762862,4,0,-2,2,0,0,-1,4
58498777057,5,-2,-1,-2,-6,0,-3,12
58498777057,-2,-5,4,1,7,-3,-1,-9
58498783837,-1,2,-6,-2,-2,-2,3,0
58498783837,-2,1,-3,1,-5,-1,1,4
58498800200,4,-3,-5,-7,-3,-2,1,-4
58498800200,2,-2,3,6,5,3,-4,1
58498801830,-6,-1,0,-5,1,-2,-4,-6
58498801830,-6,-1,1,-1,1,-3,-3,-6
58498813910,-3,-1,-1,-4,5,4,-1,-4
58498813910,-3,4,-1,-7,-1,-2,-2,1
58498822860,1,-3,-2,-3,-2,0,-3,1
58498822860,-4,0,1,-1,-4,-5,0,-3
58498837050,-2,-1,1,-5,-1,2,0,-3
58498837050,2,-5,-2,-3,0,-1,-3,4
58498843977,-6,1,-1,-5,3,0,-6,-1
58498843977,1,-1,-2,-2,-2,1,1,-5
58498860321,4,-1,-4,0,-6,0,-1,-1
58498860321,-7,4,-6,-11,-4,-1,-1,0
58498861976,9,1,3,-3,1,-2,0,3
58498861976,-2,0,-1,-11,-2,-1,-7,-6
58498873970,-2,4,0,4,5,-2,-6,3
58498873970,3,1,0,-2,-3,-2,-3,-3
58498882967,-6,-2,0,-2,0,-2,-1,-4
58498882967,1,-1,-3,0,-3,-6,-1,2
58498897108,-6,0,3,-2,1,-3,-2,-3
58498897108,-5,1,-3,-2,-2,-1,0,-3
58498903949,-2,-1,2,3,1,0,-1,-2
58498903949,-1,-4,2,-5,-1,-1,3,2
58498920792,-6,-2,-3,-1,0,-4,0,-2
58498920792,-4,-3,-3,-1,-4,-1,3,3
58498922355,-1,4,-4,-3,0,1,-2,-6
58498922355,1,-5,-1,3,-2,-1,-2,2
58498933931,-2,0,-1,-2,-1,-2,1,-5
58498933931,4,-1,4,2,3,-2,-6,2
58498942944,-1,-1,-1,-3,-3,-4,3,-3
58498942944,-1,1,-1,0,-3,-2,-1,-3
58498957141,-1,0,-2,-3,-4,-1,-1,3
58498957141,-4,-1,-1,2,-1,1,-1,-7
58498963968,0,-2,-3,-1,-2,-2,0,-2
58498963968,1,-4,0,-2,-2,-1,-1,0
58498980268,-2,-2,0,-2,4,-2,-4,-3
58498980268,-1,-4,-3,-5,-6,-1,1,5
58498981882,5,-1,-5,-6,-6,-3,-2,2
58498981882,-8,2,-3,1,3,-3,1,-2
58498993948,2,0,-3,-3,-4,0,-3,-1
58498993948,1,-1,-1,3,0,1,-6,-4
58499002924,1,-2,1,1,-2,0,-4,4
58499002924,-4,1,-2,-1,-3,2,-1,-2
58499017181,6,1,-6,1,-6,-4,7,6
58499017181,6,1,-4,-6,-7,-4,-3,3
58499024011,-4,-2,4,0,1,-1,1,-6
58499024011,7,-2,-7,-2,-3,-2,3,6
58499040348,-8,-2,2,9,3,1,-3,-5
58499040348,-4,1,0,6,-1,0,2,-6
58499041904,4,-1,-5,0,-3,-4,0,3
58499041904,-5,1,0,0,-2,0,-4,-5
58499053971,3,1,-1,0,-2,-1,-6,0
58499053971,-2,3,1,1,2,-5,1,0
58499062896,-4,-1,5,0,-2,-3,-6,1
58499062896,-3,-1,0,2,-1,2,0,-6
58499077049,0,-4,-2,-2,-3,1,-1,1
58499077049,-5,1,-1,1,-1,2,1,-6
58499083901,-4,3,-6,9,-4,5,4,0
58499083901,1,-5,0,4,-1,-2,-2,2
58499100208,-4,-3,-2,0,-2,-4,-2,-1
58499100208,1,-8,0,-2,-4,-1,-2,-1
58499101816,-4,-5,-1,5,-1,1,-5,-6
58499101816,-8,-2,3,6,3,-1,0,-4
58499113867,9,0,-5,-3,-5,0,3,0
58499113867,-1,-7,-2,4,2,-1,3,1
58499122895,4,1,1,-4,-1,-2,-1,0
58499122895,-4,7,-2,4,-2,-3,1,-3
58499137102,-5,-4,7,7,8,-1,2,-12
58499137102,1,2,-3,-8,-4,-3,-6,10
58499143888,0,3,-1,3,-2,-2,-1,-10
58499143888,-9,-5,1,-5,2,-3,1,-5
58499160266,-6,-5,-1,-4,-2,2,-3,-4
58499160266,0,3,1,5,3,-4,-3,-4
58499161840,0,-3,1,-4,4,0,1,-2
58499161840,10,0,-2,-5,-4,2,-2,13
58499173860,-4,-1,-1,-4,-1,-4,-1,-6
58499173860,3,-3,-1,-9,-1,0,-5,2
58499182863,0,-2,-3,-5,-2,-4,0,5
58499182863,9,-2,0,-6,1,0,-2,-9
58499197083,-3,1,-1,-7,-2,-1,-2,5
58499197083,1,2,-2,-4,-5,0,3,-1
58499203982,3,0,1,-3,2,0,-4,-1
58499203982,-1,0,-2,-5,-2,2,2,-1
58499227829,-2,-2,-1,1,-5,-3,4,2
58499227829,-3,4,-1,-4,1,-1,-2,-3
58499229477,-2,-2,-1,-3,2,-3,-3,2
58499229477,5,-4,-3,-4,-5,2,-5,4
58499233994,-7,2,-4,-4,-5,1,-3,-9
58499233994,-5,1,4,-2,6,1,-5,-4
58499242905,8,-2,-6,-3,-1,0,-1,8
58499242905,-6,-1,-8,-11,-9,-4,2,-1
58499257217,2,0,0,-4,1,-1,-5,2
58499257217,-12,-2,-5,-7,-5,-1,0,1
58499263968,5,-2,1,-2,-3,1,-1,-3
58499263968,-5,-3,3,-2,5,0,-4,-3
58499279707,3,5,-3,-5,-4,-1,-5,-1
58499279707,-6,-1,-1,1,1,-7,1,-1
58499286498,-6,-1,1,-1,1,2,-1,-1
58499286498,-1,-6,-2,1,-1,-2,-3,-2
58499293949,1,-4,-4,-2,-1,0,-4,-2
58499293949,3,-3,-1,-1,2,1,0,-1
58499302963,-3,2,-2,-2,1,-5,-4,-4
58499302963,-3,-1,1,-2,1,1,-1,-4
58499317142,-1,0,-1,-2,2,3,-2,7
58499317142,2,0,-1,-1,-3,-1,0,-6
58499324003,-3,-4,0,-10,-4,-1,-3,-4
58499324003,-4,2,0,-3,-1,-4,-3,-3
58499339693,-3,1,-2,0,0,-2,-2,-2
58499339693,5,-5,3,-2,0,-1,-5,1
58499346494,-9,-6,-7,-12,-5,0,-1,-3
58499346494,0,-2,1,-1,2,-3,2,0
58499353943,-3,-2,1,1,-1,1,3,0
58499353943,3,4,-2,-7,-2,2,-7,1
58499362976,-4,2,3,-1,-1,1,-3,-4
58499362976,1,2,0,-3,-2,1,-2,0
58499377152,4,-1,-4,0,-1,1,1,0
58499377152,-1,-1,-8,-9,-9,3,-3,-4
58499383982,-6,1,1,6,4,-3,1,-4
58499383982,-2,-2,-7,-1,-2,-3,3,2
58499399652,0,-1,5,3,0,-5,2,-5
58499399652,-1,-2,-1,-1,0,0,0,2
58499406545,-3,-2,0,0,-3,0,1,-1
58499406545,-4,-2,4,5,3,-3,-7,-5
58499422847,-4,0,-4,-3,1,1,-5,1
58499422847,-4,2,0,3,-3,-2,0,-4
58499424490,-1,3,-4,-4,-5,0,1,-3
58499424490,2,-5,0,1,-3,4,4,2
58499437125,-1,1,-4,-3,-2,-4,-1,3
58499437125,-1,-7,-1,1,5,-1,-3,-7
58499444009,-1,0,-4,0,-8,-2,-1,1
58499444009,0,0,-5,3,-2,-1,-1,-1
58499459621,-2,0,1,3,-2,-3,-1,-4
58499459621,3,-1,1,9,-1,0,2,8
58499466542,3,-5,0,0,-1,2,-1,0
58499466542,-3,-1,-3,-3,-2,-2,1,-1
58499482844,-1,-5,-1,4,-7,4,4,2
58499482844,1,1,5,2,3,-3,5,8
58499484448,3,-1,-8,-2,-7,-6,-2,-3
58499484448,3,0,-1,2,-1,-5,-4,2
58499497180,-3,0,4,-1,3,-2,-6,-1
58499497180,-2,1,1,-3,-2,-4,-2,-5
58499504015,-4,-2,0,1,1,1,-4,1
58499504015,-2,1,-1,-3,2,0,-2,-4
58499519745,5,1,1,-4,-2,-3,-1,-3
58499519745,-8,-2,-5,-3,-7,3,2,-6
58499533916,3,2,2,0,1,-3,0,-1
58499533916,-4,0,0,1,-1,1,4,-3
58499542847,4,-6,-6,-3,-3,-3,0,4
58499542847,3,1,-2,-1,1,0,-6,-1
58499544438,-4,-1,-2,-2,1,0,-4,-3
58499544438,11,-2,-3,-7,-6,1,-2,-2
58499557150,-3,3,1,-2,2,1,-3,0
58499557150,-2,0,-3,-5,-5,-1,-5,-5
58499563937,-2,-2,-1,3,0,0,-1,1
58499563937,-2,-1,2,-1,2,2,-3,-1
58499579619,-1,-1,-5,-3,0,-2,-4,-5
58499579619,-1,1,-2,0,-1,-3,-1,-3
58499586494,-1,1,4,-4,4,-2,2,0
58499586494,2,-1,-1,1,1,-1,0,4
58499602844,-4,0,-8,-14,-11,-3,2,2
58499602844,-10,-1,0,-2,-1,2,0,-22
58499604443,-4,2,4,1,3,-1,2,0
58499604443,-13,-1,-4,-5,-5,-1,-3,-11
58499617134,-3,3,4,10,4,1,-3,3
58499617134,10,-4,-2,-2,1,1,-1,9
58499623916,-5,-2,-4,-4,0,-2,-3,-5
58499623916,-1,0,-3,-2,0,-1,-1,-1
58499639601,-2,-2,3,-1,3,2,-3,0
58499639601,-4,-3,-4,-6,-3,2,-2,-2
58499646408,6,-6,4,-1,-2,-1,-2,6
58499646408,-1,2,-2,0,-1,-1,-4,3
58499662864,-5,1,-3,-5,-4,1,-3,-6
58499662864,-1,-1,-1,-3,3,-4,-1,3
58499664445,4,-1,-6,-10,-6,-2,-5,-2
58499664445,2,0,-2,-1,-2,-1,-2,-1
58499677153,-1,-3,-1,-1,1,-2,2,-6
58499677153,-2,1,-3,0,-1,1,-2,0
58499683981,2,0,-5,5,1,-3,-3,0
58499683981,-4,-2,-1,-4,0,0,-5,-2
58499699641,3,-5,-4,-1,-7,0,-1,-2
58499699641,1,-3,0,0,0,-1,2,3
58499706479,0,0,-2,-6,-2,2,-3,-2
58499706479,-2,-3,3,5,2,1,1,-3
58499722838,-1,0,-1,-2,-3,-1,1,1
58499722838,-3,-3,-1,-1,-4,0,-1,-6
58499724433,9,-1,2,-10,-3,0,-5,2
58499724433,-5,-3,-2,-2,-3,-4,-2,-1
58499736494,0,3,2,-9,2,-3,-2,-1
58499736494,0,-2,3,-4,-4,-2,-3,2
58499745484,4,1,-6,-9,-8,1,0,6
58499745484,-2,-2,0,-3,1,2,0,-3
58499759627,-6,-1,7,4,9,-2,0,-2
58499759627,1,1,-8,-8,-2,0,-8,4
58499766497,-8,-1,-3,-2,-1,1,-2,-2
58499766497,-2,0,2,-5,-3,-2,-3,-1
58499782869,0,-3,-4,2,0,-2,-2,-1
58499782869,-3,-4,0,1,4,-3,2,1
58499784440,-2,-4,0,-1,0,-1,-1,-2
58499784440,1,4,-5,-2,-5,0,-2,-5
58499805217,-2,-6,1,-3,2,3,-8,-2
58499805217,-3,3,-2,-3,-1,0,-3,-1
58499806904,-1,-2,-4,-3,3,-3,-1,-2
58499806904,0,3,0,5,-4,-4,-2,-4
58499819738,0,0,-6,2,-4,1,2,1
58499819738,0,-3,1,-1,-3,0,-4,-2
58499826500,-6,-2,-2,4,-2,3,-2,-1
58499826500,-3,1,1,11,5,-2,7,-6
58499842827,3,0,-1,1,-5,-1,4,6
58499842827,-3,-4,-8,-7,-12,-2,0,-12
58499844425,-1,6,-4,-1,-6,-3,3,9
58499844425,-7,-1,6,6,9,0,0,-6
58499857172,10,-1,-5,-5,-4,-1,-1,9
58499857172,-10,3,-1,4,-3,-1,-3,-12
58499863932,-2,-1,4,8,3,0,4,-2
58499863932,8,-4,-8,-6,-9,-2,-1,0
58499879400,-2,-2,4,4,2,1,2,-8
58499879400,-1,-4,0,1,0,-2,-3,4
58499895422,0,-9,0,5,-4,-3,1,-5
58499895422,0,0,-3,0,0,-3,-3,3
58499902793,-2,2,-1,0,-2,-4,-4,-3
58499902793,2,1,-3,0,1,-4,-3,1
58499904499,-4,0,0,-1,0,0,-5,-7
58499904499,-1,-3,-3,-3,0,0,1,1
58499916536,0,-1,-5,-6,-2,2,-4,-3
58499916536,0,0,4,5,-2,0,-2,-3
58499925493,-2,-1,4,0,3,-2,-2,1
58499925493,2,2,-3,-1,-5,3,-1,5
58499939684,2,0,-9,-3,-8,1,0,-2
58499939684,3,-1,-2,-2,-1,1,1,9
58499946517,-1,-1,-5,-2,-1,1,-5,-6
58499946517,-4,-1,1,1,-3,2,-3,3
58499962851,-4,0,5,2,2,-3,4,-3
58499962851,-1,1,-1,-4,5,-2,-5,-1
58499964501,3,-4,-5,-1,-6,2,1,5
58499964501,4,-1,-7,-13,-11,-4,-5,1
58499976484,-2,1,0,0,2,-3,-4,0
58499976484,-4,1,2,5,0,0,-1,-7
58499985445,-3,-2,3,3,7,-1,0,2
58499985445,-3,-2,0,1,0,1,-1,-3
58499999665,-6,-3,-2,2,0,-1,-2,-8
58499999665,2,0,-5,-8,-1,-1,-1,5
58500006496,0,-1,1,-2,-1,-1,-5,-5
58500006496,2,-4,4,3,6,-3,-3,5
58500022856,1,-1,-4,-9,-6,1,-3,-2
58500022856,-1,-2,-1,-2,-2,-2,1,1
58500024470,-5,-1,-3,-2,-1,-3,-1,-6
58500024470,-3,0,2,1,3,-5,0,-2
58500036539,-4,0,-2,0,-3,-2,-3,1
58500036539,-3,1,3,6,3,0,-2,-6
58500045496,3,2,-3,-2,-3,-2,2,1
58500045496,-6,-1,-3,-2,-2,-2,-3,-2
58500059651,0,-3,1,-1,-1,-3,-1,-1
58500059651,1,0,3,-2,0,-3,-2,-4
58500066565,0,-2,2,1,2,0,-1,-3
58500066565,-6,0,-4,1,0,-2,-4,-5
58500082804,4,0,-2,-5,-1,-4,-2,4
58500082804,-2,-4,0,-3,-1,-2,-5,-6
58500084398,-4,5,-1,2,-1,1,2,-2
58500084398,6,0,-1,2,1,-1,3,4
58500096505,-9,1,-1,0,-2,0,-2,-7
58500096505,6,-3,-1,-1,-2,-3,5,9
58500105514,-3,3,-1,-4,-6,0,-1,-7
58500105514,1,-2,-1,-1,-3,0,-1,0
58500119667,-5,1,1,1,2,0,-1,1
58500119667,-7,1,-2,-1,2,1,-3,-5
58500126511,2,-1,-4,-4,-1,3,-4,1
58500126511,1,-3,2,-1,-1,-1,3,-5
58500150300,6,-2,-1,-3,-4,2,-1,-2
58500150300,-10,-3,-11,-13,-7,-5,2,-1
58500151894,2,-1,-2,-5,0,-1,-3,1
58500151894,-6,-3,-4,-5,0,2,-3,-6
58500156505,0,-4,-2,2,2,-1,1,0
58500156505,3,1,5,6,2,0,5,-3
58500165518,-1,-1,-8,-5,-2,-4,-7,-2
58500165518,-3,0,-2,-5,-2,-3,-4,-1
58500179644,0,1,3,2,2,-2,-1,-4
58500179644,3,2,0,0,-5,-1,-4,3
58500186476,-2,1,3,7,2,0,2,-6
58500186476,5,-3,0,1,0,0,-3,7
58500202252,-8,-3,-4,-3,-5,-5,0,-9
58500202252,2,-2,-1,-3,-3,0,-1,-1
58500208995,-11,-3,0,4,-2,-3,-2,-9
58500208995,-5,0,2,9,0,3,-2,-4
58500216521,-3,-2,-1,-1,-2,-1,0,1
58500216521,7,-3,-2,-1,-1,1,-3,-1
58500225451,1,-3,-4,-2,-3,-2,3,3
58500225451,0,0,-2,-1,-4,-1,1,0
58500239681,-2,-5,0,0,-2,-1,-3,1
58500239681,-1,2,0,-1,-5,1,-1,1
58500246546,-4,0,-3,3,2,-3,2,4
58500246546,-1,2,-1,-1,3,2,-3,-5
58500262193,-1,2,-1,-1,-1,-3,1,-2
58500262193,-1,-5,-1,1,2,0,-3,0
58500268906,0,-1,-4,0,-3,2,-5,1
58500268906,0,0,-2,4,-3,3,-1,-4
58500276497,-3,0,-2,1,2,-2,1,-1
58500276497,-2,-2,1,-1,5,1,-1,-4
58500285518,3,-5,-1,2,-2,-3,3,3
58500285518,-4,-5,-1,0,-2,-2,2,0
58500299750,-8,1,-9,-4,-8,2,-3,-18
58500299750,0,-6,2,7,6,-3,2,3
58500306453,14,-2,-7,-11,-8,2,-6,6
58500306453,-11,-2,7,9,6,-3,-1,-14
58500322136,13,2,-10,-13,-12,-3,-3,19
58500322136,-10,-2,-4,-3,-5,-1,-1,-17
58500328894,-8,-1,2,0,-3,0,0,-6
58500328894,3,-1,2,1,2,0,-1,0
58500345376,-1,0,6,-1,3,2,-3,1
58500345376,-1,0,0,-3,-5,1,-7,5
58500346916,-2,1,-3,-2,-1,2,-1,-2
58500346916,2,0,-5,-9,-6,-3,-2,0
58500359686,-2,-2,5,6,4,0,-1,-4
58500359686,2,4,-6,-6,-3,-3,2,8
58500366523,-3,-2,0,7,1,-1,-2,-3
58500366523,1,-1,-3,-4,-4,-3,0,-1
58500382141,-2,-3,-4,-3,-2,1,-2,-4
58500382141,2,-2,-2,4,-1,2,0,-1
58500388978,0,0,1,-2,1,-2,-1,3
58500388978,5,0,-2,-3,-3,3,0,5
58500405331,-2,-1,-4,0,-4,-2,-2,-1
58500405331,-3,1,0,0,-2,-3,-3,-8
58500406907,-10,-1,1,-2,2,0,1,-4
58500406907,7,-1,-10,-10,-9,1,0,-1
58500419726,-4,-4,5,8,6,0,-1,-2
58500419726,2,-1,-4,-1,2,1,-1,3
58500426498,-7,2,1,0,-1,1,-2,-5
58500426498,8,-2,-8,-11,-4,-4,0,5
58500442194,-1,-4,-2,-7,1,0,-6,-4
58500442194,-5,-1,3,-1,1,1,-1,-5
58500456489,-3,-9,-2,-5,-2,-2,-1,-6
58500456489,-6,3,-1,3,-3,1,-3,2
58500465343,2,1,-1,-2,0,-1,3,-1
58500465343,2,-1,1,-2,1,-4,0,4
58500466918,2,-2,-1,-1,-1,-2,-1,-2
58500466918,-7,-2,0,-1,-2,-2,-5,-7
58500479617,2,-1,-2,2,-1,-1,3,3
58500479617,-3,2,-4,-2,-7,-4,-3,-1
58500486450,1,3,1,-4,-2,-1,-2,4
58500486450,-2,3,3,-5,0,-1,-4,-1
58500502171,-3,-1,-1,-2,1,-4,-1,0
58500502171,7,0,-1,-5,-7,0,0,6
58500508943,5,-4,-6,-7,-1,2,-4,1
58500508943,-4,-1,-1,-2,-1,0,-1,0
58500525320,-1,1,-1,-5,0,-1,2,-1
58500525320,-2,-4,1,-4,3,2,-2,0
58500526896,1,-3,-2,6,0,-3,4,-1
58500526896,-15,-4,2,7,5,-1,2,-11
58500539651,-2,-4,-9,-9,-11,-1,-3,3
58500539651,1,2,2,1,-1,-3,1,-9
58500546495,7,-3,-3,-3,-3,-2,-3,8
58500546495,0,-2,1,1,3,0,-2,-2
58500562275,-7,-2,0,4,-3,-4,-4,3
58500562275,1,-2,-6,-6,0,1,-4,0
58500569030,-5,-3,-1,3,-2,-2,-3,-6
58500569030,2,-2,-2,3,-1,-1,6,2
58500585375,1,-2,-1,4,-4,-2,-5,0
58500585375,-1,-7,-2,-5,-6,2,-2,1
58500586938,-5,-1,-3,4,1,-2,-1,-6
58500586938,4,-2,-6,0,-4,1,-1,5
58500599667,3,-3,0,5,1,0,0,-3
58500599667,-6,-1,-4,5,0,-1,0,-3
58500606529,1,-4,0,2,-1,-3,-7,-3
58500606529,0,3,-3,5,-3,0,0,2
58500622211,1,1,-2,5,-1,-2,1,-3
58500622211,-1,3,-3,-1,-4,-4,-1,0
58500628957,-4,3,4,-1,-3,-1,-2,-4
58500628957,-5,-2,-1,7,2,-3,1,-6
58500645301,3,0,1,-2,0,1,0,2
58500645301,-3,-3,-3,-3,0,0,-1,-9
58500646924,6,2,-2,-2,-1,-1,1,6
58500646924,-1,0,2,9,2,0,1,-2
58500659404,7,3,1,-5,-1,-2,3,3
58500659404,0,-4,-12,-13,-10,-2,1,10
58500667936,-1,-1,-1,-3,-5,-2,0,-2
58500667936,1,-4,0,-1,1,1,-3,3
58500682218,-9,-3,0,0,1,2,-4,-3
58500682218,10,1,4,7,-1,-3,2,2
58500689053,-4,1,-9,-13,-9,1,-2,-5
58500689053,-1,-2,2,-3,2,-4,-2,2
58500705400,-1,-2,3,-3,0,-3,-1,-3
58500705400,-3,0,-3,-1,2,2,-5,-8
58500706947,-5,2,1,2,3,-2,-3,-3
58500706947,-2,0,1,-6,-2,-1,-2,-6
58500719718,2,-1,-4,-5,1,1,-2,1
58500719718,-3,-3,0,-6,0,-1,-1,1
58500726540,0,-4,-2,-2,1,0,3,1
58500726540,-1,-5,-1,-3,-2,-1,-7,-10
58500742212,-2,-1,2,-4,-4,-1,2,-1
58500742212,-3,0,-1,-4,-1,-1,-4,2
58500748967,-2,0,1,0,1,-1,-2,-2
58500748967,-4,0,-2,-8,-5,-1,-2,-6
58500765803,-3,-3,0,2,0,3,-2,-1
58500765803,4,-4,2,0,2,0,-1,-2
58500767446,-8,-10,3,0,4,-2,-3,0
58500767446,0,-2,-2,-6,-3,3,-5,0
58500779596,1,-1,1,0,2,1,-1,1
58500779596,2,3,-4,-9,-8,-1,-3,-4
58500786446,3,3,-4,-6,-5,0,-2,-2
58500786446,1,0,1,3,2,-3,3,0
58500802177,1,1,-3,-5,-2,-3,-3,-6
58500802177,-10,0,11,13,11,-1,0,4
58500816465,20,-2,-7,-12,-5,-4,-2,17
58500816465,1,-1,-12,-16,-9,2,-2,-2
58500824339,-7,-1,1,-2,0,-4,0,-10
58500824339,-6,0,0,1,2,-4,-3,-6
58500832919,-6,1,1,-3,0,3,-1,-6
58500832919,-3,1,-1,1,0,-2,0,5
58500838896,0,-1,-6,-2,-5,0,-2,0
58500838896,1,-2,-2,-6,-3,-2,-4,-3
58500847941,-6,3,0,1,0,2,1,-7
58500847941,1,2,1,-1,2,-1,0,0
58500862189,-5,0,-3,-4,-6,5,-2,-1
58500862189,2,-6,-3,-3,-2,1,-6,-3
58500869031,-6,0,-2,-5,-3,-1,-4,-3
58500869031,-4,-1,-2,1,-2,-5,-3,-4
58500885292,-3,1,-1,5,5,-3,-1,0
58500885292,5,3,-3,-12,-3,3,0,4
58500886895,-7,-3,-2,0,-1,0,-2,-10
58500886895,8,-3,-2,2,-5,0,8,-2
58500898904,0,-2,0,-3,1,0,-3,-2
58500898904,-8,-5,-4,4,-4,-2,-1,-10
58500908021,-1,-5,2,5,6,-1,-1,2
58500908021,-6,1,-4,-8,-7,-2,-3,-4
58500922180,5,0,-1,7,2,-1,4,6
58500922180,4,-2,-1,0,-2,-3,-4,-5
58500928976,-11,-4,-2,-7,-3,1,-3,-5
58500928976,5,-5,-3,5,-4,-5,1,5
58500945791,-7,-3,1,1,-1,-1,-5,-4
58500945791,2,3,1,5,-1,0,-6,2
58500947447,0,-6,-3,6,-2,-3,-2,-3
58500947447,-1,0,-2,-1,0,-4,-5,3
58500959004,0,-1,-2,-1,-8,-4,-1,-1
58500959004,-4,0,0,-1,2,-2,1,0
58500967930,5,-2,0,3,-3,2,-1,3
58500967930,-7,-2,4,7,4,4,3,0
58500982218,3,-1,-6,-3,-5,-3,0,2
58500982218,-3,0,1,1,-1,0,2,-4
58500988996,3,-1,2,5,0,-1,-4,3
58500988996,-7,-4,-4,-3,1,1,-4,-11
58501005344,0,-3,1,5,2,-2,0,-1
58501005344,0,1,-5,-7,-5,3,4,5
58501006909,1,0,-1,4,1,-3,0,3
58501006909,3,-1,3,2,2,-2,-1,2
58501027155,-3,-1,-2,-3,-5,2,-1,-3
58501027155,1,-4,-3,3,-3,-6,1,3
58501027890,-2,-1,5,12,-2,1,5,-4
58501027890,-7,-1,2,-2,-2,0,-2,2
58501042954,-1,-2,-3,-8,-2,1,-3,1
58501042954,-4,-2,0,-1,0,1,2,-4
58501048969,5,-4,2,7,-3,-3,1,0
58501048969,-3,-2,-7,-9,-8,-1,-3,2
58501072038,-2,0,3,4,10,0,2,-4
58501072038,-3,0,4,11,5,4,-1,-3
58501072878,-7,-2,-5,-7,-7,-1,5,4
58501072878,6,0,-2,2,-2,-2,-2,6
58501087083,6,-3,-7,-12,-6,-2,0,2
58501087083,-11,-1,-2,-3,-2,-1,-4,-17
58501087841,4,-1,1,2,3,-1,2,-2
58501087841,-3,-2,0,2,4,2,0,-1
58501102909,-3,1,2,4,1,0,1,1
