timestamp,emg1,emg2,emg3,emg4,emg5,emg6,emg7,emg8
450488553310,-1,3,3,2,3,-3,-3,3
450488553310,-3,-4,0,-2,-4,-5,1,-3
450488554120,0,0,0,0,0,-2,7,0
450488554120,5,6,4,4,-4,-1,-2,-1
450488554922,-1,-11,-6,4,2,-1,5,-4
450488554922,5,5,-1,4,4,0,-2,-7
450488557724,2,4,4,-1,0,-4,-5,1
450488557724,-4,-5,-2,-3,0,2,0,-2
450488565662,-1,-3,0,-3,4,5,5,0
450488565662,3,2,-1,1,-1,-1,-3,1
450488573553,3,-2,-1,-2,-1,0,1,1
450488573553,-2,-5,-8,-2,0,0,3,0
450488579917,0,2,0,-2,-6,-2,-3,-4
450488579917,-4,-7,6,-9,-2,-3,0,-2
450488594860,-2,1,-2,-2,1,0,0,-4
450488594860,-5,-6,-2,-2,-2,1,2,3
450488604226,3,0,0,-3,1,-1,-3,-1
450488604226,0,5,-5,3,2,4,2,2
450488609812,-3,-2,-1,-1,-4,-1,-1,-1
450488609812,1,3,2,0,0,-9,1,5
450488625658,0,1,0,-5,0,-2,-3,0
450488625658,-4,-7,-4,-2,0,0,2,1
450488633426,-3,4,-5,1,0,3,5,3
450488633426,-1,-3,-3,-3,1,0,-6,-4
450488673072,-5,2,-3,4,3,7,-1,-6
450488673072,-1,-4,1,0,5,0,-2,-5
450488673956,4,3,3,3,-2,2,-4,0
450488673956,-5,-1,-2,-1,-2,0,-1,0
450488674818,-6,-5,-5,-5,-3,-2,-3,-3
450488674818,-1,2,-2,-1,-6,-1,-6,3
450488677209,-1,3,0,-3,-7,-5,-1,-2
450488677209,-5,-2,-4,-7,-1,-2,0,-5
450488685295,6,5,3,3,-3,-5,-5,3
450488685295,2,3,-3,-3,-7,0,1,3
450488692141,-3,-10,-4,-7,-2,0,1,-1
450488692141,2,-3,0,-3,-5,-3,-5,-3
450488699724,1,-2,-5,-7,-2,-2,0,1
450488699724,0,-5,-2,-1,0,-1,-4,-4
450488714699,-3,-4,1,3,4,0,-2,0
450488714699,-2,1,1,-2,-3,-1,-1,1
450488722811,0,-2,-1,1,0,2,0,0
450488722811,-5,-2,-2,0,-2,-1,1,-2
450488729722,-3,4,2,-6,-7,-4,1,-7
450488729722,-1,1,1,3,-3,2,-2,1
450488745386,-2,-5,3,-3,0,-4,-1,-1
450488745386,-3,6,2,-6,1,-5,-1,0
450488752222,-3,-1,1,-2,3,-2,-2,-2
450488752222,-1,3,0,1,3,1,0,-2
450488767940,-2,1,0,-9,-7,-4,-2,-7
450488767940,0,-1,0,-3,1,2,2,3
450488774723,-4,-3,3,-4,-5,2,1,-3
450488774723,-3,0,-4,3,5,-1,-2,-3
450488782851,-3,-1,-2,0,0,-1,2,-3
450488782851,0,1,-1,2,2,0,5,-1
450488789683,2,-2,-4,-3,0,1,-2,1
450488789683,0,-3,1,-2,-2,-3,-2,1
450488805380,1,-5,-3,1,2,-1,-1,-2
450488805380,0,-2,0,-1,-3,-2,-3,-4
450488812184,3,-2,-5,5,5,3,3,2
450488812184,4,2,2,-1,-1,-1,1,-4
450488819727,0,1,2,0,3,2,-1,1
450488819727,-3,2,-5,-5,-1,-1,-2,0
450488834752,-1,0,2,-3,0,-3,-2,0
450488834752,1,-1,-4,-8,-3,-5,0,1
450488842715,-1,-2,0,-5,-4,-3,1,-2
450488842715,2,-2,1,-1,-1,3,1,-3
450488851243,-3,-5,-2,-3,-1,-4,2,0
450488851243,0,-1,-2,3,4,-3,1,-2
450488865454,-3,5,3,-1,-1,-3,0,0
450488865454,-1,2,1,2,1,2,-2,1
450488872149,-1,-1,-5,-2,1,2,-4,2
450488872149,-3,-4,4,-2,-4,-1,0,1
450488879678,0,0,0,2,1,0,-4,2
450488879678,-1,-6,2,3,-2,-6,-2,-5
450488894688,-1,2,-5,-1,-1,-1,-2,0
450488894688,-1,-6,-4,0,-2,1,-2,2
450488902908,-1,-1,-9,-2,0,2,3,5
450488902908,-7,-5,1,-2,1,-2,-2,-1
450488909739,4,2,-1,1,3,0,0,-1
450488909739,-1,-3,2,2,-1,1,0,0
450488925362,-3,2,1,-1,1,3,-1,1
450488925362,2,-4,-4,-3,-2,0,-2,-1
450488932259,4,1,1,3,5,0,1,0
450488932259,0,3,-4,-4,1,-4,-3,-3
450488939671,-1,-4,-1,2,1,-1,4,-3
450488939671,-1,0,-6,-2,-2,-4,1,-1
450488954712,-6,1,2,-4,-2,0,-3,-2
450488954712,-2,-5,1,-3,2,-1,-1,-1
450488962896,1,0,1,-4,-5,-2,-7,-2
450488962896,-1,-1,-1,-4,-1,-5,1,3
450488969743,-3,-5,3,-7,-8,-5,-1,-1
450488969743,-4,-1,-2,0,-3,1,5,3
450488985428,2,1,0,-2,-1,-4,-1,-1
450488985428,0,3,3,4,-3,2,-3,-3
450488992152,1,0,0,0,-4,0,0,2
450488992152,1,5,1,-1,-1,0,-5,0
450489008665,2,3,2,1,0,-2,-8,5
450489008665,-1,-7,-7,-5,1,-8,1,-3
450489014724,-2,-5,-4,-1,3,-4,-3,-5
450489014724,-1,0,-1,1,1,3,0,-3
450489023762,-6,-1,-3,2,2,0,0,2
450489023762,-2,1,0,-3,-4,1,-6,1
450489037218,0,0,-3,1,2,-5,1,0
450489037218,-1,-1,1,-4,-3,-1,2,-7
450489046263,2,-4,0,-6,-2,-1,-2,-2
450489046263,-3,3,1,-6,-3,1,0,-1
450489052266,-3,-4,0,1,3,1,-5,0
450489052266,-3,-3,0,-1,-2,-2,-5,4
450489068698,-6,-4,-4,-4,-7,3,6,-2
450489068698,-2,2,-2,0,-3,1,-4,-4
450489074671,-2,-2,-2,-5,-6,-1,0,-4
450489074671,-2,-2,-1,-2,-2,-5,-5,-1
450489083761,-5,-4,1,-1,-1,-2,-2,-4
450489083761,1,-7,0,-2,-3,-4,-5,1
450489097229,-4,-1,-3,-1,1,0,-1,-3
450489097229,-3,0,-1,3,1,-2,1,2
450489106206,-1,-7,-2,-1,1,-3,-2,-8
450489106206,-2,-2,-1,-1,2,-1,-2,0
450489112211,2,-1,-3,0,0,-1,-4,-2
450489112211,6,-3,-2,-7,2,-6,0,-3
450489128742,0,-5,-3,-5,-2,-4,0,4
450489128742,0,0,0,0,-1,3,0,-1
450489134733,-2,-2,0,-3,-1,2,0,2
450489134733,-5,2,-1,2,-1,0,-1,5
450489143733,1,1,-2,-2,2,-2,4,-2
450489143733,1,0,2,2,7,4,2,-1
450489157172,-1,0,-3,0,-1,-3,5,1
450489157172,3,-4,0,6,3,4,0,-2
450489166234,-1,3,0,-1,-3,2,-4,0
450489166234,-2,0,2,4,3,1,2,2
450489172188,-1,0,-1,0,-2,4,-1,2
450489172188,-2,4,-2,-8,-1,0,2,-2
450489188721,-2,1,-1,1,-4,2,-2,-3
450489188721,-2,-2,-2,0,2,0,4,2
450489194709,-1,0,0,-3,-3,-2,-1,2
450489194709,-3,-3,-2,-2,-2,-5,-6,-4
450489203708,0,-2,1,-2,-1,3,-1,2
450489203708,-2,0,-4,-3,-2,-1,0,-1
450489217161,-9,-4,0,-1,-3,-2,-5,-3
450489217161,-2,-7,-1,-7,-2,-2,1,2
450489226192,-1,2,-4,-6,-1,-2,-1,-1
450489226192,0,-3,-5,-5,-2,-3,-4,-3
450489232226,0,8,1,-3,-3,-3,-3,-4
450489232226,-3,-2,-5,-3,-1,2,2,-2
450489248696,-1,2,3,5,-3,-2,3,1
450489248696,0,-4,3,0,0,1,0,1
450489254716,1,-1,-3,-3,1,-1,2,-2
450489254716,0,-2,2,3,2,-1,4,-2
450489263685,2,-5,1,-4,-1,-1,4,1
450489263685,-2,4,-1,-4,-1,-5,-1,0
450489277265,2,-1,-5,0,-2,-1,-3,3
450489277265,-1,-3,0,-2,-2,4,0,0
450489286171,-2,0,0,2,-3,-6,1,0
450489286171,1,1,3,1,-1,-3,4,-5
450489292186,1,-6,-1,3,3,1,0,-3
450489292186,1,0,-4,-1,-5,-4,-4,-1
450489308641,1,-1,-1,2,0,0,-5,0
450489308641,2,-1,-4,-2,3,1,-4,0
450489314668,1,2,-4,-1,-6,-3,3,1
450489314668,0,-6,-2,-2,3,1,1,-3
450489323670,-4,2,-1,3,5,-3,-4,-3
450489323670,-2,1,3,2,-2,1,-8,-1
450489337195,1,3,1,-7,-5,-6,-2,0
450489337195,-5,-1,-1,-3,-2,1,-1,0
450489346131,-4,-1,-1,-5,-4,-2,-4,-2
450489346131,2,-3,-1,4,5,3,2,-3
450489352160,-4,-2,3,-5,-6,-1,0,-3
450489352160,-5,-1,-3,-2,-3,-2,-2,0
450489368635,0,3,3,1,3,-3,1,-5
450489368635,2,-6,-7,3,-5,-1,2,3
450489374663,-3,-5,-1,-2,0,1,-1,-2
450489374663,3,3,-2,3,-1,-6,3,3
450489383604,0,-6,-2,4,8,6,3,2
450489383604,-5,1,-2,-6,-1,-3,-2,-1
450489397159,-1,-5,1,-1,1,-4,-2,-3
450489397159,-1,3,0,-1,-3,-1,-3,-3
450489406130,4,0,-3,2,0,-1,-4,-1
450489406130,1,0,2,-3,0,1,-1,-2
450489412150,-1,2,2,1,2,-3,-4,1
450489412150,-4,-4,0,0,-1,1,-3,-6
450489428679,-1,-1,0,-13,-12,-3,-4,0
450489428679,0,-3,-4,0,-3,2,-7,-2
450489434643,-6,-4,-5,-1,3,4,0,-3
450489434643,2,-7,-3,-7,-3,1,-2,-2
450489443608,-1,-3,-3,-3,-2,-3,-6,1
450489443608,-1,-3,-5,-6,-4,-2,-5,0
450489457152,1,1,-5,-2,-2,-2,1,-1
450489457152,0,1,-3,-1,-2,-3,-6,1
450489466160,0,-5,-1,-4,-3,2,2,-2
450489466160,3,-4,-3,-4,-3,-5,1,-2
450489472151,2,-7,-1,3,3,0,0,-1
450489472151,0,5,0,-4,-4,-2,0,1
450489488702,-5,-5,0,-8,-3,0,0,-2
450489488702,-4,-2,-3,-9,-2,-1,3,-2
450489494706,-3,4,1,-3,-1,-2,0,0
450489494706,-1,-3,0,-1,0,-3,1,4
450489503615,1,-2,0,1,-3,-1,-1,1
450489503615,1,1,1,-2,-2,0,0,0
450489517132,4,-3,-2,-5,-7,-2,0,-2
450489517132,1,-5,0,0,2,4,-1,-4
450489526168,-3,-1,-6,-3,-3,-2,-1,-2
450489526168,0,0,2,0,0,-3,7,-3
450489532161,-2,-4,-2,-1,-2,-1,3,1
450489532161,-1,-1,-2,0,-2,3,4,2
450489548682,-1,-4,-3,-2,0,-3,-1,-5
450489548682,-1,-1,1,2,2,-1,-3,1
450489554644,-1,-2,1,0,4,0,-3,4
450489554644,5,3,0,-1,-3,-2,-3,2
450489563728,-4,-1,3,1,5,-1,-1,-2
450489563728,-2,4,1,-1,-3,1,4,-1
450489577222,-1,-2,1,-1,-3,-1,-1,-4
450489577222,1,0,-5,-5,0,4,4,-4
450489586207,2,6,0,0,-1,3,-3,-5
450489586207,-1,-1,3,-2,-5,5,-5,-1
450489592296,0,3,1,0,0,-4,-2,-5
450489592296,-2,-2,1,-2,-1,-4,-4,-1
450489608758,-2,-2,0,6,6,4,-1,5
450489608758,0,-7,1,-1,4,-3,-3,-2
450489614677,-3,-1,-3,-1,-6,4,0,-2
450489614677,-5,-4,-1,-3,2,2,-2,1
450489623762,-2,0,-1,-2,0,-3,-1,-4
450489623762,6,2,-1,4,-2,-4,0,-1
450489637243,-3,-6,-1,-2,-1,0,1,3
450489637243,-1,0,-1,-1,-6,-1,0,-4
450489646301,2,-1,-5,1,-1,1,2,3
450489646301,-4,1,-5,-6,-6,-4,2,0
450489659687,-1,2,-6,-6,-3,0,-2,-4
450489659687,0,-2,1,-1,-1,-1,-2,-2
450489668689,3,1,-2,0,3,2,2,0
450489668689,-3,-1,-4,1,3,-1,2,-3
450489683560,3,-3,3,0,1,1,-3,6
450489683560,2,5,1,1,-2,-4,-1,3
450489685182,0,-1,2,-4,-2,-5,-4,-3
450489685182,-4,-5,-3,-1,-2,-3,-4,2
450489697147,0,0,3,-1,1,-4,-3,-1
450489697147,-4,4,1,0,-2,0,1,-2
450489706193,-5,-2,0,0,-5,-1,3,-4
450489706193,-4,-2,-2,-4,-3,-2,-2,-3
450489719650,-4,2,-1,-2,-2,1,-3,-1
450489719650,0,-4,0,-4,-2,-1,2,-4
450489728612,1,-3,2,2,-4,-1,-5,-2
450489728612,-2,1,1,1,1,-2,0,4
450489743585,-1,-6,-3,-5,-8,-3,5,2
450489743585,0,-2,0,-7,3,-2,-2,-2
450489745134,0,-2,-2,-5,-6,-5,2,-2
450489745134,-4,-4,-2,-7,-3,-3,-7,-4
450489757266,-3,3,-2,-4,-3,-8,-5,-5
450489757266,-7,2,-3,2,-1,0,-1,3
450489766178,-2,-3,0,-1,-1,-3,0,2
450489766178,-1,-5,-1,-7,-5,0,-5,-4
450489779771,-2,-3,-4,4,2,-1,2,-5
450489779771,0,0,-2,-1,-4,-4,-1,-2
450489788756,-2,-1,-2,-5,-2,0,-8,-4
450489788756,-2,-4,-4,-1,-3,-7,-2,-4
450489803508,-4,-6,-4,-4,0,2,-2,-1
450489803508,-3,-6,-4,-2,7,-3,-3,4
450489805163,-1,2,-3,0,1,1,0,-2
450489805163,-7,-8,0,-9,-4,0,-1,-2
450489817235,-2,4,0,-2,-2,0,-3,-2
450489817235,-3,-6,-3,-1,0,-2,-2,-6
450489826182,0,-2,-5,-2,-3,-1,-1,1
450489826182,6,5,-2,-2,3,-1,6,0
450489839717,-3,-2,-2,-4,-5,-4,-1,-5
450489839717,0,-3,-4,-4,-4,1,-4,-2
450489848665,1,-1,3,-2,2,0,2,0
450489848665,4,-3,0,3,-3,-1,-2,2
450489863524,1,3,-7,-2,-3,-1,1,3
450489863524,2,-9,-3,-4,-7,-4,-2,-1
450489865111,0,-1,2,-4,-8,0,-4,-1
450489865111,0,1,-1,-2,-5,-4,0,0
450489877146,-1,-4,1,2,4,5,-3,1
450489877146,-2,2,-1,4,-1,0,2,-4
450489886158,-1,-1,1,1,3,-3,-3,-2
450489886158,-2,4,0,-3,-3,1,3,3
450489899627,-4,3,2,-2,3,-3,-5,-4
450489899627,0,3,-7,-6,0,2,-6,0
450489908662,2,-4,-4,-2,2,0,2,1
450489908662,-3,2,3,7,9,-2,2,-2
450489923515,2,1,4,1,-1,-1,-2,0
450489923515,3,-2,-4,1,5,-1,2,0
450489925112,-7,-1,-5,-3,4,1,1,1
450489925112,-5,0,-4,0,6,1,0,0
450489937181,4,-1,-4,-4,0,-4,0,3
450489937181,0,2,7,1,-2,1,-2,1
450489946143,1,3,1,0,-2,-2,-2,-1
450489946143,-1,2,3,2,-2,-2,-3,4
450489959692,1,-3,-3,-1,-1,-4,-2,1
450489959692,-1,-2,-1,0,0,2,0,-1
450489968652,1,-3,-4,-3,-1,-5,3,1
450489968652,-5,0,-3,-1,-2,-1,-5,-5
450489983495,-1,-5,-1,-6,-3,-1,1,-4
450489983495,-2,-3,0,-3,-2,-7,0,-1
450489985084,-2,-4,-1,-1,0,0,-1,1
450489985084,1,-6,1,-3,-6,2,0,-2
450489997155,-3,-5,0,-2,-4,-3,1,0
450489997155,0,4,-2,-4,-6,-5,-2,-4
450490006189,-4,2,-2,-7,0,-1,-2,-3
450490006189,3,4,0,-4,-1,-1,-3,1
450490019632,1,2,1,-3,-2,1,-2,0
450490019632,-3,-2,2,-3,0,-4,2,-4
450490028662,-2,1,0,2,-6,3,-2,3
450490028662,4,-4,-2,2,2,3,0,0
450490043544,-2,-7,2,2,0,2,2,-1
450490043544,0,-3,1,-2,-2,2,-2,-3
450490045134,-1,0,2,-2,-1,-5,-1,-3
450490045134,-3,2,0,-4,-1,-2,-5,-4
450490057151,1,-2,-3,0,-1,1,1,3
450490057151,-2,0,-3,-5,-4,0,-3,1
450490066157,2,-3,-1,-5,-2,-3,-6,-3
450490066157,0,-1,0,2,-6,-1,1,0
450490079674,0,-2,1,-5,2,-4,-1,-1
450490079674,2,4,-4,1,-4,-3,1,-6
450490088664,1,4,0,-2,-6,-2,-5,-1
450490088664,-3,-5,-3,-2,-3,-3,-2,-3
450490103533,1,3,-2,1,-2,-2,-1,-2
450490103533,-2,0,-1,-6,3,2,-1,-3
450490105183,-4,-1,-4,-1,-4,-1,2,2
450490105183,-3,-1,-2,-3,-5,-4,0,0
450490117277,-2,-4,-5,0,-2,-6,-3,-3
450490117277,-4,1,-5,-3,-4,-2,-2,4
450490126199,1,-3,-4,1,2,-1,-8,-1
450490126199,0,1,-2,0,-2,0,-1,0
450490139733,-3,-2,-3,-1,-2,-2,-5,-2
450490139733,-1,-7,-5,0,0,-4,5,1
450490154780,-5,-5,-1,0,0,1,1,-4
450490154780,-1,0,-4,0,2,1,-1,-1
450490163564,-1,0,-1,0,1,-1,-3,-3
450490163564,-7,-4,-5,-5,0,-3,-4,-1
450490165146,-3,-2,1,-3,-6,-2,-4,2
450490165146,-4,-8,-2,-1,-2,-4,-4,-1
450490177298,-1,-1,-2,-2,-9,-7,-1,-1
450490177298,3,4,0,4,0,-4,-1,0
450490186278,2,1,-6,-1,2,-5,3,0
450490186278,-2,2,-1,-7,-2,6,-3,-1
450490199710,-4,-6,-3,-4,-3,5,-6,-1
450490199710,2,-5,-4,1,0,1,-5,0
450490208760,2,-2,2,1,-3,1,1,0
450490208760,1,3,0,-1,-2,-2,0,-8
450490222736,-2,3,1,1,3,0,4,-3
450490222736,-2,-4,3,-2,2,3,-7,-6
450490239444,4,1,-1,5,6,-2,1,2
450490239444,0,2,-5,-1,2,2,-1,2
450490240164,-3,3,0,-6,-2,0,-2,-3
450490240164,-2,2,-3,2,0,-4,1,-1
450490246246,0,-8,-1,-2,-1,-5,-2,-5
450490246246,2,0,4,0,3,1,0,-1
450490259789,0,-2,1,-3,1,0,2,0
450490259789,-1,-4,4,2,-3,2,1,-2
450490268729,-4,1,-1,-4,0,-3,-1,-3
450490268729,-1,-2,-4,-5,0,-3,-1,0
450490291039,-1,2,-1,3,0,2,-6,-1
450490291039,3,3,2,-4,-1,-1,0,4
450490292681,1,1,1,-1,-5,0,-1,-4
450490292681,-4,-5,-2,2,1,0,2,-2
450490297263,-6,-8,1,-1,3,-2,-2,0
450490297263,-9,-2,-1,5,-1,-1,1,-2
450490306248,-3,-3,1,-5,-7,0,0,-4
450490306248,2,-1,3,-4,-5,-2,-4,2
450490319754,3,9,-1,0,4,-1,-4,0
450490319754,0,1,-2,-1,1,-5,-6,0
450490328722,0,3,-4,2,5,2,-2,-1
450490328722,-4,-2,-2,-1,2,-4,2,-4
450490342979,-4,-4,-4,-3,-6,-1,1,0
450490342979,1,-5,1,0,3,1,2,1
450490349687,-3,-2,1,-1,-6,-5,-2,-1
450490349687,4,-2,-2,4,5,-1,-4,1
450490366112,1,1,-1,-1,-1,-3,4,0
450490366112,2,0,1,0,-4,5,3,1
450490367690,1,-1,0,-2,2,2,2,-2
450490367690,-2,1,1,-4,-5,-1,-4,-3
450490379761,2,-3,-6,3,4,-1,1,-4
450490379761,3,-1,-3,-2,-2,0,-7,-1
450490388714,-1,-3,0,-3,1,-4,3,5
450490388714,4,-1,-1,-6,-8,-3,-1,-2
450490402914,3,0,1,-2,-2,-3,1,2
450490402914,-1,-5,0,-5,-7,-4,-4,-1
450490409806,-2,0,-1,-5,-3,0,-2,-3
450490409806,0,2,1,-4,-9,-4,-2,1
450490426797,-1,-3,-5,-6,-2,-1,-3,-2
450490426797,-4,0,-1,-2,-1,-2,-4,2
450490428359,4,-3,-6,0,2,1,-4,0
450490428359,-4,3,1,2,1,-7,-1,4
450490439752,1,-2,2,0,-5,-2,0,0
450490439752,-2,2,-3,-7,-5,2,-1,-1
450490448781,-2,1,1,2,-3,1,-1,1
450490448781,-1,-5,-4,-3,4,2,5,-3
450490462909,-2,2,4,-7,-5,-7,-3,-5
450490462909,-2,-4,0,-6,0,-4,-1,-2
450490469702,-4,1,-1,-4,-1,-1,3,-3
450490469702,0,2,1,-3,-2,-2,-1,-1
450490486056,-7,-3,-3,-2,2,4,3,0
450490486056,0,0,-3,-5,-1,0,-1,-3
450490487687,-2,5,0,0,1,-1,-5,-3
450490487687,-5,-2,-5,-1,0,-5,-3,0
450490499714,1,1,3,2,2,-4,1,-1
450490499714,-3,-3,-3,2,-2,-4,-4,-2
450490508723,-2,-3,-1,-3,2,-4,-1,-3
450490508723,2,-2,-1,3,-8,-1,-1,-6
450490522970,-1,-2,1,4,-4,2,-1,0
450490522970,-4,-4,0,1,1,2,3,-3
450490529712,-2,-3,1,4,-5,-3,-2,-3
450490529712,0,-1,-3,-4,3,-5,-3,-1
450490546117,0,-4,-5,-6,-2,-2,-1,-2
450490546117,-1,-1,-3,-5,-9,-7,-6,-4
450490547655,-3,0,-3,-6,-7,-1,-4,-3
450490547655,3,-2,-4,0,2,1,-1,2
450490559775,-6,-5,-1,-3,-2,-3,-1,-4
450490559775,-2,1,2,-1,2,-3,1,-2
450490568745,1,0,-2,-4,-2,2,-4,-6
450490568745,1,-5,-2,-4,-5,1,2,-1
450490582997,1,-1,0,-5,-3,-4,-5,-2
450490582997,3,-4,-1,-5,-8,-5,0,1
450490589758,-1,1,1,0,-3,0,0,1
450490589758,1,0,2,4,3,0,1,-2
450490606508,0,3,-2,-1,-4,0,2,2
450490606508,-3,1,1,-2,2,-1,-1,0
450490612272,0,-3,-1,-2,-3,-2,1,0
450490612272,-6,-3,-1,-5,-3,-2,-5,3
450490619837,3,-2,-4,3,-3,1,-4,-3
450490619837,3,1,3,-4,-6,-2,3,-1
450490628779,3,-3,-4,0,-1,0,-1,3
450490628779,-4,-2,1,-6,-6,0,-2,-2
450490642912,2,-7,-1,-1,3,-3,-3,3
450490642912,-1,-1,2,0,3,0,-3,1
450490649676,0,0,2,0,7,0,2,3
450490649676,1,3,0,0,0,-1,-2,-1
450490666131,-3,1,1,-3,-5,-1,-4,-3
450490666131,-4,-1,0,-2,1,-3,-6,0
450490667703,1,0,-1,-4,-4,-1,-2,-1
450490667703,0,2,0,0,5,0,-3,-2
450490679770,0,1,-1,3,-6,4,1,4
450490679770,1,-1,-5,-5,-4,-4,-2,0
450490688753,-3,1,3,0,-3,-3,-3,-6
450490688753,-3,-2,-2,-2,-2,2,-4,-1
450490702942,1,-1,-1,-3,1,-1,1,-3
450490702942,-1,-2,-2,4,-4,-2,-1,-1
450490709709,0,-1,-5,0,-5,-5,3,0
450490709709,2,-6,0,1,-6,2,1,-3
450490726085,-2,1,-2,0,-4,-2,-1,2
450490726085,-2,-3,5,6,4,5,-1,-1
450490727670,-1,-2,-3,2,3,-3,1,3
450490727670,-1,-4,-1,1,-1,-1,0,-4
450490739673,-3,1,-2,-3,-5,-1,-3,-2
450490739673,0,2,-5,2,1,2,2,1
450490748787,0,-3,0,-2,-1,4,1,-2
450490748787,-3,4,-1,2,0,-3,-1,5
450490762898,-3,-5,-5,-2,-1,-4,-1,1
450490762898,-4,0,-1,-4,-2,-4,2,-3
450490769790,-1,-2,2,-2,-2,-2,-5,0
450490769790,0,-1,-1,-5,-5,-1,1,-6
450490786107,-1,0,-1,3,5,0,0,1
450490786107,-1,0,-6,-4,0,-2,-2,-2
450490787705,-2,-1,-3,-2,-6,-2,0,0
450490787705,-3,2,2,-4,2,-2,-5,-3
450490799704,3,3,5,1,-2,-1,-1,1
450490799704,-2,-4,0,0,-4,1,-2,-2
450490808759,-5,-1,-2,3,9,2,-4,2
450490808759,-3,-5,-3,-4,-3,-4,-1,3
450490822927,-1,-1,0,1,1,-1,0,-3
450490822927,-5,-2,-2,-2,4,0,2,3
450490829739,1,2,-4,1,3,-1,3,-3
450490829739,-1,-5,-4,-3,-5,1,0,0
450490846122,1,-2,-4,-6,-8,-1,-1,0
450490846122,-1,5,0,-2,-1,1,0,1
450490847709,-3,0,2,-1,0,-2,-4,-2
450490847709,-2,-3,-2,-6,1,-4,-4,-1
450490859797,-3,-5,-5,-4,-3,0,0,0
450490859797,3,1,1,1,-6,-2,-2,0
450490868652,1,3,-1,-3,-4,1,2,-3
450490868652,-1,-6,-3,2,2,0,-2,1
450490882995,1,4,1,0,0,-1,-3,-2
450490882995,1,-6,-1,-2,-2,-4,-1,-5
450490889822,-3,-2,4,-1,0,-5,-1,1
450490889822,-2,1,-1,-1,-6,-2,2,-5
450490906107,0,-2,0,1,-1,-4,-4,1
450490906107,1,-5,-1,2,-1,1,-2,3
450490907718,1,-1,5,4,2,0,0,-1
450490907718,4,5,0,3,-1,-1,2,-1
450490919738,-3,5,-4,-1,-2,-1,6,-3
450490919738,-3,1,0,-1,1,-5,-1,-3
450490928782,-4,-2,0,-3,-7,6,-3,-1
450490928782,-1,-3,-1,0,-1,0,-4,-3
450490951106,1,0,-4,-5,-6,-1,-4,3
450490951106,-1,-2,-2,1,2,0,-2,2
450490952658,-2,0,-1,2,5,1,-1,-5
450490952658,-1,2,0,0,-4,-2,-1,-2
450490966174,-4,-3,-4,-2,-5,-2,-1,1
450490966174,-1,-5,-3,-5,-7,5,-3,-1
450490967793,1,-5,-1,-2,-6,-3,-3,-1
450490967793,3,0,-2,-2,-1,-1,1,1
450490979697,0,-1,-1,2,6,-4,1,0
450490979697,0,-1,0,2,2,-4,4,-4
450490988775,-1,-3,-5,-5,0,-5,-3,1
450490988775,-3,-3,0,4,0,3,-1,1
450491002955,-2,-8,-2,-2,-1,-2,0,-3
450491002955,-2,2,0,-3,0,-1,-3,1
450491009662,1,-2,-1,0,-5,-1,-5,-6
450491009662,2,1,-1,-4,-5,-4,3,-5
450491026174,-6,0,2,-4,1,-1,0,-2
450491026174,1,1,-5,2,-4,-2,3,-2
450491027689,-2,-1,-1,-4,-2,-5,-3,-1
450491027689,-5,-1,2,-4,1,-3,-3,0
450491039786,-3,0,-2,-7,-6,1,-3,-4
450491039786,-1,0,-4,-2,-4,-2,-2,0
450491048714,0,-2,0,-1,-2,-4,-1,2
450491048714,0,3,0,2,0,0,-1,2
450491062904,-1,-3,-2,-3,-4,-4,2,-3
450491062904,-1,-3,4,-2,2,-3,-4,-1
450491069749,-3,-1,-2,-3,0,1,-2,-2
450491069749,0,-8,-4,-4,1,-1,-2,-1
450491086087,2,0,1,1,-2,1,4,-1
450491086087,-3,0,0,-5,0,-3,0,-5
450491087646,3,1,-1,0,-7,-4,-5,0
450491087646,1,1,-1,1,3,0,-4,-6
450491099682,3,4,-2,2,4,-2,-4,1
450491099682,-2,4,-3,-3,-6,0,-1,-3
450491108686,-1,1,-1,-1,1,-1,-2,-2
450491108686,-4,1,1,-1,0,0,-4,-1
450491122927,2,0,1,4,-4,0,0,1
450491122927,0,-4,2,-5,-5,1,-1,-4
450491129679,4,0,2,-2,-1,0,-4,2
450491129679,-2,-3,-4,-5,-7,-4,4,2
450491145148,-6,-6,0,-1,5,1,-4,1
450491145148,5,0,-5,5,4,4,1,-2
450491153693,2,-3,-4,-4,1,-2,0,-4
450491153693,0,-2,-1,2,-1,-2,1,-1
450491159648,-1,-3,-1,-6,2,-5,-4,-5
450491159648,2,3,1,1,-1,-3,2,0
450491168693,-5,-4,-1,4,3,-1,-5,2
450491168693,-3,0,-6,-5,-1,-1,-3,-2
450491182885,1,1,0,3,1,3,0,-3
450491182885,-4,2,3,0,0,5,-1,1
450491189712,1,0,1,3,2,-1,0,-1
450491189712,-1,-1,3,1,1,0,-2,1
450491205409,2,3,4,-1,-1,-3,0,-3
450491205409,-4,1,0,-1,4,-2,-6,-5
450491212193,-2,-1,0,0,0,0,4,-3
450491212193,-1,-1,-4,-1,0,0,1,1
450491219681,2,-1,-3,0,1,-1,0,0
450491219681,1,1,1,-1,-1,2,-3,2
450491228695,-5,-6,2,-1,1,0,2,2
450491228695,0,3,6,-2,-7,-8,-5,-3
450491243034,1,0,-2,-1,-5,-2,-2,1
450491243034,-1,0,-3,0,0,-6,0,-2
450491249706,-3,-3,-2,-1,-4,0,1,-4
450491249706,-1,-3,3,-4,-5,-1,-1,1
450491265497,-2,-1,-3,-1,0,-4,-5,-8
450491265497,-2,-11,-4,-4,-2,-1,-7,0
450491272273,-2,0,-6,-7,-4,2,0,-3
450491272273,-1,-3,-4,0,1,1,-4,-2
450491279737,-1,1,-1,1,-1,0,-1,0
450491279737,-2,-7,-2,2,-4,-3,-1,2
450491288780,0,3,-2,1,-2,2,3,-2
450491288780,-2,-5,-4,-1,4,1,-4,-5
450491302938,1,3,0,-7,-6,1,-4,0
450491302938,-6,-2,1,1,-1,-4,-3,-1
450491309683,-2,1,2,-3,-9,-2,-5,1
450491309683,-5,-3,2,-3,2,2,-2,2
450491325436,-1,-2,0,-3,0,2,-2,2
450491325436,2,3,-3,0,-4,-2,2,2
450491332325,3,-2,-2,-2,-5,-5,-2,-4
450491332325,1,0,-1,2,4,-4,2,1
450491348597,-3,-1,-3,-2,0,-4,-1,-1
450491348597,-1,-1,1,-2,-1,-2,-2,-1
450491350184,-1,-3,-5,-3,1,-2,0,-2
450491350184,0,-2,-3,-1,-1,-2,0,-1
450491362944,-3,-6,-3,-2,-1,-2,-3,-3
450491362944,-2,-3,-4,0,3,2,-2,0
450491369756,-1,-2,-5,-1,3,-3,0,0
450491369756,-6,1,-2,-4,-7,-6,-3,-4
450491385464,-4,0,0,0,1,-5,-2,-2
450491385464,-2,-1,2,-3,-2,-1,2,-3
450491392292,-1,-3,-1,-3,6,3,-2,-4
450491392292,-1,2,-2,-1,0,2,-1,-4
450491408665,-7,-6,0,-2,1,3,-2,-3
450491408665,-1,1,-3,-3,-3,-2,-1,-4
450491410191,2,0,-2,2,0,-5,-2,0
450491410191,5,1,-3,3,-3,-3,4,0
450491422985,-2,-2,-2,3,-1,-5,0,0
450491422985,-1,0,2,-1,0,0,6,3
450491429771,-4,-2,2,-1,-2,4,3,3
450491429771,1,-2,1,4,1,1,-2,-1
450491445455,-3,-3,-3,-2,-1,2,1,5
450491445455,-2,-1,0,-2,1,-1,1,2
450491452277,1,1,-2,-1,-1,-4,-3,2
450491452277,-5,-3,2,-3,-6,0,1,0
450491468663,-3,-6,-1,-4,-2,-2,1,-5
450491468663,2,1,-2,-2,-5,1,-5,-3
450491470229,-5,-3,-1,-6,-4,3,-4,-3
450491470229,1,0,3,-8,-6,-3,1,-4
450491482936,0,2,1,2,-7,8,1,-3
450491482936,-1,-3,-3,0,2,-2,-1,-3
450491489834,-2,0,1,1,-1,-4,-4,-3
450491489834,0,1,-2,0,-3,-1,-5,-3
450491505487,0,-6,2,-2,-2,-4,-1,4
450491505487,-3,-3,-2,-1,1,-2,-3,-3
450491512213,0,-3,1,0,-1,3,-4,-1
450491512213,-3,-3,-4,-1,4,-2,-4,2
450491528640,-4,0,1,-4,1,-1,-3,-5
450491528640,0,1,-3,-1,-4,3,-3,-4
450491530215,-2,-3,0,-6,-4,-5,-1,-1
450491530215,2,-2,-4,-5,-2,3,3,-2
450491542955,1,-2,4,-5,-5,0,0,2
450491542955,-5,-3,-2,0,-2,0,-1,1
450491549795,-3,1,0,-2,-1,1,1,0
450491549795,0,-1,2,1,2,-2,-3,0
450491565457,0,1,-3,-2,2,0,-2,-1
450491565457,-2,-4,-3,-2,-3,1,-2,1
450491572270,1,-1,-4,-2,0,-1,2,-2
450491572270,-4,-1,3,-2,-5,-1,-1,0
450491588641,0,1,0,-6,-5,-4,-2,-1
450491588641,1,0,2,-1,-1,-5,2,0
450491590170,0,-3,1,-7,-5,-3,-7,1
450491590170,0,0,0,-4,-3,2,2,-3
450491602200,-1,-2,-4,-1,-3,0,3,-1
450491602200,2,-1,-2,-4,-2,2,1,-4
450491611293,-4,-3,1,4,2,0,0,-3
450491611293,0,0,-2,-2,2,-1,-6,-4
450491625479,2,1,0,3,-2,-3,-1,0
450491625479,2,-2,1,-3,-7,-6,-5,1
450491632223,4,5,-2,-1,-7,-2,0,-3
450491632223,-1,-3,1,-1,0,-3,-8,2
450491648700,-1,-4,-3,-4,1,-1,-4,-2
450491648700,-1,1,-1,0,0,-1,1,0
450491650292,-2,0,0,-4,-6,-1,-2,-2
450491650292,-2,2,-7,2,-4,-4,3,0
450491662270,-2,-2,-1,-3,-4,-4,-4,-1
450491662270,-1,-3,-7,-2,-6,-3,-5,-6
450491671279,3,3,1,0,-2,0,-1,0
450491671279,-3,-3,-6,-1,2,-1,0,1
450491685495,5,-1,-1,2,0,1,-2,-1
450491685495,-6,-3,-9,-8,-2,0,-4,-3
450491692324,-1,-5,-4,0,-3,-1,3,0
450491692324,-4,-1,-6,-4,-11,-3,-5,-1
450491708657,-5,1,0,1,-1,-4,-2,-1
450491708657,5,-3,3,1,-2,3,-4,-1
450491710174,-1,-2,-1,0,-2,0,5,2
450491710174,4,-5,3,-2,0,-2,-3,-2
450491722321,1,2,1,-4,-7,0,-3,1
450491722321,-4,0,5,1,1,4,2,-3
450491731249,-3,-4,2,-4,-1,2,-1,-2
450491731249,-3,1,-4,-6,-1,0,1,-3
450491745411,4,1,3,3,3,-2,-5,-6
450491745411,1,2,2,-2,-2,-1,-1,3
450491752318,0,2,-2,0,3,-4,1,-1
450491752318,-4,-1,8,-1,0,0,2,0
450491768901,-4,-3,-6,-3,1,-2,-4,0
450491768901,3,0,-2,-1,-3,-1,2,-2
450491770227,-3,-1,-2,-2,1,5,-1,-1
450491770227,5,0,-1,3,-4,0,-1,0
450491782302,1,-1,-1,1,-3,-4,0,-1
450491782302,0,-6,6,2,1,-5,4,-1
450491791309,-3,-7,-8,-1,2,-3,0,2
450491791309,-1,-3,3,-4,-1,-7,2,-1
450491805470,0,1,1,2,-5,-1,1,0
450491805470,-5,-2,-6,-2,1,1,1,-3
450491812275,1,1,-3,-4,1,-4,-2,-3
450491812275,1,4,2,1,-5,3,-1,0
450491828648,-1,-6,3,-7,-2,-4,-4,-6
450491828648,4,4,2,-1,-2,-4,-3,3
450491830228,-2,4,2,1,2,-1,-3,5
450491830228,-2,-3,-2,-4,-2,-1,-2,0
450491842253,-6,-1,-5,-2,2,3,4,-2
450491842253,-1,4,2,-5,-5,-4,1,-1
450491851284,-4,-1,-3,-4,-1,2,-2,-6
450491851284,1,0,-2,-6,-3,-4,-4,-4
450491865481,1,1,-1,2,0,-2,0,0
450491865481,-3,-1,3,-1,1,-3,0,0
450491872324,0,3,-2,1,-4,3,-2,-2
450491872324,-3,-3,1,-2,-1,0,-1,-1
450491888622,0,6,4,-2,0,3,-1,-2
450491888622,-1,1,-2,1,1,0,-1,4
450491890228,-2,-5,-2,-1,-4,-3,-1,0
450491890228,-1,-4,1,-4,-3,0,-3,1
450491902720,-1,-2,1,-4,1,1,3,3
450491902720,-1,-3,3,1,-2,1,-1,-6
450491911337,1,0,-3,0,4,-1,0,3
450491911337,-4,-6,2,-2,1,-1,1,-2
450491925492,-3,-3,-5,-4,-2,-3,-3,-3
450491925492,-1,2,-2,-2,1,-1,1,-4
450491932294,2,-1,3,-2,-6,-1,-4,-1
450491932294,-1,1,-6,-3,-5,4,-5,-6
450491948657,-6,0,-4,3,-1,-1,1,-3
450491948657,-3,-2,-1,-4,-1,-1,1,-1
450491950170,-3,-3,1,-5,0,-7,0,1
450491950170,2,0,-5,-2,5,-1,5,-2
450491962288,1,-5,2,-2,-7,2,1,0
450491962288,-5,0,-5,-4,-1,-4,-9,0
450491971230,0,2,-1,0,-5,-1,1,0
450491971230,-1,1,0,-1,0,-3,-1,0
450491993718,-2,-1,-2,-6,-6,-5,0,0
450491993718,4,-8,2,-5,-4,-4,-1,-3
450491995243,-3,-1,-1,-4,-5,-3,-6,-4
450491995243,0,-4,3,-1,-5,-4,-1,-3
450492008730,2,0,-1,0,1,-3,-1,2
450492008730,1,-3,-5,-2,-4,0,2,2
450492010180,0,-2,3,-8,-6,1,-3,-1
450492010180,2,1,-2,-6,-2,0,-1,3
450492022311,0,-1,0,0,4,-2,-2,2
450492022311,-3,-1,1,-3,-4,-3,-1,-2
450492031274,-3,-3,-3,-3,-4,0,3,-2
450492031274,2,3,1,3,-3,-4,-4,-2
450492045516,-2,-3,1,-4,-5,0,0,1
450492045516,-3,-8,-7,-1,-5,2,-1,-6
450492052265,3,-3,-1,0,-4,-6,2,1
450492052265,-1,-6,3,1,-4,-3,-3,2
450492068622,-2,-2,-1,-3,-4,0,-5,-4
450492068622,-2,-2,1,-1,-1,-1,-4,3
450492070198,-1,0,-4,-7,-1,-2,-5,-1
450492070198,-5,-6,-7,0,-1,1,-4,-1
450492082266,0,0,-2,-3,-6,-3,-1,-4
450492082266,1,-1,-3,0,3,-4,2,2
450492091185,-1,-5,5,2,2,-3,-1,-5
450492091185,-2,6,-6,1,3,-1,4,-2
450492105479,-2,-3,0,1,0,1,0,-3
450492105479,-2,1,-3,-4,1,0,-1,-1
450492112234,-3,-1,-3,-1,-2,-3,1,-4
450492112234,-1,-4,-5,-1,1,-4,2,-3
450492127910,2,2,4,2,-1,0,1,-2
450492127910,-3,0,1,1,-1,-1,-5,-7
450492134701,-3,-1,-4,-4,-1,0,0,4
450492134701,-5,-3,0,0,-1,-1,-2,4
450492142248,-2,-3,-6,-5,0,-6,-1,-1
450492142248,-2,5,1,-2,-4,0,-2,-2
450492151225,0,-2,-4,1,-1,0,-6,0
450492151225,-3,-2,0,4,5,0,3,0
450492165406,3,0,6,-7,-3,-1,-2,0
450492165406,-8,3,-2,0,-2,3,4,4
450492172194,4,0,2,1,2,1,1,-1
450492172194,0,1,-3,-4,-1,2,4,3
450492187911,-5,-3,-4,1,5,-3,0,5
450492187911,5,2,0,-3,-5,-4,-7,2
450492194696,0,-1,0,0,1,3,-3,-1
450492194696,-1,-8,-1,0,0,-2,-2,1
450492202198,2,1,-6,0,-3,-1,-2,-1
450492202198,1,-5,1,-2,0,0,-1,3
450492211202,-1,3,0,4,3,-5,0,0
450492211202,1,3,-1,0,-4,-2,0,0
450492225404,-2,-1,1,1,-2,-4,0,0
450492225404,-3,-5,-3,-3,2,0,4,-2
450492232253,0,-11,0,2,0,0,0,3
450492232253,-1,0,-3,-7,1,2,-1,2
450492247932,4,4,0,1,1,-1,-1,1
450492247932,0,1,-3,-3,2,2,2,-1
450492254710,-2,5,-3,-5,0,-3,2,-3
450492254710,-1,5,-1,0,-3,-1,-3,-7
450492271069,-1,0,-4,-2,-1,0,4,0
450492271069,4,0,-4,2,2,-4,0,-1
450492272674,0,-4,-2,1,-3,-2,-2,-4
450492272674,-2,-6,-1,0,-4,-2,2,0
450492285446,-4,1,-1,-3,0,2,1,-2
450492285446,1,4,-6,1,0,4,7,-1
450492292173,-2,-1,0,2,1,8,1,-4
450492292173,4,1,2,-3,-5,-2,-1,-2
450492307973,-1,-5,-3,-4,-3,-2,4,-3
450492307973,-4,-2,0,0,2,-3,5,-2
450492314851,-1,2,2,1,2,-1,-4,4
450492314851,1,-2,0,-1,-4,1,0,-2
450492331157,-2,-7,-1,-5,1,0,-2,-1
450492331157,-2,-4,0,-3,-7,-4,-4,-4
450492332777,1,7,0,-2,-1,2,-3,-1
450492332777,-1,3,-2,-2,5,0,-1,-2
450492345538,-3,-5,-5,-3,0,1,-2,-2
450492345538,2,0,0,0,6,-6,1,-1
450492352284,0,-2,1,-1,-3,-5,1,-2
450492352284,-2,-4,-6,1,3,3,1,-3
450492367996,2,0,3,0,-2,-6,0,-3
450492367996,-2,-4,-4,-2,-5,0,-4,2
450492374819,0,-2,-2,4,1,-4,-2,2
450492374819,1,1,1,4,-2,1,-3,-4
450492391212,0,4,1,-1,-5,0,-4,-3
450492391212,-1,-2,0,-3,2,0,-3,-5
450492392728,3,-5,-4,-5,-8,-2,4,-2
450492392728,1,-3,0,0,-5,-2,0,-1
450492405398,0,-4,-2,-3,3,0,-5,-2
450492405398,-2,-2,-2,0,-1,2,-1,1
450492412293,-1,0,-3,-5,-3,-2,-1,-5
450492412293,-2,2,3,-2,2,-3,0,0
450492428021,-6,0,-2,-4,-6,3,-7,-3
450492428021,1,-4,-1,-3,-5,-5,-4,-3
450492434810,-3,-3,-4,-2,-1,-4,2,0
450492434810,-4,-8,-3,-4,-1,-5,-2,1
450492450239,1,2,0,4,0,-4,1,-2
450492450239,-4,-5,0,-2,0,1,-2,-3
450492458744,-3,2,-1,-3,-3,2,-6,0
450492458744,-1,-2,-3,-2,-1,-3,-4,-2
450492465464,-2,-2,1,1,-1,3,-3,1
450492465464,0,-8,1,1,-2,-7,-3,-1
450492472297,0,-1,2,0,-8,0,2,-2
450492472297,-4,-2,-4,-1,6,0,0,-4
450492487958,-1,-3,-3,0,0,-2,-6,-2
450492487958,1,-1,0,2,-6,2,-1,2
450492494848,-6,-3,-1,-5,-2,1,-3,-2
450492494848,-3,-1,-1,-3,-5,0,-3,-1
450492511159,0,-1,2,-4,2,5,1,4
450492511159,-3,7,-2,-3,-2,-1,2,-2
450492512746,1,-2,-1,-2,3,-4,-3,-4
450492512746,4,1,4,-1,-4,-1,-5,1
450492524809,1,-2,-1,3,2,-5,2,0
450492524809,0,-4,-2,-1,-1,-1,-2,-1
450492533812,2,-1,2,1,1,1,-5,-2
450492533812,-2,1,-1,-2,-2,1,-5,0
450492548760,5,-3,-2,-3,1,-6,-1,-7
450492548760,4,4,0,-2,-5,0,-1,-2
450492554784,-4,0,-4,1,-1,-1,-4,0
450492554784,1,-4,-2,-2,-2,-3,-2,0
450492570498,1,-1,-2,2,-5,1,-4,0
450492570498,-1,-5,1,5,2,-3,2,0
450492571216,-4,-9,-3,-4,1,-1,-2,-1
450492571216,-6,1,-2,-6,1,-6,-2,-3
450492592930,0,5,-1,-4,-5,-3,-3,-2
450492592930,3,-7,-4,-7,-2,0,-1,1
450492593690,1,0,1,0,-4,4,-2,-3
450492593690,1,-2,-2,-4,-4,-1,2,0
450492608718,2,-6,-2,-1,1,-2,0,-4
450492608718,-6,-1,-2,-5,-1,-3,-7,-5
450492614708,-4,-4,-4,-1,2,-8,-2,-4
450492614708,-2,0,-1,0,-3,0,-5,-4
450492630353,-2,2,0,-2,-4,-5,1,-3
450492630353,5,2,3,0,1,-1,3,-1
450492631161,3,0,-3,-7,-3,-2,-3,-1
450492631161,0,-4,1,0,-3,1,-1,-5
450492652869,-4,0,-5,-3,4,2,0,1
450492652869,7,7,5,2,0,2,2,-1
450492653662,3,0,2,-4,-3,-7,-4,-3
450492653662,0,-1,1,3,2,4,4,1
450492668750,-3,-1,1,-5,3,6,-2,-1
450492668750,-1,1,-2,-6,-1,3,-5,-3
450492674676,-2,4,0,0,-1,2,-3,0
450492674676,-2,2,0,-1,-2,2,-3,1
450492690350,3,0,-4,3,-4,-3,3,0
450492690350,-3,-4,-2,-2,1,-1,-1,0
450492691162,-2,-4,-2,2,0,1,3,-2
450492691162,-1,-1,-1,-4,-8,0,-3,-4
450492712865,-1,-4,-1,-1,-1,1,2,1
450492712865,-3,-1,-1,-3,-2,-5,-4,-3
450492713638,1,-4,-1,-2,-5,3,-1,-1
450492713638,2,-2,3,2,3,-1,0,2
450492728691,-2,0,-2,-2,0,-1,1,-1
450492728691,-4,4,1,2,-1,1,2,0
450492734659,-4,-2,-3,2,-3,-2,-2,2
450492734659,2,-4,-3,-1,4,0,-3,-6
450492750345,-2,-1,-4,-3,-2,3,-5,-2
450492750345,1,0,-7,-1,-1,-2,-4,-1
450492751135,2,0,-2,-3,4,-4,1,0
450492751135,1,2,-1,0,-4,-2,6,1
450492773007,0,2,-1,-1,-4,-2,-2,3
450492773007,1,1,-1,3,3,0,-3,-3
450492773641,1,1,-6,-4,-3,-1,-3,-2
450492773641,2,1,0,-3,-2,0,-5,-4
450492788782,-1,-1,3,-1,-1,0,-2,-2
450492788782,0,-3,-2,-1,0,-3,-3,5
450492794807,2,-2,5,0,-7,-3,-3,-3
450492794807,-4,-5,-6,-1,-7,-3,-3,4
450492810433,-4,-4,-2,-1,-6,1,5,1
450492810433,-3,-11,-2,0,-2,0,4,-2
450492811167,-2,-3,-2,-3,5,-5,2,1
450492811167,-2,-6,1,2,-1,-4,0,-2
450492832907,3,-2,3,-3,-1,-2,1,2
450492832907,2,2,0,3,3,6,0,1
450492833690,-2,4,-4,-3,6,-2,-2,3
450492833690,-3,-1,-1,-5,0,2,-8,0
450492848706,-3,2,1,-1,0,-1,-3,-2
450492848706,1,5,-2,-6,-1,-2,-4,-2
450492854753,-2,1,2,-2,0,2,0,2
450492854753,-1,0,-1,0,0,-3,1,-1
450492870437,3,-2,-4,1,0,-3,2,-3
450492870437,3,4,-1,-4,-3,-3,0,1
450492871228,0,1,-5,-4,-6,2,-1,-7
450492871228,0,1,-2,0,-6,-4,2,0
450492893004,3,-6,3,3,1,-2,-4,0
450492893004,-5,-11,-6,-2,-6,-6,3,0
450492893784,0,-10,-2,2,-1,-1,10,1
450492893784,-1,0,-4,-4,-3,-1,2,2
450492908796,-1,-6,-4,-3,-8,-6,-5,-3
450492908796,-1,-1,-1,-1,-6,-9,0,-1
450492914857,-3,-2,4,6,5,2,-6,-1
450492914857,-1,-3,-3,-4,1,-1,-1,-4
450492930524,-3,2,-1,4,4,7,1,-1
450492930524,-2,1,1,-4,6,5,-3,-5
450492931287,-2,0,-3,-2,-7,-3,0,3
450492931287,1,4,-2,1,1,-2,-3,2
450492954460,-6,1,-3,-5,-4,-3,-1,1
450492954460,0,7,3,0,-2,0,-1,-1
450492955240,-2,-1,-5,-7,-1,-3,-2,-6
450492955240,-5,-11,-1,-2,0,0,1,-5
450492968811,6,-4,-5,-1,-1,0,0,3
450492968811,-3,-2,2,0,-8,-5,0,1
450492974708,-5,2,1,-6,1,3,-5,1
450492974708,-4,0,1,0,-6,1,3,-4
450492990423,-3,2,0,-6,3,-2,-3,-4
450492990423,-1,-6,-4,-2,2,-1,-2,-3
450492991186,-1,-1,-8,-1,-2,0,-1,1
450492991186,0,-9,-3,-2,4,5,-5,-1
450493012871,1,-10,-4,1,0,-5,-1,0
450493012871,0,-4,-2,-1,-7,-5,-3,-1
450493013664,0,2,6,-4,5,1,3,-2
450493013664,2,15,4,5,3,4,1,-3
450493028734,-5,7,2,-2,-3,8,-1,-4
450493028734,1,7,-1,2,-4,-1,0,-2
450493034696,2,0,0,3,-5,0,7,5
450493034696,3,-3,4,-3,-4,-6,0,4
450493050393,-5,-3,4,2,4,-1,-2,-3
450493050393,-3,-9,3,5,12,-1,-1,-1
450493051186,1,-1,-2,3,2,-4,1,0
450493051186,0,-1,-8,-3,0,2,3,5
450493072899,-1,3,-3,-7,-3,0,-2,-5
450493072899,0,-1,-4,-3,0,8,-5,0
450493073690,1,-3,1,1,0,-4,-2,-3
450493073690,1,-6,2,6,5,-5,-3,-3
450493088722,1,-9,2,1,-2,-9,0,0
450493088722,1,-1,-1,-4,2,-5,-3,3
450493094671,-3,-3,2,1,0,-3,-1,-4
450493094671,1,8,0,0,-3,1,0,-3
450493109713,-1,4,-2,-4,3,5,-1,-7
450493109713,3,6,4,2,-3,5,2,-4
450493117222,-3,6,2,0,-3,4,-3,-3
450493117222,0,-8,-1,-2,1,-10,0,-4
450493132876,1,-4,-4,2,0,-7,7,2
450493132876,0,-5,-3,3,3,-2,4,6
450493133675,-1,-9,-3,0,2,-6,-2,1
450493133675,-4,2,4,-2,-4,-3,-3,-7
450493148713,-2,5,-2,-6,-4,1,-3,-2
450493148713,-2,11,0,-1,-4,1,-2,-1
450493154718,-1,0,-2,0,-1,-1,-4,-3
450493154718,2,-3,-1,1,-4,-1,0,3
450493169759,0,-6,0,2,-11,-6,-5,1
450493169759,-4,-12,-3,-5,-3,-6,-1,-3
450493177288,-3,-15,-1,-6,-1,-5,0,-1
450493177288,1,-3,-3,-3,6,2,-2,-2
450493192893,-4,8,4,0,0,9,1,3
450493192893,-1,8,-7,0,8,7,4,-7
450493193715,-1,12,-3,-5,1,9,-1,-3
450493193715,0,3,-1,0,-2,-2,-4,1
450493208741,-4,-7,-3,-1,-1,-6,1,-1
450493208741,-1,-15,3,-2,-1,-6,-3,0
450493214737,1,-3,-1,5,-1,-3,0,2
450493214737,0,5,2,-5,-8,-5,-6,-2
450493229752,3,3,-1,0,-4,0,-1,1
450493229752,-2,0,-1,-5,-3,3,-3,-3
450493237287,-4,-1,-6,-5,-6,-1,-3,-1
450493237287,-2,-5,1,0,-5,0,-2,0
450493252911,-1,-5,-1,-4,0,-3,2,-1
450493252911,-2,-1,-1,-2,-5,-6,5,-5
450493253697,1,-1,2,0,-7,-4,-4,-3
450493253697,0,-1,-2,-2,0,1,4,2
450493268816,6,6,1,-3,-2,2,-6,0
450493268816,-5,6,-3,-2,2,1,-4,3
450493274778,-4,1,0,-2,6,2,0,-4
450493274778,-4,-3,1,-2,6,-1,2,-4
450493289784,3,4,2,-2,3,-2,-1,-1
450493289784,1,-1,-2,-1,-11,-6,-6,0
450493297259,3,0,-3,-3,0,-2,-2,5
450493297259,-1,-9,0,-1,3,-2,-1,-4
450493312909,-2,1,-7,0,6,-7,6,1
450493312909,2,-1,1,1,-5,7,4,-3
450493313647,-1,2,-7,6,-5,1,1,-2
450493313647,-10,7,-7,4,-8,9,0,-5
450493328726,4,2,-4,0,-6,-8,0,4
450493328726,-4,-4,3,-3,0,-18,-4,0
450493334799,-4,-19,-2,-2,-1,-12,2,3
450493334799,-4,-16,1,2,-6,-1,3,-3
450493349742,-8,-17,2,3,0,2,-1,-4
450493349742,-4,-3,0,-7,4,4,-1,-4
450493357242,-2,24,-1,-1,4,3,-6,-3
450493357242,0,28,-8,-8,-1,9,-7,3
450493372921,-5,7,3,-4,-3,12,1,-3
450493372921,8,2,-2,-2,4,8,1,2
450493373663,-3,-9,9,-2,7,-8,4,4
450493373663,3,-21,5,-5,4,-15,2,2
450493388733,-4,1,1,2,-1,-11,0,-2
450493388733,3,4,-2,-2,1,2,-1,1
450493394754,2,11,-3,-3,-7,13,0,1
450493394754,11,16,-3,4,-6,4,3,1
450493409741,-3,-18,-6,2,-4,-6,1,0
450493409741,-8,-24,-3,2,-7,-11,1,2
450493417211,2,-27,2,-2,-7,-12,-2,-6
450493417211,-7,-13,1,2,1,-11,1,-2
450493432904,2,7,1,-3,-8,1,-6,-5
450493432904,-9,17,1,-2,-9,3,-10,-1
450493433672,-2,20,-1,-7,-2,12,-4,-2
450493433672,-4,16,-6,-6,2,10,-2,-4
450493448773,-3,14,-4,-8,7,14,-3,0
450493448773,-4,0,-1,-4,10,3,-6,-4
450493454742,3,-11,0,3,7,-7,-5,-2
450493454742,5,-16,-1,-2,7,-18,0,7
450493469787,2,-9,-2,-1,9,-6,5,-2
450493469787,2,0,-1,3,-4,-1,3,-3
450493477264,-5,-3,-4,-1,-13,-1,1,-4
450493477264,-5,-15,-10,2,-4,-3,-2,0
450493492953,-3,-12,-7,3,-3,-9,-1,1
450493492953,-8,-11,3,3,7,-7,5,-1
450493493729,-3,-3,4,0,5,-6,1,4
450493493729,-2,-4,6,-3,0,-6,-5,0
450493508756,-3,-12,3,-6,-3,-8,-5,6
450493508756,2,1,-2,2,-17,10,-2,1
450493514758,1,16,-2,7,-4,7,4,-4
450493514758,-3,18,5,-2,-11,19,-7,-8
450493529773,8,4,5,-9,12,1,0,1
450493529773,4,0,-1,-6,6,-1,-1,3
450493537240,2,-15,0,-2,6,-9,-2,-2
450493537240,0,-1,-7,-6,3,3,-1,2
450493552913,-5,-7,-5,-1,2,0,4,2
450493552913,2,3,-5,-1,4,3,0,-5
450493553729,-6,-11,-2,-5,-6,4,-1,-3
450493553729,-1,3,-4,-4,4,-4,4,-4
450493568767,-7,2,-4,1,-1,-4,-5,-4
450493568767,-2,-10,-1,-4,-5,-9,-2,3
450493575388,-2,-11,-3,5,-11,-8,3,-2
450493575388,-2,-15,5,2,-3,-5,1,1
450493589763,1,-8,-3,2,-16,-5,0,-6
450493589763,-4,-2,-4,-1,-3,-9,0,5
450493597309,0,11,-1,-1,-3,2,-3,-4
450493597309,-5,3,-4,-3,-2,10,-5,3
450493612869,-2,18,-3,-7,2,12,0,0
450493612869,-1,9,5,-3,9,4,-2,0
450493613689,1,6,-3,-9,6,-2,-5,-4
450493613689,-4,-7,-5,-4,1,2,-5,0
450493628722,1,4,2,0,-4,5,-3,0
450493628722,3,8,-3,-1,2,2,-6,4
450493634773,0,0,-5,-5,-5,-4,1,1
450493634773,0,-2,0,-2,-1,-5,-1,-2
450493649710,-1,-8,-3,2,-5,-8,-6,-2
450493649710,3,-9,-4,-1,-4,-7,3,-2
450493657210,-1,-15,2,-4,-1,-6,1,-2
450493657210,0,-15,-3,6,0,-6,5,5
450493672891,-1,-16,-3,3,-1,-6,-4,-5
450493672891,-7,-11,-5,-1,-3,-8,-2,-7
450493673672,1,-3,-1,1,11,2,1,9
450493673672,0,4,0,-4,2,-1,-2,-2
450493688737,0,6,2,-4,1,10,-4,-3
450493688737,-6,14,2,0,5,14,-4,-5
450493694747,-5,4,-1,-3,2,4,-5,-1
450493694747,0,15,3,1,-2,-1,-1,2
450493709818,-2,8,1,3,-2,-1,-4,-1
450493709818,1,-9,-1,2,-7,-7,-2,-2
450493717247,-2,-2,-1,4,-3,-6,-5,0
450493717247,-4,-12,-8,1,2,-3,3,-4
450493732915,0,-13,-6,-2,2,-3,3,-1
450493732915,-3,-9,-4,6,-3,4,-1,-5
450493733695,1,-1,2,-1,2,-1,-1,0
450493733695,0,1,0,1,-2,-1,1,1
450493748738,-3,1,0,0,4,1,5,2
450493748738,-1,-1,5,2,-4,-6,1,0
450493754768,-3,-7,0,1,-1,2,0,2
450493754768,2,7,5,-1,-1,-3,-1,-5
450493769744,2,4,2,-1,3,-2,3,-1
450493769744,2,5,-3,-5,2,-1,0,1
450493777285,-4,8,-5,-4,1,2,0,-1
450493777285,1,-2,-3,-9,1,-3,-2,-1
450493792941,-3,-7,-7,-9,3,2,-2,-1
450493792941,2,-1,-2,-2,6,-1,2,0
450493793707,3,-2,0,0,0,4,-4,1
450493793707,-1,0,-2,0,-4,-1,1,-4
450493808770,1,5,3,2,-5,-5,-3,-1
450493808770,-3,2,4,-1,-4,0,2,-1
450493814731,-4,0,2,2,-4,1,-4,-4
450493814731,1,2,3,3,-7,2,-2,-3
450493829794,-5,3,-2,4,-4,5,-3,-1
450493829794,-5,8,-3,-2,-5,-1,3,0
450493837255,2,0,-6,-3,-1,-6,3,0
450493837255,-3,-1,-8,1,9,0,2,2
450493852934,-2,-7,-4,0,5,-9,-2,-2
450493852934,1,-5,-4,-5,2,-4,-3,-3
450493853748,1,-6,-2,-9,5,-2,1,-3
450493853748,-3,-6,-2,-1,1,-1,-6,-6
450493868718,1,3,-3,-3,-2,1,-4,-1
450493868718,-2,-5,0,-7,-5,2,2,3
450493874784,-3,0,-5,-2,-10,-1,1,0
450493874784,4,-4,-1,2,-9,-2,2,0
450493891264,1,-5,-1,0,-8,-8,-2,1
450493891264,-2,-9,2,3,0,-3,2,-6
450493897264,-2,5,-1,3,5,-4,-1,-4
450493897264,-5,5,0,-3,7,5,0,1
450493912941,-6,5,1,-7,0,5,1,-3
450493912941,1,10,-1,-1,-2,6,0,-1
450493913714,0,11,-4,-1,2,3,2,-3
450493913714,-2,7,3,-1,-6,-4,-5,-1
450493928768,-3,-4,6,-5,-8,-7,1,-3
450493928768,-1,-12,-2,4,0,-8,0,2
450493934765,-3,-14,2,-2,-12,-4,3,0
450493934765,-1,-7,2,-2,-6,-1,2,0
450493949768,-1,-1,-4,0,-6,2,5,-3
450493949768,-1,-2,-6,-5,-9,1,-7,-3
450493957284,-1,-1,3,-2,-3,1,-1,-1
450493957284,-4,-12,-3,0,4,-2,2,-2
450493972885,1,-6,-3,-2,7,-5,-6,1
450493972885,-5,-3,0,0,3,-2,-5,1
450493973699,-1,-1,2,-5,2,1,-4,-2
450493973699,-4,6,-5,-8,-1,4,-4,-1
450493987243,-2,12,-1,-4,-1,1,-4,1
450493987243,2,5,1,0,0,2,-2,-5
450493994761,1,9,2,0,1,-1,-4,0
450493994761,1,3,1,-4,0,-3,3,1
450494009768,-3,-5,-2,1,4,4,-3,2
450494009768,-4,-3,-4,-2,1,2,0,1
450494017279,-2,-9,-8,-2,3,-5,3,-5
450494017279,3,-13,-3,-5,-3,-3,-3,-3
450494032266,-1,-5,-5,-3,-2,0,2,-2
450494032266,3,-5,-3,-2,-1,-2,-3,-4
450494040495,-2,0,-1,1,2,0,-4,-5
450494040495,-4,-3,0,-4,-3,-2,-3,3
450494047287,-1,-1,1,0,0,0,-1,-2
450494047287,4,4,6,0,-9,-2,-1,3
450494054785,-3,1,0,-1,-8,3,-2,2
450494054785,1,5,-5,1,5,-7,0,1
450494069788,5,-5,5,1,0,-10,4,-2
450494069788,-1,-7,-2,0,0,-5,4,1
450494077274,0,-14,0,4,-7,-8,-1,6
450494077274,3,0,3,-3,6,7,-2,-1
450494092263,-1,0,-1,-4,7,6,0,-3
450494092263,-3,13,2,-10,6,8,-2,-2
450494100486,-2,8,-1,-4,7,7,-4,-3
450494100486,-1,9,-3,2,-9,2,-5,-1
450494107280,-2,6,1,-4,-7,8,-1,1
450494107280,4,-5,4,2,-3,-3,-2,0
450494114739,1,-6,0,-1,-3,-10,0,-1
450494114739,-4,-14,1,5,2,-9,2,-3
450494129735,-1,-9,-4,-6,-5,-5,-3,2
450494129735,-2,0,-5,-8,3,-2,0,-1
450494137263,3,10,-8,-4,1,6,-6,1
450494137263,-1,6,-2,-1,-1,5,2,-3
450494152291,-4,-3,-3,-2,1,5,3,-1
450494152291,-1,-9,-6,1,-1,-7,-1,1
450494160442,1,-12,1,-2,-4,-9,1,0
450494160442,8,-5,4,-2,-6,-7,2,-3
450494175463,0,7,3,-1,-6,-4,-7,-2
450494175463,-2,6,1,-2,10,5,0,-4
450494176215,-5,6,0,-4,1,12,-4,0
450494176215,-1,12,-2,-1,-4,5,-11,-5
450494189782,1,5,-4,1,-4,3,-3,-2
450494189782,-1,0,-1,-1,-2,-3,4,4
450494197312,-1,-10,-2,-2,-5,-10,6,-2
450494197312,-7,-22,0,-8,7,-10,-1,-1
450494212297,-7,-18,-4,-3,1,-12,1,-5
450494212297,-3,-2,-5,-5,-7,-5,-4,1
450494220468,-1,14,-3,0,4,9,1,0
450494220468,2,12,-3,-2,-5,6,-2,0
450494235441,-2,6,2,-2,0,4,-4,-1
450494235441,-4,-2,2,2,-11,-1,-2,-1
450494236232,-8,-11,0,-4,0,-7,0,-3
450494236232,1,-8,-2,-8,-8,-8,0,-2
450494249791,-1,-6,1,0,-1,-5,2,-2
450494249791,-4,-5,-8,-5,-2,0,-1,-10
450494257289,4,0,-6,-1,-5,0,0,-2
450494257289,-1,-4,-4,0,-2,-3,0,1
450494272244,-1,0,-6,-2,-3,0,-5,1
450494272244,-3,-3,3,-1,1,-1,-1,-1
450494280453,4,-8,6,3,4,-8,4,-2
450494280453,0,-8,-4,2,3,-8,3,7
450494295475,-2,-7,0,3,-1,-8,3,4
450494295475,-4,-4,1,-2,-2,0,-1,4
450494296262,-3,13,1,5,-4,5,1,1
450494296262,-2,12,2,-4,-6,5,-6,-4
450494309713,-1,9,0,2,0,8,-2,-2
450494309713,4,4,-1,2,0,-2,1,2
450494317213,-1,-8,-7,-3,1,-8,-10,0
450494317213,-4,-7,1,0,4,-4,-1,-2
450494332275,3,-8,-2,-1,3,-1,5,2
450494332275,1,-13,-3,-4,-4,-4,0,-3
450494340488,-5,-6,-11,-6,-7,-2,-1,-3
450494340488,0,3,-3,6,4,2,4,3
450494355438,5,2,0,0,4,-3,-7,-4
450494355438,-4,-1,1,-4,-1,4,-7,-5
450494356161,3,2,4,4,4,3,2,1
450494356161,-1,-3,-5,-1,-1,2,3,1
450494369878,-6,0,2,0,-8,2,1,-2
450494369878,4,7,-3,0,-9,0,-1,-4
450494377361,-1,0,0,-6,-7,-2,0,-4
450494377361,-2,3,-1,2,2,2,-5,0
450494392375,-3,-1,-3,-1,-3,-2,-1,-1
450494392375,-1,-6,-2,5,2,-2,0,0
450494400574,3,-4,-5,-3,-1,-1,3,-1
450494400574,-5,-2,-2,-8,-2,-1,0,-3
450494415541,3,1,-3,-2,6,6,2,-3
450494415541,-1,-2,0,-4,-1,1,-2,0
450494416243,-4,1,1,-6,-1,2,-2,0
450494416243,0,-2,0,2,1,3,4,3
450494429838,-8,-5,-1,-8,-1,2,0,1
450494429838,0,-1,-3,1,-3,-3,1,0
450494437348,-1,0,2,5,3,1,1,-1
450494437348,-1,4,0,0,-6,-4,1,-1
450494452368,0,2,-4,2,-1,1,-3,2
450494452368,-3,-3,0,-1,-1,-2,-2,-4
450494460539,0,0,1,2,-3,1,2,4
450494460539,-3,1,-3,-1,-4,0,2,-3
450494483690,1,0,-3,-6,-4,-4,-2,0
450494483690,0,-6,-3,-3,2,0,5,-1
450494484487,1,-4,0,0,-2,-2,-3,1
450494484487,-2,0,-3,2,-1,-4,-3,2
450494489815,0,-11,-5,-6,11,-7,0,3
450494489815,-5,2,7,-7,2,10,-2,-2
450494497348,5,12,5,-1,-4,-2,-5,-2
450494497348,-3,4,-1,-1,-2,12,-2,-8
450494512372,-2,-7,0,6,4,1,-2,0
450494512372,4,8,-5,1,-15,-8,0,-4
450494520577,3,-16,3,0,6,1,2,0
450494520577,4,-2,-2,4,-20,-15,0,1
450494535526,-1,-9,-1,1,4,-2,0,-4
450494535526,1,-13,-4,-7,8,-11,-2,1
450494536276,-6,-9,-6,-3,-1,-1,0,-2
450494536276,-3,-10,-6,-5,6,6,-8,0
450494549878,2,15,2,-4,-9,2,-3,-6
450494549878,-5,26,-3,-4,10,5,-3,-2
450494557335,1,20,6,-6,-9,-7,-1,0
450494557335,-5,-25,-2,-5,1,-1,-2,2
450494572346,-3,-24,-1,1,-9,-8,3,3
450494572346,7,-5,1,1,3,-8,5,1
450494580573,-2,16,-2,-6,-1,6,1,-5
450494580573,-4,8,3,1,-2,2,-1,-8
450494596005,-5,8,-3,-1,-4,8,-1,-10
450494596005,2,-6,-4,0,6,4,0,6
450494596747,-2,-4,-5,3,4,3,-1,3
450494596747,-4,9,0,-4,3,3,5,1
450494609834,5,14,1,4,-7,2,2,4
450494609834,-7,-16,1,0,-2,-8,-4,0
450494617337,-3,-33,-2,4,-17,-10,4,0
450494617337,0,-21,-5,2,-9,-12,4,5
450494632344,-1,1,-4,3,-7,1,5,4
450494632344,6,24,3,2,5,3,1,1
450494640467,-3,23,3,-4,10,14,-5,-4
450494640467,-5,-15,-6,-8,16,1,-4,1
450494655461,-3,-10,-7,-6,1,-3,-2,-2
450494655461,3,-13,-1,1,-3,0,1,1
450494656217,0,-9,-3,0,-6,-5,4,0
450494656217,2,13,11,-4,-19,-9,2,-2
450494669762,3,-4,1,-2,-1,-15,-1,3
450494669762,-9,-8,3,-2,-2,-9,-7,-2
450494677271,-2,6,-2,4,-2,-5,-3,1
450494677271,0,15,0,-3,-4,10,-3,-1
450494692223,1,18,-3,-2,-9,9,5,-3
450494692223,-2,8,-4,1,-5,4,-1,0
450494700425,-5,-6,-2,-1,9,-2,-2,-5
450494700425,1,-7,-9,2,1,0,-6,-2
450494715436,-10,23,-2,-10,26,-8,-9,-4
450494715436,4,11,-6,1,-10,-14,2,0
450494716244,1,-3,-8,-11,2,6,-6,-2
450494716244,-4,-10,-6,-2,-12,1,2,2
450494729761,-5,-12,1,-5,-1,-1,-3,-9
450494729761,-8,-3,-3,-6,4,-4,5,-2
450494737232,6,0,-3,0,-8,-8,-2,-1
450494737232,-3,0,5,2,5,-3,6,-5
450494752382,6,-2,0,8,-11,2,-3,-1
450494752382,-2,-3,2,-2,-7,-2,1,0
450494760579,-7,-15,-5,-2,-7,-2,4,-3
450494760579,2,-10,0,-6,-4,1,-1,-3
450494775480,0,2,0,1,-2,-8,1,2
450494775480,0,3,0,-1,3,8,-6,3
450494776273,-1,12,-1,-1,4,-3,-1,-1
450494776273,2,5,-3,-1,6,-4,-9,0
450494789842,1,-9,-2,-3,-11,-2,-3,1
450494789842,-2,-15,-6,-7,-1,-1,-1,1
450494797343,-1,-7,1,-3,1,-7,-4,-3
450494797343,3,13,1,-2,8,-4,3,-2
450494812374,1,-2,-4,-1,1,1,0,-8
450494812374,-4,1,-2,3,4,2,-2,-4
450494820555,-2,-2,0,1,-10,-4,0,-3
450494820555,0,1,-2,0,-8,-7,-1,1
450494835485,-1,-5,-2,3,-3,2,1,4
450494835485,-1,-3,-1,5,-5,-1,0,-3
450494836277,-3,-4,0,-4,0,-4,-2,-1
450494836277,-5,-4,2,-4,-4,0,-4,-4
450494849834,0,1,-2,-4,-6,2,-4,-3
450494849834,2,8,0,-1,-4,6,-2,-2
450494857300,1,12,2,-3,-3,4,-2,-1
450494857300,2,5,1,1,16,2,0,-3
450494872378,-2,-8,-3,1,6,-3,-4,3
450494872378,-7,-8,-1,-6,-3,-10,-1,-3
450494880471,3,-5,2,-5,1,-6,3,-1
450494880471,1,-1,2,0,-1,-5,0,-2
450494895520,-1,2,-1,-3,-5,-2,1,-2
450494895520,-2,-1,1,1,-4,3,2,-4
450494896310,-6,-8,-4,1,3,0,0,3
450494896310,-2,0,-3,-2,-1,0,0,-2
450494909923,-1,-3,4,-3,-1,0,-3,-3
450494909923,-2,-2,-3,-4,-8,6,-5,-2
450494917342,3,-1,-1,-4,-9,-2,0,-1
450494917342,4,4,-1,0,-7,-2,2,2
450494932360,-2,-9,-4,-6,0,-9,-1,7
450494932360,-5,-9,-1,-2,2,0,-2,-5
450494940577,-2,7,-2,-2,1,1,-8,0
450494940577,-4,6,-2,-3,1,5,0,-2
450494955522,-1,0,-3,-1,-1,-1,0,-3
450494955522,2,-6,-4,-7,-9,-4,-2,-2
450494956262,-2,-5,2,3,4,0,0,-1
450494956262,-6,-10,-4,0,0,-3,-8,-3
450494969856,-6,-5,-1,-3,-5,0,0,-3
450494969856,-1,-2,2,4,-7,-5,1,1
450494977390,-3,1,-2,1,-6,2,0,1
450494977390,1,0,8,-2,-4,5,-2,-7
450494992305,3,10,2,-3,-1,3,3,-3
450494992305,0,9,-3,-1,6,1,-5,2
450495000537,0,8,0,-3,0,3,-1,0
450495000537,5,10,1,0,-4,2,4,6
450495014860,0,1,-3,4,-3,1,1,-1
450495014860,4,5,1,4,0,-4,3,2
450495023023,-3,-1,-4,1,2,-3,3,-4
450495023023,-3,-7,-7,-6,2,-8,-1,0
450495029819,-2,-11,-4,-1,-2,-1,-5,0
450495029819,-2,-1,1,-3,-6,-1,1,-1
450495037298,4,-6,-1,0,-5,-6,-2,5
450495037298,-5,-2,-3,0,-5,-2,0,1
450495052332,-2,-2,2,1,1,1,-4,-2
450495052332,-5,-13,2,-4,6,-1,-5,-5
450495060539,3,1,4,-2,3,-3,3,3
450495060539,0,6,1,-1,-2,-2,0,-5
450495074728,-1,4,3,-3,1,3,-1,2
450495074728,-2,4,-2,-4,-2,1,-4,-2
450495083037,-3,-5,-8,-2,4,3,-7,0
450495083037,-2,-5,0,-1,-1,0,-2,0
450495089797,-3,0,0,-5,-9,1,-1,-4
450495089797,1,-8,0,3,-1,-3,1,-2
450495097372,-2,-10,-5,-4,-9,-10,-1,-1
450495097372,1,0,-3,-4,-2,-5,0,-2
450495112349,-6,-8,-4,-8,3,-1,-6,-5
450495112349,1,-1,4,-1,-3,3,-1,-8
450495120566,-8,2,2,-5,-5,7,-6,-5
450495120566,4,3,-3,-6,-6,-2,0,2
450495134812,2,3,4,-7,-3,-5,-3,1
450495134812,-1,4,-3,-7,-3,-1,0,1
450495150495,-1,-6,1,-2,0,-4,-3,-1
450495150495,-3,-6,-3,4,5,3,-1,0
450495157915,-2,1,-5,1,-4,1,-1,-3
450495157915,4,4,-6,-3,6,4,-1,1
450495158683,-1,2,-5,-4,0,4,-2,-3
450495158683,-2,-5,-6,-3,-5,6,-1,-5
450495172249,0,-10,1,-4,2,-9,-2,1
450495172249,-2,-9,-3,-2,-7,-6,-1,0
450495180532,-2,-4,0,2,-3,-2,0,-1
450495180532,-3,-6,-2,-1,-6,-3,-2,1
450495194832,-3,1,1,-3,-5,-4,1,2
450495194832,-4,1,-2,-3,-4,-4,-1,-2
450495202971,-1,-2,1,-3,1,-6,1,4
450495202971,-6,4,-4,-1,8,-2,1,-6
450495217971,-1,2,3,-3,-2,3,1,-7
450495217971,0,1,0,0,-5,0,-4,2
450495218727,3,8,-7,-2,-5,-4,2,1
450495218727,0,-5,-4,-3,0,-4,-3,5
450495232253,-3,4,4,4,4,1,-1,-4
450495232253,-3,-1,2,1,4,3,-4,-3
450495240492,-4,-1,0,-3,1,-4,-5,-4
450495240492,-4,4,6,-2,-2,-2,-8,1
450495254812,0,6,1,-4,-8,-2,-3,-6
450495254812,-2,-2,-4,-2,-9,2,2,-2
450495263013,-2,-5,0,1,-6,1,-3,-7
450495263013,1,-8,1,-6,-7,-8,0,-3
450495278037,1,0,1,1,-4,-3,-2,1
450495278037,-1,-5,0,-1,1,0,-4,-2
450495278748,-1,-2,-3,0,3,5,0,-2
450495278748,2,5,-3,-5,0,1,1,-3
450495292238,4,3,-3,6,1,6,1,2
450495292238,-2,3,-2,-2,-2,0,2,1
450495300458,0,0,2,0,1,2,-4,-1
450495300458,-5,-5,1,-4,4,-4,0,-2
450495314898,-3,-5,1,0,1,-2,-1,-1
450495314898,-2,-3,-3,-5,-2,-3,-5,4
450495323010,-3,-6,1,-2,-2,-1,2,3
450495323010,2,-2,1,5,-2,3,2,1
450495337998,-4,-3,-5,-2,-3,-1,0,-3
450495337998,0,1,0,3,-1,0,1,-1
450495338797,1,-2,-1,-2,0,0,-1,-3
450495338797,0,2,2,0,3,0,-2,0
450495352318,4,-3,-5,-1,2,-1,3,4
450495352318,1,-1,-1,0,-1,4,-2,-1
450495360553,-1,0,-2,0,1,3,-5,3
450495360553,0,4,2,0,-2,-2,-1,1
450495374845,2,-1,0,-2,-1,2,-3,-3
450495374845,-2,0,1,-2,-4,-2,-2,-4
450495383041,-2,-2,3,-1,-4,-7,-2,-2
450495383041,-1,-5,5,3,-6,-2,0,-3
450495398014,-2,-8,-1,-2,0,-6,-4,4
450495398014,-1,-3,-3,-1,0,-6,0,3
450495398794,2,1,2,-5,-4,0,-2,-4
450495398794,2,6,-2,7,0,7,-3,-1
450495412419,1,4,-3,-4,1,2,-4,1
450495412419,3,-6,-2,-3,3,2,-5,-4
450495420588,0,3,0,4,-1,-2,-1,0
450495420588,-5,-4,0,-3,-4,-1,-6,-2
450495434814,-2,-7,-2,1,-3,-7,-2,2
450495434814,0,2,4,0,-2,-10,-1,-1
450495443032,2,0,-4,-1,-1,0,8,-2
450495443032,-5,-8,-5,-5,-3,-7,1,-1
450495458075,0,2,-2,3,-5,-3,-6,-4
450495458075,-2,-4,-1,-2,-4,-1,-2,-3
450495458802,-2,1,-1,-3,-8,-4,-4,0
450495458802,5,2,2,-2,0,-3,-5,-2
450495472410,-2,-2,-5,-6,0,4,-2,-5
450495472410,-1,-2,-2,-5,0,0,-2,3
450495480464,0,-8,-6,-4,0,-4,-1,0
450495480464,-2,6,0,-3,1,-2,-3,-4
450495494955,-3,3,-3,-3,5,2,-4,-2
450495494955,-1,7,0,1,12,2,0,-2
450495510559,-1,6,-4,2,-9,1,0,0
450495510559,0,-3,1,4,-6,0,-2,0
450495518039,3,-15,-4,-1,-3,-8,7,2
450495518039,0,-3,-1,0,0,3,4,-4
450495518857,-3,5,6,-1,3,-3,-9,-3
450495518857,-1,-6,-3,0,0,-3,1,-2
450495532402,-3,1,-5,-3,0,-4,3,-2
450495532402,2,-4,-2,7,2,0,0,3
450495540552,-4,-1,-1,-2,-4,6,1,-3
450495540552,-3,3,1,-5,-9,6,-3,-1
450495554806,-3,4,-1,1,1,0,-1,-3
450495554806,1,0,1,-2,-2,-3,0,-3
450495563016,2,-1,4,-1,4,5,3,-1
450495563016,-2,-3,-1,-1,-1,1,-2,4
450495577920,1,1,0,-1,1,-1,6,4
450495577920,-3,0,-2,-7,-4,-1,-2,-2
450495578717,-3,7,2,-1,2,-7,-7,-7
450495578717,-5,-6,-6,-3,0,3,-4,-2
450495592261,-6,-7,3,-5,-5,-4,-1,-6
450495592261,1,-10,0,4,-3,-5,-4,4
450495600523,-2,-15,-4,7,2,-4,4,6
450495600523,0,-9,-2,-3,-7,-8,1,1
450495614753,0,-1,4,3,-3,-1,-6,-6
450495614753,-2,7,-2,-1,-1,-5,2,1
450495622980,1,3,-4,-8,-4,2,-1,-1
450495622980,-1,-1,-2,-4,0,3,-1,1
450495637897,3,4,3,0,0,2,-4,6
450495637897,2,2,0,-4,1,0,0,-1
450495638717,2,-8,4,1,1,-4,-1,-2
450495638717,-4,-4,-1,0,2,-5,-2,1
450495652285,-1,-3,-1,-3,-1,-5,0,-4
450495652285,-4,-2,-1,-5,-6,-2,-2,-1
450495660474,3,-1,-3,-1,-3,0,-2,0
450495660474,-3,3,-6,-3,1,2,1,-2
450495674773,0,-2,-3,4,4,3,-3,-4
450495674773,0,0,2,-3,0,4,-6,-4
450495682982,-3,1,-3,-1,1,2,-1,-1
450495682982,2,4,3,0,2,-4,0,-1
450495697726,-8,2,-2,-4,-5,1,-4,-4
450495697726,-1,2,1,4,1,-4,0,-1
450495705466,3,-1,2,-2,-2,-2,1,-1
450495705466,1,1,-4,-4,-3,0,2,0
450495712259,-2,-2,-4,-2,2,0,3,-2
450495712259,-2,-6,-4,-6,-9,-8,-6,-1
450495720487,-5,-1,-4,2,-3,3,2,3
450495720487,1,-5,-1,1,-3,-7,-3,-4
450495734757,-3,-5,-2,-4,-5,-10,-3,0
450495734757,-3,-4,-2,-1,-1,1,1,-4
450495742947,-2,0,-3,-7,4,0,-3,-5
450495742947,3,1,0,1,2,-1,2,2
450495758064,3,0,-3,1,-3,3,-4,-3
450495758064,-3,6,-3,4,-5,0,-3,4
450495758804,-2,0,-2,-2,-4,-1,-6,1
450495758804,3,2,1,1,-1,1,-5,-2
450495772395,3,2,5,-1,-6,0,-6,5
450495772395,-2,0,-3,2,-1,-1,4,-2
450495780565,-3,1,-2,0,1,-3,-1,-4
450495780565,-5,0,0,-1,0,-4,3,2
450495794838,-2,0,1,-2,2,-3,1,0
450495794838,-1,-3,-2,-3,0,-3,-3,1
450495803034,1,-4,-8,-1,-3,-1,-1,-3
450495803034,1,-4,-3,0,1,-3,0,-1
450495818079,-4,-6,-2,-4,-2,-4,1,0
450495818079,-1,-3,-2,-5,-6,2,-3,-3
450495818883,-1,-4,1,1,-7,-4,-2,1
450495818883,-2,2,-2,-5,-8,2,-4,-5
450495832380,2,0,-3,3,-1,-3,4,1
450495832380,-4,-5,1,-2,0,-1,-5,0
450495840531,0,3,-3,2,-3,2,1,-2
450495840531,0,-2,1,1,2,1,0,3
450495863746,-5,7,3,-1,-2,1,-4,1
450495863746,1,-2,-3,1,2,-3,2,-1
450495864524,-4,-3,1,-2,2,-1,0,-2
450495864524,-1,0,-2,0,-7,-2,-2,2
450495878044,0,-7,-4,-1,1,3,0,0
450495878044,-1,-6,-5,-2,-2,-4,-2,-2
450495878803,2,-3,4,8,4,-4,-2,1
450495878803,0,-3,-3,-2,1,-2,-4,1
450495892393,-1,-7,1,-8,-4,1,2,-5
450495892393,-2,-1,1,-1,-6,-3,-4,-3
450495900630,-4,0,-2,1,2,2,2,1
450495900630,-1,-1,-2,-5,2,-5,-2,-5
450495923711,1,4,-2,3,5,-1,3,-4
450495923711,-2,2,0,0,2,-1,3,-6
450495924460,1,3,-4,0,-1,-3,-1,4
450495924460,7,3,9,5,6,-1,-1,1
450495937418,0,1,-3,-3,-11,-5,1,1
450495937418,3,0,-5,-3,1,1,-2,1
450495945655,1,1,2,-2,0,-2,2,-1
450495945655,-2,0,-2,1,-3,1,-1,1
450495952336,0,1,1,2,-3,4,-3,-3
450495952336,10,1,3,3,3,3,3,2
450495960573,0,-2,3,-2,-4,-2,-1,-5
450495960573,0,-2,-1,0,-5,-2,-4,2
450495983757,2,-4,3,0,3,0,2,1
450495983757,-5,-1,0,0,-2,4,-1,0
450495984559,0,1,-1,-3,-5,2,-1,2
450495984559,-2,-1,0,-3,-2,-3,-3,-4
450495997389,-1,-3,1,-2,2,1,-3,6
450495997389,-2,0,1,-4,-2,-3,1,-3
450496005566,-1,-1,0,0,4,0,2,0
450496005566,-1,-4,1,-3,0,0,1,-5
450496012361,-2,0,-4,1,0,0,-1,0
450496012361,0,-1,-4,0,7,-1,-3,1
450496020585,-2,-6,-1,1,1,0,2,-5
450496020585,-2,4,-2,-3,2,0,-2,-2
450496034895,-1,-2,-9,-1,0,1,0,-6
450496034895,0,0,-1,-4,-3,-6,-3,4
450496043088,-2,1,-2,1,0,3,0,-3
450496043088,1,1,-3,-5,0,-1,-1,-7
450496057369,-1,0,2,-3,-3,-5,-7,-3
450496057369,-1,-2,-1,-4,-6,0,-3,-3
450496065554,1,-1,0,0,3,-1,1,5
450496065554,0,-1,3,2,-1,-2,1,1
450496079804,-3,2,-2,-4,-2,-6,-2,-2
450496079804,-3,-5,-1,2,-4,1,3,0
450496088888,-2,3,3,-3,-7,-5,-3,-4
450496088888,-3,0,0,-1,2,2,3,1
450496094898,-1,0,0,-1,3,-3,0,1
450496094898,-3,-5,-3,0,-1,2,-1,-2
450496103881,1,-1,-3,1,-1,0,0,-2
450496103881,-3,1,-2,2,-2,0,3,-2
450496117339,-1,2,3,-1,-2,-3,-3,1
450496117339,2,3,-1,-3,0,-3,-3,-4
450496126336,-2,-5,-2,-4,-1,-4,-4,-2
450496126336,-2,-7,-1,0,4,-4,2,0
450496139885,-6,4,2,-4,-2,0,-2,4
450496139885,-5,-4,-2,-5,-3,-1,6,-3
450496148872,-1,-2,0,-3,-4,0,-8,1
450496148872,-2,2,-3,-4,-3,0,-2,-2
450496154859,3,-3,-3,-3,-10,-2,1,-6
450496154859,-4,-3,3,3,5,-2,-6,-1
450496171279,0,-3,-2,-9,-6,-1,-3,-3
450496171279,-1,-2,-4,-2,-5,-3,-3,-3
450496177349,-2,-4,0,0,1,-2,-1,-2
450496177349,4,3,-2,3,-3,-1,-3,0
450496186317,-2,-5,-2,-1,0,-2,-4,-3
450496186317,-3,-3,-3,1,-1,-2,-6,-3
450496208616,-4,-3,1,-1,2,3,-1,-4
450496208616,1,-1,1,-4,0,-1,2,-3
450496210238,0,0,-2,0,5,2,-3,-4
450496210238,0,0,1,2,-1,-3,-2,2
450496214797,3,1,-7,0,2,-1,-2,-2
450496214797,-1,0,-2,1,-1,-2,-2,-2
450496223767,-1,-2,-1,0,-2,1,-2,4
450496223767,-5,-1,-5,-2,-1,2,-1,-2
450496246176,-2,-1,-3,-2,-3,-3,-2,-2
450496246176,-5,-3,0,0,1,-3,3,-4
450496247790,-4,2,2,-2,-1,-1,4,-4
450496247790,-1,3,0,2,0,0,-1,1
450496259763,0,-5,1,1,-6,-1,-1,2
450496259763,-1,-4,1,0,2,-4,1,1
450496268790,-5,-5,-4,-3,-1,-5,2,-1
450496268790,-1,-3,-2,-3,-4,-5,-1,-1
450496274772,-2,2,-3,-1,6,-2,4,-3
450496274772,0,-2,1,0,-6,2,-3,2
450496283788,3,2,-3,-4,0,-3,-2,-2
450496283788,2,-4,1,-2,-1,-2,-4,4
450496297273,-3,-1,-3,-2,0,-1,-3,1
450496297273,-4,2,-2,-5,-7,-5,1,-5
450496306285,1,4,2,0,0,0,0,-5
450496306285,2,-6,-4,-1,-3,-3,-2,2
450496319930,5,2,2,4,-1,3,1,1
450496319930,-2,-4,-2,-3,2,-2,1,0
450496328812,-2,-7,-3,0,-3,-2,0,1
450496328812,-3,-4,0,2,10,-4,3,-1
450496343768,5,-1,1,-3,0,2,-1,-2
450496343768,0,8,-2,-1,-3,5,-1,-2
450496345258,-5,-4,-6,2,1,6,1,-1
450496345258,3,-9,-3,-3,-5,0,-6,-1
450496357359,0,-8,5,-4,-5,-1,-2,1
450496357359,3,17,6,-1,0,-3,-4,-4
450496366333,1,29,8,0,-4,-2,-10,-1
450496366333,-2,11,3,-5,2,6,-4,-3
450496379922,-6,-1,-9,0,-5,-6,4,1
450496379922,3,-11,-6,-1,2,-4,1,5
450496388910,-1,-6,-3,-1,-1,-9,1,-3
450496388910,-1,2,-1,-7,-6,-1,2,3
450496394918,-1,1,-4,2,4,0,1,-1
450496394918,-1,-9,-2,0,-3,1,-1,2
450496403850,3,-6,-1,-3,-5,-3,-2,-2
450496403850,-4,-4,-4,-6,-5,4,-2,-3
450496417323,0,5,10,4,2,2,-9,-5
450496417323,-5,-2,2,-2,-7,-5,-3,-3
450496426478,0,-22,3,-3,-2,-3,-3,4
450496426478,1,-15,-5,-1,-2,-10,-3,3
450496439862,4,-3,-1,-2,1,3,-2,2
450496439862,4,8,-2,-5,6,0,3,0
450496448936,4,8,-3,1,2,5,5,2
450496448936,1,6,-2,1,2,3,4,0
450496454862,-2,-3,-6,-8,-2,-4,1,3
450496454862,1,0,-2,-3,-2,-6,-1,0
450496463875,-3,4,1,1,-4,-1,1,-3
450496463875,-6,0,3,0,-6,1,-2,-1
450496477413,-3,-5,0,0,-7,-4,-3,-3
450496477413,-1,-4,0,6,-6,1,-6,-6
450496486373,-8,-8,-2,8,6,-2,-5,-5
450496486373,-3,-2,23,104,40,-1,-14,-10
450496499894,-3,1,-7,2,-6,6,-1,-6
450496499894,-6,-1,-13,-29,-12,4,2,1
450496508922,0,-5,-14,-53,-28,-8,5,3
450496508922,8,-5,-17,-77,-26,7,10,1
450496514925,0,3,-3,-14,7,-2,2,3
450496514925,5,0,1,-10,9,9,-1,-1
450496523869,-4,7,3,13,10,-3,-1,1
450496523869,2,6,-3,5,-12,0,6,-4
450496537332,2,-4,1,11,-3,-5,-1,4
450496537332,-2,-6,-4,-12,-10,2,0,0
450496553862,-8,2,1,2,6,1,-5,-4
450496553862,-7,-6,2,-9,-2,-8,-2,-3
450496559766,-4,-19,-1,-6,0,-13,-3,-3
450496559766,-2,-7,0,21,2,0,2,1
450496568789,0,-3,3,19,-2,3,1,-2
450496568789,-2,3,-5,-16,-2,10,-1,-3
450496574771,-4,2,-5,-12,-3,-1,-4,-3
450496574771,-2,-3,-2,6,6,-1,-6,-1
450496583811,-2,-5,-3,0,2,-1,-1,-1
450496583811,3,11,-1,-12,-1,-2,-1,5
450496597269,1,11,7,15,0,-4,-2,-3
450496597269,-1,-3,-1,10,-2,-3,-2,2
450496606289,6,-1,-6,-12,-6,3,-4,2
450496606289,1,-6,-2,6,4,3,3,-3
450496619801,-1,-2,-6,13,5,4,-3,0
450496619801,-4,5,-1,-14,1,-4,-1,-7
450496628799,2,-10,-7,-6,-8,-3,0,-2
450496628799,-3,-2,0,7,-7,-8,-1,-1
450496634766,-5,-2,0,-5,-9,-8,1,-5
450496634766,3,-4,1,11,2,-2,-1,-3
450496643799,2,3,1,24,3,2,-4,1
450496643799,-2,3,1,31,0,-2,-5,2
450496657339,4,5,-1,17,3,7,2,-1
450496657339,-4,2,-3,96,-1,3,1,-4
450496666290,-1,-2,-3,-67,1,0,-5,-4
450496666290,-3,-6,-6,-93,2,-10,-6,-4
450496679836,-3,-2,-2,-90,-1,-5,0,5
450496679836,0,-5,-2,44,-1,-6,0,2
450496688826,-8,-6,-5,-41,0,0,-3,0
450496688826,-1,-10,0,-44,-6,-1,4,1
450496694870,0,0,1,67,0,2,-3,2
450496694870,-2,4,3,29,-4,3,-5,-1
450496703794,-3,1,5,-23,-5,-4,-2,1
450496703794,4,8,-4,91,-7,4,-1,3
450496717304,3,2,-3,62,-8,-5,0,0
450496717304,-4,2,0,-78,-3,0,-2,-2
450496726284,0,-1,0,28,5,0,-4,-1
450496726284,-2,-1,-4,37,4,2,2,-1
450496739905,-3,-5,-2,-55,2,1,-3,1
450496739905,-1,4,-5,-56,-4,-4,-7,-4
450496748786,0,5,-1,51,-1,-2,5,1
450496748786,1,-3,3,27,-6,-1,-3,-5
450496754936,-1,-6,-4,-23,-7,-1,-6,-2
450496754936,-3,-15,-4,14,-4,-6,-1,0
450496763909,-1,-5,1,43,-6,-4,0,-4
450496763909,0,-2,2,-29,-3,-4,0,2
450496777444,2,0,2,-19,2,5,2,-1
450496777444,-4,-5,2,9,3,4,3,7
450496786414,1,3,-2,2,2,2,1,-1
450496786414,-2,4,-6,-11,4,-1,2,2
450496800576,-4,0,-2,21,-2,0,1,-5
450496800576,1,4,0,-16,-2,-3,0,-3
450496807320,0,6,-1,-8,-2,3,-3,-1
450496807320,0,-8,-1,-8,0,-4,-5,-2
450496814884,3,2,3,21,-1,3,2,-1
450496814884,-5,-9,-3,-14,0,-2,-7,-5
450496823871,-1,-5,-1,22,-1,1,-2,-4
450496823871,-4,-1,-2,11,2,-3,4,-5
450496837429,-1,-2,-2,-6,-4,-3,-4,-1
450496837429,1,2,-2,-14,-1,-1,-3,-4
450496846317,3,2,1,5,-2,0,1,2
450496846317,0,4,1,-44,-4,2,-4,-6
450496860980,-6,5,-1,-6,2,1,-2,-2
450496860980,2,11,6,-2,-4,0,2,3
450496867355,-3,4,1,-9,3,-2,-2,7
450496867355,-6,-1,-4,1,-7,-4,-6,0
450496874918,-2,-4,0,26,2,-2,3,3
450496874918,0,-2,-1,4,-1,0,-5,-4
450496883817,-2,-6,-6,-14,-6,-1,-5,-7
450496883817,-6,-5,0,9,0,-3,1,0
450496897393,-4,-5,-6,-7,-1,-2,-3,-1
450496897393,-1,-3,0,-30,-2,-6,0,0
450496906405,2,-9,-5,-3,-2,-1,1,0
450496906405,-3,4,-2,13,-3,1,-2,1
450496920623,1,0,-1,-18,-3,-2,1,-1
450496920623,1,1,-2,1,-1,-3,-1,0
450496927383,1,2,-1,40,-1,-3,-3,-2
450496927383,-1,-4,-1,-3,-2,2,-6,-2
450496934951,0,-5,3,-7,-4,-3,-2,-3
450496934951,-1,-1,-5,-12,-5,-3,0,4
450496943882,-1,-1,3,-10,-1,-1,0,-3
450496943882,1,2,3,-24,2,-1,1,-1
450496957379,-2,-1,2,-7,0,0,2,-1
450496957379,-5,-2,-1,14,-3,1,2,-1
450496966401,-5,-7,-4,-6,-1,-1,-1,1
450496966401,1,3,0,-3,-1,4,0,-2
450496980537,-4,-1,-1,19,-1,-3,-2,1
450496980537,-3,0,-3,1,3,0,-6,0
450496987382,-1,-1,-2,-7,-2,-4,2,1
450496987382,2,-6,-1,16,-8,0,0,1
450497003772,-1,-7,0,-2,-3,0,0,2
450497003772,-1,2,-3,-9,-3,0,1,-2
450497005312,-4,3,-1,-3,0,3,-3,1
450497005312,0,-1,-3,1,0,0,4,0
450497017418,3,2,-3,-3,1,-5,-4,-8
450497017418,-2,-3,-5,3,-3,-3,1,1
450497026335,2,-2,3,8,2,1,1,-1
450497026335,2,1,0,-3,-4,-3,-1,-6
450497040543,-3,1,2,0,-4,-6,-3,-2
450497040543,1,-3,3,4,-5,-5,0,-2
450497047411,3,0,-1,-4,1,0,5,-1
450497047411,-2,-6,-2,39,1,-2,0,3
450497063738,4,-1,5,3,-2,2,3,4
450497063738,1,1,1,6,4,7,-1,0
450497065312,-1,4,0,-3,-3,-2,2,5
450497065312,1,2,-4,-8,-2,-2,-1,-2
450497077382,-4,0,-4,-39,-6,2,1,-1
450497077382,3,0,5,4,1,3,1,-2
450497086413,-2,-1,-3,-1,-2,0,-5,-3
450497086413,-4,-1,1,-8,2,1,-2,2
450497100625,5,-1,-1,11,-5,0,-2,2
450497100625,-1,2,2,1,0,-3,1,-4
450497107371,2,2,1,3,-3,-2,-4,-1
450497107371,-2,-1,-4,-3,-4,-5,3,0
450497123772,-2,2,-3,4,1,-4,-2,-3
450497123772,1,-3,-3,1,0,3,-5,-1
450497125332,5,2,2,25,-2,0,-1,-1
450497125332,1,0,3,-4,-1,0,-4,-1
450497137412,1,1,-3,12,-3,1,-2,0
450497137412,0,4,1,6,-1,-8,-2,-1
450497146386,0,0,0,-3,2,1,4,-5
450497146386,0,-1,0,17,1,-1,0,1
450497160596,1,-1,-2,9,4,1,-3,-5
450497160596,-3,-2,-2,1,1,7,3,2
450497167357,2,-1,1,-26,-1,0,-3,-5
450497167357,5,1,2,-9,5,0,2,1
450497183757,1,-3,-3,14,0,-3,-1,-2
450497183757,-2,-2,-3,-4,-5,-2,-2,-1
450497185311,-4,-5,0,2,-1,-3,-5,-2
450497185311,-1,3,-4,48,1,1,5,-5
450497197332,-4,3,-1,4,-2,-2,-3,-2
450497197332,2,2,3,-12,0,-3,-2,3
450497206437,-5,-4,-3,1,-4,-2,-1,1
450497206437,4,-6,0,-21,-6,-4,-4,-5
450497220580,-5,-5,-3,-17,1,3,-6,0
450497220580,-4,-6,-1,1,-2,-6,3,-1
450497227413,3,2,0,65,-4,-2,-4,0
450497227413,-10,1,1,-33,2,4,1,0
450497243731,-1,1,3,86,-7,2,0,-3
450497243731,-1,1,-4,15,-1,4,-5,-1
450497245378,1,1,0,-98,1,-1,-3,-2
450497245378,3,0,-1,20,1,-6,-3,0
450497257393,0,0,-1,22,-1,0,3,-1
450497257393,-2,-1,0,-88,-7,-3,0,-1
450497266410,-4,-1,-1,-45,-2,-6,-4,1
450497266410,1,3,-2,31,-6,-1,-2,1
450497288714,0,-4,-1,-67,2,0,-3,5
450497288714,3,-3,0,-40,-6,-3,0,1
450497290305,0,-2,-3,53,0,-2,-2,-4
450497290305,-4,-2,1,-10,-2,2,-2,-3
450497303691,-3,-1,-1,-64,-1,-5,-1,-3
450497303691,1,1,-6,46,1,-9,-6,-1
450497305333,3,-4,2,36,-7,2,-5,3
450497305333,3,2,-2,-54,-2,2,-3,-2
450497317353,-6,-3,-1,-24,-4,2,2,-4
450497317353,0,4,0,52,6,-2,-1,1
450497326366,-1,0,-2,-24,1,-4,2,2
450497326366,-2,2,-1,-33,1,-7,-5,-3
450497340523,4,0,-1,30,-5,-2,-2,-3
450497340523,-6,-3,0,15,-1,-4,2,-5
450497347392,-3,-2,-3,-29,3,-4,4,-4
450497347392,1,1,2,11,-1,0,-1,0
450497363770,-2,-1,-2,14,-6,-4,0,-3
450497363770,0,-1,-1,-23,-2,2,-1,-3
450497365283,-3,0,1,-12,0,4,1,1
450497365283,-1,-2,1,17,2,-2,0,2
450497377401,1,0,-1,-18,2,-3,2,0
450497377401,-4,-3,1,-14,-3,-4,-2,-4
450497386383,-3,4,-3,16,0,-4,4,4
450497386383,-3,-8,-2,0,-4,0,1,-2
450497400614,0,1,-4,-13,0,-1,-2,-4
450497400614,-2,-2,-3,11,1,0,-3,0
450497407422,-1,1,-1,15,-3,3,4,-4
450497407422,0,2,-3,-16,0,1,-3,-1
450497423821,0,-4,-1,-7,-3,-3,-4,1
450497423821,-4,-1,-1,14,-2,-1,2,-6
450497425356,5,-7,5,-8,-2,0,1,1
450497425356,1,6,0,-11,0,-14,2,-3
450497437432,-1,-2,-3,8,4,5,-3,1
450497437432,-2,-2,-2,0,1,2,-4,3
450497446403,-1,-4,0,-9,-2,-4,-5,-4
450497446403,-1,3,-4,5,-6,-2,-4,1
450497460595,-1,-2,2,3,-3,-1,1,2
450497460595,4,-5,3,-2,5,-1,4,6
450497467390,-1,-13,2,-10,-3,-3,-6,-2
450497467390,0,-1,4,3,2,1,-2,1
450497483792,0,6,-3,-1,1,4,2,-3
450497483792,-3,3,-2,-9,-3,5,-1,-3
450497485315,2,6,-5,9,-2,2,-5,-3
450497485315,-3,-8,1,0,-3,-1,0,-3
450497497414,2,-5,-3,-7,1,3,-6,-1
450497497414,1,0,-1,0,-2,-1,0,2
450497506336,-2,5,-5,2,-1,0,2,2
450497506336,-2,-8,-7,-6,1,1,2,3
450497520601,-3,1,1,-1,0,-8,5,-2
450497520601,3,-2,0,5,-2,-2,1,-1
450497527446,-1,0,-6,-2,-3,-1,-1,4
450497527446,-1,-5,-3,-10,-2,-4,1,-1
450497543770,-4,2,8,3,0,-4,-2,-3
450497543770,0,-2,-2,2,-2,-2,-4,-4
450497545296,2,1,-4,-5,1,-3,-4,-6
450497545296,1,-2,-5,-2,-1,-2,-1,1
450497557430,0,-3,-5,-3,0,1,-1,-3
450497557430,-3,1,2,-1,-3,-2,-2,0
450497566440,0,-1,1,-2,1,-2,-3,-3
450497566440,-3,-1,-3,0,-7,0,-1,-1
450497580585,-2,1,-1,-3,-1,2,-3,3
450497580585,0,-4,-2,-4,-4,3,-4,-3
450497587382,-6,2,-2,-2,0,2,-2,-6
450497587382,1,1,-1,3,5,4,-1,3
450497603736,-3,1,-1,-4,-5,-5,-1,-2
450497603736,-1,-3,-3,-3,0,-1,-2,-2
450497605330,-2,-5,2,-4,-1,-3,1,1
450497605330,-2,1,2,-1,-3,-2,-3,-3
450497626293,2,-1,-3,-1,-2,1,3,1
450497626293,1,1,-6,0,-1,0,-1,2
450497627800,0,-6,-1,0,1,-2,1,0
450497627800,-2,-5,0,-1,1,3,0,-1
450497640614,0,-4,-1,-2,-4,-1,-3,-1
450497640614,-1,4,-1,-4,0,-1,0,-4
450497647410,2,0,0,-2,-4,-4,-3,-2
450497647410,2,-3,-1,-2,-3,0,-2,-3
450497663757,0,3,-1,3,0,-7,5,1
450497663757,-5,-5,0,-3,-6,-1,0,-3
450497665327,-1,4,-2,-3,-4,-7,1,1
450497665327,-2,-3,-2,-3,-2,7,-2,-4
450497677388,4,-3,-1,-4,-5,-6,0,2
450497677388,-1,-2,-4,1,0,0,-2,-1
450497686360,0,2,0,-1,-6,4,-5,1
450497686360,7,0,-3,-3,2,-7,-1,0
450497700632,-6,-6,-4,-4,2,3,-3,-4
450497700632,-1,-1,2,-1,-1,-4,-1,-3
450497707412,-1,-1,-3,1,1,3,0,4
450497707412,-1,1,-1,0,0,-1,0,3
450497723736,-3,1,0,-1,-1,0,-1,1
450497723736,-1,6,1,1,-2,0,5,-1
450497725408,-8,-4,-4,6,4,2,4,1
450497725408,-3,-3,2,-2,-1,-6,-1,-2
450497737441,1,-4,-3,-5,2,-1,-3,-1
450497737441,1,-1,-7,4,2,-2,-1,1
450497746389,2,-3,0,0,-2,-5,0,-1
450497746389,-3,0,-4,-4,-7,0,-2,-1
450497760692,0,0,-1,4,-2,-1,2,-2
450497760692,0,-1,3,0,-3,-2,-4,1
450497767436,0,-3,-2,0,2,7,0,-2
450497767436,3,0,-3,0,-2,-1,-2,2
450497783765,3,3,2,0,1,2,-1,-1
450497783765,-1,3,-2,-5,-2,-1,2,1
450497785383,-1,-2,-4,3,-2,-4,-2,2
450497785383,-4,2,2,-2,0,-4,-1,-5
450497797413,-1,-1,0,-5,-2,-3,-1,-6
450497797413,-1,-5,-3,2,3,1,-2,1
450497806360,2,1,4,1,1,1,-1,1
450497806360,0,4,-2,0,0,-2,4,-3
450497820584,-2,0,-3,-1,-5,0,-2,0
450497820584,1,-9,-3,-1,-7,-5,3,-2
450497827384,-1,-3,-1,-2,0,-3,-1,-5
450497827384,1,-2,1,-3,5,0,-3,-3
450497843126,-2,5,2,4,-1,-1,0,0
450497843126,-2,3,4,2,1,5,-2,-3
450497849912,-3,1,0,0,0,4,1,-1
450497849912,-2,-4,0,1,0,-3,-3,4
450497857316,-1,0,0,1,1,-5,-2,2
450497857316,1,0,2,0,7,3,1,0
450497866369,2,0,-3,2,-1,-6,-4,-5
450497866369,3,5,6,6,4,0,-3,0
450497880618,-2,-5,-4,-4,2,2,0,-4
450497880618,0,1,-2,0,0,-4,-7,1
450497887417,-3,2,3,-2,-4,-6,-1,1
450497887417,1,-5,-5,-2,-3,-3,3,1
450497903119,-2,-1,-2,-4,-7,-2,0,6
450497903119,-2,0,-2,-4,-11,1,1,2
450497909928,1,3,-2,-1,0,-4,3,-4
450497909928,-3,2,5,3,0,1,1,-3
450497926370,1,-1,-1,1,2,-1,-4,2
450497926370,-1,-4,2,-3,2,-3,-2,1
450497927779,3,-6,1,-4,1,-4,0,1
450497927779,-1,0,-3,-2,-1,-3,-1,-2
450497940533,-1,-4,0,-5,2,0,3,-5
450497940533,0,3,-4,-4,3,1,0,-2
450497947329,-4,0,-3,-3,1,0,-1,-3
450497947329,-3,-2,-5,-1,-7,-3,-5,-1
450497963030,-2,-1,5,-3,-3,0,-1,1
450497963030,2,-2,-3,-5,-5,-10,-1,-1
450497969839,-2,-1,3,-2,-5,-1,0,2
450497969839,-1,-1,-2,-4,-6,3,1,-2
450497986659,-4,1,1,-2,-5,-2,-4,-3
450497986659,-1,2,-1,2,-2,-3,-2,0
450497988262,1,-2,2,0,-3,-1,0,0
450497988262,-4,2,4,-2,0,3,0,4
450498000525,0,4,-7,-2,0,1,-5,-3
450498000525,-1,1,0,3,1,-3,1,-7
450498007328,1,2,-3,3,3,0,-3,4
450498007328,-2,-3,-4,-3,-1,-2,-6,-5
450498023126,-2,-4,1,-1,-5,-1,-1,0
450498023126,-3,-3,-6,-7,-1,2,1,2
450498029833,0,-1,0,-3,-5,1,-1,-4
450498029833,-4,-5,2,5,4,-5,-9,-4
450498046273,-2,-3,1,9,6,0,0,-4
450498046273,4,0,-1,-8,-3,4,1,2
450498047833,1,4,-8,-9,-5,0,-6,-1
450498047833,1,0,-4,-8,-13,8,3,-1
450498059943,-1,-6,-5,-3,-7,-8,-2,1
450498059943,0,-9,-1,3,-6,-13,-1,2
450498068960,4,-7,2,-1,3,-5,-1,5
450498068960,1,2,-1,0,-2,0,-1,-2
450498083090,-1,14,-2,2,2,3,-6,-4
450498083090,-3,10,2,-1,1,-3,-4,-5
450498089866,-6,-5,-3,-4,2,-2,0,-2
450498089866,0,-10,-1,-2,2,1,3,1
450498106312,2,-10,-8,-2,-2,-9,4,-1
450498106312,-2,-6,-4,-1,-1,-5,-3,-6
450498107903,-5,6,-7,-1,-2,-1,-3,-6
450498107903,-5,0,0,-4,1,3,-4,-3
450498120609,0,0,1,-1,4,-2,-4,-2
450498120609,2,-7,-1,4,-1,1,2,4
450498127384,-4,-1,0,3,1,-7,-1,-1
450498127384,-6,2,-1,-1,-5,-2,-1,-2
450498143087,-4,5,-1,-1,2,4,-2,1
450498143087,-2,8,5,-4,-7,6,-3,-3
450498149919,3,3,4,1,-1,8,3,2
450498149919,-3,0,-6,6,0,1,1,4
450498166267,2,-5,-1,-4,-1,-2,1,0
450498166267,-3,-7,2,2,-2,-3,-3,-4
450498167867,0,-10,-1,0,-6,0,2,-3
450498167867,2,-1,-3,-1,0,-7,6,-2
450498180543,-2,0,2,2,1,0,-2,0
450498180543,-2,4,-1,0,-1,-1,-3,0
450498187468,1,1,0,-2,4,-2,2,-2
450498187468,1,0,-4,3,-1,0,-1,0
450498203132,-3,-4,-2,-4,-2,-6,3,-4
450498203132,4,-8,-2,-2,-3,-4,-3,-1
450498209941,-3,-8,-2,7,6,1,1,-1
450498209941,-2,-2,-2,-3,6,-1,4,0
450498226263,-1,0,0,-10,-5,5,-1,0
450498226263,-3,10,-3,-1,3,3,-1,1
450498227814,-1,5,1,-1,0,-1,-4,2
450498227814,1,9,3,2,-5,-2,-3,0
450498239851,2,2,0,-1,-5,2,0,1
450498239851,-3,-1,-2,-3,-2,-3,0,-2
450498248847,-5,-5,0,-6,-7,-2,1,-4
450498248847,-5,-7,4,0,4,-1,2,-1
450498263058,-1,0,0,-1,3,0,-3,-3
450498263058,-2,1,-2,-1,-1,3,-3,-3
450498269822,-1,2,-3,-4,-4,-1,-8,-2
450498269822,-4,-10,-4,-5,-8,-3,-2,7
450498286229,-1,-7,-1,-2,-1,-2,7,-2
450498286229,-4,-1,3,3,0,2,2,-3
450498287823,-4,6,2,4,2,-2,-1,-3
450498287823,2,0,-4,-2,0,-7,1,0
450498299877,2,0,3,-1,-3,2,-2,-2
450498299877,1,2,-1,-4,0,-1,0,-2
450498308824,-1,6,-4,1,1,2,4,0
450498308824,-1,-4,0,-8,-7,0,0,-2
450498323058,3,-9,-1,4,-3,-3,-4,4
450498323058,1,-9,0,-5,-10,-1,0,1
450498329902,-5,-1,-3,-5,-2,4,-9,-1
450498329902,0,20,-4,-2,1,-7,-6,2
450498346304,-2,9,-6,0,-2,-15,-4,-1
450498346304,-2,-10,0,-1,2,-5,0,2
450498347916,2,-21,-2,-2,-1,0,2,2
450498347916,-3,-16,-1,-5,3,1,-3,-5
450498359873,-3,-3,-2,-3,0,1,-1,-4
450498359873,-2,8,-9,-5,5,1,-2,-6
450498368934,1,10,0,1,-2,-1,-3,2
450498368934,2,4,-1,-5,-4,9,-6,-1
450498383172,3,7,4,0,-6,6,-2,-3
450498383172,0,-4,5,-1,-5,5,-1,0
450498389963,0,2,3,-1,3,-7,-1,0
450498389963,0,-5,4,4,-1,3,-2,1
450498406296,0,-9,-2,-1,1,0,-5,2
450498406296,1,8,0,2,-4,2,2,-4
450498407797,-3,2,-3,-5,-6,2,2,0
450498407797,3,10,-4,2,-2,3,-1,-3
450498419965,-1,0,1,1,-1,4,-2,-2
450498419965,1,-5,-4,6,-2,-4,-2,10
450498428842,-5,-5,1,-2,-7,-7,-4,-2
450498428842,-3,-7,0,-2,0,-10,0,-3
450498443084,-3,-1,0,-3,1,-2,2,-1
450498443084,1,-1,1,-3,1,-5,1,-5
450498449935,0,-3,1,1,-3,0,1,0
450498449935,5,-7,5,0,-5,-4,-1,-1
450498466278,-5,4,-4,1,3,-1,-1,2
450498466278,-1,-8,1,-6,-6,-4,-2,-3
450498467893,1,-6,-3,-3,-5,-4,1,-9
450498467893,2,-6,-2,-2,-1,1,2,-4
450498479909,-3,-4,3,-3,-1,-1,2,1
450498479909,-2,1,-3,-2,-2,-2,0,0
450498488898,-3,-6,-1,3,1,3,-3,-3
450498488898,-5,-4,-6,-4,-5,-6,2,-2
450498503147,0,-3,-5,4,-4,-2,0,-6
450498503147,1,-5,-4,-1,3,2,-3,-4
450498509904,-1,5,-4,-3,-4,0,4,-1
450498509904,-3,9,2,0,3,2,-4,-2
450498526322,-1,5,6,-4,-4,-1,-2,0
450498526322,0,9,3,-2,-4,-1,-6,0
450498527856,0,4,-2,-6,-5,-3,-4,1
450498527856,-5,-5,1,3,1,2,1,-2
450498539936,3,-6,-3,-2,1,1,-2,1
450498539936,-3,-2,-6,-1,2,-3,-1,0
450498548901,0,-1,-4,1,3,-2,3,1
450498548901,-3,-6,-6,1,2,-2,-1,0
450498563160,-2,1,-6,-5,-6,-2,0,4
450498563160,1,4,-1,6,4,1,2,0
450498569934,0,-5,-3,4,1,-5,-1,1
450498569934,2,-2,-3,-3,3,-11,-2,-2
450498586720,1,-6,0,2,-2,-5,-1,-4
450498586720,-2,0,-3,0,-5,-6,-1,-3
450498588323,3,8,0,-3,-3,-4,-5,-7
450498588323,0,7,-2,-1,10,3,1,2
450498599940,-5,3,2,-9,2,2,0,-2
450498599940,1,-4,-4,-5,0,4,-5,0
450498608924,-7,-18,-5,-6,-5,4,1,-2
450498608924,-1,-6,-2,0,-7,-5,-2,-1
450498623151,-6,-8,-1,0,-2,-14,-1,-4
450498623151,0,1,-2,0,-3,-6,3,-1
450498629894,0,-1,4,1,-6,-7,1,2
450498629894,-3,-1,5,-5,-8,2,-2,-3
450498646210,2,-2,0,1,-1,5,0,-2
450498646210,1,-1,0,-1,-1,-2,1,-2
450498647826,0,11,-2,-1,-2,2,-8,-3
450498647826,0,8,-8,-3,-4,-2,-1,-2
450498659913,1,0,-1,-1,-2,6,3,-1
450498659913,-2,-6,4,0,0,-2,0,1
450498668931,-2,0,3,-3,-3,-4,-1,-3
450498668931,1,-3,2,7,0,-3,4,2
450498683101,-3,2,-4,1,1,-4,-1,-3
450498683101,-4,-10,-5,-3,3,3,0,-3
450498689953,-3,0,3,3,3,0,1,3
450498689953,-2,-2,-3,-6,-3,-3,-3,-8
450498706264,4,4,-2,2,1,2,3,1
450498706264,0,4,1,-3,2,1,-2,-1
450498707831,0,4,-10,-2,-1,3,1,0
450498707831,0,-7,1,-4,1,-7,-1,1
450498719909,-2,0,0,1,6,0,-3,-4
450498719909,-4,0,2,-1,-2,-3,4,2
450498728922,4,-1,7,2,1,-5,4,2
450498728922,-4,-2,-2,2,-3,-4,-2,3
450498743122,0,-9,-4,0,-3,-2,-1,1
450498743122,-6,0,1,-2,-2,6,-2,-1
450498749857,3,3,-1,-2,3,4,-3,3
450498749857,-3,-1,-2,-5,-7,9,-4,-2
450498765536,1,-4,-2,-8,2,-1,-1,-1
450498765536,-4,-6,-7,5,-2,0,-4,-1
450498772319,-2,-1,-3,0,-3,-1,3,-5
450498772319,-3,-1,-1,1,-4,4,-2,-3
450498779825,-2,-1,-1,2,-3,-2,-3,-3
450498779825,5,-2,-2,-4,-6,-1,-5,-3
450498788863,0,-4,2,1,-3,-1,-6,-4
450498788863,-1,-4,-4,-1,4,0,2,-2
450498803038,-1,-1,-7,-3,-1,-4,-1,-2
450498803038,-2,-5,0,-2,2,-1,0,1
450498809826,-2,-3,-2,4,4,-2,-3,3
450498809826,0,1,4,0,1,-1,-1,-5
450498833682,-2,-2,-1,2,0,1,1,-1
450498833682,0,1,-3,0,-2,-6,2,-7
450498835288,1,-5,-8,-5,0,-3,-1,2
450498835288,3,0,-7,-1,2,-9,-2,0
450498839849,-5,6,-1,-4,-5,-4,-2,-1
450498839849,4,7,1,1,3,3,-2,-2
450498848845,-2,-1,0,1,-3,10,1,-1
450498848845,0,-1,1,-2,-6,3,0,2
450498871252,1,1,2,0,-3,-1,2,2
450498871252,-4,3,0,-3,-3,-3,0,-1
450498872874,-4,-2,-2,-7,-2,-5,-7,-4
450498872874,-1,1,1,-2,-1,0,-2,-3
450498901227,1,-2,-3,-2,-2,3,0,-6
450498901227,0,-7,-1,-1,-4,2,-1,-1
450498902837,-4,-1,0,4,-1,0,1,-2
450498902837,-4,6,1,0,-2,-2,-3,-4
450498908749,-1,-2,0,-5,-6,-4,-6,-1
450498908749,-2,1,0,3,-1,-2,-3,-1
450498910346,0,-2,4,-4,-1,1,-1,-2
450498910346,3,-4,-1,-5,-2,2,-1,5
450498923180,-3,3,-1,6,4,6,-1,6
450498923180,1,2,-3,-3,4,-3,-3,-7
450498929956,-4,-1,-1,-4,1,-1,3,-3
450498929956,-4,0,-2,3,3,-1,-1,-1
450498945691,0,-4,-1,1,-1,-2,2,-4
450498945691,1,1,0,0,-2,-4,2,2
450498952472,-2,-5,-1,-2,3,4,2,-2
450498952472,1,1,-1,0,0,-2,-1,-1
450498968858,-5,-4,1,-10,-5,0,-6,-5
450498968858,-2,1,-1,-2,-5,-3,1,0
450498970312,-1,2,-1,3,-4,-9,-4,-3
450498970312,-6,4,-1,-3,-3,2,-2,2
450498983170,-2,-2,-2,-3,-4,4,0,-1
450498983170,0,2,3,1,1,3,-3,0
450498989909,3,2,-2,5,1,2,1,3
450498989909,1,1,-2,-1,2,-4,0,-3
450499005624,1,-4,-1,-1,-2,-3,-4,-2
450499005624,-8,-2,1,-3,-2,3,-3,-1
450499012425,2,-1,-7,0,0,-2,1,-2
450499012425,-1,-3,-2,-3,-4,-1,-2,2
450499036330,-6,-1,2,-1,-2,-1,0,-4
450499036330,0,-9,-3,-5,-2,-2,1,5
450499037886,-3,-3,-2,-3,-4,-2,-4,-3
450499037886,-2,-8,2,5,-3,-1,5,2
450499043171,0,2,-1,-1,3,-5,0,1
450499043171,-3,-1,0,0,-2,-2,0,2
450499049893,0,5,1,-3,0,-4,-4,0
450499049893,5,3,-4,-8,-2,2,-3,-1
450499065681,-1,-1,-5,-2,-1,3,1,-1
450499065681,-2,-4,-2,1,0,-1,7,-2
450499072446,1,-5,-3,-5,-4,0,-1,-1
450499072446,-3,0,3,3,1,-6,-1,-2
450499089269,1,-2,1,-1,2,-4,-1,-3
450499089269,1,-4,2,3,-1,-3,-3,2
450499090795,-5,-5,1,-4,-3,-3,-2,-3
450499090795,0,0,2,-2,-2,3,2,-7
450499103091,2,6,0,1,-2,1,-3,-5
450499103091,0,6,2,-2,-5,0,-5,-4
