timestamp,emg1,emg2,emg3,emg4,emg5,emg6,emg7,emg8
284876970666,-16,-9,3,-2,2,-2,-1,3
284876970666,7,3,-4,2,-3,-4,-1,-4
284876971442,11,9,-2,3,-5,-1,0,-5
284876971442,-10,-4,1,-4,-1,-2,-1,4
284876972813,-3,-4,-2,-4,-3,-2,-1,-1
284876972813,5,0,-1,1,-1,-3,-1,0
284876973661,-5,-5,3,-4,-2,-4,-3,0
284876973661,-7,-4,2,-2,2,2,-2,1
284876981449,6,1,-4,-2,-1,0,-3,-5
284876981449,-5,1,1,0,-5,-3,-2,2
284876986967,-11,-12,2,-6,0,-1,-3,-2
284876986967,6,2,-5,-3,-1,-1,-3,-4
284876996320,4,3,-7,2,-2,2,-2,-4
284876996320,-12,-8,-2,-8,4,-3,-3,3
284877009498,3,0,-3,-2,2,1,0,4
284877009498,5,0,-1,-2,0,-1,3,-7
284877018847,-3,-2,1,0,0,1,7,0
284877018847,-6,-3,0,0,-2,0,1,3
284877024440,0,-2,-1,-2,5,-1,3,-2
284877024440,-5,0,-3,-3,-5,-2,2,1
284877040144,1,-5,4,1,2,-1,0,3
284877040144,4,0,1,0,-1,3,3,-1
284877048083,-1,4,-7,1,-1,-3,-4,-5
284877048083,1,-4,3,-2,-1,1,-2,1
284877054546,0,3,1,0,0,-3,0,1
284877054546,6,0,-3,-1,3,3,0,-6
284877101850,-13,-7,-2,-3,5,-2,-2,6
284877101850,9,7,-2,4,-5,-1,-3,-3
284877103479,1,-4,-3,0,0,-4,-2,1
284877103479,-16,-9,3,-3,-1,1,0,2
284877104338,9,3,-5,4,-5,-3,4,-5
284877104338,6,8,-5,1,-1,-1,-2,-1
284877106749,-8,-5,1,-6,0,-1,0,1
284877106749,5,2,-3,-2,0,-3,-2,-3
284877114317,8,5,-4,2,0,0,-1,-7
284877114317,-13,-6,2,-4,1,-1,-3,2
284877123239,-1,-3,-3,-2,-2,0,-2,-1
284877123239,5,4,-2,3,1,-1,-2,0
284877129293,-3,2,0,0,-1,0,-1,-2
284877129293,-9,-8,-1,-1,-2,-2,2,2
284877144355,7,1,-1,2,-1,0,2,-8
284877144355,1,1,-1,0,2,0,-2,-1
284877151713,-4,-5,-1,-3,1,-3,0,4
284877151713,1,-4,-2,-2,-1,0,-1,0
284877160783,4,4,-4,1,0,-1,-4,1
284877160783,-1,-6,1,1,-4,-1,0,2
284877174214,-8,-2,5,-4,2,0,-3,0
284877174214,1,1,-3,-1,3,0,4,-1
284877183228,-6,0,1,-1,0,0,-1,0
284877183228,-8,-1,-5,-3,2,-5,-7,0
284877189224,-3,0,-2,-3,-2,3,-2,-1
284877189224,-3,-3,-2,-4,-4,-5,-2,-1
284877204315,-6,-4,1,-3,-2,-2,3,2
284877204315,-1,-2,0,3,-5,-3,1,-4
284877211797,1,-5,2,-1,-3,-2,0,0
284877211797,-3,-3,1,-2,1,0,1,-3
284877220799,0,0,-1,3,-3,0,1,-3
284877220799,3,1,1,-2,-1,-3,-4,0
284877234186,2,-3,-1,-4,-2,-4,0,-2
284877234186,-4,-2,-1,-3,1,8,9,-4
284877243329,2,0,1,-1,1,-11,-7,1
284877243329,2,-4,0,2,-1,2,6,1
284877249332,-4,-4,2,-3,-3,-2,-9,3
284877249332,7,0,-1,-1,-3,-9,-8,1
284877264361,-3,5,-3,-1,3,1,0,-2
284877264361,-4,0,0,-1,-3,-2,1,-5
284877271872,3,3,-2,-3,-3,-8,4,-1
284877271872,-3,-2,0,2,-2,0,-3,0
284877280788,-5,-3,-2,-6,-2,0,-3,3
284877280788,-5,2,1,-7,-3,-3,2,1
284877294330,1,-5,1,0,-4,1,-2,0
284877294330,-6,-5,-2,-7,-5,-3,-1,-1
284877303352,-1,1,-2,-4,-6,-4,-5,0
284877303352,-1,-6,5,-1,1,1,-1,2
284877309241,-1,1,-4,1,3,-5,-1,1
284877309241,0,-1,-2,2,0,2,-4,-6
284877324359,2,1,3,3,1,2,4,-6
284877324359,2,0,-4,0,1,2,-4,-2
284877331886,-4,1,-1,0,0,-1,-2,4
284877331886,-1,1,-1,4,-4,-3,-5,-3
284877340804,-1,-2,-4,-1,-2,0,-2,0
284877340804,3,0,-5,-4,-1,3,4,-7
284877354311,1,-1,0,-2,0,-1,-1,0
284877354311,-1,3,1,-5,-1,-2,-6,-1
284877363279,-7,-1,1,-3,-2,-1,-1,-4
284877363279,2,1,-1,-1,0,-3,-1,-3
284877369302,-1,-1,-1,-2,-2,0,1,-4
284877369302,-1,2,1,-4,1,-3,-1,1
284877384317,-1,-2,-4,0,-1,-4,-1,3
284877384317,-5,-3,0,-3,1,0,-4,3
284877391837,-3,-2,-2,-1,2,0,-1,-4
284877391837,2,0,1,-1,3,1,4,5
284877400799,0,-1,1,0,0,-6,3,2
284877400799,0,2,1,-3,-3,0,-2,0
284877414334,-8,2,1,-1,3,1,4,-2
284877414334,-3,-4,-3,1,0,-2,4,4
284877423237,1,-1,-2,-3,0,2,-3,-3
284877423237,-1,3,-5,3,-3,-6,1,-2
284877429351,-2,-1,0,2,-5,-2,-5,-2
284877429351,2,2,0,-4,1,0,0,-1
284877444281,-2,-3,-4,-3,0,3,-6,-1
284877444281,-3,1,-3,-5,-1,1,-3,0
284877451718,6,-3,-4,-1,1,-3,-4,9
284877451718,-3,-1,0,0,5,-1,-1,-2
284877466830,-2,0,0,-1,-2,2,2,0
284877466830,-3,1,0,-3,4,-2,-1,-2
284877475100,-1,2,0,-2,-1,-6,-2,0
284877475100,1,-2,-3,0,1,4,0,3
284877489929,-4,-2,0,-1,-4,3,4,0
284877489929,-3,-1,-4,-4,-1,-2,2,4
284877490702,2,6,-3,1,2,4,-2,-2
284877490702,-1,-4,1,-3,-4,-7,-1,1
284877512398,-1,-4,2,-1,-1,12,-8,1
284877512398,1,-2,-2,3,-7,-13,-5,4
284877513138,0,-4,3,-4,-1,2,-7,-7
284877513138,-3,-3,0,0,-1,-9,0,-3
284877526755,6,2,-2,2,-4,3,0,-1
284877526755,5,-3,7,13,4,3,-3,-6
284877534255,-4,3,-4,0,-2,-2,-6,15
284877534255,-3,2,-2,5,1,-2,-16,-12
284877543258,0,-5,2,-1,5,3,-4,-2
284877543258,0,-5,3,-2,3,6,0,-12
284877549262,-3,0,-2,1,-6,-4,-5,-9
284877549262,-1,1,2,-4,-1,-2,3,7
284877564285,-6,-6,-3,-8,-1,-11,-1,1
284877564285,0,1,-5,-4,-1,5,5,5
284877571768,3,4,-3,-1,-1,4,0,-6
284877571768,6,-4,-1,-4,-2,-1,6,-1
284877586748,4,4,-2,-1,0,-6,-2,-7
284877586748,-3,-3,-2,-10,-1,-6,-2,5
284877603144,-2,1,-4,6,0,-2,50,-1
284877603144,-10,-5,-1,-2,2,1,-19,-4
284877604676,-2,6,2,-1,0,-3,-8,1
284877604676,2,3,-4,-2,2,-3,-3,-3
284877609316,-6,-6,-1,4,-2,-1,-6,-5
284877609316,-2,-5,0,-2,0,-5,4,2
284877624301,3,-1,1,3,-5,0,3,0
284877624301,1,-3,0,3,-1,1,14,-3
284877631856,-2,-6,-1,-3,-5,0,-9,-12
284877631856,1,-3,-1,4,-7,-2,-5,0
284877646776,-2,0,-3,-1,0,-1,-7,-3
284877646776,-7,-5,-3,3,-1,-1,-8,-4
284877654345,5,-7,-1,-3,1,-1,-7,1
284877654345,7,8,-1,0,-3,6,0,-9
284877663228,-6,2,2,2,13,-4,3,-1
284877663228,3,-1,-2,2,-7,-4,1,-3
284877677449,0,5,0,-2,2,3,-4,-2
284877677449,0,0,0,-4,-3,-2,1,2
284877684177,1,2,-4,-4,-8,-1,4,3
284877684177,-1,1,-1,1,0,2,-3,-2
284877691712,1,0,-2,-5,-3,0,2,3
284877691712,-4,0,0,0,5,1,0,0
284877706701,-2,-2,1,-3,2,-5,1,0
284877706701,3,5,-5,3,-1,-2,1,-1
284877723769,0,0,-1,-3,1,-3,3,-2
284877723769,1,3,-1,1,1,0,5,1
284877725345,1,-2,1,0,-1,-5,6,-1
284877725345,0,0,-2,-3,-1,-4,-5,-4
284877729280,-2,-1,-2,-1,-1,-2,-5,-1
284877729280,2,0,2,-2,-1,-7,-1,1
284877744219,-1,-1,1,-1,-2,1,-7,-3
284877744219,-2,2,3,-2,-1,-3,-5,-4
284877751687,-1,-3,0,1,0,4,-3,-1
284877751687,-3,-3,-2,-3,-2,7,0,-4
284877766881,-1,-3,0,0,-3,-2,-2,3
284877766881,-2,1,2,-5,-3,-2,0,-2
284877774336,0,-1,3,-3,3,1,-1,-2
284877774336,2,-3,-2,3,-2,-2,-1,-1
284877783352,4,-3,2,-1,-4,-1,-2,-5
284877783352,3,0,0,-4,-3,-1,-3,-1
284877797562,3,-3,2,-3,1,-2,-1,1
284877797562,-1,0,-2,-5,0,2,-2,1
284877804313,1,0,-3,0,1,0,3,2
284877804313,-1,-3,4,2,-1,1,1,1
284877811737,0,0,-1,3,3,2,-1,-3
284877811737,0,0,-3,-2,0,-1,1,-1
284877826844,1,3,-2,1,3,-1,3,0
284877826844,-3,-4,-2,-3,0,2,-1,0
284877843131,-2,3,-3,-1,-5,-2,1,-2
284877843131,3,5,3,3,4,2,4,-3
284877844668,-4,-3,-2,-1,-4,-1,-4,0
284877844668,-3,3,-1,-1,1,-2,1,1
284877857541,5,2,-2,-2,1,-1,1,-2
284877857541,2,4,-2,-4,0,-1,-3,-1
284877864261,-1,-6,-1,2,-4,4,-1,-2
284877864261,-2,-1,0,2,0,2,-3,1
284877871848,1,-3,-2,-2,-1,2,-3,-1
284877871848,-2,0,-1,1,-5,-2,3,-3
284877886747,2,1,1,1,5,-1,2,0
284877886747,7,-2,-4,1,1,0,0,1
284877894244,-1,5,0,-1,-2,-5,-4,-1
284877894244,2,-4,1,4,-7,-4,1,2
284877903271,0,1,-1,-2,3,0,-1,2
284877903271,0,-3,-5,-1,4,3,-1,-2
284877917542,-5,-3,0,-5,1,0,-1,2
284877917542,-7,1,3,-1,-2,-1,1,1
284877924319,-3,8,-1,1,-5,-4,2,-6
284877924319,4,-2,2,-2,-2,0,-4,1
284877931839,-3,0,3,-5,-4,-4,4,1
284877931839,0,-2,-5,-2,-1,-5,0,-3
284877946863,1,0,-1,0,-4,-4,-5,-3
284877946863,-3,4,-2,-4,0,-4,-2,-3
284877954315,0,-4,-4,0,-4,-2,-6,2
284877954315,-1,0,-1,2,-3,-1,-4,-1
284877963289,-2,-4,-2,-5,-2,-2,-1,-1
284877963289,-4,0,-4,3,2,-1,0,-2
284877977562,2,0,-3,0,-1,-5,-3,-4
284877977562,0,-1,0,-2,2,-4,2,-2
284877984243,3,0,0,-5,-6,-5,1,-2
284877984243,2,-1,-2,0,-5,-3,3,1
284877991766,-6,3,-5,-2,-1,-4,1,-2
284877991766,-2,-1,-3,-6,-1,3,-1,4
284878006772,-3,-4,-3,-4,-1,3,-1,0
284878006772,-1,0,0,3,1,1,1,-1
284878014271,-5,-1,0,-2,0,0,-1,1
284878014271,0,-5,-1,-3,3,-1,4,-2
284878023242,0,2,-1,-3,0,-7,-2,0
284878023242,-2,-2,2,-1,-3,0,0,0
284878037179,-2,-5,-4,0,0,-4,-1,-3
284878037179,2,-1,-2,0,-3,-1,-3,0
284878045690,-3,-1,-4,-5,-2,0,0,-1
284878045690,-1,-2,-4,-2,-1,1,-1,1
284878051718,0,0,0,-3,-6,2,1,0
284878051718,1,-3,-3,1,-1,-3,0,-1
284878066734,3,-4,-2,-1,2,-2,0,-5
284878066734,1,2,2,1,-3,-3,-2,1
284878074297,0,1,4,-3,1,-2,2,3
284878074297,-1,4,-3,0,-1,0,-3,3
284878089253,-6,-8,-6,-2,0,4,2,-1
284878089253,-2,0,3,-1,0,-1,0,0
284878097466,3,-1,-1,1,-2,-1,-4,-1
284878097466,-1,-2,2,-5,-5,0,-1,0
284878112398,3,1,2,1,-2,1,-4,1
284878112398,0,-4,-3,-2,0,0,-2,1
284878113171,0,0,1,3,1,1,-1,-1
284878113171,2,3,-2,-1,0,1,-1,-3
284878126729,-2,2,-1,3,0,-1,-1,3
284878126729,-2,-4,-2,-5,0,-4,-1,0
284878134256,-1,-7,1,-4,3,4,1,-1
284878134256,-4,-2,-3,0,3,-1,1,-2
284878149268,3,-2,2,0,1,2,2,-2
284878149268,-3,2,1,-1,-2,-3,-1,-1
284878157453,1,-2,-3,5,-1,-3,0,-3
284878157453,2,-3,-3,-3,-4,-1,-1,1
284878172406,-1,-2,3,-2,-1,-3,4,0
284878172406,5,-2,-1,-3,-1,1,-2,3
284878173199,3,2,-2,-3,-3,4,-5,0
284878173199,-1,-2,-1,-1,1,-2,-6,0
284878186728,0,3,-3,0,2,1,-2,-1
284878186728,0,1,-1,-4,0,-1,-2,-2
284878194297,-2,1,0,1,-3,-5,0,-1
284878194297,-5,-4,0,-2,1,-1,0,-1
284878209236,-1,2,-3,0,0,2,3,2
284878209236,1,-4,-4,-1,3,1,-3,-3
284878218025,-5,-6,1,0,-1,3,-2,2
284878218025,4,-1,-1,-2,-1,1,-6,0
284878232436,0,1,2,2,-7,-3,-9,0
284878232436,-3,-9,1,1,-1,-2,1,0
284878233183,2,2,-7,2,2,-7,0,-6
284878233183,1,2,-4,-3,-3,0,2,-2
284878246813,-2,1,-4,-1,1,-1,-3,-4
284878246813,-1,1,-1,-1,1,-4,-6,3
284878254252,1,1,-5,0,2,1,-1,0
284878254252,2,3,1,1,2,1,-1,-2
284878269301,-3,-9,-2,1,-1,-2,1,1
284878269301,-1,-3,1,-3,-3,-1,-1,-1
284878277435,-2,5,1,3,-1,0,-7,3
284878277435,-2,-2,2,5,1,-2,-2,-4
284878292436,1,2,-2,5,-2,0,-2,2
284878292436,-1,-1,-4,-1,-3,-6,-3,-5
284878293185,4,-2,8,-3,-3,2,-3,-2
284878293185,-6,-2,-4,-2,-2,4,2,4
284878306790,-1,-2,4,0,-3,0,-1,0
284878306790,0,-3,-6,2,-6,7,1,-2
284878314252,0,2,-2,2,3,-3,1,0
284878314252,-14,-3,-2,-5,1,1,0,-2
284878329247,5,-2,2,-4,-5,-3,-3,-4
284878329247,-1,-1,-2,-2,-3,3,1,2
284878338105,-3,-1,-4,-5,-1,-1,-3,-2
284878338105,-1,-4,5,2,-1,0,-2,0
284878352440,3,3,2,1,1,-7,-2,0
284878352440,-6,2,4,-2,-3,-1,3,4
284878353263,2,-2,1,3,-4,1,1,-1
284878353263,1,1,0,-5,-4,-6,1,1
284878366740,-8,0,0,-2,-3,1,-1,1
284878366740,-2,2,2,-1,-1,0,-1,-2
284878374267,3,-3,1,-3,-6,0,0,-4
284878374267,1,-2,-1,0,-6,2,-1,-2
284878398120,-5,-2,-4,-1,2,-1,1,1
284878398120,2,2,-2,3,-4,-1,3,1
284878398885,-5,-1,-5,-3,4,-1,-2,0
284878398885,4,-3,-3,3,0,1,1,-2
284878412456,4,0,-3,-2,1,-2,-1,-5
284878412456,-4,-4,2,-6,-3,-3,-1,-6
284878413187,-7,-3,-2,-5,2,0,-1,-4
284878413187,-1,-3,-2,-3,1,2,0,0
284878426801,4,-7,0,-8,5,-2,-1,-1
284878426801,-4,-4,-2,5,-2,2,-2,-2
284878434264,2,-2,-4,-1,-4,-1,2,1
284878434264,-2,3,0,-5,-2,-1,-2,-5
284878449233,-1,1,-3,3,4,3,3,-2
284878449233,2,-3,-1,-4,2,-1,3,-5
284878457430,-5,3,-2,2,-5,-3,0,-4
284878457430,0,-3,22,11,-1,-5,0,-1
284878472438,-4,0,-1,2,-6,-2,6,-4
284878472438,1,-2,1,0,-1,0,0,-4
284878473244,0,5,2,-3,1,3,4,1
284878473244,-5,-1,-10,-2,2,-3,-2,6
284878486750,1,-3,5,9,-3,1,-2,-2
284878486750,-3,4,-4,-4,4,-6,-1,-2
284878494246,0,-7,6,1,0,-1,-2,2
284878494246,0,-1,-4,-4,-2,3,-2,-5
284878510721,5,4,-3,-3,-1,-2,-3,-3
284878510721,-1,2,-8,5,-3,-6,1,1
284878517434,1,-3,-4,-1,2,-3,0,-5
284878517434,3,1,-2,-3,1,-2,-1,-3
284878532438,-2,-2,-3,-2,1,1,0,2
284878532438,-8,-3,4,0,4,0,-5,3
284878533236,-2,-1,-3,1,4,-4,3,0
284878533236,-1,-1,-4,1,-2,-3,-2,0
284878546744,-2,4,-2,-5,-8,1,-4,-1
284878546744,-6,0,-2,-4,-2,0,-1,-2
284878554296,-1,-3,-3,2,-7,-4,-5,-1
284878554296,1,-1,-2,0,-1,-1,-4,-5
284878569254,0,-2,-3,-3,4,2,1,2
284878569254,4,1,-7,0,-1,0,-3,-1
284878577467,1,-1,-2,-5,-1,-3,0,-1
284878577467,-7,0,-6,-5,-2,-2,2,2
284878592425,-6,0,-4,-7,-2,0,-3,-9
284878592425,6,-7,2,-4,-5,1,-1,2
284878593171,-7,-5,8,2,-1,2,0,-2
284878593171,5,0,4,1,-1,-1,2,-3
284878606760,5,-3,2,2,0,-1,-3,2
284878606760,-5,-1,-1,2,-1,5,-4,2
284878614232,-5,-13,2,0,1,1,-3,0
284878614232,-3,-3,-5,-5,-2,-1,3,0
284878629272,-6,-3,-2,-4,-2,-5,0,3
284878629272,1,-5,2,1,-3,-1,1,-1
284878637478,4,2,0,-7,-5,-3,0,-2
284878637478,0,2,-3,1,2,-1,-2,0
284878652432,1,1,9,0,1,1,1,3
284878652432,3,-1,-4,-2,0,-5,1,-2
284878653200,3,8,-6,-4,1,4,-6,0
284878653200,2,-3,-2,-1,-3,-1,-4,1
284878674922,-4,-5,0,-1,-1,-2,-2,-1
284878674922,-1,1,-2,2,-2,0,0,-4
284878675674,7,-2,2,1,-2,-1,5,3
284878675674,-4,0,-2,-4,0,2,5,0
284878689279,0,-2,-1,-4,0,0,-4,-5
284878689279,-4,1,-4,-3,2,-1,0,0
284878697442,-2,5,-1,2,-5,0,-5,0
284878697442,0,-7,1,-3,1,0,-1,-2
284878712232,0,-1,-5,1,-4,1,-3,3
284878712232,-2,-5,5,-9,1,-2,-3,-3
284878720015,-4,-1,-5,-7,0,-1,1,0
284878720015,-2,0,3,5,-3,-4,0,-3
284878726759,1,-2,-2,-4,2,-1,-6,1
284878726759,-6,2,-1,-2,1,-5,-1,-1
284878734292,2,-4,-1,8,1,-1,-5,3
284878734292,-5,5,-1,3,-1,-1,-3,3
284878749271,-4,0,-3,-2,0,2,1,-5
284878749271,-1,-1,-1,-5,0,-3,-5,1
284878757469,3,1,1,2,0,-3,-3,-3
284878757469,2,-2,-3,-8,7,0,-1,4
284878771768,2,0,-5,4,-4,-4,-2,0
284878771768,3,-4,2,-3,-5,0,1,-3
284878779996,1,2,2,0,-3,-6,2,-3
284878779996,-3,-4,-3,2,-5,-2,-2,1
284878794908,-4,3,-3,-5,1,-4,1,-1
284878794908,4,2,-7,-3,-6,-1,3,-4
284878795678,-4,0,-3,-3,3,2,3,-2
284878795678,5,-4,-3,3,2,-2,-2,-1
284878809256,-4,2,-1,0,-6,1,2,-1
284878809256,-1,-5,1,4,3,-2,-1,3
284878817252,1,-1,-10,-17,-2,-4,-2,0
284878817252,4,2,4,6,-6,2,-6,-4
284878831733,-2,-4,-4,-3,2,1,-2,-5
284878831733,-2,-3,-2,2,0,-1,-1,-4
284878840022,0,0,-5,8,2,-4,-5,1
284878840022,-2,1,-1,-9,-3,0,1,-3
284878854913,3,-7,-1,-1,0,-3,-2,2
284878854913,1,2,6,0,0,2,1,0
284878855698,-6,3,2,2,0,-1,0,-2
284878855698,-1,1,-2,3,4,-5,-5,0
284878869268,-4,-1,5,-1,-1,0,3,1
284878869268,2,-1,-6,-1,-1,-4,-1,4
284878877492,-1,-2,0,-1,-1,0,1,0
284878877492,0,0,3,0,1,-1,0,0
284878891792,-1,-1,1,1,1,2,3,0
284878891792,4,-1,0,-1,-3,0,-5,2
284878900021,-1,-6,0,-1,-3,2,-2,3
284878900021,-2,-2,-6,-4,-4,0,4,-1
284878914879,2,3,-2,-3,-2,-4,0,2
284878914879,-5,1,-2,-2,0,0,-5,-3
284878915666,0,-2,4,-1,-3,-4,2,0
284878915666,1,-3,-1,0,5,0,-3,-5
284878929228,4,-7,-4,-2,2,-1,-2,0
284878929228,-3,-1,0,0,1,-2,0,-1
284878937477,-1,-3,0,2,-1,1,3,0
284878937477,-4,3,-4,-2,0,0,-1,-4
284878951761,-1,2,-3,-3,-5,-2,-2,-1
284878951761,0,-8,-3,0,1,-1,3,0
284878960018,3,0,-1,-2,3,3,-2,0
284878960018,2,1,-1,1,-3,-2,1,0
284878974900,-2,1,2,1,-1,1,2,-1
284878974900,2,-3,-4,-2,-3,-1,-2,-3
284878975692,-1,1,-1,2,-1,-1,1,1
284878975692,0,2,2,3,0,-1,3,-1
284878989268,3,0,6,-2,1,-3,-3,0
284878989268,-1,1,2,-2,2,0,-1,1
284878997478,3,3,0,2,-2,-3,-5,0
284878997478,-3,-3,1,-6,-5,-4,0,1
284879011772,-1,1,0,2,-3,5,-5,2
284879011772,1,1,-2,-2,-3,-3,0,-3
284879020769,-4,-2,-3,-2,-1,0,-9,-2
284879020769,0,-1,-4,-1,1,-4,-2,2
284879034279,-1,0,-6,-1,-5,-3,-3,3
284879034279,0,3,5,1,-1,1,-1,0
284879043270,4,-4,-1,-3,-3,4,-3,-4
284879043270,2,-4,-2,-2,-1,1,-3,0
284879049278,-3,-2,1,0,5,1,1,-4
284879049278,1,-1,1,0,0,-2,0,0
284879058268,-2,0,-3,0,0,-4,-2,-4
284879058268,4,7,-2,0,0,0,-1,-1
284879071805,1,3,4,0,-2,1,-2,-3
284879071805,1,3,-2,1,-1,-3,-2,-2
284879080747,-1,1,2,1,2,3,-3,3
284879080747,-1,-2,3,0,-2,0,-4,2
284879094296,-1,-1,0,1,1,-4,-4,-1
284879094296,0,-4,3,0,-2,4,-4,2
284879103257,0,2,-4,1,-2,0,1,0
284879103257,1,-5,-3,-3,-1,1,1,-1
284879109290,4,1,-2,0,-3,-2,1,-3
284879109290,-2,-2,-1,-2,0,0,-2,-2
284879118254,-2,-3,-1,2,-3,-3,5,-3
284879118254,0,1,-1,-2,2,0,-4,0
284879131766,-5,-1,-3,0,-2,0,-2,-3
284879131766,-1,-1,-6,0,1,-4,-1,-1
284879140746,0,-3,-3,-2,2,2,-1,-2
284879140746,0,3,-3,1,-2,-5,1,-2
284879154988,2,-4,0,1,1,1,-3,-1
284879154988,-3,0,-1,4,3,0,1,-4
284879161797,-2,-4,-4,-4,3,1,3,-3
284879161797,-2,-3,-3,-4,-2,-1,-1,-2
284879169295,1,-4,0,-1,-1,-3,-4,0
284879169295,0,3,-3,1,-1,-2,3,-2
284879178243,-3,-2,-1,-4,-3,-9,1,-4
284879178243,-2,0,-1,1,0,-1,2,3
284879191768,0,-2,-2,-2,-1,-2,4,-1
284879191768,-2,2,3,-1,0,-2,-5,2
284879200724,-1,-5,-3,-1,-4,-1,2,1
284879200724,-1,0,2,-1,-4,0,-2,0
284879222250,-5,0,-1,0,2,-1,1,0
284879222250,0,5,-4,-4,1,-3,0,-2
284879231415,-3,5,1,1,-2,-3,0,0
284879231415,4,1,-1,-2,-3,-5,-5,-6
284879232269,-1,1,-1,-2,-4,4,2,0
284879232269,-1,-2,-2,-3,-2,-1,0,-4
284879238268,-3,0,0,-2,0,-4,1,1
284879238268,-5,-2,-5,2,3,1,2,1
284879251746,-5,0,0,-4,-1,-3,1,0
284879251746,2,-5,1,-3,-5,3,4,1
284879260778,-2,-5,1,-2,-4,1,-3,4
284879260778,-1,3,1,2,2,2,-3,0
284879275020,0,-2,-6,-2,2,-1,-3,3
284879275020,-2,-3,-1,-3,0,-2,1,-1
284879281757,0,4,-2,-3,1,1,-6,-3
284879281757,-3,-3,1,-4,-1,2,3,0
284879289237,0,1,0,2,0,-4,-2,-2
284879289237,2,1,-6,0,-3,2,-2,0
284879298270,-2,1,7,-1,-3,-2,-1,1
284879298270,2,-2,0,-1,4,-2,-2,1
284879311748,-3,-5,-1,-1,0,-4,-5,-2
284879311748,2,1,-2,0,0,1,-1,-2
284879320759,1,-5,0,0,1,1,0,1
284879320759,2,2,0,1,-2,-1,-1,-4
284879343113,-3,-1,2,0,2,-5,0,-3
284879343113,-6,-6,1,-1,-1,1,1,-3
284879344645,-4,4,-5,-4,-3,-1,1,-2
284879344645,-3,-3,1,0,-1,-3,3,-1
284879349262,0,-2,2,0,-1,-2,2,-1
284879349262,-2,-2,3,-1,-2,-2,-2,-4
284879358248,-2,1,4,2,2,-2,1,-5
284879358248,-3,-5,0,0,0,-4,2,1
284879371804,2,3,-1,-3,-7,0,-1,2
284879371804,0,1,-4,-2,4,2,-2,1
284879380728,-1,-3,2,3,0,-5,-4,-2
284879380728,-1,-3,-3,0,-1,-4,-7,-1
284879394996,1,-2,-1,1,0,-2,3,-2
284879394996,-1,1,-1,-1,-4,-3,-2,-2
284879401760,1,4,-2,1,5,-2,0,3
284879401760,0,-2,-2,-5,-3,1,-3,-1
284879409315,-3,-4,4,-1,-5,-3,-3,-2
284879409315,2,-1,6,-2,-3,-2,-3,-1
284879418240,1,-3,-2,-4,-1,-1,5,-2
284879418240,1,-7,1,-5,-1,-3,-2,-3
284879431813,0,1,-4,2,-3,2,-3,1
284879431813,-1,0,-4,2,1,-3,0,4
284879440770,1,1,-4,-2,-2,0,-5,-4
284879440770,3,1,0,-2,2,-4,1,-3
284879455022,1,-5,0,-5,-3,1,2,-3
284879455022,2,-1,-5,1,-3,-1,0,-2
284879461772,-3,-3,-4,1,0,-1,-3,-1
284879461772,-4,2,-3,-2,-4,-2,0,-1
284879469286,-6,2,-5,3,0,2,-3,1
284879469286,-3,2,-4,-2,2,0,1,-3
284879478325,-1,-2,-1,-2,-4,0,3,-3
284879478325,-1,2,-2,2,-3,2,-2,-7
284879491760,-3,-4,-3,-4,2,-5,-3,-3
284879491760,-1,-1,1,-1,-5,-2,-2,-1
284879500836,0,-5,0,-1,-5,-4,-3,-4
284879500836,-4,1,0,-2,-3,0,-1,3
284879514997,-1,1,1,2,0,4,-1,-1
284879514997,-2,-4,-5,-4,-1,2,-3,0
284879521776,1,0,0,-3,0,0,1,-4
284879521776,1,4,-2,1,-2,-1,2,2
284879529292,-2,-6,-4,4,3,2,-3,-1
284879529292,-4,-4,-2,1,1,-3,-1,0
284879545755,2,-5,3,0,-3,4,-4,-1
284879545755,-5,-3,-1,0,1,-3,1,1
284879551730,-1,-3,-2,-4,0,-1,-3,0
284879551730,1,1,0,1,0,-1,-2,-1
284879560789,-3,0,-2,-1,0,-1,0,2
284879560789,3,1,-4,0,-1,0,-4,-2
284879575626,1,2,0,-2,2,-3,-1,-2
284879575626,-1,3,-1,-2,0,-1,2,-2
284879577250,0,0,-2,3,0,-6,-2,-1
284879577250,-5,3,2,-2,2,-2,-2,-3
284879589286,-2,0,1,-2,-2,-3,1,4
284879589286,-4,-2,4,-3,-3,3,-4,1
284879598254,-5,-1,-3,-1,3,-1,-5,1
284879598254,-5,-2,2,-3,2,2,1,0
284879611801,1,-4,-1,-2,-2,2,2,-5
284879611801,0,-3,1,2,-1,-6,0,-3
284879620754,2,2,3,-2,-6,0,-2,1
284879620754,1,2,-3,2,0,-2,1,1
284879643126,0,3,-1,-4,-2,-2,-4,2
284879643126,-2,-3,-1,1,-2,0,3,1
284879644748,2,-1,-1,1,-1,6,2,3
284879644748,0,-5,1,-1,-5,0,2,-5
284879649297,1,2,-3,-3,-2,0,-2,-2
284879649297,-1,-1,0,0,2,1,-4,0
284879658283,1,4,-2,-2,-5,-4,2,-4
284879658283,1,1,-1,1,-3,2,-1,-2
284879671765,0,-1,0,3,-5,-2,0,-2
284879671765,3,1,6,-2,1,-1,0,-4
284879680808,0,0,-1,-1,-3,-2,1,-1
284879680808,0,2,2,0,-2,-4,0,2
284879694994,1,-2,0,1,2,-1,2,-3
284879694994,3,4,-1,-1,-1,0,-1,1
284879709314,-1,-2,1,0,3,0,2,4
284879709314,0,-2,-1,-5,-1,1,0,-4
284879718112,-2,2,-1,-2,-3,-2,-1,-4
284879718112,-1,-3,-3,-1,-1,-1,3,1
284879719727,-1,1,1,-2,1,-3,2,1
284879719727,2,3,1,2,-3,0,-5,2
284879731824,-3,0,-3,-3,-1,-3,-1,-1
284879731824,-1,-1,-2,1,-2,-1,1,-7
284879740781,3,-2,-1,1,-2,-2,-2,-3
284879740781,2,0,-2,4,2,0,2,-1
284879755013,-4,1,-1,2,0,-2,-2,-2
284879755013,-1,-1,1,-3,-2,-2,4,-2
284879761821,-4,0,-4,-5,7,-2,-1,-4
284879761821,0,-7,0,-3,-5,-1,-3,0
284879778145,2,3,-1,-1,-2,-2,-1,3
284879778145,1,0,-4,0,-1,5,-4,6
284879779752,-3,-2,-3,-2,-1,1,-3,-3
284879779752,0,-3,2,-5,1,-2,-4,-2
284879791796,1,0,-3,-3,-2,1,0,-2
284879791796,-3,-4,1,-1,-2,-9,-2,-2
284879800801,-3,2,0,-2,-3,1,0,1
284879800801,-1,0,1,1,-1,-2,-6,-3
284879823176,-2,-3,-3,0,2,1,1,2
284879823176,-5,-2,-1,2,3,0,-2,2
284879824725,3,-1,-6,0,-1,-2,-2,0
284879824725,-5,1,-4,-3,0,-2,3,-1
284879838116,0,1,-1,0,2,1,0,-2
284879838116,2,-1,-3,3,-2,-2,0,-1
284879839666,-4,0,-2,0,-2,-1,-5,-5
284879839666,-1,0,-1,-2,1,0,4,1
284879851788,-2,-3,-1,0,-5,1,-2,1
284879851788,-2,2,0,-3,-2,-2,-8,-1
284879860803,1,-2,1,-2,-4,0,-3,-1
284879860803,-1,-4,-1,-5,-1,-2,0,-3
284879875039,-1,1,-2,-1,-2,-2,0,-1
284879875039,3,0,-2,0,3,1,-5,-3
284879881793,-3,-3,1,0,-2,3,2,-3
284879881793,-3,-7,-3,0,-6,-1,-5,3
284879898173,2,-4,3,1,-3,0,0,0
284879898173,-3,-1,-2,-7,0,0,0,-1
284879899738,0,3,-2,1,2,-2,1,2
284879899738,3,5,-1,3,0,1,7,0
284879911818,-7,-3,0,-1,-1,-2,-3,-1
284879911818,-1,-3,0,-1,-5,2,-3,1
284879920775,-1,-1,3,-2,-1,-4,-4,1
284879920775,-2,0,4,1,-1,3,-5,-2
284879934973,0,-1,-4,-2,-1,0,0,2
284879934973,-1,-3,2,0,-1,-1,1,-5
284879941772,1,-1,-5,-2,-2,-3,4,-5
284879941772,3,-3,-1,0,2,-3,0,-2
284879958145,1,2,-1,-4,-1,-1,-1,0
284879958145,-2,-1,-3,-1,-5,1,0,2
284879959717,2,-2,3,-5,-1,-2,-7,-2
284879959717,-2,2,-4,-1,-2,-3,-4,-5
284879980680,0,-1,-1,-3,0,-1,-1,-2
284879980680,5,4,-5,-6,5,-1,0,-4
284879982235,-7,-2,-2,-5,-2,1,0,-3
284879982235,1,0,-7,4,0,-5,-3,1
284879995011,2,-4,-2,-2,-3,1,-2,0
284879995011,-1,0,-4,-2,-2,0,-2,1
284880001761,-3,0,2,0,-5,0,0,5
284880001761,-4,-8,-1,-4,-3,3,1,-5
284880018112,1,-1,1,0,-1,-1,2,-6
284880018112,-1,-4,-3,-1,0,4,-2,-1
284880019710,-6,2,-4,-2,-3,0,-3,-3
284880019710,-4,-2,-1,-3,-2,0,-3,-3
284880031819,1,0,-1,-1,7,-1,3,-3
284880031819,-2,1,-2,-3,-1,-4,5,-3
284880040748,4,-3,-1,-1,1,-3,2,0
284880040748,4,0,-4,2,-4,0,3,1
284880054704,-1,-1,-1,-3,1,-4,-1,-1
284880054704,-5,-2,2,-1,-1,-1,-2,2
284880063316,3,2,-1,1,-1,-1,2,-2
284880063316,1,-4,1,1,1,-1,1,2
284880078128,0,-3,-2,0,-7,0,-1,-2
284880078128,1,-1,3,-3,-2,1,4,-2
284880079766,2,-3,-1,3,-2,1,-2,-2
284880079766,0,4,0,-1,0,4,3,1
284880091793,-4,1,-1,0,0,2,0,-2
284880091793,-2,-3,-1,-2,-3,-2,-1,3
284880100794,0,3,1,0,3,2,2,-2
284880100794,0,-1,-1,-1,-1,-4,0,0
284880114981,3,0,-1,4,-1,-2,-3,1
284880114981,-3,3,0,4,2,-1,-1,-2
284880121777,-1,1,-4,0,-2,5,-1,2
284880121777,-1,-2,-1,-3,2,-6,-4,5
284880137242,-1,-5,2,-4,2,1,0,3
284880137242,0,1,1,2,3,-1,0,-2
284880145769,-1,-1,-2,0,-3,-4,-2,1
284880145769,-3,-1,3,0,0,5,-3,-2
284880151734,-3,-3,2,-3,-6,-1,-7,1
284880151734,0,1,-4,-4,-4,2,-7,-6
284880160803,-1,-4,-4,-6,-1,0,-3,-1
284880160803,0,-5,1,-6,-3,-1,1,-1
284880175006,0,3,-6,3,1,-3,0,-2
284880175006,2,-4,2,-3,-4,-1,0,-2
284880181769,0,-5,-1,-1,-1,-3,4,-6
284880181769,-1,3,-2,-6,-4,-2,-2,-1
284880198137,-1,1,-1,-2,-3,1,1,-2
284880198137,-2,1,1,1,-2,-1,0,-1
284880199751,-4,-4,0,0,5,0,-2,-1
284880199751,-4,0,-2,-1,-1,2,-3,-4
284880211786,-2,0,0,4,-2,2,0,-3
284880211786,-3,-5,-6,-3,-3,2,-3,3
284880220786,-2,6,4,-3,3,0,0,0
284880220786,-1,0,-2,2,-1,1,5,-3
284880235020,-1,-1,-3,-1,-1,-3,-1,2
284880235020,0,-2,-5,-1,-2,-3,2,2
284880241818,1,-1,1,0,-1,1,-3,2
284880241818,-3,-2,-3,-4,1,-4,-6,-1
284880258144,-4,-3,-1,0,0,0,5,-7
284880258144,0,-3,1,-2,-1,-1,2,-4
284880259769,-4,-5,-4,-6,-2,-1,4,-3
284880259769,-1,-4,-2,-1,1,-4,4,-3
284880271763,1,-1,-2,-1,1,3,-3,-1
284880271763,-1,2,-5,0,-2,-2,-1,-3
284880280772,-1,0,0,0,-4,-1,-4,-1
284880280772,2,3,-2,-5,-1,2,-1,-1
284880294991,3,1,-3,-4,-2,-2,-2,4
284880294991,-2,0,-2,-3,-5,-1,-3,-4
284880301815,-3,-2,0,-2,-1,3,-3,1
284880301815,3,2,-1,5,2,-2,0,-1
284880318117,-1,-4,-1,-3,-10,3,1,-2
284880318117,-3,-1,0,1,-1,-2,-2,0
284880319738,-2,-1,-2,0,-1,-3,1,2
284880319738,1,0,-2,-1,-1,-1,-3,1
284880331815,-1,-2,-1,-3,-2,-1,0,-1
284880331815,0,2,1,0,-2,-5,-1,-2
284880340797,0,1,-1,2,-4,1,-1,1
284880340797,0,3,2,-3,-4,1,-2,1
284880354976,-2,-4,-2,2,0,-3,-3,0
284880354976,-2,0,-1,2,5,-4,2,-3
284880361812,1,2,0,-4,4,-1,-3,1
284880361812,-4,-5,1,-1,-4,-2,2,0
284880378195,-1,-1,-2,-4,0,0,-1,-3
284880378195,-2,-6,-1,-1,0,0,-1,-4
284880379770,-2,1,-1,1,5,0,-4,1
284880379770,-6,-1,-1,3,0,-1,1,-3
284880391814,0,5,3,3,4,0,-2,-1
284880391814,4,-1,-1,-1,-2,-4,4,3
284880400871,0,1,-3,-4,-6,-3,-2,-2
284880400871,1,3,0,0,-2,2,-3,-7
284880414980,-2,-1,3,0,-1,-4,-1,-2
284880414980,1,0,-2,0,-4,1,-1,0
284880421808,-1,-3,1,-3,-2,-3,1,-4
284880421808,2,-6,-4,-2,-1,0,0,-3
284880438143,1,-1,-1,-3,0,-2,0,0
284880438143,2,4,4,0,1,2,-4,-1
284880439777,-2,-4,-1,0,-4,-5,-1,-2
284880439777,-1,4,-1,1,-1,-2,-1,0
284880451829,1,1,-2,-1,2,-1,-2,-1
284880451829,-4,-3,-1,-4,-2,2,3,-3
284880460780,1,-2,-2,2,-3,1,-2,3
284880460780,-1,0,-2,-3,-3,0,-2,-3
284880474277,-1,1,-2,2,-2,-3,4,-2
284880474277,3,1,-3,0,-4,2,-3,0
284880483312,-2,-1,-1,0,1,0,1,1
284880483312,0,1,-4,-2,0,1,0,0
284880498310,0,0,0,2,-5,0,0,-2
284880498310,-4,2,1,0,1,-2,-1,-1
284880499857,3,-3,0,2,-4,2,1,-3
284880499857,1,2,0,0,1,1,-5,3
284880511884,1,-6,-5,-1,-5,1,-7,-2
284880511884,-2,-3,2,-1,-4,-2,-5,2
284880520893,-4,4,-2,-2,2,-1,0,-6
284880520893,-2,-5,-2,-3,-3,-4,0,0
284880534346,-3,-2,0,-5,1,3,-2,-1
284880534346,-2,0,-2,0,-2,-2,0,-1
284880543398,0,-4,-3,-3,1,0,-2,-3
284880543398,-1,-2,0,-3,-5,-5,3,-1
284880558260,-4,-4,2,-2,-1,-2,0,0
284880558260,1,4,-2,0,-1,1,-4,1
284880559852,5,1,3,3,-3,-4,-1,-1
284880559852,-3,-3,0,-3,2,6,0,-2
284880571887,-1,-3,-1,-5,0,2,1,1
284880571887,1,1,1,0,-6,2,0,-4
284880580862,3,-5,-3,-1,2,-2,-4,1
284880580862,-2,-3,2,-2,-3,-3,1,2
284880594398,1,2,-1,1,0,-2,2,-2
284880594398,0,-8,1,-1,0,2,1,-5
284880603353,-4,3,-1,0,-10,1,-3,-4
284880603353,2,-6,-3,3,2,3,-4,-1
284880617621,-3,2,-1,0,-3,-4,1,1
284880617621,2,-4,-5,-4,1,0,-3,4
284880624356,-3,-1,-2,2,-3,0,0,1
284880624356,1,5,-3,-2,4,-2,1,-2
284880631856,-7,-3,-3,-1,1,-1,-3,3
284880631856,-1,-5,-4,0,-2,1,1,0
284880640895,0,-2,-1,-7,-1,-1,-3,-2
284880640895,-2,4,-1,0,-1,0,-6,0
284880663693,0,-1,5,-2,1,0,1,-3
284880663693,-3,-3,-4,-3,-4,-4,-2,3
284880665324,1,-2,0,-1,1,1,-1,1
284880665324,0,-1,3,1,-4,-1,-1,-1
284880677538,2,-4,1,-1,-2,-3,0,-3
284880677538,-1,-1,0,-2,-4,-5,-3,-4
284880684344,0,3,2,0,1,-4,0,-3
284880684344,-4,-3,-1,-1,0,1,-4,3
284880700695,3,1,-1,-1,0,4,0,0
284880700695,7,2,0,-1,2,2,0,-5
284880702252,-8,-5,-3,-5,-3,-2,3,-3
284880702252,2,-1,2,-1,-1,-5,0,-3
284880714297,-2,-1,-7,0,-2,-3,-3,2
284880714297,-2,1,-1,2,0,-1,1,0
284880723364,-1,-4,1,-2,4,3,0,1
284880723364,5,-1,-2,-1,0,2,2,-1
284880737650,3,-1,-3,2,2,-1,-5,-4
284880737650,0,-2,3,3,0,-6,2,0
284880744417,-2,2,0,-3,1,0,-4,-1
284880744417,1,0,-3,-2,-3,0,4,-2
284880760850,-4,-2,3,-1,-5,-2,5,-1
284880760850,0,2,2,-3,3,-1,-4,-2
284880762274,1,-2,-2,6,-2,0,0,-5
284880762274,-1,-1,0,0,-2,1,-2,3
284880774271,-2,0,-3,-3,-1,-2,-3,4
284880774271,-3,-1,-1,-1,-2,-2,-4,1
284880783286,-2,3,1,-8,0,-3,-3,1
284880783286,-1,0,3,6,0,-1,0,2
284880797534,-1,-2,-1,1,0,2,-4,-4
284880797534,-1,-2,-1,0,2,-2,3,1
284880804277,-3,1,-2,-4,-1,2,-1,0
284880804277,-4,0,-5,-7,-4,-4,-3,-2
284880820759,4,-1,0,1,-5,-1,-1,0
284880820759,-3,-5,2,-6,2,2,0,0
284880822242,-2,-3,-1,-2,-1,-1,-2,1
284880822242,-2,0,1,-5,-1,-5,3,2
284880834404,-1,-4,2,0,-2,-2,-3,3
284880834404,-4,-7,-1,1,-2,-3,-1,-1
284880843269,2,1,-3,4,-1,0,2,2
284880843269,1,3,0,5,1,2,-4,-4
284880857995,-2,2,-3,1,-3,-1,-2,0
284880857995,-1,2,1,1,-5,2,-1,-2
284880864396,4,-2,-3,1,-4,2,0,-5
284880864396,-3,-3,1,-3,2,-2,-1,-3
284880880784,1,-4,-1,-5,1,0,-1,0
284880880784,1,3,-3,-4,4,0,-1,-2
284880882339,-7,-1,0,-2,-1,-5,-2,4
284880882339,-3,-2,3,-4,2,0,5,2
284880894291,2,-1,-1,-5,-3,-3,-5,-1
284880894291,3,0,2,0,-1,-5,0,0
284880903338,-2,-5,5,-1,-2,-1,-2,-6
284880903338,4,-4,-4,-2,-3,0,1,1
284880917565,-2,6,2,2,4,-4,-2,-5
284880917565,-1,-3,-6,0,2,-1,0,0
284880924366,-4,-2,0,-2,3,-2,-1,2
284880924366,-5,0,-4,-1,-4,1,-3,0
284880948267,-5,-2,0,-1,1,2,4,2
284880948267,-5,-1,4,-4,-1,-2,-2,-2
284880949837,5,3,-5,3,0,1,-1,-5
284880949837,3,-1,-5,4,-3,-3,-2,-4
284880954315,-1,-1,-1,0,-2,-1,3,-3
284880954315,-1,0,-2,3,0,1,-7,0
284880963297,4,-1,-4,-1,-3,-6,0,-1
284880963297,-6,0,3,-2,-1,-1,0,-3
284880977572,-4,-1,4,-9,-2,-1,-3,-1
284880977572,2,0,0,0,4,1,3,0
284880984387,-2,-6,-1,0,-2,-4,-2,-1
284880984387,-3,-6,1,-1,2,-3,-6,4
284881000482,2,1,-4,5,0,-6,0,-2
284881000482,-1,-2,1,1,-1,1,-2,-1
284881006847,-4,1,-4,1,1,-3,-3,-2
284881006847,1,1,0,-1,-5,-6,-1,-3
284881014423,4,-2,-1,-1,-3,5,1,-2
284881014423,-5,0,2,1,1,-5,-1,0
284881023385,0,-3,2,2,0,-4,1,-1
284881023385,-1,0,-6,-4,-2,1,-5,-1
284881037630,-5,3,-3,-1,-2,-1,-3,-4
284881037630,-7,-4,-2,-4,-6,2,2,4
284881044383,-1,2,-2,1,-3,3,0,-3
284881044383,-4,0,-2,-2,0,0,-1,2
284881060773,-1,-5,-4,-1,0,0,0,1
284881060773,1,1,-4,3,-1,2,1,-1
284881062309,3,2,-1,-4,2,1,-1,-1
284881062309,2,-5,1,2,-5,3,2,-1
284881074422,4,0,-4,0,-1,3,-4,1
284881074422,4,2,1,0,-3,-1,0,-3
284881083392,-3,3,-1,2,-2,-6,-3,3
284881083392,-2,-1,2,-1,0,-3,1,-3
284881098093,-1,-4,-1,-1,1,-1,-2,-6
284881098093,-4,-2,-2,-1,-2,-1,0,1
284881104338,-1,-3,4,-2,0,1,1,0
284881104338,2,-5,1,-2,3,3,-3,2
284881120710,-2,0,-3,1,-1,-3,2,-2
284881120710,0,0,-3,1,-1,-5,-2,2
284881122255,0,1,0,2,-5,0,-1,0
284881122255,1,7,0,0,-6,-1,6,-5
284881134500,-3,1,3,-3,2,0,-1,5
284881134500,1,0,-1,-5,-2,2,-2,-3
284881143407,-1,-3,-4,-3,-7,-4,2,1
284881143407,-5,0,-1,0,2,-1,0,0
284881157618,-1,3,-1,0,-1,-4,3,-1
284881157618,1,0,-4,1,-4,1,-2,-1
284881164388,-1,-1,1,1,-4,4,-2,3
284881164388,-2,-2,-2,0,-1,-2,-2,1
284881180700,6,3,-3,3,-2,0,6,0
284881180700,1,-1,-2,1,-3,2,-7,2
284881182334,-2,-6,-2,-1,1,-1,0,-6
284881182334,-1,-4,-2,-1,-3,-2,-2,-1
284881194290,-1,-1,1,-1,1,-1,-3,-4
284881194290,3,-1,-1,0,3,-2,2,2
284881210862,-1,0,2,-1,-3,-2,-1,1
284881210862,2,0,-2,1,3,-6,-6,-4
284881225703,4,0,1,-2,2,-1,0,-3
284881225703,-4,-2,-1,-2,1,-2,1,-4
284881227290,2,-2,-6,-4,2,-4,-1,-2
284881227290,4,1,-4,1,-1,-1,-2,-2
284881240708,-7,-1,1,-1,-2,3,-1,3
284881240708,-6,-1,2,-2,-2,-5,-2,-1
284881242352,5,1,-2,0,1,0,3,-2
284881242352,-5,-4,-3,0,1,0,-1,-4
284881254363,2,-4,-3,-3,-3,-3,-3,3
284881254363,5,2,-2,-16,-2,1,-2,-2
284881263376,3,-2,-1,0,6,-1,0,0
284881263376,-1,-3,2,0,0,1,2,0
284881277619,1,-7,1,2,2,-4,0,1
284881277619,2,-1,2,3,-1,-1,2,0
284881284290,-1,-3,0,1,-2,0,-1,4
284881284290,-4,1,1,0,1,-1,1,0
284881300776,-1,-2,-2,-5,-1,0,-3,-5
284881300776,1,1,-5,1,-2,-3,0,-4
284881302279,0,-3,-2,0,0,-2,0,0
284881302279,6,0,1,2,-2,-4,0,-2
284881323289,-2,3,2,-4,1,-2,0,3
284881323289,-1,-1,0,6,-1,-5,2,-2
284881324827,-1,2,-2,0,1,0,2,-2
284881324827,2,-1,-2,-3,-2,-2,0,3
284881337588,1,-2,2,-3,-1,0,9,-5
284881337588,-2,-4,-1,1,-2,0,-6,4
284881344424,1,2,2,3,-1,-2,-6,1
284881344424,-6,-4,2,0,-1,-3,-5,-6
284881360735,0,-3,-3,3,-5,2,-7,-4
284881360735,-2,-2,1,4,3,-1,-2,-2
284881362324,-3,-4,-2,2,-1,-2,-4,-3
284881362324,-4,-4,1,-8,-2,0,-1,3
284881374457,1,0,0,8,-2,-5,1,-1
284881374457,-2,3,-4,-4,1,2,3,-2
284881383385,-10,-2,0,-3,1,-2,1,0
284881383385,-2,-1,4,3,2,-1,-2,1
284881397558,-4,-4,-3,-6,-5,-1,-5,3
284881397558,-5,-3,-4,-10,0,0,1,-3
284881404399,0,-3,-2,-4,-2,0,0,-1
284881404399,-1,-4,0,-6,0,-2,0,-2
284881420707,-3,-2,-2,3,-3,-2,-2,0
284881420707,-4,-1,-1,1,-2,-1,-4,-3
284881422246,-2,4,-2,-12,-7,-1,-7,-1
284881422246,3,-6,-4,1,0,-3,2,1
284881434372,-6,-3,-1,-5,5,1,-4,2
284881434372,1,0,-2,2,-3,-6,-3,-2
284881443413,3,-2,0,-1,-4,1,5,-5
284881443413,2,5,-1,6,-3,3,-6,1
284881457586,-4,-3,0,-3,1,4,1,-1
284881457586,-1,-2,2,4,1,-2,0,-4
284881464382,0,0,-1,-5,3,1,-4,0
284881464382,-5,-1,3,4,2,1,-1,-3
284881479858,3,0,-2,3,-2,3,0,-2
284881479858,0,0,3,-4,0,6,2,0
284881488364,-5,-6,-4,-9,-8,-2,2,1
284881488364,2,4,-3,3,-1,0,5,-4
284881494360,1,0,2,-1,-4,-5,-5,0
284881494360,-2,-6,0,2,0,-4,-6,5
284881503350,-1,-1,1,0,1,0,0,-2
284881503350,0,-1,-5,-1,-1,1,-3,-2
284881517597,0,-5,-1,5,-5,-6,-3,1
284881517597,-1,0,2,0,-7,-2,4,-1
284881524358,5,6,4,0,3,0,-8,0
284881524358,2,-3,2,-4,-5,0,0,-3
284881540686,-5,0,0,-5,2,1,1,-3
284881540686,0,4,0,-2,-3,0,-5,-1
284881542377,1,2,-2,7,-3,3,0,2
284881542377,2,-1,-1,3,1,-1,2,0
284881563209,3,-3,2,3,4,2,0,0
284881563209,7,0,-4,2,2,0,5,-3
284881564804,2,-2,-3,3,1,-2,1,-5
284881564804,-4,2,1,-1,0,1,2,2
284881577622,3,0,-4,-1,0,-3,-3,-4
284881577622,-1,0,-2,-3,1,-1,1,0
284881584377,-4,1,2,2,1,0,-3,1
284881584377,0,-2,0,0,3,-1,-1,0
284881600080,2,4,0,-3,0,-3,4,3
284881600080,-2,-4,2,0,-1,-1,-3,1
284881606879,-8,-5,0,-1,3,-5,1,0
284881606879,0,-1,-3,-5,1,-4,-1,-3
284881623307,2,1,0,3,2,0,0,-2
284881623307,0,0,-3,-1,2,-4,-3,0
284881624802,0,-4,-1,-3,1,0,0,-5
284881624802,7,-1,2,1,-4,-1,0,1
284881637563,-3,-6,2,-3,-1,0,4,-2
284881637563,-1,-4,2,0,-4,2,0,0
284881644313,1,1,0,0,-5,2,-3,-3
284881644313,-2,1,0,-2,-2,-1,-4,-1
284881660017,-8,0,2,-2,3,0,2,-1
284881660017,1,2,2,-1,-2,1,2,1
284881666857,2,-3,3,-3,2,-1,2,3
284881666857,-3,-3,-1,-3,2,-1,-5,-1
284881683271,2,5,-2,0,-3,-1,-4,-4
284881683271,0,3,-2,2,3,-5,-1,-1
284881684810,-1,1,5,-1,2,2,-1,3
284881684810,2,4,-3,-1,-1,-2,0,-3
284881697655,-3,1,5,-2,0,-3,-1,0
284881697655,0,-3,2,-1,0,2,-2,0
284881704367,2,-2,-1,-1,-4,0,5,-4
284881704367,1,3,-5,1,1,-2,-3,1
284881720123,3,-1,-5,1,4,1,-2,2
284881720123,-3,0,-2,0,-1,0,-1,1
284881726840,3,1,-6,2,1,-2,-2,1
284881726840,-2,0,-3,-4,-5,-2,-3,-3
284881743342,-4,-4,1,-1,0,0,0,0
284881743342,2,0,-6,1,-3,1,3,-2
284881744799,-2,-6,-2,3,-3,-1,0,1
284881744799,-6,1,1,-3,2,-4,1,-3
284881765748,-2,-2,-3,2,-1,-1,0,-3
284881765748,-3,2,1,-2,-1,-3,2,1
284881767308,-25,-3,-2,-2,-1,1,-2,2
284881767308,-8,-7,3,2,-5,3,1,5
284881780060,-2,-2,0,0,-4,1,-7,2
284881780060,6,-4,-3,0,5,1,-3,-3
284881786909,0,1,-4,-2,-5,-6,10,-5
284881786909,1,1,-3,-2,-2,-1,-8,-1
284881803217,-6,2,0,-4,-5,-2,-3,-2
284881803217,-15,-3,4,-2,-3,-4,-6,-1
284881804800,-8,0,1,-2,1,-4,-7,-4
284881804800,-19,-4,-1,-1,0,-3,-1,1
284881817574,-20,-2,2,-3,-3,-3,5,3
284881817574,-8,-3,1,0,3,-3,-1,-6
284881824324,-9,3,0,2,0,1,-3,-1
284881824324,-9,-1,3,2,0,-1,0,3
284881840028,2,0,0,1,-1,-3,0,-1
284881840028,7,6,0,0,-5,-3,0,2
284881846898,19,3,-5,3,-2,-3,-5,3
284881846898,23,-1,1,-2,-1,4,2,4
284881863253,28,-2,-3,2,-1,-4,2,-3
284881863253,26,-2,-4,0,-2,-2,1,1
284881864824,13,-2,5,-2,-3,-2,2,0
284881864824,30,-4,-2,0,-3,-3,5,-6
284881876976,24,5,-2,2,3,1,-5,-4
284881876976,8,-3,-3,-1,-5,1,-1,-3
284881893366,14,2,-1,-4,-2,-1,-8,1
284881893366,2,2,2,1,-2,0,-5,1
284881900515,-5,-3,4,-1,-6,-6,-2,-1
284881900515,-11,-1,-1,-2,-1,1,-5,-2
284881908450,-8,-5,-4,-3,-1,2,-3,2
284881908450,-8,1,-1,-2,-4,-2,1,-4
284881930815,-20,-3,-1,-3,-1,1,-3,2
284881930815,-4,4,2,2,-2,0,4,2
284881932349,-5,-4,0,5,-2,0,4,-1
284881932349,-2,0,3,0,6,0,-2,1
284881936781,-3,6,-3,-1,-1,1,0,2
284881936781,-5,0,1,-2,-2,-5,-1,-2
284881945911,-4,-1,-3,-3,2,-1,2,-5
284881945911,-6,-4,0,-2,1,2,1,-1
284881960083,2,-3,-2,-6,2,1,1,3
284881960083,2,-3,1,0,-1,2,3,0
284881966928,-2,-2,-4,-4,-4,-5,-3,-2
284881966928,-4,-3,-2,2,-1,-2,-2,1
284881983273,-1,1,1,0,-5,-2,-2,-2
284881983273,-2,-1,0,-2,1,6,-1,-3
284881984884,-2,-7,0,-2,-1,2,-2,1
284881984884,1,0,-7,-3,-2,-5,0,-2
284881997548,-7,-3,-1,-4,-3,0,3,-1
284881997548,-1,-3,3,1,-1,-1,-3,0
284882004410,5,7,3,3,-2,2,1,1
284882004410,3,-1,-4,-4,-3,1,-3,1
284882020068,-4,-3,-3,-4,-1,-1,-3,-2
284882020068,0,1,0,-1,-2,-4,-1,0
284882026945,3,2,1,3,1,-1,1,-1
284882026945,-5,-1,2,1,-1,0,0,-1
284882043325,1,-3,1,-2,1,-2,1,0
284882043325,0,3,-2,-3,-1,-2,-2,-1
284882044807,-3,-2,0,-7,-2,-4,0,0
284882044807,-2,-5,-2,4,1,-2,4,1
284882057595,3,2,-3,1,-2,1,-3,-2
284882057595,-5,-1,1,0,2,-5,1,-2
284882064449,-4,-4,3,-2,-2,-2,-1,-1
284882064449,-1,3,-4,-5,-1,-4,-1,-7
284882080085,1,1,0,-3,0,4,-2,-5
284882080085,-2,-3,2,-3,-3,-1,-1,-4
284882086881,-1,-3,0,1,3,-3,2,1
284882086881,1,3,-3,1,-3,0,-1,-3
284882103231,-1,-4,0,2,2,-1,0,0
284882103231,-2,0,1,-2,-2,1,2,-1
284882104854,4,5,0,7,-4,-4,-1,-3
284882104854,-3,-7,2,2,-5,0,0,0
284882116861,-4,-5,-3,0,3,-4,1,2
284882116861,-3,-5,0,2,-1,4,-1,0
284882125895,-2,-5,0,-1,0,0,-2,0
284882125895,-4,3,3,-1,1,-1,-2,3
284882140092,4,-4,-3,1,-2,-1,0,-2
284882140092,0,0,-2,0,-1,0,-7,1
284882146910,0,-1,-3,0,1,2,-4,-1
284882146910,0,-2,2,2,0,0,4,-3
284882163257,5,8,-6,2,-1,-3,0,-2
284882163257,-1,-3,-1,1,2,-2,1,0
284882164872,0,-4,-2,2,3,-1,-2,0
284882164872,-4,-1,1,-6,-2,-1,1,3
284882176852,-1,1,-2,2,0,1,-1,-5
284882176852,-5,-1,-2,-1,-1,0,-2,3
284882185932,3,10,1,5,-1,0,-3,-3
284882185932,7,5,-2,3,0,-3,0,-3
284882208166,0,-2,0,-2,-3,-2,-2,3
284882208166,1,-2,-6,-3,2,0,-1,2
284882209804,0,-4,0,-2,-5,1,-5,3
284882209804,-1,-1,-2,-3,2,3,0,-4
284882223167,-4,1,4,-2,1,0,-2,3
284882223167,3,-2,-1,-4,1,-1,-2,-2
284882224825,-2,4,-4,-1,-3,0,1,-2
284882224825,0,-1,3,-4,-3,-5,1,-3
284882236878,2,2,-3,4,1,0,-1,-5
284882236878,2,3,0,2,2,-2,-2,-1
284882245910,0,1,-2,-3,0,0,-1,-3
284882245910,-1,2,-1,-5,-2,2,-3,-1
284882260140,-1,-1,1,-5,-3,-1,-1,-1
284882260140,0,3,-4,-1,-3,1,-1,1
284882266912,-3,-4,0,-5,-2,-1,1,-2
284882266912,-6,-5,-2,-1,2,-2,-2,-1
284882283220,4,1,-4,-3,-1,-2,1,5
284882283220,-5,-2,-1,-6,-4,-1,1,-5
284882284850,1,-6,0,-2,-3,0,-2,1
284882284850,1,-1,-2,-1,-4,1,-2,1
284882296892,-1,-2,-3,-2,2,-2,-8,-6
284882296892,2,-4,1,0,-3,0,-1,-1
284882305888,-2,1,-2,3,2,2,0,-4
284882305888,-3,1,-2,-2,0,0,-2,-1
284882320075,-4,-7,0,-2,-3,-4,3,0
284882320075,-2,-3,-2,-3,-3,-2,3,-2
284882326932,3,-1,0,-3,-1,-4,-4,-2
284882326932,-4,-6,0,1,-1,1,0,5
284882343205,-2,1,1,-3,-7,0,-5,1
284882343205,1,-2,-5,0,0,-3,-2,-3
284882344790,2,0,-5,-2,-2,-4,0,0
284882344790,0,-2,-1,-1,-3,-5,-1,-1
284882356947,1,4,-4,2,2,0,-1,-2
284882356947,-5,-2,-2,-3,0,-3,-1,1
284882365894,-4,-2,-4,-2,0,3,-3,-2
284882365894,2,0,1,3,2,2,3,-3
284882380140,-1,-7,-1,-1,1,1,2,-3
284882380140,-2,2,1,-7,-2,2,2,0
284882394385,1,-4,1,1,1,-2,3,1
284882394385,0,5,1,-1,4,1,-1,-2
284882403265,-3,-2,0,1,-2,5,4,-1
284882403265,2,6,1,5,-2,-3,3,-3
284882404808,3,4,-1,-1,-8,2,0,1
284882404808,1,0,-4,-2,1,-2,-2,-4
284882416881,3,2,-1,-4,-3,-7,-3,1
284882416881,0,0,1,0,-2,2,-5,-2
284882425920,-4,1,-1,-4,1,-1,-1,2
284882425920,-5,-3,-3,2,1,2,-2,1
284882440722,-2,-1,3,-3,-2,-3,3,-5
284882440722,1,-1,-1,-2,3,-3,0,-2
284882446903,-3,-4,-5,-3,-1,-2,-4,0
284882446903,1,0,-1,-1,-5,-3,-5,-2
284882463267,10,6,-5,-2,-2,-3,-7,-3
284882463267,1,2,-1,2,-1,1,-1,2
284882464821,3,0,-4,2,4,2,3,-1
284882464821,2,-1,-1,-1,-2,1,-1,-3
284882476926,-2,-2,-3,-1,-1,-4,1,-1
284882476926,-5,-3,5,-5,7,-2,-1,-2
284882485908,-2,0,1,-1,-4,-3,0,1
284882485908,5,-3,1,-3,1,-2,-4,1
284882500110,-3,-4,0,-1,1,3,-2,0
284882500110,-3,-3,-6,2,1,-3,-3,0
284882506908,8,3,-4,2,0,-2,-1,-2
284882506908,-1,-3,2,2,-1,-4,0,1
284882522646,-7,1,0,3,2,4,-5,0
284882522646,1,-1,0,3,-1,-3,-1,-2
284882529455,-5,-1,4,-2,-1,-4,0,-1
284882529455,-7,-6,-4,-6,0,-1,-3,4
284882536905,-2,-2,-1,0,-1,1,1,-1
284882536905,4,1,-5,-2,-3,0,-1,5
284882545920,-3,-1,2,-1,1,-4,-6,-4
284882545920,-1,-3,-2,-7,-5,5,0,-3
284882560581,2,-1,-2,-1,-1,-3,1,1
284882560581,-3,0,-4,1,-2,3,-1,1
284882566906,-1,-2,2,-4,-2,-2,3,-1
284882566906,4,5,-3,3,2,-7,1,-4
284882582628,-2,-4,-1,-6,1,-2,-2,1
284882582628,-4,-8,0,-2,-3,-1,5,2
284882589417,2,1,-4,1,3,4,-4,-1
284882589417,-1,-1,0,-2,-5,-3,-3,-1
284882605736,-4,-4,-3,1,1,-1,-1,1
284882605736,2,3,4,2,3,-2,2,1
284882607323,1,1,-3,3,-3,0,0,-3
284882607323,-3,1,4,-3,0,-1,3,2
284882629059,0,-3,0,0,-4,-2,3,-2
284882629059,3,-1,-3,-2,2,-5,-4,-4
284882629883,-1,-1,0,-1,1,3,1,-2
284882629883,-1,3,-2,-2,1,-1,3,0
284882641973,3,2,-2,-1,0,-1,-1,-2
284882641973,-4,-3,-1,-2,2,-3,-2,-2
284882649474,-2,-6,-3,-1,-4,-1,-5,4
284882649474,0,-6,-2,-5,-5,-2,-1,1
284882665059,-3,-4,-1,1,2,3,1,0
284882665059,1,-1,-5,-2,-4,0,-2,-4
284882665841,-3,-1,-2,-6,2,0,-4,-2
284882665841,-4,0,-3,0,-2,1,-5,-2
284882680855,1,0,-1,-2,2,-2,0,1
284882680855,0,-1,3,-1,-6,0,-1,-4
284882686860,-3,-1,-2,-2,-3,-6,0,-4
284882686860,-5,-2,-5,-7,-1,-4,-2,2
284882701841,-2,-2,-1,-2,-1,0,0,-4
284882701841,-2,1,0,-4,-2,3,1,-2
284882709381,-4,2,-3,-6,0,-3,0,-1
284882709381,-3,-5,2,-1,-3,3,-3,1
284882726537,-2,-3,-1,-1,0,0,-1,0
284882726537,5,-2,-6,-3,-4,-3,-4,2
284882727291,1,3,1,0,-2,3,2,0
284882727291,-3,-2,-4,0,1,1,-1,1
284882740893,-1,-1,-2,0,0,-1,-2,-2
284882740893,-5,-1,-1,-6,0,4,-4,2
284882746896,-6,-3,3,-1,-2,1,-3,3
284882746896,5,5,0,2,1,-3,-4,-5
284882761896,2,6,0,-1,0,-1,-1,0
284882761896,-4,-4,1,-1,-4,0,-1,-1
284882769424,1,0,-1,2,0,-3,-1,-1
284882769424,5,1,-3,-1,-2,-3,1,-4
284882785157,-4,-5,0,-5,1,-1,-2,-3
284882785157,-5,1,-2,1,4,-2,-2,0
284882785919,0,-3,-1,-1,2,0,0,-1
284882785919,-3,-3,0,-2,-5,-3,0,-2
284882800953,-3,-2,2,0,3,1,0,0
284882800953,1,3,-1,-3,-3,-1,-2,0
284882806923,-1,-1,1,0,-3,-2,-8,-1
284882806923,-2,-6,-1,3,-2,2,0,-1
284882830119,3,0,-1,2,-3,-2,2,-3
284882830119,0,-3,-4,2,0,-2,3,-1
284882830887,-6,-3,2,-4,-3,3,-3,3
284882830887,-2,-2,1,-1,2,-2,0,0
284882845017,-2,1,1,-4,-4,-3,-7,3
284882845017,2,-4,-3,1,-2,-3,-2,-1
284882845781,0,-4,2,-4,-4,-7,-2,0
284882845781,-1,-1,-3,2,-1,-2,0,4
284882860832,0,0,-1,2,-7,-2,-5,-2
284882860832,-2,5,-2,-3,2,-1,-5,-2
284882875190,-3,-1,-2,-2,-3,-2,-1,-2
284882875190,4,-1,-3,1,-3,-2,-2,-1
284882881977,-3,1,2,-2,3,-2,4,-1
284882881977,-1,6,-2,0,-3,-2,0,-2
284882889460,-4,-1,-6,-3,3,0,1,-1
284882889460,-1,0,-1,-2,-1,-1,-2,2
284882905092,-6,0,1,-3,-1,2,2,1
284882905092,-3,-1,4,1,-7,3,0,-4
284882905906,-1,-4,0,0,2,-1,3,-5
284882905906,-5,3,-1,-3,0,-1,-2,-1
284882920904,0,1,-5,-2,-2,0,0,-1
284882920904,-2,-2,0,-7,2,0,1,0
284882926970,-5,-1,0,-1,1,-6,10,1
284882926970,-1,-3,0,2,3,3,-2,3
284882943425,2,-4,0,-6,-4,0,7,2
284882943425,2,1,-4,2,1,-1,-6,2
284882949486,2,-1,-6,1,-2,-1,-4,0
284882949486,-1,3,-2,-4,-2,-7,-4,-4
284882965122,-3,-1,-2,2,-2,2,-4,3
284882965122,-2,0,1,-1,2,1,-1,1
284882965841,1,-1,3,1,-3,1,-2,0
284882965841,2,0,-2,-3,0,3,2,-6
284882980932,0,-3,1,-1,2,-1,-3,-2
284882980932,-4,-2,1,1,-1,1,-3,-2
284882986941,-1,1,1,3,-2,-1,1,5
284882986941,-1,0,3,4,3,-4,-3,3
284883001878,-4,0,-2,1,-2,-3,-2,-2
284883001878,-1,-8,5,-3,-4,4,4,1
284883009428,-2,1,-3,-4,3,2,-1,-8
284883009428,1,0,0,1,-1,-1,0,-1
284883025108,-2,-1,-2,-6,-2,-4,-4,-2
284883025108,-2,-3,-2,2,0,-4,-3,-2
284883025846,4,0,-2,-2,-4,0,3,1
284883025846,-6,-2,0,-4,-5,-1,3,-5
284883040907,4,3,2,0,-5,-1,-8,-1
284883040907,0,-1,3,-1,0,-1,2,-1
284883046937,2,-1,-1,-2,2,-3,-7,-2
284883046937,-1,-2,-1,-4,-1,4,-5,2
284883061977,-3,-1,-3,1,-2,0,0,0
284883061977,-4,-2,-2,-3,-2,-1,-1,0
284883069478,-2,-8,2,-3,-3,0,-3,0
284883069478,-2,2,0,0,-1,1,1,-5
284883085097,-2,-4,-1,2,-2,0,0,3
284883085097,2,2,-2,-2,1,0,3,-3
284883085826,1,-1,1,-3,-2,-3,-3,1
284883085826,2,-3,-2,1,-1,-1,0,3
284883100946,-1,-5,1,-1,4,5,1,3
284883100946,-4,0,-4,-5,-7,1,-1,3
284883106883,-3,-2,0,-2,-3,-25,-3,2
284883106883,-6,-2,-2,-3,-5,0,-3,2
284883121908,1,0,4,-7,-4,-4,-3,-2
284883121908,-1,-1,-3,-5,-5,2,-3,-1
284883129415,0,0,-2,-9,-3,1,-4,2
284883129415,1,1,1,-4,4,-6,-6,-4
284883145058,1,-3,-8,-5,-6,-5,6,-2
284883145058,0,0,3,-6,-3,-7,-5,3
284883145841,-3,0,5,-1,-4,7,-4,0
284883145841,-1,-4,-1,-2,1,-1,1,-3
284883160938,4,2,0,0,-1,1,-4,-3
284883160938,0,-2,-3,7,4,0,-6,-4
284883166940,2,-2,-4,4,1,2,1,47
284883166940,1,2,5,1,-3,4,-1,-7
284883181954,2,-1,2,2,-2,-9,-8,-4
284883181954,2,-1,1,3,-1,-5,4,-5
284883189363,-1,-2,4,5,3,0,-3,-14
284883189363,2,-2,-3,-6,-3,-1,-5,4
284883205092,-4,-1,1,5,3,-2,5,3
284883205092,1,-1,1,0,-1,-5,-1,-2
284883205848,2,2,-1,1,-2,3,1,-10
284883205848,-3,-2,-2,2,-2,-1,6,-3
284883229005,-2,-2,-2,1,1,2,4,-5
284883229005,2,-4,-1,3,4,1,3,2
284883229815,-6,-4,-3,-3,-2,0,-2,-10
284883229815,4,-1,3,2,0,-3,0,-1
284883241957,-4,0,-3,-3,-6,0,2,-1
284883241957,1,4,-6,-2,1,-2,3,2
284883249449,-5,-1,-3,-4,-2,3,2,-3
284883249449,-2,-3,-3,-3,-2,-6,-3,0
284883265109,0,-3,-4,-1,1,2,-2,1
284883265109,-3,-1,-1,-5,-5,-3,-1,-2
284883265850,-2,-1,-4,-4,0,0,-3,-8
284883265850,-5,-3,-1,0,-4,-1,-1,1
284883280935,0,-3,-4,-3,-4,-1,-2,3
284883280935,-3,-2,1,2,-5,-4,-5,-4
284883286875,-4,-1,-2,2,0,0,1,-2
284883286875,2,-4,0,3,-2,1,0,2
284883301906,0,-1,2,2,0,-2,-1,1
284883301906,-5,-5,-3,1,2,-3,2,-4
284883309446,0,-2,0,-2,-2,0,-1,-3
284883309446,-2,-1,-2,2,3,4,-5,-3
284883325049,1,-4,-2,1,0,-1,-3,-6
284883325049,-1,0,1,-3,1,0,-3,2
284883325837,-3,0,0,-5,-2,-1,-3,-2
284883325837,-1,1,-1,-2,-3,0,2,-4
284883340925,-6,2,1,-6,1,3,0,1
284883340925,-3,-3,-1,0,3,-1,-3,3
284883346912,-3,1,2,-1,-2,-2,-2,-2
284883346912,-3,3,2,-3,-6,-3,1,-1
284883361995,-6,-2,-2,-8,-2,-1,-4,-4
284883361995,-1,1,-3,1,-2,2,2,3
284883369362,2,-3,-5,1,-2,-1,0,-2
284883369362,-1,-5,0,0,-4,-2,-3,-2
284883392620,-2,4,1,1,2,-2,-1,3
284883392620,2,-1,2,0,-1,-2,-6,0
284883393437,1,-2,-2,0,2,-3,1,-5
284883393437,0,2,-6,-2,3,0,2,1
284883400861,-2,-2,1,0,-4,-4,0,0
284883400861,-2,-1,2,-4,-4,-3,-1,-3
284883406948,3,-2,-5,-2,-3,-1,0,0
284883406948,0,2,-2,-2,3,3,-3,1
284883430067,-2,-5,1,-3,-7,4,-3,0
284883430067,-2,2,-3,-2,-1,0,-1,-5
284883430840,0,-1,-2,-1,-3,-2,-5,-2
284883430840,-3,-5,-6,-2,0,-3,-2,-2
284883444486,1,0,-4,-1,0,-1,-3,-2
284883444486,-6,-7,0,-7,-5,-3,3,-7
284883451982,-1,-1,0,-3,2,0,-3,1
284883451982,-2,-1,-3,0,0,-3,-3,-2
284883460938,3,0,0,-1,-2,-5,-3,1
284883460938,-3,-5,-8,-4,0,1,-2,4
284883466929,0,3,-6,0,-5,-4,-1,-3
284883466929,1,1,0,-1,-5,-4,1,-1
284883481943,3,0,1,-1,1,-1,-1,-1
284883481943,0,-2,3,1,1,2,-3,-3
284883489427,0,-1,-1,-3,2,-3,0,-5
284883489427,-7,-2,4,-5,-2,-6,-1,-1
284883504346,-1,-5,5,0,0,2,3,-4
284883504346,1,2,1,-2,-1,2,0,-2
284883511950,2,0,1,5,-1,2,1,2
284883511950,6,2,-2,-4,2,-1,-3,-1
284883527620,-3,-1,-3,-3,2,-1,-1,0
284883527620,-1,1,-2,4,-4,1,2,2
284883528369,-3,-2,0,-4,-2,6,-3,-4
284883528369,-2,0,3,1,-3,0,1,-1
284883541951,0,-1,1,2,-3,-2,1,-3
284883541951,-1,-2,0,2,-4,-5,-1,-6
284883549471,2,4,-1,-4,-5,7,-4,6
284883549471,2,0,0,-1,-2,3,-8,-2
284883564457,-3,0,-4,-1,3,-1,0,0
284883564457,0,-3,-3,-6,-4,3,-2,-3
284883571963,-2,-3,6,0,3,-4,1,-3
284883571963,-1,-6,-1,-2,1,1,-3,-1
284883587557,-2,-2,-3,0,-1,-3,-3,-1
284883587557,2,0,-1,-1,-1,-5,-5,1
284883588309,-2,0,-1,5,0,0,7,-2
284883588309,-4,-3,3,0,-1,-3,4,-4
284883601837,-1,2,1,2,-1,-3,0,-2
284883601837,-3,-2,0,0,1,-7,-3,1
284883609400,3,1,3,3,-3,-4,-2,-2
284883609400,-1,1,0,3,-3,2,5,-4
284883624441,-2,-3,-7,-5,1,2,0,-5
284883624441,0,-3,-2,-3,1,-1,2,2
284883631973,-2,4,1,2,2,-4,-2,-1
284883631973,-5,-2,-2,1,1,-2,1,-1
284883647647,-4,0,-4,0,-4,-3,-3,6
284883647647,-1,-2,2,-4,0,3,-3,-3
284883648409,-6,-3,-1,-3,-5,-7,-2,-2
284883648409,-2,-5,-5,-5,-3,-2,-8,-2
284883661956,-5,0,0,-2,-2,2,-5,-1
284883661956,-2,-4,0,-2,-2,2,0,-7
284883669356,-2,-5,-4,-3,2,1,4,2
284883669356,-2,2,2,-1,-5,4,-3,1
284883684499,2,-6,-2,-1,2,0,1,-4
284883684499,13,1,-4,3,0,-4,14,-4
284883691964,-3,-4,0,0,0,-3,-2,1
284883691964,0,-2,-3,0,0,0,-5,4
284883707526,1,-2,2,-3,1,0,-8,-1
284883707526,-3,-1,2,-3,-1,2,-3,0
284883708299,-1,-3,-3,2,0,2,-4,-1
284883708299,-2,-1,0,1,-1,2,4,-1
284883721875,-2,2,0,-2,0,-3,5,-2
284883721875,-3,1,-5,0,2,1,-5,-3
284883729361,-1,1,-1,-7,-3,1,-3,-2
284883729361,-2,-1,-1,-2,-1,-6,-1,1
284883744410,1,3,-1,0,-1,3,0,-1
284883744410,-4,-3,-2,-1,-1,-3,-2,1
284883751941,-2,1,-2,-2,-1,4,0,-1
284883751941,1,1,0,-1,2,2,2,-2
284883767619,2,-1,1,-3,-5,-5,0,-4
284883767619,-6,1,1,-3,-5,-4,-6,4
284883768385,-6,2,-1,1,1,-2,-2,-6
284883768385,-2,1,-3,1,-4,-1,-4,3
284883782016,-1,-4,-2,0,1,-1,-2,-5
284883782016,-3,1,1,0,0,0,-4,3
284883789460,6,3,-1,-1,-3,-1,1,-4
284883789460,-3,-1,-1,-5,0,-1,2,0
284883804438,1,-3,-2,-3,-5,-3,-1,5
284883804438,1,1,-1,-5,-5,0,1,-1
284883811971,0,-3,2,1,-4,2,-5,2
284883811971,-4,-4,-1,-4,0,2,1,-7
284883827541,-5,6,-3,1,-2,-1,-1,-2
284883827541,-1,1,1,6,1,1,-7,1
284883828372,0,-1,-1,0,-5,-2,2,2
284883828372,-1,-1,-2,-1,-1,-2,-3,2
284883841987,0,0,-3,0,-1,1,-2,1
284883841987,0,-6,-7,-3,1,-1,7,-6
284883849418,0,-5,3,-2,1,-1,-1,-1
284883849418,0,-2,-3,0,-1,-5,0,-3
284883864438,1,-1,2,-1,-1,1,1,-2
284883864438,-6,0,-1,0,-3,-3,-1,3
284883871972,-5,0,-8,-7,1,-2,1,-2
284883871972,0,-4,-3,2,1,-6,1,-1
284883887646,1,-2,0,1,-2,2,-2,2
284883887646,2,4,-2,-2,2,3,3,-2
284883888388,7,-2,-2,1,-1,-3,2,-2
284883888388,5,5,0,3,-3,1,-1,2
284883902009,-2,-1,-3,-3,1,-1,2,-2
284883902009,0,5,2,-1,1,1,-2,-3
284883909388,1,3,0,2,1,-1,-2,-1
284883909388,1,1,-2,-2,-3,-1,3,2
284883924426,0,3,-1,0,-2,0,1,2
284883924426,-4,-1,-2,-1,-3,-1,-5,-2
284883931943,0,0,-8,-1,6,0,-1,0
284883931943,-3,3,0,0,1,2,0,-5
284883947637,4,2,-1,1,-2,-1,1,1
284883947637,2,-3,0,5,1,-2,0,-1
284883948377,-1,-1,2,-3,-4,-4,1,2
284883948377,2,-4,0,4,-2,-2,1,-1
284883961930,-4,-5,-4,2,2,-4,-4,-2
284883961930,-2,1,0,-2,-3,-3,-4,-4
284883969433,-1,2,-5,3,-1,0,1,-1
284883969433,0,-2,2,-3,-1,-3,-1,-4
284883984452,0,-1,1,-5,-1,-4,1,0
284883984452,2,1,2,-1,3,-5,-5,-3
284883991990,-3,-3,-2,-4,-2,0,-1,-5
284883991990,-4,1,-1,3,-2,-2,-4,-3
284884007589,-2,-1,0,1,1,2,-4,-2
284884007589,-1,-5,-1,2,-2,0,3,0
284884008430,-2,1,-4,0,0,-2,-4,-5
284884008430,-1,-3,-2,-1,-2,1,1,-1
284884021919,0,-3,4,-2,-2,-2,-5,-4
284884021919,1,-2,-5,-2,-2,0,1,-2
284884029464,-2,-3,-2,4,3,1,-3,-3
284884029464,-3,-3,2,-5,-2,-2,-2,3
284884044409,-2,-3,-2,-4,-3,-2,0,-1
284884044409,1,-2,1,-4,-4,-1,-7,1
284884051889,1,-1,1,-4,-4,2,-2,-2
284884051889,1,-2,-1,1,-1,4,-1,-5
284884067525,3,4,-4,-1,3,-4,-2,-4
284884067525,1,-2,-1,-2,0,0,0,3
284884068352,-3,-2,-1,0,0,0,0,1
284884068352,-1,-3,-4,-2,5,0,0,0
284884081941,-2,-3,-2,-1,-4,0,-4,-5
284884081941,1,3,-1,2,0,0,-1,-1
284884089490,-2,-1,3,1,-2,-2,2,-1
284884089490,0,0,2,2,-4,2,1,0
284884104426,-1,2,-2,2,2,5,2,-3
284884104426,1,1,-3,2,4,2,3,3
284884111950,-3,1,-2,-1,1,-1,-4,1
284884111950,-3,0,1,-1,-3,2,-4,3
284884127635,-1,-2,1,-4,4,-4,0,0
284884127635,1,-4,-6,-4,-2,-2,1,-2
284884128418,-3,-5,3,-1,-2,-1,0,0
284884128418,2,0,-6,-3,-2,0,2,-4
284884141919,2,4,-1,2,-3,-2,-1,2
284884141919,-1,-2,3,0,3,-9,-1,-2
284884149404,0,4,0,-4,-3,-2,0,1
284884149404,3,-2,-1,-1,-1,-1,0,1
284884164470,-5,-1,0,2,-6,5,3,-1
284884164470,-7,-4,-2,-5,-6,-2,-1,-1
284884171914,4,-4,1,0,0,-2,-2,3
284884171914,-1,4,1,4,-1,-4,4,-2
284884187609,2,1,-5,-5,2,3,-5,-1
284884187609,0,2,0,-2,-2,2,-2,-5
284884188360,5,-1,-2,0,-3,-2,-6,2
284884188360,-3,-1,2,-1,2,0,-5,-3
284884201985,-1,-1,2,2,2,-3,4,2
284884201985,0,-1,-3,-2,-3,3,-1,0
284884209437,3,1,-2,-1,-5,3,-2,0
284884209437,-4,1,-1,-4,-2,-2,-1,1
284884224496,-2,0,-1,-2,1,1,-1,-4
284884224496,1,2,3,-3,-1,-2,-3,-2
284884231958,-1,3,-3,-1,-2,-2,2,1
284884231958,3,-2,-3,-5,-4,-5,-4,-1
284884247634,-3,-2,-2,-2,-2,0,1,-2
284884247634,1,-2,-2,-2,-4,-3,-5,-2
284884248389,-1,-4,3,1,0,-1,-6,-5
284884248389,4,4,-1,2,6,-3,-1,1
284884263483,2,0,2,-1,2,-5,1,-1
284884263483,-2,4,0,1,5,0,-2,0
284884269397,-2,4,-3,1,-2,-2,2,-1
284884269397,1,-4,-2,1,7,-3,0,1
284884284494,-3,-1,1,3,-1,-1,-4,3
284884284494,-1,0,-2,0,-3,0,0,-1
284884292049,0,1,-1,-3,-1,-2,2,-2
284884292049,-1,-1,0,-2,0,0,-3,-1
284884306955,1,-4,-5,-3,-5,-5,-4,1
284884306955,0,-2,-3,-3,0,-3,1,-4
284884315136,-3,-3,1,-4,-1,2,-4,-6
284884315136,-1,4,-6,-1,-7,4,-2,-2
284884321946,-3,0,0,-2,-2,-1,-2,1
284884321946,1,-2,-5,-1,-4,-2,1,0
284884329378,0,-3,1,1,2,-3,6,0
284884329378,-7,-2,-3,0,-4,-3,-3,-3
284884344413,2,1,-6,-2,-4,1,-2,-4
284884344413,3,-1,-4,-3,-2,2,-3,0
284884351913,-1,2,-1,1,2,0,-2,0
284884351913,2,-1,1,-3,-1,-3,2,0
284884367655,-2,-3,-7,-1,-2,-2,-5,-1
284884367655,-4,0,0,-1,0,-3,0,0
284884368397,-5,-3,-2,-3,-3,-3,-3,-2
284884368397,-2,0,-2,-1,-2,2,-5,1
284884382007,-3,-1,4,0,-2,1,1,-3
284884382007,-5,-5,-1,0,-2,2,-5,1
284884389514,0,-3,-3,-2,-3,-4,-2,-2
284884389514,-1,-1,1,0,-2,-2,2,-1
284884404404,-5,-5,-4,-3,0,-3,-2,1
284884404404,-2,5,-1,3,-2,-2,-3,1
284884411977,-2,0,-1,-3,-4,-3,1,-2
284884411977,-4,-3,0,1,3,-3,-6,-5
284884426971,3,-2,-2,0,-1,-1,2,-2
284884426971,-1,-3,1,-1,0,1,-1,-2
284884435176,-2,-1,-7,0,-2,2,1,-1
284884435176,-2,-2,2,-2,0,1,3,-2
284884441963,3,4,3,-2,-2,0,-4,0
284884441963,0,0,-1,0,4,-1,-2,-3
284884449495,2,0,2,-1,-2,-1,-2,1
284884449495,0,0,-4,1,0,-1,0,-6
284884464386,-1,-4,-4,0,0,-2,-1,-2
284884464386,-2,-1,-2,0,-2,-1,1,-2
284884471937,5,4,4,1,2,1,-2,-4
284884471937,3,4,0,0,-3,-1,-1,1
284884487009,0,-2,-2,0,-4,0,-1,0
284884487009,-1,1,0,1,-2,-1,-1,-2
284884495110,-1,0,0,1,1,-3,-3,5
284884495110,-1,-4,-3,-2,-4,-2,1,1
284884510158,3,2,-3,2,2,-1,0,-1
284884510158,1,1,-1,-2,-2,-5,-1,-2
284884510844,-3,-1,-1,-5,4,-3,0,-2
284884510844,4,-2,-2,1,-1,0,0,3
284884524468,-2,0,1,0,-1,2,0,-1
284884524468,-2,-3,-5,-6,0,-2,0,-5
284884531966,1,-6,-6,-1,-2,-3,-1,-1
284884531966,-4,-1,-3,-1,1,0,0,-1
284884546958,2,3,3,-1,-2,-4,0,-4
284884546958,-5,0,2,3,0,-3,0,1
284884555135,2,0,-1,-2,-1,1,1,-7
284884555135,0,-3,-1,-1,-3,-3,1,1
284884570108,-4,4,-2,2,1,-3,-2,2
284884570108,-1,-3,0,-2,-2,-3,-1,6
284884570861,1,1,-1,2,1,2,2,1
284884570861,-5,0,-2,-4,1,-1,0,-5
284884584420,-2,-3,-2,-3,0,-4,-2,-1
284884584420,2,-5,0,-2,-3,-5,-3,0
284884591935,-1,1,-3,-1,-1,-2,-2,-1
284884591935,0,2,-1,-2,0,3,-4,-1
284884606873,0,-3,-1,-3,-5,-3,1,-1
284884606873,1,-3,0,0,1,0,-5,-1
284884615135,1,1,-4,-2,1,2,-1,0
284884615135,5,1,-7,3,1,-6,-1,3
284884630125,-1,-2,1,1,-4,-3,3,-5
284884630125,-2,0,-2,-1,0,1,0,-4
284884630894,-1,1,3,-3,-4,-2,2,2
284884630894,-2,-1,-1,-5,1,-6,-2,-1
284884644440,-4,-3,1,-5,3,-3,1,1
284884644440,1,-1,1,3,-2,-3,-2,-3
284884651938,-3,-2,3,2,-1,1,-1,0
284884651938,-3,-2,1,-2,-1,2,0,-1
284884666998,2,-3,-1,0,-5,-2,-2,1
284884666998,-3,-2,1,0,-3,-1,3,0
284884675162,-1,0,-3,0,2,1,-1,2
284884675162,0,1,-2,0,-4,0,-3,-6
284884690118,-2,-2,-3,-1,-1,3,3,-1
284884690118,-1,0,-5,-2,1,5,3,0
284884690895,-1,2,-2,0,-5,-4,-2,-4
284884690895,-2,-3,-1,-2,-1,-3,-2,6
284884704471,1,1,3,3,4,1,-6,2
284884704471,0,3,-3,2,3,2,2,-3
284884711892,-1,0,1,3,3,-5,-4,1
284884711892,-1,-1,1,-3,-2,0,1,-3
284884726947,-1,3,-3,-3,3,0,-4,-2
284884726947,0,-3,1,-2,0,-8,-4,2
284884735138,-2,-2,1,-1,-3,1,2,-2
284884735138,0,-1,-2,2,0,-1,-2,4
284884750123,-1,0,-4,-1,-8,2,0,-2
284884750123,0,4,-3,0,0,1,-2,-6
284884750913,-3,-4,-5,-1,-11,-1,-1,-3
284884750913,-2,-1,4,-2,-2,-2,2,-4
284884764515,0,1,3,-2,0,0,-6,-1
284884764515,-2,2,1,0,-1,0,0,1
284884771970,-2,-2,0,-2,1,-4,-3,-2
284884771970,-3,1,-3,2,-5,2,0,2
284884786871,-3,-2,-2,-2,-2,-3,0,1
284884786871,-5,0,1,-3,1,0,1,-3
284884795066,-1,-1,2,-2,0,-2,-3,2
284884795066,2,-7,3,-1,-2,-1,0,-1
284884809872,-2,0,-1,3,-1,0,0,1
284884809872,2,0,-4,2,-5,-5,-5,5
284884817653,-4,-4,-3,-1,-4,0,1,-3
284884817653,2,2,-1,-1,-3,-4,0,1
284884824500,1,-1,-1,-2,1,0,-3,-1
284884824500,-4,-4,-2,1,-1,-3,-1,0
284884832047,-5,4,-3,1,2,3,0,0
284884832047,1,1,1,-2,5,-5,-2,-4
284884846988,0,1,-1,-1,-3,-6,-6,1
284884846988,1,0,-3,2,-4,-1,2,-3
284884855108,2,-3,-6,-1,-3,-2,1,-3
284884855108,-2,-1,-1,-2,-3,0,2,1
284884870145,-2,1,-1,-4,-4,1,0,-3
284884870145,0,-2,-5,-6,-3,1,-3,1
284884870938,-1,3,-1,-1,-2,1,-3,0
284884870938,1,-2,-4,0,2,0,0,-4
284884884409,-1,-2,-3,1,1,-3,0,-2
284884884409,-4,0,-1,-3,0,-3,-3,-1
284884891993,1,-4,8,-2,-3,-3,-3,0
284884891993,-2,-4,1,1,-3,-2,-4,-1
284884907027,-1,2,-2,-1,3,-1,-1,-2
284884907027,0,-6,1,-2,-2,-1,0,2
284884915176,-2,4,-2,1,0,-1,-1,0
284884915176,-1,-3,1,0,-2,5,1,-3
284884930125,0,-3,2,3,3,-2,-4,-2
284884930125,2,3,-2,-2,2,0,0,-2
284884930915,5,-1,-1,1,2,-3,2,5
284884930915,-4,-1,1,-1,3,1,-1,-1
284884944464,2,-2,1,-2,-5,-4,3,-1
284884944464,-2,-5,3,-2,2,-3,-4,1
284884952002,-5,-7,-2,-6,0,-1,-1,-3
284884952002,-5,-1,-2,-5,1,-3,-1,-2
284884967002,3,-5,0,-2,0,0,-1,3
284884967002,0,-3,5,1,0,-2,-3,-4
284884982675,-3,-2,-2,-7,-4,1,-3,-2
284884982675,1,2,0,-4,-1,-3,-3,0
284884989843,-5,-4,1,-7,-4,-2,-3,-1
284884989843,-2,0,2,0,-6,3,0,0
284884997728,0,-1,-3,4,0,-1,-4,-2
284884997728,-5,-1,3,-2,-2,1,0,-4
284885004431,1,1,-1,0,3,2,-3,-4
284885004431,2,0,1,0,-1,-1,6,-3
284885011934,-2,-2,-1,0,-3,-4,2,0
284885011934,-1,-2,-1,4,-4,-3,-2,-1
284885027025,2,-1,0,-1,0,0,-4,1
284885027025,-2,1,-1,-3,-3,0,0,1
284885035158,2,-2,-3,-1,0,-1,-3,2
284885035158,0,-2,-1,-1,-1,-6,0,1
284885050115,-5,2,-3,-1,-4,1,2,-1
284885050115,3,-2,-6,-3,-2,-4,-2,1
284885050902,2,-2,-1,-2,1,1,-1,-4
284885050902,2,-1,-2,-3,1,1,-6,-1
284885064457,-4,-1,-5,3,2,-2,6,-5
284885064457,-3,0,-4,1,-2,-1,0,2
284885071985,2,5,0,-1,-5,-3,-2,-2
284885071985,3,-1,-7,-3,-2,2,3,-2
284885086955,-5,-1,-1,-3,-1,-3,4,-4
284885086955,-1,-3,0,-4,-3,-1,-3,-4
284885095152,-1,-3,5,0,-2,-2,3,1
284885095152,-1,-4,-1,0,1,2,-3,2
284885110170,1,-3,-3,-1,-3,-3,-1,5
284885110170,-2,4,-1,-2,1,0,-2,-1
284885110892,-1,-2,-3,0,2,1,-6,-1
284885110892,-4,1,-1,-2,-4,1,3,1
284885124492,-1,-3,0,-1,-1,-1,1,0
284885124492,-1,-3,-1,0,-1,-1,-4,-1
284885131961,-3,-5,1,-4,0,2,-3,-3
284885131961,-1,-2,-3,2,-5,-6,-1,7
284885146980,3,-3,-3,-4,-4,5,-4,-5
284885146980,1,1,5,-2,-1,-1,0,0
284885155158,-1,0,-2,-2,1,-3,-3,3
284885155158,-2,-6,-5,-1,-3,-2,3,-7
284885170200,2,1,0,0,-7,-2,1,-1
284885170200,-4,0,0,0,1,-2,-1,0
284885170971,-4,-2,-3,-3,1,-1,0,-1
284885170971,2,5,-4,5,1,2,-2,-5
284885184472,2,-4,-3,1,2,0,-1,-1
284885184472,0,-4,-7,-3,-2,-1,-2,-2
284885192040,1,-3,1,-6,-4,-3,-1,-5
284885192040,-4,-3,-3,-1,-2,-5,-2,-2
284885206876,-9,-3,4,-7,-1,-4,-1,-1
284885206876,-2,-2,-4,0,-5,-4,0,-1
284885215156,-2,0,0,-4,-3,-5,3,-4
284885215156,-2,4,-4,-3,3,-2,-4,3
284885230029,-6,-5,0,-4,-5,-1,-5,1
284885230029,-6,-2,-3,-3,-1,0,-4,0
284885230847,-3,1,-2,-1,0,-3,-5,4
284885230847,-4,-5,6,-2,-2,-2,-2,-2
284885244357,1,-1,-7,-4,1,-5,1,3
284885244357,-2,-5,1,0,-3,0,-1,0
284885251957,-2,-4,-4,2,1,-1,2,2
284885251957,-1,-2,3,0,1,-2,0,1
284885266979,1,2,2,-1,-1,-3,3,1
284885266979,0,-3,-6,-5,-2,0,-2,-7
284885275167,-3,1,-3,-1,-4,-3,3,-2
284885275167,2,-2,0,-3,-3,5,0,-1
284885290177,2,0,-2,2,4,-3,-1,1
284885290177,1,0,-4,-2,-1,3,2,-1
284885290864,-2,2,0,-2,-3,0,-2,-2
284885290864,2,3,-3,-4,-4,1,-1,-2
284885304438,-4,-3,-2,-4,0,0,0,-2
284885304438,1,1,-1,5,1,-2,-2,1
284885311921,-1,1,-1,0,2,0,2,1
284885311921,1,0,2,2,-2,2,2,-2
284885327031,-1,2,0,5,-2,3,-2,-4
284885327031,5,1,1,-1,-1,0,-1,-1
284885335167,3,2,1,-1,-5,-3,1,-4
284885335167,0,1,0,1,-1,-2,0,-2
284885349511,-2,1,-1,0,0,-2,1,1
284885349511,-1,-1,-1,-3,-3,0,0,2
284885357635,2,2,-5,2,-2,2,-6,2
284885357635,0,-4,-2,-2,2,-6,-4,-4
284885364456,-2,-5,-1,1,-4,0,-2,-1
284885364456,-4,2,1,1,2,4,-1,1
284885371962,1,3,0,1,0,1,-2,-4
284885371962,-1,1,-5,-4,-5,3,1,3
284885386908,-2,-2,1,-5,-5,-4,-4,1
284885386908,-1,1,0,-2,3,-5,0,-2
284885395132,-1,0,-1,-2,-3,2,-3,0
284885395132,2,0,0,4,3,3,0,3
284885409495,0,3,-1,1,2,0,-3,-5
284885409495,2,-2,-5,-4,-5,3,2,3
284885417688,-4,-2,-1,2,3,-3,2,-1
284885417688,-2,-4,-1,-6,-6,-9,-3,-1
284885432610,1,5,-3,1,-4,0,-5,-1
284885432610,-1,-1,0,0,-3,-2,3,-1
284885433403,-1,-1,-1,-1,0,-1,3,-4
284885433403,-4,-1,0,-3,-1,-1,-2,-2
284885448483,3,0,-3,2,2,-1,1,-4
284885448483,-5,-1,-1,-3,-5,-3,-3,0
284885455135,0,-1,0,0,-4,-2,1,-2
284885455135,-2,0,-2,0,1,0,-1,2
284885469467,-1,-2,-1,-1,0,0,2,-4
284885469467,-3,-5,0,2,3,-4,0,-2
284885477697,-2,0,2,3,-2,2,-4,1
284885477697,3,0,-1,-1,3,-1,2,-3
284885492620,4,-3,-6,-3,5,0,1,5
284885492620,3,-4,-2,-1,4,-3,1,-1
284885493373,-1,-3,-2,-5,-4,0,-1,3
284885493373,-6,-1,-2,-3,-4,-3,1,-1
284885506934,0,-1,6,0,-7,-2,4,-3
284885506934,0,-3,-3,-6,-1,-1,-2,1
284885515157,0,-2,0,0,0,1,0,0
284885515157,0,1,-4,-6,1,1,-6,1
284885529386,-2,1,-1,2,0,-5,-3,3
284885529386,-1,4,6,2,-3,-3,-7,-6
284885537657,-3,-2,3,-2,2,-1,-1,-2
284885537657,1,-2,-1,-1,-3,2,-2,-1
284885552670,0,2,-3,-4,1,0,-1,2
284885552670,0,-1,0,1,-3,-2,0,0
284885553468,0,-4,-3,1,1,-1,0,-4
284885553468,5,1,-1,0,3,-3,3,-2
284885566932,-3,-4,-3,-1,-1,-2,-6,-2
284885566932,-3,-6,-2,2,0,0,2,1
284885575229,4,2,-3,-2,-5,1,-3,-1
284885575229,-1,1,0,-2,-2,-5,-1,0
284885589484,-5,-6,-1,-5,-3,0,0,-1
284885589484,1,3,-6,0,-2,-1,0,0
284885597637,-6,-5,-6,-4,-2,1,-1,-4
284885597637,-1,0,1,2,2,0,-1,-3
284885612574,0,0,-4,-4,-6,-1,1,1
284885612574,2,0,2,-1,-3,-2,-3,-3
284885613396,-2,0,-1,-4,2,-3,-1,2
284885613396,-2,-2,0,3,1,-2,-7,-1
284885627017,2,0,1,0,-1,-2,1,-1
284885627017,-2,-3,-2,-3,3,0,-3,0
284885635216,3,1,-3,-2,-1,-2,2,0
284885635216,-4,2,1,0,-3,-2,2,-4
284885649960,-2,-4,4,-2,2,-2,-3,-3
284885649960,-1,1,-6,-3,-1,-1,-4,1
284885657638,1,-6,-1,2,3,-5,-4,-3
284885657638,0,-2,3,-2,-2,6,-4,0
284885672668,2,2,-2,-2,-1,-1,1,0
284885672668,-5,3,0,0,-6,-3,1,2
284885673435,-4,-2,-2,0,3,-1,-2,-5
284885673435,0,1,-4,-1,1,2,-1,-2
284885687022,1,5,3,7,4,3,-1,-1
284885687022,-1,-1,4,-2,-3,0,-1,-3
284885695177,-1,1,-1,-3,-4,-4,-1,-3
284885695177,-6,-7,0,-3,-3,-1,-1,-1
284885709560,-2,2,2,-1,-5,-1,-1,-2
284885709560,2,1,-3,-2,0,-1,-4,0
284885717624,-1,1,-1,1,-2,-2,0,2
284885717624,-2,-4,-1,-5,-3,-3,2,-1
284885732624,-3,-3,-3,-1,-2,-2,-3,-2
284885732624,-2,-2,0,2,-3,-2,0,-2
284885733348,-3,-1,2,5,-5,-4,-1,0
284885733348,3,2,-4,2,-1,-4,-3,2
284885746928,3,4,3,-1,-1,0,0,-4
284885746928,-2,-4,-2,0,0,1,-1,-1
284885755171,3,4,-1,-3,0,0,0,2
284885755171,1,-2,-4,1,0,-1,4,0
284885769435,1,-3,-3,-3,-1,0,1,2
284885769435,-3,4,-1,1,6,0,0,-6
284885777725,5,3,0,0,1,-3,-2,0
284885777725,-3,-1,1,1,-2,-4,-2,1
284885792663,-1,-3,-4,2,-1,1,-3,1
284885792663,4,0,0,3,-3,2,0,-2
284885793428,-2,-1,-5,2,-1,6,-2,-4
284885793428,-3,-4,4,-3,-3,-1,-4,0
284885806959,3,3,-2,1,-2,-1,-3,-2
284885806959,-3,-5,0,-3,-3,-1,1,1
284885815230,-3,-5,-3,-4,0,2,1,-1
284885815230,1,1,3,4,2,4,1,-2
284885829456,-3,-2,1,1,-3,-1,-1,-3
284885829456,0,3,0,-4,1,-1,-3,-1
284885837718,1,0,1,-5,-5,-4,0,1
284885837718,1,-2,-1,0,0,0,-2,4
284885852650,-1,1,0,1,3,-7,-2,3
284885852650,-1,-4,3,0,0,-4,-1,-2
284885853383,-5,-1,0,2,-3,1,-3,1
284885853383,1,-2,-3,0,-4,-4,-1,-1
284885866926,-4,-2,-3,-2,0,-4,-2,2
284885866926,1,-4,-1,-5,-4,-4,-6,0
284885875191,-2,2,-2,0,0,-1,0,-2
284885875191,-2,-1,1,0,3,0,-1,-3
284885889460,-2,-3,-2,-2,-4,1,1,1
284885889460,-4,-1,-3,0,-3,0,-1,0
284885897721,3,-4,1,-2,-5,-2,-6,-4
284885897721,-2,-2,-5,-7,1,-1,0,-4
284885912712,-4,-1,-2,-2,0,0,3,-2
284885912712,1,1,-3,1,0,-1,-5,-1
284885913368,-6,0,-3,-6,-1,-1,2,-7
284885913368,0,2,3,0,-2,-2,-4,3
284885926942,-5,-4,-4,-4,-7,-3,-2,-1
284885926942,-2,-4,0,-1,-2,0,-2,-1
284885935260,-4,-5,-1,-1,2,-1,-1,0
284885935260,1,-1,-3,0,4,0,-4,-4
284885949457,0,-4,0,-3,-5,1,1,-2
284885949457,4,4,-1,-1,-1,1,3,2
284885957706,-2,-3,1,-1,5,-4,0,-1
284885957706,-2,1,1,-5,1,0,0,-1
284885972662,-2,0,2,2,2,3,-2,3
284885972662,1,-7,-1,-2,3,-3,1,2
284885973453,3,2,0,1,-2,0,-2,0
284885973453,-5,1,-2,2,-3,-2,0,-2
284885986927,0,0,-2,-1,5,4,-6,-4
284885986927,-1,0,1,1,-1,-1,0,-1
284885995212,4,-2,-2,-2,-4,2,1,3
284885995212,-1,-2,0,-2,-9,-3,-1,-2
284886009494,0,-5,1,1,-1,-3,3,-5
284886009494,-3,-2,-1,-1,-1,-1,1,-5
284886017637,1,-1,-1,-1,2,-3,4,0
284886017637,-1,-2,-3,-2,-5,-2,0,1
284886032632,7,-5,-2,-1,-2,-1,-2,-1
284886032632,1,1,-5,2,1,2,2,0
284886033407,0,-3,-2,-4,-2,-1,2,3
284886033407,-3,-1,-3,2,1,-2,2,-1
284886046969,0,1,3,-6,-2,1,0,-2
284886046969,3,4,2,2,-1,-3,0,0
284886055115,0,-3,3,4,0,-3,-1,-1
284886055115,0,-3,0,3,2,1,3,-1
284886069411,0,-3,-2,-3,0,-3,-4,-6
284886069411,-1,1,0,-1,-1,-2,-3,0
284886077674,1,1,0,1,-3,5,1,0
284886077674,-5,-2,3,-3,-3,0,-3,1
284886092608,-3,3,-1,2,-5,-2,0,-3
284886092608,-3,3,-4,-3,1,-1,0,-5
284886093411,-2,2,-3,0,2,-2,-4,0
284886093411,4,-2,-3,-1,-5,1,1,1
284886107096,1,-1,0,-3,1,-1,2,-1
284886107096,-4,-5,0,-2,-2,1,0,-1
284886115163,-2,-6,-1,-2,-1,1,-2,-2
284886115163,-3,-4,0,-3,-2,2,2,0
284886129510,-2,-3,-4,-2,-2,0,0,0
284886129510,1,-4,0,-2,-1,1,-6,-1
284886137681,-5,3,3,-3,2,-5,-1,-1
284886137681,2,-2,-1,-6,0,-5,-2,-5
284886152680,0,-4,-1,0,3,-4,1,4
284886152680,-3,2,-1,0,-3,0,0,-2
284886153452,-4,-6,-1,-2,0,0,-4,-2
284886153452,1,2,0,1,-1,2,-4,-4
284886166928,-2,-1,-5,-4,0,-1,-4,-1
284886166928,-3,-4,-3,-2,1,3,1,0
284886175164,-2,1,-3,2,-3,-3,1,1
284886175164,-2,1,-3,-5,1,-1,-2,-2
284886189488,0,-2,2,2,-5,0,2,1
284886189488,2,-2,-3,1,0,-4,-2,-5
284886197674,3,-2,-2,0,-6,-3,-4,-2
284886197674,0,0,-3,4,4,1,1,0
284886211983,-3,1,-1,-2,-2,-3,0,-1
284886211983,-2,0,1,-3,-2,-5,-2,-2
284886221012,-2,0,-6,-1,-4,0,1,1
284886221012,0,-1,0,0,1,2,0,1
284886226981,-2,1,1,2,-2,-3,-2,-1
284886226981,-2,-1,-2,1,-2,0,-1,-1
284886235920,1,0,-1,-1,-2,-1,1,-2
284886235920,0,3,-3,2,1,-2,-2,1
284886249569,0,-2,-6,-3,-5,3,-2,2
284886249569,-3,-2,2,-3,-1,-3,-1,-1
284886258500,-2,-3,-1,0,2,-4,1,-3
284886258500,-4,-8,0,-4,-3,-4,-3,0
284886280833,1,0,-2,0,1,0,-3,-1
284886280833,3,-1,-2,1,-3,1,1,0
284886282447,2,1,3,4,-2,0,0,1
284886282447,1,-3,1,-2,-2,4,3,-6
284886286919,-1,-3,1,-2,2,-1,1,-4
284886286919,0,-4,0,0,-2,0,-1,0
284886296051,2,1,-6,1,1,-1,-4,-1
284886296051,-3,-2,-1,0,1,-3,-3,0
284886309460,-1,1,1,-3,-1,0,-3,-5
284886309460,-2,1,-1,-1,-1,-1,3,0
284886318549,0,-4,1,-3,0,2,1,-4
284886318549,-2,-2,-3,-2,-5,-1,3,2
284886332035,-1,0,-4,2,0,-5,1,2
284886332035,-5,-6,-3,-1,-1,-2,-2,5
284886341014,1,0,-6,-1,1,0,-6,-1
284886341014,5,3,-3,0,-6,-1,3,-1
284886346926,-3,1,-4,1,5,-1,-2,-2
284886346926,1,-3,-1,-3,-2,-3,2,-2
284886356088,0,2,-1,1,-2,-5,-3,-2
284886356088,4,2,-3,0,4,0,0,0
284886369603,-2,-1,-2,-1,1,-4,-2,2
284886369603,-2,-3,0,-2,-3,-1,-5,-1
284886378441,-7,-4,-3,-6,-1,1,2,-4
284886378441,-4,-2,-3,1,-3,-2,-2,1
284886392057,1,-4,2,1,-2,0,1,0
284886392057,2,5,-3,-2,1,-2,-1,-1
284886401007,1,-2,-1,-3,2,0,4,-3
284886401007,-4,-3,-4,-6,-1,-4,-4,-2
284886415807,0,-3,1,1,-3,-1,5,-2
284886415807,3,3,-1,-3,-6,0,3,-5
284886417404,3,1,1,2,0,0,-1,1
284886417404,-3,-3,3,0,1,-1,-1,-3
284886429436,-2,1,-2,1,1,4,-3,-2
284886429436,-1,-5,-1,-1,-1,-3,0,0
284886438553,-1,-1,3,1,-1,-3,1,1
284886438553,-4,2,0,2,-1,-3,0,-2
284886452031,1,2,-3,0,-1,1,-3,1
284886452031,0,1,-2,-2,0,-2,-3,0
284886461108,0,-1,0,-3,-5,0,-5,-4
284886461108,-3,-4,-1,-1,-1,-1,-6,4
284886475656,-7,0,-4,-5,0,-2,-4,0
284886475656,-1,-5,0,-2,1,-2,1,0
284886481996,-1,-2,-6,1,-1,0,0,-1
284886481996,2,0,3,-4,-2,-5,1,-3
284886489521,3,-1,3,1,0,0,2,-2
284886489521,-6,-4,0,-6,1,1,-1,1
284886498485,-1,-2,0,-4,1,-1,0,-1
284886498485,1,-2,3,2,-2,1,-2,1
284886512015,0,1,-1,1,-2,3,0,-2
284886512015,-4,0,-2,0,-1,2,-2,-4
284886521015,-2,1,-1,1,1,-2,3,1
284886521015,-1,0,1,-2,4,0,-2,-3
284886535892,2,1,0,-2,-3,-4,-2,-3
284886535892,-1,0,-1,2,-3,-2,0,4
284886537432,2,3,1,1,-1,-2,-1,1
284886537432,-2,-2,-5,-1,-1,-4,0,1
284886549520,-3,2,-2,-4,-2,-4,-2,1
284886549520,0,-2,-2,2,-1,-4,2,3
284886558460,-1,-1,-4,1,1,3,-2,-2
284886558460,2,-1,-2,-1,0,-3,2,-7
284886572079,-1,-4,4,1,2,0,3,1
284886572079,0,6,0,1,-3,0,-4,-3
284886581013,1,-2,-4,-3,-3,-4,-1,3
284886581013,-3,4,-1,1,-3,1,-2,-1
284886595842,-2,-8,-1,-3,-3,-4,-3,1
284886595842,3,1,0,-2,3,4,2,-2
284886597460,-1,-2,1,-5,-5,0,0,-2
284886597460,-4,3,-2,2,-2,2,0,1
284886609540,0,0,2,0,-3,-3,-2,-6
284886609540,-4,-3,-1,1,-1,-2,-1,-4
284886618544,-3,-3,-2,-1,0,-2,3,-1
284886618544,0,-3,0,-2,-1,-3,3,0
284886631996,-6,3,-6,-3,0,-1,-3,0
284886631996,-2,-3,-1,1,-2,-2,2,-2
284886641000,-2,-2,-5,-6,0,-1,1,-3
284886641000,-2,-5,0,1,-3,-1,-2,-2
284886655813,4,-2,-1,-1,1,2,1,0
284886655813,2,0,-6,-1,-1,1,0,-5
284886657423,-3,-3,-2,0,2,-4,-5,-2
284886657423,-1,-1,-4,-4,0,-1,-1,1
284886669505,-1,-2,-1,-1,-3,3,2,-1
284886669505,2,-2,-2,-2,-2,-1,0,-2
284886678462,-2,1,-1,3,-2,2,1,-3
284886678462,-5,-1,-1,-5,0,-2,1,0
284886692058,-2,-8,-2,-3,-1,-4,-5,-1
284886692058,-2,-4,-3,-5,-4,-5,-3,2
284886701060,-3,-5,3,-4,-2,-1,-6,1
284886701060,3,-3,-1,-1,-1,0,1,-3
284886715846,0,1,-2,-1,-3,4,0,0
284886715846,-1,0,-2,2,1,3,-3,-1
284886717407,-3,1,2,0,-2,2,1,1
284886717407,1,-1,2,-2,0,0,-3,-1
284886729517,2,1,3,4,0,-2,2,5
284886729517,-4,-2,-2,-1,0,-1,0,-2
284886738483,1,-1,-2,-2,0,-3,2,-3
284886738483,1,-1,-1,-1,5,2,-1,0
284886752019,2,-3,-4,-2,-1,-2,-4,-5
284886752019,-1,-2,3,-1,0,-3,-1,1
284886761068,-2,0,-5,1,0,0,-2,0
284886761068,1,2,-2,0,-2,2,-2,-3
284886775872,-2,-1,1,0,-2,-5,0,0
284886775872,3,-1,-4,2,1,-1,0,-1
284886777448,1,3,2,0,1,0,-6,-1
284886777448,-1,-2,-4,1,-3,0,4,-3
284886789469,-8,-2,-1,1,0,-1,0,-2
284886789469,1,-1,1,-5,0,-4,3,-1
284886798472,3,0,4,-3,-3,2,-5,1
284886798472,4,-1,-2,0,-1,2,0,3
284886812110,1,3,-3,1,1,2,1,-3
284886812110,-1,0,0,-4,-5,-2,-4,0
284886821015,-1,-3,-1,0,-3,1,-2,1
284886821015,2,1,-3,-1,0,-2,1,2
284886835884,-1,-2,3,-4,2,-3,0,-5
284886835884,-4,-3,-3,2,-2,2,-1,0
284886837414,2,-3,0,-4,-3,-3,0,-2
284886837414,0,3,-1,-2,-5,-4,-5,-2
284886849472,-1,-1,0,4,0,2,0,0
284886849472,-1,7,0,-1,-4,2,3,1
284886858484,-3,0,3,3,1,-2,6,-2
284886858484,-3,-1,-2,-3,-4,0,-4,1
284886872037,-3,4,-3,-5,-3,-2,3,1
284886872037,0,-3,-1,-2,1,-3,-3,-2
284886881030,-3,-1,-7,0,-3,-1,-1,0
284886881030,-4,-2,-5,-3,-4,1,-2,-3
284886895896,4,3,0,-1,2,-2,0,2
284886895896,-3,-3,-1,-2,0,5,-4,-1
284886897455,-1,1,-1,3,-1,0,1,1
284886897455,-3,1,2,7,0,-2,-2,0
284886909547,-2,-2,-5,-4,-1,4,-3,0
284886909547,0,2,-3,0,0,-1,2,4
284886926056,-2,-2,-2,-3,2,-4,2,-1
284886926056,-2,-1,0,-8,-3,0,1,1
284886932092,-1,-1,-2,0,-2,1,-4,-2
284886932092,0,-2,0,-3,1,-5,-4,-5
284886941024,-5,-2,1,-3,-5,-1,-3,-1
284886941024,-3,1,1,1,4,0,-4,-3
284886955765,0,-3,1,1,-4,-4,-2,-6
284886955765,-2,0,0,0,2,-1,-2,0
284886957378,0,4,-1,-1,0,-4,3,-1
284886957378,-1,-2,0,1,1,-2,0,2
284886969570,-5,2,0,-1,0,4,-5,2
284886969570,-1,1,1,3,-2,1,0,-3
284886978479,1,-3,0,-2,-7,-1,-5,0
284886978479,-1,-1,2,-4,1,-2,0,0
284886991972,-2,1,-3,-1,1,1,3,1
284886991972,0,-3,1,-2,0,-2,-2,-2
284887001053,-1,-2,0,2,1,1,6,2
284887001053,-3,-4,-2,-5,-2,-1,-9,-2
284887015862,0,-4,-2,-5,-3,-2,-8,-6
284887015862,-1,0,-4,-4,-2,3,-1,-4
284887017498,-2,-4,-2,0,1,0,-5,4
284887017498,1,-8,-4,-3,-2,-5,2,-2
284887029538,-2,1,3,-3,-3,1,4,-1
284887029538,1,-2,-2,0,-4,4,4,2
284887038483,-3,0,-3,0,-1,1,-6,-7
284887038483,-3,-3,-3,-2,-4,4,3,-2
284887051990,-2,-2,-3,0,-1,-3,1,3
284887051990,-4,-2,-4,0,-2,0,-1,-2
284887061073,-4,1,1,-2,-2,2,-5,0
284887061073,-1,-1,-1,2,-1,2,3,2
284887075792,-3,-3,-2,-4,-2,-3,4,-2
284887075792,3,2,0,-1,-6,-5,0,1
284887077425,-1,0,-3,-3,-6,-2,-2,0
284887077425,-3,-1,1,4,-2,1,-2,-2
284887089502,1,0,3,2,2,1,0,3
284887089502,-3,-3,-2,1,0,1,-5,1
284887098476,0,0,-2,-2,4,1,0,-6
284887098476,2,1,-3,-1,-3,-4,2,-4
284887112058,4,-3,1,1,1,1,0,-1
284887112058,-2,-1,1,-3,-2,0,2,0
284887120976,-1,-3,-1,-2,1,0,0,-1
284887120976,0,-6,1,-2,1,1,-5,-1
284887135917,1,0,-2,1,-3,-1,2,1
284887135917,2,-2,-2,-3,0,-6,-1,2
284887137453,-2,-6,0,-4,1,-3,-2,2
284887137453,4,3,-2,0,0,-5,-4,-3
284887149503,-3,1,-4,-6,-5,-2,-3,-2
284887149503,-1,-3,-5,-2,-1,1,-3,-3
284887158530,-1,4,0,5,-3,0,3,-3
284887158530,-1,1,0,2,0,-2,6,1
284887171953,-4,-3,0,-1,4,-3,-3,-2
284887171953,0,2,0,1,-1,1,2,4
284887181119,2,0,-1,-3,0,0,-2,-3
284887181119,-1,3,1,1,3,-3,0,1
284887195857,2,0,-2,-1,0,1,-2,-2
284887195857,-2,0,-1,-3,-4,0,-2,4
284887197428,-1,-1,-5,-4,-3,0,-2,4
284887197428,4,-2,-4,2,-2,-1,3,-1
284887209537,-4,-2,-2,0,1,-1,-2,2
284887209537,-2,-5,-3,0,2,-2,-3,-3
284887218488,3,-3,-1,-2,-1,-2,0,2
284887218488,-1,0,0,-2,-4,-4,-3,3
284887232064,4,2,0,1,-2,-6,-1,-1
284887232064,-1,-2,2,-1,2,1,-4,-1
284887240980,1,0,0,1,-1,-2,0,1
284887240980,-4,0,-3,-4,-5,2,3,1
284887255181,-3,-4,-4,-1,-7,-2,1,2
284887255181,3,-1,1,1,-4,-1,1,-1
284887262054,0,3,-4,3,-2,-1,-3,-2
284887262054,2,1,-2,-5,0,0,-6,-2
284887278386,2,2,3,-1,0,1,2,3
284887278386,0,-1,-1,2,0,-4,0,0
284887280001,2,0,-1,-2,-3,-1,0,2
284887280001,0,0,3,-1,-6,-4,-3,0
284887291985,2,2,-1,1,-1,0,-10,3
284887291985,-3,1,-4,-2,0,1,0,-3
284887301053,-2,1,3,-2,0,-3,-1,-4
284887301053,0,-2,-3,-2,5,0,-3,0
284887315150,-1,-6,-1,-4,-2,0,2,-2
284887315150,-3,5,4,2,-3,-1,0,1
284887321947,-3,-7,-6,-2,-1,1,-3,-3
284887321947,-2,7,-1,3,-1,1,-2,-3
284887338358,1,1,-4,2,-2,-3,1,-3
284887338358,0,0,5,-3,4,1,-4,0
284887340007,3,4,0,2,2,-1,1,-2
284887340007,-5,-1,-2,-1,4,-2,-1,-2
284887352061,1,-5,-7,-2,0,-2,-3,-1
284887352061,0,-3,-6,-1,-1,-3,4,1
284887361017,0,-1,-1,1,-2,0,4,2
284887361017,-3,-6,-4,-6,4,1,-3,-1
284887375101,-5,0,1,0,3,-5,0,-2
284887375101,-3,-3,-4,-2,-4,-4,2,-2
284887382072,-1,0,0,-2,1,0,-3,1
284887382072,1,-5,1,3,3,-2,0,3
284887398432,-1,0,0,-2,-1,0,0,-3
284887398432,1,1,-3,-2,1,1,-4,0
284887400032,-3,-6,-1,-1,-1,0,0,-2
284887400032,-3,-5,-2,0,-6,-2,0,-2
284887412058,-3,-4,0,-3,-4,1,-4,-5
284887412058,1,-9,2,1,-4,1,-4,-2
284887428501,-4,-6,-5,-4,-1,-2,0,0
284887428501,-1,1,-3,-4,1,-1,1,-4
284887435207,-1,-4,2,6,-1,-1,3,-1
284887435207,-4,1,1,-5,-3,-4,-6,-2
284887442027,-5,-2,2,2,-3,-1,-2,-1
284887442027,-1,-1,1,-3,0,-2,0,-1
284887458370,-4,2,-5,-1,-3,-2,-2,1
284887458370,-4,-7,-4,-4,2,-2,1,-1
284887459995,-2,0,-2,-2,1,-4,-6,-1
284887459995,0,-2,2,-1,-3,2,1,-1
284887480897,-3,-4,-1,-1,1,1,-1,-1
284887480897,2,2,-2,0,0,-1,0,-2
284887482464,4,3,-1,1,-5,0,0,-3
284887482464,-3,-1,-5,2,-1,-2,3,-2
284887495203,2,2,1,-3,2,2,0,0
284887495203,3,1,-1,-4,-3,0,0,-4
284887502071,-2,-4,1,-2,-3,-2,1,0
284887502071,4,2,-1,-3,-3,-2,1,-1
284887518360,0,0,2,0,1,-3,2,0
284887518360,-3,-2,-1,3,-5,-1,-3,-3
284887520002,-3,4,-1,-3,-1,-2,-1,-4
284887520002,-5,1,-1,-1,1,3,-2,0
284887532062,0,-2,-2,-1,-2,-1,1,0
284887532062,5,-1,0,-2,2,-1,-2,-3
284887541055,1,-1,-3,-3,-1,-2,-2,-2
284887541055,2,-5,-2,-2,-3,-1,5,-1
284887555217,-6,0,-1,3,2,-1,1,-1
284887555217,-3,-1,0,-1,4,0,-1,-2
284887562023,0,-3,0,3,-2,5,1,-1
284887562023,0,0,0,-6,-4,0,0,0
284887578368,5,-1,0,-1,-1,1,-3,-2
284887578368,1,0,0,3,2,-3,1,-4
284887579980,2,0,0,0,1,0,-1,-4
284887579980,-1,-2,1,3,5,0,-6,3
284887592085,0,2,-2,2,-4,0,-3,-1
284887592085,-4,1,-4,-1,-6,2,-2,-1
284887600991,1,1,0,-5,-2,-1,5,0
284887600991,-1,-1,-1,0,-3,0,0,1
284887615166,3,-1,2,-4,-1,-4,0,-5
284887615166,-4,-2,0,-2,3,-3,-1,1
284887622064,-2,-1,2,-4,3,-2,-1,0
284887622064,1,3,-3,1,-6,0,0,-2
284887638391,1,4,1,-5,2,0,-1,0
284887638391,-1,5,-3,-9,2,-5,4,1
284887640046,-3,0,-8,-10,11,-11,9,2
284887640046,1,5,-12,-16,57,46,39,-3
284887651983,2,1,-12,0,58,71,84,3
284887651983,-7,-16,-2,14,4,66,49,18
284887661069,-4,0,-15,-1,-35,-6,-63,7
284887661069,-6,-9,-27,-16,-29,-100,-103,-14
284887675212,5,-1,-2,-19,-42,-107,-75,-12
284887675212,8,4,16,13,-53,-64,-30,-12
284887682016,-15,-19,31,-11,-37,-9,22,9
284887682016,-7,-5,41,10,-15,11,15,3
284887698333,0,14,2,-32,20,4,11,0
284887698333,17,14,4,39,23,1,16,-1
284887699994,1,12,4,36,7,7,33,-1
284887699994,-1,11,-21,17,16,17,28,13
284887712065,-2,-10,-3,6,19,14,-14,4
284887712065,-14,-22,11,-11,0,17,-30,-8
284887721052,-8,-27,-19,-13,-3,13,-16,-14
284887721052,1,-10,6,-8,-10,19,-8,-12
284887735228,1,12,-10,-1,-21,8,0,-2
284887735228,-12,21,-6,-33,-6,-3,-7,9
284887742030,0,13,8,-7,5,-5,12,5
284887742030,-1,-6,-9,5,-16,-3,31,14
284887758449,-2,-14,-9,21,-8,-8,5,13
284887758449,8,-5,-10,-6,1,-13,6,2
284887759979,17,8,-12,6,16,-2,10,-5
284887759979,17,19,9,4,3,-2,-13,-9
284887772019,15,24,19,-4,-13,3,-12,-11
284887772019,-14,11,-34,-22,1,-6,-2,-8
284887781054,-32,32,28,-18,2,2,-1,4
284887781054,-4,38,3,-14,-17,3,2,7
284887795261,-7,31,-8,-16,-12,3,14,8
284887795261,3,15,-7,-11,3,0,31,-2
284887802028,-2,30,-22,-2,7,-1,11,-13
284887802028,14,-25,-17,-18,-4,1,-2,-4
284887818395,-26,-37,-7,7,-3,-4,-19,-10
284887818395,1,-52,-66,-14,7,-2,-24,-8
284887820057,-10,-70,-47,-8,9,-1,-18,-2
284887820057,1,-51,-15,-31,5,4,5,-13
284887832097,13,-70,-14,6,-1,9,3,5
284887832097,21,-44,5,-7,7,3,-9,-2
284887841053,11,41,14,-4,5,15,-1,12
284887841053,4,-4,-3,24,9,11,15,-2
284887855278,-7,-23,2,13,-2,7,29,-14
284887855278,-3,29,16,8,-3,-5,26,-5
284887862029,12,17,4,11,6,-4,-30,-66
284887862029,-28,16,-7,14,-4,-10,-27,4
284887878424,-13,14,-1,11,-13,-11,-26,-9
284887878424,-12,-21,4,7,-25,-4,-14,6
284887880005,-2,-34,-1,-7,-17,-9,-1,17
284887880005,3,-16,-5,2,-11,-11,-1,-5
284887892110,9,-8,-8,-7,-4,-5,4,1
284887892110,3,22,11,5,4,-4,2,-8
284887901063,17,14,-14,15,-1,0,9,-4
284887901063,3,15,-1,8,-2,1,8,-11
284887915222,-1,13,1,2,1,7,17,-4
284887915222,-6,-7,1,-16,3,19,10,-5
284887922063,-4,-9,9,-5,6,12,14,7
284887922063,-4,-7,15,-2,0,10,4,10
284887945819,-4,11,2,-8,2,2,-10,6
284887945819,-1,14,7,9,3,-5,-14,0
284887947470,1,-15,-1,4,1,-12,-7,2
284887947470,-5,6,2,-3,0,-15,-9,-7
284887952091,-2,6,-6,-8,3,-11,-14,2
284887952091,-8,-7,4,-1,-3,-10,-5,3
284887961055,-6,-9,2,-6,-1,-6,2,12
284887961055,-1,-5,2,-11,-2,0,-1,7
284887975213,0,1,3,-1,-4,-3,8,1
284887975213,6,2,-1,1,-3,-6,-6,-6
284887982085,1,3,0,0,-4,-6,0,0
284887982085,-1,7,-2,1,-6,-7,-2,-1
284887998383,7,6,-5,3,-7,-4,-7,-4
284887998383,-2,4,3,2,1,5,2,-1
284887999998,5,-5,-6,-6,-5,8,2,1
284887999998,-4,5,0,-1,1,8,-1,0
284888012089,3,-1,-3,-17,2,6,5,3
284888012089,-6,0,2,-18,-1,2,-3,4
284888021004,2,-2,-1,-11,-1,1,-2,1
284888021004,0,0,3,-2,-2,-6,0,-6
284888035273,0,3,3,13,1,0,-4,-7
284888035273,-2,2,7,26,-1,-2,-2,-7
284888042077,-2,-5,3,11,-1,-1,2,-3
284888042077,-2,-4,-4,-8,-2,1,1,5
284888058358,0,-6,-10,-20,-8,1,0,7
284888058358,1,-1,3,-17,-6,-2,6,7
284888060006,3,-5,1,-7,-2,0,1,0
284888060006,-6,3,0,9,16,2,14,-2
284888072093,-4,-5,22,12,18,2,-2,2
284888072093,-1,6,-9,1,18,-14,-1,-10
284888081019,1,-2,6,19,-18,5,-19,-10
284888081019,1,0,-24,7,-36,-11,-25,-8
284888095191,-2,-2,-18,-2,-30,1,-17,-2
284888095191,-4,-12,-34,-13,-16,-3,1,10
284888109456,-5,-3,-5,-17,4,-3,4,6
284888109456,0,4,-4,-5,12,1,-3,-2
284888117433,6,5,12,6,9,-3,6,-4
284888117433,5,8,15,3,0,-3,2,-6
284888126051,-1,1,-5,6,4,-5,7,-10
284888126051,2,2,4,3,5,3,7,1
284888132098,-10,-2,-5,1,2,-2,7,0
284888132098,2,-6,1,-7,-2,6,4,0
284888141057,-8,-2,-3,-11,5,3,5,9
284888141057,-2,-4,11,-12,0,5,5,5
284888155241,-2,1,1,-6,1,4,-1,-3
284888155241,-3,0,-6,1,-2,3,-6,-3
284888162057,3,0,-3,4,-3,-3,0,-3
284888162057,-2,-1,0,1,-3,-3,-3,-10
284888178383,0,-1,-5,-1,0,-5,-1,-5
284888178383,1,0,4,3,1,-4,0,-4
284888179996,2,1,1,-1,0,-2,2,2
284888179996,-1,-6,5,-2,-3,1,7,5
284888192055,-5,0,-2,-3,-7,0,8,4
284888192055,0,-1,-2,1,-1,4,3,1
284888201024,-7,-3,-2,-1,3,-5,0,-1
284888201024,0,-1,-6,2,1,-8,-2,-2
284888215184,2,-1,1,2,-1,-2,-1,-2
284888215184,1,3,-1,1,-1,-2,-6,2
284888222052,2,-1,-7,3,2,2,3,2
284888222052,-8,0,0,1,3,0,3,2
284888237676,-7,-3,-4,-5,-2,-3,-2,0
284888237676,-1,-4,2,-5,-1,1,3,5
284888244486,-3,1,-3,-2,-1,0,2,1
284888244486,5,-1,1,-1,-5,-2,0,-3
284888252068,1,-3,-4,2,0,-5,-6,-2
284888252068,-3,4,-1,6,-2,0,-6,-3
284888261059,-1,0,-2,-1,-2,-4,-6,1
284888261059,0,0,-3,0,2,2,2,-3
284888275269,-7,0,1,-2,-6,-2,-3,2
284888275269,-3,-3,-1,-1,0,4,5,-2
284888281987,0,-1,4,-2,0,-3,0,0
284888281987,-3,-5,0,-4,0,-1,-3,-1
284888297756,5,0,1,1,-2,-1,3,0
284888297756,-2,-2,-5,2,5,-5,-2,-1
284888304482,-3,2,-5,0,-1,-3,1,0
284888304482,-1,0,0,2,-1,-2,-5,-3
284888312104,2,1,-2,-2,0,-5,1,-1
284888312104,1,-6,5,-3,-2,0,0,1
284888320971,4,-1,-2,1,-1,0,-4,-2
284888320971,2,-2,1,-3,0,-1,5,0
284888335220,-3,-1,-1,2,1,-1,1,-2
284888335220,-2,1,-4,2,3,-4,1,-1
284888342063,-1,-1,2,-4,-4,-1,-1,-6
284888342063,-2,-4,0,-1,-4,1,1,-5
284888357732,-3,0,-5,1,3,-3,-5,-3
284888357732,4,-2,0,-2,-3,0,-2,-3
284888364563,0,-4,-1,-4,2,3,-1,1
284888364563,-4,1,-4,-2,-3,-1,5,-3
284888381000,0,1,-3,-1,-2,5,-3,0
284888381000,0,-4,0,1,4,-4,-6,-2
284888382486,-2,1,-1,1,-2,-3,-2,0
284888382486,-2,-1,1,-2,1,-2,-5,0
284888395265,1,-2,-2,2,-3,-3,0,-1
284888395265,-3,-2,-2,-1,-5,0,0,-1
284888402098,4,1,-1,2,-3,-3,1,0
284888402098,3,1,2,0,2,-3,0,0
284888417803,3,-5,-2,-5,0,1,0,-3
284888417803,1,2,-3,-3,1,-5,-5,1
284888424482,1,-2,-3,-4,-4,-6,-1,-2
284888424482,3,2,-1,2,-2,0,-2,1
284888440852,-3,0,3,-2,3,-2,1,-1
284888440852,-1,1,-2,-1,-4,2,2,-3
284888442520,-3,-1,3,-2,2,-2,-2,-4
284888442520,2,-1,-1,1,1,1,1,-1
284888455243,0,2,4,-5,-4,-3,2,1
284888455243,1,-3,0,-1,-1,-2,0,-1
284888462055,-6,-1,-3,1,-3,0,2,-1
284888462055,-1,-4,-3,-1,-2,-3,-5,-3
284888477685,-5,0,-2,1,-5,-3,-1,-5
284888477685,-1,-5,-5,-3,-2,0,-4,-1
284888484612,1,2,-2,-3,-2,1,-1,1
284888484612,-1,0,-2,0,-6,1,-3,-2
284888500915,0,-2,-1,-3,2,-2,-2,1
284888500915,0,0,-1,-1,-2,-1,-2,0
284888502431,1,-3,2,-3,3,-2,0,-5
284888502431,-3,0,-1,1,-3,-2,-4,-1
284888515317,-1,0,-7,0,0,-2,-2,0
284888515317,-2,-1,0,2,-2,-3,1,-1
284888522043,0,0,-1,0,-3,-1,-3,-3
284888522043,-2,-4,3,-1,1,-1,2,-1
284888537681,1,-3,-6,-5,2,1,-4,-3
284888537681,-5,-4,-2,-3,-2,-1,0,-1
284888544529,1,-4,0,1,-3,3,-4,-2
284888544529,-5,2,-3,-4,2,-3,1,0
284888560932,0,0,-1,-3,-2,-4,4,-2
284888560932,-5,-2,-2,-2,-1,-3,4,0
284888562500,-4,0,-3,2,2,-1,-2,2
284888562500,-1,-2,-5,-1,1,-2,-4,1
284888575204,0,-3,2,5,-1,-2,-2,0
284888575204,1,0,1,1,4,0,-2,0
284888589557,1,2,-1,-2,-3,-3,-2,0
284888589557,1,0,0,0,0,-2,0,-4
284888597727,-1,2,-5,-6,1,0,-2,-6
284888597727,-2,2,-1,-2,-2,-4,-2,-1
284888604435,-4,1,0,-1,1,-1,-5,2
284888604435,0,1,-2,-1,0,0,3,1
284888620855,-1,0,0,1,1,-2,0,-4
284888620855,-5,0,3,0,0,-1,0,-2
284888622472,-4,-2,-5,0,3,-1,1,1
284888622472,1,-1,1,-1,-3,-1,-5,-1
284888635260,-3,-1,-1,0,0,-2,4,1
284888635260,0,-1,-1,-5,-4,3,-6,0
284888642027,2,-5,2,-2,0,-6,2,-3
284888642027,2,-1,-6,0,0,-1,1,1
284888657762,-1,-3,0,2,-4,3,-2,2
284888657762,-3,4,1,0,-1,-1,1,-5
284888664529,-1,-2,-5,-3,0,-3,5,0
284888664529,0,-3,-1,1,-1,0,-6,-5
284888680959,-1,3,1,-3,-4,-2,-1,1
284888680959,2,-2,0,-1,0,-2,1,-3
284888682475,-1,-5,0,1,1,-2,-1,-5
284888682475,-1,1,-1,1,-1,-5,-2,0
284888703363,-5,2,-1,2,2,2,-3,1
284888703363,1,-4,-1,-3,0,-2,-3,1
284888705047,2,3,-4,-2,-2,-1,2,-3
284888705047,-1,-1,-3,-3,-3,-5,2,1
284888717752,-1,-4,-1,-2,1,0,-1,-2
284888717752,2,-4,-6,0,0,2,2,0
284888724537,-6,-4,-1,-3,0,-1,-1,0
284888724537,-6,-1,2,-2,-5,0,0,4
284888740876,0,-3,-1,-1,-2,-2,1,-6
284888740876,-2,2,3,2,0,5,0,1
284888742452,1,1,-4,-1,-5,-3,-1,-3
284888742452,-4,-4,4,1,1,7,-3,1
284888755309,3,-1,-1,-2,-4,-3,-3,-2
284888755309,0,-2,-2,0,-4,-3,0,0
284888762037,0,2,0,3,0,3,-2,-2
284888762037,-2,-3,-3,0,7,1,1,1
284888777802,0,-4,-3,-1,0,0,2,2
284888777802,-4,-2,1,0,2,-5,-2,-1
284888784514,-2,2,4,-4,-4,-2,-2,2
284888784514,-3,-5,1,-4,1,-1,-2,-5
284888800973,2,-1,3,1,-2,-3,2,-2
284888800973,1,-3,2,-3,2,-1,1,-3
284888802457,4,-5,-1,0,2,3,1,0
284888802457,0,3,-4,-2,-2,-1,2,-1
284888815175,0,-1,2,0,1,1,-2,-2
284888815175,1,3,-1,2,0,1,-5,-3
284888822105,3,-3,-3,0,-1,0,-3,-3
284888822105,-1,-4,-3,-4,1,3,1,3
284888837722,-4,0,-2,-4,1,-5,-2,1
284888837722,0,0,2,-3,-3,-1,0,-2
284888844544,-2,2,4,0,2,-2,2,-1
284888844544,0,1,-1,0,3,-6,-2,-1
284888859956,-3,-5,-1,-3,-2,-2,1,0
284888859956,-2,-2,-7,-3,-2,0,1,2
284888868638,1,0,1,-1,0,-2,-3,1
284888868638,5,2,0,4,0,-1,5,-3
284888874549,0,-1,-2,-1,1,-1,-1,-3
284888874549,-1,-4,-3,2,0,2,0,-2
284888883555,-1,-7,-5,1,3,-1,-1,0
284888883555,-2,-6,-3,-6,0,-1,1,-4
284888897812,-3,-2,-1,0,-2,5,-3,-2
284888897812,4,3,-4,-1,1,-4,-1,1
284888904565,-3,1,-3,-1,-1,-2,-5,1
284888904565,-5,-2,-1,-2,-4,-4,-7,2
284888920932,-1,-2,-3,1,-2,-2,0,0
284888920932,-1,2,0,-4,-3,-3,-3,-2
284888922478,-3,-1,-1,-3,-2,-1,-4,0
284888922478,-2,0,1,-3,-9,-1,-2,-4
284888934481,-1,0,-1,0,2,-3,-3,1
284888934481,-5,1,-4,0,3,-2,-1,0
284888943568,-6,-1,1,-4,-3,-2,-1,-6
284888943568,3,-2,0,-2,-3,-4,1,1
284888957731,0,1,-1,0,-2,2,0,-4
284888957731,-5,-4,1,0,2,0,0,1
284888964570,-1,-1,-2,1,2,-2,3,-3
284888964570,-2,0,-2,-5,-4,3,-1,-2
284888980914,-1,-2,-5,-2,1,-2,-2,4
284888980914,-1,0,0,-2,-3,-1,-3,-1
284888982515,-3,-3,-1,-1,-1,2,0,0
284888982515,1,0,0,0,3,0,0,-2
284888994556,-2,-1,-3,2,-3,1,-1,1
284888994556,-3,-6,-2,-1,1,1,1,-2
284889003528,-2,-2,-3,-2,-5,-2,2,2
284889003528,0,-2,4,-4,-1,-6,0,-3
284889017720,1,-5,-2,1,2,-2,-2,-1
284889017720,-2,-3,-5,-3,0,-3,-1,-2
284889024558,0,-1,-4,-2,-3,-2,-3,-2
284889024558,3,-3,-1,0,0,-1,-4,1
284889040941,-5,-2,0,0,-2,0,-4,-2
284889040941,3,0,0,1,2,-3,2,0
284889042508,-2,-4,-1,-4,0,-5,-7,-4
284889042508,-5,1,-2,-2,0,2,-4,-4
284889054565,-1,-2,2,-2,0,-3,1,5
284889054565,1,-2,-1,-3,1,-5,-2,-3
284889063468,3,-1,1,-2,-3,-3,1,0
284889063468,-2,-2,-2,-3,-1,-1,1,0
284889077711,-3,-2,-2,-3,-2,-2,3,-3
284889077711,2,0,0,-4,-2,1,-2,-1
284889084592,3,2,1,2,2,2,-1,-1
284889084592,0,-2,0,-1,1,-4,-3,-5
284889100922,1,1,0,-3,1,-1,1,-4
284889100922,-2,-1,-2,-5,-3,0,-2,-2
284889102500,-4,-5,-2,-1,1,-2,-1,-2
284889102500,-3,1,-3,-2,-2,0,-2,-4
284889114618,-3,3,4,0,0,0,-4,1
284889114618,1,-3,3,-1,4,0,-2,-2
284889123555,3,2,-1,1,-3,2,-4,-1
284889123555,-2,-1,0,2,5,-1,-1,4
284889137710,1,-4,0,-2,-1,-2,-2,-6
284889137710,-5,-3,-3,-4,-7,-1,2,0
284889144570,-4,2,0,0,3,-3,2,-1
284889144570,1,-2,-1,2,-1,-1,-1,1
284889160306,5,1,-4,-1,0,-3,-3,-6
284889160306,1,0,3,2,0,-3,2,2
284889167059,2,1,-1,-4,0,0,1,-1
284889167059,-2,-4,-5,-2,-4,0,3,0
284889174603,-2,-4,-4,-5,-4,0,0,-3
284889174603,1,4,-1,0,-6,-2,-2,-3
284889183456,-4,1,-1,1,0,-1,-1,2
284889183456,2,0,-1,1,0,0,2,-2
284889197760,3,6,1,0,0,-2,0,1
284889197760,-3,1,-2,0,-1,-1,-3,2
284889204557,6,-3,0,-2,-2,0,-4,0
284889204557,0,0,0,-1,-3,-1,-4,-4
284889220196,-1,0,-2,-5,0,-1,1,3
284889220196,-3,-1,-2,0,-1,1,2,1
284889227043,2,0,-2,-2,-7,-3,0,-1
284889227043,-3,-1,0,0,2,-3,-3,1
284889234476,-3,0,4,-3,-3,2,-3,2
284889234476,4,2,2,0,-3,1,-2,2
284889243583,-5,1,-1,-2,-3,-6,-2,-3
284889243583,-3,1,1,0,-1,-3,-3,-2
284889257854,-6,-2,-1,-5,-4,-1,1,1
284889257854,1,-5,-4,-4,-3,3,-4,-3
284889264557,-2,-2,2,1,-3,3,1,1
284889264557,-2,-3,-1,0,-4,-5,-3,-1
284889280276,-2,-3,-4,0,2,-1,-4,0
284889280276,-1,-3,-1,1,2,-1,-2,-3
284889287013,1,1,-4,0,-3,2,-1,-1
284889287013,1,-2,-3,-5,-2,-4,-1,-1
284889294567,-2,-4,0,-4,-5,-3,-2,-5
284889294567,-2,-4,-1,0,0,-2,-2,-3
284889303557,-5,-5,-2,-3,0,-4,-3,-1
284889303557,-3,-1,-4,-2,-3,-2,0,2
284889317781,-2,3,-4,3,-3,1,-3,-2
284889317781,1,0,-2,2,1,-3,-3,2
284889324520,0,-1,2,-3,-6,-4,-4,2
284889324520,-6,-2,-3,-6,-4,-1,-2,-2
284889340283,3,-2,-4,2,3,-3,-1,0
284889340283,0,3,-1,1,1,-1,0,1
284889347056,-1,-5,-1,-1,0,3,-2,-4
284889347056,-1,-1,-4,0,0,0,6,-2
284889363382,-2,-2,-5,-1,-6,0,1,-3
284889363382,-2,3,-5,-1,-1,-1,0,0
284889365004,0,-1,-3,2,3,-3,2,-3
284889365004,0,0,-1,-3,1,2,0,0
284889377791,0,-2,-2,0,2,3,2,-1
284889377791,1,-2,1,0,-1,-1,-6,-1
284889384567,0,1,0,-1,-7,-2,-5,-1
284889384567,1,-1,1,1,-3,1,0,-3
284889400215,-2,2,0,-1,-4,-4,4,-1
284889400215,-3,-2,1,0,-2,0,-3,4
284889407056,-3,-1,2,0,0,0,1,-1
284889407056,4,0,-5,-2,-2,-2,-4,-2
284889423492,2,-4,1,-1,-1,0,0,-1
284889423492,-2,-3,2,-3,-5,-1,0,1
284889425051,-1,-1,-2,-7,2,-1,-1,1
284889425051,1,-5,-1,1,2,-4,1,-3
284889437759,-2,0,-1,1,1,-5,-1,2
284889437759,0,-2,-2,2,-3,1,1,-4
284889444593,-5,2,-3,0,-1,2,-4,2
284889444593,0,0,-2,-2,0,-1,-3,0
284889460302,-1,-2,3,-2,2,3,0,-2
284889460302,1,0,2,-1,-1,-1,3,-3
284889467103,-1,0,-1,1,2,-1,1,2
284889467103,-4,-2,4,0,1,3,-4,-5
284889483409,1,2,-3,3,-2,-3,-6,0
284889483409,-2,-2,-3,-5,1,-1,-1,-3
284889485046,-2,-1,0,-2,-1,-4,3,1
284889485046,6,0,-1,-3,-5,2,-2,-2
284889497768,1,-3,-1,-3,-2,-2,-1,-3
284889497768,1,-6,-2,2,-6,-2,-1,-2
284889504535,3,-3,1,0,1,-3,4,-1
284889504535,-3,-1,3,3,-4,-2,-1,2
284889520231,0,2,1,-4,-4,4,0,-1
284889520231,-1,0,-1,1,0,-2,-2,0
284889527128,-4,-3,-3,0,-2,3,2,-1
284889527128,-2,-2,2,-3,1,0,-1,-1
284889543378,1,2,1,1,-1,-2,-5,3
284889543378,-4,-1,-4,-1,4,-1,3,0
284889545007,0,-4,1,-5,-1,-1,-5,-4
284889545007,-1,0,-4,-1,-1,0,-2,2
284889557799,1,-1,-6,0,0,0,0,-2
284889557799,0,5,2,-1,-1,-3,-5,-1
284889564569,2,-3,-3,-1,-1,3,0,-1
284889564569,1,-2,2,1,-1,-1,3,-1
284889580228,-5,-2,5,-4,6,-5,-3,-3
284889580228,1,-2,-1,-1,-1,-3,2,-2
284889587055,0,0,-3,0,-1,0,0,1
284889587055,2,1,-3,-2,-4,-2,-2,-1
284889603190,2,1,-2,1,-5,1,2,0
284889603190,0,-1,2,-5,-2,2,0,-5
284889609539,-4,3,-1,3,0,-4,-3,-1
284889609539,-3,-3,2,-1,-2,-3,-2,-2
284889617758,-4,-4,-1,0,-1,-3,1,-4
284889617758,0,4,-4,0,-4,-1,0,-1
284889624592,0,0,-3,-4,-1,2,-2,1
284889624592,-3,-1,-7,0,-2,-2,-3,0
284889640333,-1,-1,-1,-4,2,-4,-4,-1
284889640333,-3,-4,0,1,-2,-1,-1,-1
284889647058,0,-3,-1,-1,-1,-2,-1,-2
284889647058,-3,1,-3,-2,2,-1,0,-4
284889663407,-5,-4,3,-2,-3,0,-3,-3
284889663407,-4,-1,-3,-1,4,-2,1,1
284889665047,4,-1,-1,-2,-6,1,1,-4
284889665047,1,0,-3,-1,2,1,-3,2
284889677737,1,1,-2,3,-1,-3,2,-2
284889677737,-2,-1,0,-5,-5,0,0,0
284889684556,0,-1,1,0,1,-2,0,-5
284889684556,-5,0,-3,2,1,4,0,-2
284889700284,1,-2,-2,2,-2,-1,-3,0
284889700284,-1,1,-1,5,1,-4,-2,-4
284889707124,4,0,-3,-1,3,-2,1,0
284889707124,-3,-5,-1,2,-5,-7,2,-2
284889723426,-2,-6,-1,-1,0,0,-1,-1
284889723426,2,-1,-1,0,4,1,-1,-2
284889725009,-2,5,1,3,-1,-2,-2,-1
284889725009,1,-2,0,-1,-3,-4,1,-7
284889737725,0,-3,-6,-3,4,0,4,-2
284889737725,0,-2,1,-4,-4,-2,-4,0
284889744533,-4,1,0,4,1,-4,3,-3
284889744533,-2,1,-1,-7,-3,-1,0,2
284889760365,0,1,0,1,1,0,2,-2
284889760365,-4,0,-2,0,0,-2,-4,0
284889767041,-3,-2,-2,1,2,-3,-6,-1
284889767041,-2,-1,-1,-4,-3,4,-5,3
284889783480,2,1,-1,0,-3,-2,1,-4
284889783480,0,-1,-4,2,2,-3,2,-3
284889785021,1,-2,0,-1,0,1,1,4
284889785021,-4,0,-2,-1,-4,-2,2,2
284889797133,0,-2,7,-1,-3,-4,-4,2
284889797133,-4,-2,-5,-4,-4,-4,-3,2
284889806075,1,-2,-2,-1,2,-2,1,0
284889806075,-1,1,0,-2,1,-3,-1,-3
284889821070,-1,2,0,-1,0,-1,-1,-1
284889821070,-3,-4,-2,-1,1,2,-1,-3
284889827115,-6,-3,-2,-6,-6,-5,-4,-3
284889827115,2,5,4,1,-3,1,0,-2
284889842713,-3,-3,0,-3,-2,-2,-4,1
284889842713,0,-1,2,-1,-8,-2,1,3
284889843411,0,-5,-2,-3,-2,-2,-3,2
284889843411,0,0,-1,2,2,2,-1,2
284889865223,-5,-1,-4,-7,-4,3,3,1
284889865223,4,-1,0,1,-1,0,2,-4
284889866049,-5,-1,-3,-1,-5,0,-2,-1
284889866049,-1,-4,-1,0,0,-1,2,-2
284889881056,-1,1,-1,0,2,1,-5,0
284889881056,-4,1,-3,-6,2,-4,-1,-4
284889887030,4,1,-3,-3,-4,4,1,-3
284889887030,-1,-2,-2,1,-1,-5,-2,2
284889902674,0,-4,-2,0,-1,-2,-5,-3
284889902674,0,-4,3,-4,-1,2,1,-1
284889903507,1,0,4,-2,-2,-3,-5,-3
284889903507,-1,1,-4,-2,-3,-6,0,1
284889926681,5,1,1,-1,-2,-2,0,-1
284889926681,-1,-5,-4,3,1,-3,-6,1
284889927505,-3,1,-3,-2,-1,-1,-6,1
284889927505,-2,0,-2,-4,-2,1,-3,-1
284889941038,1,-2,-4,-4,-5,1,1,1
284889941038,0,2,0,2,-3,-3,-1,1
284889947083,0,-2,2,0,-1,2,-4,-5
284889947083,-2,-7,0,-3,0,-1,-2,-2
284889962734,-1,0,-1,-1,-2,-2,2,2
284889962734,-1,0,-2,-2,1,-1,-2,-3
284889963485,0,-5,-5,-2,-4,-2,4,-3
284889963485,2,3,0,-1,0,-1,0,-4
284889985206,1,-1,-5,-1,-1,0,-2,-4
284889985206,-6,0,-2,-2,0,-2,1,1
284889986045,-4,1,2,-1,-1,-1,-5,3
284889986045,4,-5,0,0,-1,-1,-5,0
284890001025,-9,1,-4,-5,-1,-4,-3,-1
284890001025,0,0,-1,-1,-4,3,3,0
284890007041,2,0,-7,0,2,-5,-1,-2
284890007041,-5,3,-3,-3,-2,1,-1,-2
284890022662,0,-3,-1,0,-2,-3,-4,-5
284890022662,-2,-1,-2,-4,-1,0,2,-4
284890023444,-2,-4,0,-1,-5,1,-3,-3
284890023444,-2,-1,-2,1,3,2,2,-2
284890045170,2,-5,-1,-2,0,-1,2,1
284890045170,4,0,-3,1,-3,-4,-3,-2
284890045975,0,-2,0,-2,-5,0,4,-1
284890045975,0,-1,-2,-1,-1,-2,3,-2
284890069290,-5,2,-4,-3,-5,2,-1,-2
284890069290,0,-2,-3,2,-1,-2,-4,0
284890069982,-2,-1,-2,-1,2,1,3,3
284890069982,1,-2,2,-7,-4,1,0,-2
284890083607,2,-3,2,2,0,-1,6,3
284890083607,2,-1,2,1,-2,0,-3,0
284890089567,1,0,-2,0,-3,-3,-4,-4
284890089567,0,-2,-3,-2,-3,-1,-3,-3
284890105284,3,2,3,0,-2,-2,0,0
284890105284,-5,1,-2,-2,0,1,-4,-1
284890105958,-3,-1,0,1,2,0,-1,1
284890105958,-1,0,-1,2,-2,1,-1,0
284890121032,-1,-1,-1,-2,-1,1,2,-2
284890121032,-1,-5,0,-1,-1,2,-2,0
284890127078,1,-4,1,-4,-1,-2,-1,2
284890127078,-3,-1,-5,-2,3,-2,-1,-4
284890142096,0,-3,1,0,1,-4,-5,-2
284890142096,-2,5,0,2,3,-2,2,-4
284890149548,-3,0,0,-2,-2,0,0,-1
284890149548,3,-1,1,-1,2,2,-3,1
284890165257,-2,3,2,1,0,0,-1,1
284890165257,2,-1,1,-3,1,1,-1,-2
284890166085,-5,-1,-3,-2,-2,-2,2,-4
284890166085,-2,-3,1,-2,5,-2,5,1
284890181051,0,2,2,-2,4,0,-1,-2
284890181051,-2,-3,-3,-4,-2,0,1,-2
284890187035,0,-2,-4,-1,-1,-1,2,-2
284890187035,-4,-1,-1,-2,-4,-1,0,2
284890202087,1,-1,-1,1,-2,-1,-3,-3
284890202087,-5,-1,-1,0,0,0,1,5
284890209502,1,2,-4,-3,0,-2,-6,-7
284890209502,-3,-4,-2,1,0,-2,0,-2
284890225227,-4,1,-2,1,0,0,-3,-2
284890225227,1,-1,-3,1,-5,-6,2,2
284890225980,-4,2,-4,0,3,4,1,0
284890225980,1,-3,6,1,-1,1,-2,-2
284890241026,-4,-6,2,-4,0,-2,-2,0
284890241026,1,0,0,-2,1,0,1,-3
284890247092,-3,0,1,-2,-1,-2,0,2
284890247092,0,0,-4,0,-3,0,-5,4
284890262097,1,-4,-4,1,3,3,-2,1
284890262097,1,-3,-2,-1,-5,0,-4,0
284890269479,-3,-1,0,-2,4,-3,-1,-1
284890269479,4,1,-7,-2,-2,-1,-2,-5
284890285570,1,-1,-5,3,1,-2,-2,-1
284890285570,2,-3,2,-7,-2,-4,0,-3
284890292063,-1,2,5,0,-4,0,4,0
284890292063,2,-5,1,1,-1,-4,-1,-4
284890301005,0,-3,0,-4,1,-6,0,1
284890301005,0,-1,0,1,-3,1,2,2
284890307062,2,0,0,1,-1,-2,-5,-4
284890307062,-5,0,-1,-2,-3,1,-2,0
284890330277,-3,3,-3,-2,-2,-3,6,-3
284890330277,-6,-3,-5,-1,6,-2,-3,1
284890331013,-1,1,-2,0,-2,2,1,-1
284890331013,-4,2,-1,-1,-3,0,-1,2
284890345237,-4,1,2,-2,-2,-1,-2,4
284890345237,0,-2,-1,0,1,1,-5,-2
284890346054,1,-5,1,-1,-1,-2,-1,-1
284890346054,-2,-1,-5,-3,-1,-3,-3,0
284890367747,2,-2,-3,1,-2,5,-2,-5
284890367747,-2,-1,1,4,-2,-3,-3,-2
284890368527,0,-7,1,0,-4,2,0,-1
284890368527,-1,-3,3,-3,0,1,2,-4
284890382093,-1,-3,-3,1,0,-3,-3,0
284890382093,1,2,0,-1,1,-2,-3,-2
284890389612,-1,-2,-6,-2,0,0,-7,0
284890389612,0,-1,-2,-1,3,-3,1,4
284890405248,-2,-1,1,-2,-3,-1,-3,-2
284890405248,1,-4,0,-3,-2,-1,0,-1
284890406016,1,2,-1,2,-3,-5,-2,0
284890406016,-4,1,-3,-3,-2,0,-5,-3
284890421086,-1,6,-2,2,-1,1,1,-1
284890421086,1,-3,-3,-2,0,3,-4,-2
284890427126,2,-4,0,2,1,0,0,1
284890427126,0,1,-2,-3,0,-5,-1,-1
284890442092,1,0,-1,-4,-1,2,0,0
284890442092,-3,-1,-2,-2,3,-1,-3,-1
284890449588,-3,-3,-2,-3,-2,-1,1,-6
284890449588,-1,-5,-1,2,-1,-3,0,-1
284890465191,-5,-2,-1,-1,-1,0,1,-3
284890465191,-2,0,-1,0,-7,-3,0,1
284890466003,0,-3,5,-6,0,-1,-6,3
284890466003,-6,-2,3,0,2,1,-2,1
284890480998,0,-5,0,-1,-2,-1,-2,0
284890480998,-3,-1,-4,5,0,-3,0,-1
284890487095,2,1,0,2,2,2,-3,2
284890487095,4,0,-3,-1,-1,-1,1,-1
284890502073,1,-1,-2,-1,0,-2,-4,-1
284890502073,0,6,0,1,-4,0,1,-1
284890509611,-2,-3,0,1,4,-4,3,0
284890509611,-1,-2,5,1,0,0,-1,0
284890532814,-3,-1,-2,-1,5,-4,-3,-1
284890532814,-3,-1,3,-1,2,0,5,-6
284890533511,-2,-2,-1,-1,-3,1,-4,-1
284890533511,0,-3,-1,1,-1,-1,-2,-1
284890540966,0,-4,0,-4,-3,-4,-2,-1
284890540966,2,-1,-5,2,-3,-1,-5,-4
284890547066,0,-2,-3,-5,0,-4,0,0
284890547066,1,0,1,0,-4,1,-1,-5
284890562100,0,-1,-2,0,-2,5,1,-3
284890562100,1,-8,-3,-4,-1,-3,-5,-2
284890569595,-3,3,-2,0,3,-4,2,2
284890569595,-4,3,0,0,-1,-1,-3,-2
284890585262,3,3,-1,-3,-1,1,-5,0
284890585262,-1,3,2,-4,2,-4,3,-2
284890586046,0,-2,-3,-2,-2,1,-6,-2
284890586046,-4,-2,0,-2,0,-3,2,-2
284890601065,-2,-2,0,-4,-3,-3,2,1
284890601065,-2,-2,3,-1,-8,2,-3,-4
284890607063,-3,2,-1,1,-3,-1,-2,-3
284890607063,1,0,-4,-1,-2,2,-2,0
284890622025,-2,-4,-2,1,0,-3,-5,0
284890622025,3,-2,1,0,1,2,1,0
284890629558,0,-1,-1,-1,-2,-2,1,-1
284890629558,1,-2,-3,-6,-2,1,-2,0
284890646730,-5,2,-1,0,-1,-3,0,-2
284890646730,-6,-1,-2,-4,-1,-3,1,0
284890647489,-1,2,-3,-1,-4,-1,-1,-4
284890647489,0,-3,0,-1,-5,-3,-3,-1
284890661097,2,0,4,1,0,0,-2,0
284890661097,-1,-1,0,-3,-2,-2,-1,0
284890667213,4,-1,-1,-1,-2,0,2,2
284890667213,-2,-2,-5,-3,4,-5,-2,-1
284890682062,0,-2,-4,-4,0,0,0,-3
284890682062,-2,0,0,0,-4,1,-1,-1
284890689556,-1,0,-1,-3,-1,1,4,0
284890689556,-1,-1,0,1,2,-2,1,-1
284890705162,-1,-6,2,-1,0,-2,-2,-1
284890705162,2,2,0,-2,-1,-4,0,-2
284890705972,0,-4,0,3,-2,-2,-7,-2
284890705972,0,3,2,-2,-1,-3,2,3
284890721030,-1,-1,-4,-5,-5,-3,-4,1
284890721030,-1,-5,-2,0,0,0,-3,0
284890727097,-4,-6,0,-2,-2,-2,-1,-1
284890727097,0,-3,0,1,-3,3,-2,-4
284890742004,1,-1,-2,-2,1,2,-2,-3
284890742004,-3,1,-1,-3,-2,-6,-5,-3
284890749519,-4,-1,1,0,-2,-2,-8,-2
284890749519,0,-5,-2,0,1,-1,-5,-2
284890765272,-1,-1,2,-2,-5,-1,2,-1
284890765272,-2,-2,0,-2,1,-3,-2,-2
284890766055,-1,-1,-2,4,4,2,4,3
284890766055,0,-4,1,3,1,-3,-3,0
284890781066,-3,-2,0,-2,-1,3,-2,-3
284890781066,4,-1,-4,-1,2,-4,2,2
284890787059,-3,-5,-1,-7,-1,1,-2,-5
284890787059,1,-1,-1,2,-3,-2,0,-3
284890802091,-1,-3,-3,1,-3,0,0,3
284890802091,-5,-4,0,-2,1,0,0,-2
284890809692,0,-5,-2,-4,-4,-6,-4,-1
284890809692,-3,3,0,-3,-4,2,-4,-4
284890825210,-4,1,1,2,0,-3,-2,3
284890825210,3,2,-5,2,0,0,-2,1
284890826103,-1,0,-1,-1,2,0,4,-1
284890826103,-1,-2,-2,-2,-1,1,1,-4
284890841146,0,0,0,1,-4,-2,6,2
284890841146,0,-7,-3,-2,1,4,-2,-1
284890847125,-1,-1,0,-1,-4,-2,0,-2
284890847125,-1,-3,0,0,-1,2,1,2
284890862050,1,-4,-6,-5,0,0,-2,-5
284890862050,0,-5,1,0,-2,0,-1,2
284890869745,3,1,-3,0,-1,0,-1,0
284890869745,4,0,1,-4,-3,-5,-1,-6
284890885279,-2,-1,-1,0,-2,0,-2,-3
284890885279,-3,-3,0,0,-3,-1,-1,0
284890886107,-2,-2,-3,-6,-3,1,1,-4
284890886107,-3,-3,-2,-4,0,-2,-2,-1
284890901054,0,-3,-1,-2,-1,1,1,0
284890901054,-4,0,-1,-3,-2,-4,5,-3
284890907077,0,-1,1,1,-3,1,0,1
284890907077,3,0,-4,-3,-1,-3,-1,-1
284890922110,-1,-1,-3,0,-2,-3,1,-1
284890922110,-2,2,1,-1,-4,-1,-2,0
284890929646,-2,-3,1,0,2,1,0,-3
284890929646,-3,-3,-4,-2,1,-1,6,2
284890945207,2,-3,-1,-1,-1,0,-1,-1
284890945207,-4,0,0,2,-3,-2,-4,0
284890946052,0,5,2,2,-1,0,1,-3
284890946052,-2,-5,-1,4,-4,5,0,1
284890961080,-1,0,-2,-4,1,0,-5,-1
284890961080,-1,-2,-2,-4,-3,1,4,1
284890967146,-1,-1,-2,-2,1,3,0,1
284890967146,1,3,0,-3,-1,-1,-1,-2
284890982055,2,-1,1,-1,-3,1,1,-2
284890982055,-3,0,-4,-2,-1,2,-2,-1
284890989493,0,0,-1,-5,-2,1,-7,2
284890989493,-2,-1,3,0,-1,-1,1,2
284891005203,-5,-2,-3,-2,3,1,-3,2
284891005203,-1,-2,1,-2,0,0,-2,-5
284891006050,2,-2,-2,0,-5,0,-1,1
284891006050,0,3,1,0,2,-5,0,5
284891021064,1,-2,-1,0,-4,-2,-2,0
284891021064,1,0,-4,-4,2,1,-2,-2
284891027107,2,1,-2,1,4,1,-6,-3
284891027107,-2,-2,0,-1,-1,2,-4,0
284891042126,2,1,0,1,1,1,-1,-4
284891042126,0,2,1,0,-3,-3,3,4
284891049549,2,-7,-3,-1,-4,-4,3,3
284891049549,-2,1,-3,-1,-1,-5,-6,-2
284891064592,3,0,0,-2,-1,0,-1,-5
284891064592,6,-5,3,-4,6,-3,-2,-2
284891072095,-3,3,1,5,-3,0,-1,2
284891072095,-4,0,0,-1,-3,0,0,-3
284891089253,-5,1,-2,-3,-2,-1,-1,1
284891089253,5,2,-3,2,1,-1,-4,-2
284891090075,-5,-2,-6,-5,0,-5,0,-4
284891090075,1,2,-3,-1,0,-1,-3,0
284891102051,-3,-1,0,1,-4,-4,2,-2
284891102051,1,-2,-2,-2,-4,-2,3,1
284891109580,-1,0,1,-1,4,-3,-3,0
284891109580,0,1,0,0,1,2,-4,-1
284891124607,-3,-2,-1,-4,3,-2,1,2
284891124607,-2,-2,-1,3,-8,-1,2,-2
284891132131,1,-2,1,1,-7,-3,-1,0
284891132131,0,-3,-6,3,-3,2,-3,-1
284891141024,-2,1,0,3,1,-1,2,0
284891141024,-3,-1,-4,3,-3,1,0,3
284891147170,-3,-1,-4,-1,1,-1,-3,2
284891147170,2,-4,0,2,-2,-2,-2,0
284891162058,-1,1,-1,-2,-5,-4,-1,-2
284891162058,-4,-1,-2,-2,-1,2,0,1
284891169494,0,0,2,-2,3,-4,3,-5
284891169494,-1,-4,-3,-6,-3,2,3,2
284891184619,-4,0,0,0,-2,-5,-1,-2
284891184619,3,1,-1,-3,0,2,-2,-4
284891192097,-4,-1,-1,-4,5,-1,-2,0
284891192097,0,-3,1,-1,0,-2,-3,-3
284891215909,-3,-4,1,0,-1,1,-3,2
284891215909,-4,-1,-3,-5,0,-3,-1,1
284891216765,-3,1,1,-2,-5,0,2,-1
284891216765,-2,0,0,1,-1,-2,3,-4
284891222042,3,0,-1,-1,0,2,-1,-1
284891222042,-3,-1,0,0,5,-1,-2,-1
284891229616,2,-1,-2,3,-2,-4,-2,-6
284891229616,-2,2,-3,-1,-1,-4,-3,1
284891244617,2,-1,2,-2,3,-3,3,-1
284891244617,0,-1,2,-1,-2,1,-5,0
284891252082,-3,-5,-5,-4,-3,1,-1,-2
284891252082,-1,-1,-1,-3,-3,1,-1,-3
284891267892,-2,-4,-7,-3,-1,-1,-1,-2
284891267892,-1,-5,-3,-5,0,-1,-1,-4
284891268528,1,-3,3,-2,5,0,3,-1
284891268528,1,-5,1,-1,-1,-2,2,2
284891282143,-2,0,-3,-1,1,0,-3,-1
284891282143,-3,-6,0,0,1,-3,0,0
284891289542,-2,0,-2,-1,-1,-1,6,-1
284891289542,-3,1,0,-3,-1,-1,-1,-4
284891304550,2,0,-1,0,1,-1,3,1
284891304550,-3,2,0,-3,-6,1,-1,-2
284891312139,-2,0,3,3,0,1,0,-1
284891312139,2,-3,-1,-1,3,0,-2,-1
284891329228,-5,0,0,-4,-1,-1,-4,0
284891329228,4,0,-2,2,1,0,0,-3
284891330028,2,4,-6,-5,-3,0,1,-1
284891330028,-1,4,-1,3,3,0,-1,-4
284891342058,-1,-1,1,0,-1,0,4,-2
284891342058,0,-3,2,1,1,-5,-1,-1
284891349586,4,-3,-4,-1,-4,-3,-2,0
284891349586,-1,1,1,-6,-1,-1,-3,-1
284891364610,0,1,0,2,0,-1,-3,2
284891364610,0,1,-2,2,0,-4,-3,1
284891372092,0,-1,-4,-2,-4,-5,-5,-1
284891372092,-3,-2,0,-3,-2,-1,-3,0
284891387737,2,1,-1,0,0,-3,0,-3
284891387737,-3,-1,1,-2,-1,-1,0,1
284891388504,0,-3,0,-5,-1,0,-3,-2
284891388504,-5,-2,-6,-1,0,-3,3,-1
284891402024,-2,-2,-2,-1,-4,-1,4,3
284891402024,-4,-1,1,0,-2,1,1,-4
284891409605,-2,0,4,-2,1,2,0,-2
284891409605,-3,-1,-3,2,1,-2,2,1
284891424611,1,-5,-3,1,0,3,-4,-3
284891424611,-2,0,-5,-2,-2,-2,-1,1
284891432120,0,-1,0,2,-2,-2,0,-1
284891432120,0,3,1,2,-3,-2,0,-1
284891447830,-1,-1,-3,-3,-4,0,-1,2
284891447830,-1,-2,-3,-1,1,-2,1,-5
284891448542,-6,1,-2,0,-1,-4,1,-3
284891448542,0,-1,-2,-2,1,-1,-3,1
284891462097,0,3,-1,0,-1,-1,-5,1
284891462097,-2,3,4,-2,-1,-3,-2,-1
284891477729,0,-1,0,8,4,-4,-2,0
284891477729,0,-3,-1,-3,-1,3,2,-2
284891484607,-3,4,4,2,-1,0,-3,-2
284891484607,0,-1,-5,1,-1,0,-3,-6
284891492148,-2,2,-2,-6,-5,-2,-1,0
284891492148,2,-2,0,4,0,0,-1,3
284891507718,2,-2,0,1,2,0,-1,-1
284891507718,-2,0,-2,-5,-3,-1,-3,-1
284891508524,3,-3,-4,0,-7,0,-1,-3
284891508524,-1,-3,-4,-1,1,0,-1,-4
284891522072,-9,-6,-1,-5,-1,-3,1,-1
284891522072,-1,1,0,1,0,-3,2,2
284891529543,-4,-4,-2,-2,-1,0,-4,1
284891529543,-3,1,-1,-5,0,-6,-4,2
284891544525,0,-2,-1,-1,-2,-3,-3,-3
284891544525,1,3,2,0,-4,-1,-1,-2
284891552086,2,-4,0,0,-1,-2,-1,1
284891552086,0,2,-3,1,0,-6,4,-2
284891567806,0,-4,-1,-2,-2,0,-1,-2
284891567806,0,-3,3,-1,2,-2,2,3
284891568500,1,-2,1,-6,1,-2,-1,0
284891568500,-1,3,-5,1,-6,2,-2,-1
284891582106,-2,0,0,-2,-2,2,-2,-3
284891582106,0,1,0,-1,-2,-2,-3,0
284891589613,-3,3,-3,-4,1,-4,-2,0
284891589613,-2,3,-2,1,0,2,0,-1
284891604606,1,-2,-3,1,-2,-1,-2,-3
284891604606,-1,-3,-5,-2,-2,-2,5,3
284891612063,-4,2,1,2,2,2,-2,-1
284891612063,0,-4,1,-5,-2,-2,-2,0
284891627706,-3,2,-1,-1,-2,-1,-1,2
284891627706,-4,0,-2,1,-2,-2,-5,-2
284891628486,-7,-3,-1,-7,-1,4,-1,-5
284891628486,3,-3,3,1,-3,-1,0,-2
284891642085,-1,-1,-5,1,0,-2,0,2
284891642085,-6,-2,2,1,0,2,3,1
284891649609,-4,1,2,1,-1,-3,-3,-3
284891649609,-2,4,2,1,1,0,-1,-2
284891664573,0,0,0,0,0,-5,-3,-2
284891664573,2,-2,-1,-2,2,1,-2,-4
284891671988,3,-2,-2,2,3,0,1,2
284891671988,-1,-3,-2,0,3,0,2,-1
284891687693,2,1,-3,1,-2,2,1,-1
284891687693,4,0,-6,2,-6,-1,-2,-5
284891688493,4,-2,0,-1,-3,-1,-2,-2
284891688493,-2,-6,-1,-2,-3,1,-1,2
284891702090,-4,0,2,-1,0,-1,0,-2
284891702090,-2,2,-6,-5,0,3,-3,1
284891709620,-2,1,-4,0,-1,-1,4,-3
284891709620,-1,-5,-2,4,1,1,-4,2
284891724686,-4,0,-3,-1,-5,-4,0,-4
284891724686,-1,-4,-1,-2,-7,3,-1,0
284891732152,0,-4,-5,3,3,-1,0,4
284891732152,-1,-4,-1,-3,-4,-2,-3,-1
284891747783,0,-2,-3,-2,0,0,4,3
284891747783,5,-5,4,-2,-1,-3,-2,-1
284891748586,5,0,-2,0,-1,-2,-5,2
284891748586,-3,1,-1,-6,-2,2,-2,-2
284891762059,2,3,-3,0,3,0,-4,-4
284891762059,-5,-1,-3,-4,-2,-4,-3,-2
284891769679,1,-4,-3,-1,-4,-1,-4,-1
284891769679,3,1,-1,-2,0,0,0,-4
284891784672,-1,-2,-2,-5,0,-5,-3,-1
284891784672,-4,-2,1,2,-1,-1,-5,-1
284891792152,1,-2,1,-5,-2,-2,-4,-4
284891792152,-2,-1,-2,-1,3,-3,-1,-3
284891807847,-3,-3,-2,-5,2,0,-1,-2
284891807847,2,-2,-4,1,0,-2,2,1
284891808586,-3,-1,1,2,-1,3,3,0
284891808586,-3,-2,-1,0,-3,0,0,0
284891830228,4,0,-1,0,0,0,0,-1
284891830228,-2,4,-3,1,3,-3,-1,-2
284891830996,0,-3,3,0,0,1,-1,1
284891830996,-1,5,-1,-4,-5,2,-3,-4
284891844538,5,2,-2,1,-2,0,-3,0
284891844538,-1,-3,-1,1,-1,0,-1,-2
284891852084,3,-1,2,-2,-3,-3,2,1
284891852084,-1,-5,0,-1,-2,-2,0,-5
284891867743,0,-5,3,-2,-5,0,0,-2
284891867743,-2,-3,-3,-3,3,0,-1,-3
284891868516,-8,0,-3,0,2,-1,-4,-2
284891868516,1,1,-1,2,-5,0,-2,-3
284891882015,-1,-1,-4,-1,-1,-2,0,0
284891882015,-1,-5,1,-2,-4,-2,0,-2
284891889469,-3,-1,-3,-3,-1,3,-1,0
284891889469,3,2,-5,4,0,-3,-3,3
284891904517,-5,-5,-1,-1,-4,2,0,-4
284891904517,1,-1,-1,1,-2,2,0,-2
284891920223,-3,5,-5,1,1,-2,-3,-4
284891920223,-1,0,0,-3,-5,2,0,-1
284891927648,1,-2,2,2,2,3,-2,1
284891927648,-3,4,-2,-2,-2,3,-4,0
284891928479,-4,-5,2,2,-3,1,-1,-1
284891928479,0,-6,-5,-1,-2,-3,-4,-2
284891942000,-6,0,1,4,2,1,-5,-3
284891942000,3,-2,2,0,-2,-1,1,2
284891949521,1,0,-6,-3,-1,1,-1,-2
284891949521,-3,-1,2,-4,-4,-3,4,2
284891964543,0,2,-3,-2,-2,-2,0,1
284891964543,0,-5,1,-3,0,-3,-4,-4
284891972028,1,0,-1,-3,-1,-1,2,-3
284891972028,1,-5,0,0,0,-6,-1,-1
284891987036,-1,-3,0,-3,-2,-3,-4,-3
284891987036,-3,4,-1,-3,-1,0,4,-3
284891995265,-2,-3,-1,0,-3,-2,-4,-2
284891995265,0,4,2,-2,2,-3,-3,-1
284892002045,1,-3,-1,1,-1,1,1,3
284892002045,1,-5,-1,1,-2,-2,2,1
284892009581,1,-1,0,-3,-6,-2,0,4
284892009581,-3,-3,-4,-7,6,-2,2,-3
284892024575,-4,-2,-3,-5,-1,-1,0,-2
284892024575,-2,4,-2,0,-2,2,-4,-2
284892032044,2,-4,0,-1,2,4,2,-1
284892032044,0,-4,-1,0,-2,2,-1,1
284892047007,-1,1,-4,1,3,0,-4,-2
284892047007,2,0,-1,-4,-1,-3,0,-5
284892055240,0,1,-2,5,-3,0,-4,2
284892055240,-1,2,-2,6,0,6,-3,2
284892062005,-1,-6,-3,-3,-4,-3,2,2
284892062005,2,0,-2,2,3,2,2,2
284892069519,-5,1,-1,-4,2,-3,-1,-3
284892069519,2,3,0,-5,2,-2,-1,-3
284892084544,2,-4,-2,0,1,-1,-2,-4
284892084544,-2,0,1,2,0,-1,2,-1
284892092083,-4,-3,-2,-1,-2,-3,0,0
284892092083,-3,-2,0,-1,0,0,2,2
284892107028,0,-3,3,-3,2,-1,-2,-1
284892107028,-1,-3,-3,-2,0,-1,-6,-3
284892115230,2,-1,-2,-3,0,1,0,-1
284892115230,-5,-1,1,-1,-5,-4,-1,-2
284892122083,-4,2,0,1,-1,2,0,-1
284892122083,-1,-3,3,1,-4,1,-4,0
284892129557,2,0,-2,1,-3,-1,4,-3
284892129557,-1,2,-2,-3,-1,-5,-4,0
284892144575,-1,2,2,-1,-2,0,6,1
284892144575,-1,1,1,-5,-2,-1,-4,0
284892152072,1,2,-2,0,1,-3,-4,0
284892152072,0,2,1,-5,-3,-4,-2,-5
284892167027,0,-3,-2,-2,0,1,1,-6
284892167027,-2,-5,2,0,0,1,-3,0
284892175291,-1,-1,-4,-3,1,-1,-2,-2
284892175291,0,-3,2,-3,0,-4,0,1
284892198390,2,-1,-1,1,-1,1,-3,0
284892198390,-1,-2,-3,-1,-1,-3,0,-5
284892199209,2,-3,1,2,-1,0,1,-1
284892199209,-1,-4,-2,0,-4,4,-2,-3
284892204642,-4,2,-2,-2,-1,-1,5,-3
284892204642,-3,-1,-5,-9,0,-1,-2,-4
284892212140,-1,-2,1,-2,-1,-1,-4,0
284892212140,-6,5,0,0,-6,2,3,-1
284892227143,-1,-1,1,1,-2,-2,-9,1
284892227143,2,-2,-5,1,0,-1,3,0
284892235309,-4,-2,-1,-4,0,-3,3,-5
284892235309,-1,-5,-1,-4,2,3,1,-3
284892250329,0,0,-1,-3,-3,-3,4,-3
284892250329,-1,-2,-3,0,3,-1,0,4
284892251065,-1,-3,0,1,0,1,-3,-4
284892251065,4,-4,-2,3,-2,0,-1,2
284892264502,-3,-1,-2,3,2,1,-2,-1
284892264502,-1,1,-3,3,-2,-3,2,1
284892272170,-2,-5,-2,0,-4,1,0,-2
284892272170,-1,-5,-4,-1,1,-3,0,-1
284892287037,1,-1,-1,-3,-4,1,-3,-1
284892287037,-1,-2,-3,-2,-6,-1,-2,1
284892295231,-6,4,-2,-3,-2,-3,-2,0
284892295231,-2,0,1,-1,1,-1,-3,1
284892310739,-1,4,4,1,-2,-6,-4,-2
284892310739,-3,1,2,4,-2,-1,-2,0
284892311475,2,0,1,-3,-3,-4,-3,1
284892311475,1,0,0,3,0,0,-1,-2
284892324603,2,1,3,-2,0,-2,0,0
284892324603,-2,-4,0,-2,1,1,1,-5
284892332110,-2,1,3,0,-2,2,3,2
284892332110,0,-1,-3,2,2,0,-4,-1
284892347092,-4,0,-3,3,0,1,-4,2
284892347092,2,3,-1,0,0,-3,-3,-2
284892355348,2,-3,0,1,-2,-2,0,-1
284892355348,0,1,-1,-1,1,0,-3,-3
284892370261,-3,-5,-2,-1,0,-3,4,3
284892370261,2,0,-2,-5,3,-4,-2,2
284892370989,0,-4,-2,2,-6,1,-1,-3
284892370989,1,-2,-2,-2,-4,-1,2,1
284892384662,0,-2,-3,4,1,0,-3,1
284892384662,1,-3,1,3,-5,-2,1,-1
284892392151,1,1,-2,-2,1,-5,-1,-1
284892392151,-2,1,2,-1,2,0,4,0
284892407116,-1,-5,0,-5,-4,-1,-4,-4
284892407116,4,2,-4,-2,0,0,-2,1
284892415292,1,2,-2,2,2,-1,-4,-4
284892415292,0,-1,3,-1,-4,2,-2,-3
284892430343,-7,-3,-2,-2,0,-3,-3,-5
284892430343,-3,2,4,3,-3,0,-5,-6
284892431086,-1,2,-1,3,-3,0,-1,0
284892431086,-2,-2,1,-1,0,0,-1,2
284892444701,-3,-2,-2,-7,-4,0,0,1
284892444701,-3,-4,-4,-4,-2,-1,-3,-1
284892452740,-2,1,-1,-3,0,0,-1,-1
284892452740,2,3,-2,2,2,-2,-7,-4
284892467144,1,-7,-1,-1,0,1,-4,0
284892467144,-5,-2,0,-1,0,-2,2,2
284892475370,1,-5,-2,-1,2,-1,-5,-1
284892475370,-2,-4,-4,-2,0,-5,3,1
284892490310,2,2,-3,-3,3,1,-2,0
284892490310,-1,-1,1,-2,-2,-4,-4,-4
284892491043,-3,-1,0,-5,3,-1,-1,2
284892491043,0,-6,-6,-1,-1,-1,-4,4
284892504584,1,3,-1,-1,-2,0,0,0
284892504584,-4,-1,0,-1,0,0,-1,-2
284892512068,1,-3,-4,3,2,-8,-2,-5
284892512068,0,-1,1,1,1,2,-4,-6
284892527183,-3,-2,-4,-2,-3,0,1,-1
284892527183,-5,3,-1,-5,-1,2,1,3
284892535283,2,1,-1,-4,-3,0,1,1
284892535283,-5,-2,2,-3,-3,-3,0,1
284892550240,3,3,-3,1,1,3,7,-1
284892550240,2,-3,-1,-5,1,-3,-5,-4
284892551012,-3,-4,-1,2,1,-1,-1,2
284892551012,0,-1,3,-1,-2,1,-2,-4
284892564605,-3,1,0,-1,-2,-1,2,0
284892564605,0,-5,-2,-4,1,1,2,2
284892572787,3,1,0,-1,-1,3,1,-1
284892572787,1,1,-5,2,-3,-3,0,-1
284892587114,-1,2,2,0,-3,-2,1,1
284892587114,-1,4,-2,2,4,-1,1,0
284892595396,0,-6,-2,-1,-3,1,2,-3
284892595396,-2,2,2,-3,1,-1,0,3
284892610294,2,-2,-5,-2,-2,1,-5,-1
284892610294,-1,1,-3,-1,-5,-1,1,-3
284892611034,-2,0,2,-1,-6,4,2,-2
284892611034,2,-4,-3,0,-2,1,0,-3
284892624578,2,-4,-3,-1,-1,0,1,-2
284892624578,3,2,1,3,1,-2,-5,1
284892632781,-4,5,-4,1,-1,-1,-5,-2
284892632781,-4,0,-4,0,-4,-2,2,2
284892647119,1,-4,2,-2,1,-4,-2,0
284892647119,-1,-2,0,0,-4,4,3,-2
284892662807,-2,-1,-2,-7,-2,-3,-2,0
284892662807,-2,1,-4,-5,-1,-1,-6,-2
284892670321,-2,1,-3,0,1,-2,-2,-2
284892670321,-1,-4,-1,1,0,-1,-2,-1
284892671028,0,-1,-3,1,-1,1,-2,3
284892671028,-4,-5,0,-2,2,-4,-2,0
284892684619,3,-3,-4,2,1,0,-1,2
284892684619,-3,-1,-1,-5,-3,-2,0,-1
284892692870,-5,0,-3,-2,2,0,1,-2
284892692870,-3,1,-2,-3,-3,-3,-4,-2
284892715994,-2,-4,1,-1,1,-2,-1,-2
284892715994,0,-2,-1,3,1,-2,0,0
284892716779,1,-2,1,-5,1,-2,-2,-6
284892716779,-2,-1,2,2,-3,2,0,0
284892730283,-2,1,-1,-1,-5,4,-3,-1
284892730283,1,0,-3,-7,3,-5,-1,1
284892731076,-3,-4,1,3,-7,-9,-3,-3
284892731076,-4,-4,-4,-3,0,-5,3,0
284892744588,-3,-2,3,-1,-3,-4,0,0
284892744588,0,-2,-1,-2,-1,3,-2,2
284892752158,-4,-2,0,-2,3,0,-1,-1
284892752158,4,-1,-4,4,3,-2,4,-1
284892767100,-4,0,0,-1,-2,-1,0,-3
284892767100,-5,1,1,3,0,-1,0,1
284892775332,2,2,-3,-4,-3,3,-6,0
284892775332,0,-6,-5,-3,0,3,2,-2
284892790220,-1,-4,-2,-4,3,0,-3,-2
284892790220,-4,1,3,0,-2,1,2,-3
284892790969,-3,-2,-2,2,3,0,-3,3
284892790969,-3,-2,3,3,-2,-2,-3,-2
284892804631,-5,-3,-3,-3,3,-1,3,-1
284892804631,-1,-2,-5,-1,-1,-2,-2,-3
284892812143,-2,1,-2,-2,-7,-1,3,0
284892812143,-2,0,4,-1,1,-4,3,3
284892828632,-3,3,-1,3,1,0,2,-3
284892828632,0,-1,-4,-1,-2,1,-2,3
284892835360,-5,2,0,0,-2,-3,-1,-3
284892835360,-4,1,3,1,3,3,1,-3
284892850266,1,2,2,2,-1,-2,0,0
284892850266,-1,-2,-5,0,-4,-1,1,-1
284892851072,1,-5,-1,-1,0,-3,2,0
284892851072,-2,1,-2,-4,-4,-1,-3,-4
284892866161,-4,-1,5,-4,1,0,-1,2
284892866161,-2,-3,-3,-6,-3,2,-3,-3
284892872188,-1,-4,2,4,1,-1,0,-4
284892872188,3,1,1,0,1,2,-3,-1
284892887038,2,-5,1,-4,-6,0,0,-2
284892887038,1,-2,4,-3,2,-3,2,-5
284892895292,-2,0,4,0,-6,1,-3,1
284892895292,0,0,-1,-3,-3,-1,-2,-9
284892910258,-2,2,2,-1,-2,-3,-4,-2
284892910258,1,1,-6,-9,3,-2,-4,-3
284892911013,1,0,-1,-1,4,1,-2,1
284892911013,-5,-2,2,-6,-2,1,-5,2
284892924659,-2,0,-3,1,-1,1,0,0
284892924659,-3,-1,6,4,-2,-1,-3,-2
284892932191,-1,-4,-4,22,-4,-5,3,-1
284892932191,-3,1,0,-1,-7,-3,2,1
284892947122,-1,-1,-3,-2,-2,-4,8,-5
284892947122,-3,-2,4,-1,-3,2,-2,-2
284892955311,3,0,-1,-2,1,2,0,0
284892955311,1,-2,1,3,2,-1,-1,-4
284892969594,0,-3,-1,-2,1,-4,-4,-4
284892969594,-2,3,-3,-1,0,1,5,-1
284892977725,1,-1,-1,-2,-4,-2,1,-3
284892977725,1,-4,-4,-1,-3,-1,-2,0
284892984546,1,0,-2,-3,0,0,-5,3
284892984546,-4,-5,1,4,-4,1,-1,0
284892992051,-8,0,0,-6,3,1,-3,-4
284892992051,2,-2,-3,-3,3,-1,-2,0
284893007048,0,0,2,4,0,0,-2,-1
284893007048,-2,-3,0,1,-3,-1,-1,-1
284893015326,-2,-1,0,-6,-5,-1,-2,0
284893015326,2,-2,-2,-1,-3,-1,1,2
284893030016,2,0,-2,-2,-1,-4,-1,-2
284893030016,1,2,0,-2,1,0,0,1
284893037764,-1,-1,-1,-3,4,-1,-4,-1
284893037764,-4,-3,-3,4,-1,0,3,-1
284893044583,-5,2,0,-15,0,-2,-4,-4
284893044583,2,-4,0,-2,1,-4,-3,-2
284893052062,-2,-1,-5,-4,-1,-6,-1,-1
284893052062,0,1,2,3,0,-4,-7,1
284893067093,-1,-1,-5,0,-1,1,-2,-3
284893067093,-2,0,-2,-2,1,-2,1,1
284893075290,-3,-4,-3,-8,2,3,0,-2
284893075290,1,2,1,-3,0,-2,0,-1
284893089570,-2,-6,1,-1,-6,-3,0,0
284893089570,-1,-1,-2,-3,-3,0,1,1
284893097771,3,0,-3,-2,-3,-3,-2,-5
284893097771,-2,0,-3,1,0,1,0,-1
284893112728,-3,3,-2,1,-4,-3,-1,2
284893112728,-1,-2,-4,0,-2,1,-6,-3
284893113502,-2,-5,2,-1,4,0,-2,1
284893113502,0,-3,-3,-3,-1,-2,-3,-1
284893127068,4,-2,0,1,2,-1,2,-2
284893127068,-5,-2,-3,0,-10,2,0,-1
284893135260,0,2,4,-2,0,-2,4,-3
284893135260,-4,-1,-2,-1,1,-5,3,-3
284893149580,-1,-3,2,1,3,-5,-5,-3
284893149580,-4,-5,4,-3,4,0,-6,-1
284893157809,0,-2,-2,-4,-4,1,0,0
284893157809,-1,0,-3,2,3,-2,-8,-3
284893172707,-2,-2,-3,-3,-6,1,-3,-2
284893172707,-4,3,4,-1,-2,-2,-2,-2
284893173463,0,3,0,2,-1,-2,1,2
284893173463,3,2,-2,-1,-3,3,3,-4
284893187013,-2,-1,-4,-2,-3,1,-1,-1
284893187013,1,4,2,-3,2,-3,-2,-3
284893195249,-5,-3,3,-4,-2,-2,-5,0
284893195249,-3,0,-2,-9,0,1,4,0
284893209532,2,5,1,6,1,1,-2,1
284893209532,-4,-1,1,3,-2,-2,4,2
284893217785,-1,2,1,1,-3,2,-1,-4
284893217785,-6,3,0,0,-2,-5,-1,-4
284893232779,-5,-3,-1,0,-1,-1,2,-1
284893232779,1,-2,-2,3,3,-7,-4,2
284893233547,-2,0,-1,1,-1,0,-1,-3
284893233547,0,2,-5,2,-4,2,1,3
284893247079,-2,4,0,0,2,0,0,1
284893247079,0,-3,-1,2,2,0,1,-1
284893255237,-5,-1,-4,0,-1,3,0,2
284893255237,-5,0,-1,-2,3,0,-2,1
284893269655,-3,0,-1,-1,-3,-2,0,-2
284893269655,-1,0,-3,0,-1,0,1,0
284893277790,2,-3,-1,0,-3,2,-1,-5
284893277790,0,1,4,-4,-1,0,0,-3
284893292773,-3,0,0,-1,2,1,-4,-1
284893292773,1,0,-2,-3,3,-2,-3,-1
284893293525,-2,1,-2,0,2,-8,-1,1
284893293525,1,-6,4,-1,-1,0,0,3
284893307126,0,-4,8,2,2,-1,-1,3
284893307126,2,2,-3,-1,-6,-1,1,-5
284893315270,2,-4,1,4,-3,0,-1,-3
284893315270,-2,-6,-1,2,-5,-1,1,-1
284893329625,0,-2,-4,-2,-3,-2,2,-2
284893329625,1,0,6,1,4,1,1,-1
284893337732,1,-2,0,4,3,0,-2,2
284893337732,2,6,-4,-3,-3,-2,0,0
284893352790,-1,-1,-3,3,1,1,-1,-5
284893352790,-6,1,-3,-1,-3,-2,-3,2
284893353516,0,4,2,-1,4,1,2,0
284893353516,3,-6,0,2,0,-2,-7,-1
284893367128,0,-1,-2,-7,-5,-6,-2,-2
284893367128,-1,-2,-5,-2,-1,0,0,-5
284893382825,0,-1,-2,3,-2,-1,-2,0
284893382825,1,-2,1,-4,-5,-3,1,-3
284893389577,0,0,0,5,1,-1,0,-2
284893389577,-1,-1,-4,-2,-3,-2,-1,-2
284893397783,-2,3,-1,-4,-5,-6,0,-2
284893397783,-1,1,-2,0,-2,-5,-3,0
284893420922,-6,-2,-5,-5,2,-1,-3,-2
284893420922,0,0,0,-5,-7,-2,1,-1
284893422534,-1,-1,-3,2,2,3,4,-1
284893422534,1,-1,-2,-1,1,0,-4,1
284893427033,-2,1,0,-1,0,0,2,2
284893427033,1,-2,-1,9,-1,0,-4,0
284893436082,0,-1,1,-4,-2,1,-2,0
284893436082,-5,-2,-2,-2,1,-4,0,-4
284893449587,0,2,-3,0,-2,-3,-3,-1
284893449587,-4,-8,0,-2,-1,5,-3,0
284893458571,-10,-2,-4,-4,-2,-4,4,1
284893458571,-1,2,-2,1,-4,-1,0,1
284893472123,4,-6,-1,-3,-3,-1,0,1
284893472123,2,0,1,-2,3,-1,4,-5
284893481105,4,-6,-2,-4,-2,0,1,-4
284893481105,0,0,0,0,2,-2,-4,1
284893487064,0,-4,0,1,-1,2,0,-2
284893487064,4,1,-2,0,1,-2,-1,0
284893496080,1,1,-2,-3,-2,-1,-2,4
284893496080,-3,-1,4,1,-3,-1,-1,-4
284893509619,0,0,-5,-1,-1,4,-3,2
284893509619,-2,2,-2,2,0,-3,0,-3
284893518566,-5,0,0,-1,0,0,0,3
284893518566,-2,-5,-4,-1,1,1,1,0
284893532120,6,-2,-1,2,4,-5,-1,1
284893532120,-2,0,4,-2,-4,-3,1,-2
284893547711,-1,2,7,-1,-2,-5,-5,-4
284893547711,4,-2,-4,1,-2,0,3,-5
284893548501,-6,1,2,-2,2,1,1,-2
284893548501,-2,-5,-7,-3,-2,2,2,2
284893556068,2,0,2,-4,-2,-2,1,-2
284893556068,-1,0,1,-4,-2,-2,-3,2
284893569598,0,0,-1,0,1,-4,-3,-6
284893569598,-7,-1,-1,-1,2,-1,-1,2
284893578574,3,0,1,-1,2,-4,-2,-2
284893578574,-1,-2,0,2,0,1,-5,1
284893592121,-2,0,-2,1,0,0,0,-1
284893592121,0,-1,1,0,-4,2,-4,0
284893601053,1,-1,-7,-3,-1,0,-1,-5
284893601053,-3,-1,3,-3,2,1,-3,-3
284893607104,0,3,1,-2,-1,0,-1,1
284893607104,-1,5,-1,-6,0,-4,-3,-3
284893616129,-3,-2,0,2,1,0,-1,1
284893616129,-1,2,4,4,-1,0,-2,1
284893629637,-1,-3,1,-3,2,-4,0,-2
284893629637,3,0,-3,0,-1,-3,0,-2
284893638569,-1,-1,-3,5,-4,-3,-1,-4
284893638569,2,2,0,-6,-3,-3,-2,-2
284893652093,-2,-5,-1,-5,-4,-4,-1,-1
284893652093,2,-8,0,4,1,-1,2,1
284893661043,-1,-3,1,-5,2,2,5,-3
284893661043,1,-5,-4,2,-2,-3,1,-1
284893667111,-4,3,-3,0,-8,-4,-5,-4
284893667111,0,-2,-3,-3,0,-1,-4,-1
284893676049,-2,-2,-3,-2,-1,-1,-3,2
284893676049,-2,-1,0,1,2,-1,-2,-2
284893689623,2,0,-4,-1,2,-1,-1,-1
284893689623,-2,1,1,0,-6,-2,2,-2
284893698590,-1,1,-2,2,-2,1,-2,0
284893698590,0,0,-1,-2,3,-1,4,4
284893712103,-1,-7,1,-1,-2,-2,-3,-2
284893712103,-1,-1,0,1,0,-5,-1,0
284893721096,0,0,0,-3,-2,0,-5,1
284893721096,-2,2,-4,-8,-2,-1,-2,-2
284893727079,-2,-5,-2,0,-2,4,1,5
284893727079,-1,0,-2,2,4,0,-2,-3
284893736037,-1,-2,-4,0,0,-1,-3,-1
284893736037,-2,0,2,0,-5,0,-2,1
284893749594,2,-4,2,0,-2,0,-5,0
284893749594,-6,1,0,-7,3,-3,-2,2
284893758624,-2,-1,-2,1,-3,1,1,-3
284893758624,-1,2,-5,-2,-3,2,-4,-4
284893772107,0,-2,-5,-1,-1,1,2,0
284893772107,1,-5,-2,1,-2,-2,3,0
284893781124,-1,-4,1,0,-2,-1,1,-1
284893781124,-3,-1,-2,-1,-1,-5,6,-2
284893787092,-5,-2,-2,2,3,2,0,-3
284893787092,-4,-4,-4,0,-3,-2,-1,0
284893796125,0,1,-1,-2,4,1,-2,0
284893796125,-4,-2,-1,-2,-1,2,0,-4
284893809590,1,-2,-1,-2,-1,-2,0,-3
284893809590,0,-1,0,-1,-2,0,0,-3
284893818592,-5,-4,-6,-2,-4,-4,-2,4
284893818592,-5,-3,-2,-2,-2,3,1,1
284893832093,-5,2,-1,3,-2,-3,-1,2
284893832093,-4,-1,-2,-4,-3,1,-5,0
284893841100,2,-1,-4,0,0,-3,-3,-2
284893841100,5,-3,-1,5,-1,-6,-2,-2
284893847103,-3,1,0,-1,2,-2,-2,-4
284893847103,0,5,0,5,3,-1,-5,-3
284893856105,0,5,1,3,2,-2,2,2
284893856105,-2,-4,-2,1,2,2,3,0
284893869599,-1,-4,0,-7,-5,6,3,4
284893869599,-3,-6,0,-12,-5,6,-6,2
284893878624,-5,-3,1,-7,-3,0,0,-2
284893878624,-6,-3,-2,-6,1,2,-1,1
284893892030,-1,4,0,0,-2,-2,3,2
284893892030,6,4,0,6,1,-4,2,-1
284893901075,3,7,-1,7,2,-9,-5,-4
284893901075,7,2,-1,7,-2,-8,-3,-5
284893907084,-3,-1,-4,3,-2,-5,-7,-10
284893907084,0,1,-1,0,-3,3,2,-4
284893916103,-5,-1,2,-6,-4,2,6,6
284893916103,1,1,3,-8,-4,7,5,3
284893929596,-5,-3,1,-7,-1,2,-2,2
284893929596,-1,0,-1,-2,-4,-1,2,1
284893938602,5,-3,-3,0,-4,-1,-1,-4
284893938602,1,-1,1,4,-2,-4,-6,-1
284893952104,4,4,-3,3,1,-8,-4,-1
284893952104,1,-5,-2,6,-2,-4,2,-7
284893961070,4,-4,1,-3,-2,1,-5,0
284893961070,-6,-6,0,-5,5,3,-4,-2
284893975938,-3,-3,-3,-2,-2,-1,7,2
284893975938,-5,-4,2,-3,1,2,3,0
284893977547,-2,-1,-3,0,-1,3,0,-1
284893977547,-1,0,0,-1,1,-6,-1,-2
284893989610,1,-3,3,4,0,-5,-4,-4
284893989610,3,1,-2,3,0,-4,-7,-3
284893998539,3,1,1,3,-2,-2,-3,-4
284893998539,1,2,0,1,5,-2,2,-2
284894012775,3,-1,2,-2,-1,3,1,-1
284894012775,-4,-3,0,-8,-4,0,1,4
284894019638,-1,-8,-1,-5,1,-1,0,1
284894019638,0,-1,0,1,1,1,-1,-1
284894027113,2,0,-1,0,-2,-3,-1,6
284894027113,2,0,1,6,0,2,0,0
284894036083,-1,1,-4,-2,1,-4,-3,-7
284894036083,3,2,-4,1,-3,-3,2,2
284894049628,-2,0,-3,-2,-5,1,-1,-4
284894049628,0,0,1,-1,1,-1,3,2
284894058589,-2,-5,1,-5,-4,3,1,-2
284894058589,-6,-2,2,0,0,-2,5,2
284894072130,-3,0,-1,-1,0,-2,2,0
284894072130,-5,3,-4,-1,4,1,-7,1
284894081139,0,3,2,1,2,-5,-3,1
284894081139,-1,1,-3,-3,-3,1,-3,-1
284894096049,-4,1,1,-3,0,0,-1,-2
284894096049,-2,0,-3,-4,-3,-2,1,-2
284894097564,-4,-1,-3,0,-3,0,-3,-5
284894097564,-3,-1,0,-1,-6,1,-1,-1
284894109585,-3,3,-3,-4,4,1,0,-2
284894109585,-1,-1,0,-2,2,-5,-2,-3
284894118573,-3,4,1,0,0,0,-1,-1
284894118573,-3,-1,-3,4,-1,-2,-4,-2
284894132143,-1,-5,2,0,-6,0,-3,-2
284894132143,-1,-6,1,0,-3,-2,-2,2
284894141064,-2,1,0,-3,-3,-1,-2,-3
284894141064,-2,-2,-3,-1,0,3,-7,0
284894155926,2,-3,-1,-5,-2,-4,3,-1
284894155926,-2,0,2,-4,-4,-3,-5,-5
284894157578,2,-3,-3,0,-8,-5,0,-2
284894157578,1,3,-4,-7,-6,-3,-5,-3
284894169621,0,-4,-4,-1,-1,-3,-1,-4
284894169621,0,-1,1,-2,-5,-1,0,-2
284894178549,0,-2,-1,2,-1,0,0,-1
284894178549,-4,-6,-3,-4,1,-2,1,-5
284894192118,0,0,-3,-2,-4,-3,0,-1
284894192118,1,2,0,-1,-2,1,1,-2
284894201123,-2,-4,-1,0,1,3,2,0
284894201123,-2,-3,2,-7,-2,-1,1,-1
284894216034,0,1,-2,-1,1,-4,-4,-2
284894216034,1,-2,-2,0,2,0,0,0
284894217556,0,5,0,2,-1,1,-2,4
284894217556,-1,-3,-2,-1,-2,-2,0,-5
284894229581,-3,-2,1,1,1,2,-1,-2
284894229581,-2,0,-4,-2,-1,0,2,3
284894238660,-1,-1,-4,-5,0,-1,0,0
284894238660,-1,0,-2,0,3,-1,-1,-5
284894252772,-4,0,-1,0,-2,1,-3,2
284894252772,-3,-3,-3,-1,-2,0,-2,-3
284894259577,-1,-3,0,0,0,1,0,1
284894259577,-1,-1,-1,-2,-1,-1,1,1
284894275920,-3,-1,-2,-2,0,3,3,-1
284894275920,1,-2,0,0,0,-1,0,1
284894277540,1,-3,0,-1,-1,-2,-2,-3
284894277540,0,-6,0,0,-1,1,5,0
284894289623,0,1,0,-3,-2,-4,-2,1
284894289623,-2,1,-4,0,-2,-2,-1,1
284894298578,2,1,1,1,-2,0,0,0
284894298578,-1,2,1,3,7,-2,-7,-1
284894312868,-3,-3,-2,3,0,-1,-3,-2
284894312868,-3,-1,0,4,-2,-2,0,-1
284894319637,-1,-4,1,1,2,-1,2,2
284894319637,-2,1,0,-3,-6,-4,2,5
284894336647,2,3,-1,1,0,2,0,-1
284894336647,3,-2,3,1,4,-2,-3,-1
284894338211,-3,0,-4,-2,2,0,-2,0
284894338211,0,2,0,4,0,-1,-1,-1
284894349574,-3,-3,-3,-6,0,2,-2,-2
284894349574,0,2,-3,0,-5,2,2,3
284894358620,-4,0,-1,-4,-3,-1,4,-2
284894358620,0,-1,0,-2,-4,-2,0,3
284894372817,0,-2,2,2,-2,2,2,0
284894372817,-1,-1,-1,-5,-2,-5,-5,-1
284894379584,-1,2,1,-1,1,-1,-3,0
284894379584,0,-1,3,0,0,0,-1,0
284894396022,-3,0,0,-2,-2,-3,-3,-1
284894396022,1,0,1,-3,-3,1,-2,-7
284894397530,-1,1,-4,0,-1,-3,1,-4
284894397530,4,1,1,2,-1,1,-2,-2
284894409611,3,-2,2,4,0,-2,-4,0
284894409611,-4,-1,1,2,0,-2,-2,1
284894418600,0,-2,-2,-4,-5,-2,-4,0
284894418600,2,0,-1,-1,2,0,-1,-1
284894432768,-1,-1,-1,0,1,0,0,5
284894432768,-2,-4,-5,-5,-1,-5,1,-5
284894439633,1,-1,6,2,-1,1,-4,1
284894439633,-1,-1,-4,2,3,-3,4,2
284894456024,-1,-3,-5,-3,-3,2,1,1
284894456024,-3,0,2,0,-2,-4,2,0
284894457562,-2,-2,-5,0,0,2,-1,-1
284894457562,0,-2,-1,-2,-3,-1,0,-3
284894469593,-2,2,3,-1,3,-3,-2,-4
284894469593,2,0,-1,-3,-4,2,-1,-5
284894484619,0,-5,1,1,-2,1,0,-2
284894484619,-2,-5,-2,0,-2,2,2,2
284894492829,1,1,-3,-4,-5,-4,-3,-3
284894492829,-1,0,-2,-3,-1,-3,-3,-2
284894499609,0,0,0,4,4,-1,-1,-2
284894499609,2,-2,0,-3,-6,-1,0,1
284894516025,-1,0,-3,-2,-1,1,-3,0
284894516025,-1,1,-6,2,-4,-3,1,2
284894517575,-2,-1,-1,-2,-2,-3,2,-3
284894517575,-2,1,-3,-2,-3,0,-5,-8
284894530062,1,2,-3,-5,0,-4,-1,-4
284894530062,-1,-5,-1,1,-2,-2,-4,1
284894538595,-2,0,-3,-6,-2,0,-2,-1
284894538595,1,-4,2,-2,-1,-4,-1,1
284894560961,-4,-7,1,2,-2,1,-1,1
284894560961,2,0,1,-2,3,0,0,-1
284894562546,-2,-5,-2,-2,-1,-3,-1,0
284894562546,-3,0,-4,-5,-2,1,-2,-2
284894576030,1,2,-3,3,-4,0,-2,-1
284894576030,0,0,0,1,3,-2,-3,2
284894577621,1,0,-1,1,-8,-2,-2,1
284894577621,1,-3,-1,-1,1,-1,1,-2
284894589579,-6,-8,-1,-5,2,-3,0,2
284894589579,-1,-1,-5,-3,-2,2,-2,-1
284894598621,-2,4,-2,-1,0,-3,3,-4
284894598621,-4,-2,-1,-1,3,-1,-2,-2
284894612824,-1,1,1,1,-1,-5,0,0
284894612824,0,3,-2,-2,-6,-1,1,-2
284894619633,0,-2,-1,1,2,-2,-5,0
284894619633,0,1,-1,1,-3,-1,-1,3
284894636421,1,-3,-1,1,-1,4,2,-2
284894636421,-3,-6,1,-3,1,0,1,-2
284894642085,-1,-2,-4,0,-2,-2,2,4
284894642085,0,2,-1,0,-3,-1,-1,0
284894649577,3,3,0,-2,-2,-3,0,2
284894649577,-1,-1,-4,-3,2,-2,-1,0
284894658595,0,-1,-1,-1,-3,-2,-3,0
284894658595,-1,-5,-2,-1,-1,0,-4,0
284894672805,-3,-2,1,0,0,-1,-2,1
284894672805,-1,0,0,0,1,5,-2,-1
284894679593,1,0,3,-6,-1,-1,-2,-5
284894679593,-2,0,2,1,-2,-2,-2,2
284894696028,1,-1,1,0,2,2,1,-5
284894696028,0,3,-3,-4,-3,-6,-2,-2
284894697531,-1,1,-3,-3,-1,-5,-3,-3
284894697531,1,0,0,0,-6,-3,3,-4
284894709642,-2,-5,-1,-3,-2,-7,-5,-1
284894709642,0,1,1,1,-5,-1,-3,-1
284894724641,3,-4,5,-3,-1,4,2,-3
284894724641,-4,2,-5,0,1,-3,-4,-2
284894732821,-1,-1,2,-1,0,1,-3,3
284894732821,0,-2,0,1,2,-1,-1,-1
284894739581,1,0,-1,-2,0,-1,2,-1
284894739581,2,1,-1,1,-1,-6,-3,-2
284894756031,0,0,-1,-2,-3,2,0,1
284894756031,-3,-3,-1,0,-3,0,-5,0
284894757549,-5,2,-5,0,-2,0,-1,-3
284894757549,-2,-2,4,1,-1,3,1,-1
284894769658,-2,-4,-1,-2,-2,2,2,-2
284894769658,3,0,2,1,1,-4,2,0
284894778586,2,0,0,1,0,-2,5,3
284894778586,2,-1,0,-3,0,-2,0,1
284894792850,-3,1,-4,1,-1,-3,-1,2
284894792850,-3,-3,-2,0,-1,4,-1,-3
284894799636,-5,-1,2,0,3,3,2,1
284894799636,-3,-2,0,-2,-1,1,-1,-1
284894815990,2,0,1,2,-2,-1,-1,-1
284894815990,-4,-4,0,-2,-3,-2,-4,1
284894817618,0,2,2,5,5,-5,-1,1
284894817618,-4,2,-1,1,-4,0,-2,-5
