timestamp,emg1,emg2,emg3,emg4,emg5,emg6,emg7,emg8
42707707620,-1,-2,-9,-4,-4,-3,0,0
42707707620,-3,2,-9,-1,-4,-1,-1,0
42707708429,2,2,3,1,0,-1,-2,-2
42707708429,1,-4,4,-5,1,-2,-4,-4
42707709231,1,3,4,-1,-4,-1,-6,-7
42707709231,2,1,4,-1,1,2,-8,-7
42707710027,2,-3,5,-8,1,2,-5,1
42707710027,0,2,-5,4,1,1,-1,8
42707721435,-4,5,-1,7,0,-1,2,6
42707721435,0,-5,-5,1,1,1,4,9
42707729424,-28,-4,-11,2,0,-3,17,14
42707729424,9,-3,-49,42,-10,1,47,45
42707735852,25,-1,12,-17,-3,-4,-48,-33
42707735852,3,2,7,-17,-1,-2,-30,-24
42707754840,2,1,2,-15,1,-1,-28,-25
42707754840,-6,2,4,-13,-3,-3,-4,-9
42707759547,-5,1,-15,26,1,3,31,31
42707759547,6,1,-27,18,-7,0,10,8
42707768440,-5,-3,-30,4,-3,-4,2,3
42707768440,-8,1,1,-4,2,-3,-12,-11
42707782661,-7,0,-10,-5,-2,3,2,-2
42707782661,3,-4,-3,-1,1,0,0,-2
42707788238,8,4,5,7,-4,0,6,4
42707788238,-1,-2,-1,0,0,0,-6,-5
42707835096,-4,0,-25,4,1,0,0,0
42707835096,0,-3,-28,8,-1,-2,-1,-1
42707835803,2,-3,-3,-6,-6,-2,-4,-3
42707835803,0,-1,4,0,0,0,-6,-6
42707836636,-4,-1,12,-10,-2,0,-10,-9
42707836636,-3,-1,6,-11,2,3,-8,-4
42707837427,1,-4,-5,-2,6,-1,7,8
42707837427,1,4,-13,11,0,4,20,19
42707848075,-2,-1,-11,8,-2,0,21,23
42707848075,-1,0,-6,8,-3,-2,20,20
42707855576,-3,3,-4,2,2,-2,4,6
42707855576,0,0,1,-2,1,0,11,12
42707864477,2,-1,-9,3,0,-3,18,15
42707864477,0,2,-15,9,2,-2,44,28
42707878699,1,0,-15,12,-2,0,35,24
42707878699,3,-4,13,-3,1,0,-11,-5
42707885567,1,-5,21,-20,3,-1,-42,-29
42707885567,-3,6,17,-27,2,-7,-47,-44
42707893032,-2,1,18,-32,1,-3,-37,-37
42707893032,-6,-4,18,-10,1,-6,-10,-15
42707908000,2,1,-3,5,0,0,-1,-4
42707908000,-1,-6,-2,7,-4,-1,-2,0
42707915490,0,0,-13,5,-4,-3,2,3
42707915490,-4,-4,-23,2,-2,3,2,2
42707924574,-3,-1,12,-11,-2,1,-23,-9
42707924574,1,-1,27,-25,-4,-3,-57,-47
42707938683,-6,0,6,-16,0,-3,-26,-30
42707938683,-1,0,-6,-13,-4,-6,-7,-17
42707945689,2,-1,-14,24,-5,2,30,27
42707945689,3,-2,-25,24,-1,3,13,18
42707953210,-1,3,-10,4,-2,-3,-2,1
42707953210,-3,-1,7,-18,-3,-2,-13,-9
42707968041,-2,-1,4,-20,2,-4,-11,-14
42707968041,0,-3,7,-8,-1,0,-5,-7
42707975485,-5,-5,4,-1,3,-1,-6,-6
42707975485,-6,-2,-1,7,1,-2,-5,-3
42707991938,-1,-4,-3,-1,3,-3,-5,-8
42707991938,-5,-3,4,-4,0,-2,-1,5
42707998668,-4,-1,1,5,3,-3,6,11
42707998668,3,-3,-3,1,-2,0,1,8
42708005464,-7,0,-1,-4,-2,-4,5,3
42708005464,-1,2,-4,2,3,-2,13,13
42708013022,2,0,-5,6,-2,3,15,17
42708013022,-4,3,-20,6,0,-5,24,20
42708028001,-6,-1,-18,10,0,2,38,24
42708028001,-2,-5,-13,10,-4,-1,41,27
42708035490,3,-7,7,2,1,-3,1,8
42708035490,3,0,13,-14,2,-4,-41,-22
42708044572,0,3,7,-24,0,-8,-39,-38
42708044572,-4,-1,9,-28,6,-6,-45,-42
42708058690,-2,0,6,-26,5,-4,-25,-29
42708058690,2,0,8,-7,0,-2,-7,-13
42708065469,-2,1,-4,11,-1,-1,-2,-1
42708065469,-1,5,-17,9,-1,4,4,2
42708072989,1,-1,-18,10,-3,2,4,5
42708072989,-2,-3,-13,4,-2,0,7,3
42708088036,-3,-3,15,-19,-3,0,-35,-23
42708088036,0,-1,7,-12,0,-1,-27,-25
42708095475,-2,1,3,-12,-1,-3,-21,-16
42708095475,1,1,-16,-10,2,-1,11,-2
42708104469,4,0,-6,25,0,1,42,30
42708104469,-4,0,-20,27,-3,0,30,34
42708118729,-1,-4,-16,21,-7,4,15,17
42708118729,-1,-4,-21,13,-1,-4,-4,0
42708125555,2,-5,-29,-1,0,-2,-9,-7
42708125555,6,-2,-7,-10,-1,1,-10,-7
42708133045,3,1,-1,0,0,-2,1,-4
42708133045,-15,-6,-29,28,-8,2,26,29
42708148018,0,2,-11,23,-2,4,17,22
42708148018,3,-3,-17,24,-2,0,29,26
42708155511,-3,1,-22,16,-6,2,3,3
42708155511,5,9,-10,-1,-2,0,-1,1
42708164472,-18,-2,5,-4,-1,-2,-6,-5
42708164472,-7,-4,9,-7,0,0,-9,-9
42708195069,-6,-1,12,-4,1,-4,-6,-8
42708195069,-6,-5,10,-5,2,-2,-8,-5
42708196607,3,-2,-5,-1,-1,-3,-4,0
42708196607,-4,1,-5,0,-3,-5,4,6
42708197418,-6,0,-7,3,-1,2,10,12
42708197418,0,1,-10,7,1,0,13,15
42708209511,-4,1,-22,7,0,1,31,24
42708209511,-2,-2,1,6,2,0,26,25
42708215494,3,-3,4,5,3,4,25,25
42708215494,2,1,8,10,3,-2,22,21
42708224497,-3,-2,21,-18,2,-1,-24,-17
42708224497,-4,-3,13,-27,7,-5,-45,-44
42708238690,1,3,13,-20,8,-3,-26,-30
42708238690,4,-2,31,-31,12,-2,-27,-29
42708245503,-6,-1,20,1,6,-6,-20,-24
42708245503,0,1,8,0,3,-1,-12,-16
42708252978,3,1,-8,41,0,-16,1,2
42708252978,-5,0,-1,54,0,-10,8,-1
42708267998,1,1,2,29,3,10,26,11
42708267998,-4,-1,11,57,5,1,2,2
42708275500,-2,0,3,93,11,-5,-8,-9
42708275500,5,-3,1,43,18,12,-3,2
42708284483,4,3,-11,-39,11,22,-6,-2
42708284483,1,-1,-15,-66,-33,7,5,5
42708298740,8,-2,-13,-109,-30,-16,19,16
42708298740,-6,1,-6,-104,-9,-10,-4,-1
42708305571,5,-2,-6,-82,-8,-15,-17,-19
42708305571,-12,-4,-8,-58,-6,0,-14,-9
42708312985,-19,-6,7,-10,6,28,43,35
42708312985,-16,-5,1,-22,-7,-1,-14,-11
42708328139,1,-2,0,2,-3,15,6,8
42708328139,10,0,1,10,29,4,43,48
42708335733,9,2,-7,3,17,-5,-16,-21
42708335733,2,2,-7,8,-4,13,-7,-7
42708344625,-5,5,2,18,-21,-10,-30,-23
42708344625,-5,-2,-2,26,-11,-7,-12,-11
42708358775,1,0,0,1,-10,1,-35,-33
42708358775,7,-3,-1,10,3,-1,9,7
42708365683,-3,-1,-3,25,4,-6,4,6
42708365683,-7,2,-2,15,6,-7,-2,-2
42708373008,-5,-3,-6,-31,-6,2,-2,2
42708373008,-4,0,0,-2,3,1,0,-2
42708388214,-13,-7,-2,-8,2,-21,-31,-18
42708388214,3,0,1,12,-1,5,-11,-12
42708395749,-12,0,-1,-1,-14,0,0,2
42708395749,11,2,1,9,-5,17,2,3
42708404566,3,2,-1,15,-36,-1,53,51
42708404566,-4,1,-3,-5,-2,0,1,-1
42708418947,22,3,-4,8,-7,13,14,-1
42708418947,-10,0,-3,-10,-40,-25,-10,-23
42708425752,23,4,3,17,2,8,-2,-5
42708425752,-8,-4,-5,-21,10,-2,-8,8
42708449525,-35,-5,-1,-26,0,-23,-23,-2
42708449525,-36,-6,-4,-38,-35,-41,-68,-63
42708451032,-7,-7,-6,-3,16,-4,-1,-2
42708451032,-40,-6,3,-38,-14,-50,-59,-68
42708455693,-24,-4,2,-10,14,-4,-35,-13
42708455693,37,12,8,28,9,39,3,7
42708464539,-22,-6,-2,-15,-24,-21,2,4
42708464539,-5,-4,-5,-2,49,8,-42,-18
42708486968,-29,-2,-2,-19,6,-35,0,1
42708486968,10,-1,0,9,-42,-1,58,62
42708488486,31,7,4,17,-11,33,-4,-4
42708488486,23,0,-6,21,41,28,14,35
42708501233,-9,-5,-2,-4,7,-14,-3,-9
42708501233,-12,-3,-1,-7,13,-5,10,26
42708516188,-37,0,-2,-39,-43,-43,-75,-74
42708516188,-10,2,1,-22,-10,-24,6,19
42708516945,25,3,5,28,10,37,7,15
42708516945,3,2,12,12,-5,9,-13,-13
42708524499,-2,-2,-1,4,-13,-2,-1,1
42708524499,-7,4,0,-11,-45,-24,-8,-30
42708554402,-23,-4,-6,-27,5,-25,-50,-51
42708554402,0,-1,-7,-4,45,15,4,34
42708555978,-16,-1,-3,-15,11,-6,-46,-45
42708555978,-19,-3,2,-18,3,-11,-58,-62
42708561180,-8,-8,4,-14,6,-7,-39,-38
42708561180,-26,-6,-5,-21,40,-7,-77,-48
42708568061,-28,-6,-5,-31,0,-28,-66,-54
42708568061,-12,-4,-1,-9,-64,-21,-7,-18
42708575530,1,0,-6,-7,-53,-13,1,1
42708575530,-11,-1,-2,-5,-20,-21,-7,-13
42708600999,8,0,-1,11,-1,8,18,18
42708600999,31,4,5,24,-5,28,28,25
42708601726,12,-2,0,15,2,19,36,35
42708601726,-15,-9,-7,-34,-9,-33,5,2
42708605547,-12,0,0,-29,16,-22,-49,-41
42708605547,1,4,-1,-4,-48,-11,13,5
42708621441,-3,-4,-1,3,11,-7,7,7
42708621441,-2,1,-5,3,5,4,1,-5
42708628160,9,-3,-4,12,7,15,24,22
42708628160,25,0,-2,27,13,32,-1,9
42708635675,5,3,0,22,32,22,57,59
42708635675,-12,-3,-2,-11,-58,-24,-5,-12
42708652059,4,3,-2,7,-33,-7,26,24
42708652059,4,0,-2,20,-3,16,10,9
42708658846,18,1,-1,5,-9,3,13,18
42708658846,-1,1,2,-21,-14,-14,-66,-73
42708665676,6,0,-1,-10,-65,-26,-41,-14
42708665676,3,2,-3,-7,9,-11,-7,-5
42708681036,1,-1,0,-16,-14,-11,-22,-21
42708681036,1,-1,1,25,7,15,72,72
42708689537,-18,-3,-1,1,-3,0,17,14
42708689537,-5,1,2,-1,-1,5,5,5
42708695716,-4,-2,1,-7,-61,-12,0,17
42708695716,-3,-2,-2,-3,-6,-2,-2,-6
42708704539,1,1,0,17,12,15,22,22
42708704539,-2,-6,-3,-18,-18,-15,-30,-32
42708718859,8,-1,-3,-1,-1,1,-1,-7
42708718859,9,0,2,-21,-13,-13,-42,-65
42708725670,3,0,-1,-2,0,6,5,-3
42708725670,-1,-2,-4,-4,-5,-4,-6,3
42708749632,-2,0,-6,2,-4,-3,-21,-16
42708749632,-8,-3,-2,-10,-27,-19,-42,-11
42708751100,5,0,1,14,25,13,18,9
42708751100,-4,-1,-2,1,-6,-6,14,10
42708755731,-5,3,-3,4,0,0,2,7
42708755731,-5,-3,0,5,2,3,17,18
42708770739,0,1,-2,-1,-4,-2,-1,-1
42708770739,10,0,-1,5,9,1,9,9
42708778874,4,0,2,-3,2,-2,-5,-18
42708778874,1,1,1,3,3,2,2,0
42708785669,-3,1,3,0,0,8,-3,-1
42708785669,-44,-4,2,8,3,13,9,5
42708801378,1,1,5,6,9,-1,3,-1
42708801378,-1,0,2,5,-2,0,5,4
42708808220,2,-4,-1,-3,-1,-11,0,2
42708808220,8,1,1,6,2,5,4,7
42708823855,2,-2,2,0,-4,8,-4,-4
42708823855,-4,4,-1,2,2,1,7,5
42708830606,2,4,-1,8,-1,5,-1,-3
42708830606,5,-1,-3,15,1,5,-1,-2
42708847107,1,-5,-5,6,-2,18,-4,-3
42708847107,-4,-5,-1,-9,-26,-19,0,-24
42708848509,-5,-5,-3,-12,2,-8,-19,2
42708848509,0,5,3,2,-6,-10,-4,-5
42708861450,-4,6,-4,-2,-7,-8,-7,-7
42708861450,-2,-5,-2,-2,8,5,10,12
42708868198,-5,-5,0,-10,-6,2,0,-16
42708868198,3,-4,0,-11,-1,-6,0,-3
42708883856,-2,2,1,6,6,-1,4,6
42708883856,2,2,-1,2,2,0,-2,2
42708907545,4,1,2,4,15,-2,40,22
42708907545,0,-4,1,-1,4,1,4,6
42708908327,-3,1,1,9,1,-4,4,-2
42708908327,-2,5,-8,-8,-30,-18,-3,-15
42708909947,2,-1,8,9,-7,-2,-3,-5
42708909947,5,-2,-8,-7,-1,5,5,2
42708921259,0,-6,-6,1,23,5,-6,12
42708921259,-3,-4,8,11,7,4,0,6
42708928188,-1,-4,-3,17,0,-4,-6,-2
42708928188,3,-2,-5,-33,-27,-25,-19,-34
42708943974,7,-1,-9,-11,-10,-6,-3,-6
42708943974,49,-3,-11,-17,8,8,1,5
42708950738,-102,3,-8,8,53,7,42,43
42708950738,19,6,14,26,8,19,4,6
42708974532,69,-1,14,9,-5,43,-8,-6
42708974532,105,-5,14,1,10,46,4,10
42708976008,-62,-5,10,16,16,7,37,-4
42708976008,-54,-2,0,54,41,-2,78,9
42708981237,-37,2,-6,3,-14,-65,-23,-38
42708981237,-42,1,-15,44,4,-1,1,-6
42708988171,56,2,-13,16,-30,21,-39,-18
42708988171,9,0,-15,6,2,66,-11,3
42709003760,-27,-15,-14,-28,9,23,19,8
42709003760,26,-2,-5,-9,-3,30,3,10
42709010573,16,-6,-4,-13,-8,10,-9,-13
42709010573,-11,-1,7,25,10,5,5,15
42709027016,11,8,18,33,7,-6,11,9
42709027016,-46,-1,-12,3,13,-15,15,9
42709028483,15,-5,-4,26,49,7,53,43
42709028483,45,6,9,20,52,17,41,59
42709041362,-27,-1,0,-9,7,11,9,13
42709041362,-44,-2,9,12,22,9,22,18
42709048087,2,4,0,-6,-21,20,-22,-22
42709048087,14,-7,-6,0,2,4,-8,3
42709063880,9,2,-5,12,17,24,22,16
42709063880,-5,-2,-1,6,6,0,3,0
42709070714,34,-1,-1,-4,2,2,-2,5
42709070714,10,-5,-7,-4,-8,0,-8,-6
42709087144,4,-3,-1,4,9,9,13,3
42709087144,-21,3,2,2,3,7,2,-2
42709088517,22,-3,-1,-11,4,-12,-5,-14
42709088517,-5,4,3,6,9,-3,21,39
42709100711,-15,-2,3,3,-2,4,1,-2
42709100711,-4,1,1,11,15,2,13,18
42709109636,-3,4,3,5,1,12,0,3
42709109636,-13,-3,-7,-11,18,-27,2,-15
42709123870,8,1,-6,1,7,10,8,9
42709123870,0,2,2,11,1,13,0,-5
42709130582,17,3,-3,11,42,0,22,15
42709130582,4,4,-4,-7,-8,-1,-10,-11
42709147066,-1,-5,-2,12,2,-1,0,1
42709147066,1,-2,-4,-8,-11,-17,-37,-18
42709148487,1,0,-1,-4,-12,-6,-8,0
42709148487,-1,-2,-2,-15,-2,-8,-52,-48
42709160704,5,-2,4,7,5,1,5,3
42709160704,-6,-6,3,-1,-2,5,4,3
42709169672,14,0,5,-12,-2,-7,-54,-42
42709169672,0,-4,4,5,-8,7,-3,-3
42709183883,-1,2,-7,-10,-4,-10,-11,-9
42709183883,9,-3,2,-16,1,-16,8,-12
42709190698,9,4,4,-2,-12,2,4,7
42709190698,-12,-4,10,-20,-8,-12,1,-3
42709207069,-9,0,7,4,8,9,0,-1
42709207069,-10,1,-1,19,13,35,73,72
42709208484,5,-2,-3,-16,6,-9,-44,-44
42709208484,2,1,-4,-9,-14,-2,-43,-27
42709220726,2,-1,0,-10,-23,-5,-23,-14
42709220726,-7,-2,-3,-16,-23,-16,-70,-57
42709229645,-1,0,0,-13,-32,-17,-45,-43
42709229645,-1,-1,-10,-10,42,-8,-43,-39
42709243905,1,-2,-4,38,7,35,51,56
42709243905,0,4,0,14,-3,-7,-12,-14
42709250673,-4,-1,-9,-12,-8,-24,2,2
42709250673,1,0,-8,3,14,-5,-1,-3
42709266913,3,-5,-3,15,24,8,45,27
42709266913,-1,-5,-3,1,-56,0,-22,9
42709268507,-65,6,5,-16,12,-22,-43,-45
42709268507,17,-1,2,-23,-5,2,-39,-41
42709280722,21,3,-4,4,-2,6,-26,-19
42709280722,24,3,-2,-16,-4,-13,-52,-43
42709289525,22,-3,-4,18,31,29,78,82
42709289525,1,-3,3,32,-15,25,78,77
42709303751,-31,-1,-2,2,-16,-8,-33,-10
42709303751,-28,-3,-2,13,20,8,-12,-11
42709310727,-3,-2,2,32,-1,38,40,53
42709310727,-9,0,5,28,-16,29,23,36
42709327043,5,-1,0,9,-10,38,39,38
42709327043,1,-3,1,-3,37,32,77,43
42709328499,-1,-3,-2,-13,4,1,-41,-42
42709328499,3,-3,-3,-21,-38,-8,-44,-35
42709340665,4,4,2,-7,-4,-23,-39,-36
42709340665,-2,-1,-1,-1,7,-28,-15,-15
42709349687,8,-3,-5,-24,-10,-61,-60,-57
42709349687,-6,-4,-1,-21,-54,-72,40,36
42709363730,1,2,0,-1,16,-47,-20,-23
42709363730,0,3,0,8,11,-6,13,12
42709378936,10,-6,-2,10,15,20,21,18
42709378936,-1,-2,-4,18,28,40,-8,-7
42709386401,2,-5,-2,-14,-7,27,-17,-16
42709386401,5,-3,2,-10,2,21,-12,-13
42709386958,-1,-1,-3,-7,-18,17,-6,-2
42709386958,-4,0,-3,-5,19,11,-5,-6
42709408852,1,0,0,3,35,5,-2,-1
42709408852,1,-1,-1,10,38,4,6,17
42709409609,-1,-8,-2,23,31,10,31,53
42709409609,-6,-1,1,2,-5,10,41,37
42709424614,-1,-3,-7,-2,25,-3,21,27
42709424614,-1,2,-1,9,35,0,-5,-1
42709430606,-2,6,-3,4,-10,-2,20,19
42709430606,0,0,3,-5,8,-4,6,8
42709446214,-1,-4,-1,8,-28,7,34,3
42709446214,0,1,-1,-16,7,-16,-41,-8
42709446959,3,0,-1,-3,-31,-12,-1,-5
42709446959,-7,-5,-2,-10,2,-4,-10,-7
42709468760,-4,2,1,-13,0,-9,-20,-13
42709468760,1,-4,-4,0,-2,2,-8,-12
42709469529,2,-1,2,-8,-7,1,2,0
42709469529,-1,1,-6,-2,5,-5,-9,-7
42709484663,-1,-3,2,-5,17,-1,0,1
42709484663,2,0,1,1,-25,-3,25,13
42709490713,-3,-7,4,-8,0,-4,0,-2
42709490713,-4,-5,-7,-7,2,-7,-2,-5
42709506239,0,-1,-7,-19,-12,-9,-19,-11
42709506239,2,2,-3,0,-11,1,3,-2
42709506989,1,-3,-1,-20,-6,-5,9,6
42709506989,-2,-1,-4,-9,7,1,-9,-8
42709528942,1,4,-1,-26,-18,-12,-46,-22
42709528942,-4,-5,-1,-8,-6,0,6,1
42709529532,0,1,-4,-21,-11,2,-11,-42
42709529532,4,0,-4,-6,-5,5,2,7
42709545368,-6,-3,-2,14,-3,0,4,-18
42709545368,-5,-5,-2,-9,-14,-3,-34,-11
42709550736,-1,-2,-4,32,0,8,43,28
42709550736,3,-1,3,34,-11,4,-12,-16
42709566386,2,-1,1,16,-18,-1,4,5
42709566386,1,-2,-2,26,-15,-2,16,6
42709567124,0,0,2,28,-13,-4,-2,6
42709567124,1,0,4,35,9,-8,14,3
42709588874,1,2,6,33,5,4,40,31
42709588874,-1,1,8,-13,3,-10,-58,-25
42709589570,-1,2,3,16,10,3,1,-19
42709589570,0,0,14,23,37,4,13,12
42709604645,-5,-2,18,-3,23,-5,-47,-40
42709604645,-2,-2,-6,9,-12,0,60,25
42709610767,-3,0,-11,-12,-10,-1,-13,16
42709610767,0,1,-34,28,-17,-1,23,31
42709626366,-1,-2,7,-32,1,-6,-45,-22
42709626366,5,2,-25,16,0,-4,19,15
42709627073,-7,-4,41,-40,6,-5,-60,-34
42709627073,-2,-3,-11,-25,-22,1,8,26
42709648768,-17,0,-21,8,-48,10,7,4
42709648768,-12,2,-33,14,-29,10,44,26
42709649511,1,-2,7,-1,-39,12,-42,-18
42709649511,-1,-2,10,26,-40,-10,-22,-26
42709664589,17,-4,15,68,13,-12,25,25
42709664589,12,1,16,73,52,7,37,31
42709670581,14,1,5,16,84,17,40,49
42709670581,20,-2,3,-38,100,38,53,48
42709685746,32,-2,18,-54,71,30,8,8
42709685746,22,-3,51,-81,71,49,-48,-54
42709693145,37,0,10,-45,17,-110,20,29
42709693145,66,4,42,-35,32,-77,-20,-30
42709708927,82,8,3,-22,-54,26,11,11
42709708927,-94,1,-7,-81,-52,-5,-26,-20
42709709495,-61,-3,-72,-7,-51,28,5,-4
42709709495,-38,-3,-59,37,-14,-25,-22,-1
42709724684,-92,-8,-57,51,20,-61,14,15
42709724684,102,-4,-54,76,-46,47,-32,-29
42709730583,18,-1,-25,6,-70,12,-8,-14
42709730583,-37,-4,-1,0,-54,55,5,4
42709745685,-28,-8,5,-23,-65,-36,-8,-4
42709745685,-3,-1,14,-4,-38,-15,0,-1
42709753202,-57,-7,-2,-1,-32,-39,-90,-95
42709753202,-55,-13,6,-23,-35,-70,-34,-29
42709768903,-23,-4,17,0,-13,11,-28,-29
42709768903,-9,7,32,19,-17,-2,10,11
42709769543,34,1,32,31,17,33,40,38
42709769543,14,-2,8,-15,3,19,-19,-14
42709784652,-1,-5,-7,-13,-85,-1,-45,-35
42709784652,-25,-14,-7,-35,-39,-66,-26,-44
42709790731,31,4,4,8,20,19,45,7
42709790731,11,4,13,10,95,-20,85,78
42709805654,7,5,6,18,127,26,127,127
42709805654,-19,-6,-19,-46,53,-50,12,24
42709813266,18,-3,-18,0,29,4,-6,-14
42709813266,3,1,14,0,21,6,-13,-17
42709828863,-73,-9,3,-56,19,-62,-6,-7
42709828863,-79,-10,10,-41,0,-54,-57,-59
42709829547,-55,-12,-5,-37,5,-42,3,4
42709829547,46,4,-13,-4,-59,31,-2,-4
42709844617,9,-3,-10,-36,-53,-39,-110,-108
42709844617,20,-2,-7,15,-3,-11,2,6
42709850720,-39,-5,0,-3,-7,-37,4,10
42709850720,-23,1,3,-21,5,-19,-17,-19
42709873918,5,-9,0,-24,-12,-25,-30,-42
42709873918,-3,2,4,-30,-10,-28,-22,-30
42709874511,7,0,5,9,11,2,1,3
42709874511,0,4,3,16,-21,21,-16,-12
42709888895,0,1,0,1,-4,2,-4,-5
42709888895,-18,3,15,-7,-9,-13,-11,-5
42709889566,12,-1,13,15,-1,12,0,4
42709889566,-31,0,-11,-28,-52,-30,-68,-66
42709904587,12,3,-21,9,10,27,5,6
42709904587,32,3,-5,23,11,30,11,12
42709910580,-7,4,-6,2,-28,14,-12,-11
42709910580,-9,-10,-8,-11,54,-5,57,55
42709925817,31,0,-14,23,12,71,8,7
42709925817,15,-4,15,68,121,-8,127,127
42709933243,23,6,31,18,-4,25,-8,-7
42709933243,-42,-5,-10,-33,-102,-5,-109,-109
42709948732,-24,0,0,-25,-125,-39,-123,-121
42709948732,2,-4,4,-6,-20,-37,-12,-13
42709949468,-14,-6,-15,-49,-96,-52,-22,5
42709949468,-5,-4,-1,-4,17,-14,3,4
42709964629,14,1,4,14,48,16,55,59
42709964629,-10,2,-18,-31,-75,-8,-83,-82
42709970809,0,-7,-13,-6,39,-28,19,14
42709970809,20,6,4,29,-20,32,9,11
42709985561,-27,-1,-7,-22,-18,-39,-39,-38
42709985561,10,-1,-4,29,48,22,50,50
42709993206,-14,1,-3,29,17,42,8,6
42709993206,-3,-4,-12,4,-3,-9,-11,-12
42710008772,-7,-5,-6,-1,30,-32,24,21
42710008772,8,-4,-3,-6,10,11,11,11
42710009530,-7,-3,-6,-4,20,-2,-11,-25
42710009530,-1,1,2,13,36,-3,51,48
42710024604,35,8,14,10,-21,0,16,58
42710024604,0,-1,-2,-22,-22,-5,-23,-22
42710030613,5,4,7,31,30,22,50,51
42710030613,-23,-3,8,5,10,-9,-2,-2
42710045706,-15,1,7,-8,40,-5,33,24
42710045706,13,3,1,-7,-14,3,-2,4
42710053200,1,2,-1,-25,2,-45,-18,-11
42710053200,-12,-4,3,-19,0,-23,1,1
42710068865,-22,1,-5,-6,11,4,-4,-2
42710068865,-17,-1,-1,-9,-15,3,-33,-19
42710069560,-5,-4,-3,-11,4,7,-4,-12
42710069560,4,-4,-3,-43,0,-27,-8,-7
42710084649,-3,-3,-2,-7,-17,-19,-25,-20
42710084649,-12,4,-2,2,21,8,57,-28
42710090746,-1,-1,-4,-2,21,8,60,-42
42710090746,9,2,-1,-7,-26,-2,-40,-23
42710107085,7,-3,0,10,8,8,12,8
42710107085,-61,5,3,-1,-9,-17,-11,-3
42710113280,10,-3,-5,10,-26,14,-33,-7
42710113280,7,1,-1,1,-28,-19,-25,-61
42710128951,39,-2,-7,4,8,0,11,-1
42710128951,19,-1,-8,-3,-11,10,-14,-3
42710129570,7,-1,-4,-7,0,-12,-11,-4
42710129570,9,-2,-6,17,6,-3,2,15
42710144663,-17,0,-5,-11,-12,-58,-17,0
42710144663,10,-3,-2,-1,-12,19,-9,7
42710150643,17,-1,-2,-4,-6,-13,-11,4
42710150643,38,-5,-2,-1,-2,22,0,-6
42710165732,35,2,-4,1,-15,14,-13,-16
42710165732,14,0,-8,-35,-47,-18,-75,-33
42710173223,4,1,-6,-7,-1,-2,-5,5
42710173223,12,-3,2,8,4,0,-2,8
42710188901,-105,-5,21,-11,6,8,23,-12
42710188901,-36,-3,10,-1,-9,0,-4,-8
42710189642,-46,-7,-17,14,-5,4,-10,-4
42710189642,-13,2,9,24,11,-3,7,7
42710204694,29,-3,24,19,23,23,-7,26
42710204694,25,2,8,-5,7,-5,8,2
42710218889,-10,0,-47,-91,-3,-22,-12,1
42710218889,-56,9,-56,-7,-1,-22,4,6
42710225773,34,17,30,59,71,98,67,64
42710225773,90,7,82,72,11,-52,10,10
42710233192,-90,-14,103,60,-5,-88,-12,1
42710233192,66,-19,52,-34,-24,-36,-5,-67
42710248708,-19,-9,-69,4,-14,-80,-7,-21
42710248708,-2,2,-109,-1,-55,38,-50,-59
42710249485,127,20,-58,35,-21,68,45,50
42710249485,-92,6,-16,-6,-68,1,82,38
42710264614,-6,-10,-9,-98,-100,-61,-118,-125
42710264614,-100,-3,22,-73,11,20,-41,-57
42710270701,91,2,-24,-78,-75,-55,-128,-128
42710270701,47,2,7,44,-14,54,-43,-5
42710285722,127,-3,4,19,-27,20,-7,-10
42710285722,-5,-9,-8,26,-20,15,-15,-9
42710293303,-71,-4,27,1,3,33,12,3
42710293303,-40,-2,16,35,20,14,-8,7
42710316366,-59,-1,-6,28,-2,-45,-5,-5
42710316366,14,-1,0,6,17,-40,21,19
42710317070,-65,-2,17,34,33,5,26,4
42710317070,22,-2,-10,-1,16,6,-21,-6
42710324581,-8,-5,-2,1,-10,24,-11,-27
42710324581,-128,-6,2,16,25,38,92,16
42710330627,82,-1,-6,-33,-39,-22,-42,-94
42710330627,4,3,-2,-54,-31,-50,-73,-111
42710345729,27,-3,10,-12,-24,-5,-17,-37
42710345729,41,-3,15,-20,-19,-27,-74,-23
42710353213,16,-3,14,11,9,9,-9,-15
42710353213,39,-4,10,7,21,-7,4,4
42710368900,-18,-1,-5,7,8,2,-3,-11
42710368900,41,2,-12,1,-3,-2,-22,2
42710369629,-25,-3,-3,2,23,2,5,3
42710369629,1,6,-2,0,20,13,-15,-8
42710384608,-13,-6,-3,-9,11,12,-4,0
42710384608,27,-3,-9,-29,-10,-18,-11,-15
42710390726,2,7,-1,10,-7,9,7,41
42710390726,-17,-2,-12,-5,16,-1,1,3
42710405860,-5,-6,-1,-4,-3,17,-6,4
42710405860,12,3,1,8,-24,-7,3,-6
42710413204,-34,0,-2,-10,-22,-13,-1,-39
42710413204,-8,-3,1,6,-19,-6,-9,8
42710428922,-10,1,6,13,-20,-10,4,-8
42710428922,4,0,0,4,-24,-6,-25,-19
42710429548,-13,2,8,6,-14,-1,-23,-3
42710429548,-2,-1,1,-7,-6,-3,-12,-5
42710451393,-9,2,7,-12,-9,1,-8,-18
42710451393,-9,-3,6,19,-8,4,56,29
42710452049,-11,-4,2,20,12,12,-8,13
42710452049,-5,-5,-4,6,12,2,9,-5
42710465578,-5,-1,4,-8,22,-7,-26,-16
42710465578,1,-7,-4,-3,11,-4,-17,-10
42710473040,-3,4,-8,10,6,-5,4,15
42710473040,-1,-3,-46,29,1,1,46,49
42710488867,2,2,26,-20,4,-10,-65,-66
42710488867,10,4,-2,-5,-2,-8,-19,-15
42710489595,2,0,-14,5,-4,0,0,-1
42710489595,-1,0,48,-27,2,-2,-43,-46
42710504654,0,0,7,-14,5,-8,-28,12
42710504654,10,-2,-24,26,5,-5,39,26
42710510797,-9,-4,24,9,16,-2,-18,-15
42710510797,2,2,-9,10,22,8,14,25
42710527084,-1,-1,-20,23,31,11,44,19
42710527084,6,0,-2,-4,53,15,-1,0
42710533182,-8,-1,32,-24,87,16,18,15
42710533182,-4,-6,-5,11,89,29,52,55
42710548767,0,3,-12,16,81,49,54,49
42710548767,-3,0,14,-26,58,30,-10,-10
42710549555,2,1,5,-13,-7,4,9,-2
42710549555,2,1,8,-8,-70,-46,-11,-10
42710564692,0,0,13,-31,-127,-95,-106,-112
42710564692,3,5,33,-47,-128,-108,-128,-128
42710570822,5,-3,17,-44,-128,-77,-128,-124
42710570822,7,-1,23,-41,-124,-32,-128,-128
42710593906,5,3,-4,-3,-128,22,-112,-114
42710593906,10,1,-25,25,-128,52,-115,-113
42710594597,-5,4,7,-12,-66,58,-67,-54
42710594597,-6,0,-20,25,13,55,19,30
42710609635,-9,-4,-34,44,69,52,66,65
42710609635,1,-4,32,-23,126,17,4,5
42710615571,1,-1,-21,29,115,14,93,89
42710615571,1,4,1,-7,103,-1,7,9
42710624682,-5,0,10,-8,110,1,60,49
42710624682,4,-2,2,9,89,-1,77,71
42710630671,-5,-4,2,11,65,-5,23,22
42710630671,0,1,11,-14,40,-7,-4,-7
42710645795,0,0,5,-2,11,-6,15,7
42710645795,-4,-3,-2,-7,-9,-6,-3,-2
42710653235,-1,-1,28,-23,-9,-4,-22,-20
42710653235,-3,-2,-15,19,-25,2,46,39
42710668107,-4,1,10,-10,-15,-6,-9,-7
42710668107,-2,-2,-29,25,-39,3,41,34
42710675660,-3,-1,6,-5,-24,1,-30,-10
42710675660,-9,3,7,-3,-20,-6,-16,-25
42710684672,-11,-5,-19,7,-21,-5,6,9
42710684672,-1,2,-3,-7,-33,-2,-20,-17
42710699207,-8,0,10,-17,-11,0,5,-10
42710699207,0,-1,11,-5,-10,-2,-19,-13
42710707056,8,3,-33,22,-34,-4,7,11
42710707056,3,-2,-10,12,0,-1,24,24
42710721478,1,-3,-3,-7,-7,-5,-35,-40
42710721478,6,-4,-20,10,-7,2,-1,3
42710728193,-3,-1,36,-31,-2,-8,-31,-27
42710728193,3,-3,-18,14,22,2,51,41
42710735707,1,0,-3,6,-3,0,-6,-8
42710735707,-1,-5,-20,16,-16,3,3,1
42710751386,0,-2,-14,8,-9,-2,0,1
42710751386,0,-1,-26,22,-26,3,29,29
42710752111,0,-1,-1,-7,-2,0,-24,-28
42710752111,-8,0,-1,-3,4,-9,-12,-14
42710765604,5,-7,25,-25,18,-1,-18,-16
42710765604,-26,-2,25,-25,15,-7,-16,-26
42710773167,0,0,-28,27,-8,6,41,44
42710773167,-1,-4,-33,21,-29,-3,-4,-3
42710788270,5,1,15,-19,-24,-5,-51,-41
42710788270,8,0,-6,-3,1,-5,-10,-13
42710795852,-39,0,6,-9,17,0,1,6
42710795852,27,2,40,-38,49,-5,-33,-34
42710811448,21,-1,-15,12,25,3,29,35
42710811448,4,-1,22,-27,4,-6,-45,-36
42710812070,18,0,-1,-5,1,-7,8,2
42710812070,-17,1,-2,0,9,-3,8,7
42710833880,5,-5,5,-14,11,5,11,3
42710833880,24,-2,-10,16,9,13,40,49
42710834674,39,1,-25,13,-3,3,18,19
42710834674,22,-10,-18,9,-3,7,37,40
42710848158,38,-3,-24,13,6,13,41,49
42710848158,24,1,28,-1,50,-28,-14,-11
42710855816,-6,3,13,37,5,-2,8,12
42710855816,12,4,59,28,0,4,-12,-28
42710871317,1,1,-4,58,-31,7,12,6
42710871317,-2,3,0,98,-20,53,-13,-23
42710872067,26,1,-21,-105,2,30,-5,-5
42710872067,-14,-2,-19,-122,55,83,-10,-9
42710885802,93,-3,-3,-55,-1,17,17,4
42710885802,-102,-2,-26,-55,5,-31,-3,2
42710893277,48,0,-29,51,51,-72,9,10
42710893277,-103,-9,-49,-19,-32,-17,5,7
42710908046,-36,3,-28,-8,-89,22,-22,-16
42710908046,3,-10,-5,-115,-128,-4,-128,-122
42710915595,-72,-6,2,-91,-81,-45,-115,-121
42710915595,44,1,14,-8,-1,-21,-72,-70
42710931278,74,7,19,78,0,68,-6,-8
42710931278,3,4,22,82,13,-22,-48,-47
42710932006,-33,1,16,102,-46,69,6,2
42710932006,-77,-4,11,2,-85,-68,-119,-114
42710953899,-90,-4,-1,-31,-92,-6,-116,-113
42710953899,31,0,0,-56,-73,27,-122,-109
42710954618,62,-8,-8,-49,-39,-4,-48,-35
42710954618,127,8,4,106,92,62,116,121
42710968170,-29,7,18,58,127,1,122,121
42710968170,-9,7,-20,3,127,8,42,38
42710975752,20,-3,-3,55,80,22,65,46
42710975752,5,-9,8,-2,84,-26,7,6
42710991499,-20,-7,-2,-19,81,-16,28,18
42710991499,-51,3,12,-12,27,-17,7,21
42710992160,-48,-1,-2,17,-21,17,23,28
42710992160,34,9,-4,55,-88,48,-11,-13
42711005783,48,4,5,19,-60,23,-17,-13
42711005783,47,-4,9,18,-76,17,25,23
42711021376,-40,-1,-4,-38,-63,-24,-81,-92
42711021376,-43,-7,1,-11,-26,-34,10,10
42711028315,-42,-2,-4,-25,4,-46,-45,-45
42711028315,13,-3,-3,1,1,4,25,26
42711035837,-25,-2,-4,13,-48,5,-3,1
42711035837,-19,-2,-9,-13,-41,-4,-18,-17
42711051460,6,3,-10,19,-12,17,-11,-13
42711051460,4,0,2,-16,-6,-3,4,1
42711052069,-13,-6,6,4,-4,12,-2,2
42711052069,-3,2,-5,6,-14,8,-9,-9
42711065629,2,-4,0,10,-15,15,-11,-10
42711065629,24,0,11,28,23,17,31,13
42711073300,-3,0,9,-1,18,-38,8,11
42711073300,-5,-1,8,-1,-14,-10,-3,-16
42711088229,-28,-4,-2,-29,4,-42,-8,-14
42711088229,1,-2,-1,11,-20,11,-13,-6
42711095724,-11,-1,-17,-9,-14,2,-30,-31
42711095724,15,3,1,19,-9,31,19,36
42711111413,-6,-3,-2,-43,47,-61,18,5
42711111413,4,0,-14,62,-33,0,5,43
42711112066,-2,3,-2,-7,23,3,32,31
42711112066,-3,-8,-19,-31,-6,5,-4,-1
42711125711,-48,-6,-7,-4,-66,13,-63,-35
42711125711,8,-6,15,-10,36,4,58,45
42711133148,-10,6,12,26,4,37,4,9
42711133148,99,-7,13,10,-13,15,-11,-4
42711148178,67,-1,0,4,-12,-5,-17,-19
42711148178,20,-4,-9,-2,-8,5,-24,-27
42711155750,-2,4,3,19,47,32,61,27
42711155750,-89,-3,3,-7,28,5,14,-8
42711171427,-54,3,3,-24,2,-18,8,-6
42711171427,-61,-11,-8,-42,-23,-44,-36,-49
42711172087,-8,-7,-21,-6,-14,-32,-25,-25
42711172087,-7,4,-21,-17,3,-22,-24,-20
42711185770,17,-2,-20,-11,-44,-40,-47,-48
42711185770,9,5,-8,-19,-24,-25,-56,-37
42711193128,29,4,-7,18,-25,17,-34,39
42711193128,15,-4,1,12,-4,-29,-6,-6
42711216417,-70,-5,3,-12,5,-4,-9,12
42711216417,-2,0,9,-6,19,9,7,-26
42711217149,44,-3,16,26,32,15,41,10
42711217149,7,0,2,-8,-29,-19,-33,-24
42711231267,22,4,5,-15,5,-9,-2,-5
42711231267,23,-5,3,-26,-23,-14,-21,-5
42711232073,38,-2,-1,-30,-11,-45,-21,-17
42711232073,-23,0,-1,-14,-18,-27,7,-35
42711245679,-28,-3,5,10,-3,-9,2,-14
42711245679,-13,2,8,13,10,26,-1,35
42711261304,-26,3,8,4,0,-2,-5,-1
42711261304,-2,1,1,-9,-3,-3,-4,-18
42711268041,8,-3,-8,5,-9,10,-4,0
42711268041,7,4,-10,-21,-48,-33,-19,-80
42711275677,11,-2,-3,18,4,-3,1,9
42711275677,5,1,-5,29,22,0,10,39
42711291470,26,0,-2,36,1,-1,-10,12
42711291470,23,2,-12,23,-11,11,-45,15
42711292167,3,-2,-18,1,-15,12,-10,-25
42711292167,7,0,-12,20,-8,10,-10,7
42711305801,5,3,-16,-5,-4,14,-4,-5
42711305801,-21,-2,4,3,15,-11,11,3
42711313351,11,0,19,-38,-12,-1,-14,-10
42711313351,20,0,16,-46,-13,18,-19,-5
42711328319,-8,-2,11,-27,19,-7,17,18
42711328319,-37,1,8,-44,-5,-1,12,-9
42711335664,100,2,5,-59,-88,-51,-36,-99
42711335664,-85,-1,-19,-1,-4,-5,8,0
42711351433,-66,-1,-14,4,-20,-33,-16,-22
42711351433,-8,-1,-12,53,2,42,-4,6
42711352051,-29,-6,15,59,28,36,44,9
42711352051,43,3,39,3,-4,14,-4,-8
42711365609,49,5,39,-9,-8,23,5,-4
42711365609,39,-2,19,-44,-54,-38,-58,-66
42711373299,20,12,-9,27,7,6,-7,14
42711373299,36,6,-13,25,-15,19,-12,-19
42711388256,-2,2,-44,-12,7,-14,1,7
42711388256,54,2,-67,-19,29,-24,60,16
42711395720,-6,7,22,25,-1,-4,-16,2
42711395720,-48,6,71,26,7,41,5,4
42711411249,39,-5,81,55,-10,61,-9,-18
42711411249,-14,-19,41,28,92,41,92,92
42711411972,-42,-28,-9,-7,79,-63,114,117
42711411972,20,-3,-52,70,68,48,100,46
42711425579,72,-6,-82,-57,-106,3,-97,-93
42711425579,65,-4,-70,-18,-112,-19,-37,-32
42711433055,55,3,-28,-36,-30,-14,-16,-8
42711433055,-115,-9,-25,-19,-22,-53,-10,60
42711448146,26,-1,-26,-30,-12,-26,-49,-60
42711448146,79,2,-7,-39,-46,34,-102,-57
42711455735,-26,-8,6,-39,-91,-8,-97,-75
42711455735,15,-6,38,-11,-27,-19,-39,-26
42711471458,-52,-4,30,-9,3,-14,29,25
42711471458,-72,8,15,-10,-20,-31,-58,-63
42711472104,5,-4,-6,-19,-1,18,3,-7
42711472104,116,9,-20,-19,-27,-7,-28,-27
42711485633,-45,-6,-5,17,17,8,26,36
42711485633,-14,6,21,5,25,-18,25,11
42711493297,41,18,0,15,-27,13,-46,-3
42711493297,-39,-5,-7,-41,-51,-28,-73,-41
42711508083,60,0,15,3,-8,-24,-35,-43
42711508083,-102,0,11,-5,-18,-12,-10,4
42711515619,-39,1,-6,-10,-9,3,-59,-27
42711515619,-35,-6,-2,-50,-51,-31,-110,-80
42711531295,-74,7,13,18,1,1,-5,21
42711531295,-31,2,1,14,-12,-3,-14,-9
42711532038,-13,-5,-15,19,18,21,2,-2
42711532038,118,0,-9,13,13,-2,19,9
42711545790,42,-3,-11,-30,4,-14,10,19
42711545790,42,-5,5,35,80,7,86,60
42711561443,-18,-1,1,-9,25,2,21,11
42711561443,-32,-8,-5,-12,11,2,15,13
42711568278,-4,-1,-6,-3,-27,-22,9,-12
42711568278,-8,-2,9,-3,-4,-9,-5,1
42711575867,-10,0,5,16,1,5,-3,0
42711575867,-8,-1,-8,25,17,4,44,66
42711592180,-25,1,-7,20,10,9,16,26
42711592180,-10,-1,-12,-46,-38,-8,-52,-60
42711598800,-31,-3,-11,16,2,6,-4,-6
42711598800,-9,3,24,-19,-1,0,-1,-18
42711605656,-13,-1,40,15,25,-6,22,26
42711605656,-13,1,20,-9,-14,-17,-51,-12
42711613040,-16,-2,1,-20,11,5,-28,-40
42711613040,-14,-1,-10,-3,-3,-6,17,6
42711628131,9,-1,-7,15,-3,6,-5,2
42711628131,8,-5,3,17,-1,3,-2,-1
42711635604,-6,-1,-2,33,-8,2,14,15
42711635604,9,0,-5,28,0,-6,13,4
42711650613,-3,-7,-4,-1,2,-7,15,15
42711650613,0,-3,-3,5,-13,-4,-2,-4
42711658709,1,-2,-2,-28,-5,-22,-42,-46
42711658709,-2,-1,2,-30,-22,-10,-34,-45
42711673720,3,2,1,-34,-15,-7,-59,-59
42711673720,-7,5,-2,21,-13,-2,58,53
42711674580,-1,-2,3,12,-6,0,53,54
42711674580,-2,0,-4,20,38,6,48,43
42711688076,2,3,-14,19,53,11,52,56
42711688076,1,-1,-6,5,116,21,113,111
42711695593,-7,0,-7,21,127,34,127,127
42711695593,-7,-1,-19,35,127,36,88,117
42711710526,-15,-2,-22,5,127,119,-10,15
42711710526,-9,-3,-17,2,118,75,-114,-96
42711718756,-6,-3,-12,-23,104,16,-128,-128
42711718756,-7,-3,20,-77,-88,-80,-128,-128
42711733753,11,2,26,-71,-113,-128,-121,-123
42711733753,0,0,49,-95,-128,-128,-128,-128
42711734577,4,-5,46,-74,-128,-105,-128,-128
42711734577,3,-2,31,-54,-105,8,-128,-128
42711756239,-4,-4,7,-3,-125,73,-72,-79
42711756239,14,-1,-24,37,-128,101,29,23
42711757033,2,3,-39,73,-58,95,107,103
42711757033,0,3,-48,82,85,51,127,127
42711770594,-5,-1,-34,54,120,17,127,126
42711770594,-8,0,-27,43,127,-1,115,120
42711778741,-3,-2,-7,13,118,-5,120,124
42711778741,-6,-2,-8,5,120,-2,118,118
42711793738,-2,-1,-2,-3,127,-17,127,127
42711793738,2,2,2,0,107,-12,58,56
42711794587,-2,1,10,-11,45,-15,22,25
42711794587,-4,1,2,-8,40,-2,-3,-14
42711808069,-6,-5,1,0,-1,-12,22,21
42711808069,-5,2,29,-38,-11,-14,-11,-11
42711816275,-1,-4,23,-36,-39,-6,-62,-59
42711816275,-2,-6,-3,1,-27,0,-3,-5
42711830530,0,2,-1,11,-55,-12,-10,-8
42711830530,2,0,8,-13,-59,-6,-27,-23
42711838752,0,1,15,-21,-40,-6,-53,-56
42711838752,-5,-4,21,-21,-39,-6,-58,-56
42711853753,-13,-3,-16,9,-37,-2,-2,0
42711853753,12,-5,-8,6,-32,5,-13,-14
42711854577,-6,-1,15,-21,-21,3,-34,-35
42711854577,1,1,-25,18,-29,2,48,35
42711869582,2,4,1,-12,-16,-4,-6,1
42711869582,3,-2,-9,8,-15,-7,-28,-31
42711875575,1,-5,-48,35,-34,5,49,43
42711875575,-2,0,4,-12,-16,-2,-52,-41
42711890519,5,-4,30,-29,-17,-8,-66,-58
42711890519,3,-4,4,-14,-10,-7,-33,-39
42711899402,3,1,3,-18,0,-3,-47,-35
42711899402,1,2,19,-26,5,-5,-67,-66
42711913765,5,1,15,-23,11,-5,-55,-59
42711913765,0,3,9,46,9,-6,-48,-47
42711914579,-4,0,4,106,33,2,-6,-13
42711914579,-4,-3,4,69,-23,8,1,1
42711928026,2,-5,5,65,-6,-1,-3,-2
42711928026,7,0,-4,27,15,2,8,9
42711935580,-7,-1,-2,-50,23,3,14,15
42711935580,2,-1,-13,-50,37,-1,15,15
42711950705,2,-5,-13,-66,5,1,11,5
42711950705,-14,-6,-4,-79,-25,-12,-32,-33
42711958874,-4,-7,-9,46,-29,0,11,13
42711958874,4,1,-5,-36,-7,-5,7,9
42711973909,-15,-2,-6,-45,3,-2,-3,-2
42711973909,-9,2,4,-76,32,-13,-1,-2
42711974563,3,-2,14,-110,28,-16,-33,-30
42711974563,7,-3,4,-79,22,-4,-12,-12
42711988194,-16,-1,-5,-93,-2,-2,-56,-51
42711988194,5,2,1,-59,7,0,-31,-30
42711995674,6,0,41,-74,-62,22,-23,-41
42711995674,-23,-2,69,30,-21,5,4,-1
42712010793,52,1,51,110,4,-26,-37,-6
42712010793,33,-1,-18,98,9,47,14,19
42712018881,17,5,-83,27,6,3,-16,2
42712018881,65,-4,-96,43,4,22,-8,-11
42712033817,10,-4,-64,13,-5,-6,13,-3
42712033817,60,-7,-28,70,-11,14,0,5
42712034644,-90,0,-21,68,5,-6,60,15
42712034644,-34,-3,-12,-38,-72,-16,-33,-48
42712049596,-52,3,2,-5,-6,17,4,0
42712049596,13,-2,20,18,-17,5,-2,9
42712055684,33,1,32,1,1,4,5,5
42712055684,30,-4,34,58,4,24,-1,-6
42712070693,8,3,20,12,-9,-17,-6,-6
42712070693,31,1,4,19,-43,-31,-77,-32
42712078992,-1,-2,5,-21,-47,28,-54,-50
42712078992,-47,1,-20,-25,-98,-26,-104,-104
42712094396,8,-3,-25,12,28,7,13,27
42712094396,-62,0,-15,-60,-12,-2,-3,-12
42712095039,-10,-5,2,19,111,25,101,109
42712095039,80,7,14,19,74,-11,50,71
42712108210,90,5,3,-15,1,5,4,3
42712108210,-47,-4,7,-24,44,-19,0,2
42712115671,33,5,11,-27,-5,-15,-28,-11
42712115671,-24,-6,4,30,40,22,57,33
42712130759,-67,-1,-3,5,2,-18,9,-1
42712130759,-11,-5,2,-9,-10,-20,7,-13
42712138891,-11,-3,-6,-24,-39,-38,-39,-42
42712138891,-21,-1,-6,-23,-47,-20,-43,-38
42712153910,9,-5,0,9,-13,15,-2,-5
42712153910,-17,-2,3,-10,-39,-4,8,7
42712154603,-7,0,-1,-3,0,-6,-9,-3
42712154603,-10,0,-7,-9,-28,-2,-17,-23
42712168275,-10,-6,-4,2,-6,-4,-8,-8
42712168275,6,3,1,5,1,38,11,3
42712175710,6,0,3,-4,0,-10,-4,-11
42712175710,3,1,3,6,11,8,-2,6
42712190735,-3,2,1,-10,-33,2,-17,-21
42712190735,-4,-4,4,-12,11,-3,12,11
42712198800,16,0,-5,12,-10,9,-1,2
42712198800,2,-2,-3,0,21,5,1,12
42712213939,-2,-2,-5,-17,15,-3,-8,-3
42712213939,5,0,0,7,0,-8,8,0
42712214613,-5,-4,-2,-1,-9,-6,-12,-9
42712214613,-9,0,-1,-22,15,-13,8,15
42712228238,-1,-1,3,3,-2,5,-1,-2
42712228238,3,-3,3,29,65,20,82,71
42712235780,5,-2,4,7,3,4,-3,0
42712235780,-3,-4,7,1,17,6,11,12
42712250739,2,0,-1,-7,-9,3,4,-5
42712250739,3,4,0,5,-7,11,-12,-9
42712266476,13,-3,6,0,-9,19,3,-1
42712266476,0,0,3,-28,-29,-26,-52,-34
42712273967,0,-2,4,-1,-8,0,-13,-6
42712273967,-2,-2,3,-12,-13,7,-10,-11
42712274703,-10,1,-6,-3,-40,-6,-10,-41
42712274703,-5,-2,-3,-30,-50,-30,-72,-57
42712288295,0,-2,5,-9,-12,-6,-10,-13
42712288295,11,-1,-3,-10,-5,-13,-7,-10
42712295850,6,-1,-1,-1,8,3,9,-5
42712295850,-8,2,3,4,19,3,24,6
42712310850,-5,1,-4,0,5,-3,0,-19
42712310850,11,-1,2,-4,5,-4,-4,12
42712318819,-7,1,-7,-6,0,-7,-4,-1
42712318819,5,-6,-11,11,10,6,14,12
42712333875,24,-3,-8,5,8,40,4,12
42712333875,13,0,-16,10,-13,5,-9,-15
42712334655,-51,-2,-6,-15,-3,-12,-17,-3
42712334655,-4,-3,-1,11,13,5,12,12
42712348150,64,1,4,2,-12,-7,-2,-10
42712348150,31,-4,5,4,14,2,23,-4
42712355805,16,-1,4,2,3,-6,-6,2
42712355805,-29,-1,-1,13,12,6,19,11
42712370660,-5,4,0,19,54,15,58,57
42712370660,39,3,-1,10,-10,14,-10,-11
42712378975,-78,1,-5,10,19,6,20,11
42712378975,-22,3,-6,6,1,9,9,2
42712393908,-27,-5,1,-25,-15,3,-13,-16
42712393908,-44,-1,2,-10,-13,-14,-9,-17
42712394617,23,0,-1,3,4,0,-3,5
42712394617,-4,-5,-1,-31,-42,-32,-34,-48
42712408285,-9,-3,4,-4,-26,-15,-13,-29
42712408285,-11,-2,1,-4,-6,-14,-3,-6
42712415666,21,2,5,4,-11,3,-8,-10
42712415666,15,2,1,23,14,4,11,16
42712430811,10,-2,-7,17,-8,-2,-8,-8
42712430811,-11,-5,-9,-4,-15,-16,-9,-16
42712438897,19,-2,-11,-4,-9,-13,-7,-9
42712438897,-63,4,-5,-2,3,7,38,1
42712461861,17,-7,-3,-8,-3,-15,-4,-3
42712461861,18,1,-1,-10,-19,-11,-6,-22
42712462558,40,-2,2,1,-32,-9,-3,-12
42712462558,42,2,-5,8,3,10,0,7
42712469633,-43,-4,-4,-22,-107,-18,-3,-55
42712469633,-33,-8,-6,-11,-15,-1,-3,-7
42712475851,6,-4,-5,-12,-12,-1,-6,-9
42712475851,40,-4,-5,-25,11,7,10,3
42712490758,36,5,-6,-20,5,2,-1,1
42712490758,6,2,4,-25,-11,-11,-3,-6
42712498861,-44,1,6,8,3,0,3,0
42712498861,-45,-3,2,-1,-5,-13,-7,1
42712513179,-34,4,5,4,12,0,-1,3
42712513179,-38,6,8,0,-4,35,1,-1
42712521470,39,-5,-7,-2,8,23,-1,3
42712521470,40,4,0,-13,-6,-2,3,-1
42712528335,12,-4,10,3,7,-5,-4,3
42712528335,37,2,26,1,5,-19,4,1
42712535786,24,1,-6,-8,-8,45,0,-6
42712535786,24,-1,-25,9,74,52,-1,75
42712550705,-44,1,-5,34,23,13,11,18
42712550705,-39,12,23,62,10,117,0,11
42712558921,12,15,38,24,-22,-100,3,-19
42712558921,5,-14,62,108,86,54,105,58
42712573283,87,-15,31,24,122,32,55,114
42712573283,-53,-5,-51,35,127,-66,127,127
42712581374,31,0,-62,-24,-84,-32,-86,-83
42712581374,41,2,-52,-37,-112,-29,-61,-72
42712588201,104,15,-24,50,-52,11,-21,-32
42712588201,18,-2,18,-27,-63,-4,-59,-59
42712595667,-61,1,-38,-91,-31,-6,-69,-69
42712595667,-43,-5,-52,-98,-123,-39,-24,-29
42712610731,-17,6,15,-31,-35,-4,-39,-38
42712610731,62,2,27,-16,-87,-14,-16,-3
42712618832,25,-2,16,75,36,24,27,31
42712618832,-3,4,21,34,-7,17,-28,-13
42712633196,-3,3,11,23,-4,5,17,-6
42712633196,8,-1,-19,10,15,-11,20,12
42712648876,-13,3,8,-6,13,2,36,36
42712648876,-10,3,13,15,21,-13,1,-6
42712656403,-74,2,-9,2,-16,3,0,-3
42712656403,11,-4,6,8,19,-6,9,-33
42712657082,-77,-12,13,13,18,13,27,26
42712657082,2,3,12,50,8,25,8,0
42712670880,-17,2,-4,3,11,2,3,-1
42712670880,13,-1,-8,-2,-13,14,-8,-7
42712678910,22,3,7,14,39,20,33,28
42712678910,-6,3,13,2,27,-3,18,-6
42712693130,-14,-5,3,-9,17,-8,-6,38
42712693130,-9,-1,-16,2,29,5,-11,54
42712701422,13,0,5,14,40,26,82,29
42712701422,-52,-3,2,4,33,-2,33,4
42712716250,62,1,-12,-16,7,13,18,1
42712716250,0,1,-16,-36,-76,-18,-37,-126
42712717085,34,3,9,-38,-35,-2,-68,-55
42712717085,57,-2,-2,11,1,18,7,7
42712730805,23,-2,-17,-43,-33,-22,-76,-68
42712730805,0,-2,-7,6,21,10,5,33
42712739002,28,-6,-2,5,-5,-1,-8,13
42712739002,5,-3,-7,-22,11,-11,-28,-17
42712753254,-26,-3,-7,15,6,0,9,7
42712753254,-11,0,0,17,22,-3,20,46
42712761478,-21,-2,-7,35,3,15,17,17
42712761478,-10,-3,-9,-14,5,5,-47,-19
42712776455,-41,0,-2,6,6,9,19,21
42712776455,-16,0,-1,-7,-2,2,-9,-5
42712777091,-4,0,19,13,5,6,10,13
42712777091,-12,-1,21,12,2,10,40,73
42712799610,-14,-4,7,34,6,8,55,55
42712799610,-6,-5,-4,29,2,9,53,68
42712800309,13,-8,-4,-27,3,14,-34,27
42712800309,22,-5,8,-16,-27,-9,-49,-21
42712813286,-18,-1,0,-19,0,-12,-51,-59
42712813286,1,-2,7,-25,6,-8,-53,-61
42712821452,1,-2,10,5,15,3,9,-4
42712821452,18,-2,-5,-4,1,-2,2,-10
42712836443,-8,0,6,1,33,-5,10,-11
42712836443,-4,2,-10,-8,58,-9,1,33
42712837163,8,-2,-47,52,89,-6,114,118
42712837163,11,0,-34,44,127,5,127,127
42712850829,-38,0,-53,46,127,9,127,127
42712850829,-23,-3,-40,21,126,81,-8,-12
42712859030,-49,-4,-50,65,114,119,-84,-83
42712859030,-5,2,41,-91,-19,127,-122,-121
42712873301,-42,0,44,-98,-94,127,-128,-128
42712873301,-7,-1,26,-40,-128,-12,-109,-107
42712881351,5,3,117,-125,-128,-109,-100,-95
42712881351,14,4,102,-96,-119,-128,-119,-126
42712896481,42,1,74,-66,-127,-128,-128,-128
42712896481,13,-1,11,-3,-127,-43,-112,-122
42712897095,8,-3,-25,33,-128,90,5,-28
42712897095,0,1,-35,51,-128,111,84,66
42712910805,-8,-5,-50,35,-94,127,127,118
42712910805,-1,1,-81,81,40,97,127,127
42712918872,0,-1,-65,66,108,39,122,125
42712918872,-3,1,-55,64,127,23,108,104
42712925823,1,-2,-49,64,127,-7,98,106
42712925823,-3,2,1,4,121,-37,127,127
42712941330,-1,2,10,-15,116,-32,125,127
42712941330,-11,-1,-14,15,127,-27,127,127
42712948208,-3,1,16,-18,119,-38,42,36
42712948208,-5,0,60,-52,82,-51,-17,-21
42712955846,4,0,-3,-5,30,-17,59,59
42712955846,-7,-1,8,7,18,-31,-18,-17
42712970854,2,2,-23,21,8,-19,13,11
42712970854,3,-2,15,-23,-41,1,11,8
42712979683,-1,1,28,-28,-51,-21,-68,-66
42712979683,1,1,-16,12,-42,-13,-11,-11
42712985809,4,0,-4,1,-48,-5,-5,-5
42712985809,-2,-1,19,-24,-45,0,-29,-31
42713002114,0,-2,-4,5,-43,-10,7,12
42713002114,-3,3,-20,21,-25,-4,-2,-2
42713008145,-2,1,0,-2,-42,0,-25,-20
42713008145,5,2,2,3,-15,2,-23,-21
42713032780,3,-2,-14,3,-37,7,10,13
42713032780,-3,5,17,-27,-16,-4,-62,-62
42713033619,2,0,-8,6,3,1,14,16
42713033619,-9,0,5,-5,-9,2,0,-3
42713039591,-1,-3,-27,17,-7,-3,33,31
42713039591,0,-1,12,-9,-4,-5,-50,-51
42713045613,-3,-3,-15,13,-5,-3,0,0
42713045613,0,0,14,-22,-3,-1,-21,-15
42713070235,2,1,5,-5,4,-1,4,7
42713070235,2,3,-6,0,-4,-2,1,1
42713071100,-1,1,-19,13,10,-5,-4,-7
42713071100,5,-5,-28,17,1,1,39,42
42713084585,1,-2,25,-36,8,-4,-42,-49
42713084585,0,-1,-2,-2,-45,-3,-32,-28
42713099445,-4,-6,-4,2,-29,-3,8,9
42713099445,-8,-3,-3,4,-23,-3,3,-1
42713101055,-8,1,-16,18,-9,0,4,20
42713101055,1,-3,-20,15,4,3,22,11
42713105637,-1,-1,55,-42,14,-4,-51,-48
42713105637,-5,-7,-39,28,-24,-1,4,2
42713122131,3,-2,-14,9,-3,-1,-4,-11
42713122131,1,-1,5,-1,43,-2,0,-3
42713128135,-3,-2,-26,29,46,7,55,53
42713128135,1,-1,7,-12,73,5,12,9
42713144604,-9,-2,25,-31,26,-2,-41,-35
42713144604,-1,-2,-19,13,5,13,50,34
42713150635,1,-3,-24,20,9,-3,39,32
42713150635,3,-1,-1,6,14,5,12,16
42713159611,1,0,-30,17,-15,0,30,23
42713159611,-1,-4,-15,24,-12,1,42,50
42713173127,-8,0,23,25,12,6,-14,-11
42713173127,-30,-1,22,86,54,8,21,16
42713182115,11,-1,11,127,58,15,22,24
42713182115,25,2,26,104,59,41,-30,-3
42713188097,15,1,3,-99,-59,4,-107,-113
42713188097,72,6,9,-101,-83,-14,-93,-101
42713204608,54,3,9,-124,-109,33,-40,-40
42713204608,3,-3,-5,-99,-43,13,36,24
42713210589,57,-2,25,-48,71,49,27,40
42713210589,105,3,12,-70,21,-16,17,16
42713219628,-33,0,-2,0,12,24,19,29
42713219628,-67,-10,-37,-6,22,-44,-5,-10
42713233122,-59,1,-50,53,-81,5,-1,2
42713233122,-61,-6,-49,-33,-3,1,11,12
42713242110,31,-1,-20,75,5,28,-7,-13
42713242110,35,1,-10,10,-6,66,-11,-8
42713248105,16,3,12,86,11,11,2,-3
42713248105,10,-1,12,114,-18,-8,-2,2
42713264613,-29,-3,22,0,-19,-56,-50,-35
42713264613,44,4,32,82,-6,44,-13,-10
42713270645,-45,-4,16,-45,-71,-51,-112,-102
42713270645,-23,2,-15,-14,-128,16,-115,-118
42713279633,-10,-3,-9,-125,-127,-31,-128,-128
42713279633,36,-4,-25,-77,-65,8,-41,-103
42713293121,86,-1,-2,21,103,63,110,103
42713293121,43,4,27,3,120,50,127,127
42713302133,-10,0,19,-30,53,-13,46,35
42713302133,-31,-1,-40,-20,-22,-44,-29,-16
42713308103,-2,3,-11,-7,29,-17,-20,-34
42713308103,-47,3,4,27,5,0,4,1
42713324610,-2,-5,0,14,34,15,18,22
42713324610,11,-1,25,-1,-28,-8,1,6
42713330609,-9,-4,15,12,-26,-19,-24,-29
42713330609,16,-2,12,66,10,49,11,17
42713347060,3,1,16,8,-4,0,5,-4
42713347060,-16,-1,-9,1,0,-18,-12,-5
42713353146,-26,-4,-18,-53,-40,-38,-87,-73
42713353146,-8,-2,-21,-27,-32,-9,-29,-28
42713370368,25,2,-19,38,1,16,-4,-10
42713370368,25,6,2,41,20,16,10,15
42713371105,47,9,15,51,-6,58,11,10
42713371105,-7,-4,-2,-22,-17,-25,-15,-15
42713384621,-16,-4,-16,-27,-7,-25,-16,-17
42713384621,-15,-5,11,-51,9,-24,-1,6
42713390634,28,-2,7,-5,43,25,56,55
42713390634,5,-3,-11,0,-10,-2,-4,-3
42713399650,28,11,3,28,28,30,35,33
42713399650,-11,-4,9,5,-1,1,-7,-30
42713413123,13,-2,1,22,16,2,42,36
42713413123,-43,-5,-1,-28,-26,-24,-41,-43
42713422110,19,0,16,-5,-2,0,-1,9
42713422110,-17,-4,16,-15,51,-4,-4,-41
42713428126,-48,-8,6,-32,6,-50,-10,-16
42713428126,-44,-6,12,-43,-35,-40,-48,-51
42713444614,23,5,19,31,-15,31,-15,-21
42713444614,10,4,7,6,-5,-13,-49,-34
42713450638,-48,-3,1,-25,53,-13,59,4
42713450638,-18,0,-7,-27,23,-22,21,-49
42713459641,10,-6,-9,-8,55,-3,57,81
42713459641,18,-2,12,5,124,19,127,127
42713473126,-65,2,11,-62,-7,-41,-6,14
42713473126,80,2,-20,-12,26,4,28,44
42713482115,5,-1,-24,-25,-14,-7,-24,-37
42713482115,-2,-1,-16,11,-38,-11,-9,11
42713488110,-8,-3,-24,2,-26,-10,0,-9
42713488110,-26,-5,-10,-2,-26,-3,1,9
42713504620,7,1,-9,-40,-61,-40,-63,-64
42713504620,-43,-2,-2,12,-60,13,-59,-55
42713510646,-11,-1,0,17,-30,21,-31,-29
42713510646,-35,0,4,-12,-61,-7,-59,60
42713527111,13,-4,12,16,18,14,8,11
42713527111,12,7,8,12,9,7,26,-31
42713533100,11,-4,-4,-18,-8,-35,-4,-3
42713533100,13,1,-8,-9,30,-5,43,3
42713542133,-34,0,-5,19,38,17,36,10
42713542133,-5,-2,-4,-40,-87,-33,-82,-53
42713548090,21,-2,-3,-30,-39,-34,-20,-46
42713548090,11,-5,2,-10,9,-17,10,-5
42713564593,-29,-4,-2,-26,-16,-23,-16,-22
42713564593,10,1,-8,23,20,34,22,5
42713570633,-1,-1,-7,-20,-38,-21,-53,-25
42713570633,-12,0,6,34,5,20,1,3
42713579643,-23,-1,5,-19,-48,-18,-16,-79
42713579643,2,-2,5,-7,-3,-6,1,1
42713593143,-1,2,8,13,15,28,23,11
42713593143,-1,5,8,-21,-11,-5,-15,-2
42713602093,-1,1,-1,-12,-11,-14,-8,0
42713602093,5,-2,-3,-10,16,-3,15,17
42713608099,25,2,-2,27,15,20,19,17
42713608099,-9,0,-9,1,8,-7,16,-31
42713624579,0,-1,-12,9,7,-8,13,3
42713624579,3,-5,-4,10,5,-7,9,10
42713630666,3,-2,-5,19,59,11,-4,81
42713630666,-14,-5,-3,4,8,-1,13,10
42713639610,-12,1,1,17,0,20,-4,-1
42713639610,1,-1,1,-11,-6,-7,-18,0
42713653169,12,-5,0,-2,5,-1,10,1
42713653169,12,-1,-2,6,9,22,11,10
42713662145,-5,-1,1,-9,-3,14,-8,1
42713662145,-15,1,6,15,6,15,16,8
42713668101,-23,-1,4,15,10,17,25,4
42713668101,-16,-1,-3,13,3,2,6,9
42713684612,-6,-6,1,1,-10,-10,-16,-7
42713684612,-3,-3,-4,-6,3,1,5,0
42713690641,-3,2,-1,-4,-2,-3,11,-1
42713690641,5,-1,1,-11,-5,-5,-10,0
42713699594,5,-1,1,-10,1,-3,3,1
42713699594,15,-5,-3,-4,7,-7,9,11
42713713088,31,-1,-1,7,-2,6,6,-1
42713713088,12,1,-3,0,1,-2,6,2
42713722078,7,4,1,12,6,-4,3,3
42713722078,1,-1,5,25,3,3,4,6
42713728177,6,3,8,8,-5,10,0,-4
42713728177,12,-5,-3,7,-2,28,1,-2
42713744604,-2,-1,1,0,-15,12,-1,1
42713744604,-23,3,-7,-8,22,-5,-4,1
42713759507,-17,-1,0,5,12,3,7,0
42713759507,18,-1,6,-9,9,-19,-50,-3
42713761073,25,-8,-8,-21,3,20,-9,-8
42713761073,-94,-3,6,15,39,-6,42,39
42713773089,9,3,-58,-101,-99,6,-99,-98
42713773089,13,13,-37,45,-111,67,-9,-89
42713782151,5,7,9,98,87,-105,86,83
42713782151,62,4,27,-31,29,-73,-43,9
42713788136,-18,-25,34,51,127,-53,52,127
42713788136,38,-15,4,-41,42,53,-22,-3
42713811282,44,2,7,-11,-24,99,-27,-20
42713811282,18,4,6,56,24,-16,70,67
42713812060,10,5,10,83,12,102,107,57
42713812060,-15,-3,1,25,-63,2,11,21
42713819598,19,1,6,-17,-86,5,-98,-102
42713819598,-65,2,4,-85,-128,9,-128,-128
42713833103,-71,1,1,-85,-109,-40,-92,-64
42713833103,-2,0,-5,3,-26,-44,29,34
42713842140,31,-3,-3,-24,-74,-13,-44,-33
42713842140,20,-6,-16,-14,-61,5,-16,-15
42713848117,67,-1,-1,34,-5,-9,-12,-26
42713848117,-20,2,2,20,82,-12,27,20
42713864630,-40,-5,-8,-23,50,0,-22,-8
42713864630,38,-4,-16,-2,72,14,-23,-20
42713870660,-11,-3,2,25,48,0,26,-13
42713870660,-21,2,6,-4,48,-23,-1,-2
42713879635,-26,-1,-4,-7,20,-11,-4,-6
42713879635,20,0,-5,36,7,20,67,-36
42713893202,27,2,1,11,-3,11,5,-7
42713893202,-25,-5,4,-6,8,-37,14,-13
42713902151,-6,-6,-10,6,8,-13,16,13
42713902151,7,0,-7,-3,-8,8,-20,-15
42713915667,-12,0,-5,-11,12,10,-19,-15
42713915667,8,5,1,-17,-7,-6,-16,-11
42713924578,-20,-1,5,-13,-29,-3,-5,-23
42713924578,10,-3,0,12,-49,7,6,12
42713939445,4,0,0,-13,-44,-17,-15,-77
42713939445,2,-2,1,12,-11,-3,-12,12
42713941046,3,3,0,-1,-15,-12,23,2
42713941046,6,0,5,-5,0,7,-10,5
42713953131,12,1,5,6,-4,-9,1,11
42713953131,-11,-2,8,32,11,-4,48,0
42713962124,-14,-4,4,9,42,3,4,7
42713962124,-3,0,-12,23,34,16,33,6
42713975618,1,-2,-4,18,33,-6,4,23
42713975618,2,0,12,-30,15,-11,-37,-28
42713984636,-1,5,-9,1,10,1,2,4
42713984636,4,0,1,-3,17,-2,-9,11
42713999543,8,1,2,-4,-12,-6,8,-10
42713999543,-3,-2,10,-11,-11,0,-11,17
42714001108,-3,-4,-6,0,-12,1,-4,6
42714001108,6,1,-15,12,-17,-1,18,27
42714013078,-3,2,-7,-2,4,3,-8,12
42714013078,3,3,-7,-5,-5,-10,12,-10
42714022116,-2,-1,-16,17,-2,6,20,24
42714022116,7,-6,-16,7,-13,0,-11,-11
42714036109,-2,0,3,-1,-13,-2,-13,-3
42714036109,4,0,-1,3,-2,-3,-8,2
42714044610,-4,-3,10,-5,15,-4,-5,-4
42714044610,2,-2,-10,8,8,1,32,9
42714059503,-2,-2,21,-31,-10,-9,-47,-56
42714059503,-2,-1,5,-9,-8,-6,-14,-29
42714061092,0,1,-2,8,-8,1,3,8
42714061092,-2,-1,5,-11,-7,-6,-24,-8
42714073145,-1,1,22,-19,3,-2,-47,-13
42714073145,1,4,5,-22,-4,0,-15,-38
42714082211,-4,-3,5,-10,-9,-1,-13,1
42714082211,-3,3,-7,7,-1,-1,-1,5
42714095635,5,0,-17,9,0,-4,19,19
42714095635,-2,-1,-26,23,-1,3,42,36
42714104626,-2,0,24,-31,3,-7,-39,-54
42714104626,1,-3,5,-18,5,-4,0,-25
42714119514,2,0,-10,4,-4,4,4,4
42714119514,2,-2,19,-15,6,-2,-16,1
42714121069,5,2,-17,19,-6,-1,23,6
42714121069,-5,1,12,-12,-6,-1,-25,-8
42714133136,-2,-4,-26,27,-4,3,46,36
42714133136,-1,0,-17,16,-7,2,1,15
42714142115,0,0,-15,12,-5,-5,2,1
42714142115,0,0,4,-12,-4,0,-20,-12
42714155673,-1,5,-8,4,1,-6,20,1
42714155673,-2,1,3,-7,4,2,-15,6
42714164616,-1,0,8,-20,3,-5,-8,-30
42714164616,1,-1,6,2,5,0,-9,-6
42714179473,-1,-3,-9,11,-3,4,4,1
42714179473,1,-5,-3,-5,-7,-2,-11,-12
42714181066,-1,1,9,-10,-4,0,-23,-14
42714181066,2,1,-11,8,-9,-6,29,8
42714201976,3,0,-7,0,-1,4,-7,-7
42714201976,-3,0,6,-12,1,-6,-24,-23
42714203607,-3,-1,1,-4,-3,-2,6,3
42714203607,2,0,3,-7,8,2,5,3
42714215607,1,-5,19,-14,1,-5,-28,-1
42714215607,-3,1,2,-11,-18,-3,0,-2
42714224631,-1,1,-19,18,-6,2,16,13
42714224631,-5,-3,4,-9,5,-1,-14,-7
42714239468,-2,2,5,-17,9,0,3,-25
42714239468,-1,-7,-2,17,15,14,10,27
42714241068,-1,-5,2,4,5,3,-1,15
42714241068,0,1,10,-10,13,0,-20,-15
42714253165,-3,-6,3,-11,13,-1,-3,-5
42714253165,0,-3,0,-2,14,-4,6,-10
42714262117,-2,-3,6,-5,8,2,-3,20
42714262117,3,-2,6,-20,-2,-3,-28,-42
42714275638,-1,3,-13,14,-5,7,11,12
42714275638,2,2,-6,2,1,-2,-10,-8
42714284581,0,-3,20,-26,-5,-5,-43,-51
42714284581,2,-4,10,-13,10,-3,-8,-24
42714299445,-1,-5,0,4,-8,-2,-8,2
42714299445,-3,-2,-3,-12,-13,2,-12,-13
42714301096,-2,0,-1,1,-12,-3,6,-1
42714301096,-3,-6,0,4,-17,5,3,9
42714313141,-2,2,-11,3,-9,-10,23,1
42714313141,-5,-11,24,-28,14,-5,-52,-65
42714322139,-3,1,-13,0,-3,-6,24,-1
42714322139,2,2,2,17,-19,7,2,12
42714336362,1,-3,-3,-4,2,-3,-13,-15
42714336362,0,2,-22,9,5,-3,8,13
42714343133,1,-2,13,-6,8,1,-27,-14
42714343133,6,-2,-24,27,-5,8,41,44
42714359515,2,-4,-7,8,-14,0,-12,-6
42714359515,-4,-2,-22,15,-32,1,7,7
42714361076,-7,-1,-18,18,-41,-2,1,-3
42714361076,-6,2,-24,6,-28,-9,-8,-7
42714373157,3,3,11,-2,26,-9,-6,-5
42714373157,4,1,-7,17,48,4,43,29
42714382100,2,-3,-24,11,50,1,55,25
42714382100,0,-4,36,-47,11,-9,-57,-83
42714396498,-5,-2,9,-17,-24,2,-18,-14
42714396498,-3,2,5,-8,-21,-5,-17,-25
42714403142,0,-1,-10,8,-20,-3,-13,-6
42714403142,-4,2,-30,12,-3,3,16,17
42714419349,-2,-2,-6,-2,-3,0,-15,-6
42714419349,3,-4,-16,24,-12,3,37,43
42714425668,2,1,-9,11,19,2,8,11
42714425668,4,-4,4,1,14,-2,-6,-2
42714433210,-5,3,18,-16,43,-5,-5,-14
42714433210,-1,-1,6,-9,36,2,3,4
42714442145,-2,0,3,-8,12,0,-3,-9
42714442145,-1,0,8,-1,-21,-4,-17,5
42714455821,-3,-1,8,-9,-46,-7,-39,-29
42714455821,1,-3,-15,1,-16,-4,0,5
42714464703,0,1,-4,5,-1,6,3,4
42714464703,-1,2,-27,15,-13,1,4,-3
42714479021,0,-2,-21,14,-11,2,23,18
42714479021,0,0,4,-1,-2,0,-2,6
42714485875,0,-6,6,8,-5,0,-13,-12
42714485875,-3,0,8,-14,9,-3,-24,-33
42714502063,2,7,-15,12,-2,4,11,4
42714502063,-4,2,5,1,-17,1,15,14
42714503642,-7,-1,-6,6,-11,0,7,4
42714503642,-4,1,-8,23,12,2,42,54
42714515614,1,-3,-5,0,20,-1,5,3
42714515614,1,-1,7,-9,17,-4,-18,-22
42714524721,-5,-2,9,-33,2,-5,-28,-40
42714524721,-2,-1,-1,-3,11,2,-1,-3
42714539053,-2,0,2,-14,21,-6,-6,-28
42714539053,-2,-1,-6,-3,-11,0,-10,5
42714545821,6,-5,5,-7,-5,-6,0,0
42714545821,5,-7,1,3,-5,2,42,39
42714562159,-4,-9,-3,9,-18,1,16,12
42714562159,0,4,1,-24,-15,-1,-49,-42
42714563640,-3,-1,-6,-3,-7,-2,-5,0
42714563640,-2,-1,-4,-5,-4,-5,-16,-6
42714575828,-1,-2,-4,28,-6,-1,10,14
42714575828,2,1,1,34,8,-7,-12,-19
42714592223,-7,-4,3,23,8,-4,5,9
42714592223,1,-4,-6,12,13,1,17,20
42714598908,-2,-2,0,-27,1,7,-6,-5
42714598908,-2,-4,-1,-33,-8,-4,19,16
42714605807,3,3,-1,-31,-3,3,1,0
42714605807,0,-3,-2,-33,4,-5,-43,-30
42714622160,2,-4,-3,-26,-3,-4,-3,1
42714622160,-1,2,1,-26,-8,-2,-5,-16
42714623668,-1,7,-1,-4,-12,2,3,4
42714623668,-2,0,0,-13,-2,-1,-21,-34
42714636429,-6,0,-4,0,-7,0,0,0
42714636429,3,-7,-5,5,-7,-2,-1,1
42714643150,-1,2,1,2,8,0,-3,-4
42714643150,-6,-1,-4,-4,1,-9,-3,-8
42714659053,-5,-6,4,4,1,-2,2,1
42714659053,0,-2,-3,24,-2,1,3,-1
42714665667,-3,-4,-4,0,6,-6,-14,-9
42714665667,-1,-4,-3,21,-1,4,9,8
42714682016,3,1,-2,9,2,3,5,8
42714682016,-5,-3,-2,-8,-5,-3,-4,-6
42714683588,1,-3,-1,0,5,-2,5,3
42714683588,-6,-2,1,11,-3,2,6,4
42714696552,0,-3,2,18,-2,3,24,32
42714696552,-1,-2,2,6,6,-1,-8,-9
42714703191,1,-1,-8,-12,-8,1,2,-6
42714703191,-4,2,2,6,3,2,4,3
42714727185,1,3,-2,-9,6,0,-16,-16
42714727185,-2,3,-2,11,-1,1,3,-4
42714728728,1,1,1,-4,4,-9,2,5
42714728728,2,-3,1,4,2,-3,-7,-8
42714742226,0,-1,-2,8,-7,-3,-5,-9
42714742226,0,-3,2,0,-1,-1,4,8
42714743596,-1,-2,-1,-1,0,0,-11,-8
42714743596,-5,-1,-3,-9,-6,2,-8,-10
42714756420,0,4,-3,21,-10,2,1,1
42714756420,2,-3,-5,-7,-1,-5,-2,-1
42714763163,1,3,1,-8,-1,-2,-14,-10
42714763163,1,1,3,-4,-2,-2,-7,2
42714779059,3,-1,-2,-1,2,2,-2,-1
42714779059,-2,-2,2,0,0,4,1,-2
42714785883,0,-1,1,7,-7,1,-1,-1
42714785883,3,0,1,-20,6,1,-51,-41
42714802146,1,-1,2,8,5,-6,-9,-8
42714802146,-2,0,-3,-1,-4,-1,-5,-3
42714803613,1,-1,2,13,-2,3,2,3
42714803613,0,-1,-1,2,-2,1,5,5
42714816387,-5,1,2,0,-10,-2,-12,-10
42714816387,-1,3,-1,1,6,-3,3,7
42714823392,0,-8,0,-1,-3,0,-3,-1
42714823392,2,3,0,6,-5,-2,-3,-7
42714839050,-2,-2,-5,3,0,4,4,5
42714839050,-3,-4,1,11,-1,3,12,14
42714845827,-3,3,10,-21,1,-7,-28,-33
42714845827,-6,0,3,7,-4,-4,3,4
42714861343,0,0,17,-24,12,-9,-24,-29
42714861343,-2,1,1,6,-12,2,-5,-10
42714869711,-2,1,-2,1,3,-1,-3,-12
42714869711,-1,0,11,-14,5,-3,-21,-25
42714876528,-3,-2,-7,19,-1,1,10,12
42714876528,1,2,-4,6,0,-2,-15,-4
42714883329,2,0,-21,2,-1,3,11,22
42714883329,0,2,-11,8,0,2,13,13
42714898936,-2,-1,-6,2,-5,-1,-4,-1
42714898936,2,1,-23,30,-1,1,56,59
42714905720,-1,-2,16,-13,16,-4,-30,-31
42714905720,0,-2,-17,8,-12,7,6,5
42714929702,-1,-2,-19,4,11,2,1,2
42714929702,0,1,2,-1,-1,-1,8,3
42714931128,0,3,20,-14,-12,-1,-37,-32
42714931128,2,0,2,-7,-2,-5,-2,-6
42714936508,4,0,-10,11,0,2,17,23
42714936508,-3,0,-3,5,-12,-3,-3,-5
42714943293,3,-6,-7,7,0,0,4,2
42714943293,-3,-5,-16,14,-8,5,40,32
42714958942,0,0,20,-21,-3,-4,-33,-24
42714958942,0,1,14,-25,10,-9,-34,-40
42714965851,-1,-1,-14,11,-4,-1,4,6
42714965851,-1,0,2,4,-3,-1,2,2
42714982179,-1,1,3,-7,1,0,-5,-2
42714982179,-1,-6,7,-14,1,-2,-11,-25
42714983663,-2,0,-19,22,-10,7,31,36
42714983663,-4,-2,-20,16,3,-4,-6,-4
42714995678,-1,0,4,0,-3,1,4,-1
42714995678,-3,-2,1,-3,-1,4,3,5
42715004784,-5,2,14,-8,-2,0,-6,-4
42715004784,-1,3,32,-30,6,-2,-36,-36
42715019039,-2,1,17,-14,0,-2,-1,-5
42715019039,0,-4,-10,6,-2,-1,4,4
42715025835,-1,-2,-9,7,-6,-5,8,6
42715025835,0,-3,-3,1,4,-3,-4,0
42715049684,0,-1,15,-16,0,-1,-19,-33
42715049684,1,-1,-20,23,-6,4,18,26
42715051118,-6,0,-11,0,1,0,-12,-13
42715051118,4,0,19,-6,-3,-4,-9,-8
42715055942,1,-6,-7,15,-7,-1,16,17
42715055942,1,0,-2,7,2,-3,22,19
42715064693,-2,1,6,-4,-2,-1,2,4
42715064693,1,-2,13,-19,6,-1,-13,-21
42715079035,-3,-5,-24,17,-6,3,16,16
42715079035,-2,0,-1,-3,-2,5,-20,-20
42715085806,-1,-1,3,-1,1,0,-8,-8
42715085806,0,1,9,-6,-3,2,-20,-8
42715102173,0,0,-5,-1,-2,-4,6,-2
42715102173,2,3,1,11,3,0,4,13
42715103597,-3,-2,-16,14,-4,-1,9,3
42715103597,-4,1,-12,7,-1,-2,13,13
42715115747,0,-2,-2,2,3,-1,-9,-6
42715115747,-5,-1,6,-12,1,-3,-8,-10
42715124699,0,-1,5,-4,3,0,8,6
42715124699,-1,-2,15,-20,2,-2,-43,-30
42715147077,0,4,5,-6,-4,0,12,7
42715147077,-2,-3,-12,10,-6,2,7,7
42715148588,0,1,-8,2,-1,1,-3,-3
42715148588,-3,2,-17,8,-3,0,17,10
42715162198,-2,1,20,-17,-5,-5,-35,-24
42715162198,0,5,15,-19,5,-1,-26,-38
42715163627,0,-6,5,9,1,-2,3,9
42715163627,2,-2,-28,22,-4,9,7,2
42715175811,2,1,-20,10,0,-1,12,13
42715175811,-7,-5,12,-6,0,-3,-12,-11
42715184749,-2,-2,4,-3,3,-1,-3,-6
42715184749,-3,2,5,4,1,-3,21,22
42715198971,1,0,-8,13,4,4,27,34
42715198971,1,1,10,-19,-1,-5,-32,-37
42715205843,-1,-5,-2,7,-2,-4,19,9
42715205843,-3,-4,-20,9,-8,-6,4,5
42715222204,-4,1,-9,-1,-3,1,-5,-9
42715222204,1,-2,23,-19,-1,-5,-30,-21
42715223705,0,2,-4,-3,2,-4,11,4
42715223705,2,-3,-5,14,0,2,25,31
42715235623,-3,1,-14,1,-2,-3,3,1
42715235623,0,3,-10,22,3,0,14,17
