myoTS,x,y,z
41015458053,-0.125,0.5,1.125
41015481693,-0.125,0.25,0.875
41015503044,0.1875,0.25,0.75
41015518060,0.1875,0.5625,0.8125
41015541707,-0.5,0,0.25
41015595733,-1.25,-1,0.1875
41015596537,-2.1875,-1.4375,0.375
41015605104,-1.875,-1.375,0.25
41015617421,-0.875,-0.875,0.5
41015638803,0,-0.625,0.25
41015662525,0.6875,-0.6875,0.1875
41015706100,-0.4375,-0.3125,0.4375
41015706879,-1.1875,0.125,0.5625
41015720383,-0.375,-0.125,0.125
41015736873,0.9375,-0.625,0
41015759342,0.875,-0.5,-0.1875
41015780511,-0.0625,-0.375,-0.25
41015796838,-0.75,-0.25,0
41015819376,-0.875,-0.5,0
41015840562,-0.625,-0.8125,-0.0625
41015856894,-0.3125,-0.875,0.25
41015879373,-0.125,-0.6875,0.125
41015900385,-0.1875,-0.5,0
41015916858,-0.4375,-0.3125,-0.1875
41015939332,0.125,-0.0625,-0.1875
41015960373,0.1875,0.1875,-0.125
41015976804,0.4375,0.375,-0.0625
41015999351,0.75,0.5625,-0.25
41016020390,-0.375,0.4375,-0.4375
41016036855,-1.125,0.0625,-0.5
41016059405,-1.9375,-0.6875,0.3125
41016080380,-4.3125,-0.75,1.0625
41016096795,-3.6875,-1.4375,1.125
41016119334,-1,-2.625,1.6875
41016140441,-2.6875,-2.5625,1.875
41016156812,-5,-1.75,1.375
41016179382,-2.6875,-0.8125,0.3125
41016200486,-0.125,0.25,-0.875
41016216910,0.125,1.375,-0.75
41016239416,1.1875,2.1875,0.3125
41016261931,1.5625,2.3125,-0.0625
41016276886,2.1875,2.0625,-1.3125
41016299393,4.4375,2.125,-0.625
41016321788,5.3125,2.125,-0.25
41016336949,2.5625,1.9375,-0.1875
41016359425,0.6875,1.375,-0.5625
41016381979,1.875,0.4375,-0.5
41016396904,2,-0.375,-0.3125
41016419413,-0.4375,-0.3125,-0.5625
41016441916,-0.8125,-0.8125,-0.75
41016456933,0.8125,-1.125,-0.8125
41016479358,1.125,-0.9375,-0.875
41016501849,-0.25,-0.1875,-0.875
41016516875,-1.375,0.8125,-0.75
41016539349,0.5,1.375,-0.6875
41016561839,2.625,1.5625,-0.375
41016577495,2.375,1.875,-0.1875
41016599422,1.375,1.375,-0.6875
41016621901,0.1875,0.5625,-0.5
41016636902,-1.3125,-0.3125,0
41016659389,-2.1875,-1.1875,-0.25
41016681931,-1.375,-1.625,-0.5
41016704433,-0.125,-1.6875,-0.375
41016726097,-0.4375,-1.25,0.1875
41016741994,-1,-0.5625,0
41016764469,-0.0625,-0.25,-0.3125
41016787629,0.8125,0.375,-0.0625
41016801171,0.375,0.875,-0.1875
41016815508,1.0625,0.875,-0.4375
41016837868,1.9375,0.9375,-0.1875
41016861167,2.0625,1.5625,-0.0625
41016875487,2.25,1.8125,-0.3125
41016897898,2.4375,1.5,-0.5625
41016921023,1.375,1.125,-0.8125
41016935406,0.4375,0.875,-1
41016957892,0.3125,0.6875,-1.0625
41016981069,0.8125,0,-0.9375
41016995404,0.375,-0.5,-0.75
41017017902,0.3125,-0.8125,-0.6875
41017041156,0.25,-0.4375,-0.375
41017055459,-0.75,0,-0.25
41017078008,-0.6875,0.125,0
41017101189,0,0.25,0.4375
41017115532,0.8125,0.3125,0.5
41017138010,0.4375,0.125,0.3125
41017161180,0.125,0.125,0.3125
41017175499,-0.375,0.125,0.1875
41017197889,-0.8125,0.125,0.0625
41017221189,-0.4375,0,-0.4375
41017235541,0.3125,-0.375,-0.3125
41017257935,0.625,-0.3125,-0.0625
41017289258,0.1875,-0.1875,0
41017295389,-0.6875,0.0625,0.125
41017317885,-0.8125,0.1875,0.1875
41017341065,-0.0625,0,-0.125
41017355363,0.5,0,-0.0625
41017377907,-0.1875,0.25,-0.0625
41017401052,-0.5,0.125,-0.1875
41017415401,-0.0625,-0.3125,-0.25
41017438045,-0.25,-0.5625,0.25
41017461107,-0.0625,-0.5625,0.0625
41017475544,0.375,-0.375,-0.0625
41017497985,-0.3125,0.3125,0.375
41017521183,-0.6875,0.5,0.125
41017535535,0,0,-0.1875
41017557979,-0.0625,-0.25,0.0625
41017581153,-0.375,-0.3125,0.1875
41017595512,-0.3125,-0.375,-0.0625
41017618006,-0.25,-0.25,-0.0625
41017641113,0.125,0.0625,0.0625
41017655468,0.25,-0.0625,-0.1875
41017678003,0,-0.125,-0.125
41017700451,-0.4375,-0.125,-0.0625
41017715461,-0.625,-0.1875,-0.125
41017737948,-0.875,-0.125,-0.125
41017760447,-0.3125,-0.375,0
41017775496,0.125,-0.375,0.1875
41017799549,-0.25,-0.0625,0.25
41017820477,-0.5,0.0625,0.25
41017838388,-0.4375,0,0.3125
41017857927,-0.5625,0.0625,0.4375
41017880480,0,-0.0625,0.1875
41017896964,0.3125,-0.125,0.0625
41017918010,0.4375,-0.3125,-0.0625
41017940592,-0.125,-0.25,0
41017955517,-0.5625,-0.25,-0.1875
41017977961,-0.5625,-0.6875,0.0625
41018000502,-0.8125,-1.125,0.5625
41018015486,-1.25,-0.9375,1.0625
41018037905,-0.8125,-1.4375,0.875
41018060584,-3.0625,-2.5,-0.625
41018075502,-5.9375,-6.9375,-1
41018097942,-10.4375,-10.625,1.375
41018120451,-12.75,-12.9375,3.5625
41018135556,-11.1875,-15.5625,5
41018158028,-6.6875,-16.0625,3.6875
41018180527,-16.75,-10.4375,-3.75
41018195479,-27.3125,-7.1875,-7.1875
41018218011,-18.0625,-4.9375,-4.75
41018240467,0.4375,-2.25,-7.25
41018255463,6.5625,-0.8125,-11.75
41018278046,-1.3125,1,-12.75
41018300547,-13.25,4.1875,-12.875
41018315465,-26.375,3.9375,-18.625
41018338017,-35.375,0.0625,-22.75
41018360521,-29.3125,-5.625,-21.25
41018375453,-25.5625,-11.5,-18.5
41018397992,-30.375,-11.875,-22.25
41018420456,-53.6875,-8.3125,-29
41018435458,-85.8125,-3.1875,-31.5625
41018457949,-97.625,-1.3125,-31.5625
41018480468,-91.5625,-2.6875,-36.1875
41018496900,-85.4375,-8.5625,-44.625
41018517952,-78.5,-16.625,-47.1875
41018540464,-67,-27.625,-48.75
41018556868,-54.125,-37.3125,-48.9375
41018577922,-43.625,-44.5,-49.5
41018600470,-36.25,-48.5,-48.1875
41018616905,-44.25,-48.875,-46.5625
41018637923,-55.9375,-47.3125,-43.0625
41018660467,-54.5625,-44.9375,-38.5625
41018676901,-40.75,-43,-33.125
41018697972,-29.875,-41.3125,-26.75
41018721890,-30.875,-40.4375,-21.5
41018736869,-36.0625,-39.25,-17.3125
41018757971,-33.5625,-36.875,-15.3125
41018780458,-22.125,-34.125,-11.8125
41018796874,-11.25,-30.25,-7.875
41018817955,-13.125,-26.5,-6.0625
41018840425,-18.625,-22.375,-6.75
41018856911,-17.125,-20.25,-7.8125
41018877946,-15.4375,-20.8125,-7.4375
41018900468,-12.8125,-20.9375,-6.8125
41018916923,-7.875,-18.9375,-7.0625
41018937965,-6.3125,-15.8125,-6
41018960479,-7.6875,-13.3125,-4.625
41018976877,-6.9375,-11.8125,-4.875
41018997999,-3.3125,-10.75,-5.125
41019020417,-0.0625,-8.625,-4.9375
41019036885,1.3125,-5.75,-5.125
41019057959,1.25,-4.5,-6.375
41019080444,-0.625,-5.125,-7.1875
41019096934,-2.9375,-5.375,-6.75
41019117975,0.25,-5.1875,-5.875
41019140472,3.0625,-5.0625,-4.1875
41019156949,1.75,-4.5,-3.8125
41019177981,-0.375,-5.125,-3.8125
41019200515,-3.375,-5.5625,-3.875
41019216923,-4.875,-5.25,-3.375
41019238008,-2.75,-4.8125,-2.0625
41019260482,-0.3125,-4.5,-2.0625
41019276894,-3.625,-4.375,-1.75
41019297987,-4.625,-4.125,-1.1875
41019320442,0.5,-4,0.125
41019336899,2.9375,-4.375,0.9375
41019357956,0.3125,-4,1.3125
41019380475,-4.4375,-4,1.5
41019396962,-5,-4.5,1.3125
41019417982,-0.3125,-5.3125,1.3125
41019440498,0.4375,-5.1875,0.9375
41019456932,-3.5,-4.875,0.1875
41019479400,-3.625,-4.5,-0.25
41019500500,-1.6875,-4.1875,-0.375
41019516881,-0.75,-4.1875,-0.3125
41019539455,-2.625,-3.9375,0
41019560481,-2.625,-3.8125,0.375
41019576882,-1.1875,-3.6875,1.25
41019599413,-1.0625,-2.1875,1.25
41019620470,0.5625,-1.3125,1.4375
41019644425,3.0625,-0.375,1.9375
41019659508,2.4375,0.0625,1.875
41019680516,0.25,0.25,1.5625
41019696981,0,0.0625,1.75
41019719448,3.125,-0.6875,1.875
41019740491,4.8125,-1.0625,2.25
41019756974,1.75,-0.5625,1.625
41019779438,-2.375,-0.5,1.375
41019800462,0.125,-1.0625,1.375
41019816954,4.625,-1.375,1.1875
41019839409,4.375,-0.6875,0.8125
41019860489,-0.0625,0.3125,0.5625
41019876902,-1.1875,0.875,0.6875
41019899440,1.875,0.625,0.625
41019920466,2.4375,0.5,0.375
41019936895,1.625,0.875,0.375
41019959392,1.9375,0.9375,0.125
41019980452,1.25,0.6875,-0.4375
41019996903,0.375,0.3125,-0.5625
41020019410,1.3125,0.3125,-0.5
41020040522,1.375,0.1875,-0.1875
41020056902,1.25,0.125,0.75
41020079416,0.3125,0.6875,0.8125
41020100511,0,0.5,0.9375
41020116873,2.375,-0.1875,1.8125
41020139539,3,-0.4375,2.375
41020163443,3.125,-0.25,2.25
41020176999,1.5625,-1.375,2.25
41020199501,1.4375,-1.875,2.0625
41020220428,0.4375,-1.75,1.6875
41020236974,2.9375,-1.625,0.9375
41020259395,4.375,-0.9375,0.5
41020280464,2.4375,-0.125,0.375
41020296892,-0.25,0.6875,0.1875
41020319498,0.25,1.125,-0.0625
41020340536,3.25,0.5,0
41020356952,3.875,0.3125,-0.0625
41020379433,1.875,0.0625,-0.125
41020402019,0.6875,-0.1875,-0.0625
41020416944,-0.25,-0.3125,0
41020439497,0.625,-0.25,0.0625
41020461238,1.625,-0.125,0.0625
41020476290,1.1875,0,-0.1875
41020498701,0.1875,0.25,-0.0625
41020521240,0.75,0.75,0.25
41020536191,0.1875,0.875,0.125
41020558650,0.4375,0.6875,-0.125
41020581121,1.125,0.875,-0.0625
41020597567,0.75,0.5625,-0.6875
41020618610,-0.3125,0.9375,-0.5
41020641091,-0.75,1.0625,-0.625
41020657616,0.25,0.5,-0.6875
41020678737,0.875,0.0625,-0.375
41020701164,-1.4375,0.125,0.1875
41020717627,-2.25,0.3125,0.4375
41020738751,1.25,-0.0625,1.125
41020761176,2.875,-0.25,0.9375
41020777671,-0.3125,0.5,0.8125
41020798712,-1.1875,0.6875,1.1875
41020821250,0.4375,0.5,1.25
41020837725,2.4375,-0.0625,1.25
41020858700,2.875,-0.5,0.9375
41020881142,0.6875,-0.75,0.4375
41020897572,-0.4375,-1,0.8125
41020918632,-0.3125,-1.1875,0.75
41020941261,0.8125,-1,0.4375
41020957702,1.1875,-0.9375,0.0625
41020978732,0.9375,-0.4375,0.0625
41021001254,1,0.5625,0.3125
41021017659,0.1875,1,-0.125
41021038714,0.375,0.625,0.125
41021061256,1.6875,0.25,0
41021077722,0.375,0.1875,-0.375
41021098695,-0.9375,0.0625,-0.4375
41021121249,-1,0.0625,-0.25
41021137660,0.375,-0.25,-0.1875
41021158624,1.25,-0.1875,-0.3125
41021181200,0.5625,-0.125,-0.4375
41021197618,-1.375,0.0625,-0.0625
41021218704,-0.875,-0.25,-0.1875
41021241229,-0.75,-1.75,0.6875
41021257674,1,-1.375,1.3125
41021278765,0.375,-0.875,0.8125
41021301254,2.5625,-0.25,-0.25
41021317669,2.8125,0.8125,-0.625
41021338773,-0.0625,1.9375,-0.75
41021361185,-0.5,1.9375,-0.8125
41021376983,1.75,1.1875,-0.5
41021398769,2.1875,0.3125,-0.4375
41021421177,1.1875,-0.75,-0.125
41021436926,0.375,-1.25,0.375
41021458642,0.9375,-1.25,0.375
41021481131,1.25,-0.9375,0.1875
41021505120,0.3125,-0.3125,-0.1875
41021520059,0.125,-0.0625,-0.625
41021541234,0.625,0.0625,-0.4375
41021556981,2.25,0.125,-0.25
41021586218,1.5,0.625,0.125
41021601271,-0.125,0.5625,-0.1875
41021616985,-0.625,0.375,-0.3125
41021640139,0.5625,-0.25,-0.4375
41021661229,1.25,-0.5,-0.5
41021677046,0.9375,-0.375,-0.3125
41021700145,1,-0.0625,-0.1875
41021721304,-0.0625,0.25,-0.25
41021737051,-0.6875,-0.25,-0.3125
41021760088,-0.5625,-0.4375,-0.0625
41021781109,0.625,-0.5,0.125
41021796972,0.75,-0.1875,0
41021820110,0.3125,0.125,-0.1875
41021841159,0,0,-0.125
41021856947,-0.3125,-0.125,0.0625
41021880107,1.1875,-0.0625,0.125
41021901187,1.8125,0.125,-0.1875
41021917044,0.25,0.5625,-0.125
41021940140,-0.5625,0.75,0.5625
41021961277,1.875,0.5,0.6875
41021977016,3.4375,0.1875,0.5625
41022000224,2,0.4375,0.25
41022021259,-0.25,0.5625,0.125
41022037036,-0.4375,0.25,-0.0625
41022060245,0.5625,0.0625,-0.25
41022081322,0.5,-0.0625,0.3125
41022096996,0.375,-0.1875,0.375
41022120062,-0.3125,0.0625,0.25
41022140958,-0.3125,0.0625,0.125
41022156960,-0.0625,-0.25,0.125
41022180110,-0.6875,-0.5,0
41022201121,0,-0.4375,0.25
41022216914,-0.0625,-0.5625,-0.25
41022240259,-0.75,-0.6875,-0.625
41022261253,-1.0625,-2.1875,0.75
41022277034,-0.9375,-2.125,2.6875
41022299481,-2.9375,-1.9375,2.1875
41022321303,-1.8125,-1.75,0.0625
41022337014,1.5,-1.5625,-1.3125
41022359493,-0.6875,-1.5,-1.75
41022381286,-1.125,-1.4375,-1.4375
41022397017,-1.875,-1.6875,-1.1875
41022419476,-2.625,-1.75,-0.8125
41022442613,-2.375,-1.875,-0.125
41022456985,0.625,-2.0625,0.3125
41022479586,2.8125,-1.5625,0.375
41022502706,2.8125,-0.75,0.8125
41022517025,2.625,0.25,0.875
41022539499,1.9375,0.875,0.125
41022562724,1.125,1.875,-0.4375
41022577137,2.125,2.1875,-1.75
41022599529,3.6875,1.75,-2.3125
41022622701,4.1875,0.875,-1.75
41022637067,0.4375,0.5,-1.1875
41022659551,-5.5,0.0625,-0.75
41022682714,-2.5,-1.5625,0.25
41022697037,1.625,-2.3125,0.8125
41022719594,1.5625,-2.25,1.0625
41022742684,0.5625,-1.5625,1.0625
41022757007,-0.5,-0.5,0.9375
41022779466,0.8125,0.125,0.75
41022802637,2,0.25,0.5
41022816971,0.1875,0.875,0.3125
41022839470,-0.4375,0.8125,-0.125
41022862639,0.1875,0.6875,0.125
41022876976,1.3125,0.375,0.3125
41022899531,0.125,0.0625,0.4375
41022922704,-1.625,-0.3125,0.4375
41022937092,0.5,-0.3125,0.625
41022959512,1.5,-0.1875,0.375
41022982780,0.5,0.1875,-0.25
41023003773,-0.375,0.5,-0.625
41023019598,-0.9375,0.4375,-0.8125
41023042722,-0.125,0.25,-0.6875
41023063816,1.0625,-0.0625,-0.4375
41023079457,0.8125,-0.1875,0.0625
41023102621,-1.0625,-0.0625,0.125
41023123753,-0.8125,0.0625,0.5
41023139503,1.125,-0.125,0.5
41023162698,0.8125,0.0625,0
41023183740,0.1875,0.0625,-0.0625
41023199548,-0.4375,0.0625,-0.1875
41023222011,0.25,-0.1875,0
41023243827,2.3125,-0.0625,0.625
41023259583,1.875,-0.0625,1.1875
41023282099,0.5,0.0625,0.8125
41023303767,-0.5,-0.4375,0.75
41023319479,-0.4375,-0.8125,1
41023342109,-0.0625,-1.0625,0.8125
41023363758,1.3125,-1.3125,0.4375
41023379488,1.125,-0.5625,0.125
41023402016,-1.25,-0.125,-0.125
41023425150,-2,0.0625,-0.25
41023439466,0.125,-0.25,0
41023462085,1.4375,-0.375,0.375
41023485178,0.875,-0.3125,0.25
41023499612,-0.75,-0.1875,0.3125
41023522054,-1.8125,-0.625,0.4375
41023545186,-0.6875,-0.8125,0.375
41023559535,0.75,-0.6875,0
41023582058,1.1875,-0.6875,0
41023605173,0.3125,-0.5,0.3125
41023619536,-0.5,-0.125,0.6875
41023642018,0.0625,-0.375,0.875
41023665160,0.75,-0.625,0.4375
41023679497,-0.3125,-0.4375,0.125
41023702040,-0.5625,-0.375,-0.0625
41023725202,-0.3125,-0.875,-0.25
41023739528,-0.3125,-0.75,-0.3125
41023762005,-0.25,-0.5,-0.25
41023785280,-2.1875,-1.75,0.625
41023799582,-3,-1.875,0.75
41023822102,-3.1875,-2.4375,0.5
41023845280,0.8125,-2.9375,0.75
41023859535,2.375,-2.6875,0.8125
41023888756,0.625,-2.125,1.1875
41023905197,-0.1875,-1.5625,0.9375
41023926200,1.875,-0.8125,0.5625
41023942011,2.1875,0.125,0
41023964499,0.9375,1.875,-1.25
41023986271,1.125,2.8125,-2.1875
41024002061,3.125,2.5625,-1.6875
41024025162,2.4375,1.6875,-0.1875
41024046235,-1.75,0.75,1.0625
41024062011,-2.375,-0.9375,1.0625
41024085324,0.25,-2.4375,0.875
41024106289,1.625,-3.0625,0.375
41024121315,0.1875,-2.3125,-0.5625
41024135681,-1.5625,-1,-0.75
41024158121,1.3125,0.25,-0.25
41024181310,2.5625,1.3125,0.0625
41024195577,1.125,1.875,0.1875
41024218088,0.4375,1.5625,0.0625
41024241227,0.4375,0.75,0.0625
41024255587,0.5625,0.125,-0.1875
41024278234,-0.5625,-0.3125,-0.125
41024301386,0.1875,-0.5625,0.3125
41024315556,1.1875,-0.5625,0.6875
41024338128,0.5,0.1875,0.6875
41024361322,0.5625,0.25,0.375
41024375617,1.3125,0.4375,0.125
41024398190,0.0625,0.625,0
41024421283,-1.5625,0.5,-0.0625
41024435692,0.3125,0,0.0625
41024458168,1.625,-0.1875,0
41024481222,0.9375,0.125,-0.1875
41024495606,-0.375,0.375,-0.125
41024518097,0.1875,0.125,0.25
41024541293,1.25,-0.0625,0.25
41024555625,0.5,0.125,-0.1875
41024578050,-0.125,-0.0625,-0.375
41024601367,-0.25,-0.125,0.0625
41024615632,-0.5,0,0.1875
41024638173,0.6875,-0.125,0.3125
41024661317,1.5,0.3125,0.375
41024675626,0.625,0.25,-0.125
41024698203,-0.5,0.25,-0.0625
41024721338,-0.75,0.25,-0.125
41024735624,1.1875,-0.125,-0.0625
41024758156,1.9375,-0.0625,0
41024781249,-0.3125,0.1875,-0.1875
41024795574,-2.1875,0.1875,-0.375
41024818077,-0.25,0.125,-0.25
41024841312,2.4375,0,-0.1875
41024855608,2.0625,0.3125,0.0625
41024878156,0.3125,0.4375,0.5
41024901373,-1.4375,0.1875,0.625
41024915626,-0.1875,-0.1875,0.3125
41024938137,1.875,-0.125,0
41024960629,1.75,-0.0625,0
41024975668,-0.3125,0.1875,0.1875
41024998200,-0.1875,0.3125,0.375
41025021214,0.4375,0.375,0.125
41025035657,0.875,0.125,-0.1875
41025058138,0,0.0625,-0.5625
41025081302,0.1875,-0.1875,-0.1875
41025095580,-0.25,-0.125,0
41025118112,-0.5625,-0.375,0.0625
41025141244,0.5,-0.3125,0.25
41025155740,0.3125,0.0625,0.0625
41025178125,-0.1875,0.1875,-0.4375
41025201213,-0.0625,0,-0.375
41025215617,0.375,-0.3125,-0.25
41025238189,0.0625,-0.4375,0.0625
41025261347,0.375,-0.4375,0.5625
41025275622,-0.0625,-0.5,0.4375
41025298179,-0.4375,-0.375,0.3125
41025320619,0.3125,-0.25,0
41025335651,1.0625,0.0625,-0.25
41025358155,-0.1875,0.4375,-0.3125
41025380710,-1.0625,0.4375,-0.25
41025395639,0.1875,0.25,0
41025418175,0.875,-0.3125,0.0625
41025440637,0.3125,-0.4375,0.125
41025455590,0.0625,0,0.125
41025478125,0,0.0625,0.125
41025500592,0.75,-0.125,0
41025515545,0.1875,-0.125,-0.0625
41025538184,-0.1875,-0.0625,0
41025560636,0.6875,-0.3125,0.25
41025575755,0.8125,-0.0625,0.375
41025598230,0.5625,0,0.25
41025620667,0.5625,0,0.5
41025635682,0.75,-0.3125,0.25
41025658224,0.375,-0.3125,-0.125
41025680704,0.625,0,-0.0625
41025695705,0.5,0.375,-0.125
41025718225,1.125,0.375,0
41025740613,1.0625,0.4375,0.1875
41025755545,0.1875,0.4375,-0.0625
41025778075,0.75,0.375,0.0625
41025800620,2.625,0.4375,0.1875
41025815607,2.5,0.8125,0
41025838114,1.0625,1.0625,-0.125
41025860672,0.375,1.125,0.125
41025875708,2.0625,1.1875,0.25
41025898168,4.3125,1.8125,0.125
41025920730,4.6875,3.3125,0.0625
41025935686,5.25,4.5,-0.25
41025958163,6.1875,5.5,-0.0625
41025980696,10.625,5.4375,1.125
41025995663,18.5625,4.6875,1.9375
41026018229,23.6875,4.75,1.4375
41026040703,24.1875,4.75,0.875
41026055761,24.6875,3.9375,0.8125
41026078110,23.75,3.125,0.75
41026100660,21.4375,2.875,0.375
41026117025,19.75,2.6875,0.1875
41026138195,19.4375,2.1875,0.3125
41026160706,18.875,2.1875,0.5625
41026177089,18.8125,2.625,0.8125
41026198145,20.8125,2.3125,0.9375
41026220659,25.375,2.1875,0.8125
41026237147,26.75,2.6875,-0.0625
41026258168,23.25,3,-1.125
41026280694,18.6875,2.6875,-1.5
41026297147,17.0625,3.125,-1.1875
41026318168,16.1875,3.3125,-0.8125
41026340612,17.125,3.5625,-0.875
41026357087,17.5,4,-1.125
41026378221,16.25,4.6875,-1.1875
41026400725,16.5625,4.8125,-0.5625
41026417086,18.625,5.125,-0.375
41026438160,20.625,5.9375,-0.625
41026460698,20.625,7,-1.3125
41026477108,18.4375,7.5625,-1.6875
41026501094,16.5,8.3125,-1.375
41026520650,15.3125,7.5625,-1.3125
41026537164,15.3125,6.9375,-1.0625
41026558178,14.3125,6.5625,-0.625
41026580710,12.75,6.8125,-0.625
41026597147,13.8125,6.5,-0.4375
41026618151,16.5,5.9375,-0.1875
41026640676,20.875,5.875,0
41026657156,23.9375,6.5,-0.5625
41026678194,22,7.375,-1.9375
41026700656,17.3125,7.375,-2.8125
41026717103,12.3125,7.3125,-2.4375
41026738079,8.3125,6.9375,-1.625
41026760675,7.25,6.5,-0.6875
41026777023,6.875,5.75,-0.125
41026798204,6.625,4.9375,0.9375
41026820698,5.0625,4.25,1.875
41026837153,6.3125,3.9375,3
41026858205,9.375,4.375,3
41026880626,13.3125,5.375,3
41026897137,15.8125,6.9375,1.875
41026918210,15.4375,8.9375,0.8125
41026940680,11.625,11.1875,0.6875
41026957228,8.25,13.5625,0.5
41026978227,6.1875,16,0.625
41027000690,3.875,18.1875,0.875
41027017087,4.4375,19.75,1.4375
41027039575,9.3125,21.625,2.625
41027060734,15.6875,23.9375,3.375
41027077088,18.125,26.3125,3.0625
41027099659,15.5625,28.8125,3.5
41027120623,11.5625,31.6875,4.6875
41027137172,8.25,34.5,6.1875
41027159605,9.625,36.9375,9.125
41027180705,17.8125,37.8125,11.375
41027197130,26.9375,39.375,12.4375
41027219652,28.5625,40.75,10.6875
41027240657,20.75,42.0625,7.4375
41027257175,12,42.3125,5.125
41027279672,9.1875,41.625,4.375
41027300718,11.6875,40.3125,5
41027324609,17.625,37.375,4.3125
41027339611,22.3125,33.125,2.5625
41027360678,23.3125,30.5625,2.75
41027377152,19.375,28.9375,2.75
41027399665,14.75,28.75,3.25
41027420619,14.125,29.4375,4.1875
41027437190,15.8125,31,5.625
41027459636,19.125,30.125,6.0625
41027480762,20.8125,29.8125,7.1875
41027497088,19.6875,29,8.375
41027519547,19.375,29.8125,11.125
41027540637,19.75,29.3125,12.75
41027557044,21.0625,28.6875,12.625
41027579618,21.125,27.75,11.625
41027600730,18.625,27.1875,9.0625
41027617241,15.25,26.6875,9.125
41027639705,14.5625,26.25,9.9375
41027660760,14.5,24.5,8.3125
41027677258,12.875,21.875,6.8125
41027699679,12.875,17.875,5.8125
41027720735,12.125,12.4375,4.8125
41027737163,11.8125,6.0625,4.75
41027758926,12.1875,-0.4375,6.0625
41027781301,13.75,-6,9
41027796287,17.375,-8.75,10.5
41027818765,16.625,-9.6875,10.9375
41027841282,12.0625,-10.5,11.3125
41027856309,8.125,-10.125,12.375
41027878778,9.4375,-10,12.5
41027901375,14.1875,-9.4375,11
41027916399,15.5625,-7.1875,8.875
41027938886,12.1875,-6.8125,6.9375
41027961458,9.5,-6.4375,4.875
41027976367,6.875,-6.25,5
41027998889,3.875,-6.8125,9
41028021311,-0.75,-8.6875,13.875
41028036415,-3.0625,-12.625,19.125
41028058881,-2.8125,-18,23.875
41028081308,-0.25,-23.375,30.25
41028096325,2.5625,-24,32.625
41028118738,-4.6875,-18.0625,26.3125
41028141408,-26.25,-10.875,13.4375
41028157764,-37.5625,-4.1875,5.5
41028179260,-28.4375,0.25,4
41028201498,-3.8125,0,4.3125
41028217897,15.1875,-1.375,5.875
41028238915,18.625,0.1875,8.625
41028261378,10.25,3.375,10.0625
41028277795,0.1875,6.1875,9.75
41028298891,-4.375,7.625,8.6875
41028321465,-0.25,6.3125,7.375
41028337830,7.0625,3.5,4.875
41028358943,13.375,2.25,1.9375
41028381315,15.1875,1.75,-0.5
41028397869,10.8125,2.1875,0.1875
41028418843,5.6875,2.375,1.75
41028441311,2,2.0625,2.8125
41028457779,-1,1.6875,3.0625
41028478889,-3.5,1.5,2.4375
41028501416,-3.8125,1.1875,1.5625
41028517752,-3.25,1.6875,0.5625
41028538884,-2.25,1.6875,-0.5625
41028561291,-1.125,0.5,-0.375
41028577758,-1.25,0.4375,0.0625
41028598962,-1.25,0.5625,-0.375
41028621476,0.5625,0.875,-0.875
41028637845,1.1875,1.25,-1
41028658888,-1.3125,1.3125,-1.375
41028681339,-1.8125,0.6875,-2.0625
41028697715,0.6875,-0.6875,-2.3125
41028718834,1.5,-1.4375,-1.625
41028741402,-0.125,-1.25,-0.3125
41028757771,-1.1875,-1,-0.125
41028778801,1,-1.5,-0.4375
41028808920,1.5,-1.375,0.125
41028817791,-1,-0.5625,1.125
41028838872,-3.5,-0.0625,1.3125
41028861507,-3.6875,-0.125,1.4375
41028877873,-3.125,-0.3125,1.5
41028898884,-3.0625,-0.5625,1.8125
41028921419,-2.875,-0.375,2.125
41028937166,-2.75,-0.125,2.125
41028958873,-2.875,0.1875,1.4375
41028981409,-2.5,-0.0625,1
41028997179,-1.8125,-0.3125,0.875
41029018869,-0.75,-0.4375,0.875
41029041316,-0.0625,-0.5625,1.25
41029057136,-0.625,-0.375,1.8125
41029080279,-1.25,0.125,1.75
41029101387,-1.3125,0.1875,1.125
41029117149,-2.75,-0.125,1
41029140240,-3.8125,-1.3125,0.625
41029161303,-3.0625,-2.1875,0.8125
41029177095,-3.4375,-2.125,1.4375
41029200376,-3.4375,-1.8125,1.1875
41029221429,-2.8125,-1.375,1
41029237170,-2,-0.6875,0.5625
41029260336,-0.4375,-0.1875,0.1875
41029281372,1.0625,0.0625,-0.125
41029297118,1.1875,0.625,-0.25
41029320401,1.25,1,-0.375
41029341453,1.5625,1.1875,-0.375
41029357220,1.3125,1.5625,-0.3125
41029380314,1.25,1.5,-0.25
41029401241,0.75,1.375,-0.0625
41029417211,-0.0625,1.5625,-0.125
41029440757,-0.5625,2.375,-0.5
41029461470,-0.875,4,-0.3125
41029477163,0.5625,4.6875,-0.25
41029500378,2.75,4.5,0.1875
41029521400,4.125,4.125,0.4375
41029537176,5.5625,3.0625,-0.125
41029560334,6.25,1.125,-1.1875
41029581376,4.25,-0.5625,-1.4375
41029597127,-0.0625,-1.3125,-0.6875
41029620270,-3.875,-1.6875,-0.25
41029641421,-4.4375,-1.875,-0.125
41029657076,-2.3125,-1.75,-0.0625
41029680338,0,-1.375,-0.0625
41029701459,1.4375,-1.125,0.125
41029717123,0.375,-0.5625,0.4375
41029740270,-1.9375,-0.25,0.5625
41029761468,-2.375,-0.4375,0.3125
41029777189,-1.4375,-1.125,0.0625
41029800333,-0.625,-1.5625,-0.0625
41029821229,-0.6875,-1.4375,0.0625
41029837121,-1.0625,-1.1875,0
41029859745,-1.1875,-0.6875,0.0625
41029881364,-0.75,-0.25,0.4375
41029897225,-0.1875,0.0625,0.6875
41029919653,0.375,0.125,0.5
41029941456,0.75,0.1875,0.375
41029963916,1.1875,0,-0.0625
41029979682,1.375,0.1875,-0.0625
41030001449,0.5625,0.375,-0.125
41030017121,0.1875,0.5,-0.125
41030039660,0.3125,0.5,0.1875
41030062817,0.375,0.125,-0.1875
41030077138,0.6875,-0.6875,-0.375
41030099730,0.875,-1,-0.1875
41030122893,0.125,-1,-0.0625
41030137303,0.8125,-1.3125,-0.0625
41030159658,1.25,-0.875,0
41030188849,1.875,-0.375,-0.125
41030197112,2.625,-0.4375,-0.6875
41030219629,2.25,-0.5625,-0.375
41030242762,0.1875,-0.625,-0.125
41030257125,-1.0625,-0.5625,-0.125
41030279662,-1.625,-0.75,-0.1875
41030302822,-1.125,-0.4375,0
41030317167,-0.25,-0.125,-0.0625
41030339665,1.0625,-0.125,-0.1875
41030362797,1,0.1875,-0.3125
41030385348,0.3125,0.25,-0.3125
41030399642,-0.375,0.25,-0.125
41030422841,-1.625,-0.1875,-0.0625
41030437218,-4.5,-1.4375,-0.1875
41030459714,-6.1875,-2.9375,0.25
41030482806,-5.625,-3.5625,0.8125
41030497221,-5.9375,-3.375,1.4375
41030519662,-5.6875,-3.0625,1.25
41030542842,-3.9375,-3.25,1.1875
41030563919,-2.1875,-3,0.8125
41030579697,-1.6875,-2.5625,0.375
41030602776,-1.6875,-1.9375,0.3125
41030623910,-1.6875,-1.125,0.0625
41030639724,-1.3125,-0.5625,-0.375
41030662900,0,0,-0.5625
41030683882,1.625,0.1875,-0.5625
41030699697,2.5625,0.375,-0.5
41030722785,2.0625,0.6875,-0.375
41030743879,0.6875,0.5625,-0.5
41030759768,0.1875,0.4375,-0.3125
41030782926,0,0.3125,-0.375
41030803887,0.375,-0.4375,-0.3125
41030819637,-0.1875,-0.5,0.125
41030842150,-1.25,-0.3125,0
41030863878,-1.1875,-0.6875,-0.125
41030879700,-0.8125,-0.625,0.3125
41030902115,-0.625,-0.5,0.3125
41030923877,0,-0.75,0.1875
41030939605,-0.125,-0.75,0.3125
41030962115,-0.875,-0.625,0.375
41030985260,-1,-0.625,0.375
41030999658,-0.1875,-1,0.375
41031022170,0.5625,-1.4375,0.625
41031045377,0.8125,-1.375,1
41031059643,0.375,-0.8125,0.5
41031082134,0.8125,-0.8125,-0.25
41031105263,-0.5625,-0.875,-0.3125
41031119678,-1.5,-1.6875,-0.4375
41031142188,-2.1875,-1.875,0.5625
41031165450,-2.625,-2.0625,1.125
41031179742,-2.125,-1.75,0.5
41031202246,0.375,-1.4375,-0.5625
41031225400,1.375,-1.0625,-1.0625
41031239796,0.4375,-0.875,-0.5
41031262201,0.125,-1.125,0.1875
41031285430,1.4375,-2.375,1.3125
41031299711,3,-5.25,1.75
41031322181,3.875,-5.1875,0.375
41031345468,2.3125,-3.75,0
41031359708,-2,-2,0.375
41031382261,-5,-1,0.8125
41031405436,-5.125,-0.3125,0.625
41031418336,-2.3125,-0.5625,0.375
41031441508,-0.1875,-0.75,0.9375
41031455792,-0.4375,-1.5,1.4375
41031478890,0.25,-3.3125,2.375
41031501377,0.125,-3.6875,2.8125
41031515788,0.0625,-3.0625,1.875
41031538977,0.0625,-2.25,1.625
41031561459,-1.25,-1.1875,2.125
41031575705,-4.1875,0.1875,2.75
41031598901,-4.8125,0.375,2.3125
41031621483,-2,-0.5,2.0625
41031635832,0.1875,-1.1875,2
41031658939,0.1875,-1.75,2.125
41031681547,-0.8125,-2.75,2.375
41031695782,-0.0625,-2.1875,2
41031718987,0.875,-1.3125,2.3125
41031741506,-0.3125,-0.5625,3.625
41031755818,-3.1875,0.6875,3.8125
41031778885,-3.6875,2,2.625
41031801475,0.25,2.5625,1.1875
41031815777,4,1.6875,1.75
41031839032,2.5625,1.5625,3.6875
41031861465,1,1.0625,3.3125
41031875843,3.5,0.4375,0.75
41031898897,5.9375,-0.8125,-1.125
41031921389,1.625,-0.4375,-0.5
41031935686,-2.0625,-0.9375,0.75
41031958256,-1.3125,-1.8125,1
41031981401,2,-1.375,-0.125
41031995730,3.3125,-0.75,-0.625
41032018176,-0.0625,-0.8125,-0.375
41032041438,-4.125,-1.5,-0.5
41032055720,-3.625,-5.1875,-0.0625
41032078266,-0.25,-7.3125,1.3125
41032101494,-2.875,-5.25,2
41032115757,-7.8125,-3.5,0.5
41032138339,-9.0625,-3.9375,0.0625
41032161418,-4,-4.3125,0
41032175786,2.625,-4.375,-0.375
41032198231,8.25,-3.125,0.3125
41032221452,10.125,-0.8125,1.1875
41032235832,4.6875,1.4375,0.25
41032258353,-3.0625,2.5,-1.25
41032281421,-6.75,1.9375,-2.0625
41032295829,-4.5625,-0.0625,-2.625
41032318246,-1,-1.5625,-2.75
41032341516,-1.5625,-1.125,-2.625
41032355805,-3.6875,-0.125,-2.125
41032378319,-5.625,0.6875,-1.4375
41032401403,-4.9375,0.8125,-0.6875
41032415804,-0.4375,0.6875,-0.5625
41032438271,5.3125,1.625,-0.5625
41032461507,7.25,3.375,-0.8125
41032475778,5.0625,4.1875,-1.5625
41032498329,1.8125,4.4375,-1.625
41032521504,2.4375,4.375,-1.625
41032535829,3,4.625,-2.0625
41032558309,1.9375,4.875,-2.375
41032581451,1.1875,6.8125,-2.3125
41032595823,1.9375,9,-1.8125
41032618344,1.625,11.375,-1.25
41032641512,1.9375,14.5,-0.25
41032655861,3.0625,17.625,1.25
41032678343,4,20.0625,2.4375
41032700756,3.6875,22.4375,2.9375
41032715798,3,24.125,3.375
41032738370,3.6875,24.8125,4
41032761491,4.4375,26.3125,5.5625
41032775817,3.5,31.25,6.75
41032798349,1.25,36.75,6.1875
41032821491,-1.3125,40.4375,5.4375
41032835816,-1.1875,42.0625,5.6875
41032858335,2.0625,42.5,5.9375
41032880863,4,42.1875,6.4375
41032895879,0.3125,40.875,7.3125
41032918346,-6.3125,39.625,8.625
41032940806,-13.375,37.9375,8.75
41032955872,-15.5,35.3125,8.625
41032978331,-18,33.25,9.5
41033000774,-23.75,31.9375,10.375
41033015842,-26.3125,30.5,9.9375
41033038262,-24.1875,29.25,9.25
41033060766,-23.125,28.75,9.125
41033075727,-26.5625,27.5,9.375
41033098231,-29.9375,25.5625,8.6875
41033120766,-27.875,24.4375,7.5625
41033135680,-24.375,23.875,7.125
41033158259,-22.9375,23.3125,6.6875
41033180897,-26.375,22.875,7.6875
41033195835,-31.6875,21.75,8.75
41033218360,-30.4375,20.8125,8.375
41033240843,-25.6875,19.25,7.4375
41033255849,-23.25,18.3125,7.0625
41033278361,-24.5625,18.125,7.25
41033300841,-26.3125,17.75,8.75
41033315883,-25.625,17.75,10.25
41033338285,-24.75,19.5,10.5
41033360852,-26.5625,19.5,10.125
41033375883,-25.5,18.25,9.5625
41033398243,-21.1875,16.1875,9.5
41033420727,-20.625,15,10.8125
41033435759,-22.5,16.3125,11.125
41033458271,-25.375,16.6875,10.5625
41033480791,-27.375,16.8125,11.0625
41033495817,-21,16.375,10.3125
41033518277,-10.625,15.3125,9.375
41033540785,-6.1875,16.4375,8.4375
41033555784,-7.875,18.6875,7.4375
41033578298,-17.75,21.5625,7.625
41033600793,-35.8125,23,9.1875
41033615797,-38.8125,21.8125,9.6875
41033638299,-27.3125,19,11
41033660754,-18.5625,17.6875,13.0625
41033677227,-17.125,17.375,14.875
41033698281,-22,17.6875,15.75
41033720744,-23.5625,18.875,15.9375
41033737218,-26.5,20.5,16.25
41033758307,-26.875,20.9375,15.25
41033780829,-21.75,19.875,13.125
41033797193,-12.5625,19.25,12.3125
41033818248,-9.75,20.5625,11.75
41033840803,-12.6875,22,9.75
41033857241,-14.3125,22.875,7.5
41033878295,-15.1875,22.3125,6.1875
41033900808,-9.9375,19.8125,5.4375
41033917242,-1.875,16,4.625
41033938307,4.5,11.875,4.625
41033960817,8.4375,9.1875,4.3125
41033977200,6.3125,7.3125,5
41033998330,0.1875,6.8125,4.6875
41034014694,-3.125,6.875,3.6875
41034037197,-5,5.6875,3.5625
41034058344,-2.8125,4.625,1.375
41034082234,5.375,4.1875,-1.3125
41034097247,8.6875,4.3125,-1.5
41034118294,0.9375,5.8125,-1.3125
41034134747,-2.8125,6.75,-2.3125
41034157260,2.8125,5.9375,-2.5
41034178295,5.375,4.25,-1.875
41034194716,2.75,2.1875,-2.625
41034217252,1.75,0.25,-2.5625
41034238284,0.75,-0.75,-1.5625
41034254726,-2.625,-0.6875,-1.375
41034277235,-4.375,0.0625,-1.8125
41034298313,-0.5625,1.0625,-1.9375
41034314757,3.375,2.0625,-2
41034337214,4.1875,2.5,-2.4375
41034358226,3.375,3.125,-2.3125
41034374749,3.3125,3.3125,-1.75
41034397257,2.125,3.625,-1.375
41034418275,1.5625,3.4375,-1.1875
41034434681,3.5625,3.0625,-1
41034457200,7,2.125,-0.375
41034478287,8,2.0625,0.125
41034500737,9,1.8125,0.25
41034517226,7.25,0.6875,1.3125
41034538255,1.625,-0.9375,2.25
41034554725,2.5625,-3.4375,2.125
41034577189,7,-6,2.625
41034599719,9.3125,-7.875,3
41034614746,9.6875,-8.6875,3.125
41034637228,10.8125,-8.6875,2.5
41034659780,16.8125,-8.6875,1.625
41034680744,19.1875,-7.1875,0.6875
41034697245,15.75,-5.75,-0.875
41034719726,16.0625,-4.0625,-2.0625
41034740810,21.9375,-3.9375,-2.125
41034757228,21.4375,-4,-1.0625
41034779713,17.8125,-5.5625,-1
41034800829,26.25,-8.5625,-1.4375
41034823319,36.4375,-11.9375,-2.0625
41034839745,29.375,-15.1875,-0.625
41034860862,21.3125,-17.625,0.125
41034877272,22.25,-18.8125,0.0625
41034899746,22.875,-19.6875,-0.75
41034920798,16.0625,-20.25,-2.4375
41034937238,15.75,-20.375,-3.5625
41034959752,24.0625,-19.5625,-4.1875
41034980790,33.75,-17.375,-6.4375
41035004761,28.25,-16.75,-7.9375
41035019712,17.8125,-17.5,-8
41035040835,22.5,-18.25,-8.8125
41035057238,31.625,-17,-9.25
41035079730,33.625,-15.4375,-11.4375
41035101518,19.4375,-15.375,-10.25
41035116470,11.625,-16.25,-8.1875
41035139013,23.375,-19,-9.125
41035161498,36.6875,-20.1875,-9.0625
41035176599,39.25,-18.875,-8.8125
41035199050,32.875,-18.125,-9.125
41035221526,30.5625,-17.5,-9.125
41035236481,36.375,-16.5625,-10.625
41035258988,42.5625,-16.5625,-12.0625
41035281536,36.9375,-17.1875,-13.125
41035296473,33.25,-18.5,-13.375
41035319006,39,-19.1875,-13.125
41035341564,41.5,-17.5,-12.0625
41035356596,35.25,-16.125,-12.25
41035380424,24.375,-17.9375,-11.0625
41035401605,23.125,-20.8125,-9.125
41035416424,29.625,-23.125,-8.1875
41035439008,30.4375,-24.0625,-7.3125
41035461547,25.8125,-23.4375,-6.9375
41035476579,20,-23.375,-6.0625
41035499060,13.625,-23.125,-5
41035521481,8.5,-23.8125,-5
41035536580,6.875,-25.875,-4.8125
41035559047,8.0625,-28.5625,-4.8125
41035581543,7.625,-30.9375,-5.125
41035596523,3.1875,-33.875,-4.8125
41035619035,-3.875,-38.5,-3.25
41035641532,-10.625,-39.875,-1.625
41035656518,-11.4375,-37.875,-0.75
41035679040,-10.4375,-34.5,0.0625
41035701682,-10.5625,-33.125,0.6875
41035717907,-10.1875,-33.125,0.5
41035739065,-4.8125,-31.625,1
41035761520,1,-29.25,1.6875
41035777973,3.1875,-28.1875,1.5
41035799036,1.5,-26.5625,0.75
41035821557,0.75,-23.625,0.875
41035838007,3.125,-21.1875,0.3125
41035859056,2.8125,-19.1875,-0.125
41035881552,0.875,-18.375,0.1875
41035897981,1.375,-19.5625,0.3125
41035919000,2.8125,-21.8125,0.25
41035941526,0.1875,-24.25,-0.875
41035957995,-5.625,-23.625,0.5
41035978993,-10,-19.9375,1
41036001581,-7.3125,-17.375,0.375
41036017986,-0.3125,-15.0625,-0.0625
41036039091,6,-13.5,0.1875
41036062986,9.125,-12.9375,1.125
41036077934,4.875,-12.6875,1.625
41036099087,-5.125,-12.3125,2.375
41036114795,-12.9375,-12.0625,3.125
41036137983,-15.75,-10.5625,3.75
41036159093,-13.75,-7.875,3.4375
41036174785,-8.3125,-4.625,2.0625
41036198003,-4.9375,-0.6875,0.5
41036219027,-4.5,2.8125,-1.3125
41036234825,-1.6875,4.5,-1.6875
41036257966,2.3125,4.0625,-1.5625
41036278972,3.8125,2.5625,-1.4375
41036294737,1.5625,1.0625,-0.8125
41036317910,-1.1875,-0.375,-0.875
41036338937,-2.875,-1.0625,-1.25
41036354775,-5.1875,-1.125,-1.6875
41036377929,-5.6875,-1.25,-1.4375
41036398987,-4.4375,-1.5,-0.8125
41036414776,-3.125,-1.375,-0.6875
41036437949,-2.125,-0.9375,-0.8125
41036459017,-0.75,0.0625,-0.875
41036474863,-0.5,0.8125,-0.5625
41036497349,-0.9375,1.125,-0.25
41036519076,-0.5,0.75,-0.125
41036534849,0.1875,0.25,-0.3125
41036557357,-0.0625,-0.5,-0.125
41036579090,-0.75,-1.1875,-0.0625
41036594816,-1.625,-1.6875,0.0625
41036617316,-2.0625,-1.375,0
41036639128,-2.25,-0.9375,-0.1875
41036654857,-2.6875,-0.625,-0.0625
41036677290,-2.25,-0.75,0.1875
41036700465,-1.3125,-0.6875,0.1875
41036714826,-0.3125,-0.75,-0.0625
41036737335,-0.0625,-0.625,0.125
41036761183,-0.875,-0.25,-0.1875
41036774858,-1.3125,-0.1875,-0.25
41036797322,-1.9375,0.25,-0.1875
41036820505,-1.375,0.4375,-0.1875
41036834836,0.3125,-0.125,-0.3125
41036857315,1,-0.125,-0.3125
41036880490,0.5,0.3125,-0.3125
41036894832,-0.4375,0.375,-0.5
41036917405,-1,-0.375,-0.625
41036940193,-0.8125,-1.5,-0.5625
41036954882,-0.75,-1.8125,-0.1875
41036985531,-1.125,-1.3125,-0.25
41037000507,-1.875,-0.75,-0.5
41037014846,-0.75,-0.1875,-0.4375
41037037500,0.3125,0.1875,0
41037060483,0.4375,0,0.25
41037074797,0,-0.1875,0.3125
41037097290,-0.0625,-0.0625,-0.125
41037120433,-0.0625,0.375,-0.25
41037134859,0.0625,0.375,-0.25
41037157499,-0.375,0.0625,-0.25
41037180512,0.0625,-0.5625,-0.0625
41037201516,0.25,-0.6875,0.25
41037217326,-0.125,-0.125,0.25
41037240470,-0.375,0.0625,0.125
41037261475,-0.3125,-0.125,0.125
41037277336,-0.0625,-0.5625,0.25
41037300553,-0.8125,-0.9375,0.4375
41037321609,-1.5625,-0.9375,0.6875
41037337293,-2.125,-0.625,0.6875
41037360532,-1.3125,-0.75,0.4375
41037381566,0.0625,-0.75,0.5625
41037397300,1.0625,-1.75,1.5625
41037420578,2.8125,-3.4375,2.3125
41037441573,3.1875,-3.125,1.6875
41037457409,2.1875,-2.25,0.8125
41037479797,0.375,-1.4375,0.3125
41037501481,-0.9375,-0.5,0.0625
41037517290,-1.5625,0.25,0.1875
41037539872,-0.1875,0.875,0.25
41037561578,2.1875,1.25,0.5625
41037577356,4.375,-0.25,0.5
41037599883,4.625,-1.125,0.875
41037622971,4.75,-0.75,0.8125
41037637400,5.5,-2.25,0.9375
41037659872,5.4375,-0.9375,0.8125
41037682965,3.4375,0.75,0.125
41037697388,2.625,0,0.25
41037719863,1,-0.1875,1.375
41037743019,-0.75,0.6875,1.125
41037757459,2.6875,-1.875,-0.5
41037779839,4.625,-2.5,1.0625
41037802975,4.125,-2.8125,3.9375
41037817463,0.125,-1.9375,6.3125
41037839811,-1.6875,-0.6875,7.1875
41037863021,0.125,-1.25,7
41037877468,1.75,-3.875,5.5
41037899900,0.1875,-4.375,6.375
41037923483,-8.3125,-2.6875,10
41037937375,-14.75,-3,11.125
41037959815,-11.4375,-6.625,10.6875
41037983040,-9.4375,-10.625,11.625
41038004132,-16.1875,-10.8125,13.6875
41038019839,-24.375,-8.0625,12.5625
41038043032,-29,-7.5625,9.1875
41038064129,-33.5,-5.25,6.375
41038079866,-35.875,-1.9375,4.0625
41038102972,-37.5,0.6875,2.875
41038124084,-35.375,3.1875,1.9375
41038139878,-31,5.625,1
41038162986,-29.3125,8.25,0.0625
41038184053,-31.875,13.4375,-0.0625
41038199852,-34.8125,19,-0.875
41038223030,-26,21.5625,-1.875
41038244191,-18.4375,22.8125,-1.5
41038259923,-19.0625,23.5625,-2.4375
41038283082,-25.9375,24.0625,-2.75
41038304117,-30.1875,22.875,-3.0625
41038319817,-29.0625,19.9375,-4.3125
41038343072,-28.25,17.9375,-5.75
41038364038,-31.125,16.4375,-8.125
41038379955,-33.625,14.375,-8.5
41038402379,-38.125,12.0625,-7
41038424150,-43.875,8.8125,-6.75
41038439889,-42.8125,4.3125,-7.625
41038462420,-48.9375,0.4375,-7.75
41038484086,-52.0625,-3.8125,-9.0625
41038499866,-52.375,-6.0625,-10.375
41038522300,-50.9375,-6.625,-10.875
41038544083,-52.5,-5.5625,-11
41038559773,-52.125,-2.75,-11.5625
41038582437,-50.3125,-0.5625,-12.125
41038605583,-44.4375,-1.25,-12.1875
41038619906,-35.4375,-4.5,-10.375
41038642396,-35.6875,-6,-4.125
41038665552,-52.625,-4.375,-0.3125
41038679934,-51.4375,-7.1875,-5.1875
41038702381,-37.6875,-10.125,-12.4375
41038725552,-24.0625,-11.1875,-14.5
41038739859,-31.3125,-7.6875,-10.75
41038761591,-46.4375,-4.1875,-7.4375
41038775902,-45.125,-3.625,-7.0625
41038799005,-28.0625,-5.8125,-8.8125
41038821538,-10.125,-6.125,-9.375
41038835843,-12.3125,-2.1875,-7
41038858420,-16.0625,0.6875,-6.875
41038881595,-6.9375,0.375,-8.9375
41038895887,-1.625,2.25,-7.5
41038919096,-7.375,6.0625,-2.625
41038933385,-12.8125,8.125,0.75
41038955920,-3.625,6.125,0.9375
41038979044,10.625,2.0625,-0.5625
41038993384,17.9375,1.375,1.75
41039015953,7.6875,4.125,5.375
41039039063,1.1875,5.5625,5.625
41039053486,7.625,2.9375,4
41039075911,12.75,1.6875,5.5625
41039099156,11.5,2.625,7.9375
41039113404,10.1875,1.5,7.625
41039135966,13.1875,-1.8125,6.1875
41039159050,12.9375,-3.75,6
41039173459,6.5625,-3.6875,6.5
41039196007,4.1875,-4.3125,5.5625
41039219165,8.9375,-5.4375,4.8125
41039233503,10.375,-4.875,4.375
41039264812,7.375,-2.9375,3.9375
41039279135,5.5625,-0.6875,3.1875
41039293442,7.375,0.8125,3.375
41039315907,8,1.6875,2.0625
41039339127,8.4375,2.625,0.375
41039353491,10,4.25,-0.1875
41039375936,10,4.8125,0.5
41039399127,9.3125,3.625,0.5625
41039413390,13.0625,2.25,-0.25
41039435949,17.875,1.1875,0.125
41039459092,17,1.125,1.5625
41039473482,12.1875,0.9375,2.0625
41039495979,10.1875,0.1875,0.5625
41039518473,16.3125,-1.375,-0.9375
41039541628,22.25,-2.1875,-1.1875
41039555870,21,-1,-1.25
41039578374,17.4375,-0.8125,-0.875
41039601622,18,-1.6875,-0.5625
41039615930,21.8125,-2.875,-0.4375
41039638450,24.75,-3.6875,-0.625
41039661606,22.6875,-4,-0.5625
41039675936,20.625,-5.0625,-0.375
41039698540,22.5625,-5.3125,-0.0625
41039721671,25.125,-3.5625,-0.25
41039735975,25.25,-1.9375,-1.6875
41039758512,33.5,-3.25,-4.5625
41039781615,40.0625,-2.6875,-2.75
41039795989,30.3125,0.25,1.6875
41039818445,21.0625,2.375,3.375
41039841678,29.5625,0.125,1.875
41039864193,42.75,-2.375,-0.3125
41039878491,45.3125,-2.625,-0.375
41039901617,39.1875,-1.25,1.3125
41039915963,30.0625,-1.3125,3.5625
41039938455,25.5625,-2.875,5.8125
41039961691,26.3125,-4.6875,7.9375
41039975967,26.375,-4.125,10
41039998434,27.8125,-3.4375,9.5
41040021651,31.3125,-4.3125,7.5625
41040035884,34.8125,-3.4375,5.5625
41040058460,36.625,-0.5625,4.4375
41040081679,34.6875,3.625,5.375
41040097394,26.8125,8.625,6.9375
41040118436,25.25,11.25,6.75
41040141639,34.4375,10.75,5.5625
41040155911,40.3125,10.5625,5.125
41040178497,40.1875,10.625,4.625
41040201566,35.3125,10.0625,3.625
41040216042,31.125,8.1875,2
41040238516,24.875,7.75,4.125
41040261644,16.5625,9.5625,5.875
41040275931,19.75,9.9375,3.125
41040298509,29.5,8.0625,0.4375
41040321542,32.0625,8.625,1.1875
41040335975,26.4375,10.375,3.5625
41040358468,24.125,11.0625,3.8125
41040381695,27.6875,10,1.75
41040395991,30.625,9.1875,0.3125
41040418383,26.5,10.0625,1.25
41040440974,22.6875,9.6875,2.5
41040456054,22.5,8.6875,3.25
41040478426,22.4375,7.6875,3.1875
41040500995,20.875,6.4375,2.1875
41040516030,22.75,5.125,0.875
41040538454,20,4.3125,1.3125
41040560935,14.1875,3.625,2.5
41040575960,11.125,1.5625,3.5625
41040598467,10.6875,-0.8125,5.1875
41040620945,10.375,-3.125,5.875
41040635966,11.125,-5.1875,5.4375
41040658472,11.3125,-6.3125,4.375
41040674938,8.1875,-5.625,4.4375
41040695890,4.25,-4.5,3.3125
41040718500,3.3125,-3.0625,1.6875
41040734936,3.4375,-0.875,0.1875
41040755969,4.625,0.625,-0.875
41040778488,5.125,2.375,-1.75
41040794927,4.6875,3.625,-1.9375
41040815992,3.6875,4.875,-1.5625
41040838484,3.875,5.75,-1.6875
41040854935,5.625,6,-1.375
41040876033,5.875,6.75,-0.3125
41040898508,5.625,7.3125,0.1875
41040914958,5,7.8125,-1.1875
41040935987,4.3125,8.5,-2.5625
41040958462,3.1875,8.5625,-2.625
41040974900,1.3125,7.75,-1.9375
41040995963,2.1875,6,-1.375
41041018503,3.5,3.6875,-0.5
41041034968,1.4375,1.0625,0
41041055966,-1.8125,-1.4375,0.625
41041078488,-5.875,-3.1875,1.3125
41041094968,-6.9375,-4.5,1.0625
41041115957,-6.125,-5.75,0.9375
41041138447,-5.5,-6.0625,1.125
41041154874,-4.0625,-5.75,0.8125
41041175995,-3.25,-4.8125,0.625
41041198475,-2.75,-4.3125,0.5625
41041214917,-1.5,-3.3125,-0.125
41041237426,0.9375,-2.75,-0.125
41041258507,0.875,-2.4375,-0.25
41041274869,1.1875,-3.1875,-0.75
41041297452,1.125,-4.375,-0.875
41041318486,-0.5625,-6.3125,-0.5625
41041334933,-1.5625,-8.125,-0.75
41041357438,-2.3125,-9.6875,-0.9375
41041378478,-4.625,-11.0625,-0.9375
41041394938,-3.6875,-11.625,-2.0625
41041417391,0.6875,-11.125,-4
41041438515,0.4375,-9.0625,-4.5625
41041454960,-1.4375,-7.375,-4.25
41041477450,1.5,-6.4375,-4.5625
41041498481,6.625,-6.8125,-5.9375
41041514897,7.75,-6.8125,-6.3125
41041537508,4.625,-6.5,-5.8125
41041558515,0.8125,-6.3125,-5.8125
41041574900,1.5,-7.5,-7.1875
41041597476,3.5625,-9.4375,-9.25
41041618554,2.8125,-9.6875,-10.5625
41041634926,-0.5,-9.5,-11
41041657508,-1.3125,-9.9375,-10.8125
41041678434,1.25,-9.9375,-11.0625
41041695049,2.75,-9.5,-11.25
41041717484,2.3125,-8.25,-10.5625
41041738538,1.75,-6.3125,-9.75
41041754968,1.5,-4.5,-9.4375
41041777411,1.375,-2.875,-8.9375
41041798526,2.9375,-1.625,-8.875
41041814919,3.625,-0.5,-7.9375
41041837488,2.9375,-0.5625,-6.625
41041858489,3.75,-1.4375,-5.875
41041874939,2.0625,-1.4375,-5.5625
41041897449,-0.875,-1.1875,-3.875
41041918473,-2.9375,-1.75,-1.4375
41041934920,-1.5,-1.875,-0.25
41041957463,-0.8125,-1.0625,0.375
41041978471,-2.4375,0.8125,1.5
41041995026,-2.75,1.625,2.4375
41042017421,-0.4375,2,3
41042038560,2.125,2.375,3.4375
41042054898,3,2.6875,3.4375
41042077400,2.0625,2.9375,2.9375
41042098566,0.125,2.25,2.6875
41042114933,-0.125,1.6875,2.0625
41042137441,0.375,1,1.4375
41042158549,0.625,0.5625,0.875
41042175004,0.1875,0.3125,0.5625
41042197484,0.4375,-0.25,0.625
41042219970,-0.25,0.25,1.25
41042234926,-1.625,0.625,1.8125
41042257394,-1.0625,0.875,2.8125
41042279871,0.1875,1.5625,4.3125
41042294892,1.8125,0.5,5.5625
41042317363,0.9375,-2.625,8.75
41042339872,-5.5625,-0.1875,7.4375
41042356382,-16.625,3.0625,1.0625
41042377367,-34,4.9375,1.375
41042399903,-51,4.75,6.1875
41042416361,-50.6875,-0.0625,-0.5
41042436688,-24.6875,-7.4375,-6.875
41042459080,7.375,-10.625,-5.5625
41042481731,20,-8.5,0.125
41042496648,6.5625,-3.9375,2.9375
41042519207,-9.6875,-0.1875,1.1875
41042541659,-10.9375,0.75,0.6875
41042556645,-2.3125,-0.0625,1.9375
41042579189,4.3125,-0.3125,3.9375
41042595578,8.1875,-0.6875,4.3125
41042616736,8.75,-0.3125,4
41042639212,4.4375,0.6875,3.25
41042655590,-1.0625,2.125,3.125
41042676606,-3.25,3.1875,3.0625
41042699109,-1.25,3.1875,2.25
41042715523,1.5,1.0625,0.4375
41042736776,2.1875,-1.6875,-0.3125
41042759186,-1.625,-2.625,0.125
41042774955,-7.1875,-2.3125,-0.125
41042796761,-10.0625,-1.75,-0.375
41042819235,-8.8125,-1.4375,0.375
41042835630,-3.25,-0.8125,1.4375
41042856690,5,-1.1875,2.5
41042879178,10.25,-0.875,4.125
41042895660,10.5,1.1875,3.1875
41042916705,6.4375,2.25,2.125
41042939176,2.0625,2.625,2.0625
41042955567,-1.1875,3.0625,2.125
41042976614,-2.25,2.875,1.3125
41042999242,-0.4375,1.75,0.1875
41043015622,1.5625,1.3125,0.0625
41043036681,1.5,1.0625,0
41043059232,-1.5625,1.3125,0.625
41043075714,-3.5625,1.3125,0.625
41043096802,-2.4375,0.8125,-0.0625
41043119142,-0.8125,0,-0.375
41043134944,-0.9375,-0.125,0.0625
41043156728,-1.4375,-0.1875,0.125
41043179185,-1.5625,0.0625,0.1875
41043195374,-0.8125,0.1875,0.25
41043216607,-0.4375,0.4375,0.1875
41043239064,-0.4375,0,0.0625
41043254924,-0.9375,-0.5625,0.3125
41043276685,-1.25,-0.6875,0.3125
41043299175,-1.3125,-0.625,0.25
41043314925,-1,-0.5625,0.5
41043338137,-0.75,-0.6875,0.4375
41043359202,-1.5625,-0.75,0.5
41043374962,-3.0625,-0.5,0.5625
41043398174,-3.0625,-0.625,0.1875
41043419221,-1.5625,-0.875,0
41043435020,-1.625,-0.4375,0.25
41043458181,-2.125,0,0.25
41043479203,-1.625,0.25,0
41043495022,-0.75,0.0625,-0.375
41043518063,-0.1875,-0.0625,-0.4375
41043539112,-0.4375,0.125,-0.375
41043554863,-0.5625,0.375,-0.375
41043578754,-0.1875,0.5,-0.6875
41043599166,0.3125,0.3125,-1.3125
41043614920,0.625,0.125,-1.5
41043638112,0.4375,0.125,-0.9375
41043659233,0.0625,0.0625,-0.5
41043675028,-0.125,-0.1875,-0.5
41043698119,-0.125,-0.125,-0.3125
41043719235,-0.375,0.3125,0.125
41043734988,-0.1875,0.5,0.1875
41043758143,0.1875,0.5625,0.25
41043779178,0.3125,0.0625,-0.125
41043794983,-0.3125,-0.25,-0.1875
41043818048,-1.25,-0.25,-0.125
41043839230,-1.5625,-0.25,0
41043854980,-0.5625,-0.0625,-0.0625
41043878176,0.3125,0.125,-0.125
41043899271,0.0625,0.375,-0.25
41043915053,0,0.3125,-0.375
41043938083,-0.0625,0.1875,-0.3125
41043959232,-0.6875,0.5,-0.25
41043975012,-0.4375,0.4375,-0.0625
41043998203,0.375,0.3125,-0.1875
41044019228,0.625,0.375,-0.25
41044034969,0.125,0.25,-0.25
41044058157,-0.25,0.125,-0.125
41044079211,-0.3125,-0.125,-0.125
41044095080,-0.5625,-0.3125,-0.125
41044117523,-0.375,-0.375,-0.1875
41044139258,-0.25,-0.125,0.0625
41044155027,-0.75,0,0
41044177519,-0.75,-0.1875,-0.25
41044199246,0.3125,-0.5,-0.0625
41044215014,-0.3125,-0.375,0.25
41044237537,-1,-0.4375,0
41044260684,-0.4375,-0.3125,-0.125
41044275062,0.1875,0,-0.1875
41044297390,0.625,0.1875,-0.125
41044320617,0.25,0.3125,-0.1875
41044335047,-0.125,0,-0.375
41044357521,-0.125,-0.25,-0.5
41044380667,0,-0.1875,-0.5
41044395025,0.375,0.0625,-0.1875
41044417503,1.25,0.25,-0.125
41044440641,1.875,-0.25,-0.5625
41044455063,1.5,-0.25,-0.625
41044477540,-0.4375,0,-0.375
41044500705,-2.3125,0.1875,-0.25
41044515050,-2.1875,-0.3125,-0.375
41044537997,-1.1875,-0.0625,-0.375
41044560626,0.8125,0.4375,-0.5
41044575060,1.6875,-0.125,0.5
41044597549,2.375,-0.1875,0.6875
41044620697,6.1875,-1.9375,0.75
41044634994,7.3125,-2.875,0.0625
41044665602,4.375,-2.875,-0.625
41044680654,-0.625,-2,-0.875
41044695012,-4.3125,-0.8125,-0.5625
41044717568,-3.3125,-0.75,-0.5625
41044740618,-0.0625,-1.6875,-0.375
41044761716,2.125,-2,0.125
41044777466,1.4375,-1.125,0
41044800724,0.0625,-0.375,-0.25
41044821815,-1.5625,0.5625,-0.375
41044837533,-3.0625,1.375,-1
41044860047,-3.125,1.25,-1.4375
41044881748,-1.9375,0.3125,-2.25
41044897612,-2.1875,-0.5,-2
41044920678,-0.875,-2.0625,-1.6875
41044941747,2.375,-2.5,-1.875
41044957470,4.3125,-2.9375,-1.6875
41044980679,5.125,-3,-0.375
41045001690,5.25,-0.5,0.5
41045017462,5.0625,2,-0.875
41045039941,6.8125,2.25,-1.75
41045061668,8.4375,2.375,-2.3125
41045084140,4.6875,3,-1.75
41045099917,-1.125,1.8125,-0.6875
41045121630,-3.0625,0.6875,-0.8125
41045137460,-2.875,0.625,-0.75
41045159988,-4,0.375,-0.5
41045181752,-5.125,2.3125,-1.25
41045197522,-3.375,3.3125,-3.375
41045219934,-0.3125,2.9375,-4.625
41045243213,1.5625,3.3125,-2.5
41045257451,-0.9375,6.375,-0.1875
41045280420,-7.1875,8.1875,1.8125
41045302934,-17.875,8.875,2.8125
41045317608,-27.375,7.4375,3.8125
41045340036,-27.625,7.3125,3.8125
41045363184,-18.5625,9,3.3125
41045377529,-15.25,14.25,4.625
41045399995,-25.6875,20.6875,7.0625
41045423155,-38.1875,25.9375,9.5625
41045437433,-39.0625,30.75,9.0625
41045459943,-28.625,33.8125,8
41045483099,-17.125,35.875,8.4375
41045504143,-12.6875,38.1875,9.9375
41045520012,-20.375,41.5625,11.125
41045550638,-34.6875,45.3125,12.5
41045564258,-40.4375,48.125,13.8125
41045580012,-36.5625,50.125,14.5625
41045603151,-32.1875,49.875,15.0625
41045624265,-33.25,49.4375,16.625
41045639968,-39.3125,48.6875,19.6875
41045663231,-41,49.0625,20.8125
41045684203,-36.0625,48.4375,21.125
41045700127,-34.125,48.0625,24.0625
41045723072,-39.75,47.8125,28.0625
41045744317,-43.8125,48.1875,30.1875
41045760000,-48.5625,50.4375,31.25
41045783136,-47.5,50.3125,31.375
41045804267,-40.875,49.1875,32.25
41045820087,-32.8125,48.375,33.25
41045843185,-28,48.25,33.8125
41045864306,-25.9375,48.9375,33.125
41045880043,-26.5625,49.375,32.5
41045903168,-24.0625,47,30.9375
41045924255,-18.125,42.375,30.5625
41045939973,-12,37.8125,30.875
41045962475,-9.75,32.5,29.9375
41045984301,-8,28.25,27.75
41046000049,-4.375,23.6875,24.3125
41046022528,2.5625,18.6875,21.25
41046044283,13.3125,13.75,18.0625
41046059998,21.5625,7.4375,14.8125
41046082586,22.625,1.0625,9.375
41046104266,25.125,-6.25,0.9375
41046119189,31.0625,-14.875,-6.125
41046133676,40.8125,-23.6875,-9.0625
41046156168,51.375,-31.1875,-8.6875
41046179268,55.4375,-34.9375,-10.8125
41046193566,51.25,-39.3125,-17.3125
41046216124,41.625,-46.9375,-20.6875
41046239260,43,-54.875,-23.5625
41046253674,51.6875,-59.75,-27.1875
41046275991,44.25,-61.9375,-29.6875
41046299286,18.375,-64.0625,-29.125
41046313532,8,-65.1875,-30.875
41046336092,21,-62.9375,-34.8125
41046359275,29.125,-59.4375,-36.5
41046373585,25.1875,-58.5625,-35
41046396151,27.125,-56.875,-32.625
41046419223,37.1875,-55.625,-31.375
41046433505,44.9375,-53.6875,-28.125
41046456019,44.875,-51.9375,-27.0625
41046480679,42.875,-53.375,-29.3125
41046493548,34.9375,-55.375,-29.3125
41046516064,20.0625,-52.4375,-29
41046539321,13.25,-43.375,-28.5
41046553657,16.0625,-34.6875,-26.8125
41046576186,18.75,-29.75,-24.625
41046599655,17.4375,-29,-21.9375
41046613629,9.5625,-27.6875,-19.4375
41046636136,3.25,-22.375,-13.5625
41046659369,4.875,-13.6875,-7.5625
41046673579,6.1875,-6.375,-3.75
41046696109,3.5625,-3,-3
41046719372,5.5,-4.625,-2.5625
41046733594,14.125,-7.8125,-0.8125
41046756109,22.8125,-8.25,2.6875
41046779239,19.25,-5.1875,6.8125
41046793644,8.875,-2.9375,9
41046816166,-0.125,-4.4375,10.375
41046839295,-3.4375,-8.375,12.625
41046853609,-1.4375,-13.4375,13.875
41046876149,1.5,-15.3125,15.125
41046899198,1.6875,-13.875,15.375
41046913557,-2.375,-12.25,13.4375
41046936027,-4.5,-11.9375,10.25
41046959226,-5.5625,-9.4375,6.5
41046973501,-4.0625,-6.4375,2.5
41046996042,0.1875,-4.625,0.5
41047020703,2.875,-3.5625,0.0625
41047033624,4.1875,-4.125,0.25
41047056141,5.3125,-4.5,0.75
41047078655,5.4375,-6.25,1.5625
41047093596,2.9375,-8,2.25
41047117494,1.9375,-9.6875,2.375
41047138587,3.1875,-10.125,2.5
41047153613,4,-9.125,2.25
41047176144,3.3125,-6.4375,1
41047198705,1.5625,-4.375,-1.1875
41047213626,1.9375,-1.4375,-2.625
41047236079,3.4375,0.125,-2.25
41047258639,8.1875,-1.0625,-1.25
41047273647,7.75,-0.75,-0.8125
41047296127,6.0625,-0.375,-2.625
41047318611,7.5625,0.25,-4.125
41047333672,3.6875,1.9375,-3.125
41047356209,-4.0625,3.3125,-2.8125
41047378697,-6.1875,4.0625,-2.75
41047396517,-3.25,2.8125,-2.75
41047416091,0.6875,1.125,-2.625
41047438509,4.4375,-0.375,-2.1875
41047453507,6,-2.125,-0.75
41047476052,2.125,-2.125,0.75
41047498576,-3.1875,-1.375,0.0625
41047513617,-5.9375,-2.5625,-0.9375
41047536156,-6,-2.875,-1.4375
41047558679,-5.1875,-3,-0.875
41047573542,-3.8125,-2.9375,-0.75
41047596117,-2.25,-2.5,-0.4375
41047618641,-1.5625,-1.9375,-0.25
41047633627,-0.8125,-1.1875,0.25
41047656182,-0.25,-0.75,0.75
41047678706,0.1875,-0.5,0.3125
41047693643,0.5625,-0.6875,-0.5625
41047716149,-0.6875,-1.75,-1.375
41047738679,-1.4375,-2.0625,-0.375
41047753603,-1.875,-1.6875,0.1875
41047776164,-2.4375,-1.5625,0.375
41047798624,-0.75,-1.3125,-0.375
41047813686,1.9375,-1.1875,-0.5625
41047836149,2.25,-1.0625,-0.1875
41047858666,0.1875,-0.5625,-0.125
41047875135,0.1875,-0.4375,-0.375
41047896181,1.375,-1.3125,-0.875
41047918561,0.625,-1.5,-0.4375
41047935057,-0.5,0.4375,0.5625
41047956155,-0.125,2.0625,0.875
41047978679,0.125,2.5,-0.0625
41048001796,2.9375,1.5,-0.1875
41048016118,5.0625,-0.3125,-0.0625
41048038596,4,-1.75,-0.625
41048055002,-0.875,-2,-0.9375
41048076088,-3.8125,-1.3125,-0.5625
41048098561,-2.75,-0.4375,-0.6875
41048115014,0.75,0,-1.3125
41048144270,3.125,0.625,-0.8125
41048158669,4.4375,0.875,-0.4375
41048175070,5.25,1.8125,-0.375
41048196167,4.9375,3.875,-0.6875
41048218648,3.0625,5.5625,-0.8125
41048235084,3.625,5.25,-1.5625
41048256099,7.25,3.9375,-2.0625
41048278723,8.125,3.5625,-2.1875
41048295115,6.5625,4.8125,-2.1875
41048319021,4.1875,6,-2.375
41048338662,2.4375,5.0625,-3.0625
41048355091,1.75,4.5625,-3.875
41048376104,3.4375,3.3125,-2.875
41048398617,2.9375,1.5,-1.1875
41048415050,1.25,1,-0.375
41048436103,-0.125,0.625,-0.25
41048466789,-1.625,0,-0.4375
41048475046,-0.375,-1.375,-0.375
41048496107,0.5625,-1.4375,-0.5
41048518568,0.375,-0.75,0
41048535044,0.125,-0.3125,0.0625
41048556122,0.5,-0.6875,0.375
41048578616,0.3125,-0.6875,0.5625
41048595024,0,-0.5625,0.5625
41048616132,0.4375,-0.625,0
41048638596,0.9375,-1.5625,0.0625
41048655015,0.25,-1.4375,0.8125
41048676118,-2,-0.9375,1.125
41048698598,-2.75,-0.875,0.8125
41048715041,-1.6875,-0.875,0.625
41048736093,0,-0.25,-0.1875
41048758621,-0.375,0.1875,-0.5
41048775017,-0.4375,0.1875,-0.125
41048796068,-0.1875,-0.4375,1.1875
41048826721,0.25,-0.6875,1.0625
41048835041,0.5,-0.625,0.625
41048857553,-0.5625,0.125,0.375
41048878602,-1.25,0.4375,0.0625
41048895101,0.125,0.875,-0.375
41048917540,1.375,0.75,-0.375
41048938628,1,0.625,-0.0625
41048955033,-0.125,0.3125,0
41048977590,-0.8125,-0.125,0.0625
41048998631,-0.75,-0.25,0.25
41049015049,-1,-0.0625,0.125
41049037576,0.1875,-0.1875,-0.375
41049058616,1.625,-0.0625,-0.1875
41049075057,0.0625,0.4375,0.1875
41049097565,-1.5,0.375,0.3125
41049118596,0.125,-0.1875,-0.625
41049135063,1.125,-0.3125,-0.375
41049157556,0.0625,-0.0625,0.0625
41049178673,-0.0625,0.3125,0.1875
41049195050,0.875,0.3125,0
41049217530,0.5,0.1875,-0.125
41049238599,-0.4375,0,-0.5625
41049255039,-0.4375,0.0625,-0.375
41049277534,0.0625,-0.0625,-0.125
41049298584,0.125,-0.0625,0.125
41049315028,-0.6875,-0.0625,0
41049337529,-0.125,0.1875,-0.125
41049358637,0.375,-0.125,-0.4375
41049374997,-0.375,0,-0.375
41049397494,-0.875,0.5,-0.0625
41049418637,0.6875,0.5,-0.125
41049435014,1.25,0.3125,-0.25
41049457557,0.5625,0.0625,-0.375
41049478627,0.0625,0.25,0.125
41049495085,0.5,-0.0625,-0.1875
41049517562,1.75,0.0625,-0.5
41049538633,1.4375,0.5,-0.375
41049555069,1.375,0.5,-0.375
41049577575,0.9375,0.3125,-0.4375
41049598593,0.625,0.25,-0.125
41049615067,0.375,-0.4375,0
41049637521,-0.8125,-0.5625,0.25
41049658597,-1.8125,-0.5,0.5
41049675070,-2,-0.625,0.4375
41049697546,-0.375,-0.625,-0.125
41049718599,1,-0.5,-0.125
41049735029,-0.125,-0.25,0.5625
41049757544,-1.3125,0,0.5625
41049780053,-0.4375,-0.1875,0.4375
41049794281,-0.125,0.3125,0.75
41049816760,0.3125,0.1875,0.1875
41049839316,1.3125,0.1875,-0.1875
41049854248,1.1875,0.3125,-0.375
41049876716,-0.875,0.25,-0.625
41049899298,-1.5,0.1875,-0.625
41049914262,-0.25,0.1875,-0.6875
41049936807,0.625,0.125,-0.625
41049959300,0.125,0.1875,-0.625
41049975728,-0.6875,0.0625,-1.25
41049996748,-0.8125,-0.1875,-1.625
41050019233,-4.4375,-0.4375,-2.5625
41050035690,-7.75,-2.625,-4.9375
41050056800,-6.125,-5.625,-6.5
41050079278,-7.0625,-6.875,-7.4375
41050095745,-8.125,-10.875,-8.3125
41050116787,-5.625,-18.3125,-6.25
41050139236,-5.3125,-24.75,3.1875
41050155062,-7.125,-26.25,13.6875
41050176734,-10.6875,-23.0625,17.0625
41050199317,-17.8125,-17.875,23.8125
41050215566,-12.25,-12.3125,28.0625
41050236819,1.75,-15.5625,17.875
41050259297,16.375,-15.125,8.375
41050275192,22,-12.0625,9
41050296855,39.5625,-9.6875,13.25
41050319385,65.75,-13.0625,13.5
41050335798,47.5625,-6.25,3.9375
41050356909,55.125,-7,-8.875
41050379337,49.5625,-10.3125,-21.0625
41050395718,14.9375,-7.4375,-25.5
41050416780,-6.625,-4.3125,-24.8125
41050439265,14.875,-4.9375,-23.3125
41050455735,44.1875,-14.3125,-24.375
41050476886,40.3125,-20.125,-23.25
41050499335,19.1875,-19.375,-20.8125
41050515782,3.8125,-15.0625,-17.125
41050536874,4.4375,-9.375,-12.875
41050559370,8.625,-4.625,-8.1875
41050575808,-5.625,0,-3.625
41050596903,-12.8125,5.6875,-4.8125
41050619397,-15.3125,6.0625,-6.0625
41050635810,-8.6875,5.8125,-6.25
41050656842,-2.625,2.8125,-6.8125
41050686819,2.625,0.375,-5.5625
41050695688,6.6875,-2.125,-5
41050716822,9.1875,-4.3125,-4.75
41050739313,8.1875,-4.5,-3.1875
41050755096,1.3125,-3,-1.125
41050776775,-2.5,-2.5625,0.9375
41050799696,-2.625,-2.4375,3.125
41050815084,-2.4375,-3.125,3.4375
41050836712,-7.125,-2.4375,3.9375
41050859404,-11.3125,-0.5625,5.0625
41050875186,-16.9375,0.9375,6.8125
41050898322,-27.0625,1.625,9.3125
41050919393,-34.9375,3,14.25
41050935149,-46.125,6.25,14.0625
41050964355,-40.375,5.5,10.375
41050979389,-19.1875,2.9375,8.875
41050995151,-9.625,5.4375,10.375
41051018198,-1.5625,8.5,9.3125
41051039295,5.9375,11,8.75
41051055077,9.9375,13.75,4.75
41051078213,0.1875,16.6875,0.5625
41051099271,-12.5,23.3125,1.75
41051115054,-10,24.625,0.75
41051138186,-11.3125,22.375,-1.8125
41051159345,-8.4375,16.6875,-5.25
41051175182,-7.125,15,-7.3125
41051198281,-11.1875,15,-9.5
41051219387,-11.75,12.6875,-13.8125
41051235117,-13.75,10.8125,-20.125
41051258277,-15,6.4375,-25.1875
41051279335,-11.0625,3.3125,-23.8125
41051295206,-12.4375,0.4375,-20.4375
41051318282,-24.125,-1.625,-17.8125
41051339406,-26.5625,-7,-15.5625
41051355157,-14.0625,-9.6875,-10
41051378243,-2.375,-11.5625,-2.0625
41051399241,-0.0625,-12.0625,3.3125
41051415112,6.5,-12.9375,6.375
41051438241,11.875,-14.875,11.4375
41051459318,8.3125,-13.0625,13.75
41051475116,0.75,-10.125,11.75
41051498284,1.1875,-10.125,8.375
41051519336,11.4375,-11.375,9.625
41051535167,21.8125,-11.875,14.1875
41051558394,17,-9.6875,15.5625
41051579407,2.0625,-0.3125,11
41051595221,-8.5,9.8125,3.8125
41051618358,-12.9375,18.875,-1.625
41051639316,-7.5625,20.75,-3.625
41051655055,7.375,15.0625,-4.5
41051677565,20.3125,7.9375,-4.0625
41051699259,18.6875,3.0625,-1.1875
41051715048,0.8125,2.1875,0.8125
41051737584,-16.125,1.75,0.5
41051759351,-17.9375,-1.3125,-1.375
41051775151,-10.0625,-3.625,-2.625
41051797702,-2.375,-4.8125,-2.5
41051820821,2.8125,-3.4375,-1.8125
41051835103,3.5625,-0.75,-0.4375
41051857655,0.5625,2.125,-0.125
41051880807,0.625,4.1875,0.1875
41051895187,3,4.5625,0.8125
41051917701,4.125,3.4375,0.875
41051940803,4.875,1.0625,0.75
41051955084,3,-0.9375,1.5625
41051977572,-1.5625,-2.0625,1.5625
41052000767,-5.1875,-2.3125,1.625
41052015129,-5.9375,-2.625,1.25
41052037698,-3.0625,-3.0625,0.625
41052060820,0.1875,-3.4375,0.375
41052075212,2.25,-3.25,0.25
41052097642,2.0625,-2.6875,0.1875
41052120855,-1.0625,-0.875,0.625
41052135173,-3.25,0.5,0.4375
41052157645,-1.625,0.6875,0.125
41052180865,0.6875,0.25,0.1875
41052195169,1.0625,0.375,0.1875
41052217612,-0.5,0.625,0.3125
41052240740,-1.9375,1.0625,0.125
41052255068,-2.0625,0.9375,0.0625
41052277594,-1.5,0.0625,0.25
41052300795,-0.5625,-0.6875,0.4375
41052315064,-0.0625,-0.875,0.125
41052337619,-0.75,-0.5625,0.125
41052360830,-1.0625,-0.875,-0.25
41052381886,-1.0625,0,-0.0625
41052397625,-0.625,0.4375,-0.375
41052420803,1.1875,0.3125,-0.1875
41052441912,2.75,0.4375,0.1875
41052457704,2.4375,0.6875,0.3125
41052480823,-0.0625,1.25,0.375
41052501799,-0.6875,1,-0.0625
41052517594,1.375,0.375,-0.25
41052540733,1.8125,0.5,-0.4375
41052561889,0.75,0.9375,-0.6875
41052585789,1.1875,1.0625,-0.25
41052600098,1.125,1.5,0.125
41052621801,0.625,1.75,-0.0625
41052637578,1.25,1.25,-0.3125
41052660193,1.8125,1.125,-0.4375
41052681847,1.125,1,-0.5
41052697693,0.3125,0.875,-0.1875
41052720203,0.5625,0.5625,0.1875
41052741814,-1,0.0625,0.625
41052757692,-1.625,-0.1875,0.5
41052780227,-1.5,-0.875,0.0625
41052803312,-2.1875,-1.375,0
41052817664,-2.625,-1.4375,0.1875
41052840118,-3.1875,-1.1875,0.0625
41052863238,-1.625,-0.8125,-0.5625
41052877585,0.8125,-0.125,-0.25
41052900140,1.6875,0.625,-0.25
41052923409,2.4375,1,-0.125
41052937713,2.4375,1.25,-0.0625
41052960215,2.625,1.5625,-0.125
41052983317,2.25,1.6875,-0.4375
41052997666,1.625,1.6875,-1
41053020133,1.25,1.9375,-0.9375
41053043425,1.0625,2,-0.75
41053057724,1.6875,2.75,-0.625
41053080162,1.9375,3.75,-1.4375
41053103362,1.3125,2.75,-2.5625
41053117644,0.8125,2.25,-3.4375
41053140079,2.75,1.1875,-3.1875
41053163246,4.375,1.0625,-1.5
41053177641,2.625,1.3125,0.4375
41053200112,-0.1875,1.6875,0.9375
41053223332,-1.125,1.9375,1.3125
41053244497,-2,2.4375,1.9375
41053260212,-4.1875,1.75,2.3125
41053283306,-6.8125,0.625,3.0625
41053304429,-7.75,-0.6875,4.25
41053320157,-6.0625,-1.6875,5.5
41053343492,-6,-2.0625,7.25
41053364479,-7.5625,-3.125,7.6875
41053380184,-6.3125,-4.25,7.9375
41053403327,-3,-4.3125,6.6875
41053424327,-2.9375,-2.8125,5.875
41053440176,-6.25,-1.25,5.6875
41053453670,-11.625,-0.125,3.375
41053476195,-19.875,-0.625,0.8125
41053499398,-21.375,-2.1875,-1.1875
41053513819,-17.25,-3.9375,-3.25
41053536198,-9.375,-3.3125,-4.125
41053559469,0.75,-1.75,-3.625
41053573777,2.8125,0.75,-2.25
41053596349,0.25,1.625,-1.8125
41053619387,-0.4375,0.5,-0.6875
41053633727,-3.1875,-0.25,1.0625
41053656216,-9.125,-1.25,-0.375
41053679475,-16.3125,-1.75,-1.25
41053693724,-16.5625,-2.625,-1.75
41053716169,-10.9375,-2.9375,-2.375
41053739811,-9,-3.0625,-3.6875
41053753662,-8.875,-2.4375,-3.3125
41053777709,-13.5,-1.5,-4.8125
41053799423,-18.1875,-2.125,-8.5
41053813740,-16.4375,-3.5,-8.6875
41053836235,-15.0625,-3.5,-7.5
41053859399,-20.5625,-1.625,-6.5
41053873765,-23.625,0.4375,-8.75
41053896282,-17.625,1.375,-10.9375
41053919483,-12.125,0.625,-11.75
41053933773,-24.875,1.75,-15.0625
41053956249,-35.75,2.6875,-17.9375
41053979391,-38.6875,3.75,-16.875
41053993696,-34.5625,1.5625,-15
41054016225,-25,-1.625,-14.125
41054039447,-23.25,-4.625,-14.4375
41054053800,-20.3125,-2.5625,-15.1875
41054076265,-8.5,1.875,-15.9375
41054099418,1,0.9375,-14.6875
41054113782,-5.5625,-2.8125,-11.875
41054136265,-11.8125,-5.25,-9.1875
41054159504,-2.0625,-6.4375,-4.25
41054173741,8.375,-6.5,-0.5
41054196313,11.3125,-6.5625,3.5625
41054219484,9.6875,-3.0625,7.5625
41054233849,1.3125,0.8125,9.625
41054256196,-3.9375,2.9375,8.9375
41054279362,-0.75,0.1875,9.125
41054293715,7.0625,-1.3125,12.5625
41054316239,8.4375,-2,13.3125
41054339508,4.75,-1.8125,12.75
41054353780,2.5,-1.125,12.0625
41054376294,-0.125,-0.3125,9.8125
41054399444,-4.9375,-0.625,7.0625
41054413727,-14.5625,0,4.8125
41054436303,-18.0625,0.9375,4
41054459431,-11.0625,-0.0625,2.4375
41054473763,-2,-1.375,1.4375
41054496270,2.5,-1.6875,0.6875
41054518801,4.4375,-2.1875,0.3125
41054533743,3.375,-2.4375,0.0625
41054556208,1.75,-2.625,-0.1875
41054579403,0.5,-1.875,-0.25
41054593730,0.25,-1,-0.4375
41054616179,2.625,-0.375,-1.1875
41054639468,4.8125,-0.5,-1.5625
41054653866,3.5,0.3125,-1.875
41054676329,0.875,0.75,-2
41054698786,0.5,1.375,-2.125
41054713801,2.3125,1.0625,-2.0625
41054736279,4.3125,0.875,-1.25
41054758780,4.4375,1.1875,-0.375
41054773804,4.5,1.5,0.125
41054796578,4.8125,1.125,-0.125
41054818786,4.375,0.5,0.125
41054833761,3.4375,-0.0625,0
41054856188,2,-0.375,0.5
41054878749,2.125,-0.625,0.75
41054893740,2.5,-0.75,1.25
41054916302,3.1875,-0.5,1.375
41054938770,2.3125,-0.375,0.875
41054953834,1.5,-0.375,0
41054976312,-2.5625,-0.3125,-1.25
41054998884,-3.25,-0.9375,-1.5625
41055013789,-2.4375,-1.3125,-0.5625
41055036303,-0.75,-0.8125,-0.125
41055058791,0.9375,-0.75,-0.6875
41055076663,2.5625,-0.3125,-1.3125
41055096252,2.875,-0.125,-0.625
41055118753,4.3125,-0.5625,1.0625
41055133718,7.375,1.875,0.9375
41055156271,11.9375,3.0625,0.375
41055178775,12.1875,2.125,0.625
41055193811,13.25,0.3125,0.875
41055216373,14.75,0.75,1.5
41055238800,16.125,-0.1875,-1.1875
41055253838,18.5625,-0.4375,-2
41055276372,13.6875,3.0625,-0.25
41055298762,-0.375,6.5625,0.5
41055313843,-14.875,7.375,0.125
41055336311,-17.4375,4.25,-0.375
41055358820,-11.625,0.875,-0.25
41055373731,-5.8125,-0.4375,0
41055396214,-5.9375,1.5,0.0625
41055418690,-11.375,4.375,-1.125
41055433697,-13.375,4.5,-2.125
41055456214,-11.4375,3.9375,-2.6875
41055478838,-11.3125,5,-4.6875
41055495306,-12.75,8.25,-9.3125
41055516306,-12.4375,11.8125,-15.0625
41055538793,-10.125,13.75,-20.9375
41055555259,-10.6875,16.0625,-25.4375
41055576318,-16.375,18.3125,-28.5
41055598857,-21.4375,20.8125,-30.0625
41055622769,-25.5,24.1875,-32.8125
41055639182,-25.5,26.75,-37.9375
41055658751,-19,27.25,-43.375
41055675179,-9.375,26.25,-47.4375
41055696305,-15.625,30,-49.75
41055718773,-27.875,35.6875,-52.5625
41055735172,-37.8125,41.9375,-55.6875
41055756210,-39.9375,44.625,-57.625
41055778772,-35.3125,46.0625,-60.5625
41055795289,-37.6875,50.25,-63.75
41055816295,-43.4375,58.1875,-64.0625
41055846939,-42.75,63.25,-61.625
41055855256,-49.625,68.8125,-62.375
41055876291,-43.3125,70.75,-66.9375
41055898772,-37.875,72.625,-70.25
41055915230,-37.1875,78.25,-71.5
41055936310,-48.8125,83.25,-73.625
41055958749,-60.3125,83.25,-77.1875
41055975167,-62.8125,81.25,-77.9375
41055999108,-53.375,79.3125,-77.125
41056018749,-38.875,80.9375,-76.375
41056035169,-34.9375,81.8125,-76.8125
41056056201,-33.375,82,-79.8125
41056078724,-37.75,78.4375,-79.8125
41056095301,-40.1875,75.125,-76.6875
41056116307,-32.0625,73.375,-73.25
41056138880,-22.5625,70.625,-71.25
41056155319,-20.9375,67.1875,-69.4375
41056176341,-25.5625,65.625,-67
41056198857,-30.875,64.1875,-66.4375
41056215218,-32.4375,61.1875,-65.3125
41056236362,-27.3125,59.875,-63.125
41056258756,-22,58.8125,-60.8125
41056275275,-28.5,59.625,-60
41056296289,-34.0625,59.625,-62.4375
41056318725,-31.5,60.375,-63.125
41056335187,-27.0625,57.875,-61.25
41056356235,-27,57.5,-59.25
41056378741,-30.9375,58.6875,-60
41056395189,-35.625,60.4375,-61.625
41056417735,-35.375,60.375,-62.75
41056438842,-33.0625,59.8125,-63.375
41056455274,-26.8125,58.125,-65.125
41056477808,-23.25,56.375,-65.5
41056506985,-25.625,53.9375,-63.625
41056515267,-32.1875,51.8125,-61.625
41056537798,-34.4375,46.8125,-60.4375
41056558812,-24.5,40.1875,-55.4375
41056575271,-16.625,32.6875,-47.8125
41056597734,-18.25,27.375,-42.875
41056618715,-17.625,22.5625,-42.25
41056635206,-11.5625,17.125,-40.6875
41056657684,-4.9375,12,-33.5625
41056678793,-10,10.9375,-27.8125
41056695210,-13,8.25,-24.9375
41056717701,-12.9375,3.4375,-22
41056738834,-9.125,-1.4375,-17.1875
41056755309,-7.3125,-3.4375,-11.625
41056777779,-7.625,-4.625,-9.1875
41056798822,-4.8125,-6,-6.5
41056815246,1.75,-7.6875,-3.625
41056837781,9.1875,-8.8125,-0.9375
41056858785,8.3125,-6.625,2.9375
41056875252,5.25,-4.9375,4.8125
41056897754,8.0625,-5.75,6.5
41056918755,10.4375,-7.625,9.375
41056935171,10.8125,-7.875,14.0625
41056957691,8.125,-7.3125,17.25
41056978761,8.9375,-9.125,17.0625
41056995175,14.5625,-15.6875,17.5
41057017769,21.1875,-25,20
41057038884,20.1875,-30.4375,24.5
41057055329,18.3125,-34.6875,27.875
41057077758,22.625,-41.25,32.3125
41057098838,26.0625,-49.9375,38.125
41057115304,26.125,-59.8125,42.625
41057137867,30.0625,-66.4375,47.75
41057159499,31.75,-68.9375,52.8125
41057174492,33.6875,-69.9375,56.0625
41057196958,43,-72.0625,61.9375
41057219426,44.3125,-73.25,62.9375
41057234486,44.375,-76.625,65.6875
41057256924,48.0625,-75.875,71.4375
41057279491,44.1875,-69.375,75.75
41057294552,38.625,-61.8125,76.4375
41057317002,47.75,-58.6875,77.3125
41057339486,65.0625,-56.875,82.6875
41057354523,68.25,-55.125,88.5
41057377006,66.75,-54.25,91.1875
41057399535,70.3125,-54.875,92.1875
41057414573,69.375,-55.4375,91.5625
41057436996,66.5625,-55.375,91.75
41057460883,68.9375,-56.75,93.9375
41057474455,71.1875,-56.5625,94.75
41057496905,69.6875,-60.75,92.3125
41057519412,57.9375,-67.8125,89.6875
41057535845,35.6875,-73.25,84.0625
41057556933,34.1875,-78.625,76.75
41057579387,55.625,-78.75,74.25
41057595897,65.375,-71.125,76.4375
41057617037,37,-64.375,79.5625
41057639555,7.5625,-64.8125,76.125
41057655960,10.75,-72.5625,69.4375
41057677011,31.375,-75.0625,67.1875
41057699491,44.1875,-72.75,65.1875
41057715904,36.0625,-66.125,65.4375
41057737042,26.0625,-62.625,62.25
41057759526,27.4375,-55.875,60.0625
41057775934,20.5625,-46.4375,58
41057797013,17.8125,-40.9375,53.8125
41057819391,24.25,-41.9375,53.375
41057835840,34.5625,-42.25,55.125
41057856971,40.625,-36.625,56.4375
41057879450,31.125,-30.125,51.4375
41057895894,19.6875,-28.5,47.625
41057916984,23.1875,-31.5,51.125
41057939421,19.9375,-34.875,52.5
41057955882,6.1875,-43.8125,51.25
41057977036,12.125,-50.3125,48.875
41057999529,19.4375,-57.5,46.9375
41058015938,19.3125,-55.75,46.625
41058037080,9.125,-46.875,45.375
41058059567,-17.25,-38.5625,37.8125
41058075976,-46.375,-35.3125,32
41058097011,-55.875,-33.375,34.3125
41058119512,-49.0625,-12.9375,20.5625
41058135892,-54.1875,9.5,-5.5
41058156965,-37.1875,25.4375,-17.625
41058179426,18.625,25.1875,-8.625
41058195896,71.5,14.9375,1.75
41058216929,73.5625,3.5625,6.125
41058239424,30.3125,0.0625,7.5
41058255903,-16.625,0.5,8.375
41058276959,-42.1875,-1.5625,9.25
41058299554,-43,-3.875,8.75
41058315358,-24.125,-5.75,8.3125
41058337022,-3.125,-7.375,6.5625
41058359568,7.4375,-7.625,4.1875
41058375319,7.5,-5.375,2.625
41058397056,1.5,-2.75,1.1875
41058419538,-4.875,-0.875,-0.375
41058435308,-7.625,-0.4375,-0.5
41058458495,-6.3125,-0.4375,0.25
41058479441,-4.875,0.375,0.375
41058495209,-3.625,1.5625,0.625
41058518413,-0.6875,2.625,1.25
41058539450,0.0625,2.8125,0.625
41058555230,0,1.8125,0.5625
41058578396,1.125,0.1875,1.5
41058599586,1.875,-1,2.4375
41058615332,0.875,-0.875,2.0625
41058638431,-0.875,0.125,1.6875
41058659561,-0.8125,0.375,1.1875
41058675331,-0.4375,-0.3125,-0.125
41058698467,0.125,-1.3125,-0.4375
41058719601,-1.625,-1.1875,0.1875
41058735331,-3.5625,-2.0625,0.375
41058758430,-4.3125,-3.0625,0.8125
41058779569,-5,-3.3125,1.625
41058795379,-5.4375,-3,1.25
41058818503,-6.8125,-3.4375,0.0625
41058839490,-7,-5.4375,-0.75
41058855302,-9.8125,-7.75,-1
41058878425,-13.125,-10.625,-0.8125
41058899507,-16.375,-11.75,-1.3125
41058915373,-16.0625,-13.25,-2.375
41058938500,-17.9375,-13.6875,-2.3125
41058959526,-18.5,-13.125,-0.625
41058975305,-18,-12.625,-0.875
41058998446,-15.8125,-12.6875,-3.3125
41059019525,-16.8125,-12.5625,-4.4375
41059035273,-19.3125,-12.125,-2.9375
41059058423,-17.875,-11.3125,-1.25
41059079442,-14.6875,-10.0625,-0.4375
41059095247,-10.1875,-8.5625,-0.75
41059118455,-6.625,-6.8125,-1.125
41059139490,-4.375,-5.125,-0.8125
41059155214,-4.75,-2.3125,-0.0625
41059178445,-4.5625,-0.6875,0.125
41059199582,-1.875,-0.25,0.4375
41059215327,1.125,-0.1875,0.25
41059237833,2.5,0.5625,-0.125
41059259557,3.125,1.1875,-0.375
41059275295,4.5,1.4375,-0.9375
41059297852,5.375,1.5,-0.3125
41059319552,4.5,1.5625,0.3125
41059335329,1.375,2.0625,-0.375
41059357718,1.125,1.8125,-1.1875
41059379578,3.5625,1.1875,-0.875
41059395313,5.4375,-0.875,-0.625
41059417862,8.5625,-4.25,-0.125
41059441044,10.25,-5.3125,-2.125
41059455387,13.1875,-11.1875,-5.5625
41059477839,10.5,-10.75,-10
41059500958,4.0625,-4.6875,-8.8125
41059515393,2.125,-1.4375,-9.9375
41059537767,-4.25,2.25,-12.4375
41059560864,-11.125,3.3125,-12.25
41059575288,-10.0625,1.5625,-10.6875
41059597768,-5.6875,0.3125,-9.25
41059620922,-4.9375,1.6875,-9.6875
41059635242,-6.5625,3.3125,-11.125
41059657776,-11.4375,3.1875,-11.875
41059681022,-12.25,3.3125,-12.625
41059695359,-8.5,4.8125,-14.6875
41059717801,-3.875,6.4375,-19.25
41059741047,-1.625,7.125,-24.375
41059762062,0.0625,6.1875,-33.375
41059777795,2.0625,5.9375,-40
41059800983,4.4375,11.375,-45.8125
41059822034,4.8125,16.4375,-54.6875
41059837782,-3.5625,19.375,-62.0625
41059861008,-12.375,22.4375,-68.5625
41059882083,-19.125,25.9375,-70.25
41059897871,-16.8125,30.8125,-72.8125
41059920947,-24.875,38.25,-76.9375
41059942052,-34.4375,44.1875,-78.5625
41059957886,-37.3125,47,-78.3125
41059981032,-44.3125,58.8125,-78.6875
41060002006,-40.125,63.125,-79.6875
41060017792,-33.5,68.6875,-80.5625
41060040927,-44.625,76.75,-80.625
41060086652,-60.75,86.5625,-85.3125
41060087462,-69.1875,92.6875,-88.25
41060107085,-67.125,97.75,-86.875
41060132314,-63.9375,102.688,-87.5
41060139285,-60,102.062,-93.25
41060160989,-58.8125,115.812,-96.1875
41060181947,-60.625,118.75,-93.375
41060197735,-73.625,118.188,-96.5
41060220286,-82.3125,117.188,-96.75
41060242027,-82.0625,116.562,-93.9375
41060257814,-72.75,115.562,-92.875
41060280268,-63.9375,112.562,-92.6875
41060303412,-53.9375,104.875,-94.9375
41060317777,-48.3125,98.9375,-95.625
41060340346,-53.9375,99,-91.25
41060361755,-63.875,98.625,-85.0625
41060377868,-59.625,95.6875,-79.75
41060400372,-43.875,88.8125,-76.375
41060423491,-28.375,79.3125,-73.375
41060437833,-13.5,72.6875,-68.4375
41060460449,-2.0625,68.125,-66.1875
41060483543,-3.3125,65,-64.75
41060497820,-18.125,62.75,-60.375
41060527072,-32.125,58.5625,-57.875
41060543484,-32.25,50.125,-55.5
41060557836,-23.125,42.25,-51.9375
41060580290,-16.4375,35.9375,-48.0625
41060603509,-17.9375,31.375,-44.8125
41060617891,-19.5,23.625,-42.125
41060640312,-14.1875,15.625,-38.0625
41060663587,-5.1875,10.25,-30.3125
41060684497,-10.75,7.875,-24.875
41060700304,-17.1875,4.375,-23.25
41060723455,-11.5625,-0.1875,-18.6875
41060744628,-4.4375,-4,-12.5
41060760457,0.8125,-5.3125,-6.4375
41060783517,-2.125,-4.125,-3.3125
41060812054,-2.75,-3.125,-4.75
41060820422,3.3125,-4.5625,-1.6875
41060833915,2.5625,-4,4.5
41060857054,-5.625,-1.5,8.3125
41060879566,-6.875,-2.5,8.625
41060893889,0.375,-5.4375,10.5
41060917019,5.625,-6.9375,14.5625
41060947781,4.9375,-5.625,18.5
41060953925,2.8125,-5.6875,19.5
41060976493,6.625,-7.0625,20.25
41060999583,10.625,-6.75,20.5
41061013923,14.3125,-7.3125,19.9375
41061036410,13.75,-7.1875,20.3125
41061059537,9.625,-6.6875,19.3125
41061073970,8.625,-8.5625,18.125
41061096410,8.8125,-12.125,17.75
41061119510,9.9375,-16.5,17.9375
41061133826,15.5625,-20,20.625
41061156370,16.625,-24.25,21.8125
41061179546,11.4375,-27.5625,23.0625
41061193871,11.0625,-34.25,25.5
41061216406,11.9375,-36.9375,32.125
41061239543,16.8125,-36.0625,34.9375
41061253921,22.0625,-35.125,34.5625
41061276483,21.3125,-35.9375,39.3125
41061299596,21.3125,-36.8125,45.625
41061313867,20.875,-38.25,47.6875
41061336472,24.5,-40.75,49.125
41061359612,29.4375,-42.5625,54.3125
41061373867,35.1875,-46.1875,60.9375
41061396477,39.6875,-50.0625,66.9375
41061419631,42.4375,-50.1875,69.125
41061433940,47.4375,-56.25,72.125
41061456534,51.875,-60.875,76.6875
41061479592,54.8125,-63.75,80.125
41061493894,50.6875,-61.3125,85.125
41061516461,36.375,-58.125,90.8125
41061539566,22.0625,-57.8125,94.5625
41061553950,10.6875,-60.9375,90.0625
41061576456,21.75,-69,88.75
41061599563,42.875,-74.6875,93.8125
41061613931,47.875,-74.5625,96.875
41061636485,49.875,-75.6875,94.1875
41061659603,66.3125,-78.0625,91.4375
41061673946,69.75,-78.6875,91.5625
41061696482,58.9375,-76.9375,89.1875
41061719594,59.9375,-74.75,83.6875
41061734000,61.8125,-68.4375,80.4375
41061756397,46.125,-61.1875,79.875
41061779556,35.8125,-64.875,75.4375
41061793928,55.625,-68.25,72.75
41061816474,66.1875,-63.9375,71.6875
41061839583,57.875,-59.875,72.6875
41061853925,47.75,-58.375,73.75
41061876478,43.375,-57.8125,70
41061899575,36.875,-57.875,65.5
41061913925,43.125,-60.25,61.25
41061936468,55.875,-61.8125,60.875
41061959629,55.875,-56.625,63.4375
41061974009,28.875,-46.0625,62.125
41061996486,3.0625,-42.25,58.25
41062019655,-2.75,-40.6875,55.6875
41062033981,6.625,-36.1875,56.5625
41062056480,17.5625,-28.625,57.25
41062079610,11.25,-22.75,51.375
41062093897,2.1875,-20.1875,47.1875
41062116432,5.5625,-18.1875,46
41062139647,13.5,-13.5,45
41062153942,13.25,-10.6875,43.5625
41062176458,18.875,-12.5625,39.6875
41062199563,17.25,-15.75,34.625
41062213915,21.375,-17.375,31.5625
41062236407,34.1875,-15.125,30.875
41062258858,29.6875,-11.8125,29.5
41062273857,11.875,-8.125,22
41062296387,-6.8125,-2.125,12.5625
41062318836,-11,4.0625,4.1875
41062333900,2.5,8.125,0.3125
41062356383,21.8125,8.1875,1.375
41062378985,30.5,7.5625,3.5625
41062393974,18.8125,7.5625,6.5625
41062416481,2.4375,7.875,8.5
41062438938,-9,8.4375,9.4375
41062453858,-12.3125,8.4375,8.5625
41062476473,-10.375,8.1875,7.25
41062498929,-9,7.3125,6
41062514013,-8.3125,5.9375,4.125
41062536469,-6.9375,4.4375,1.5625
41062558997,-4.875,3.4375,-0.6875
41062573910,-4.5625,2.8125,-2.8125
41062596466,-4.375,2.25,-1.8125
41062618989,-4.8125,1.875,-0.375
41062633888,-6.9375,1.625,0.9375
41062656432,-6.9375,1.4375,0.25
41062678952,-4.6875,1.125,-1.0625
41062694008,-2.1875,0.6875,-1.75
41062716417,-0.8125,1.75,-1.25
41062738935,-1.375,2.1875,0.5
41062756897,-1.0625,1.6875,1.5
41062776518,0.25,0.6875,1
41062799035,1.125,-0.3125,0
41062813840,0.8125,-0.9375,-0.25
41062836438,-0.625,-1.25,0.125
41062858894,-1.625,-0.75,-0.3125
41062873891,-0.4375,-0.375,-0.9375
41062896374,0.1875,0,-1.375
41062918932,-0.3125,0.6875,-1.25
41062933983,-0.5625,0.8125,-0.75
41062956484,0.4375,0.375,0
41062978932,0.25,-0.125,-0.375
41062993968,-0.75,-0.6875,-1.0625
41063016447,-2.375,-0.6875,-0.9375
41063038989,-3.6875,0.3125,-1.125
41063055465,-3.1875,0.75,-1.5625
41063076432,2.3125,0.1875,-0.875
41063098952,5.6875,-0.4375,-0.375
41063115417,3,-0.5,-0.125
41063136516,-1.0625,-0.3125,0.25
41063158979,-2.5,-0.5,0.25
41063175478,-1.5625,-0.75,0.1875
41063196448,-0.1875,-0.9375,0.0625
41063218995,0.5,-0.5625,0.25
41063235457,0.8125,-0.5,0.125
41063256472,0.375,-0.4375,0.0625
41063279007,-0.6875,-0.375,0.1875
41063295377,-0.625,-0.4375,0.3125
41063316431,0.375,-0.375,0.375
41063339018,0.75,-0.125,0.5625
41063355450,0.75,0,0.5625
41063376444,1.0625,0,0.5625
41063398875,1.0625,0.375,0.625
41063415351,0.875,0.4375,0.5625
41063436401,1,0.375,0.5625
41063458890,1.375,0.1875,0.3125
41063475381,0.9375,0.0625,0
41063496381,0.4375,0.0625,-0.3125
41063518899,0.0625,-0.125,-0.375
41063535393,0,-0.0625,-0.1875
41063556444,-0.1875,-0.0625,-0.0625
41063578927,0.1875,0.125,-0.0625
41063595352,1,-0.4375,-0.25
41063616398,0.6875,-0.5,0.3125
41063638892,-1,-0.3125,0.9375
41063655347,-2.1875,-0.3125,0.875
41063679350,-1.125,-0.4375,0.5625
41063698926,0.0625,-0.6875,0.4375
41063715369,0.1875,-0.6875,0
41063736431,0.4375,-0.75,-0.25
41063758955,0.1875,-0.5,-0.125
41063775355,-1.0625,-0.5,-0.0625
41063796472,-1.0625,-0.75,-0.0625
41063818917,1.0625,-1.8125,-0.0625
41063835366,4.5,-3.5,-0.5625
41063856386,9.75,-5.375,-1.6875
41063878875,13.75,-6.3125,-2.0625
41063895385,18.0625,-6.4375,-4.5
41063916437,20.25,-7.8125,-9.375
41063938923,23.625,-7.75,-11.125
41063955381,22.6875,-4.625,-14.4375
41063977914,12.375,-4.75,-15.375
41063998921,-6.5625,-1.5,-13.8125
41064015379,-12.4375,-3.0625,-14.875
41064037900,-7.25,-7,-18.6875
41064058947,1.4375,-4.1875,-24.8125
41064075439,2.5625,1.9375,-30.4375
41064097894,-5.1875,8.75,-30.5
41064118881,-15.25,12,-29.125
41064135392,-22.75,12.625,-34
41064157901,-21.1875,13.3125,-41.375
41064187111,-17.875,14.8125,-45.0625
41064195371,-20.9375,17.9375,-44.625
41064217852,-25.3125,21.875,-47.0625
41064238936,-25.625,24.3125,-53.3125
41064255412,-30.4375,27.5625,-57.6875
41064277852,-39.3125,32.8125,-60.1875
41064298952,-48.375,40.125,-64.6875
41064315353,-53.6875,46.8125,-70.1875
41064337850,-56.3125,53,-75.0625
41064358927,-60.0625,59.375,-77.375
41064375375,-73.25,69.9375,-81.0625
41064397876,-91,84.3125,-86.0625
41064418903,-105.25,95.75,-91.3125
41064435388,-103.75,100.125,-95.25
41064457843,-92.375,103.188,-97.5
41064478949,-92.4375,110,-101.625
41064495343,-96.9375,113.688,-109.375
41064517046,-92.1875,112.688,-113.938
41064539632,-85.8125,114.562,-116.125
41064554601,-85.8125,117.875,-115.562
41064577082,-86.3125,119.5,-113.875
41064599611,-81.0625,118.062,-112.75
41064614616,-72.6875,114.438,-109.438
41064637106,-68.625,110.562,-104.25
41064659591,-66.625,104.625,-99.1875
41064674612,-63.25,98.375,-94.1875
41064697089,-53.25,92.8125,-88.0625
41064719617,-43.25,86.375,-83.125
41064734604,-38.8125,78.0625,-77.9375
41064757081,-39.875,70.875,-73.25
41064779597,-38.75,63.1875,-68.5625
41064794597,-34.9375,54.8125,-63.5625
41064817114,-30.375,46.5625,-56.375
41064839565,-31.1875,40.875,-50.375
41064854613,-32.625,36.4375,-46.1875
41064877101,-28.5,31.3125,-43.9375
41064899588,-21.8125,25.8125,-40.0625
41064914626,-20.8125,22.3125,-35.875
41064937104,-22.9375,19.6875,-35.625
41064959582,-19.0625,13.8125,-33
41064974562,-17.25,8.6875,-25.9375
41064997076,-16.3125,3.75,-18.9375
41065019637,-19.0625,0.5625,-14.875
41065034576,-18,-2.1875,-11.0625
41065057155,-7.625,-6.375,-4.4375
41065079653,0.25,-10.8125,1.625
41065094634,0.5625,-12.9375,6.0625
41065117132,-0.25,-12.5,9.25
41065132887,4.625,-12.8125,13.25
41065156089,11.625,-13.875,17.125
41065177227,12.75,-13.1875,20.375
41065199712,14.25,-12.625,22.75
41065216091,18.4375,-14.75,24.8125
41065237195,20.5625,-17.4375,27.625
41065259683,19.625,-19.4375,29
41065276113,20.5625,-21.8125,28.4375
41065297177,20.1875,-24.875,29.4375
41065319697,20.4375,-28.875,31.5625
41065336095,21.0625,-33.25,32.9375
41065357209,20.0625,-35.9375,33.25
41065379670,21,-37.1875,33.25
41065396061,24.6875,-39.3125,35.5
41065417147,24.75,-40.9375,38.8125
41065439710,25.25,-44.3125,39.875
41065456024,30.3125,-48.1875,43.3125
41065477064,36.25,-49.6875,46.8125
41065499598,44.625,-49.1875,50.25
41065523526,52.625,-47.875,55
41065537090,49,-45.8125,57.9375
41065559616,44.1875,-47.125,59.8125
41065576014,45.125,-48.75,60.5625
41065597080,59.5625,-51.6875,62.9375
41065619381,65.5,-50.0625,68.5
41065636030,61.8125,-47.3125,71.4375
41065657199,60.125,-47.0625,73.125
41065679715,64.1875,-50.8125,74
41065696118,61.625,-53.0625,71.625
41065717183,56.75,-53.4375,69.625
41065739644,57.0625,-55.875,68.5625
41065755423,60.6875,-57.4375,70.5
41065777212,57.5625,-57.8125,72.0625
41065799678,57.0625,-60.6875,71.3125
41065816116,57.5625,-60.1875,70.3125
41065837214,55.75,-56.5,71.25
41065859722,53,-52.375,73.4375
41065875503,51.875,-52.1875,75.5
41065897119,49,-52.9375,74.25
41065919673,48.875,-56.4375,71.875
41065935487,65.3125,-60.125,70.0625
41065957177,81.875,-54.9375,71.6875
41065979677,76.0625,-47.125,78.625
41065995435,54.4375,-40.4375,83.6875
41066017156,36.1875,-38.8125,85.25
41066039683,32.25,-36.6875,84
41066055425,30.6875,-36.125,83.125
41066078587,37.9375,-40.9375,78.3125
41066099769,44.9375,-44.125,77
41066115431,48.125,-40.3125,73.125
41066138623,43.25,-33.5,68.5625
41066167205,25.5625,-24.3125,67
41066175461,0.75,-24,61.4375
41066198576,0.4375,-25.3125,52.4375
41066219663,20.3125,-21.5625,42.5625
41066235529,42.9375,-20.625,35.375
41066258594,53.625,-22.125,28.5
41066279623,40.875,-20.4375,22.375
41066295530,22.125,-17.625,14.625
41066318677,15.5625,-14.375,11.625
41066339704,14.8125,-13,12.8125
41066355442,12.625,-12.25,15.1875
41066378681,-9.0625,-15.6875,15.5625
41066399620,-14.75,-21.5,16.6875
41066415489,-1,-23.5,21
41066438609,14.8125,-22.9375,21.25
41066459691,14,-24.5625,18.0625
41066475454,0.1875,-22.6875,16.375
41066498675,-12.5625,-18.0625,14.875
41066519711,-21.9375,-12.0625,11.4375
41066543684,-28.375,-7.875,7.1875
41066558654,-28.4375,-3.5625,4.125
41066579766,-22.375,-1.5,3.25
41066595547,-9.125,-1.875,3.625
41066618620,-3.0625,-3.0625,4.1875
41066639686,-7,-4.125,4.125
41066655447,-11.625,-3.4375,3.625
41066678564,-10.5,-3.25,3.4375
41066699658,-6.875,-2.6875,3.0625
41066715462,-4.625,-2.1875,2.25
41066738640,-2.625,-1.875,1.4375
41066759752,-2.4375,-1.25,0.625
41066775499,-2.75,-0.25,0.5
41066798654,-1.8125,0.6875,0.625
41066819631,-1.75,1.125,0.3125
41066835536,-1.375,1.1875,-0.0625
41066858042,-0.375,1.125,-0.375
41066879700,0,1.375,-0.1875
41066895495,0.125,1.875,0.1875
41066917943,0.5625,1.6875,0.3125
41066939738,0.0625,1.8125,1.3125
41066955575,-1.4375,2,2.1875
41066977942,-1.75,1.75,2.25
41067001195,-0.9375,1.375,1.3125
41067015459,1.375,0.1875,0.5
41067037989,3.625,-0.6875,0.5
41067061226,1.375,-0.4375,1.25
41067075460,-0.875,0.5625,1.1875
41067097998,-1.875,0.75,0.375
41067121152,-1.375,0.625,-0.25
41067135420,-1.25,0.4375,-0.5
41067157954,-0.125,0.375,-0.3125
41067181112,1.3125,0.5625,-0.375
41067195546,4.25,0.0625,-1.0625
41067218015,5.125,0.6875,-1
41067241187,2.6875,1.125,-0.875
41067255519,0.1875,1.4375,-2
41067277969,-0.625,0.9375,-3.25
41067301126,-1,0.6875,-4.5
41067315500,-1.3125,0.3125,-3.875
41067338014,0.5,0.375,-1.8125
41067361163,3.5625,0.4375,-0.75
41067375523,7.1875,-0.0625,-1.4375
41067397993,6.9375,1,-2.4375
41067421127,3.75,1.75,-2.375
41067435494,2.3125,2.875,-2.0625
41067466211,2.8125,3.875,-2.125
41067481105,5,3.5625,-2.9375
41067502176,6.625,2.9375,-3.1875
41067518007,8,1.125,-2.3125
41067541207,6.25,0.8125,-1.375
41067562220,4.0625,1.4375,-1.0625
41067578014,4.9375,2,-1.9375
41067601128,5.625,2,-2.375
41067622209,4.375,1.625,-1.5625
41067637941,3.875,1,-0.875
41067661144,3.9375,0.875,-1.0625
41067682172,4,1.1875,-1.0625
41067697979,2.875,1.9375,-0.875
41067721165,1.625,2.1875,-0.375
41067742244,2.4375,2,-0.0625
41067757955,4.125,1.5625,-0.125
41067780489,5.5625,1.1875,-0.1875
41067802239,7.0625,0.6875,-0.0625
41067818005,6.5,1.0625,0.1875
41067840486,4.5,1.75,0.5
41067862122,3,1.8125,-0.5
41067877973,1.3125,1.0625,-1.25
41067900545,0.625,0.625,-1.4375
41067922262,1.4375,0.3125,-1.1875
41067938009,4.6875,-0.375,-0.5625
41067960462,6.625,0.125,-0.4375
41067983563,7.6875,1,-0.875
41067997921,8.5,0.75,-0.625
41068020419,8.25,0.6875,-0.0625
41068043561,8.375,0.1875,-0.4375
41068057970,7.3125,0.3125,-1.4375
41068080446,5.4375,0.0625,-1.1875
41068103623,5.1875,-0.5,-0.5625
41068117984,5.1875,-1.75,-0.5
41068140424,5,-1.5625,-1.125
41068163699,6.375,-1.25,-2
41068177945,7.25,-0.1875,-1.4375
41068191491,7.5,0.6875,-0.5
41068214041,6.4375,0.0625,-0.0625
41068237227,4.1875,0.0625,0.375
41068251595,0.5625,0.1875,-0.0625
41068274041,-2.0625,-0.1875,-1.375
41068297276,-1.4375,-0.375,-2.125
41068311624,1.6875,-1,-1.4375
41068334108,7.0625,-3.5625,-0.0625
41068357316,3.4375,-0.6875,0.8125
41068371523,2.4375,1.1875,-1.3125
41068394128,5.625,1.8125,-2.125
41068417165,9.1875,2.6875,-0.75
41068431465,11.4375,2.0625,0.25
41068454092,11.625,2.25,0.875
41068477237,9.375,2,0.875
41068491570,1.875,0.8125,-0.25
41068514051,-1.5625,0.625,-1.25
41068537266,-2.375,0.6875,-1.4375
41068551605,-2.3125,-0.1875,-1.6875
41068574016,-0.75,-2.1875,-1.875
41068597210,-1.125,-3.5,-1.9375
41068611613,-2.875,-2.8125,-4.0625
41068634126,-2.5625,-2.125,-6.4375
41068657211,-0.625,-2.625,-6.75
41068671602,-0.3125,-2.4375,-5.75
41068694081,-5,-2.0625,-5.625
41068717237,-12.3125,-1.625,-5.5625
41068731609,-14.25,-2.75,-4.75
41068754092,-9.25,-1.375,-3.5
41068777189,1.9375,0.375,-4.375
41068791581,9.875,2.6875,-6
41068813981,11.0625,4.25,-6.75
41068837205,14.1875,2.125,-7
41068859759,22.75,-0.375,-9.25
41068874071,28.375,-2.625,-13.1875
41068896575,30.5,-4.5625,-17.375
41068919732,32,-3.875,-18.5625
41068934122,31.6875,-2.75,-16.375
41068956603,20.6875,-1.875,-13.625
41068979759,-0.375,-0.6875,-9.625
41068994148,-15.6875,-0.625,-5.25
41069016593,-18,-4.5,-0.625
41069039735,-14.4375,-7.875,2.625
41069054107,-10.5625,-9,3.75
41069076540,-11.4375,-8,4.375
41069091502,-13.125,-6.125,4.5625
41069114080,-14.9375,-3.4375,3.125
41069136625,-15.4375,-2.9375,0
41069151630,-14.125,-2.875,-1.5625
41069174142,-10.4375,-2.9375,-1.5625
41069196596,-8.3125,-3.1875,-1.875
41069211619,-9.125,-2.8125,-2
41069234043,-15.1875,-2.625,-1.75
41069256597,-20.4375,-2.25,-2.0625
41069279716,-22.25,-3.1875,-2.3125
41069294139,-25.5,-4.625,-0.4375
41069316628,-25.1875,-7,-3.0625
41069339798,-25.375,-10.8125,-5.5625
41069354057,-37.6875,-12.6875,-4.4375
41069376658,-62.9375,-13.5625,-3.75
41069399774,-79.625,-15.625,-7.4375
41069414079,-88.875,-19.9375,-9.9375
41069436571,-91.5,-23.5625,-9.125
41069459741,-97.5,-25.6875,-6.75
41069474001,-99.625,-28.875,-9.5625
41069496633,-89.1875,-34.5,-13.625
41069519780,-72,-41.375,-16.4375
41069534131,-61.75,-48.6875,-19.6875
41069556621,-63,-54.1875,-23.375
41069579807,-88.9375,-51.4375,-25.4375
41069594139,-112.688,-46.5625,-28
41069616689,-113,-47.8125,-34.8125
41069639759,-95.375,-52.875,-38.75
41069654180,-82,-55,-36.8125
41069676593,-73.8125,-56.5,-35.3125
41069699777,-69.4375,-59.625,-32.9375
41069714123,-67.6875,-63.625,-27.5625
41069736640,-67.8125,-64.375,-21.0625
41069759767,-58.0625,-62.625,-15.1875
41069774037,-50.375,-58.3125,-12.5
41069796566,-47.5,-49.8125,-12.5
41069819071,-43,-40.4375,-12.25
41069835576,-39.75,-29.9375,-9.375
41069856540,-36.375,-23.8125,-8.0625
41069879202,-33.3125,-21.5,-9.4375
41069894083,-32.125,-21.0625,-10.625
41069916655,-32.6875,-21.3125,-8.75
41069939136,-31.875,-21.25,-6.9375
41069954059,-29.5625,-20.9375,-6
41069976613,-24.0625,-22.5,-5.5625
41069999137,-25.625,-22.6875,-5.6875
41070014013,-28.625,-20.5625,-5.5625
41070036597,-25.125,-17.3125,-4.5
41070059144,-18.5,-13.4375,-4.0625
41070074058,-15.4375,-9.75,-4.0625
41070096613,-7.625,-6.75,-1.8125
41070119114,0,-3.5,1.8125
41070134068,2.4375,-1.25,3.375
41070156540,4.25,-1.625,4.25
41070179107,3.5,-0.5625,5.5625
41070194136,4.625,1.4375,6.125
41070216611,5.5,2.1875,5.5
41070233058,4.3125,0.9375,4.3125
41070254117,0.375,0.25,3.6875
41070276654,0,0.5625,3
41070292999,5.5,0.5625,2.4375
41070314042,8.75,0.375,2.6875
41070336587,3.25,0.25,2.6875
41070353013,-4.6875,0,1.875
41070374153,-4.6875,-0.4375,1.375
41070396630,0.9375,-1.0625,1.25
41070413036,6.25,-1.3125,2
41070434084,5.6875,-0.125,2.9375
41070456682,1.875,1.1875,2.9375
41070472979,-2.1875,0.5625,1.75
41070494163,-3.6875,-1,0.3125
41070516630,-2.75,-1.5625,0.5
41070533024,2.375,-1.3125,0.625
41070554094,5.5,-0.8125,0.6875
41070576658,3.1875,-0.1875,0.1875
41070593084,-1,-0.1875,-0.0625
41070622261,-2,-0.25,0.375
41070636595,0.4375,0,0.25
41070653014,3.75,0.6875,0.5625
41070675570,3.9375,1.125,0.25
41070696619,2.8125,0.9375,0.6875
41070713082,0.125,0.6875,1.125
41070735562,-1.0625,0.5625,0.875
41070756638,0.8125,0.0625,0.125
41070773105,2.375,-0.5,-0.375
41070795587,1.4375,-0.8125,0.0625
41070816632,0.375,-0.625,0.8125
41070833106,3.125,-0.4375,1.0625
41070855570,5.375,0.0625,0.875
41070876614,3.25,-0.0625,0.3125
41070900531,-0.875,0.0625,0
41070915555,-0.875,0.25,0.375
41070936629,2.1875,0.3125,0.75
41070953056,3.8125,0.125,0.8125
41070975595,2.4375,-0.3125,0.5625
41070996592,0,-0.3125,0.1875
41071013148,-0.1875,-0.125,-0.0625
41071035558,0.5625,-0.25,-0.6875
41071056631,1.3125,-0.75,-0.5
41071073070,0.5,-0.5,-0.1875
41071095504,-0.75,-0.375,0.125
41071116591,-0.1875,-0.5,0.0625
41071133010,-0.1875,-0.5,-0.1875
41071155612,0.3125,-0.625,-0.125
41071176721,1.5625,-0.6875,0.3125
41071193095,0.4375,-0.375,0.375
41071215522,0.4375,-0.0625,0.1875
41071236667,1.4375,-0.25,0
41071253054,0.6875,-0.1875,-0.0625
41071275671,-0.8125,-0.125,0
41071296663,0.3125,-0.0625,-0.1875
41071313062,2.0625,-0.125,0.125
41071335540,1.3125,0.0625,-0.3125
41071359444,-0.5625,-0.1875,-0.3125
41071372991,-2.3125,-0.4375,-0.0625
41071395470,0,-0.375,0
41071416506,2.9375,-0.25,0.3125
41071432985,2.8125,-0.0625,0.3125
41071455500,0.4375,0.375,0.3125
41071476572,-0.6875,0.3125,-0.125
41071492979,1.0625,0.0625,-0.3125
41071515468,2.4375,0,-0.1875
41071536621,2.0625,0.125,0
41071553005,0.125,0.3125,0.4375
41071575552,-0.75,0.1875,0.25
41071598002,0.1875,-0.25,-0.3125
41071613072,0.625,-0.5625,-0.1875
41071635645,0.5625,-0.5,0
41071658092,0.75,-0.3125,0.0625
41071673127,0.125,-0.125,-0.0625
41071695643,-0.8125,-0.0625,-0.375
41071718063,-0.8125,-0.6875,-0.3125
41071734511,-2.0625,-0.75,-0.1875
41071755524,-0.4375,-0.5625,0.1875
41071778089,1.4375,-0.0625,0.25
41071794551,1.125,-0.0625,-0.0625
41071815563,-0.5625,0.125,-0.25
41071838091,-1.5,0,-0.125
41071854523,-1.0625,0,0.0625
41071875613,0.5625,-0.125,-0.125
41071897318,1.125,-0.0625,0.125
41071913191,-0.375,-0.125,0.0625
41071934765,-1.625,-0.4375,-0.3125
41071957289,-0.25,-0.875,0.1875
41071973070,1.5625,-1.125,0.4375
41071994762,2.3125,-0.625,0.8125
41072017309,3.25,-0.4375,0.9375
41072033100,3.625,-0.0625,0.75
41072054910,2.6875,0,0.25
41072077357,2.0625,-0.6875,-0.4375
41072093120,-0.625,-0.6875,0
41072114813,-1.6875,-0.3125,0.125
41072137313,0.75,-0.1875,0
41072159852,1.8125,-0.4375,-0.5
41072174858,-0.25,-0.75,-0.4375
41072197322,-0.75,-0.625,-0.25
41072213109,0.1875,-0.125,0
41072234817,1.75,0.6875,0.125
41072257218,2.125,1,-0.375
41072281041,1.1875,1,-0.375
41072294774,0,0.8125,-0.375
41072317290,0.1875,0.5,0.25
41072333125,1.1875,0.5625,0.375
41072354820,1.6875,0.625,0.0625
41072377330,0.6875,0.4375,0.125
41072393117,0,0.5,0.25
41072414829,0.5,0.5,0.3125
41072437341,1.4375,0.6875,0.125
41072453059,1.0625,0.75,-0.25
41072474881,-0.3125,0.6875,-0.75
41072497742,-0.6875,0.8125,-0.9375
41072513092,-1,0.6875,-1.3125
41072534843,-0.8125,0.125,-0.6875
41072557325,0.5,0.0625,-0.375
41072573086,1.75,-0.25,-0.0625
41072594824,0.5625,-0.1875,0
41072617373,-0.875,0,-0.1875
41072633200,-0.6875,-0.1875,0
41072654822,0,-0.125,-0.1875
41072677370,0.3125,-0.25,-0.125
41072693116,0.1875,-0.125,0.0625
41072716269,-0.5625,0.0625,0.5
41072737359,0.1875,-0.125,0.5625
41072753100,1,-0.0625,0.1875
41072776250,0.5625,0,-0.0625
41072797264,-0.5,0.1875,0
41072813129,-0.875,0.125,0
41072836290,0.625,-0.0625,0.125
41072857288,1.0625,-0.125,0.0625
41072873148,0.125,-0.3125,-0.0625
41072896278,0.375,-0.6875,1.125
41072917353,0.75,-0.8125,0.875
41072933131,0.125,-0.5625,-0.0625
41072956216,1.8125,-0.0625,0.8125
41072977291,3,0,0.75
41072993111,1.6875,0.625,1.3125
41073016275,2.25,0.8125,1.125
41073037420,3.25,0.375,1.0625
41073053095,4.0625,0.0625,1.0625
41073076275,1.6875,-0.4375,0.9375
41073097309,-2.0625,-0.3125,0.3125
41073113104,-1.125,-0.1875,0.125
41073136256,1.8125,-0.0625,0.1875
41073157385,2.625,0.1875,0.625
41073173177,2.25,0.5,0.625
41073196285,1.1875,1.125,-0.125
41073217360,-0.375,2.375,-1.1875
41073233114,-2.125,3.25,-2.8125
41073256273,-4.0625,2.0625,-2.75
41073277399,-0.8125,-1.1875,-0.9375
41073293095,2.875,-1.875,0.625
41073316225,-2.0625,-1,-0.5625
41073338719,-2.875,-0.3125,0.1875
41073353132,-0.1875,-0.4375,0.25
41073376265,0.75,-0.8125,0.25
41073397351,2.375,-0.1875,0.5
41073413096,0.5,0.6875,-0.1875
41073436288,-0.9375,0.6875,-0.8125
41073457331,-0.9375,0.3125,-0.4375
41073473093,-0.25,-0.375,-0.0625
41073495620,1.5,-0.8125,0.4375
41073518845,0.9375,-0.3125,0.6875
41073533119,-0.9375,0.0625,0.1875
41073555628,-1,0.0625,0
41073577335,-0.5,-0.0625,-0.1875
41073593092,-0.0625,-0.3125,-0.1875
41073615571,-0.4375,-0.625,0
41073638733,-0.6875,-0.75,-0.0625
41073653062,-0.1875,-0.6875,-0.375
41073675666,-0.0625,-0.8125,-0.5625
41073698805,-0.875,-0.75,-0.375
41073713606,-1.3125,-0.3125,-0.375
41073735614,-0.3125,-0.3125,-0.25
41073758733,-1.6875,-0.1875,-0.3125
41073773096,-2.125,-0.375,-0.25
41073795637,-1.25,-0.5,0.0625
41073818822,-0.3125,-0.625,-0.25
41073833118,-0.375,-0.5,-0.0625
41073855618,-0.5,-0.375,-0.0625
41073878770,0.0625,-0.375,0.0625
41073893100,0.0625,-0.375,-0.1875
41073915690,0.0625,-0.5625,-0.125
41073938852,0.1875,-0.625,-0.1875
41073959855,-0.625,-0.6875,-0.125
41073975605,-0.1875,-0.6875,0.0625
41073998829,-0.5625,-0.5625,-0.25
41074013031,-0.75,-0.875,-0.3125
41074035629,-0.4375,-0.9375,0.125
41074058861,0.1875,-1.0625,0.1875
41074073134,0.3125,-0.6875,0.3125
41074095636,-0.1875,-0.375,0.0625
41074118858,0.1875,-0.4375,-0.0625
41074139871,0.8125,0.125,-0.125
41074155660,0.25,0.3125,-0.375
41074178731,-1.4375,0.1875,-0.375
41074199909,-0.75,-0.0625,-0.375
41074223881,1,-0.3125,0
41074238762,0.75,0,0.4375
41074259847,0.1875,0.375,0.25
41074275665,0.3125,0.125,-0.1875
41074298802,-0.75,-0.1875,-0.25
41074319883,-1.25,-0.4375,-0.1875
41074335654,-0.8125,-0.5625,0
41074358811,0.125,-0.5,0.0625
41074379862,-0.0625,-0.1875,-0.125
41074395624,-0.5,-0.4375,-0.3125
41074418106,-1.4375,-0.125,-0.25
41074439920,-0.75,0.0625,-0.375
41074455623,0.0625,-0.0625,-0.25
41074478123,0.625,-0.3125,-0.25
41074499892,0.1875,-0.25,0.4375
41074515662,-0.6875,0.125,0.4375
41074538112,-0.0625,0.1875,0.0625
41074559880,0.9375,0.25,-0.375
41074575632,0.8125,0.1875,-0.1875
41074598151,0.125,0.0625,0.0625
41074621227,-0.375,-0.0625,0.1875
41074642388,-0.0625,-0.3125,-0.0625
41074658185,0.375,-1.125,0.0625
41074681405,-2.0625,-1.9375,0.625
41074695623,-3,-0.8125,1.375
41074718130,-0.625,0.125,1
41074741309,4.9375,0,1.5
41074755638,5.5625,0.4375,1.625
41074786316,1.125,0.3125,1.25
41074801290,-2.125,0.4375,0.0625
41074815669,-2.25,0.1875,-0.25
41074838179,-0.3125,0.25,-0.125
41074861307,1.1875,0.625,0
41074875708,-0.4375,1.1875,-0.4375
41074898242,-0.8125,1.875,-1.25
41074921339,-0.25,1.75,-1.4375
41074935653,-1.0625,0.9375,-1.9375
41074958173,0.25,-0.25,-0.9375
41074981278,3.125,-2.4375,-0.1875
41074995728,-3.1875,-0.875,0.0625
41075018114,-3.625,0,-0.8125
41075041338,1,0,0
41075062352,2.125,0.3125,-0.125
41075078137,1,0.3125,0.4375
41075101210,-0.4375,0.375,0.625
41075122391,-1.4375,0.375,0
41075146775,1.0625,-0.0625,-0.3125
41075161293,1,-0.4375,-0.0625
41075182382,-1.75,-0.375,0.125
41075198209,-2.25,-0.625,-0.0625
41075221258,-0.125,-0.875,-0.0625
41075242338,1.375,-0.625,0.125
41075258159,1.5,-0.1875,0.4375
41075288841,0.5,0.625,0.625
41075303732,-0.0625,1.125,0.3125
41075318080,-1.0625,1.1875,-0.25
41075340707,-0.375,0.8125,-0.25
41075362359,1.9375,0.6875,0.25
41075378111,3.5,0.875,0.5
41075400667,3.3125,1.1875,0
41075422486,1.8125,1.0625,-0.75
41075438170,-0.5625,1.0625,-1.125
41075460609,1,0.25,-0.4375
41075482492,0.9375,0.4375,0.0625
41075498134,0.6875,0.625,0.4375
41075520642,2.75,0.375,1.3125
41075543762,2.1875,-0.5,0.6875
41075558175,-0.8125,-0.8125,0.1875
41075580666,-2.0625,-0.5625,0.1875
41075594283,-0.625,-0.1875,-0.25
41075617493,2.25,0.375,-0.875
41075631680,2.875,1.125,-0.4375
41075654212,0.5625,2,-0.6875
41075677400,0.625,2.0625,-0.5
41075693222,1.875,2.125,-0.375
41075714185,2.875,2,0.0625
41075737468,3.4375,1.5625,0.5
41075751679,2.5625,0.875,1.0625
41075774196,0.3125,0.5,1.0625
41075797356,-0.125,-0.4375,0.0625
41075811677,0.9375,-1.1875,-0.375
41075834256,1.5,-1.3125,-0.25
41075857394,-0.1875,-0.8125,0.4375
41075871705,-2.0625,-0.25,0.75
41075894237,-1.3125,-0.1875,0.0625
41075917843,0.25,-0.1875,0.1875
41075931729,-0.25,0.0625,0.9375
41075954242,-1.6875,0.6875,1.8125
41075977454,-1.6875,0.75,2
41075991776,0,0.6875,1.625
41076014255,1.75,0.3125,0.875
41076037513,0.8125,0.0625,0.375
41076051766,-0.4375,-0.1875,0.25
41076074182,-1,-0.875,0.125
41076097405,-0.5,-1.75,0
41076111711,0.0625,-2.4375,0.625
41076134185,0.125,-2.5,1.1875
41076157301,-0.0625,-2.25,0.8125
41076171682,0.3125,-2.25,0
41076194157,0.1875,-1.8125,0.0625
41076217369,-0.8125,-1.375,0
41076231696,-0.5625,-0.75,-0.4375
41076254213,0.3125,-0.25,-1.1875
41076277445,0.625,0.375,-1.3125
41076291747,1,0.9375,-1.25
41076314231,-0.0625,1.6875,-0.375
41076336643,0.0625,2.375,0.125
41076351703,1.875,2.75,0.5625
41076374206,3.1875,2.6875,0.375
41076397490,2.8125,2.0625,0.0625
41076411763,1.5625,1.25,0.0625
41076434129,0.25,0.6875,0.375
41076456781,0.25,0.3125,-0.0625
41076471685,-0.1875,-0.875,-0.25
41076495644,-1,-1.625,-0.625
41076516690,-0.9375,-1.9375,0
41076531695,-0.375,-1.6875,0.3125
41076554192,0,-1.5625,0.5625
41076576752,-1.25,-1.5625,0.25
41076591704,-3.75,-1.75,0
41076614243,-5.4375,-1.75,0
41076636795,-3.625,-1.0625,0.25
41076651796,-0.1875,0.1875,0.375
41076674167,1.375,0.8125,0.3125
41076696779,1.125,0.9375,-0.125
41076711736,-0.5,0.9375,-0.0625
41076734257,-1.375,0.625,-0.3125
41076756769,-0.625,0,-0.375
41076771763,0.6875,-0.625,-0.0625
41076794127,1,-0.9375,0.5
41076816735,-0.3125,-1.1875,1
41076831785,-2.25,-1.5,0.9375
41076854228,-3.625,-2,1.1875
41076876752,-0.9375,-1.9375,1.875
41076891762,1.0625,-2,1.625
41076914222,0.125,-1.5625,1.0625
41076936791,-2.625,-1.0625,1.0625
41076951705,-2.375,-0.5625,0.375
41076974288,1.0625,-0.4375,-0.5
41076996780,2.9375,-0.8125,-1.5
41077011682,1.0625,-1.0625,-1.8125
41077034249,-1.125,-1.3125,-1.625
41077056783,0.0625,-1.0625,-1.9375
41077071750,1,-0.4375,-1.6875
41077094258,1.25,0.0625,-1.0625
41077116707,1.125,0.0625,-0.5
41077131761,1.0625,-0.3125,0.625
41077154281,0.1875,0.125,-0.375
41077176781,-1.1875,-0.3125,-0.1875
41077191720,-1.75,-0.625,0.0625
41077214232,-1.25,-0.875,0.0625
41077236758,0.125,-0.6875,-0.125
41077253162,1.3125,0.0625,-0.3125
41077274205,0.6875,0.4375,-0.0625
41077296778,-0.0625,0.5,-0.0625
41077313143,-0.8125,0.625,0
41077334261,0,0.9375,-0.1875
41077356762,2.125,1.25,-0.0625
41077373120,2.3125,1.375,0
41077394269,1.25,1,0.375
41077416807,-0.5,0.5625,0.25
41077433184,-1.125,-0.0625,0.375
41077454285,0,-0.4375,0.1875
41077476674,1.0625,-0.75,0.1875
