myot,x,y,z
450648226698,-29,-21.375,-28.25
450648241723,-6.5625,-55.625,-36.1875
450648256731,18.0625,-72.625,-34
450648279181,-3.1875,-45.75,-37.3125
450648294216,-35.6875,-10.125,-25.5625
450648316721,-30.75,6.8125,2.375
450648339220,-26.375,15,19.375
450648354207,-16.5625,4.75,23.125
450648376684,11.5,-7.6875,18.875
450648399232,23.125,-22.625,13
450648414206,21.3125,-36.5,11.875
450648438005,22.8125,-48.0625,21.875
450648459242,19.25,-66.4375,29.625
450648474266,25.3125,-78.375,26.875
450648496764,41.8125,-76.1875,20.625
450648511771,84.875,-64.625,30.5625
450648534330,110.062,-48.875,36.0625
450648556761,112.062,-32.8125,33.8125
450648579302,139.75,-14,41.875
450648594239,174,3.3125,62.25
450648616778,199.438,9.9375,81.6875
450648639274,166.625,16,78.1875
450648654239,167.375,17.4375,78.875
450648676677,191.188,11.1875,90.375
450648699271,174.625,-18.1875,93.375
450648714273,137.438,-6.4375,101.375
450648736744,-35.3125,92.125,22.375
450648759275,-164.062,108.375,-85.9375
450648774271,-216.188,121.688,-177.875
450648796738,-377,-34.4375,-296.75
450648819328,-432.938,-74.3125,-293.938
450648834295,-246.188,-42.5625,-149.062
450648856782,-70.4375,6.9375,-26.0625
450648879217,-67.625,13.0625,45.1875
450648894214,-58.1875,-46.375,92.4375
450648916834,68.625,-45.3125,105.188
450648939269,-2.5625,-138.875,52.375
450648954266,-40.625,-222.875,-10.4375
450648976739,16.4375,-184.312,-1.375
450648999262,29.4375,-157.938,-5.625
450649014318,36.25,-106.375,9.25
450649036795,53.0625,-11.75,16.75
450649059332,-16.1875,18.5625,3.25
450649074339,-20.8125,48,4.9375
450649096812,19.8125,66.25,15.1875
450649119351,4.5,50.625,21.5
450649134333,-21.25,23.375,7.5625
450649156768,-35.6875,14.5625,-10
450649179378,-20.5,3.4375,-7.625
450649194302,-7.4375,-13,2.75
450649216774,-9.25,-3.4375,16.3125
450649239303,13.1875,-0.125,21.5
450649261792,44.4375,1.5,20.75
450649284280,41.0625,11.125,3.3125
450649299286,31.25,17.6875,-7.75
450649314264,35.3125,10,-9.375
450649336770,44.3125,4.0625,-1.25
450649351810,37.75,-21,7.5625
450649374338,25.375,-26.5,21.4375
450649404308,4.5,-21.8125,27.375
450649411801,-15.6875,-29.4375,20.8125
450649434282,-24.5,-35.875,10.875
450649456769,-33.0625,-26.3125,-0.875
450649479257,-48.375,-1.375,-8.8125
450649494273,-48.1875,18.625,-3.9375
450649516790,-27.25,46.5,0.125
450649531808,-7.8125,71.3125,1.75
450649554239,-1.3125,67.125,7.75
450649576765,20.75,56.125,2.25
450649591791,60,33.625,11.125
450649614338,57.8125,11.375,21.1875
450649636857,41.25,-25.4375,29.3125
450649651831,22.875,-54.375,32.4375
450649674303,-9.75,-70.3125,26.1875
450649696821,-32.5,-53.375,10.5625
450649711728,-22.375,-28.8125,0.75
450649734260,-12.6875,-8.5625,-12.5
450649756860,-19.1875,10.3125,-22.8125
450649779290,-17.6875,30.6875,-24.4375
450649794317,-4.5,40.125,-15.6875
450649816826,2.875,39.1875,-6.3125
450649831787,0.6875,35.4375,0.5
450649854292,-1.375,14.8125,3.875
450649876847,5.0625,-9.25,8.0625
450649891794,7.0625,-25.8125,9.1875
450649914258,2.4375,-39.375,3.25
450649936818,-5.25,-50.3125,-5.625
450649952199,-10.625,-42.875,-10.0625
450649974313,-11.75,-17.375,-9.5625
450649996818,-15.9375,21.4375,-8.6875
450650011868,-23.8125,64.125,-7.5
450650034294,-26.125,76.0625,-10.25
450650056837,-31.125,78.6875,-15.6875
450650079289,-33.375,41.0625,-19.8125
450650094286,-29.125,20.375,-17.75
450650116815,-17.625,-15.5625,-10.4375
450650131845,-3.5,-33.8125,2.75
450650154291,8.375,-52.6875,7.8125
450650184344,15.375,-58.8125,9.75
450650191733,13.3125,-50.25,6.625
450650214259,10.875,-20.875,5.9375
450650236810,7.8125,15.875,4.4375
450650251835,4.5,33.125,-0.875
450650274285,1.3125,35.9375,-2.4375
450650296800,0.6875,39.25,-4.3125
450650311779,0.8125,26.5625,-4.9375
450650334282,0.5,13.5,-6.8125
450650356734,19.0625,-2.1875,-2.4375
450650379332,33.375,-16.6875,0.75
450650394351,36.1875,-27.8125,6.625
450650424322,39.25,-32.5625,10
450650431761,30.5,-23.875,12.875
450650454287,36.4375,-26.8125,15.5
450650476790,50.625,-9.3125,21.5625
450650491824,38.125,5.6875,18.6875
450650514397,18.3125,19.0625,8.8125
450650536825,11.375,34.6875,0.8125
450650551793,-6.1875,45.75,-9.4375
450650574358,-15.125,38.125,-8.375
450650596816,-5.4375,46.4375,-6.125
450650611812,-1.4375,33.1875,-4.25
450650634378,-11.3125,11.4375,-3.875
450650664296,-20.0625,0.875,-4.5
450650679372,-25,-6.4375,-4.125
450650694334,-30.5,-21,-9.1875
450650717298,-36.4375,-22.625,-17.875
450650731826,-41.5625,-15.1875,-22.9375
450650754337,-51.625,-14.0625,-28.875
450650776745,-56.75,-8.125,-30.625
450650791837,-44.5,7.5625,-22.25
450650814307,-24.25,18.9375,-9.9375
450650844249,-10.1875,21.0625,-0.4375
450650851733,-3.25,20.6875,3.625
450650874296,1.125,15.25,5.25
450650896793,3.125,5.3125,4.1875
450650911861,2.6875,0.125,2.4375
450650934318,4.75,2.75,3.0625
450650956794,0,-8.625,-0.75
450650979359,-14.3125,-17.1875,-7.625
450650994399,-22.6875,-26.1875,-12.9375
450651016824,-32.125,-32.0625,-15.375
450651031827,-38,-21.5,-12.1875
450651054480,-30.4375,-8.625,-6.5625
450651076852,-28.3125,-6.6875,-10.8125
450651091811,-24.1875,-17.3125,-14.6875
450651114321,-6.25,-18.375,-13.3125
450651136852,7.75,-18.625,-5
450651151850,13,-21.125,3.5
450651174289,11.75,-26.0625,8.75
450651196848,17.3125,-19.4375,12.4375
450651211814,23.875,-6.3125,12.9375
450651234322,20.125,11.6875,6.875
450651256875,13.8125,21.125,-0.8125
450651271883,8.3125,24.0625,-4.5
450651294287,3.125,27.6875,-4.375
450651316840,-3.25,31,-3.75
450651331906,-7.6875,23.6875,-4.0625
450651354337,-4.375,27.875,-3.5625
450651376924,3.4375,37.0625,0.375
450651391874,3.0625,34.375,1
450651414347,-0.3125,24.3125,0.25
450651436907,-0.875,11.5625,0
450651451870,0.6875,-2.1875,1.375
450651474325,4.8125,-13.5625,2.75
450651496842,9.8125,-16,5
450651511841,9.6875,-20.25,4.625
450651534319,6.75,-24.4375,4.5
450651556807,-2.6875,-30.8125,1.125
450651571844,1.4375,-32.6875,2.3125
450651594335,21.9375,-36.3125,8.5625
450651616904,32.1875,-34.1875,13.6875
450651639370,26.875,-35.75,12.25
450651654346,24.1875,-23.25,9.875
450651684348,20.5625,-6.375,6.5
450651691873,22.5,12.375,7.8125
450651714348,14.375,17.875,3.125
450651736839,1.375,22.375,-2.4375
450651751888,-2.4375,17,-5.6875
450651774379,-9.25,9.375,-13.8125
450651796873,-19,4.8125,-21.3125
450651811901,-15.25,6.5625,-20.5
450651834329,-7.875,6,-14.4375
450651856868,-8.8125,11.125,-6.125
450651871867,-6.875,16.1875,1.5
450651894308,-10.625,17.5625,0.8125
450651916835,-20.75,23.25,-7.25
450651931841,-47.125,13.9375,-22.375
450651961820,-48.4375,20.625,-24.8125
450651976869,-72.0625,7.5,-31.6875
450651991920,-136.875,-4.9375,-53.5625
450652014373,-178.812,3.375,-66.1875
450652036857,-166.562,-30.5625,-63.875
450652051890,-196.562,-46.1875,-62
450652074316,-273.688,-24.25,-64.5625
450652096826,-222.625,5.3125,-42.5
450652111844,-174.688,40.9375,-33.6875
450652134373,-184.438,86.8125,-38.875
450652156807,-42.6875,112.812,-3.8125
450652171796,89.5,90.5,40.5
450652194338,104.938,60,64.9375
450652216811,228,25.375,120.938
450652231850,208.75,1.1875,131
450652254373,169.312,28.5,104.688
450652276807,167.188,28.1875,85.9375
450652291900,148.125,23.75,77.8125
450652314331,120.75,13.4375,61.3125
450652336792,70.8125,-3.0625,42.5
450652351808,45.6875,-43.3125,32.5625
450652374433,37.0625,-74.0625,13.1875
450652396862,36.3125,-73.9375,0.875
450652411802,15.6875,-49.625,-2.625
450652434261,4.75,-26.5,5.0625
450652456767,5.8125,-33,13
450652471861,18.625,2.5,18.4375
450652494362,20.625,33.0625,6
450652516838,10.9375,82.8125,-3.125
450652531791,21,120.312,-5.1875
450652561859,83.625,140.562,0.9375
450652576882,116.375,137.062,5.5
450652599315,86.75,133.375,9.625
450652614367,65.9375,82.5,7.875
450652636840,84.25,75.9375,7.625
450652651778,71.5625,57.25,2.375
450652674369,45.4375,75.125,3.125
450652696887,-2.5625,66.25,-0.375
450652711836,-35.4375,48.125,-11.125
450652734392,-50.125,51.3125,-16.125
450652756895,-63,27.1875,-19.0625
450652771931,-56.5625,12.25,-12.4375
450652794365,-28.8125,19.25,-3.1875
450652816836,-15.1875,23.125,-0.6875
450652831796,6.5625,31.8125,-8.75
450652854363,10.875,33.9375,-19.8125
450652876903,-0.8125,44.375,-25.3125
450652891834,-8.1875,53,-18.375
450652914339,-4.875,44.875,-7
450652936865,9.25,23.0625,-1.875
450652951924,22.3125,4.1875,-5.3125
450652974314,24.3125,-18.4375,-14.4375
450652996885,14.9375,-35,-18.9375
450653011841,0.4375,-30.0625,-16.5625
450653034285,-10.5625,-25.6875,-16.875
450653056916,-16.75,-7.125,-15.4375
450653071863,-19.5,2.8125,-13.75
450653094396,-22.875,8.5625,-8.4375
450653116946,-24.5625,19.4375,-4.1875
450653131868,-17.5625,33.5,-2.625
450653154382,-10.3125,36.125,-2.0625
450653176898,-2.875,41.875,-2.125
450653191871,5.3125,37.4375,-2.25
450653214343,13.875,18.75,-3.125
450653236897,15.8125,3.125,-5.5625
450653251889,11.4375,-8,-7.75
450653274382,-5.5,-6.4375,-12.3125
450653296896,-0.1875,4.6875,-5.125
450653311820,11,-2.4375,5.25
450653334407,10,-22.3125,11.9375
450653356902,-9.625,-40.125,10.0625
450653371976,-68,-32,9
450653394370,-145.688,-52.6875,7.125
450653416795,-140.25,-19.625,6
450653431884,-33.75,67.9375,10.5625
450653454419,-118.5,59,2.5625
450653476901,-258.562,131.625,-4.8125
450653491923,-173.312,183.688,-9.375
450653514396,-7,137.938,-15.75
450653536814,-40.125,136.688,-28.125
450653551872,-128.5,82.75,-81.4375
450653574365,-15.4375,39.125,-73.1875
450653596841,42.5625,-57,-46.375
450653611867,7.8125,-175.25,-58.5
450653634352,20.75,-238.25,-42.8125
450653656834,57.875,-269.875,-19.4375
450653671821,97.25,-289.875,3.8125
450653694376,106.812,-232,1
450653716813,94.3125,-196.812,-13.6875
450653731818,100.938,-159.812,-22.5625
450653754391,161.375,-122.25,-3.8125
450653776852,168.562,-113.125,25.125
450653791873,107.75,-117.312,26.1875
450653814431,109.875,-162.25,45.8125
450653836864,136.312,-191.062,58.3125
450653851883,111.688,-195.938,53.5
450653874397,79.75,-182.562,39.25
450653896907,77.25,-163,39.4375
450653911883,91.625,-156.875,63.625
450653934405,82.6875,-165.75,77.4375
450653956865,60.125,-174,80.125
450653971875,48.0625,-196.25,78.75
450653994455,50,-208.812,77.4375
450654016884,49.625,-205.375,71.0625
450654031875,21.625,-186.875,47.5625
450654054398,14.6875,-154.438,34.25
450654076936,22.0625,-128.375,33.5
450654091870,15.3125,-99.3125,36.625
450654114425,5.5,-80.125,41.625
450654136901,-2.9375,-75.3125,43.5
450654159378,-5.375,-73.6875,41
450654174419,-4.125,-76.75,34.75
450654196863,-13.875,-85.25,21.75
450654219396,-22.125,-86.9375,9.5
450654234339,-14.25,-92.0625,5.5
450654256932,-14.3125,-91.25,1.6875
450654279365,-19.3125,-74.875,0.4375
450654294367,-16.75,-51.5,0.9375
450654316918,-10.125,-20.5625,0.4375
450654339386,-8.75,5.375,-4.875
450654354367,-12.8125,32.75,-13.125
450654376887,-7.3125,62.0625,-18.9375
450654399402,-4.625,96.125,-21.1875
450654414375,-3.75,126.625,-23.0625
450654436943,-2.4375,150.062,-27.875
450654459365,-4.5,160.062,-36.0625
450654474411,-5.9375,165.438,-43.0625
450654496894,-6.5,174.625,-44.875
450654519418,-3.8125,180.25,-42.8125
450654541976,-1.25,168.188,-39.125
450654556897,2.75,154.312,-42.375
450654579400,3.5625,131.812,-41.25
450654594409,-0.75,117.625,-38.0625
450654616969,11.0625,110.25,-29.125
450654639418,17.625,126.438,-25.8125
450654661955,7.9375,114.438,-35.5625
450654676892,3.125,124.688,-43.9375
450654699388,3.375,132.938,-45.5
450654714363,6.8125,152.625,-40.6875
450654736908,6.375,163.25,-40.8125
450654759391,4.375,184.688,-47.875
450654774406,8.625,181.375,-52.5
450654796987,8.0625,184,-50.5625
450654819401,15.75,173.125,-41.5625
450654834393,22.75,150.812,-34.375
450654856891,23.375,136.125,-29.1875
450654879432,31.4375,111.062,-22
450654901806,40.0625,101.125,-16.375
450654916896,48,112.312,-18.9375
450654939434,53.0625,108.375,-25.75
450654954429,57,110.062,-30.5
450654976861,64.3125,100.562,-28.1875
450654999402,75.125,93.0625,-17.1875
450655014459,80.4375,84,-5.5
450655036852,86.625,81.75,5.3125
450655059312,96.125,73.3125,14.25
450655081824,99.25,53.75,15.0625
450655096913,99.1875,26.1875,13.0625
450655119430,98.4375,5,12.9375
450655141890,97.9375,-3.125,16.5
450655156863,96.0625,-13.9375,19.4375
450655179507,88.375,-23.0625,20.4375
450655201840,77.5625,-36.375,17.5625
450655216920,71.4375,-40.75,16.8125
450655239444,62.0625,-34.3125,17.5
450655261880,50.125,-22.5625,21.5625
450655276913,41.0625,-12.875,27.9375
450655299417,31.3125,-5.8125,33.1875
450655321890,19.625,1.125,36.5
450655336875,7,-4.625,37.125
450655359469,-4.9375,-16.8125,39.3125
450655381923,-17.125,-35.25,46.0625
450655396942,-29.4375,-44.375,53.25
450655411886,-40.8125,-61.1875,59.1875
450655434456,-54.25,-73.125,59.75
450655472608,-65.125,-76.75,56.75
450655473413,-78,-83.4375,50.875
450655494368,-92.75,-81.8125,44.75
450655516864,-102.562,-86.125,40.5
450655531976,-114.188,-100.562,37.5
450655554434,-128.812,-100.562,33.875
450655576873,-134.438,-96.25,27.5625
450655591867,-142.5,-99.0625,17.1875
450655614488,-154.938,-100.562,8
450655636890,-157.438,-110.375,5.875
450655651885,-159.75,-132.375,2.3125
450655674416,-161.25,-127.625,-11.1875
450655696944,-161.938,-152.625,-26.25
450655711895,-172,-156.625,-39
450655734415,-160.938,-148.312,-35.25
450655756923,-145.438,-129.062,-30.75
450655771960,-148.375,-112.375,-38.6875
450655794454,-144.438,-108.938,-48.6875
450655816933,-130.688,-103.562,-48.8125
450655831849,-118,-94.125,-40.0625
450655854446,-103.125,-78.375,-34.5625
450655876933,-91.1875,-91.125,-40.9375
450655891868,-86.9375,-103.812,-51.25
450655914415,-68.5625,-126.125,-49.125
450655936935,-47.875,-123,-35.375
450655951946,-33.3125,-106,-20.1875
450655974453,-17.25,-97.125,-8.375
450655996862,-1.375,-82.5625,-0.25
450656011902,15.4375,-70.5625,6
450656034441,34.375,-51.5,10.9375
450656056944,47.875,-43.0625,14.375
450656071927,59.5,-45.0625,19
450656094486,74.75,-31.9375,29.3125
450656116955,89.3125,-10.3125,41.5
450656131950,95.125,-1.375,46.6875
450656154414,103.5,-5.5,44.6875
450656176971,111.938,9.3125,40
450656191917,113.062,24.4375,38.3125
450656214388,113.188,58.375,41.8125
450656236926,120.5,75.1875,43.125
450656259386,125,89.25,38.25
450656274423,113.438,101.312,28.0625
450656304389,107.625,108,21.125
450656311888,109.938,109.188,20.75
450656334352,106.625,118.688,17.5625
450656356890,99.125,133.062,10.375
450656371955,88.125,130.375,0.0625
450656401888,84.1875,135.125,-8.625
450656416946,86.6875,131,-14.6875
450656431974,75.4375,126.375,-21.5625
450656454446,62,107.438,-26.375
450656476999,63.5,94,-25.5
450656499322,60.375,81.6875,-26.0625
450656514395,47.125,87.6875,-32.25
450656536957,41.125,93.25,-39.75
450656551913,37.125,90.375,-49.5
450656574434,29.125,97.75,-59.0625
450656597022,22.875,101.375,-64.5
450656611969,14.75,98.625,-68.5
450656634396,12.8125,103.938,-70.4375
450656656973,13.3125,105.312,-70.5625
450656671936,5.0625,106.875,-70.9375
450656694447,5.75,109.312,-66.0625
450656716969,12.4375,96.25,-57.9375
450656731978,10.125,81.5,-52.0625
450656754462,10.3125,65.625,-45.1875
450656776943,14.375,56.375,-42.125
450656791904,16,41,-40
450656814449,15.0625,36.375,-38.8125
450656836912,18.375,31,-35
450656851980,17.875,22.875,-33.75
450656874482,16.875,26.3125,-35.625
450656896937,21,26.5625,-37.875
450656911952,17.8125,33.25,-39.125
450656934412,17.375,26.9375,-35.9375
450656964439,22.3125,31.0625,-25.6875
450656971936,23,34.875,-16.75
450656994473,23.625,33.5625,-7.25
450657016964,23.9375,25.8125,-1.25
450657032001,26.375,8.4375,3.5625
450657054460,25.1875,-14,7.375
450657076982,21.9375,-33.8125,11.625
450657092002,21,-57.875,18.25
450657114449,16.3125,-76.875,23.875
450657136996,12.9375,-85.625,28.75
450657151999,8.125,-86,29.0625
450657174472,0.6875,-74.1875,27.5
450657196947,-4.75,-69.375,25.9375
450657211965,-12.0625,-58.5,29.0625
450657234472,-18.1875,-47.6875,34.125
450657256915,-23.1875,-32.375,38.125
450657271996,-29.1875,-28.8125,35.0625
450657294487,-36.3125,-34.5,27.375
450657316964,-44.375,-54.3125,22.625
450657331980,-50.0625,-69.9375,26.375
450657354404,-50.75,-84.3125,34.875
450657376981,-52.8125,-97.8125,38.625
450657391950,-59.375,-110.938,35.75
450657414477,-63.25,-115,30.8125
450657436944,-64.75,-120.812,31.6875
450657451912,-67.0625,-119.812,36.375
450657474503,-67.25,-110.312,40.5
450657496934,-70.75,-107.688,38.5625
450657511912,-77.1875,-106.312,30.5625
450657534474,-77.875,-96.75,23.25
450657556935,-77.8125,-95.5625,18.3125
450657571972,-82.4375,-92.1875,13.125
450657594437,-81.1875,-91.0625,11.0625
450657616936,-78.875,-80.5,8.5
450657631950,-73.375,-67.625,2.5625
450657654502,-71.0625,-86.6875,-0.625
450657676937,-71.5625,-93.4375,1.5625
450657691991,-58.375,-91.9375,11.3125
450657714460,-50.375,-88.75,21
450657736970,-49.4375,-68.5,22.9375
450657751893,-41.3125,-66.125,19.625
450657774463,-35.3125,-63,13.5625
450657796977,-35.1875,-67.5,6.9375
450657811939,-31.6875,-68.8125,7.75
450657834431,-29.0625,-71.0625,13.5
450657864438,-24.875,-61.8125,18.125
450657871905,-19.0625,-45.1875,18
450657894422,-18.8125,-23.25,10.375
450657917006,-16.0625,6.3125,4.125
450657931994,-4.6875,37,3.375
450657954405,3.125,62.4375,5.4375
450657976971,4.375,71.0625,7.75
450657992044,10.0625,63.125,12.0625
450658014415,15.875,54.375,17.375
450658036883,19.5625,44.875,20.9375
450658051933,21.6875,37.5625,21.8125
450658074434,22.3125,40.6875,16.3125
450658096966,25.75,45.8125,7.3125
450658111923,27.875,54.9375,1.125
450658134427,29.1875,81.8125,-2.625
450658157423,37.75,107.5,-1.1875
450658171916,39,118.812,-2.625
450658194430,37.75,125.688,-4.25
450658216888,44.875,128.062,-2.375
450658231937,51.1875,125.812,-1.25
450658254392,53.3125,115.938,-2.625
450658276929,59.0625,106.812,-6.1875
450658291932,63.8125,95.5,-9.125
450658314425,67,82.5,-11.625
450658336956,75.375,84.0625,-9.8125
450658351927,81.375,85.875,-9.375
450658374396,83.5,83.8125,-10.75
450658396958,87.5625,80.625,-13.25
450658411940,93.125,82.1875,-15.875
450658434394,93,82.6875,-19.4375
450658456966,93,82,-22.875
450658471958,96.5,72.8125,-25
450658494425,94.375,63.75,-27.25
450658516956,92.9375,58.1875,-26.625
450658531954,92.5,60.8125,-25
450658554436,89.9375,59.6875,-23.125
450658576948,87.625,55.5625,-23.1875
450658591953,83.1875,45.5625,-24.125
450658614451,77.125,32.125,-23.9375
450658636893,72.9375,26.0625,-21.4375
450658651950,67.4375,11.25,-19.5625
450658674433,57.6875,0.625,-20.3125
450658696926,49.6875,-3.1875,-20
450658711950,43.1875,-5.9375,-20.1875
450658734428,32.6875,-9.875,-19.8125
450658756901,22.0625,-11.4375,-17.375
450658771893,15.6875,-5.5625,-13
450658794424,5.75,-0.75,-10.0625
450658816903,-6.1875,2.5,-10.5625
450658831887,-14.9375,-2,-10.9375
450658854440,-25.4375,-9.625,-9.625
450658876876,-34.625,-14,-4.9375
450658891925,-40.875,-15.4375,0.6875
450658914450,-48.625,-24.375,1.6875
450658936928,-56.375,-33.6875,1
450658951930,-61.75,-39.125,0.5625
450658974452,-65.4375,-40.75,2.75
450658996935,-70.3125,-46.25,6.75
450659011937,-72.8125,-50.25,10.1875
450659034466,-74.25,-54.375,13
450659056931,-77.625,-59.0625,12.6875
450659071937,-78.75,-63.875,13.1875
450659094470,-79.75,-66.1875,14.9375
450659116949,-77.3125,-57.625,19.125
450659131938,-75.125,-58.5625,19.3125
450659154449,-75.25,-63.5,17.625
450659176941,-72.8125,-64.0625,17.4375
450659191952,-67.5625,-68.6875,19.875
450659214476,-64.5,-76.5625,22.625
450659236962,-60.0625,-79.75,22.875
450659251967,-54.8125,-87.8125,23.875
450659274493,-52.625,-94.875,24.8125
450659296962,-44.6875,-98.25,25.6875
450659319458,-39.625,-101.25,28.375
450659334588,-37.875,-91.625,30.3125
450659357029,-29.375,-81.5,35.6875
450659371991,-24.3125,-73.625,37.1875
450659394516,-23.0625,-69.0625,37.9375
450659416988,-20.75,-67.9375,37.375
450659431993,-18.0625,-72.25,36.5
450659454501,-15.875,-70.8125,32.875
450659477022,-15.75,-77.25,26.625
450659492021,-15.875,-71.375,23.5625
450659514527,-13.375,-60.8125,23.875
450659537042,-6.6875,-48.125,26.8125
450659552026,-4,-36.0625,27.5
450659574520,-3.375,-28.875,26.125
450659597055,1.6875,-24.875,26.3125
450659611996,4,-28.9375,25.4375
450659642046,3.625,-31.375,25.75
450659657009,2.3125,-32.6875,27.25
450659671974,2.125,-26.125,26.625
450659694507,3,-14.125,21.375
450659717037,1.25,-5.1875,7.5625
450659732022,-3.4375,-5.9375,-5.1875
450659754483,-5.1875,4.5625,-11.0625
450659777007,0.0625,16.25,-7.5
450659791989,-0.875,28.8125,-2.875
450659814500,-3.125,43.3125,-1.1875
450659837088,3,59.3125,-4.375
450659852079,5,66.1875,-10.9375
450659874488,3.6875,75.4375,-18.125
450659897030,10.25,84.125,-20.0625
450659912071,12.9375,84.125,-18.9375
450659934505,13,74.5,-16.8125
450659957054,21.5,72.6875,-15.5
450659972007,27.375,69.4375,-18.9375
450659994497,27.9375,69.8125,-23.8125
450660016971,37.25,75.4375,-25.125
450660032056,47.4375,75.875,-24.5625
450660054521,48.9375,66.5625,-23.9375
450660077014,54.25,62.75,-21.75
450660092061,62.625,58.625,-17.5625
450660114493,65.75,61.875,-17.4375
450660129552,70.8125,59.9375,-20.125
450660152069,72.8125,62.4375,-23.25
450660174490,73.5625,71.3125,-26.5
450660189534,80.125,84.625,-27.9375
450660212051,79.3125,82.4375,-31.4375
450660242003,76.3125,78.375,-35.3125
450660249489,79.625,66.875,-32.625
450660272121,77.875,58.8125,-28
450660294508,76.4375,54.625,-23.25
450660309526,78.125,48.0625,-22.75
450660332048,75.1875,43.125,-26.5
450660354514,70.8125,32.875,-30.1875
450660377076,69.625,28.625,-26.4375
450660391992,64.6875,17.8125,-20.625
450660421997,60.5625,9.75,-15.125
450660429488,54.8125,0.9375,-13.25
450660452029,44.1875,-5.875,-16.625
450660474503,36.25,-6.4375,-17.8125
450660489558,29.875,-2.8125,-17
450660512027,21.25,9.625,-15.375
450660534547,12.25,15.75,-12.875
450660549557,2.0625,16.125,-12.5
450660572027,-7.3125,9.5,-10.8125
450660594513,-15.9375,0.3125,-7.8125
450660609471,-24.9375,-6.125,-6.8125
450660632058,-33.25,-16.25,-6.875
450660654577,-41.3125,-24.4375,-5.8125
450660677020,-47.3125,-24,-4.6875
450660691986,-51.8125,-25.9375,-1.1875
450660714549,-58.125,-21.8125,2.5625
450660729506,-60.125,-17.8125,5.5625
450660752008,-60.9375,-19.75,7.9375
450660774570,-65.625,-22.375,7.875
450660797036,-67.125,-25.5625,10.5
450660811987,-66.125,-32.6875,14
450660834525,-65.625,-37.6875,17.6875
450660857082,-64.9375,-47.5,20.5
450660872014,-64.5625,-52.9375,21.1875
450660894476,-61.125,-61,21.9375
450660917011,-57.625,-56.4375,22.9375
450660931990,-54.8125,-62.875,24.625
450660954539,-50.1875,-60.8125,27.5
450660977045,-43.9375,-55.6875,30
450660992021,-38.875,-56.875,33.0625
450661014538,-36.3125,-57.375,34.625
450661037031,-30.1875,-59.125,37.875
450661052012,-23.5,-64.5625,40.5625
450661074443,-20.4375,-61,41
450661097026,-14.8125,-58.4375,42.3125
450661112014,-9.375,-58.1875,41.6875
450661134470,-5.5625,-62.8125,40.5625
450661156984,-1.3125,-62.6875,40.8125
450661171999,-0.6875,-69.1875,43.625
450661194525,2.5,-69.8125,47.6875
450661217038,8.5,-67.1875,50.75
450661232078,6,-65.0625,47.8125
450661254544,4.1875,-60.0625,42
450661277038,7.375,-56.0625,37.9375
450661291990,6.0625,-48.875,34.4375
450661314503,4.625,-38.875,32.0625
450661337070,3,-27.6875,29.3125
450661352073,1.4375,-23.625,25.625
450661374566,-0.125,-19.3125,20.125
450661397086,-1.9375,-15.9375,15.375
450661412033,-5.4375,-11.625,11.3125
450661434544,-6.625,-7.1875,7.8125
450661457046,-6.75,-7.5625,4.8125
450661472081,-8.6875,0.3125,0.1875
450661494529,-8.625,8,-4.8125
450661517078,-8,11.9375,-10.1875
450661532062,-9.0625,13.875,-13.6875
450661554566,-6.3125,25.875,-14.75
450661577124,-3.0625,33.875,-15
450661592075,-3.5,34.9375,-18.5
450661614522,-0.875,31.5,-22.8125
450661637127,2.0625,24.75,-26.1875
450661659543,2.5,21,-28.625
450661674488,5.5,20.5625,-29.5
450661697092,9.375,23.75,-31.75
450661727476,13.4375,33.8125,-34.5
450661734557,18.625,49.125,-34.9375
450661757071,25.5,71.625,-33.75
450661779605,31.375,79.125,-33.6875
450661794568,36.5,83.3125,-33.5625
450661817103,42.0625,75.0625,-31.4375
450661839549,46.875,65.8125,-28.9375
450661854551,52.625,54.875,-25.375
450661877050,57.25,45.5,-25.75
450661899568,59,39.3125,-25.5
450661914537,61.5625,36.3125,-25.125
450661937014,66.75,41.5625,-23.25
450661959544,67.8125,42.6875,-25.5625
450661974601,65.1875,39.3125,-29.0625
450661997078,64.3125,40.1875,-29.375
450662019605,64.1875,39.8125,-26.1875
450662034565,62.0625,42.875,-24.4375
450662057100,58.375,42.4375,-25.125
450662079603,54.0625,38.25,-29.0625
450662094508,50.1875,38.1875,-31.3125
450662117031,46.5,38.0625,-29.75
450662139580,40.6875,28.0625,-27.1875
450662154572,34.8125,22.1875,-23.5
450662177017,30.125,15.4375,-21.375
450662199603,25.0625,15.9375,-21.6875
450662214558,17.5625,9.1875,-22.9375
450662237032,11.75,10.5625,-21
450662259574,7.5625,12.75,-15.625
450662274597,1.125,13.5,-11.875
450662297095,-4.6875,17.8125,-9.75
450662319570,-11.625,11.625,-11.9375
450662342015,-18.6875,-0.125,-13.625
450662357026,-24.8125,-5.0625,-11.875
450662379594,-28.9375,-3.5,-6.9375
450662394561,-32.625,-5.8125,-4.4375
450662409565,-37.375,-5.3125,-2.6875
450662432096,-39.625,-1.0625,-1.4375
450662454607,-39.6875,3.6875,1.6875
450662469564,-42.125,0.625,5.5625
450662492117,-42.625,-1.625,11.625
450662514600,-40.9375,-7.625,18.8125
450662529497,-40.375,-14.25,23.3125
450662552043,-39.6875,-22.5,23.5625
450662574567,-40.8125,-36.3125,20.5625
450662589562,-40.9375,-51.5625,19
450662612016,-38.1875,-58.125,22.8125
450662642092,-36.8125,-55.375,29.75
450662649621,-34.0625,-39.1875,34.6875
450662672060,-28.75,-21.5,35.75
450662694636,-26.5625,-17.5625,32.25
450662709593,-25.3125,-19.0625,30.375
450662732048,-21.0625,-27.6875,34.8125
450662754631,-17.875,-36.1875,41.5625
450662769630,-14.8125,-42.375,46.375
450662792093,-11.75,-49.5,46.1875
450662814581,-11.5625,-55.5625,41.0625
450662829583,-9.125,-59,37.6875
450662852065,-5.1875,-59.125,39
450662874541,-2.25,-52.6875,43.6875
450662889544,0.625,-43.9375,50
450662919592,4.1875,-34.0625,50.0625
450662934568,5.3125,-31.75,46.8125
450662949541,4.4375,-36.1875,40.375
450662972072,5.9375,-39.3125,37
450662994524,4.75,-40.0625,35.75
450663009582,2.0625,-44.0625,35
450663032104,1.25,-39.4375,32.1875
450663054581,-0.0625,-41.9375,27.0625
450663069578,-4.8125,-37.5,20
450663092102,-6.125,-26.25,14.125
450663114545,-5.625,-19.1875,12
450663129545,-9.375,-12.375,9.4375
450663152119,-8.625,-7.375,7.75
450663174621,-9.8125,-7.875,3.4375
450663197116,-12.875,-14,-2.375
450663212108,-12.1875,-21.4375,-6.1875
450663234573,-11.75,-22.0625,-8.1875
450663249582,-12.9375,-20.125,-9.3125
450663272054,-12.875,-13.75,-10.0625
450663294551,-10.8125,-7.125,-12.8125
450663309565,-12.1875,1.625,-17.625
450663332055,-11.5625,11.9375,-22.5625
450663354567,-10.875,13.5625,-26.5
450663369624,-12.375,14.625,-29.375
450663392089,-10.625,16.6875,-30.625
450663414597,-10.5625,17.125,-33.8125
450663429630,-9.9375,20.8125,-37.125
450663452143,-4.875,28,-40.3125
450663474596,-1.5625,36.0625,-41.3125
450663489597,0.8125,43.8125,-40.6875
450663512088,8,51.875,-36.6875
450663534543,13.625,53.125,-33.0625
450663549547,17.3125,48.0625,-31.9375
450663572061,22.25,39.25,-30.8125
450663594525,26.625,33.0625,-29.8125
450663609567,31.125,25.875,-27.5625
450663632057,35.125,22.8125,-25.9375
450663654589,38.375,20.5625,-26.3125
450663669566,40,17.1875,-27.6875
450663692141,41.375,19.875,-27.5
450663714630,44.6875,29.875,-25.0625
450663729563,46.5,39.8125,-22.9375
450663752081,46,51.25,-22.375
450663774648,46.5,53.5625,-21.6875
450663789629,44.375,50.3125,-20.6875
450663812066,42.3125,43.125,-17.625
450663834637,41.0625,38.0625,-13.1875
450663849586,38.5625,35.8125,-12.75
450663872132,36.25,27.4375,-16.875
450663894626,30.875,12.3125,-24.125
450663909590,26.5625,7.5,-26.6875
450663932098,26.625,14.25,-20.375
450663954673,26,23.8125,-12.25
450663969585,22.3125,28.625,-7.0625
450663992077,19.1875,32.8125,-6
450664014609,16.3125,32,-4.9375
450664029586,12.625,28,-2.5
450664052102,9.6875,24.375,1.9375
450664074651,5.5,15.0625,4.375
450664089589,0.875,4.4375,4.5
450664112079,-3.3125,-7.375,1.8125
450664134654,-8.3125,-16.625,0.75
450664149648,-12.4375,-19.75,3.5625
450664172143,-11.125,0.0625,10.6875
450664194648,-9.625,20.6875,16.375
450664209629,-12.3125,35.1875,17.25
450664232148,-12.8125,39.4375,18.0625
450664254561,-10.4375,32.125,19.4375
450664269650,-12.0625,13.875,22.75
450664292107,-15.125,-9.125,27
450664314571,-13.9375,-30.375,30.75
450664329613,-15.125,-47.1875,31.25
450664352088,-17.8125,-54.75,29.875
450664374624,-18.375,-53.0625,29.25
450664389600,-17.5625,-39.3125,31.0625
450664412023,-15.0625,-19.25,35.375
450664434633,-13.75,-3.5625,37
450664449568,-16.4375,3.4375,38.1875
450664472130,-17.375,1.8125,37.5625
450664494569,-16.4375,-6.875,37.4375
450664509561,-19.625,-25.25,36
450664539583,-23.125,-37.9375,33
450664554630,-22.375,-45.9375,31.0625
450664569612,-23,-48.25,28.875
450664592091,-25.0625,-44,27.25
450664614591,-23.875,-33.625,27.8125
450664629566,-22.1875,-21.9375,28.8125
450664652154,-22.5,-18.1875,28.875
450664674596,-23.6875,-15,27.5
450664689624,-24.4375,-22.625,25
450664712120,-25.75,-32.125,21.125
450664734655,-26.8125,-39.375,17.1875
450664749621,-29.5625,-47,11.75
450664772165,-31.5625,-49.125,7.0625
450664794585,-31.875,-47.5625,4.125
450664809593,-31.375,-34.875,2.8125
450664832114,-31.375,-22.5,1
450664854614,-30.875,-11,-1.375
450664869599,-29.4375,-2.875,-4.25
450664899658,-28.1875,-3.625,-7.625
450664914566,-27.8125,-7,-9.8125
450664929591,-26.5625,-14.4375,-11.3125
450664952111,-23.25,-20.25,-12.3125
450664974615,-21.3125,-22.625,-14.0625
450664989639,-18.6875,-22.375,-16.1875
450665012126,-14.3125,-11.625,-17.6875
450665034612,-9.125,-3.625,-18.375
450665049615,-5.5,1.625,-19.25
450665072096,-1.5625,10.125,-17.3125
450665094621,4.25,15.625,-15.875
450665109575,7.6875,14,-15.4375
450665132115,8.625,8.6875,-17.6875
450665154647,13.5625,1.375,-20
450665169613,17.25,1.8125,-20.25
450665192039,19.9375,6.6875,-19.75
450665214613,24.875,12.625,-18.6875
450665229613,27.375,16.6875,-18.875
450665252194,31.25,23.75,-19.75
450665274719,35.3125,22.125,-19.5625
450665289608,34.6875,18,-19.625
450665312045,35.125,14.875,-14.1875
450665334728,40.0625,20.25,-9.75
450665349778,42.1875,20.625,-9.875
450665372152,39.4375,20.9375,-16.8125
450665394725,40.125,20.25,-21.875
450665409628,38.5625,13.3125,-23.0625
450665432146,36.9375,15.0625,-19.1875
450665454733,36.0625,18.5625,-15.6875
450665469752,31.375,16.75,-16.1875
450665499625,28.4375,26,-19.4375
450665514596,28.75,31.3125,-24.9375
450665529740,25.0625,40.25,-28.5
450665552158,21.125,47.25,-27.3125
450665574579,21.5625,54.4375,-20.125
450665589692,20.1875,47.1875,-12.375
450665612146,16.8125,37.625,-10.625
450665634578,15.875,16.8125,-13.375
450665650103,-66.6875,111,-78.5
450665672099,-51.5,70.1875,-53.75
450665694587,-7.3125,106.812,-30.75
450665709541,-20.25,97.75,6.125
450665732125,-44.8125,42.3125,11
450665754653,-92.3125,-15.9375,-5.25
450665769597,-99.6875,-62.75,-15.6875
450665792112,5.75,-113.312,36.0625
450665814624,-30,-80.4375,21.4375
450665829617,-126.938,-61.75,-25.875
450665852169,-100.375,-32.3125,-30.5
450665874615,-66.5625,-43.5,-41.4375
450665889632,-48.5,-49.5625,-26.875
450665912089,-34.3125,-43.5,-18
450665934644,-39.875,-30.875,-5.8125
450665949657,-13.125,-50.6875,10.5625
450665972684,36.9375,-27.6875,21.625
450665994612,26.8125,0.0625,18.5
450666009619,-16,6.875,3.375
450666032183,-2.9375,20.8125,5.5625
450666054652,18.0625,32.25,6.9375
450666069675,14.4375,35.4375,12.5
450666092197,9.8125,23.9375,-0.625
450666114649,12.5625,17.5625,0.6875
450666129669,7.5625,4.25,-0.4375
450666152170,-1.5625,-5.6875,-1.5625
450666174617,1.75,-9.1875,1.5
450666189614,5.8125,-9.75,5.6875
450666212198,-2.8125,-9.125,8.75
450666234753,-11.0625,-3.6875,6.125
450666249619,-11.1875,3.875,0.625
450666272172,-10.0625,3.6875,-4.6875
450666294726,-2.6875,2.5625,-5.1875
450666309775,1.125,-0.375,-2.625
450666332057,6.125,-8.0625,1.6875
450666354726,8.4375,-12.625,3.6875
450666369655,7.25,-11.4375,4.5625
450666392118,7.4375,-4.0625,4.4375
450666414696,3.8125,3.3125,2.8125
450666437109,3.25,6.1875,2.4375
450666452114,3.25,5.4375,4.4375
450666482119,8.375,3.5,8.875
450666489717,12.5,1.875,10.25
450666512174,7.375,0.875,6.75
450666534722,3.875,4.5625,0.875
450666549701,2.5625,7.1875,-2.75
450666580170,-0.625,5.625,-4.5625
450666594673,-2.5,3.1875,-3.9375
450666609715,-4.75,-3.875,-2.25
450666632122,-1.8125,-10.625,0.375
450666654694,2.3125,-12.25,2.875
450666669663,-9.6875,-8.25,0.625
450666692073,-4.125,4.75,4.4375
450666714722,13.5,40.9375,9.25
450666729720,10.6875,41.875,6.25
450666752631,1.375,51.4375,3.4375
450666774630,20.8125,38.0625,10.5
450666789689,18.875,25.0625,11.5
450666812147,15.6875,11.625,13.75
450666834687,25.3125,10.3125,16.625
450666849656,28.6875,-4.875,17.9375
450666872140,35.625,-12.6875,20.125
450666894723,40.6875,-16.25,24.5625
450666909691,42.1875,-14.75,30
450666932162,50.75,-26.8125,37.4375
450666954742,51.4375,-38.875,39.75
450666969692,47.125,-47,38.6875
450666999658,46.25,-47.625,37.875
450667014688,42.5625,-40.5,36.4375
450667029729,36.875,-31.5,33.4375
450667052149,32.0625,-25.125,28.0625
450667074723,24.625,-13.875,21.25
450667089648,16.25,-6.6875,15.8125
450667112190,13.75,9.75,12.4375
450667134577,10.0625,17.75,10.125
450667149686,2.375,15.9375,7.4375
450667172167,-0.5625,16,8.5625
450667194682,-1.375,6.3125,11.3125
450667209626,-6.3125,-9.5625,14.125
450667232170,-10.9375,-24.4375,15.5625
450667254610,-14.5625,-33.5625,17.0625
450667269612,-18.5625,-42.8125,15.8125
450667292196,-22,-39.3125,12.8125
450667314687,-24.9375,-24.9375,5.5625
450667329694,-29.125,-21.125,-4.625
450667352131,-34.4375,-16.4375,-13
450667374735,-33,4.1875,-16.3125
450667389700,-30.8125,22.4375,-14.6875
450667412159,-35.25,30.25,-15.5625
450667434744,-31,37.75,-15.9375
450667449694,-27.5,22.5625,-17.375
450667472164,-34.6875,-1.6875,-16.75
450667494691,-28.125,0.9375,-9.5625
450667509689,-23.375,-33.625,-0.9375
450667532166,-30.75,-40.5,-4
450667554686,-24.25,-71.9375,-0.875
450667569684,-20.5,-46.9375,-12.1875
450667592170,-10.875,-43.625,-14.625
450667614719,-15.8125,-15.4375,-20.0625
450667629738,-12.4375,4.5625,-19.875
450667652184,-1.625,34.5,-10.375
450667674769,-5.75,30.375,-5.4375
450667689769,2,39.75,-0.0625
450667712194,2.4375,33.875,-3.1875
450667734730,5.5,39.125,-6.375
450667749723,9.0625,36.3125,-12.5
450667772225,14.5625,34.8125,-16.0625
450667794753,26.5625,25.8125,-5.125
450667817136,35.9375,13,0
450667832118,47.75,13.25,4.875
450667854656,54.5,-3.375,5.5625
450667869735,64.625,-12.9375,7.9375
450667899721,76.6875,-11.6875,14.5
450667922677,87.4375,-2,25.1875
450667929687,91.25,-14.375,34.0625
450667952194,94.1875,-29.4375,32.25
450667974719,99.125,-60.6875,22.4375
450667989739,97.125,-70.25,9.125
450668012192,95,-55.25,16.75
450668034719,99.5625,-24.875,25.5625
450668049734,104.938,-19.3125,22.8125
450668072140,102,-3.625,12.1875
450668094723,101.562,55,-1.5625
450668109685,105.062,77.4375,-3.125
450668132094,99.3125,94.9375,13.6875
450668154688,109.75,98.25,22.75
450668169744,111.812,79.875,36.625
450668192181,86.0625,36.3125,34.625
450668214723,84.0625,-15.125,37.6875
450668229759,91.625,-54.8125,45.0625
450668252191,77.125,-55.5,43.6875
450668274742,59.4375,-44.6875,41
450668289722,63.4375,-22.5,30.5625
450668312128,73.5,12.625,11.0625
450668334671,52.625,7.0625,-2.8125
450668349721,39.8125,11,-3.0625
450668372201,52.25,-11.1875,10.875
450668394685,48.75,-24,27.5625
450668417241,25.1875,-11.0625,38.4375
450668432733,19.375,5,38.0625
450668454692,27,28.0625,32
450668477221,16.625,70.0625,22.0625
450668492113,2.6875,95.125,18.5625
450668514614,-1.25,77.9375,25.6875
450668537205,1.875,48.125,51.1875
450668552146,8.5625,4.1875,49.375
450668574757,3.5,-34,28.5
450668597161,-13.875,-70.9375,4.625
450668612222,7.625,-71.1875,2.125
450668634791,26.875,-57.9375,8.4375
450668657203,8.3125,-47.0625,18.375
450668672254,0.5,-32.75,31.125
450668694722,15.6875,-37.25,46.75
450668717242,17.625,-38.875,53.5625
450668732215,-5.625,-46.875,51.625
450668754726,-15.375,-32,46.8125
450668777231,-8.8125,-22.1875,52.9375
450668792189,-18.8125,-31.8125,37.1875
450668822192,-25,-33.125,0
450668837190,-52.125,-3.1875,-37.625
450668852236,-65.5,60,-36.375
450668874725,-42.4375,49.8125,-28.3125
450668897213,-45.9375,43.125,-31.3125
450668912186,-72.9375,26.4375,-42.25
450668934760,-79.6875,-1.375,-48.8125
450668957188,-42.625,6.8125,-39.9375
450668972190,-21.5625,4.4375,-41.875
450668994700,-60.625,64.8125,-45.6875
450669017174,-48.125,52.4375,-13.25
450669032110,-1.5625,61.125,23.6875
450669054659,30.3125,85.5625,28.875
450669077175,-4.375,99.1875,-3.5625
450669092138,-37.25,75.8125,-35.25
450669114633,14.0625,6.875,-31.5625
450669137209,45.375,-62.8125,-26.8125
450669152213,6.5625,-81,-32.8125
450669174663,-26.3125,-89.25,-36.5625
450669197165,11.25,-69.375,-27.8125
450669212181,27.5,-55.6875,-30.5
450669234625,-20.3125,7.8125,-38.3125
450669257188,-46.1875,64.9375,-38
450669272175,-29.5,74.875,-22.1875
450669294651,-37,86.8125,-18.4375
450669317160,-76.75,61,-27.6875
450669339624,-119.312,16.75,-40.25
450669354657,-99.9375,50.6875,-47.5
450669377190,-77.875,29.875,-62.125
450669399631,-136.938,12.3125,-88.9375
450669414673,-148.312,8.875,-87.375
450669429650,-104.562,-3.125,-66.625
450669452187,-111.062,-11.8125,-51.6875
450669474649,-146.938,-53.4375,-46
450669489652,-148.312,-80.4375,-22.5625
450669512180,-124,-94.75,6.9375
450669534677,-126.312,-76.75,12.1875
450669549655,-158.062,-52.4375,0.8125
450669572146,-175.375,1.4375,-13.375
450669594685,-140.562,29.5625,-18
450669609660,-138.312,20.5,-31.9375
450669632122,-186.5,26,-42.375
450669654678,-168.75,81.75,-26.625
450669669707,-108.625,134.562,-8.125
450669692159,-101.625,120,-11.375
450669714675,-108.312,105.188,-28.8125
450669729699,-72.125,66.0625,-20.625
450669752158,-32.3125,-20.4375,7.375
450669774644,-0.0625,-102.562,34.75
450669789678,21.4375,-132.25,39.6875
450669812156,24.5,-129.312,22.6875
450669834647,41.3125,-138.625,11.625
450669849702,74.875,-109.375,8.125
450669872156,95.9375,-65.8125,7.5625
450669894691,86.1875,-24.5625,8.125
450669909685,90.125,21.5625,10
450669932164,121.125,51.9375,10.1875
450669954712,130.5,84.375,-0.125
450669969681,113.25,95.1875,-13.6875
450669992174,123.375,92.9375,-14.4375
450670014718,141.938,53.375,-3.0625
450670029696,139,30.9375,10.875
450670052177,130,17.4375,26.875
450670074688,130.438,-26.9375,39.875
450670089703,137.062,-77.6875,43.75
450670112184,126.625,-76.3125,32.75
450670134715,105.062,-82.9375,23.0625
450670149703,88,-113.688,14.75
450670172191,108.312,-95.375,17.5
450670194658,108.125,-64.5,5.5625
450670209722,64.0625,-17.1875,-13.25
450670232149,67.25,14.4375,-13.8125
450670254667,91.6875,38,-4.5
450670269707,80.1875,52.0625,1.8125
450670292164,50.25,64.875,-1.625
450670314647,55.9375,50.0625,2.6875
450670329624,58.875,32.0625,4.1875
450670352256,44.0625,5.4375,4.25
450670374705,24.6875,-20.375,2
450670389699,16.125,-29.875,4.125
450670412289,20.5625,-47.875,3.625
450670434743,7,-47.5625,-0.125
450670457275,-14.4375,-29.9375,-5.0625
450670472726,-12.5,-6.875,-1.6875
450670494712,-11.125,19.875,1.9375
450670509730,-24.1875,40.8125,-1.6875
450670532294,-32.8125,54,-9.0625
450670554714,-35.6875,59.6875,-13.25
450670569782,-41.4375,51.3125,-12.6875
450670592215,-48.3125,37.5,-9.75
450670614717,-52.5625,29.4375,-6.875
450670629724,-53.5,20.0625,-4.9375
450670652222,-56,7.8125,-2.8125
450670674696,-61,-3.75,-0.0625
450670689748,-59.1875,-8,5.75
450670712165,-57.0625,-5.3125,11.125
450670734676,-62,1.9375,12.75
450670749675,-61.1875,8.8125,11.875
450670772197,-57.8125,10,10
450670794784,-58.1875,8.25,6.4375
450670809710,-57.625,10.75,4.75
450670832184,-54.75,12.8125,4.25
450670854810,-49.8125,10,4.125
450670869795,-46.375,8.9375,2.8125
450670892221,-40.625,2.8125,1.25
450670914739,-37.6875,-6.0625,1.375
450670929736,-32.6875,-17.6875,4.8125
450670952306,-23.125,-19.5,11.6875
450670974748,-16.75,-18.3125,13.125
450670989765,-12.0625,-25.8125,11.75
450671012247,-4.5625,-31.8125,5.4375
450671034805,6.3125,-38.1875,-0.4375
450671049775,11.875,-53.6875,0.625
450671072217,16.9375,-51.6875,10.25
450671094741,29.5625,-36.25,26.0625
450671109769,44.25,-37.9375,28.5625
450671132154,47.0625,-28.875,15.3125
450671154771,48,-1.6875,-2.6875
450671169775,42.75,11.75,-4.125
450671192210,33.625,19.75,4.3125
450671214761,51.4375,-1.75,3.8125
450671229755,44.8125,-16.4375,-22.25
450671252240,10,-26,-55.8125
450671274743,3.0625,-40,-73.3125
450671289807,9.875,-40.3125,-76.25
450671312250,-5.75,-43.9375,-74.75
450671334731,-36.875,-37.8125,-75.625
450671349777,-49.0625,-5.75,-68.3125
450671372267,-55.4375,-5.9375,-53.6875
450671394757,-87.3125,-11.9375,-40.75
450671409760,-118.688,16.0625,-32.25
450671432236,-133.5,39.3125,-38.4375
450671454711,-164.5,70,-68.875
450671469715,-191.812,111,-106.438
450671492237,-214.062,103.062,-119.688
450671522317,-255.562,56.5625,-110
450671529713,-253.25,23,-71.4375
450671552239,-242.688,17.1875,-40.6875
450671574726,-269.812,39,-43.1875
450671589740,-277.125,43.75,-62.0625
450671612198,-257.75,42.5,-79.0625
450671634721,-256.5,10.25,-92.3125
450671649769,-261.938,-29.625,-87.625
450671672327,-265,-51.5625,-65.875
450671694796,-255.75,-59,-45.875
450671709721,-240.875,-57.9375,-43.6875
450671732261,-255.062,-46.3125,-64
450671754720,-264.562,-73.75,-81.5
450671769801,-239.25,-102.688,-79.5625
450671799779,-207.812,-78.3125,-75.9375
450671814735,-215.5,-31.625,-78.8125
450671829740,-234.062,-24.9375,-82.4375
450671852293,-204.188,-9.75,-73.9375
450671874764,-172.5,-36.9375,-64.5625
450671889789,-190.312,-52.625,-72.9375
450671912295,-213.75,-17,-92.9375
450671927280,-216.062,56.5,-89.4375
450671949770,-178.438,116,-87
450671972298,-171.25,146.5,-101.688
450671987265,-199.125,113.938,-101.188
450672009817,-207.312,71.75,-88.0625
450672032253,-155.062,61.5,-53.75
450672047271,-108.312,22.625,-23.125
450672069824,-144.562,58.25,-25.8125
450672092189,-97.1875,97.3125,-11.5625
450672107354,-27.5625,-1,-5.125
450672129743,-35.875,-94.25,-15.75
450672152249,-38.1875,-170.25,-18.8125
450672174807,-15.0625,-220.375,-6
450672189711,1.5625,-223.562,20.3125
450672212240,30.0625,-210.938,38.125
450672227269,19.625,-177.5,38.3125
450672249764,-25.125,-111.75,27.6875
450672272284,-10.0625,-8.75,23.875
450672287274,11.875,126.875,27.25
450672309734,-12.0625,220.875,-16.625
450672332278,-17.25,276.375,-76.375
450672347213,0.375,346.062,-99.6875
450672369816,-18.5,327.25,-84.125
450672392242,-17.625,285.125,-41.3125
450672407284,45.8125,150.188,15.625
450672429771,58.4375,-6.4375,48.25
450672452231,71.875,-69.8125,79.0625
450672467271,131.562,-170.938,93.5625
450672489788,158.438,-261.312,60.5
450672512253,168.875,-205.75,35.0625
450672527270,205.812,-129.062,34.8125
450672549833,234.562,-75,50.1875
450672572258,264.688,-7.75,75.3125
450672587259,294.812,30.125,99.125
450672609783,264.438,43.6875,96.125
450672632779,252.188,44.4375,93.9375
450672647238,306.625,53.6875,104.562
450672669801,293.938,45.0625,104.375
450672692484,248.875,34.875,92.3125
450672707274,263.5,42.5,99.3125
450672729841,286.875,41.6875,103.5
450672752295,274.25,21.0625,93.375
450672767200,252.75,4.0625,79.4375
450672789777,199.625,17.875,99.625
450672812283,199.188,-39.3125,141.25
450672827268,182.062,-74,162.562
450672849736,159.25,-97.8125,140.812
450672872352,108.688,-151.562,75.625
450672887288,86.3125,-121.625,23.4375
450672910213,124.312,-74.4375,0.6875
450672932338,96.3125,-19.4375,-39.5625
450672947260,49.5,178.5,-9.875
450672969734,11.5,257.688,-12.4375
450672992261,-23.1875,375.812,-23.8125
450673007285,-37.375,397.938,-42
450673029817,-95.5,354.25,-97.5
450673052343,-166.812,134.75,-124.125
450673067329,-210.062,-38.125,-147
450673089805,-173.938,-257.375,-136.562
450673112288,-153.438,-178.125,-121.125
450673127298,-158.188,-228.062,-97.125
450673149763,-49.9375,-93.4375,-45.1875
450673172330,11.375,-36.5625,-14.25
450673187327,-15,24.75,-13.9375
450673209792,-56.875,27.5625,-24.4375
450673232294,-69.6875,-1.1875,-38.6875
450673247261,-69.8125,-83.1875,-37.3125
450673269835,-142.312,-129.438,-77.25
450673292250,-139.688,-169,-77.375
450673307268,-82.375,-134.375,-62.6875
450673329799,-69.125,-108.5,-42.8125
450673352370,-56.6875,-96.9375,-19
450673367292,-2,-74.125,10
450673389780,70.8125,-69.9375,36.0625
450673412314,93.25,-36,63.25
450673427316,109.875,3.5,79.5
450673449825,167,37.9375,94.4375
450673472297,193.5,36.625,100.312
450673487424,183.562,38.1875,110.812
450673509728,218.938,29.1875,122.062
450673532297,257.75,1.375,136.625
450673547264,243.25,-23.3125,138.375
450673569836,164.062,30.4375,161.188
450673592301,238.375,108.188,177.25
450673607255,113.25,226.5,143.438
450673629831,11.4375,215.188,138.375
450673652245,115.75,248.688,159.375
450673667286,232.375,209.25,202.5
450673689825,216.188,190.125,205.938
450673712193,247.5,112.125,200.75
450673727311,216.625,17.9375,158.938
450673749818,257.312,-43.8125,112
450673772259,82.8125,-71.3125,-15.6875
450673787220,29.3125,-131.812,-70
450673809812,-21.3125,-110.312,-116.688
450673832284,-65.75,-146.562,-132.938
450673847307,0.5,-121.812,-78.6875
450673869819,69.1875,-64.375,-9.25
450673892262,45.25,-87.4375,45.5
450673907258,-7.75,-98.6875,62.4375
450673929820,88,-148.562,108.75
450673952324,49,-75.6875,113.438
450673967326,16.1875,-66.0625,127.812
450673989822,55.125,-75.375,140.312
450674019781,23,-68.6875,117.312
450674027324,-23.4375,-76.125,86.6875
450674049853,-42.75,-98.25,53.1875
450674072283,-23.75,-91.9375,29.125
450674087270,-34.9375,-69.0625,7.4375
450674109807,-41.375,-59.625,10.5
450674132286,-27.8125,-71.375,27
450674147339,-42.5,-91.625,23.125
450674169884,-57.9375,-111,10.375
450674192330,-58.875,-113.062,4.5
450674207285,-64.5625,-102.5,1.25
450674229764,-56.625,-139.5,10.75
450674252340,-35.875,-153.688,22.6875
450674267321,-25.3125,-145.625,30.5
450674289806,3,-137.938,44.3125
450674312349,26.625,-128.812,46.3125
450674327303,-1.4375,-86.625,29.625
450674349791,16.1875,-23.125,28.8125
450674372335,54.75,18.625,-0.0625
450674387306,37.4375,48.875,-16.1875
450674409841,105.062,32,1.0625
450674432347,80.625,7.875,-25.625
450674447323,56.6875,39,-54.8125
450674469825,71.875,72.1875,-58.6875
450674492314,59.5625,79.625,-65.75
450674507346,11.75,106.062,-72.1875
450674529789,5.0625,124.188,-62.8125
450674552309,-3.625,86.875,-42.375
450674567286,-5.75,18,-28.1875
450674589802,0.9375,72.9375,-6.875
450674612382,-3.75,71.1875,-4.5625
450674627323,14.8125,78.0625,-17.25
450674649717,-25.375,58.9375,-72.8125
450674672358,-15.125,95.75,-82
450674687350,31.9375,101,-62.8125
450674709737,52.25,107.75,-28.125
450674732351,63.8125,135.938,-12.75
450674747347,43.4375,126.75,-24.0625
450674769866,30.625,69.6875,-30.9375
450674792358,42.8125,39.6875,-18.4375
450674814838,94.125,109,5.625
450674829760,80.6875,-17.9375,25.625
450674852290,46,-10.1875,-6.0625
450674867372,40.9375,49.1875,-13.125
450674889822,30.625,47.8125,-21.5
450674912351,14.75,52.75,-24.9375
450674927403,15.125,50.1875,-20.625
450674949848,10.125,38.4375,-19.5625
450674972304,29.5,57.375,-15.25
450674994824,32.5,24.1875,-23.25
450675009869,-6.0625,70.25,-42
450675032289,1.1875,71.625,-41.125
450675054841,28.625,9.6875,-17.9375
450675069819,43.6875,49.1875,-23.25
450675092286,21.5625,55.5,-45.5
450675114846,30.5,28.6875,-42.6875
450675129877,29.3125,12.6875,-45.375
450675152274,25.75,17.5625,-48.75
450675174874,57.9375,-6.75,-40.625
450675189797,-9,-35.3125,-79.5
450675212346,11.5,30.5625,-48.3125
450675234851,50.4375,-16.9375,-8.0625
450675249890,25.9375,-5.1875,-11
450675272328,-17.125,2.625,-19.3125
450675294849,-12.8125,-21.5625,-3.125
450675309870,11.1875,-38,14.5
450675332251,0.1875,-50.5625,4.125
450675354840,-4.5625,-34.6875,-6.5625
450675369855,7.625,-34.125,-11.125
450675392269,30.75,-52.1875,-6.125
450675414838,45.25,-81,-0.4375
450675429883,48.0625,-102.75,-4.875
450675452366,47,-136.25,-19.6875
450675474824,69.625,-143,-24.3125
450675489819,59.4375,-155.625,-42.125
450675512257,74.9375,-142.812,-59.6875
450675534862,78.125,-179,-79.1875
450675549867,112.25,-241.562,-84.75
