myot,x,y,z
450348380662,3.3125,1.25,21.3125
450348404488,-0.5625,-1,22.5625
450348419482,-0.5,-2.625,23.9375
450348440775,-0.5,-3.6875,24.0625
450348464527,-3.1875,-2.3125,22.9375
450348479423,-0.6875,-6.625,24.625
450348500861,2.4375,-10.75,25.3125
450348540292,7.4375,-10.625,21.0625
450348563011,25.375,1.0625,13.3125
450348563791,38.75,0.3125,8.4375
450348584572,48.625,-3.1875,7.6875
450348610390,53.4375,-12.5625,8.3125
450348629061,49,-27.6875,7.125
450348665737,56.1875,-30.375,5.5625
450348675788,76.9375,-61.875,12.5
450348682162,62.75,-76.625,7.9375
450348703669,63.625,-82.25,9.4375
450348719674,67.375,-73.125,9.375
450348740724,54.375,-58.6875,9.4375
450348763837,55.375,-34.1875,10.5625
450348779594,44.9375,-22.3125,10.625
450348800690,26.9375,1,4.6875
450348823936,16.3125,9.9375,0.9375
450348847743,6.5,21.375,-2.875
450348860688,-7.25,23.3125,-6.5625
450348883887,-16.25,22.625,-8
450348899692,-21.8125,26.375,-7.1875
450348920692,-24.5625,32.8125,-5.9375
450348943819,-21.4375,35.3125,-3.8125
450348959680,-16.9375,43.875,0.4375
450348980630,-14.625,41.5,6.875
450349003821,-9.4375,37.0625,12.875
450349019682,-3.375,22.5,19.375
450349042133,-4.3125,9.4375,20.3125
450349063838,2.5,-0.75,22.1875
450349079630,5.8125,-7.875,21.25
450349110247,5.875,-11.3125,18.6875
450349123735,8.3125,-9.8125,16.5625
450349139597,8.6875,-12.5,13.375
450349162079,5.5,-15.6875,9.3125
450349183793,3.4375,-16.8125,5.4375
450349199611,1.0625,-18.375,0.1875
450349222067,-3.5,-21.5625,-2.25
450349243754,-4.25,-22.875,-4
450349259603,-8,-24.3125,-8.125
450349282075,-13.4375,-24.125,-12.75
450349303147,-10.375,-16.6875,-16.3125
450349327733,-6.9375,-12.9375,-17.6875
450349342092,-10.125,-5.875,-17.9375
450349363188,-11.75,-1.75,-17.1875
450349387818,-8.0625,0.125,-14.9375
450349402685,-7.5,2.375,-12.6875
450349423149,-6.25,4.3125,-9.3125
450349439692,-2.875,6.9375,-4.875
450349462107,0.75,14.9375,-0.8125
450349483225,7.1875,18.8125,4.6875
450349499648,10.1875,27.375,7.375
450349530300,13.375,36.375,9.5625
450349543148,16.875,37.4375,11.75
450349559645,13.5625,34.6875,11.75
450349582129,7.375,22.625,9.5
450349603188,5.1875,17.6875,7.875
450349619605,2.3125,4.75,8.75
450349648807,-1.875,5.125,6.125
450349664603,-0.8125,2.875,6.75
450349687775,-4.5625,4.375,5.5
450349702078,-6.25,-1.9375,4.8125
450349724598,-4.8125,-10.75,5.3125
450349747686,-9.375,-18.5,2.6875
450349768771,-9.4375,-23.625,1.5625
450349784589,-8.8125,-29.1875,2.625
450349807863,-11.6875,-29.3125,2.9375
450349828807,-5.3125,-23.6875,3.9375
450349844688,-3.5,-20.125,3.9375
450349867763,-6.75,-11.9375,1.375
450349888917,-3.8125,-5.875,-1.3125
450349912754,-3.1875,-1.25,-4.5
450349927768,-6.875,-1.4375,-6.9375
450349948877,-4.5625,-2.75,-8.5625
450349964612,-5.375,-3.875,-9.1875
450349987780,-6.25,-4.0625,-10.0625
450350008791,-0.125,-2,-9.8125
450350024601,1.625,3.9375,-8.1875
450350047726,5.125,14.25,-6.5625
450350060670,10.4375,18,-3.25
450350083802,11.6875,25,-0.625
450350098115,12.5,18.25,1.3125
450350120619,12.875,11.0625,2.8125
450350143791,13.9375,5.8125,5.5625
450350158079,12.5,1.5,7.5
450350180637,10.75,6.125,8
450350203814,6.5,9.4375,8.875
450350218086,1.4375,8.375,6.3125
450350240675,-1.1875,8.6875,2.4375
450350263815,-4.875,2.5625,-0.375
450350278169,-11.25,-1.3125,-3.9375
450350300612,-11.375,-8.125,-5.125
450350323847,-14,-10.75,-6.375
450350338115,-14.6875,-10.625,-7.5625
450350360645,-6.4375,-6.8125,-5.5
450350383799,-4.125,-6.1875,-3.3125
450350398104,-4.5,-5.875,-2
450350420617,-0.9375,-9.4375,-0.375
450350443796,-1.3125,-13.5,-0.375
450350458175,-2.5,-18.3125,-1.25
450350480615,-0.1875,-18.5625,-0.3125
450350503815,0.9375,-10.5,-1.125
450350518149,1.125,-4.4375,-1.8125
450350540677,1.25,3.6875,-3.3125
450350563794,3,12.875,-5.75
450350578183,4,14.125,-6.125
450350600703,4,14.0625,-5.875
450350623824,5,15.0625,-5.0625
450350638188,7.8125,15.875,-3
450350660654,8.5,21.5625,-3.1875
450350683833,7.625,19.4375,-2.25
450350698145,5,15.6875,-1.0625
450350720668,2.4375,4.4375,0.125
450350743763,1.25,-5.4375,1.8125
450350758146,-3.6875,-12.9375,3.9375
450350780650,-6.5,-11.5625,5
450350803809,-5.125,-6.375,7.4375
450350818141,-7.6875,0.125,8.5
450350840642,-9.25,4,8.375
450350863800,-8.4375,1.5,8.5
450350878156,-11.9375,-5.625,8.1875
450350900689,-14.0625,-11.4375,7.25
450350923847,-11.625,-14.0625,7.4375
450350938179,-8.875,-14.4375,7.625
450350960651,-7.875,-11.9375,6.875
450350983829,-3.9375,-6.5,6.25
450350998146,0.4375,0.1875,4.875
450351020655,1.4375,2.5625,2.75
450351043801,4.375,3.75,-0.4375
450351058166,7.1875,5.75,-3.9375
450351080679,6.25,2.25,-5.875
450351103825,8.1875,2.125,-6.5625
450351118164,10.1875,-1.125,-6.5625
450351140711,6.5,-1.4375,-6.9375
450351163852,8.6875,1.9375,-6.25
450351178196,11.9375,2.875,-3.9375
450351200683,10.625,0.8125,-1.0625
450351223798,8.1875,2,1.5
450351238151,8.4375,4.75,4.5625
450351260661,7.75,7.125,7.125
450351283139,4.0625,5.75,8.625
450351298188,2.125,4.75,9.4375
450351328825,-0.5625,0.0625,8.75
450351343212,-5,-5.875,7.625
450351358144,-8.6875,-7.3125,6.1875
450351380658,-11.9375,-6.9375,3.6875
450351403250,-14.6875,-3.5,0.8125
450351418188,-14.6875,-3.375,-1.4375
450351440766,-11.8125,-0.125,-3.5625
450351463210,-8.125,-0.0625,-3.6875
450351478237,-5.9375,-3.0625,-3.75
450351500786,-3.0625,-4.375,-4.0625
450351523112,-0.8125,-7.625,-3.75
450351538141,2.9375,-7.5625,-4
450351560619,7.625,-8.3125,-3
450351583177,10.875,-5.0625,-1.8125
450351606312,14.8125,1.3125,-0.9375
450351620697,17.0625,8.625,0.0625
450351643156,16,13.0625,0.5625
450351658174,14.875,15.75,0.375
450351680640,11.75,11.875,0.8125
450351703175,7.5,5.4375,0.8125
450351718283,2.9375,-5.875,0.9375
450351740792,-2.9375,-7.4375,-0.0625
450351763237,-3.0625,-2.5625,1.1875
450351778239,-2.3125,2.8125,2.375
450351800711,-6.25,7.125,2.4375
450351823247,-6.75,6.25,2.8125
450351838236,-6.625,-0.9375,2.5625
450351860768,-8.625,-8.875,3.875
450351883270,-10.0625,-22.625,6.5
450351898247,-8.9375,-20.75,5.125
450351920753,-5.4375,-17.875,5.9375
450351943202,-6.75,-12.4375,5.4375
450351958243,-2.4375,-1.375,4.5
450351980799,3.0625,7.5625,3.6875
450352003192,2.625,13,2.75
450352018266,3,8.9375,2.125
450352040758,3.6875,8.0625,-1.0625
450352063256,6.125,9.0625,-3.8125
450352078248,6.1875,6.9375,-5.9375
450352100741,5.25,2.4375,-6.75
450352123133,8.625,2.875,-7
450352139629,8.1875,1.0625,-7
450352160673,5.5,-0.9375,-6.125
450352183206,8.75,-3.625,-3.4375
450352199652,7.6875,-1.5625,-1.25
450352220815,1.8125,-4.625,-1.4375
450352243284,-0.9375,-3.125,-1.4375
450352259685,-1.125,-4.9375,-0.4375
450352280788,-3.8125,-4.8125,0.375
450352303227,-6.8125,-8.8125,1.75
450352319696,-9.75,-6.875,2.125
450352340714,-9,-4.8125,2.8125
450352363264,-8,1.375,1.9375
450352379711,-8.5625,0.0625,3.0625
450352400798,-8.6875,-1.625,3.5
450352423211,-5.5625,-2.75,4.4375
450352439635,-3.625,-1.25,4.25
450352460674,-3.4375,0.4375,3.125
450352483175,-0.375,2.625,2
450352499637,3.9375,4.9375,1.4375
450352520677,6.625,5.625,1.8125
450352537082,6.125,1.5,1.625
450352559645,7.9375,2.125,0.875
450352580669,10.9375,2,1.25
450352597200,10.1875,1.375,0.5
450352619698,8.5,0.8125,-0.6875
450352643661,9,0.1875,-0.3125
450352663187,5.625,0.4375,-1.125
450352680385,2.8125,3.0625,-2.25
450352700740,1.3125,4.4375,-3.375
450352717166,-2.625,5.125,-4.375
450352739666,-3.5,4.125,-4.375
450352760698,-3.6875,0.5,-3
450352777173,-6.25,-2.8125,-2.625
450352799638,-3.6875,-5.8125,-0.8125
450352820647,-3.625,-6.125,0.0625
450352837118,-2.6875,-1.6875,1.25
450352859615,0.0625,-2.75,3.5625
450352883642,-0.5,-4.5625,3.9375
450352897145,0.4375,-6.875,4.125
450352919640,1,-8.25,4.125
450352940671,-0.625,-7.4375,4.1875
450352957243,-0.6875,-5,3.625
450352979660,-0.9375,-3.625,2.6875
450353000733,-3.1875,-3.5625,0.75
450353017209,-5.8125,-10.0625,-1.375
450353039710,-5.125,-14.625,-3.3125
450353060817,-2.375,-19,-2.25
450353083260,-1.875,-24,-0.3125
450353099708,-1.4375,-21.375,1.625
450353122231,8.3125,-3.75,3.6875
450353143240,16.0625,5.6875,7.3125
450353159649,14.5625,18.875,8.5
450353182166,18.75,24.75,11.0625
450353203167,19.625,27.4375,11.125
450353221099,14.375,26.8125,8.25
450353242192,14.4375,24.1875,4.75
450353263182,12.375,25.1875,1.3125
450353279664,5.0625,15.6875,-1.6875
450353302151,3.4375,10.6875,-3.875
450353324709,2.375,3.4375,-5.875
450353347190,-1.1875,-2.375,-6.6875
450353362217,-1.625,-5.6875,-5.8125
450353378663,0,-10.25,-3.3125
450353399737,-2.3125,-12,-1.1875
450353422260,-2.25,-15.3125,1.0625
450353438625,0.4375,-13.625,2.375
450353459666,-2.6875,-14.9375,2.125
450353482142,-6.4375,-15.5,2.375
450353498637,-8.5625,-17.5,2.3125
450353519643,-11.1875,-16.5625,0.875
450353541490,-12.1875,-12.8125,0.3125
450353563924,-12.9375,-7.625,-0.875
450353578983,-12.1875,0.3125,-1.9375
450353601331,-10.1875,4.6875,-2.6875
450353623850,-8.6875,8,-3.875
450353638946,-4.6875,5.1875,-2.1875
450353661348,-2.4375,2.25,-1.5625
450353684015,-0.4375,-2.1875,-0.0625
450353698944,3.75,-1.6875,1
450353728877,7.9375,1.375,1.375
450353752001,10.25,5.1875,1.4375
450353758848,13.5,8.8125,1.3125
450353781364,14.3125,8.5,0.75
450353805294,12.9375,6.1875,0.3125
450353818851,10.9375,3.5,-0.375
450353841441,8.0625,1.6875,-1.5
450353864000,4.5625,0.375,-2.125
450353878912,2.875,-0.25,-2.875
450353901390,0.5,0.5,-2.25
450353923959,-2.0625,0.6875,-1.6875
450353938918,-3.3125,1.625,-1.6875
450353961490,-4.9375,-1.9375,-1.1875
450353983965,-8.25,-4.9375,-1.4375
450353998919,-9,-8.0625,-0.5
450354021449,-8.0625,-8.9375,1.1875
450354043866,-7.8125,-2.9375,0.6875
450354060419,-4.4375,5.3125,0.25
450354081384,-1.625,9.1875,-0.875
450354097276,1.625,11.0625,-1.6875
450354120377,7.3125,9.5,0.375
450354141385,10.875,12.8125,1.3125
450354157168,13.625,11.875,2.875
450354180324,15.9375,11.9375,3.6875
450354201432,15.375,2.9375,3.9375
450354223865,12.125,-6.1875,2.6875
450354240300,6.625,-17.875,1.1875
450354261336,1.5,-20.875,-0.625
450354284016,-3.3125,-20.75,-1.1875
450354300449,-8.5,-14.5625,-2.25
450354321434,-11.5625,-7.5625,-2.6875
450354343966,-14.125,-4,-2.625
450354360444,-17,-3.6875,-3.5
450354382948,-17.6875,-2.375,-3.1875
450354397255,-18.6875,-4.3125,-4.25
450354420413,-20,-1.4375,-6.875
450354441376,-16.3125,1.75,-7.6875
450354463984,-13.25,1.5625,-8.4375
450354480382,-10.375,2.0625,-9.125
450354501531,-1.9375,1.25,-7.6875
450354517257,1.4375,-3.9375,-6.1875
450354540332,4.5,-7.5625,-4.375
450354561337,12.1875,-8.125,-1.0625
450354577145,14.8125,-4.25,1.8125
450354600293,16.8125,0.5,4.125
450354621380,20.1875,7.125,5.875
450354651389,19.375,15.5625,5.9375
450354660326,16.0625,16.5625,5.1875
450354681494,11.4375,16.6875,3.125
450354703941,7.375,14.75,1.3125
450354720392,1.6875,10.6875,-1.25
450354741444,-5.375,7.125,-4.875
450354763968,-8.125,5.3125,-8.375
450354780439,-9.25,4.4375,-11.25
450354801472,-11.625,1,-13.75
450354824012,-12.3125,-3.625,-16.0625
450354840359,-9.75,-9.625,-17.3125
450354861435,-9.8125,-23.5625,-17.25
450354883975,-10.3125,-28.0625,-16.625
450354900426,-4.6875,-26.75,-13.1875
450354921369,-1.1875,-19.1875,-9.0625
450354943958,-1.625,-17.9375,-4.75
450354960129,3.5625,-5.25,-1.3125
450354981479,8.5625,-2.25,5.4375
450355003715,5.625,9.375,9.25
450355019774,6.25,19.875,10.3125
450355041441,11.1875,36.75,9.875
450355063967,10.625,43.25,7.125
450355079759,8.5625,42.5625,2
450355102908,9,38.75,-3.8125
450355123987,-4.1875,14.125,-12.25
450355139694,-9.1875,3.0625,-18.5625
450355162880,-6.1875,-21.5625,-18.1875
450355183899,-12.625,-20.5,-21.9375
450355199670,-9.625,-23.5,-18.625
450355222872,-8.8125,-18.8125,-13.8125
450355237175,-5.125,-10.25,-8.625
450355259634,-2.625,-15.625,-5.125
450355282923,-1.75,-18.5,2.5625
450355303988,-5.5,-25.3125,10.4375
450355319722,-1.6875,-35.5625,18.5
450355342970,-0.125,-35.625,24.6875
450355363968,-7.8125,-33.1875,25.375
450355379711,-2.5625,-23.8125,27.0625
450355402870,2.125,-6.375,25.625
450355423999,-0.6875,5.5,23.6875
450355439770,-0.4375,14.375,20.6875
450355462889,1.5,27.375,17.1875
450355483921,3.875,33.4375,11.6875
450355499663,4.8125,37.375,5.125
450355522854,7.9375,36.875,0
450355543947,11.9375,33.1875,-4.5625
450355560449,11,24.125,-8.625
450355582958,12.1875,14.3125,-13.1875
450355603992,7.875,-5.375,-16.125
450355619753,18.3125,12.625,-18.625
450355642918,22.5,18.375,-19.0625
450355663956,16.625,42.25,-19.75
450355679763,6.625,22.9375,-14.8125
450355702909,-1.625,18.0625,-16.5
450355723902,-1.0625,-5.125,-11.5
450355739698,-20.3125,-22.25,-12.875
450355762865,-33.3125,-34.8125,-16.3125
450355783928,-30,-26.9375,-16.25
450355799764,-24.6875,-20.75,-13.25
450355823001,-26.5,-21.375,-8.625
450355844014,-24.375,-21.8125,-6.9375
450355859742,-13,-21.5625,-0.5625
450355882958,-7.375,-29,8.4375
450355905421,-1.625,-35,17.75
450355919764,4.875,-33.4375,23.5625
450355942274,5.25,-33.1875,22.8125
450355963931,7.8125,-23.375,21.5
450355979712,12.5625,-23.75,22.4375
450356002199,11.5,-15.5,20.8125
450356025348,9,-15.75,18.4375
450356039671,5.75,-9.5625,13.5625
450356062240,2.8125,-4.125,9.25
450356085424,-2.1875,-0.125,5.8125
450356099805,-8,2.375,0.9375
450356122314,-7.5625,15.1875,-5
450356151488,-5.8125,22.4375,-9.5
450356159804,-7.0625,28.1875,-12.875
450356182263,-4.6875,28.25,-13.9375
450356205446,-1.125,26.5625,-13.0625
450356227926,-0.4375,25.875,-13.5
450356242252,4.5625,24.25,-12.125
450356265375,10.375,32.3125,-11.0625
450356286394,14.875,32.0625,-7.25
450356302194,20.1875,33.125,-3.1875
450356325373,24.4375,35.375,1.125
450356346549,29.4375,34.75,3.25
450356362264,26.5,24,4.6875
450356392952,26.8125,23.375,7.75
450356406531,26.25,8.5625,9.75
450356422240,19.5,4.875,9
450356445360,16.9375,-3.5625,9.3125
450356466511,8.125,-7.75,7.1875
450356482313,0.6875,-14.5,6.625
450356505430,-6.125,-16.5625,4.75
450356526533,-17.5625,-23.25,1.8125
450356542293,-23.1875,-26.25,0.5
450356565407,-27.75,-31.625,-0.1875
450356593791,-33.5625,-30.5,-1
450356603678,-34.25,-28.3125,-0.1875
450356625524,-32.3125,-19.4375,-1.25
450356646501,-29.6875,-15.6875,0.3125
450356662324,-25,-13.875,1.875
450356685443,-18.625,-14.75,3.5
450356706461,-13.3125,-18.5625,5.25
450356722221,-6.8125,-19.125,5.25
450356745394,0.75,-21.9375,6.9375
450356766224,5,-20.8125,7.4375
450356782255,9.5,-19.3125,7.6875
450356805407,13,-13.875,7.125
450356826430,13,-6.1875,4.8125
450356842264,14.625,3,2.0625
450356865434,15.75,13.5625,-0.75
450356886512,12.375,19.4375,-4.5
450356902209,9.3125,22.5625,-7.625
450356924903,8.125,25.375,-9.4375
450356948008,4.875,21.1875,-10.5
450356962312,3.3125,23.125,-11.9375
450356984740,2.8125,23.1875,-10.4375
450357007896,3.875,28.625,-9.375
450357021457,5.75,30.5625,-7.8125
450357035756,10.875,31,-7.0625
450357058253,10,28.4375,-4.75
450357081426,10.25,23.125,-0.6875
450357095761,10.875,12.3125,1.6875
450357118292,11.375,4.3125,3.625
450357141500,11.75,-1.9375,5.3125
450357155824,8.4375,-11.4375,5.9375
450357178297,5.4375,-15.375,6.1875
450357201427,1.75,-17.1875,5.8125
450357215940,-2.625,-20,4.75
450357238342,-7.625,-21.1875,3.375
450357261557,-13.5625,-22.625,2.375
450357275870,-16.5,-20.4375,2
450357298392,-19.3125,-20.875,1.5625
450357321483,-21.5,-16.375,-0.375
450357335822,-20.75,-11.6875,0.25
450357358423,-19.9375,-15.25,1.5
450357381579,-14.6875,-12.1875,1.9375
450357403901,-11,-12.125,2.9375
450357418253,-10.1875,-8.8125,2.375
450357441412,-3,-9.5,3.375
450357455760,2.6875,-6.875,4.125
450357478275,2.875,-4.3125,3.0625
450357501476,8.125,0.625,2.6875
450357515889,12,2.25,2.375
450357538362,11.625,8.3125,1.125
450357561547,11.4375,8.875,1.0625
450357575927,10,10.875,0.3125
450357598360,8.0625,11,-0.6875
450357621577,8.625,16.9375,-2.5625
450357635894,6.6875,19.75,-5.125
450357658343,6.3125,19.8125,-6.3125
450357681525,7.25,13.25,-6.25
450357695801,6.1875,14.1875,-7.3125
450357718314,1.8125,6.8125,-6.125
450357741449,1.5625,14.3125,-5.375
450357755819,7.0625,6.375,-4.25
450357778380,3.875,6,-4.375
450357801557,5,3.1875,-1.1875
450357815825,5.3125,3.125,-0.3125
450357838476,2.8125,-4.625,1.9375
450357862139,2,-5.0625,4.1875
450357875872,-0.8125,-13.9375,4.3125
450357898390,-2.4375,-12.75,5.0625
450357920888,-5.5625,-10.625,4.9375
450357935845,-6.3125,-7,3.6875
450357958385,-5.4375,-2.1875,2.8125
450357989700,-9.0625,-5.4375,2.8125
450357995794,-9.8125,-8.0625,2.1875
450358018246,-9.6875,-12,2.4375
450358040783,-9.0625,-11.4375,2.3125
450358055810,-7.625,-11.6875,3.1875
450358078301,-7.3125,-9.3125,2.9375
450358100785,-3.375,-2.125,2.6875
450358115786,-0.75,-1.8125,2.875
450358138366,0.4375,0.875,1.5625
450358160940,2.4375,-3.25,2.625
450358175889,1.6875,-6.1875,2.625
450358198380,3.6875,-6.8125,1.5
450358220859,4.5,-6.3125,0.875
450358235872,2.5625,0.375,-1.4375
450358266512,6.0625,5.625,-2.75
450358280905,7.625,7.4375,-3.25
450358295917,4.5625,9.0625,-4.3125
450358319756,4.5,7.75,-4.5625
450358340813,4.9375,6.75,-4
450358355794,3.625,5.5,-3.6875
450358378252,3.875,7.875,-3.0625
450358400779,4.375,11.875,-2.5
450358415822,5.25,12.4375,-1.375
450358438392,5.3125,13.1875,-0.4375
450358460928,4.375,8.9375,1
450358475934,1.625,4.875,1.6875
450358498437,1.375,2.5,2.4375
450358520934,1.8125,0.6875,2.9375
450358535861,-0.875,0,2.1875
450358558395,-2.5,-2,1.9375
450358580971,-2.9375,-4.375,1.9375
450358595835,-4.8125,-7.6875,1.375
450358618365,-6.0625,-8.75,0.875
450358640869,-6.375,-11.0625,1.8125
450358655863,-7.5625,-11.125,1.3125
450358678308,-6.3125,-11.25,1.75
450358700839,-5.25,-8.875,1.625
450358715899,-5.6875,-7.75,0.75
450358738420,-4.1875,-5.6875,0.9375
450358760885,-2.4375,-2.6875,0.625
450358777307,-1.375,-4.25,0.625
450358798408,-0.5,-2.4375,-0.0625
450358820900,1.25,-1.625,0.375
450358837323,1.25,-3.625,0.3125
450358858365,1.875,-1.375,-0.625
450358880894,4.75,-0.8125,0
450358897285,3.875,1.375,-0.5
450358918270,5.0625,4.1875,0.1875
450358940802,6.375,6.1875,1.0625
450358957261,4.8125,8.1875,0.375
450358978353,4.8125,7.5625,0.1875
450359000875,5.0625,8,0.375
450359017329,4,8.0625,-0.125
450359038439,4.25,8.125,-0.5
450359060990,5.0625,8.9375,-0.5625
450359078773,4.4375,8,-0.25
450359101260,4.125,4.0625,0.3125
450359129087,2.625,0.625,0.6875
450359137367,1.8125,0.8125,0.1875
450359158379,1.5,-1.75,0.0625
450359180827,-0.75,-1.8125,0.25
450359197267,-2.5,-4.375,0.125
450359218320,-4,-9.4375,-0.125
450359240895,-5.5,-11.25,0.125
450359257372,-7.0625,-14.9375,0.625
450359278414,-6.875,-13.8125,0.75
450359300937,-7.3125,-13.9375,1.5
450359317317,-8.5,-8.625,1.0625
450359338458,-6.0625,-2.875,1.25
450359360873,-2.625,4.9375,0.5
450359377284,-0.3125,6.9375,1.3125
450359398463,0.5,6.25,2.125
450359420897,0.5,4.1875,1.9375
450359437326,0.6875,-1.5625,2.3125
450359458401,-0.9375,-8.5,0.9375
450359480893,-1.125,-10.375,-0.875
450359497403,0.6875,-10.9375,-0.8125
450359518420,1.8125,-6.75,-0.9375
450359540921,3.6875,-4,-0.6875
450359557406,5.125,2.125,-0.6875
450359578300,5.6875,10.0625,-1
450359600838,6.875,11.9375,-1
450359617301,7.5,14.5,-1.1875
450359638361,6.6875,12.125,-1.375
450359660874,5.75,10.1875,-1.75
450359677339,5.9375,6.625,-1.5625
450359706565,5.625,6.6875,-1.1875
450359720913,4.5625,3.25,-0.0625
450359744870,4.1875,1.9375,0.625
450359759856,5.1875,2.8125,1.125
450359780914,4.5,5.375,2.3125
450359797283,2.25,7.25,3.5
450359819886,2,3.875,4.625
450359840951,-2.0625,0.3125,3
450359857412,-6.75,-3,0.75
450359879938,-8.125,-4.6875,-0.25
450359900950,-8.1875,-6.75,-0.875
450359917436,-9.4375,-7.125,-2.375
450359939882,-11.1875,-9.1875,-4.8125
450359960908,-9.875,-13.5,-6.3125
450359977327,-9.3125,-23.125,-5.0625
450359999789,-11.0625,-32.8125,-1.3125
450360020798,-10.375,-37.125,2.125
450360037297,-5.75,-27.9375,1.9375
450360059895,-1.125,-15.1875,-0.3125
450360080919,0.3125,-8.25,0.4375
450360097408,-2.9375,-10.625,2
450360119813,-4.0625,-16.3125,5.4375
450360140907,-3.875,-11.875,1.8125
450360157322,-2.9375,-11.8125,-2.6875
450360179904,-4.6875,-9.375,-4.5
450360200940,-4.8125,-1.875,-4.875
450360217315,-0.1875,8.8125,-3.0625
450360239800,-7.8125,8.6875,2
450360263838,-10.375,13.6875,-4.375
450360277290,11.9375,50.75,-9.375
450360299786,10.9375,42,-10.5
450360320886,-7.1875,27.6875,-10.3125
450360337288,2.6875,7.8125,-0.125
450360359787,7.8125,-15.375,0.1875
450360380804,-14.1875,-5.5,-14.5625
450360397299,-10.5625,-11.6875,-17
450360419766,-3.375,-15,-13.25
450360440896,-13,-22.125,-13.75
450360457371,-5.5,-7.875,-9.9375
450360479861,0.0625,4.5625,-5.6875
450360500841,2.9375,18.375,-0.9375
450360517330,12.5,19,6
450360539083,10.875,27.1875,9.625
450360561611,4.25,19.1875,12.6875
450360576559,10.9375,11.0625,10.8125
450360599093,18.25,7.5,4.0625
450360621523,0.9375,0.1875,-3.3125
450360636485,-14.5625,-2.6875,-11.375
450360659038,-2.125,12.625,-12.625
450360681500,-7.9375,27.9375,-21.5625
450360695852,-18.5,40.875,-29.375
450360718980,-9.5,34.25,-26.4375
450360741550,-8.4375,38.5625,-25.625
450360758011,-10.8125,18.3125,-24.4375
450360779026,-34.125,-19.875,-22.75
450360801503,-20.625,4.1875,-24.4375
450360817944,-1.3125,-5.4375,-19.25
450360839072,-29.9375,1.125,-17.5
450360861595,-20.3125,53.4375,-20
450360878083,10.0625,55.3125,-14.75
450360899119,-8.5,106.312,-17.125
450360921667,-21.75,68.1875,-3.875
450360938061,-19.25,67.875,2.625
450360959009,-36.0625,42.4375,3.25
450360981557,-46.625,7.5,8.25
450360997980,-79.375,-23.0625,5.375
450361019046,-92.9375,-35.9375,0.9375
450361041509,-151.438,-95.375,14.25
450361057970,-174.125,-67.8125,-6.625
450361079020,-138.938,-66.6875,-14.9375
450361101509,-168.5,-52.625,-25.875
450361117956,-209.5,6.25,-28.9375
450361139064,-221.438,42.375,-35.5
450361161576,-210.438,75.125,-41.25
450361177972,-235,45.375,-64.6875
450361199061,-178.5,62.25,-56.375
450361221549,-100.125,58.5625,-47.75
450361245504,-75.75,53.875,-30.875
450361259070,-40.75,23.3125,-17.125
450361281563,-10.0625,35.75,-27.125
450361298014,-12.5,42.9375,-30.5
450361319063,17.625,69,-25
450361341553,37.8125,74.5,-9.9375
450361357313,45.4375,60.0625,-0.4375
450361379019,-1.75,4.5625,-9.875
450361401556,-25.5625,-29.3125,-30.4375
450361417947,-2.6875,-48.25,-37.4375
450361446544,-43.5625,-10.9375,-47.3125
450361461577,-54.4375,32.1875,-50.5
450361485492,-44.75,36.6875,-55.375
450361499036,-66.375,26.4375,-65.8125
450361521548,-66.4375,23.6875,-76.375
450361537967,-81.0625,6.375,-110.438
450361559018,-100.75,21.4375,-116.5
450361581574,-97.8125,34.5,-109.5
450361597997,-57.5625,42.5625,-79.5625
450361620479,-42.0625,54.3125,-40.0625
450361641513,-43.375,33.75,-13.9375
450361657286,-23.5625,-10.9375,8.75
450361679004,-14.5,-26.125,11.625
450361701493,-11.625,-25.375,-2.3125
450361717377,-14.375,-16.0625,-18.875
450361740549,-22,14.25,-34.625
450361761546,5.1875,42.125,-34.3125
450361777322,22.75,56.375,-33.1875
450361800469,19.25,66.125,-35.625
450361821540,40,48.5,-22.25
450361837365,56.4375,28.1875,-4.875
450361860532,69.3125,1.9375,8.4375
450361881597,25.9375,-59.3125,23.8125
450361897339,57.8125,-91.5625,45.75
450361920262,144.938,-108.438,68.3125
450361941568,45.9375,-147.812,57.9375
450361957322,-39.5625,-134.125,67.8125
450361980476,14.25,-85.1875,96.375
450362001550,95.875,-69.9375,119.75
450362017348,49.1875,9.1875,84.375
450362040499,18.625,80.0625,-0.3125
450362061581,-70.8125,31.5625,-9.125
450362077334,-95.0625,46,-32.625
450362100473,-6.75,32.3125,-16.875
450362121563,4.375,69.875,-31.25
450362137338,-46.375,132.688,-63
450362160599,55.75,146.875,-76.875
450362181653,215.562,211.875,-122
450362197345,5.1875,74.625,-135.5
450362220512,-60.6875,-15.3125,-80.125
450362241539,263.438,-104.625,57.0625
450362265531,307.25,-71.5,91.625
450362280529,105.312,-31.9375,68.625
450362301543,132.25,-70.75,102.438
450362317315,233.688,-56.1875,142.312
450362348029,185.5,-71.875,149.375
450362361617,122.5,-32.8125,131.062
450362377342,49.375,-22.25,112.688
450362400497,16,-5.0625,109.188
450362421541,25.5625,5.0625,111.938
450362437317,-46.0625,62.625,58.8125
450362468106,-144.25,71.9375,-1.4375
450362481684,-133.375,61.6875,-18.875
450362497461,-115.562,61.5,-31.625
450362520547,-158.688,56.3125,-62.5625
450362541644,-183.562,29,-103.75
450362557393,-163.75,-42.75,-112
450362579892,-133.938,-76.375,-109.938
450362601643,-119.625,-95.3125,-105.25
450362617414,-112.188,-84.5625,-92.3125
450362639818,-68.25,-39.3125,-71.5
450362661560,-7.8125,-10.375,-43.875
450362677319,6.6875,15.9375,-27.9375
450362699829,5.375,15.125,-19.625
450362723016,48.4375,28.8125,-0.125
450362737350,79.6875,25.125,20.125
450362759883,78.1875,6.125,29.25
450362783074,56.6875,-5.75,18.1875
450362797415,54,-1.375,15.4375
450362819914,54.0625,31.625,24.75
450362843069,72.4375,39.3125,36.25
450362858065,66,41,30.5
450362879893,13.25,43,15.1875
450362903085,-19.125,57.5,11.25
450362917433,2.0625,51.1875,22.3125
450362939842,30.875,39,12.5
450362963060,2.8125,-12.125,-14.75
450362985626,-51.875,-64.4375,-39
450362999844,-46.875,-114.75,-22.3125
450363022998,-1.9375,-122.625,26.0625
450363044118,25.6875,-120.062,69.125
450363059976,-11.5,-79.75,70.1875
450363083080,-25.0625,-44,64.4375
450363111676,21.75,-8.9375,62.5625
450363119843,35.25,37.0625,48.75
450363143080,13.0625,89.9375,31.125
450363164147,8.9375,124,18.125
450363188044,28.125,131.375,20
450363203076,31.875,88.5625,22.5
450363225535,17.9375,57.9375,7.9375
450363239902,-5.8125,41.9375,2
450363263043,10.625,48.4375,1.5625
450363283796,35.3125,23.5,12.8125
450363299871,16.25,24.0625,11.625
450363323045,2.25,10.1875,15.625
450363344034,14.4375,16.875,40.125
450363359843,36.125,-11.0625,60.5625
450363382994,24.5,-1.4375,61.375
450363404113,10.9375,14.625,54.1875
450363419919,3.1875,-3.75,34.6875
450363443114,14,3.75,21.125
450363464138,23.75,-5.25,4.6875
450363479926,9.5625,16.0625,-15.375
450363502360,-0.875,27.5625,-23.6875
450363524167,17.3125,30.25,-18.4375
450363539865,25.5625,32.625,-10.1875
450363562373,16.25,24,-9.125
450363583945,9.4375,30.1875,-1.8125
450363599896,14.6875,30.8125,9.125
450363622387,30.5625,14.75,21.0625
450363645584,25.6875,-3.25,20.625
450363659980,10.25,-18.4375,15.5
450363682477,5.4375,-36.5,10.8125
450363705688,11.5,-46,10.5625
450363719921,12.0625,-53.125,3.4375
450363742383,5.5,-48.75,-10.0625
450363765560,3.4375,-35,-17.3125
450363779896,11.9375,-32.125,-20.0625
450363802489,10.9375,-9.6875,-18.9375
450363825679,12.375,4.4375,-19.5
450363839958,17.875,21.625,-20.25
450363862392,12.875,26.3125,-21.5625
450363885589,13.375,18.75,-19.75
450363906624,9.1875,6.8125,-13.5625
450363922349,3.75,-8.625,-3.625
450363945592,5.5625,-22.5,3.875
450363966634,2.0625,-34.5,2.5
450363982372,-10.625,-42.4375,-7.0625
450364005599,-15.3125,-49.625,-13.5
450364026608,-13.125,-44.625,-17.5
450364041610,-13.9375,-45.1875,-16.5
450364055954,-24.125,-36.625,-18.0625
450364078512,-22.6875,-21.1875,-17.6875
450364104616,-17.8125,-7.4375,-17.25
450364116009,-23.0625,2.1875,-22.1875
450364138513,-25.5,12.875,-28.8125
450364169820,-27.25,17.9375,-32.125
450364176028,-28.8125,13.25,-32.875
450364198540,-33.25,-2.125,-32.5625
450364221683,-38.375,-13.0625,-30.875
450364235997,-41.0625,-13.625,-30.6875
450364258507,-39.3125,-18.0625,-26.25
450364281651,-40.5625,-17.6875,-20.375
450364295989,-38.375,-13.375,-20.4375
450364318460,-34.1875,-5.0625,-21.4375
450364341684,-39.625,-1.875,-25.6875
450364356020,-41.4375,-3.8125,-25.375
450364378552,-37.125,-6.0625,-21.5
450364401609,-33.5,-0.1875,-19.1875
450364416029,-35.6875,4.3125,-20.75
450364438491,-38.8125,8.25,-23.5
450364461730,-35.375,16.6875,-24.9375
450364476031,-29.8125,12.875,-22.25
450364498442,-36.5625,0.0625,-19.0625
450364521673,-39.25,5.4375,-15.1875
450364535958,-33.9375,7.125,-9.0625
450364558416,-35.375,10.625,-5.875
450364581612,-36.6875,11.5,-6.1875
450364604135,-33.0625,7.25,-6.3125
450364618403,-37.1875,9.75,-5.75
450364641637,-40.0625,15.4375,-2.25
450364655925,-33.25,13.8125,2.375
450364678478,-36.25,8.75,2
450364701628,-39.0625,12.0625,-1
450364716022,-33.0625,13.8125,-3.75
450364747375,-35.6875,9.5625,-8.4375
450364761736,-33,14.5,-10.25
450364775989,-28.625,3.125,-4.875
450364798549,-33.8125,-1.8125,1.75
450364821686,-29.5,2.5,9.9375
450364836017,-24.25,6.1875,13.8125
450364858539,-23.5625,20.875,9.1875
450364881644,-19.5625,10.25,4.125
450364896087,-18.8125,5.6875,2.6875
450364918586,-20.8125,4.25,1.9375
450364941754,-15.75,6.25,5.6875
450364956034,-14.125,-3.625,7.0625
450364979928,-18.0625,-12.625,1.625
450365001694,-10.625,-12.0625,0.375
450365016025,-7.125,-17.5625,3.5625
450365038551,-7.1875,-10.9375,8.8125
450365061625,5,2,14.6875
450365075937,6.8125,13.4375,14.6875
450365098445,5.625,19.6875,9.75
450365121614,14.875,9.5625,7.625
450365135966,17.375,3.9375,8.3125
450365158498,12.9375,-0.125,8.8125
450365181666,17.8125,1.8125,11.8125
450365197501,20.75,-6.1875,9.9375
450365218611,-2.875,-64.75,-1.375
450365241681,-16.375,-53.8125,-11.8125
450365256003,-5.6875,-71.9375,-13.0625
450365278552,-33.0625,-61.875,-12.9375
450365301771,-115.188,-49.5,-34.5625
450365315928,-44.4375,-24.6875,-5.875
450365338544,0.375,-10.3125,2.4375
450365361717,-33.375,23.3125,2.6875
450365376038,-56,19.4375,-8
450365398503,-98.25,53.1875,-33.9375
450365421685,-116.062,21.5625,-45.4375
450365436028,-88.375,21.0625,-38.3125
450365458562,-51.8125,10.25,-22.1875
450365481733,-44.75,-8.8125,-8.5
450365496049,-53.375,-7.75,-2.3125
450365518570,-88.125,-14.1875,-13.5625
450365541037,-105.812,-26,-38.5625
450365556049,-83.875,-22.3125,-43.3125
450365578558,-50.875,-32.5,-30.5
450365601120,-32.3125,-33.375,-5.5
450365616111,15.5,-3.3125,19.8125
450365638534,44.625,28.5,39.25
450365661089,0.625,43.125,31.75
450365676067,-10.9375,71.6875,10.75
450365698509,-19,58.3125,-15.1875
450365720968,-25.1875,39.875,-18.0625
450365735960,26.875,11.25,1.75
450365758454,26.25,-6.9375,11.875
450365780968,-34.0625,0.5,-3.3125
450365795977,-60.0625,14.8125,-16.5
450365818475,-67.1875,22.875,-21.875
450365840993,-62,12,-20.0625
450365856081,-31.8125,14.125,-7.375
450365878555,-14.875,-0.6875,2.1875
450365901052,-6.9375,4,9.1875
450365916044,-20.1875,0.0625,-2.375
450365938551,-42.25,15.4375,-19
450365961034,-38.25,9.0625,-15.3125
450365976073,-28.5625,8.875,-1.875
450365998574,-12,4.0625,-2.125
450366021068,2.25,2.9375,-9
450366036053,10,1.75,-11.6875
450366058590,14.875,-7,-10
450366081077,25.125,-6.375,-5.4375
450366096055,35.9375,-1,-0.125
450366118594,39.625,-5.625,8.6875
450366142442,47.4375,3.375,15.8125
450366156090,43.125,15.5,18.125
450366178459,18.4375,15.375,12.3125
450366201057,6.875,33.125,8.875
450366216007,16.1875,28.625,6.625
450366238446,3.1875,32.3125,1.9375
450366260985,-25.0625,24.4375,-13.5625
450366284150,-28.9375,16.6875,-17.125
450366298478,-40.3125,12.1875,-15.3125
450366320998,-35.625,2.375,-9.625
450366335933,-15.75,21.6875,-1.625
450366358525,-4.8125,27.0625,-0.1875
450366381005,7.4375,23.9375,2.75
450366397472,26.875,17.125,10.5625
450366418567,32.75,11.1875,13.75
450366441011,48.125,2.5,20.9375
450366457436,49.5,-13.0625,20.75
450366486736,53.875,-20.4375,23.5
450366501035,77.6875,-27.9375,28.375
450366517470,81.1875,-20.25,28.0625
450366538569,75.1875,-7.4375,28.5625
450366561072,79.9375,-3.0625,30.125
450366577517,98.125,1.25,35.375
450366598568,101.125,-4.875,38.875
450366621100,91.6875,-16,39.3125
450366637537,90.1875,-27.75,42.8125
450366658576,97.8125,-34.875,46.375
450366674989,96.0625,-38,45.25
450366697542,80.4375,-47.3125,36.4375
450366718623,77.1875,-45.5625,31.375
450366736448,83.75,-38.625,31.0625
450366757469,78.5625,-19.8125,28.0625
450366778512,68.125,-5.25,24.5
450366800974,62.125,0.625,22.1875
450366817527,57.3125,0.25,20.5625
450366838521,45.4375,-1.25,20.125
450366854942,33.8125,-1,18.4375
450366877423,26.25,-6.4375,14.4375
450366898435,15.0625,-10.625,10.3125
450366914964,2.125,-6.25,6.0625
450366937427,-5.75,-7.3125,3
450366958457,-14.1875,-5.1875,-0.1875
450366974952,-22.5625,-0.5,-5
450366997432,-31.5,1.25,-8.625
450367018597,-40.5,3.25,-13.625
450367035000,-41.875,7.4375,-15.8125
450367057564,-49.625,5.1875,-18.375
450367078596,-58,7.875,-19.0625
450367101118,-58.5,5,-17.375
450367117498,-58.5625,6.6875,-17.6875
450367138584,-62.375,12.875,-20.5
450367155000,-63.5625,12.375,-23.4375
450367177509,-59.125,20.0625,-25.4375
450367198591,-54.1875,19.125,-28.0625
450367215030,-55.4375,15.3125,-25.8125
450367237614,-55.25,15.375,-23.5625
450367258634,-46.375,12,-18.0625
450367275036,-43.6875,3.4375,-14.25
450367297491,-45.8125,-1.6875,-14.125
450367320038,-35.5625,0.875,-11.0625
450367335099,-30.375,3.75,-12.9375
450367357554,-33.3125,3.1875,-13.8125
450367380049,-29.5,13.125,-17.4375
450367401084,-21.25,11.1875,-15.3125
450367424948,-27,8.375,-11.8125
450367439955,-24.9375,12,-17.125
450367456443,-20.5625,3.125,-9.4375
450367477541,-31.375,2.625,-13.375
450367499987,-24.4375,3.875,-9.8125
450367521062,-19.9375,9.8125,-11.25
450367536708,-28.6875,3.625,-13.5625
450367559252,-27.875,20.5625,-12.1875
450367581685,-16.125,12.25,-12.4375
450367596759,-17.625,20.375,-9.4375
450367619212,-25.8125,3.5625,-11.0625
450367641706,-18.625,3.25,-3.625
450367656636,-16.75,-5.375,1.875
450367679174,-15.625,-1.5625,0.5625
450367701654,-10.4375,-2.5,-0.25
450367716692,-8.75,0,-5.25
450367739177,-4.5,2.375,-4.875
450367755618,0.75,8.5,-0.625
450367776709,3.0625,12.625,4.25
450367799121,5.5,8.5625,7.0625
450367815684,11.75,6.0625,8.875
450367836717,12.75,4.1875,6.5
450367859256,14.5,0.75,5.125
450367883188,18.375,-3.5,6.625
450367896773,18.375,-11,9.25
450367919301,18.0625,-12.125,13.4375
450367941754,20.6875,-14.5625,16.375
450367956761,21.875,-12.3125,16.0625
450367979298,21.4375,-11,12.4375
450368001716,21.125,-9.5,10
450368024230,19.4375,-1,8.75
450368039268,23.5,2.5625,9.9375
450368061712,22.3125,3.5625,9.8125
450368076677,19.6875,7.75,6.875
450368106734,23.125,6.625,7.125
450368121782,18.4375,0.1875,8.9375
450368136744,15.125,-1.3125,10.0625
450368159291,18.6875,1.875,9.375
450368181796,17.6875,4.25,5.0625
450368196789,12.4375,0.5,0.4375
450368219296,12.4375,-3.375,0.25
450368241754,11.1875,-6.5625,3.625
450368258213,6.6875,-8.5,7
450368286758,3.8125,-9.9375,8.6875
450368295070,0.875,-13.0625,7.25
450368317410,-1.5625,-9.8125,2.6875
450368339231,-1.5625,0,-1.125
450368361777,-0.75,10,-4.625
450368384280,-3,13.375,-7.9375
450368399257,-6.9375,7.6875,-10.6875
450368415053,-11.5625,-1.6875,-11.25
450368438210,-14.9375,-9.5625,-10
450368459215,-13.625,-12.75,-4.9375
450368475086,-16.0625,-12.5,-2.1875
450368498237,-6.875,3.75,1.375
450368519301,-5.5625,10.5,-2.6875
450368535023,-5.1875,29.375,-4.8125
450368558203,0.3125,36.1875,-7.0625
450368579279,6.0625,21.9375,-5
450368595031,1.125,-5.4375,-6.5
450368618230,-4.875,-31.9375,-4.0625
450368639215,-10.375,-43.75,2.5625
450368655053,-9.3125,-47.25,6.4375
450368678168,-2.8125,-40.8125,3.9375
450368699151,-2.6875,-21.0625,-3.75
450368714935,-6.4375,-8.1875,-7.625
450368739666,-2.875,5.375,-1.125
450368759266,1.9375,9.625,6.625
450368789290,-4.1875,17.25,9.8125
450368798157,-2.9375,18.375,9.3125
450368819292,-3.625,7.6875,0.75
450368835118,-7.375,4.5,-10.1875
450368858697,-4.625,8.1875,-13.9375
450368879250,-6.75,15.375,-12.5
450368895082,-1.4375,14.5,-6.625
450368918233,2.375,16.75,-4.5
450368939256,-4.5625,16.375,-3.4375
450368955019,-8.125,2.0625,-0.0625
450368978206,-1.625,1.0625,6.4375
450368999285,-1.3125,-14.125,11
450369015010,-8.5,-26.875,10.375
450369038166,-13.1875,-38.0625,7.0625
450369059199,-11.4375,-36.3125,4.375
450369075017,-10.375,-31.4375,1.9375
450369098228,-13.5,-8.3125,-3.8125
450369119283,-8.875,10.4375,-5.875
450369135123,-12.125,27.3125,-9.9375
450369158184,-13.6875,39.9375,-13.5
450369179264,-5.6875,58.9375,-15.375
450369195058,-3.5625,60.6875,-16.9375
450369217563,-7.25,46.8125,-18.125
450369239260,-4.4375,30.8125,-14.8125
450369255009,-2.0625,15.6875,-6.625
450369277578,-5,-7.5625,3.5
450369299289,-2.1875,-24.25,11.75
450369321713,-0.375,-32.375,16.25
450369337548,-4.4375,-37.4375,18.25
450369360481,0.9375,-33.5625,20.6875
450369375089,4.8125,-27.9375,18.75
450369397688,1.375,-10.3125,13.125
450369420720,-1.0625,-6.25,6.125
450369441792,-2.0625,3.1875,1
450369457545,0.1875,8.5,-3.8125
450369480734,0,11.5625,-9.5625
450369495023,-7.6875,15.5625,-14.3125
450369517538,-5.3125,22.875,-14.3125
450369540717,55.25,-0.3125,15.5
450369555048,35.3125,4.5625,16.5
450369577599,-38.3125,19.9375,5.4375
450369600746,36,-0.75,14.3125
450369623230,98.125,-6.375,29.25
450369637589,36.125,-8.3125,15.3125
450369660705,8.6875,-14.9375,9.375
450369681793,-7.5625,-18.5,3.6875
450369697561,40,-35,21.25
450369720640,33.75,-39.125,14.0625
450369741819,-31.0625,-12.1875,-12.6875
450369764328,-16.3125,-3.25,-18.0625
450369780807,16.625,22.5,-8.375
450369801742,9.3125,12.625,-0.75
450369817532,-17.125,27.75,-4.1875
450369840731,-27,20.3125,-5.8125
450369861757,56.3125,3.0625,34.75
450369877715,83.25,-14.1875,47.5625
450369900751,63.9375,-18.625,49.0625
450369921822,28.5625,-21.3125,29.25
450369937588,13.6875,-37.0625,17.5625
450369960731,-26.9375,-20.625,-13
450369981764,-11.625,-19.9375,-11.5
450369997513,-55.875,11.375,-28.8125
450370020748,-92.375,26.6875,-40.125
450370049218,-74.8125,31.875,-27.8125
450370057518,-105.625,6.6875,-45.0625
450370088160,-106,57.6875,-46.625
450370101696,-120.875,-9.9375,-52.6875
450370117477,-60.875,39.5625,-17.75
450370140025,-71.1875,22.6875,-27.9375
450370161690,-34.4375,40.6875,-19.0625
450370177696,-65.125,15.9375,-34
450370200112,-100.562,34.3125,-42.4375
450370221794,-15.625,-12.8125,-2.0625
450370237544,54.9375,-52.6875,22.4375
450370260127,75.5,-47.6875,30.5
450370289261,23.3125,-73.875,6.6875
450370297596,-14.9375,-14.375,-18
450370320031,21.3125,-3.5625,-9.6875
450370343214,71.5,32.75,6.375
450370357686,61.25,54.4375,19.5625
450370380066,56.1875,39.5625,31.6875
450370403268,70.8125,32.3125,36.25
450370417550,85.8125,-10.25,47.0625
450370440083,76.5,-40.5,41.625
450370463236,68.6875,-39.3125,25.5
450370477572,52.125,-26.5625,5
450370500088,9.6875,5.75,-15.1875
450370523256,-17.5625,10.25,-21.5
450370544294,-23.5,1.8125,-9.375
450370560086,-27,-30.5,4.5625
450370583254,-26,-47.25,9.1875
450370604256,-41.875,-60.875,0.6875
450370620100,-82.0625,-75.1875,-23.9375
450370643283,-70.5625,-63.5,-43.0625
450370664261,-51.9375,-45.9375,-57.0625
450370680119,-40.25,-41.75,-47.625
450370703210,-34,-31.125,-22.8125
450370724210,-24.8125,-20.375,-2.375
450370746786,-5.4375,-10.375,4.1875
450370763240,16.1875,4.5625,-2.875
450370784344,28.1875,10.3125,-11.3125
450370800100,24.25,-3.8125,-10.1875
450370823654,9.5625,-18.5625,-4.875
450370844345,-9.3125,-28.4375,16.9375
450370860135,-19.5625,-8.6875,25.5625
450370883202,-20.625,-1.125,18.125
450370904286,-31.3125,-7.5625,6.8125
450370920054,-43.75,-12.1875,-3.3125
450370943236,-46.3125,-27.75,-1.75
450370964372,-47,-28.3125,2.625
450370980070,-38.375,-21.75,-1.0625
450371003262,-21.8125,-10.375,-9.4375
450371024365,-12.625,-0.375,-22.6875
450371040087,-10.125,16.875,-37.25
450371053715,15.4375,53.1875,-40.25
450371076115,35.75,81.3125,-32.3125
450371099337,19.3125,99.75,-16
450371113746,22.5625,105.688,1.1875
450371136131,35.375,99.5,19.9375
450371159290,34.0625,90.125,14.75
450371173763,47,70.375,15.125
450371196204,52.6875,60.8125,15.4375
450371219260,51.9375,44.75,14.5625
450371233772,64.25,5.8125,30.3125
450371256161,85.1875,-49.875,49.9375
450371279348,92.4375,-61.125,47.4375
450371293671,87.125,-8.75,34.3125
450371316112,96.5625,-21.6875,28.125
450371339276,81.5,27.0625,11.375
450371353620,73.875,74.9375,6.625
450371376172,71.5625,52.25,23.1875
450371399242,33.4375,11,34.5
450371413709,36.75,-41.1875,43.75
450371436194,38.5625,-59.75,33.625
450371467531,-13.4375,-84.875,8.625
450371473686,3.875,-103.438,15.25
450371496166,34.5625,-82.25,24.875
450371519321,-5,-42.8125,19.9375
450371533683,-28.75,-20.1875,26.8125
450371556160,-4.5625,-0.125,36.6875
450371587513,-0.75,16.875,19
450371593683,15.125,42.3125,49.125
450371616167,-4.1875,9.4375,-6.75
450371639324,26.5625,51.0625,-3.1875
450371653761,33.75,39.125,-13.75
450371676112,55,45.9375,-13.125
450371699311,77.75,44.5,-12.0625
450371713683,46.8125,49.375,-20.875
450371736225,58.125,30,-3.625
450371759367,80.25,16.0625,21
450371773697,52.5625,-11.4375,32.5625
450371796192,28.1875,-34.5,38.8125
450371827504,24.625,-52.9375,36.6875
450371833682,11.625,-65.875,23.625
450371856117,14.5,-66.0625,20.0625
450371879277,11.125,-57.3125,17.625
450371893605,4.125,-32.4375,16.6875
450371916069,5.0625,-15.1875,13.375
450371939285,-8.75,-3.125,2.9375
450371953612,-36.875,20.375,-17.8125
450371976151,-36.8125,34.875,-26.375
450371999300,-32.875,45.0625,-35.4375
450372013661,-45.125,50.3125,-36.0625
450372036065,-59.375,39.625,-33.9375
450372060723,-63.1875,33.875,-28.25
450372073650,-61.125,10.1875,-22.25
450372096118,-66.9375,-13.25,-22.6875
450372119232,-71.125,-26.375,-23.875
450372133641,-51.25,-39,-11.75
450372156143,-27.375,-42,3.4375
450372178646,-21.625,-35.875,12.125
450372193627,-35.375,-14.8125,4.75
450372216132,-32.25,9.5,-7.5
450372238649,-30.875,28.5625,-24.125
450372253684,-15.5,35.3125,-26.375
450372276139,-17.5625,45.8125,-26.9375
450372298639,-7.8125,45.4375,-18.9375
450372313640,5.625,39.1875,-8.25
450372336105,18.25,27.875,-2.875
450372358642,18.4375,11.875,-2.5
450372373678,0.5625,-4.375,-5.25
450372396174,-2.125,-5.375,-0.5
450372418653,6.3125,-11.4375,8.1875
450372433645,8.6875,-8.5625,11.8125
450372456143,14.6875,-5.1875,11.6875
450372478670,9.5625,-3.8125,5.875
450372493645,-10.75,7.5,-2.6875
450372516129,-26.6875,16.8125,-12.5625
450372538615,-33.6875,24.5,-18.5625
450372553640,-39.5,29.625,-25.625
450372576156,-31.375,25.1875,-27
450372598648,-17.25,19.5625,-19.8125
450372613669,-11.625,15.25,-16.125
450372636109,3.5625,6.5625,-4.375
450372658730,24.3125,4.875,6.1875
450372673646,29.5625,2.625,7.125
450372696157,21.5625,-9.25,6.0625
450372718684,13.5625,-6.5625,1.4375
450372733667,10,-0.8125,-2.1875
450372756131,5.4375,3.5,-2.8125
450372778657,-4.375,10.25,-6.625
450372801774,-8.3125,11.5625,-9.0625
450372816147,-17.375,13.8125,-10.6875
450372838610,-25,9.5,-13.6875
450372853616,-15.5,8.1875,-8.9375
450372876194,-1.1875,1.5,-4
450372898643,-4.125,-5.0625,-5.1875
450372913651,-7.25,-4.5,-7.625
450372936174,3.9375,2.5625,-7.25
450372958640,19.5,11.125,-6.8125
450372976623,38.5625,9.5625,-3.1875
450372996113,39.1875,6.375,-2.125
450373018638,36.5,-7.25,-2.1875
450373035119,30.8125,-19.25,-3.6875
450373056150,31.0625,-8.25,-7.125
450373078671,16.125,13.0625,-18.5
450373095096,-4.5,33.75,-33.9375
450373116106,-18.5,67.375,-42.125
450373138648,-37.375,90.8125,-40.875
450373155096,-40.4375,91.1875,-32.875
450373176163,-38.6875,80.8125,-24.5
450373206822,-51.6875,48.25,-26.3125
450373215104,-33,14.1875,-25.75
450373236091,-40.8125,6.25,-33.25
450373258648,-64.5625,-1,-42.625
450373275095,-55.1875,3.875,-46.5625
450373296145,-43.9375,21.5625,-42.6875
450373318651,-27.3125,42.3125,-30.9375
450373335091,-27.375,53.5625,-21.25
450373359066,-25.625,81.875,-17.0625
450373378690,-14.5625,89,-14.1875
450373395113,-20.625,84.5625,-16.0625
450373416183,-30.375,66.9375,-24.125
450373438741,-56.1875,54.25,-31.5
450373455187,-55.6875,46.8125,-26.375
450373476177,-16,45.125,-15
450373498740,-3.125,59.3125,-10.1875
450373515090,-8.875,78.125,-17.625
450373536245,-12.1875,91.5,-26.125
450373566857,6.6875,87.5625,-25.6875
450373575219,8.25,84.3125,-11.125
450373596247,-1.8125,60.75,-6.8125
450373618765,1.3125,54.25,-11.6875
450373635155,-2.25,40.6875,-17.5625
450373656276,-2.0625,33,-21.5625
450373678686,-8,33.9375,-30.9375
450373695171,-29.0625,39.4375,-32.6875
450373716191,-29.0625,41.3125,-26.875
450373738644,-21.5625,38.5,-15.4375
450373755185,-37,33.9375,-10
450373776193,-46.6875,31.375,-9.625
450373808357,-35.8125,35.875,-13.3125
450373815143,-16.375,45.1875,-8
450373836272,-31.625,40.9375,-5
450373858747,-21.25,39.1875,-5.625
450373875137,-2.8125,47.625,-6.5625
450373896144,0.375,37.375,-8.5
450373918685,-6.875,16,-11.5625
450373935155,-5,10.875,-7.375
450373957686,-5.375,-0.0625,-3.5625
450373978687,-26.875,-3.375,-4.25
450373995104,-50.5625,-16.625,-8.9375
450374017644,-52.4375,-12.375,-1.5
450374038688,-50.625,-3.4375,6.875
450374055189,-36.75,12.0625,7
450374077711,-17.1875,-2.5625,-3.3125
450374098687,-1.5,-13.0625,-6.9375
450374115184,-14.875,-17.0625,-9.6875
450374137705,-13.6875,2.5625,-4.1875
450374158733,-2.0625,3.4375,-2.25
450374175128,14.4375,19.125,3.125
450374197685,15.5,19.8125,0.3125
450374218781,18.6875,23.0625,0.75
450374234337,19.9375,19,2.375
450374257698,22.5,9.5,2.125
450374278738,9.9375,-7.875,4.3125
450374295153,-1.25,-29.6875,5.4375
450374317637,-1.375,-38.375,5.5625
450374338721,0.625,-34.1875,2.9375
450374355223,6.6875,-19.375,-2.1875
450374377690,11.25,0.0625,-3.75
450374398745,9.375,14.4375,0.625
450374415210,-7.0625,25.3125,3.625
450374437644,6.5,33.0625,9.0625
450374458630,46.3125,7.6875,15.3125
450374475169,87.875,-25.9375,22.5625
450374497697,108.875,-76.5,36.5
450374518683,108.688,-99.875,33.625
450374535092,106.938,-83.625,20.75
450374556780,120.688,-91.3125,26.4375
450374579289,134.562,-64.6875,26.5625
450374594317,128.875,-17.4375,39.25
450374616823,123.062,-1.375,58.5625
450374639282,103.125,30.375,88.6875
450374654341,106.562,20.875,121.562
450374676785,124,13.25,148.875
450374699346,105.312,-28.75,146.938
450374714333,79.8125,-84.0625,133.688
450374736842,72.9375,-173.562,140.062
450374759427,62,-224.812,164.938
450374774358,41.625,-272.5,195.125
450374796912,33.5625,-272.562,211.438
450374819429,22.25,-231.5,208.875
450374834388,-2.0625,-160.188,184.562
450374856946,-14.625,-76.0625,163.375
450374887591,-17.6875,-35.6875,145.312
450374894422,-30.5,-16.0625,120.188
450374916931,-55.875,-15.0625,92.75
450374947558,-81.0625,-27.0625,72.875
450374954403,-90.75,-59.1875,79
450374976850,-102.75,-88.625,96.5625
450374999454,-122.938,-116.438,106.625
450375015866,-143.125,-144.75,106.062
450375036812,-157.375,-166.5,94.0625
450375059389,-166.562,-175.5,79.875
450375075858,-178.188,-164.062,61.8125
450375096988,-179.875,-146.875,41.5
450375119411,-175.375,-134.25,21.875
450375135861,-182.375,-111.25,1.875
450375156887,-182.875,-85.625,-10
450375179383,-173.625,-53.25,-15
450375195809,-160.125,-21.25,-16.625
450375216897,-150.5,1.625,-19.9375
450375239411,-140.938,19.4375,-23.6875
450375255882,-129.562,28.25,-23.25
450375276914,-104.125,28.5625,-24.5
450375299385,-91.0625,9.4375,-23.875
450375315860,-88.6875,-2,-26.375
450375336893,-69.125,-21.3125,-23.5625
450375359358,-54.5625,-29.125,-13.75
450375375896,-39,-38.875,-4.8125
450375396998,-22.9375,-25.375,-1.625
450375419391,-6.5,-9.0625,-0.625
450375435879,8.3125,17.6875,-3.3125
450375456885,27.5625,53.6875,-8.5
450375479369,47.4375,93.4375,-15.25
450375495885,62.375,136.625,-21.9375
450375516911,76.5625,167.625,-22.8125
450375540853,89.75,194.375,-20.125
450375555817,111.125,220.562,-15.0625
450375576943,122.438,221.938,-9.375
450375599424,128.5,212.438,-7.0625
450375615889,139.5,188.688,-3.5625
450375636902,150.938,156.688,-3.0625
450375659350,148.75,107.312,-3.6875
450375675815,150.5,68.5625,-1.4375
450375696916,162.062,43.6875,5.75
450375719438,163,22.9375,7.625
450375735881,163.25,31.0625,0.4375
450375756917,171.812,50.3125,-13.125
450375779371,180.5,71.5625,-28.0625
450375795850,178.312,97.375,-43.3125
450375817336,185.625,112.562,-48.0625
450375839403,176,115,-53.25
450375855155,161.438,109.562,-55.375
450375876843,156.812,106.312,-51.75
450375899427,147.75,85.4375,-50.3125
450375915143,132,61.1875,-50.5625
450375936841,116.688,36.25,-48.1875
450375959384,101.188,17.125,-47
450375975244,84.5625,8.75,-47.9375
450375998332,74.625,0.25,-47
450376026886,61.1875,-3.9375,-49.8125
450376035177,44,-5.0625,-55.125
450376058319,35.375,5.1875,-54.4375
450376079416,18.75,14.9375,-57.25
450376095135,6.875,26.125,-59.1875
450376118376,-1.125,40.0625,-63.5
450376139407,-13.625,50.0625,-66.625
450376155200,-32.125,46,-63.9375
450376178342,-42.625,44.125,-54.1875
450376199415,-44,40.625,-41.5625
450376215223,-55.625,35.4375,-33.5625
450376238467,-72,20.6875,-28.3125
450376259437,-75.6875,10.75,-19.1875
450376275191,-77.625,3.625,-12.75
450376298777,-81,-7.1875,-5.375
450376319414,-87,-15.8125,-0.5625
450376335230,-87.75,-25.8125,5.1875
450376358314,-87.875,-31.75,11.1875
450376379349,-90.4375,-36.375,17.75
450376395217,-90.5,-36.25,23.125
450376418382,-88,-34.8125,27.75
450376439488,-85.4375,-36.6875,30.0625
450376455236,-81.8125,-37.875,31.25
450376485820,-83.125,-42.1875,33.25
450376499388,-83.3125,-55.9375,38.125
450376515185,-77.4375,-55.9375,40.4375
450376538402,-69.4375,-69.875,41.5625
450376559476,-75.3125,-93.25,41.125
450376575236,-76.875,-106.5,47.0625
450376598388,-61.625,-112.312,58.3125
450376619410,-59.5,-110.312,59.25
450376635205,-64.9375,-102.188,53.5625
450376658326,-54.125,-108.5,49.875
450376679158,-46.4375,-112,48.75
450376695160,-46.9375,-108.438,53.9375
450376718428,-44.125,-116.75,57.625
450376739433,-41.8125,-121.812,57.8125
450376755172,-37.875,-122.25,56.1875
450376777666,-32.125,-120.25,53.6875
450376800832,-29.1875,-115.812,51.375
450376815208,-24.3125,-113,51.5
450376837705,-21.875,-109.375,53.625
450376859411,-21.3125,-108.375,54.5625
450376875207,-14.125,-98.4375,53.375
450376897714,-7.375,-89.9375,49.125
450376920915,-9.875,-86,40.9375
450376935227,-7.3125,-70.5625,35.5625
450376957780,1.5625,-65.5,34.8125
450376980846,2.75,-61.375,33.5
450376995191,3.5,-53.25,31.6875
450377017670,9.125,-47.8125,30.6875
450377040864,10.9375,-41.6875,27.625
450377055254,12.75,-34.875,22.9375
450377077706,16.8125,-26.5,18.6875
450377100865,16.125,-16.8125,13.25
450377115249,17.5625,-10.5625,8.9375
450377138181,22.375,-4.8125,4.9375
450377160931,21.125,1.875,-1.6875
450377182011,18.8125,9.1875,-8.4375
450377197681,21.75,23.25,-14.125
450377220852,22.8125,34.1875,-19.4375
450377241909,21.875,45.4375,-27
450377257731,22.9375,59.375,-34.5625
450377280891,23.9375,76.5,-40.1875
450377301921,23.9375,83.75,-44
450377317771,25,92,-49.375
450377340869,26.75,92.25,-54.625
450377361936,22.1875,90.8125,-59.4375
450377377705,21.0625,88.125,-60.4375
450377400875,27.4375,85.4375,-58.75
450377422002,28.875,82.0625,-59.5
450377437725,24.875,81.5625,-61.3125
450377460882,26.875,85.125,-60.375
450377481940,32.5,87.3125,-59.125
450377497678,34.25,87.3125,-60.125
450377520878,34,91.9375,-62.9375
450377541945,35.6875,93.3125,-63.5
450377557711,37.25,90.75,-62.5
450377580891,40.4375,88.8125,-59.1875
450377601969,41.25,90.5625,-56.125
450377617691,41.5,90.5,-54.5
450377640932,46,90.9375,-53.25
450377661958,48.125,90.375,-52.8125
450377677791,46.0625,85.8125,-50.1875
450377700717,47,73.5625,-45.125
450377721960,49.5625,65.3125,-39.4375
450377737784,47.3125,56.4375,-36.1875
450377760211,44.375,48.375,-34.9375
450377781949,45.0625,43.4375,-33.3125
450377797755,45.3125,39.1875,-31.3125
450377820254,42.5,39.0625,-28.875
450377841964,40.875,42.6875,-25.625
450377857774,41.4375,43.1875,-23
450377880231,38,36.875,-21.375
450377903368,31.75,28.1875,-18.5625
450377917637,28.4375,17.9375,-13.4375
450377940189,26.75,13.5,-7.6875
450377969385,23.0625,8.6875,-2.5625
450377977644,16.625,3.125,0.875
450378000201,13.0625,-1.8125,4.125
450378023348,11.5,-8.4375,8.625
450378037668,6.125,-11.3125,13.625
450378060175,0.9375,-13.1875,18.375
450378073775,-2.125,-15.8125,22.875
450378096935,-6.5625,-21.5,25.1875
450378119507,-13.375,-30.0625,26.25
450378133752,-20.25,-35.875,28.75
450378156981,-24.1875,-45.5,31.875
450378179390,-29.4375,-49.4375,34.1875
450378193777,-34.8125,-45.6875,35.625
450378225143,-39.125,-43.5625,37.0625
450378239468,-42.375,-43.9375,38.75
450378253804,-44.625,-46.5,40.9375
450378276989,-47.75,-45.6875,43.125
450378299522,-51.875,-47.625,45
450378313810,-55.25,-54.1875,46.125
450378336962,-56.625,-59.5625,46.8125
450378359517,-57.0625,-65.1875,46
450378373810,-60.375,-78.625,45.3125
450378396960,-64.375,-86.0625,45.75
450378419434,-63.25,-85.875,49.5625
450378433744,-62.375,-83.4375,52.5
450378456864,-62,-78.75,50.6875
450378479411,-60.4375,-80.1875,46.0625
450378493786,-61.3125,-82.125,42.5
450378516937,-59.875,-82.25,43.375
450378539416,-56.625,-85.5,46.3125
450378553824,-56.125,-84.3125,45.1875
450378576938,-54.375,-83.375,40.625
450378599592,-51.1875,-80.75,35.8125
450378613792,-49.125,-77.3125,32.0625
450378637010,-43.375,-71.875,30.6875
450378659492,-38.875,-69.375,30.5625
450378675223,-38.125,-64.625,29.125
450378697047,-33.0625,-65.875,27.9375
450378719540,-26.8125,-62.375,25.3125
450378733815,-23.9375,-56.5625,20.8125
450378758401,-20.375,-47.5625,18.3125
450378779412,-13.6875,-42.1875,16.875
450378801930,-7.375,-39.0625,13.625
450378816352,-3.8125,-32.75,9.25
450378831324,-2.0625,-26.9375,6.25
450378853870,2.0625,-14.875,5.6875
450378876348,12.5,-3.4375,4.5625
450378899532,17.9375,8.125,-0.375
450378913855,17.25,20.8125,-7.5
450378936323,24,30.125,-10.75
450378951313,32.25,34.5,-11.9375
450378973810,34.6875,38.3125,-15
450378996350,34.6875,40.8125,-18.0625
450379011336,36.75,41.125,-19.75
450379033789,41.625,45.5,-20
450379056323,46.5625,49.3125,-22
450379071341,47.5,50.875,-25.8125
450379093812,47.9375,56.5625,-30.625
450379125174,53.1875,62.5625,-32.375
450379131310,54.9375,61.25,-34.75
450379153869,52.25,59.625,-40.25
450379176373,54.375,62.6875,-44.25
450379192782,54.125,58.875,-46.125
450379213841,52.1875,59.875,-46.5
450379236293,56.5625,64.1875,-43.8125
450379251342,58,72.8125,-42.4375
450379273819,53.8125,74.875,-42.4375
450379296378,55.125,72.25,-43.6875
450379311284,56.5625,72.3125,-45.3125
450379333822,50.4375,69.3125,-45.25
450379356313,44.875,57.625,-40.3125
450379371359,46.6875,50.0625,-33.25
450379393909,48.1875,50.1875,-29.375
450379416367,41.5625,54.875,-32.6875
450379431333,34.375,54.125,-39.75
450379453810,32.75,52.375,-44.4375
450379476296,31.1875,49.5625,-44.1875
450379491312,24.3125,48.125,-40.9375
450379513887,19.1875,44.8125,-37
450379536296,16.125,44.8125,-36.875
450379551321,12.375,46.5,-37.1875
450379573848,6.375,49,-40.625
450379596272,5,50.3125,-42
450379611369,2.3125,45.375,-39.625
450379633852,-2.25,36.125,-33.625
450379656364,-5.375,30.1875,-25.375
450379672783,-5.5625,22.125,-18.9375
450379693854,-8.5,15.125,-16.5
450379716338,-12.5625,9.4375,-16.75
450379732779,-11.5625,4.1875,-14.4375
450379753873,-13.75,-1.6875,-10
450379776331,-13.5625,0.4375,-3.375
450379792826,-11.375,-1.125,3.6875
450379813778,-15.125,-3.8125,7.6875
450379836386,-14.75,-2.25,10.8125
450379852786,-11.125,-4.9375,12.5625
450379873899,-12.5,-7.75,12.9375
450379896276,-15.125,-14.625,14.3125
450379912724,-14.1875,-24.9375,17.625
450379933810,-16.5625,-32.375,22.9375
450379956323,-17.9375,-41,28.25
450379972754,-16.375,-43.875,31.5
450379993847,-17.8125,-44.3125,31.6875
450380016362,-18.625,-45.5625,31.9375
450380032804,-19.125,-45.5625,33.375
450380053841,-19.375,-48.875,37
450380076405,-20.6875,-49.75,41
450380098898,-22,-57.5,44.125
450380113808,-23.9375,-62.625,45.75
450380136347,-26.875,-69.375,47
450380152786,-29.875,-69.625,49.25
450380173900,-30.9375,-66.125,51.375
450380196365,-30.8125,-61.0625,52.0625
450380212771,-33.125,-56.6875,49.25
450380233835,-36.625,-57.6875,45.3125
450380256329,-37.625,-59.625,43.1875
450380272846,-39.125,-64.4375,41.375
450380293897,-41.875,-68.1875,39.5625
450380316324,-44.75,-72.125,35.125
450380332788,-46.4375,-73.9375,31.4375
450380353912,-46.9375,-73.625,28.75
450380376307,-45.6875,-67.4375,27.8125
450380394211,-45.25,-61.4375,27.4375
450380413862,-45.125,-55.6875,25.25
450380436364,-42.75,-49.25,21.9375
450380452789,-41.875,-44.75,17.5625
450380473864,-40.5625,-42.875,15.1875
450380496335,-37,-44.0625,13.3125
450380512752,-33.4375,-38.4375,11.625
450380533842,-32.5,-35.4375,9.375
450380556316,-30.5,-32,5.8125
450380572802,-24.25,-26.625,2.5
450380595247,-20.1875,-25.1875,-0.375
450380616343,-18.25,-20,-2.0625
450380632818,-11.5625,-12.0625,-1.75
450380655275,-4.875,-4.8125,-0.75
450380676360,-2.375,-0.4375,-2.625
450380692788,1.8125,3.875,-5.75
450380715291,8.375,10.0625,-7.6875
450380736380,11.6875,16.1875,-9.875
450380752842,16.6875,26.8125,-11.25
450380775302,23.375,34.625,-13.5625
450380796341,26,39.1875,-17.3125
450380812808,29,41.6875,-20.5625
450380835268,33.4375,48.1875,-21.5
450380856338,37.625,54.125,-20.1875
450380872810,40.5,54.1875,-20.0625
450380895266,43.9375,59.1875,-20.875
450380916418,46.0625,57.625,-23.125
450380932825,46.6875,57.875,-25.375
450380955318,49.3125,55.5625,-25.8125
450380976420,50.9375,55.125,-27.125
450380992808,49.9375,54.75,-28
450381015361,47.5625,50.75,-27.875
450381036420,49.5625,55.75,-27.9375
450381052757,51.5,59.8125,-28.9375
450381075336,48.625,65.3125,-32.6875
450381096356,46.3125,70.25,-36.4375
450381112838,47.125,70.0625,-37.5625
450381135289,43.75,66.5,-38.1875
450381156360,40.1875,67.5,-36.3125
450381172833,38.3125,59.5625,-33.4375
450381195291,35.625,56.75,-31.75
450381216357,31.875,51.9375,-31.875
450381232793,29.625,50.5625,-31.375
450381255333,27.125,48.1875,-31.75
450381276338,26.0625,42.8125,-30.9375
450381292809,21.3125,34.3125,-29.5
450381315290,15.5625,30.375,-28.4375
450381336334,15.6875,30.5625,-25.0625
450381352788,13,28.4375,-23
450381375231,7.5,28.875,-22.4375
450381399207,7.375,34.8125,-21.4375
450381412782,7.5625,35.75,-20.3125
450381435360,1.9375,32.4375,-19.3125
450381456330,-1.125,29.3125,-16.875
450381472866,-1.25,25.0625,-12.4375
450381495340,-4,16.5,-9.3125
450381517836,-6.25,7.6875,-7.25
450381532797,-8.5,0.125,-5.3125
450381555286,-11.125,-7.9375,-1.875
450381577834,-11.75,-14.8125,3.4375
450381592793,-12.4375,-20.625,9.25
450381614514,-14.875,-22.6875,11.9375
450381637066,-13.4375,-18.75,13.125
450381652769,-13.0625,-20.5625,13.875
450381674547,-16.375,-24.5,13.25
450381697098,-16.9375,-31.6875,14.0625
450381712782,-18.8125,-39.875,18.5625
450381734512,-22.5,-45.3125,23.6875
450381757099,-21.6875,-49.125,27.9375
450381772779,-21.125,-47.5,28.875
450381794511,-25.1875,-45.6875,27.3125
450381817027,-24.25,-42.125,28.4375
450381832808,-21.875,-42.9375,32.125
450381854603,-25.125,-45.125,35.4375
450381877032,-27.375,-51.9375,38.125
450381892852,-27.9375,-57.875,38.0625
450381914574,-30.625,-67.75,35
450381937035,-32.8125,-71.375,30.75
450381952795,-32.9375,-70.6875,28.8125
450381974574,-34.375,-71.9375,30.3125
450381997037,-33.9375,-67.875,33.1875
450382012794,-31.6875,-62,34.9375
450382034588,-33.8125,-59.4375,33.5625
450382057053,-34.375,-53.0625,30
450382072767,-30.375,-52.375,27.625
450382094535,-31.4375,-52.125,25.25
450382117009,-33.0625,-55.8125,24.3125
450382132792,-30.0625,-56.1875,25.4375
450382154472,-28.125,-55.125,24.75
450382177025,-28.0625,-55.25,21.9375
450382192884,-26.8125,-53.3125,18.375
450382214540,-23.6875,-44.25,15.375
450382237094,-19.5625,-35.25,14.625
450382253534,-16.6875,-30.875,14.4375
450382274565,-14.3125,-26.375,13.5625
450382297052,-10.375,-23.75,12.3125
450382313462,-7.625,-21.6875,11.125
450382334551,-6.0625,-19.25,8.5625
450382357041,-1.125,-14,5.8125
450382373501,0.5625,-11.625,1.9375
450382410241,0.6875,-4.875,1
450382417067,7.75,6.1875,2.4375
450382433487,14,12,3.125
450382454519,12.625,15.25,1.25
450382477069,13.9375,17.375,-0.6875
450382492861,19.125,25.5625,-2.3125
450382514560,21.0625,30.25,-5.0625
450382537023,18.6875,29,-9.3125
450382559517,20.0625,29.9375,-13.1875
450382574498,23.3125,30.875,-13.625
450382596951,23.0625,33.125,-11.625
450382612795,23.5625,40.625,-12.0625
450382635933,26.9375,52.625,-14.75
450382656929,27.4375,59.75,-20.8125
450382672792,25.8125,62.125,-26.5625
450382695940,27.75,64.0625,-29
450382716988,29.625,63.1875,-28.0625
450382732774,27.75,57.625,-24.875
450382755968,27.75,54.6875,-23.5
450382776994,28.875,52.6875,-25.0625
450382792884,26.4375,51.3125,-29.3125
450382816073,26.75,50.6875,-31.8125
450382837085,30.3125,53.6875,-31.625
450382852820,30.75,57.375,-29.3125
450382876012,29.1875,55.5625,-25.625
450382897066,30.1875,52.8125,-24
450382912840,30.3125,48.875,-24.6875
450382936057,28.0625,48.25,-26.375
450382957130,28.4375,47.3125,-27.375
450382972906,30.125,44,-27.1875
450382996002,28.625,40.4375,-25.875
450383016995,24.4375,34.6875,-23
450383032772,25.125,32.4375,-19.4375
450383055906,26.375,30.25,-17
450383077018,23,23.875,-17.1875
450383092801,20,21.5625,-18.375
450383115950,21.1875,21.6875,-16.9375
450383137022,19.5625,14.9375,-13.6875
450383152813,14.5625,14,-11
450383175939,14.1875,14.25,-8.125
450383197046,13.375,15.5625,-6.5625
450383220943,9,10.1875,-7.6875
450383235951,6.3125,7,-8.625
450383257002,3.6875,1,-8.3125
450383272825,-1.75,-10,-5
450383296017,-5.125,-15.3125,0.375
450383316979,-6.625,-20.625,5.375
450383332793,-11.25,-27.25,7.75
450383355944,-14.5,-28.125,7.5625
450383377008,-16.0625,-27.1875,7.375
450383392853,-19.5625,-21.25,8
450383415285,-20.125,-11.375,9.75
450383437049,-20.3125,-13.625,13.125
450383452786,-26.375,-23.5625,13.4375
450383475300,-31.5625,-35.1875,13.1875
450383497049,-34.625,-45.4375,15.5625
450383512796,-38.5625,-47.875,15.75
450383535314,-40.125,-50.5625,14.625
450383558447,-41.5625,-48,12.6875
450383572767,-43.625,-45.5625,10.375
450383595297,-42.3125,-40.75,12.5
450383618518,-41.5625,-30.9375,15.75
450383632831,-41.9375,-29.1875,17.25
450383655322,-42.5,-36.6875,16.6875
450383678487,-43.6875,-44.8125,13
450383699533,-45.1875,-53.125,11.625
450383722050,-46,-57.1875,12.1875
450383738426,-43.0625,-51.9375,12.25
450383752818,-38.75,-42.625,11
450383775354,-38.1875,-34.125,7.125
450383798451,-34,-30,5.1875
450383819518,-28.5625,-30.375,5.3125
450383835328,-28.9375,-33.9375,6.8125
450383858468,-28.3125,-30.875,9.625
450383879574,-21.75,-29.6875,11.4375
450383895371,-16.4375,-29.8125,10.5
450383918523,-15.9375,-35.3125,8.5625
450383939578,-13,-31.125,9.5
450383955289,-5.625,-20.75,15.0625
450383978443,0.125,-13.5,19.4375
450383999532,1.6875,-12.1875,17.25
450384015314,5.4375,-11.3125,11.1875
450384038483,7.4375,-14,8.4375
450384059549,10.125,-11.4375,11.8125
450384075344,18.375,-7.1875,17
450384098480,20.625,-2.625,18.1875
450384119520,17.875,1.25,14.5625
450384143478,22.625,10.1875,9
450384158523,29.6875,18.375,5.3125
450384179505,28.875,15.3125,2.9375
450384195297,27.625,13.8125,3.4375
450384224581,31.6875,15.0625,7.5625
450384239526,30,13.375,10.5625
450384255304,27.875,10.875,8.5
450384278528,30.4375,9.0625,3.625
450384299545,27.75,5.6875,-1.6875
450384315353,24,10,-3.75
450384338283,27.8125,22.375,-2.3125
450384359628,26.3125,26.0625,-3
450384375374,20.3125,27.4375,-7.5
450384397839,20.375,27.1875,-12.1875
450384419651,18.75,29.4375,-16.3125
450384435337,13.5625,31.0625,-18.6875
450384457881,9.125,64.9375,-34.8125
450384479620,21,53.9375,-20.875
450384495444,5.5625,59.5625,-21.5625
450384517887,12.25,50.8125,-18.6875
450384548562,5.9375,47.5625,-26.0625
450384555410,-11.0625,39.1875,-32.8125
450384577902,-20.375,41.6875,-38.75
450384601057,-12.75,44.875,-33.6875
450384615418,-14.6875,43.5,-26.8125
450384637840,-21.8125,26.8125,-15
450384660988,-17.375,9.375,-5.25
450384675417,-16.1875,-8.9375,-4.0625
450384697900,-28.125,-19.125,-14.625
450384721021,-6.6875,-30.1875,-6.0625
450384735373,8.5625,-31.1875,4.25
450384757843,9.875,-50.5,7
450384781088,13.375,-32.1875,3.6875
450384802108,9.6875,-29.3125,-3.3125
450384817900,6.625,-16.4375,-2
450384841039,12.3125,-4.4375,5.125
450384862086,6.5625,1.625,6.6875
450384877906,0.9375,-0.375,4.8125
450384900978,7.25,0.625,2.3125
450384915402,19.6875,1.75,0.625
450384937890,28.375,-3.625,-0.625
450384961084,24.8125,-6.4375,0.25
450384982110,27.6875,-14,7.75
450384997885,26.4375,-23.4375,13.125
450385027144,14,-24.1875,12.1875
450385042119,8.5,-20.9375,10.8125
450385057870,1.25,-21.75,7.125
450385081059,-1.5,-15.4375,6.9375
450385102015,-3.875,-9.9375,6.6875
450385117931,-8.875,-6.625,7
450385131412,-7.8125,-4.3125,7.125
450385153969,-5.8125,-4.4375,3.625
450385177116,-5.5,-3.1875,0.75
450385191492,-8.4375,-5,-3.0625
450385213963,-7,-6.5,-4.8125
450385237118,-4.3125,-1.8125,-4.5625
450385251472,-4.4375,2.3125,-4.3125
450385273963,-4.25,10.625,-2.9375
450385297075,-0.75,16.5,-1.875
450385311490,0.625,20.375,-0.625
450385333919,-1.6875,17.125,0.0625
450385357068,-1.5625,6.9375,2.125
450385371425,-6.875,-4.0625,1.375
450385393956,-9.3125,-11.3125,1.5625
450385417075,-5.625,-13.6875,0.9375
450385432894,-2.1875,-9.0625,-0.375
450385453961,-0.125,0.5,-1.25
450385477141,2.5625,7.0625,-0.25
450385491522,2.8125,10.3125,1.375
450385513933,2.8125,9.75,0.9375
450385537186,-2.1875,9.3125,-1.5625
450385551438,-3.9375,3.0625,-3.9375
450385573940,-4.5625,-0.625,-5.5625
450385597086,-11.75,-0.625,-5.75
450385612833,-13.125,2.5625,-4.1875
450385633985,-9.8125,3.0625,-1.8125
450385657053,-5.8125,0.75,1.1875
450385671386,-2.75,0.8125,0.8125
450385693991,-4.5625,2.25,-0.375
450385717085,-1.6875,-0.625,-0.3125
450385731461,1.5625,-4.625,-0.6875
450385755414,1.125,-6.3125,-0.625
450385777092,-2.125,-8.625,-2.125
450385791456,-4.625,-2.8125,-2.875
450385813981,-2.0625,6.3125,-2.875
450385837148,2.8125,17.375,-3.3125
450385851406,2.125,25.75,-5.25
450385882760,1.4375,29.375,-6.5625
450385897160,3.75,27.625,-3.8125
450385911410,0.125,25.5625,0.125
450385933994,0.5,11.5625,4.8125
450385957112,-2.1875,0.375,3.375
450385971459,-5.25,-17.5625,-0.25
450385993961,-9.8125,-33.5625,-2.875
450386017134,-11.1875,-32.9375,-1.75
450386031498,-8.875,-33.4375,3
450386054039,-10.4375,-25.6875,6.5
450386077134,-9.4375,-17.1875,7.5
450386091481,-7.9375,-5,6.8125
450386113968,-12.1875,6.0625,6
450386137187,-12.9375,11,7.3125
450386151468,-12.4375,10.125,7.375
450386173889,-16.4375,10.8125,2.6875
450386197120,-23.5625,3.5625,-3.75
450386211432,-27.25,0.9375,-10.1875
450386233963,-25,1.5625,-13.75
450386256498,-28.6875,-1.0625,-15.6875
450386271427,-32.375,0.6875,-15.375
450386293954,-30.0625,-0.1875,-14.625
450386317114,-30.625,-9.5,-12.6875
450386331488,-37.1875,-13.8125,-13.125
450386354017,-38.1875,-13.75,-11.3125
450386376488,-34.875,-8.9375,-6.9375
450386391528,-35,0.75,-5.4375
450386413953,-31.25,14.375,-5.6875
450386436464,-29.25,20.9375,-9.125
450386451464,-31.3125,22.5625,-11.4375
450386474014,-29.9375,14.25,-8.375
450386496542,-26.25,10.125,-4.9375
450386511438,-23.0625,16.5,-8.3125
450386534033,-24,20.4375,-12.9375
450386556501,-27.125,13.625,-11.4375
450386572918,-14.0625,14.1875,-5.25
450386593996,4.75,23.625,0.125
450386616512,-3.375,13.125,-1.25
450386631502,-17.5625,-1,-6.25
450386653955,-0.875,-12.875,2.625
450386676496,12.875,-16,12.4375
450386691495,8.8125,-10.875,16.4375
450386713995,11.5625,-15.8125,16.5625
450386736410,17.9375,-18.375,14.375
450386751495,17.9375,-17.1875,15
450386773978,19.5,-12.0625,18.6875
450386796493,27.5,1.6875,18.9375
450386811521,34.5625,-10.25,12.25
450386833989,29.4375,-35.0625,0.5625
450386856491,14.5625,-42.25,-7.0625
450386871509,15.875,-18.5,7.4375
450386893961,31.875,-13.625,37.4375
450386916460,38.375,3,49.125
450386931488,38.25,31.8125,43.4375
450386953947,25.8125,46.6875,32.5625
450386976535,22.25,55.5,23.1875
450386991470,41.0625,51,22.3125
450387013959,37.875,18.6875,19
450387036485,9.125,-14.875,7.9375
450387051525,5.625,-48.3125,9.8125
450387074015,18.75,-59.125,17.5625
450387096509,13.4375,-39.5,13.25
450387111493,12.3125,-4.125,5.4375
450387133916,23.625,23.125,-0.625
450387156519,36.8125,49.25,-1.625
450387172941,47.6875,69.75,5.3125
450387194008,49.6875,77.5,15.6875
450387216523,49.75,76.6875,20.125
450387232898,69.3125,49.5625,23.1875
450387253988,77.75,-6.4375,13.875
450387276491,63.625,-63.0625,-2.8125
450387292943,71.25,-84.25,-0.0625
450387314051,87.125,-86.125,14.375
450387336442,94.75,-92.75,34.375
450387352911,97.4375,-91.1875,43.8125
450387373989,110.125,-68.0625,47.8125
450387396418,118.188,-28.8125,46.5
450387412997,117.938,-3.25,38.625
450387434014,122.938,22.5,35.3125
450387457945,121.625,13.3125,30.6875
450387472992,113,-19.25,26.8125
450387496916,104.938,-41.9375,27.5625
450387516564,99.4375,-63.3125,30.0625
450387532896,84.6875,-82.0625,31.5625
450387553993,73.125,-82.5,31.625
450387576484,68.375,-83.3125,34.9375
450387592954,56.4375,-51.625,41.375
450387613984,49,-30.9375,39.9375
450387636529,34.75,-11.25,47.5625
450387652983,7.4375,-18.5625,42.375
450387673986,-4.875,-32.875,39.6875
450387696557,-26.3125,-52.8125,30.375
450387712924,-65.6875,-61.6875,13.875
450387733965,-80.1875,-43.8125,-0.3125
450387756442,-91.375,-34.0625,-14.8125
450387772837,-122.562,-1.625,-36
450387794041,-133.938,21.1875,-48.625
450387816523,-147.938,18.0625,-50.125
450387832932,-177.062,29.8125,-52.6875
450387853989,-183.562,78.0625,-51.5
450387876493,-192.375,129,-52.3125
450387892954,-211.688,147.438,-72.5
450387913944,-203.938,144,-104.938
450387936509,-204.188,108.25,-126.625
450387952983,-260.438,45.8125,-127.5
450387974058,-254.562,67.3125,-94.25
450387996519,-198.625,98.375,-60.875
450388013009,-219.625,105.875,-71.8125
450388034012,-248.125,103.125,-96.4375
450388056481,-208,85.125,-93.25
450388072966,-179.188,83.6875,-71.125
450388093997,-183.438,108.375,-60.75
450388116491,-176.562,93.4375,-43.125
450388132926,-174.125,51.4375,-39.4375
450388155446,-151.625,-1.625,-31.9375
450388176459,-119.375,-7.8125,-26.625
450388192985,-123.875,3.0625,-26.4375
450388215461,-117.188,21.9375,-27.75
450388237962,-56.4375,38.4375,-13.9375
450388252943,-29.9375,51.4375,-13.4375
450388275430,-22.375,60.9375,-13.8125
450388296521,7.0625,30.4375,-4.9375
450388314456,48.5625,48.4375,7.75
450388342961,79.4375,56.25,31.1875
450388364718,98.625,29.125,49.8125
450388380415,123.438,-23.5625,68
450388395441,151.75,-62.875,74.5625
450388419408,171.375,-77.5625,76.25
450388433004,167.062,-112.75,70.0625
450388455499,185.062,-140.312,72
450388476515,214.875,-142.812,72.75
450388492952,217.062,-108.25,70.0625
450388515483,207.562,-63.3125,77.0625
450388536541,227,-37.125,89.5625
450388552945,244.062,-17.875,96.0625
450388575490,230.938,0.9375,90.5
450388596510,214.562,3.1875,88.1875
450388612936,210.375,-7.25,89.6875
450388635450,213.25,-40.9375,89.3125
450388657160,186.438,-62.875,82.125
450388672217,153.812,-80.625,76.5
450388694684,144.625,-82.0625,82.3125
450388717194,141.25,-55.9375,84.0625
450388732200,118.375,-36.375,69
450388754686,87.5,-31.0625,45.5625
450388777210,68.4375,-40.0625,30.5625
450388792197,52.625,-34.1875,30.8125
450388814697,29.4375,-17.25,33.9375
450388837247,2,-1.8125,21.625
450388852115,-11.8125,5.8125,-6.125
450388874719,-27.9375,-0.6875,-38.4375
450388897209,-54.3125,7.375,-52.5
450388912211,-73.6875,7.5625,-44.5
450388934672,-81.375,9.4375,-30.9375
450388957186,-91.0625,7.9375,-33.125
450388972212,-110.062,4.5,-50.0625
450388994696,-122.188,0.625,-62.3125
450389017185,-123.125,-9.9375,-58.125
450389032190,-128.75,-20.5,-44.5625
450389054609,-138.875,-29.1875,-31.625
450389077100,-141.875,-28.375,-27.0625
450389092096,-147.312,-30.1875,-33.25
450389114620,-149.188,-23.25,-42.375
450389137130,-144.938,-18,-46.9375
450389152193,-138.938,2.75,-43.9375
450389174643,-133.75,22,-35.5
450389197102,-130.562,38.0625,-29.125
450389212147,-124.312,53.125,-29.375
450389234617,-114.312,60.6875,-33.3125
450389257088,-106.188,68.9375,-38.375
450389273628,-95,71.75,-42.375
450389294743,-80.4375,61.5,-41.1875
450389317191,-72.375,39.1875,-38.5625
450389333656,-64.0625,7.125,-29.3125
450389354688,-50.5,-20,-14.375
450389377162,-38.375,-38.3125,-0.8125
450389393688,-22,-41.875,10.75
450389414727,-10.3125,-41.9375,16.8125
450389437210,1.125,-34.8125,21.1875
450389453608,18.5,-19.375,25.4375
450389474721,34.75,3.0625,28.625
450389497222,41.8125,22,31.25
450389513666,49,36.0625,31.8125
450389534778,61.5,32.1875,31.1875
450389557180,64.375,26.125,26.6875
450389573667,65.625,12.375,24.625
450389594685,72.625,12.3125,27.3125
450389617000,79.3125,8.1875,32.875
450389633639,80.6875,5.75,38.25
450389654683,81.125,-2.8125,41.3125
450389677182,84.25,-8.875,44.0625
450389693679,85.125,-11.0625,47.9375
450389714817,79.9375,-12.9375,51.125
450389737216,78.8125,-24.9375,54.0625
450389753650,78.625,-32.8125,51.25
450389774743,68.75,-41.375,48.375
450389797210,57.125,-37.4375,49.0625
450389813682,56.125,-24.25,55.125
450389834735,60.4375,3.125,59.375
450389857235,41.8125,18.6875,52.625
450389873699,18.125,22.4375,52.125
450389894716,9.4375,26.125,56.8125
450389917257,9.125,33.6875,58.5625
450389933682,-17.6875,35.75,52.25
450389954690,122.875,697.75,68.375
450389977237,62,269.062,64
450389993665,159.375,162.125,-3.375
450390014710,-272.812,-143.688,-47.9375
450390037244,-222.875,17.75,-31.875
450390053013,-123.938,-18,20.125
450390074647,-235.75,-5,-68.4375
450390097240,-269.375,-20.5,-35
450390112932,-236.188,-18.6875,0.25
450390134730,-272.938,-13.375,-4.1875
450390157192,-314.562,-52.3125,-19.9375
450390172995,-377.812,-147.062,-13.25
450390196162,-437.562,-187.062,-23.4375
450390217275,-502.312,-236.375,-28
450390233482,-561.375,-290.312,-5.375
450390255933,-612.125,-46.625,19.1875
450390277250,-531.688,-51.5,13.25
450390293004,-446,49.4375,-2.1875
450390316144,-270.438,-83.0625,86.625
450390337179,-132.812,63.75,54.1875
450390361189,-270.062,-76.5,69.5625
450390376179,-332.938,-90.4375,113
450390397243,-118.5,-107.375,123.75
450390412994,-5.5,-173,81.125
450390436155,-33.9375,-35.3125,6.625
450390457270,12.8125,-66.375,-62.75
450390473037,205.812,65.9375,-85.1875
450390496133,185.688,19,-82.5
450390517240,118.438,-61.6875,-36.4375
450390533022,102,-19.9375,-4.9375
450390556141,49.8125,-16.4375,-15.375
450390584751,87,-23.875,-50.9375
450390593034,107.438,-15.4375,-93.625
450390616140,97.9375,-19.5,-100
450390637317,48.5,-17.9375,-72.625
450390653003,-11.4375,4.8125,-59.5
450390676160,36,-24.0625,-42.375
450390697255,32.5625,-1.0625,-41.3125
450390713012,32.5,-30.4375,-41.6875
450390736213,19.4375,-3.375,-21.25
450390757176,-18.1875,-4.6875,29.875
450390781116,-50.3125,16.5,57.6875
450390802209,-33.375,51.5625,66.4375
450390817327,-53.4375,103.562,79.1875
450390833062,-31.875,145.812,79.625
450390856212,-76.1875,244.688,86.75
450390877203,-69.1875,292.188,81.75
450390893032,-29.25,366.25,55.9375
450390916142,-85.125,227.938,31.25
450390937218,-189.438,223.5,20.75
450390953015,-164.812,72.3125,30.9375
450390975492,-193.312,61.4375,19.1875
450390997188,-229.688,3.3125,17.8125
450391013071,-197.812,72.75,12.5625
450391035537,-179.188,89.5,-1.3125
450391057049,-175.562,98.25,-11.5
450391073019,-160.062,94.25,-12.5625
450391095566,-141.75,47.5625,-7.9375
450391118682,-150.812,26.4375,-9.75
450391133025,-142.375,16.75,22.375
450391155548,-101.75,-29.9375,12.875
450391178692,-30.75,-42.375,-10.5625
450391193008,-48.0625,-56.9375,4.5625
450391215557,-14.5625,-43.75,21.9375
450391238707,22.1875,-32.25,32.4375
450391253052,21.875,-11.5,10.375
450391275486,66.9375,-19.8125,22.25
450391298679,79.8125,-17.625,0.3125
450391319742,114.25,-29.5,-11.8125
450391335478,130.188,-30.25,-16.4375
450391358739,136.062,-24.3125,-21.5
450391373059,138.812,-19.75,-19.1875
450391395502,131.312,-28.6875,-17.125
450391418745,145.438,-21.25,-18.8125
450391439533,132.438,-13.4375,-29.3125
450391455535,126.625,-8.5,-32.3125
450391478687,116.875,-6.9375,-28.625
450391499718,110.188,-5,-27.875
450391515583,92.375,-5.8125,-19.1875
450391538734,82.75,-4.6875,-15.5
450391559790,78,-6.0625,-10.4375
450391575562,62.5625,-7.75,-10.9375
450391598707,55.1875,-1.125,-8.375
450391619773,45.75,3.8125,-11
450391635483,43.3125,12.4375,-7.5625
450391658749,58.875,26.9375,-15.1875
450391679764,57.875,23.5,-10.75
450391695561,57.3125,18.9375,-8.125
450391718708,46.375,1.9375,-7.375
450391739764,41.1875,-3.3125,-5.75
450391755498,40.25,-9.25,-0.625
450391778731,35.125,-10,-2.75
450391799762,35.625,-9.75,1.875
450391815485,31.8125,-9.1875,2.875
450391838457,19.375,-3.3125,-0.5
450391859757,7,7.125,-3.625
450391875527,0.5625,9.4375,-1.4375
450391898697,-0.375,17.0625,1.0625
450391919793,0.625,23.5625,7.125
450391935541,-3.9375,28.875,8.8125
450391958090,-13.5625,30.5,7.5625
450391979734,-22.875,27.6875,4.5
450391995572,-28.1875,22.625,2.4375
450392018008,-30.3125,14.3125,0.75
450392039761,-29.8125,8.8125,3
450392055568,-29,7.0625,5
450392078071,-32.9375,6.625,4.5
450392101237,-37.5,7.8125,4.25
450392115535,-40.6875,10.1875,3.25
450392138052,-39.875,11.5625,2.875
450392161193,-36.4375,11.625,2.875
450392175557,-32.8125,9.875,2.5
450392189144,-28.9375,7.875,2.5625
450392211645,-26.3125,7.9375,3.4375
450392234754,-26.5,9.1875,3.0625
450392249147,-25.75,10.5625,2.4375
450392271620,-21.5625,10.125,2.25
450392294741,-14.8125,6.4375,2.3125
450392309091,-8.25,1.6875,1.625
450392331587,-2.5,0.125,1.875
450392354785,-0.3125,0.625,0.75
450392369058,0.8125,1.25,-0.4375
450392391646,4.3125,0.6875,-0.3125
450392414759,9.6875,-0.875,0.5625
450392429143,15.4375,-2.0625,1.25
450392451656,19.5,-2.9375,1.5
450392474781,20.4375,-1.9375,0
450392489142,20.875,-1.0625,-0.875
450392511729,21.8125,-2.125,-1.1875
450392534787,23.8125,-2.4375,-0.875
450392549116,26.0625,-3.1875,0.125
450392571534,26.25,-3.25,0.5
450392594768,24.625,-3.1875,0
450392609011,22.5,-3.5,-0.5
450392631616,20.5,-3.9375,-1
450392654841,19.1875,-4.5625,-1.1875
450392669164,18.8125,-6,-0.125
450392691629,17.3125,-6.6875,0.5625
450392714571,13.625,-6.3125,0.4375
450392729143,9.5625,-5.5,0.5
450392751619,6.375,-5.875,0.6875
450392774762,4.1875,-6.4375,0.8125
450392789232,2.125,-7.1875,1.0625
450392811565,-0.8125,-7,1.1875
450392834763,-4.6875,-6.5625,0.8125
450392849153,-7.9375,-6.5,0.6875
450392871695,-10,-7.125,1.25
450392894755,-11.875,-8.6875,1.6875
450392909100,-13.125,-10.8125,2.25
450392931612,-14.625,-12.375,2.625
450392954747,-16.5625,-10.75,2.5
450392969137,-18.3125,-6.1875,2.3125
450392991659,-19.625,0.5,1.8125
450393014045,-19.375,4.6875,1.8125
450393030554,-18.125,3.5625,1.75
450393051644,-17.25,2.875,1.25
450393074166,-16.875,0.8125,1
450393089173,-15.8125,-2.625,1.125
450393111583,-13.4375,-8.125,1.5625
450393134119,-11.0625,-13.4375,1.8125
450393149113,-9.5,-16.875,2.1875
450393171647,-8.5625,-17.375,2.3125
450393194075,-7.25,-16.125,2.5
450393209161,-6.6875,-13.75,2
450393231610,-5.9375,-10.5,1.375
450393254112,-4.9375,-7.875,0.9375
450393269115,-4.375,-6.8125,0.1875
450393291718,-3.125,-7.5625,0
450393314128,-1.9375,-8.5625,0
450393329086,-0.6875,-8.4375,0.0625
450393351646,0.1875,-7.9375,0.6875
450393382909,0.8125,-7.0625,1
450393389147,0.9375,-4.8125,0.8125
450393411581,1.3125,-2.4375,0.625
450393434147,1.5,-0.5,0.125
450393449105,1.4375,-0.125,-0.5
450393471721,2.25,-0.5625,-0.5
450393494170,2.4375,-1.6875,-0.25
450393510691,2.5625,-3.5,0.125
450393531547,2.8125,-4.9375,0.625
450393554079,2.3125,-5.0625,0.5
450393569087,1.75,-4.4375,0.375
450393591734,1.3125,-2.5625,-0.0625
450393614172,0.75,-0.625,-0.5
450393629099,0.9375,0.1875,-0.25
450393651625,0.6875,1,-0.1875
450393674146,0.1875,0.75,0.0625
450393689135,0.125,-0.3125,0.5625
450393711682,-0.125,-0.9375,0.75
450393734198,0,-2.875,1.0625
450393749090,-0.3125,-4.4375,1.0625
450393771642,-1.0625,-3.0625,0.5
450393794149,-2.125,-2.3125,0.0625
450393809106,-2.5625,-3.1875,0
450393831756,-2,-3.375,0.5625
450393854140,-2.0625,-3.625,0.8125
450393870670,-2.5,-4.1875,1.125
450393893043,-3,-4.75,1.0625
450393914136,-3.125,-6.625,1.125
450393930563,-3,-9.125,1
450393951607,-3.125,-9.625,1.0625
450393974134,-3.625,-9.4375,0.9375
450393990635,-4.5,-10.5,0.6875
450394011650,-4.8125,-0.9375,-2.5
450394034044,0.75,0,1.8125
450394050645,0.1875,-0.25,0.0625
450394071650,0.0625,-0.5625,-0.875
450394094136,-0.3125,-1,-1.125
450394110523,0.0625,-0.625,-0.5625
450394131656,0,-0.875,-0.6875
450394154111,-0.125,-1,-0.75
450394170496,0.3125,-0.375,0.3125
450394191575,0.25,-0.8125,0.25
450394214077,0.5,-0.375,0.8125
450394230506,-0.3125,-1,-1.25
450394251546,-0.1875,-1.25,-1.0625
450394282231,-0.0625,-1.3125,-0.875
450394290503,0.4375,-1.625,0.625
450394319777,0,-3.6875,-0.375
450394334126,-0.875,-7.375,-2.625
450394350528,-1.75,-10.3125,-4.5625
450394371668,-1.5625,-14.6875,-2.8125
450394394064,-1.9375,-19.25,-2.1875
450394410502,0.875,-11.875,5.25
450394431563,0.1875,-15.125,4
450394454088,0.1875,-6.875,1.375
450394470611,0.25,-8.3125,1.875
450394494508,0.125,-6.6875,1.5
450394514103,0.1875,-5.9375,1.5
450394530612,-1,-9.125,1.625
450394551606,-0.9375,-7,0.8125
450394574127,-0.75,-5.9375,0.5625
450394590645,-0.5625,-5.3125,0.625
450394619758,-0.1875,-3.8125,0.5
450394634088,-0.375,-6.1875,0.75
450394650654,0,-6.4375,1.3125
450394671653,0.625,-6.0625,1.5
450394694095,-0.125,-7.25,2
450394710595,-0.1875,-6.625,1.9375
450394731624,-0.875,-5.4375,1.25
450394754112,-0.5625,-4.25,1.4375
450394770631,0.0625,-1.9375,0.8125
450394793040,0.3125,-0.875,0.25
450394814127,0.3125,-0.3125,0.125
450394830517,0.1875,-0.4375,0.3125
450394853089,0.1875,-1,0.3125
450394874152,-0.0625,-2.0625,0.5625
450394890595,0.1875,-1,0.3125
450394913007,0.3125,-0.625,0.3125
450394934143,0.375,-0.3125,0.25
450394950642,0.3125,-0.3125,0.25
450394973083,0.375,-0.375,0.25
450394994127,0.25,-0.3125,0.3125
450395010618,0.4375,-0.1875,0.1875
450395033077,0.3125,0,0.25
450395054112,0.375,0.1875,0.125
450395070616,0.4375,0.0625,0.25
450395093097,0.375,-0.125,0.25
450395114138,0.4375,0.75,0.1875
450395130655,0.5,1.625,-0.375
450395153044,0.75,2.4375,-0.6875
450395174112,0.625,2.125,-0.75
450395190633,0.5,1.5625,-0.4375
450395213039,0.5,0.9375,-0.0625
450395234046,0.5,0.375,0.25
450395250623,0.5625,0.25,0.25
450395273061,0.5,1.5625,-0.4375
450395294122,0.75,3.25,-1
450395310593,0.5625,4.5,-0.875
450395333034,0.5625,3,0.0625
450395354140,0.4375,2.125,0.0625
450395370648,0.1875,-0.5,0.1875
450395393109,0.3125,-0.4375,0.25
450395414186,0.375,-0.3125,0.25
450395430682,0.375,-0.125,0.3125
450395453118,0.3125,0.3125,0.1875
450395474222,0.375,0,0.1875
450395490556,0.3125,-0.1875,0.25
450395513112,0.5,0.625,0.25
450395534216,0.4375,1.5625,0
450395550687,0.5,2.3125,-0.0625
450395573114,0.5625,2.8125,-0.125
450395595677,0.5,2.1875,-0.125
450395610672,0.4375,0.75,0.1875
450395634548,0.25,-0.25,0.25
450395654158,0.375,-0.4375,0.25
450395670683,0.375,-0.4375,0.125
450395693111,0.3125,-0.1875,0.25
450395714125,0.375,-0.1875,0.25
450395731323,0.375,-0.375,0.25
450395752335,0.3125,-0.375,0.25
450395774830,0.25,-0.375,0.25
450395789828,0.375,-0.25,0.25
450395812342,0.375,-0.25,0.25
450395834904,0.3125,-0.4375,0.1875
450395851284,0.25,-0.375,0.25
450395872307,0.375,-0.3125,0.3125
450395894864,0.3125,-0.375,0.1875
450395911297,0.375,-0.375,0.25
450395932332,0.3125,-0.5,0.1875
450395954868,0.3125,-0.4375,0.25
450395971314,0.3125,-0.3125,0.25
450395992315,0.3125,-0.3125,0.25
450396014846,0.3125,-0.3125,0.3125
450396031357,0.3125,-0.4375,0.1875
450396052366,0.3125,-0.375,0.25
450396074840,0.25,-0.3125,0.25
450396091327,0.25,-0.25,0.1875
450396112371,0.375,-0.1875,0.375
450396134806,0.25,-0.3125,0.25
450396151238,0.3125,-0.375,0.25
450396172363,0.375,-0.25,0.1875
450396194861,0.3125,-0.125,0.1875
450396211263,0.4375,-0.1875,0.25
450396232343,0.375,0.1875,0.25
450396254840,0.375,0.25,0.25
450396271241,0.3125,0.0625,0.0625
450396292365,0.3125,0,0.1875
450396314902,0.375,0.3125,0.125
450396331310,0.4375,1.125,0.1875
450396352379,0.5,1.5625,0.0625
450396374855,0.5625,1.9375,0
450396391242,0.375,0.5,0.0625
450396412348,0.4375,-0.3125,0.1875
450396434904,0.4375,-0.375,0.25
450396451327,0.3125,-0.375,0.25
450396472361,0.3125,-0.25,0.25
450396494868,0.375,0.25,0.25
450396511331,0.3125,-0.25,0.125
450396533788,0.25,-0.375,0.25
450396554901,0.25,-0.4375,0.1875
450396571285,0.25,-0.3125,0.3125
450396592344,0.375,-0.375,0.25
450396614840,0.375,-0.4375,0.1875
450396631242,0.375,-0.4375,0.25
450396652396,0.375,-0.375,0.1875
450396674828,0.3125,-0.3125,0.25
450396690740,0.3125,-0.375,0.3125
450396712432,0.3125,-0.4375,0.1875
450396734791,0.3125,-0.4375,0.25
450396750631,0.375,-0.3125,0.3125
450396772392,0.3125,-0.3125,0.1875
450396794898,0.25,-0.3125,0.1875
450396810711,0.25,-0.4375,0.25
450396839776,0.375,-0.3125,0.25
450396854869,0.25,-0.375,0.25
450396870671,0.3125,-0.25,0.1875
450396893767,0.3125,-0.4375,0.1875
450396914883,0.3125,-0.4375,0.1875
450396930681,0.4375,-0.375,0.25
450396953841,0.3125,-0.375,0.25
450396974897,0.375,-0.375,0.25
450396990639,0.375,-0.4375,0.25
450397013763,0.3125,-0.5,0.1875
450397034870,0.25,-0.375,0.3125
450397050694,0.3125,-0.4375,0.25
450397073847,0.3125,-0.375,0.1875
450397094873,0.3125,-0.375,0.3125
450397110639,0.3125,-0.25,0.25
450397133820,0.375,-0.4375,0.1875
450397154872,0.375,-0.4375,0.1875
450397170698,0.375,-0.375,0.125
450397193828,0.3125,-0.625,0.1875
450397214913,0.25,-1.0625,0.25
450397230610,0.25,-1,0.3125
450397253806,0.125,-1.0625,0.25
450397274885,0.0625,-2.1875,0.25
450397290668,-0.0625,-2.5,0.25
450397313835,-0.0625,-3.5,0.25
450397334866,-0.0625,-3.5625,0.25
450397350646,-0.0625,-4.25,0.6875
450397373843,-0.25,-4.875,0.6875
450397394842,-0.125,-4.0625,0.625
450397410654,0.0625,-3.75,0.5625
450397433860,0.4375,-2.25,0.4375
450397454893,0.25,-1.5,0.375
450397470682,0.375,-0.3125,0.25
450397493839,0.4375,0,0.25
450397514893,0.25,-0.4375,0.25
450397530640,0.375,-0.1875,0.3125
450397553728,0.375,-0.3125,0.25
450397574840,0.3125,-0.5,0.1875
450397590681,0.375,-0.25,0.375
450397613143,0.3125,-0.375,0.1875
450397634880,0.375,-0.25,0.3125
450397650684,0.3125,-0.375,0.1875
450397673642,0.375,-0.1875,0.3125
450397696290,0.375,-0.0625,0.25
450397710643,0.375,0.75,0.125
450397733154,0.3125,1.3125,0.125
450397756322,0.375,1.6875,0.1875
450397770685,0.4375,1.375,0.1875
450397793125,0.375,1.125,0.1875
450397816334,0.375,0.75,0.1875
450397831314,0.375,0.8125,0.25
450397853157,0.4375,0.5625,0.1875
450397876396,0.4375,0.625,0.25
450397890693,0.4375,0.0625,0.25
450397913184,0.375,0.1875,0.1875
450397936333,0.5,0.4375,0.125
450397950665,0.375,0.5,0.25
450397973157,0.3125,0.3125,0.1875
450397996268,0.375,-0.1875,0.1875
450398010708,0.3125,-0.4375,0.25
450398033181,0.3125,-0.4375,0.25
450398056264,0.3125,-0.3125,0.1875
450398070594,0.3125,-0.375,0.1875
450398093099,0.3125,-0.375,0.25
450398116273,0.25,-0.375,0.1875
450398130631,0.1875,-0.4375,0.25
450398153111,0.3125,-0.375,0.3125
450398176270,0.375,-0.375,0.25
450398190588,0.375,-0.4375,0.1875
450398213123,0.3125,-0.375,0.25
450398236244,0.3125,-0.375,0.25
450398257432,0.25,-0.4375,0.25
450398273212,0.1875,-0.375,0.25
450398296409,0.375,-0.375,0.3125
450398317436,0.4375,-0.375,0.1875
450398333191,0.25,-0.3125,0.25
450398356294,0.3125,-0.4375,0.1875
450398378842,0.3125,-0.3125,0.3125
450398393212,0.3125,-0.375,0.1875
450398416372,0.375,-0.375,0.1875
450398437418,0.3125,-0.375,0.3125
450398453179,0.4375,-0.375,0.3125
450398476381,0.25,-0.375,0.25
450398497440,0.3125,-0.3125,0.3125
450398513233,0.25,-0.4375,0.25
450398536315,0.3125,-0.375,0.25
450398557425,0.3125,-0.375,0.25
450398573147,0.375,-0.3125,0.25
450398595637,0.3125,-0.25,0.3125
450398617389,0.3125,-0.375,0.25
450398633182,0.375,-0.375,0.1875
450398655679,0.375,-0.3125,0.3125
450398677305,0.375,-0.375,0.3125
450398693182,0.3125,-0.3125,0.1875
450398715730,0.3125,-0.375,0.25
450398738811,0.25,-0.375,0.25
450398753217,0.3125,-0.375,0.3125
450398775668,0.375,-0.4375,0.3125
450398798858,0.25,-0.375,0.1875
450398813149,0.25,-0.5,0.25
450398835753,0.3125,-0.25,0.25
450398858890,0.375,-0.3125,0.25
450398873174,-0.125,0,-0.0625
450398895678,0,-0.125,0
450398918860,0.0625,-0.0625,0
450398933716,-0.0625,0,-0.0625
450398955657,-0.125,-0.0625,-0.0625
450398978868,-0.125,0,-0.0625
450398993206,-0.0625,-0.0625,-0.0625
450399015666,-0.0625,-0.0625,-0.0625
450399038859,-0.125,-0.0625,-0.125
450399053158,-0.0625,-0.0625,-0.0625
450399075645,-0.0625,-0.125,-0.0625
450399098876,-0.0625,-0.0625,-0.125
450399113196,-0.0625,-0.125,-0.125
450399135665,0,0,-0.0625
450399158864,-0.0625,-0.0625,-0.0625
450399173168,-0.0625,0,-0.125
450399195696,0,0,-0.0625
450399218824,0,0,-0.0625
450399239952,-0.1875,-0.0625,0
450399255730,0,0,-0.0625
450399269235,-0.0625,-0.0625,-0.0625
450399291707,-0.0625,-0.0625,0
450399314878,-0.1875,-0.0625,0
450399329271,0,-0.0625,-0.0625
450399351854,-0.0625,0,-0.125
450399374890,-0.0625,-0.0625,-0.125
450399389181,-0.0625,-0.0625,-0.0625
450399411850,-0.0625,-0.0625,-0.125
450399434950,0,-0.0625,-0.125
450399449261,0,-0.0625,0
450399471769,-0.125,0,-0.0625
450399494859,0,-0.0625,-0.125
450399509242,-0.0625,-0.0625,-0.0625
450399531806,0,-0.0625,-0.0625
450399554953,-0.0625,-0.0625,0
450399569219,-0.0625,-0.0625,0
450399591791,-0.0625,-0.1875,-0.0625
450399614944,-0.0625,0,-0.0625
450399629327,0,-0.0625,-0.0625
450399651823,-0.0625,-0.0625,-0.0625
450399675023,-0.125,-0.0625,-0.0625
450399689273,0,-0.0625,-0.0625
450399711811,-0.0625,0,0
450399734879,0.0625,-0.0625,-0.0625
450399749233,-0.0625,-0.125,-0.125
450399771768,-0.0625,-0.0625,-0.0625
450399794972,-0.125,-0.0625,-0.0625
450399810668,0,-0.0625,-0.0625
450399831736,-0.0625,-0.0625,-0.0625
450399854898,0,-0.0625,-0.0625
450399869278,-0.0625,-0.0625,-0.125
450399893202,0,0,-0.0625
450399915000,0,0,-0.0625
450399929563,0,-0.125,-0.0625
450399951780,-0.0625,-0.125,-0.125
450399974942,0,0,-0.0625
450399989332,-0.0625,0,-0.0625
450400011790,-0.0625,-0.0625,-0.0625
450400034925,0,0,0
450400049311,-0.0625,-0.125,-0.0625
450400071814,0,-0.0625,-0.125
450400094964,-0.0625,-0.0625,-0.125
450400109292,-0.0625,-0.125,-0.125
450400131814,-0.125,-0.0625,-0.0625
450400154969,-0.0625,-0.0625,0
450400170720,-0.0625,-0.125,-0.0625
450400191859,-0.0625,-0.0625,-0.0625
450400214982,0,-0.0625,-0.0625
450400229324,0,-0.0625,-0.0625
450400251758,0,-0.0625,-0.0625
450400274973,0,-0.0625,-0.0625
450400289239,0,0,-0.0625
450400311729,-0.0625,0,-0.0625
450400334917,0,0,0
450400349259,-0.125,-0.125,0
450400371803,0,-0.0625,0
450400394951,-0.0625,-0.125,-0.0625
450400409224,-0.125,0,0
450400431823,-0.0625,-0.0625,-0.0625
450400454971,0,-0.0625,-0.0625
450400469315,-0.0625,0,-0.125
450400491781,-0.0625,-0.0625,-0.0625
450400514912,-0.0625,-0.125,-0.0625
450400529262,-0.0625,-0.0625,-0.125
450400551780,0,-0.0625,-0.0625
450400574972,-0.0625,0,0
450400589284,-0.0625,0,-0.0625
450400611791,0,0,-0.0625
450400634259,-0.0625,-0.0625,0
450400649255,-0.125,0,-0.0625
450400671804,-0.0625,-0.0625,0
450400694320,-0.0625,-0.125,-0.0625
450400709286,-0.0625,0,-0.0625
450400731767,0,0,-0.125
450400754293,-0.0625,-0.0625,-0.0625
450400769300,-0.0625,-0.125,-0.0625
450400791834,-0.0625,-0.0625,0
450400814283,-0.0625,-0.125,0
450400829350,-0.0625,0,-0.0625
450400851798,-0.0625,-0.0625,-0.0625
450400874316,-0.125,-0.0625,-0.0625
450400889322,-0.125,0,0
450400911807,-0.0625,-0.0625,-0.0625
450400934286,-0.0625,-0.125,-0.125
450400957473,-0.125,0,-0.125
450400971774,0,-0.125,-0.0625
450400994312,-0.1875,0,-0.0625
450401009292,-0.0625,-0.125,-0.125
450401031809,0,-0.125,-0.0625
450401054265,0,-0.0625,-0.0625
450401069298,-0.0625,-0.125,-0.125
450401091853,-0.125,-0.0625,0
450401114207,0,0,-0.0625
450401129302,-0.0625,-0.0625,-0.0625
450401151783,0,-0.0625,0
450401174287,-0.0625,-0.0625,0
450401189309,0,0,-0.0625
450401211845,0,-0.0625,-0.125
450401234262,-0.0625,-0.0625,-0.125
450401249327,-0.0625,0,-0.0625
450401279903,0,-0.0625,-0.0625
450401294230,-0.0625,-0.0625,-0.0625
450401309321,-0.0625,-0.0625,0
450401331784,-0.0625,-0.0625,-0.0625
450401354344,0,-0.0625,-0.125
450401369338,-0.0625,-0.0625,-0.0625
450401391757,-0.0625,-0.0625,-0.0625
450401414300,-0.0625,0,-0.0625
450401430718,0,0,-0.0625
450401451819,-0.0625,0,-0.125
450401474309,-0.0625,0.0625,-0.0625
450401490764,-0.0625,0.625,-0.125
450401511790,0,0.375,0
450401534365,-0.0625,0.5625,-0.125
450401552201,-0.125,-0.0625,-0.0625
450401571757,0,0,-0.0625
450401594282,0,-0.0625,-0.0625
450401610703,-0.1875,-0.1875,-0.0625
450401631780,-0.0625,0,-0.0625
450401648213,-0.0625,0,-0.0625
450401670761,0,-0.0625,-0.125
450401691776,-0.0625,-0.0625,-0.0625
450401709631,-0.0625,-0.0625,-0.0625
450401730774,-0.0625,0,0
450401751809,-0.0625,0,-0.0625
450401768285,-0.125,-0.125,-0.0625
450401790771,-0.1875,-0.0625,-0.125
450401811801,-0.125,-0.0625,0
450401828278,-0.0625,0,0
450401850741,-0.0625,-0.0625,-0.0625
450401871825,0,0,-0.125
450401888265,-0.0625,-0.0625,-0.125
450401910739,0,-0.125,-0.0625
450401931793,0,-0.0625,-0.0625
450401948302,-0.0625,-0.125,0
450401970762,-0.0625,-0.0625,-0.0625
450401991775,0,0,-0.125
450402008250,-0.0625,0,-0.125
450402030704,-0.0625,0,-0.125
450402051823,-0.125,-0.125,0
450402068266,-0.0625,-0.4375,-0.0625
450402090730,-0.125,-0.5625,-0.125
450402111709,-0.1875,-1.3125,0
450402128215,-0.1875,-1.5625,0
450402150756,-0.0625,-0.4375,0
450402171848,-0.1875,-1.5625,0
450402188251,-0.1875,-0.625,-0.0625
450402210808,-0.0625,-0.625,-0.0625
450402231868,-0.1875,-1.4375,-0.125
450402248221,-0.3125,-2.375,0
450402270771,-0.25,-2.125,0
450402291816,-0.3125,-2.125,0.125
450402308231,0,-1.6875,0.5625
450402330757,-0.0625,-2.125,0.5625
450402353240,-0.1875,-2.4375,0.4375
450402368269,-0.0625,-3.125,0.75
450402390779,-0.25,-3.25,0.5
450402413218,0.0625,-1.0625,0.4375
450402428323,-0.1875,-1.5,0.25
450402450751,-0.0625,0.25,-0.1875
450402473236,0,0.0625,0
450402497260,-0.125,-0.3125,-0.1875
450402510704,0,0.125,0
450402540783,0,0,-0.0625
450402549702,-0.0625,0,-0.0625
450402570815,0.125,0.3125,-0.0625
450402593284,0,-0.0625,-0.0625
450402609730,-0.125,-0.1875,-0.125
450402630758,-0.1875,0,-0.25
450402653307,0,0.125,0
450402669741,-0.125,0.3125,-0.1875
450402698291,-0.0625,0.1875,-0.1875
450402713225,0,-0.0625,0
450402729709,-0.0625,-0.1875,-0.125
450402750746,-0.0625,0.0625,0
450402773260,-0.0625,0.0625,-0.125
450402789745,-0.0625,-0.0625,-0.125
450402809979,0,0.125,-0.125
450402832530,0.0625,1.0625,-0.5
450402855041,0.25,2.5625,-1.125
450402869987,0.4375,3.625,-1.5
450402892483,0.1875,3.5625,-0.5
450402914993,0.0625,2.4375,-0.25
450402930018,0,1.1875,-0.1875
450402952534,-0.125,-0.0625,-0.0625
450402975013,-0.0625,-0.1875,-0.125
450402989919,0.0625,0.125,-0.0625
450403012553,-0.0625,0.125,-0.125
450403035031,0,0,-0.125
450403050016,0,0,-0.0625
450403072484,-0.125,-0.0625,-0.125
450403094986,-0.0625,0.125,-0.0625
450403109984,0,0.5625,-0.125
450403132454,0,0.25,-0.0625
450403154887,0,0,-0.1875
450403169957,-0.0625,-0.125,-0.0625
450403192387,-0.0625,-0.0625,0
450403214940,-0.0625,0.0625,-0.0625
450403230007,0,0.5,-0.0625
450403252498,0.0625,0.6875,-0.125
450403274959,0,0.0625,-0.125
450403289903,-0.0625,0.3125,-0.1875
450403312439,-0.0625,-0.0625,0
450403335008,0,0,0
450403349968,-0.125,-0.0625,-0.125
450403372524,-0.125,-0.125,-0.1875
450403388305,-0.0625,-0.0625,-0.0625
450403410087,0,-0.125,-0.1875
450403432512,-0.125,0,-0.0625
450403448264,-0.0625,-0.0625,-0.0625
450403471464,-0.0625,0,-0.0625
450403500006,0,-0.0625,-0.0625
450403508280,0.0625,-0.125,-0.125
450403531392,0,-0.0625,0
450403552542,-0.0625,0,0
450403568270,-0.0625,-0.0625,-0.0625
450403591459,-0.0625,0,0
450403612488,-0.0625,-0.125,-0.0625
450403628281,-0.125,-0.0625,-0.0625
450403651911,-0.0625,-0.0625,-0.0625
450403672546,-0.0625,-0.0625,0
450403688291,-0.0625,-0.0625,-0.0625
450403711467,-0.0625,-0.0625,0
450403732519,-0.0625,0,-0.0625
450403748310,-0.0625,-0.0625,-0.0625
450403771454,-0.0625,-0.0625,-0.0625
450403792519,-0.0625,0,-0.0625
450403808292,-0.0625,-0.125,-0.125
450403831481,-0.0625,0.0625,-0.0625
450403852615,0,0.0625,-0.1875
450403868311,-0.0625,0.0625,-0.0625
450403891462,-0.0625,0.125,-0.0625
450403912522,-0.0625,0.125,-0.125
450403928287,-0.0625,0.125,0
450403951487,-0.125,0,-0.0625
450403972541,-0.0625,-0.125,-0.0625
450403988244,-0.0625,-0.125,-0.0625
450404011473,-0.0625,-0.0625,-0.0625
450404032483,-0.125,0,0
450404048278,-0.0625,-0.0625,0
450404071484,-0.1875,-0.0625,-0.0625
450404092515,-0.0625,-0.125,0
450404108331,-0.125,0,0
450404131463,0,-0.125,-0.0625
450404152491,-0.0625,0,0.0625
450404168306,-0.0625,-0.0625,-0.0625
450404191408,-0.0625,-0.125,0.0625
450404212574,0.0625,-0.0625,0.0625
450404236461,-0.0625,-0.0625,0
450404250783,0,-0.0625,-0.0625
450404272563,0,-0.0625,0
450404288313,-0.0625,-0.0625,0
450404310742,0,-0.0625,0
450404332524,-0.125,-0.125,0
450404348265,0,-0.125,0
450404370859,-0.0625,-0.0625,0
450404394006,-0.125,-0.125,0
450404408258,0,-0.125,0
450404430858,0,-0.125,0
450404453941,0,-0.0625,0
450404468342,-0.0625,-0.125,0
450404490764,0,0.125,0
450404513973,-0.0625,0,0
450404528333,-0.0625,0,-0.0625
450404550836,-0.0625,-0.0625,-0.0625
450404573964,-0.0625,-0.0625,-0.0625
450404588257,-0.0625,-0.125,0
450404610808,-0.0625,-0.125,-0.0625
450404633956,-0.0625,0,0
450404648359,-0.0625,-0.0625,-0.0625
450404670838,-0.0625,-0.0625,0
450404693954,-0.0625,0,0.0625
450404708337,0,0,-0.0625
450404730822,-0.125,0,0.0625
450404753965,-0.0625,-0.0625,0
450404768369,-0.0625,-0.0625,-0.0625
450404790896,0,0,0.0625
450404814005,0,0,0.0625
450404828344,0,-0.125,0
450404850800,-0.0625,-0.0625,0
450404874011,-0.0625,0,0
450404894948,0,0,0
450404910862,0,0,0
450404933963,0.0625,-0.1875,0
450404955060,0,-0.0625,0
450404970793,-0.125,-0.125,0
450404993932,-0.0625,-0.0625,0
450405014961,-0.125,-0.0625,0
450405030760,-0.125,-0.0625,0
450405053916,-0.0625,-0.0625,0.0625
450405074984,0,-0.0625,0
450405090743,-0.0625,-0.0625,0
450405113892,0.0625,0,-0.0625
450405135008,0,-0.125,0.0625
450405150754,-0.0625,-0.0625,0
450405173953,-0.0625,-0.0625,0
450405194996,-0.0625,-0.125,0.0625
450405210780,-0.125,-0.0625,0.0625
450405233259,-0.1875,-0.125,-0.0625
450405255010,-0.125,-0.0625,0
450405270752,-0.125,-0.0625,0
450405293276,-0.0625,0,0
450405314989,-0.0625,0,-0.0625
450405330752,-0.0625,0,0
450405353243,-0.0625,-0.125,-0.125
450405376401,0,-0.0625,0
450405390817,-0.0625,-0.0625,-0.0625
450405413310,-0.0625,-0.0625,0
450405436452,-0.125,-0.0625,0
450405450792,-0.0625,0,-0.0625
450405473257,-0.125,-0.125,0
450405496420,-0.125,0,0.0625
450405510716,-0.0625,0,0.0625
450405533289,-0.125,-0.125,-0.0625
450405556474,0,0,0
450405570802,-0.125,-0.0625,0
450405593277,0.0625,-0.0625,-0.0625
450405616428,0,-0.0625,0
450405630760,0,-0.125,0.0625
450405653320,-0.0625,0,0
450405676446,0.0625,-0.0625,0
450405690767,-0.0625,-0.0625,0.0625
450405713269,-0.125,-0.0625,0
450405736447,-0.0625,-0.0625,0
450405750785,0,0,0
450405773246,-0.0625,-0.0625,0
450405796513,0,-0.0625,0
450405810776,-0.0625,-0.0625,-0.0625
450405833297,0,-0.0625,0
450405856459,0,0,0.0625
450405877525,-0.0625,-0.125,-0.0625
450405893277,-0.0625,-0.125,-0.0625
450405916402,-0.0625,-0.125,0.0625
450405937489,0,0,0.0625
450405953296,-0.0625,-0.0625,0
450405976434,-0.0625,-0.0625,0.0625
450405997511,0,-0.0625,0
450406013251,-0.125,-0.0625,0.0625
450406036457,-0.0625,-0.0625,0.0625
450406057522,0,0,-0.0625
450406073326,0.0625,-0.0625,0
450406096435,-0.0625,-0.0625,0.0625
450406117498,-0.0625,-0.0625,0
450406133274,-0.0625,0,0.0625
450406155740,-0.125,-0.0625,-0.0625
450406177492,0,-0.0625,0
450406193240,-0.0625,-0.0625,0
450406215778,-0.0625,0,0.0625
450406237513,0,-0.125,0
450406253271,-0.125,0,0.0625
450406276246,-0.125,-0.0625,-0.0625
450406298943,0,-0.0625,0.0625
450406313282,0,0,-0.0625
450406335861,0,-0.0625,0.0625
450406349386,-0.125,0,0.0625
450406372612,-0.0625,0,0
450406386984,-0.125,-0.0625,0
450406409395,0,0,-0.0625
450406432364,0,0,0
450406446881,-0.0625,0,0.0625
450406469441,-0.0625,0,0
450406492580,0,-0.0625,-0.0625
450406506884,-0.0625,-0.0625,0
450406529439,-0.125,0,0
450406552592,0,-0.0625,0
450406566940,-0.0625,-0.0625,0
450406589385,-0.125,-0.0625,0
450406612592,-0.0625,-0.0625,0.0625
450406626882,0,0,0
450406649620,-0.125,-0.0625,0
450406672587,0,0,0
450406686884,-0.0625,0,-0.0625
450406709384,0,-0.0625,-0.0625
450406732643,-0.0625,0,-0.0625
450406746947,-0.0625,-0.125,0
450406769393,0,-0.0625,-0.0625
450406792505,-0.0625,0.0625,-0.0625
450406806949,0,0,0
450406829407,-0.0625,-0.0625,0.0625
450406852594,-0.0625,-0.0625,0
450406866937,-0.125,-0.125,0
450406889383,-0.0625,0,0
450406912624,-0.0625,-0.0625,0
450406926911,-0.0625,-0.0625,0
450406949438,-0.0625,-0.0625,0
450406972612,-0.0625,-0.125,0.0625
450406986983,0,0,0
450407009346,-0.0625,-0.0625,0
450407032635,-0.125,-0.0625,0
450407046883,-0.0625,-0.0625,0
450407069477,0,0,0
450407092600,-0.0625,-0.0625,-0.0625
450407106982,-0.0625,-0.0625,0
450407129500,0,-0.125,0
450407152638,-0.0625,-0.0625,0
450407166913,-0.0625,-0.0625,0
450407189480,-0.0625,-0.0625,0
450407211896,-0.0625,-0.0625,0
450407226934,-0.125,0,0
450407249505,-0.0625,-0.0625,0
450407271912,-0.125,0,0.0625
450407286910,0,-0.0625,-0.0625
450407309374,0,-0.0625,-0.0625
450407331974,-0.0625,-0.0625,0
450407346912,-0.125,0,0
450407369399,0,-0.125,-0.0625
450407391908,-0.0625,0,0
450407406927,-0.0625,-0.0625,0
450407429483,-0.0625,-0.0625,0
450407451973,-0.125,-0.0625,0
450407466887,-0.0625,-0.125,0
450407489474,-0.0625,0,0
450407511875,0,-0.0625,-0.0625
450407526945,-0.0625,-0.0625,0
450407549443,0,0,0
450407571944,0,-0.0625,0
450407586883,0,-0.0625,0.0625
450407617604,0,-0.0625,0
450407631924,-0.0625,-0.0625,-0.0625
450407646885,-0.0625,0,0
450407669412,-0.125,0,0
450407691934,-0.1875,-0.0625,0.0625
450407706969,0,-0.0625,0
450407729496,-0.0625,-0.125,0
450407751865,-0.0625,-0.0625,0.0625
450407766915,0,0,0
450407789533,-0.125,-0.0625,0
450407811866,0,-0.0625,-0.0625
450407826882,-0.0625,-0.0625,0
450407849422,-0.0625,0,0
450407871911,-0.0625,-0.0625,0
450407886949,0,-0.0625,0
450407909442,-0.0625,0.0625,0
450407931934,-0.0625,-0.0625,0
450407946997,-0.125,0,0
450407969362,-0.0625,0,-0.0625
450407991919,-0.0625,-0.125,0.0625
450408006891,-0.0625,0,-0.0625
450408029433,0,-0.0625,0.0625
450408052018,-0.0625,0,0
450408068406,0,0,-0.0625
450408089461,-0.0625,-0.0625,-0.0625
450408111962,-0.0625,-0.0625,0.0625
450408128385,-0.0625,0,0.0625
450408149470,-0.125,-0.0625,-0.0625
450408180120,-0.0625,-0.0625,0
450408188411,-0.0625,-0.0625,0.0625
450408217699,-0.0625,-0.125,0.0625
450408231919,-0.0625,-0.0625,0
450408248361,-0.0625,-0.0625,0
450408269441,-0.0625,0,0
450408291940,-0.0625,-0.0625,-0.0625
450408308406,-0.0625,-0.0625,0
450408329477,0.0625,0,0
450408351989,-0.0625,-0.0625,0.0625
450408369810,-0.125,-0.0625,0
450408389473,0,-0.0625,0
450408411969,-0.0625,0,0
450408428452,-0.125,-0.0625,0
450408449454,-0.0625,-0.0625,-0.0625
450408471988,0,-0.125,0
450408488426,-0.0625,0,0
450408509424,0,-0.0625,0
450408531996,0,-0.0625,0
450408548326,0,0,0
450408569494,-0.0625,-0.125,0
450408591959,-0.0625,-0.0625,0.0625
450408615933,-0.0625,-0.0625,-0.0625
450408629410,-0.0625,-0.0625,0
450408651943,-0.125,0,0
450408668356,-0.0625,-0.0625,0
450408689479,0,-0.0625,-0.0625
450408711982,-0.0625,0,0
450408728434,-0.0625,0,0
450408749438,-0.0625,-0.0625,-0.0625
450408771964,-0.0625,0,0
450408788445,-0.0625,-0.0625,-0.0625
450408809422,0,-0.0625,0
450408831964,-0.125,0,0
450408848382,-0.0625,0,-0.0625
450408869506,-0.125,-0.125,0.0625
450408891948,-0.125,0,0
450408908408,-0.0625,-0.0625,0
450408929509,-0.0625,-0.125,-0.0625
450408951974,-0.125,-0.0625,0.0625
450408968372,-0.0625,-0.125,0
450408990872,-0.125,-0.125,0
450409011958,0,0,-0.0625
450409028401,0,-0.0625,0
450409050935,-0.125,-0.0625,0
450409071962,0.0625,0,0
450409088455,-0.0625,-0.0625,0.0625
450409110896,-0.0625,-0.0625,0
450409131962,-0.0625,0,0
450409148383,0,-0.0625,0.0625
450409170941,0,0,0
450409191967,-0.0625,-0.125,0
450409208433,-0.0625,-0.0625,0
450409230943,-0.125,-0.0625,0.0625
450409251969,-0.0625,0,0.0625
450409268452,-0.0625,0,0
450409290903,0,0,0
450409311866,-0.0625,0,0.0625
450409328410,-0.0625,-0.125,-0.0625
450409350932,0,-0.0625,0.0625
450409371935,0,-0.0625,-0.0625
450409388421,-0.125,-0.0625,0
450409410874,-0.0625,0,-0.0625
450409432027,-0.0625,-0.0625,0.0625
450409448403,0,0,-0.0625
450409470899,-0.0625,-0.0625,-0.0625
450409491985,-0.0625,-0.0625,0
450409508366,-0.0625,0,-0.0625
450409530968,0,-0.0625,-0.0625
450409560160,-0.0625,-0.0625,0
450409568428,-0.0625,0,0.0625
450409590897,0,-0.125,0
450409611955,-0.0625,-0.0625,0
450409628396,-0.0625,-0.0625,0.0625
450409650871,-0.0625,-0.0625,0
450409671976,0,-0.0625,0
450409688422,-0.0625,-0.0625,0
450409710855,0,-0.125,0.0625
450409732019,-0.125,-0.0625,0.0625
450409748415,0,-0.0625,0
450409770953,-0.0625,-0.0625,0
450409792042,-0.125,-0.125,0
450409808372,-0.125,-0.125,-0.0625
450409830910,-0.125,-0.125,0
450409851992,-0.0625,0,0.0625
450409868420,-0.25,-0.0625,0
450409890132,-0.0625,-0.125,0
450409920838,-0.0625,-0.125,0
450409927685,-0.0625,-0.0625,-0.0625
450409950156,-0.125,-0.125,0
450409972616,-0.0625,-0.125,0.125
450409987643,-0.0625,-0.0625,-0.0625
450410010083,0,-0.0625,-0.0625
450410034114,-0.125,-0.125,0
450410047736,-0.125,-0.125,-0.0625
450410070092,-0.1875,-0.0625,0.0625
450410092687,-0.125,-0.0625,0.0625
450410109037,-0.125,-0.125,0
450410130145,-0.1875,-0.1875,-0.0625
450410154097,-0.0625,-0.125,0
450410169068,-0.0625,-0.125,0
450410190164,-0.0625,-0.125,-0.0625
450410212753,-0.125,-0.1875,0
450410229038,-0.125,-0.125,0
450410250041,-0.125,-0.25,0
450410272717,-0.125,-0.125,0.0625
450410289077,-0.0625,-0.125,-0.0625
450410311509,-0.125,-0.125,-0.0625
450410332643,-0.0625,-0.125,0.0625
450410348884,-0.125,-0.25,0
450410370148,-0.125,-0.125,0
450410392719,-0.125,-0.1875,-0.0625
450410409109,0,-0.125,0
450410430134,-0.0625,-0.0625,-0.0625
450410452735,-0.0625,0.0625,0.0625
450410469114,-0.0625,-0.125,0
450410490048,-0.0625,-0.0625,0.0625
450410512609,-0.0625,-0.125,0.0625
450410529049,-0.0625,0.0625,0
450410550077,-0.0625,0,0
450410572625,0,-0.125,0
450410589018,-0.0625,0,0
450410610080,0,-0.0625,0
450410632521,-0.0625,-0.0625,-0.0625
450410649052,-0.0625,0,-0.0625
450410670124,0,-0.0625,-0.0625
450410692628,-0.125,0,0
450410709079,-0.0625,-0.0625,0
450410730134,-0.125,0,0.0625
450410752692,-0.0625,-0.0625,0
450410769084,0,0.0625,0
450410790205,-0.125,-0.0625,0.0625
450410812747,0,-0.0625,0
450410829098,-0.0625,0,-0.0625
450410850177,-0.0625,-0.0625,0.0625
450410872717,-0.0625,0.0625,0
450410888364,-0.0625,-0.0625,0
450410910072,-0.0625,-0.0625,0
450410932600,-0.0625,0,-0.0625
450410948389,-0.0625,-0.125,0
450410970068,-0.0625,0,-0.0625
450410992613,-0.0625,-0.0625,-0.0625
450411008404,-0.0625,-0.0625,0
450411031612,-0.0625,-0.0625,0.0625
450411052637,0,-0.0625,0.0625
450411068371,-0.0625,-0.125,-0.0625
450411091683,-0.125,-0.0625,0
450411112689,0,0,0
450411128377,0,-0.0625,-0.0625
450411151646,-0.125,-0.0625,-0.0625
450411172723,-0.0625,-0.0625,0
450411188484,-0.0625,-0.0625,0
450411211721,-0.0625,-0.0625,0
450411232730,0,0,0
450411248435,0,-0.0625,0
450411271681,0,0.0625,0
450411300206,0,0.0625,0
450411308486,-0.0625,0.3125,-0.0625
450411331604,-0.0625,0,0
450411352618,0,0.875,-0.0625
450411368342,0.0625,1,0
450411391633,0.0625,1.5625,0
450411412608,0.0625,1.5,-0.0625
450411428396,0.1875,2.75,-0.1875
450411451599,0.25,2.375,-0.125
450411472597,0.125,2.1875,-0.125
450411488369,0.75,0.875,-1.1875
450411511593,0,0.4375,-0.0625
450411532623,0,-0.125,-0.0625
450411548398,-0.125,-0.4375,-0.0625
450411571683,-0.125,-0.375,-0.0625
450411592697,-0.25,-0.8125,0
450411608470,-0.125,-0.5,0
450411631646,-0.0625,-0.3125,-0.0625
450411652717,-0.25,-0.5625,0
450411668426,-0.1875,-0.5625,0
450411691728,-0.0625,-0.5,0
450411712752,-0.0625,-0.375,0
450411728433,-0.125,-0.25,-0.0625
450411751595,-0.25,-0.8125,0
450411772597,-0.1875,-0.8125,-0.0625
450411788417,-0.25,-1.625,0
450411811609,-0.25,-1.75,0
450411832640,-0.3125,-1.625,0
450411848459,-0.25,-1.5625,0.0625
450411870985,-0.1875,-0.9375,0.0625
450411894083,-0.25,-0.9375,-0.0625
450411908471,0,-0.25,0
450411930971,0,-0.125,0
450411954155,0,-0.0625,0
450411968444,-0.0625,0,0
450411990938,-0.125,0,0
450412014043,-0.0625,0,0
450412028396,-0.0625,-0.0625,0
450412050867,-0.0625,-0.0625,-0.0625
450412074070,0,0,0
450412088492,-0.0625,-0.1875,0
450412110987,0,-0.0625,0
450412134135,0,0,-0.0625
450412148459,-0.0625,0,0
450412170961,0,-0.125,0
450412194132,-0.0625,-0.0625,0
450412208471,-0.125,-0.125,0
450412230960,-0.125,0,0
450412254140,-0.125,0.0625,0
450412268475,-0.0625,-0.0625,0
450412290956,-0.125,-0.125,0
450412314138,0.0625,-0.0625,-0.0625
450412328420,-0.0625,0,0
450412351010,0,-0.0625,0
450412374153,-0.125,-0.0625,0
450412388501,-0.0625,-0.125,-0.0625
450412410903,-0.0625,-0.0625,0
450412434059,-0.125,-0.0625,0
450412448371,0,-0.125,0
450412471017,-0.0625,-0.0625,0
450412494160,-0.0625,-0.125,0
450412515154,-0.125,0,0
450412530951,-0.0625,0,0
450412554098,-0.0625,0.0625,0
450412575244,0.0625,-0.0625,0
450412591054,-0.0625,0,-0.0625
450412614182,0,0.0625,0
450412635201,-0.125,0,0.0625
450412650910,-0.0625,-0.0625,0
450412674081,-0.125,-0.0625,0
450412695073,0,0,-0.0625
450412710898,-0.0625,-0.0625,-0.0625
