myot,x,y,z
74255532410,28.625,58.375,40.875
74255547384,34.875,51.0625,45.3125
74255571025,47.375,43.4375,50.0625
74255592359,56.75,40.125,52.1875
74255607453,62.125,39.25,46.1875
74255631093,45.1875,40.1875,33.375
74255676044,68.1875,43.375,32
74255685059,126.5,15.625,2
74255693777,221.75,-23.1875,-36.1875
74255712834,179.438,-46.75,-62.25
74255728914,117.25,-61.6875,-85.75
74255751085,63,-73.1875,-106.938
74255795214,47.0625,-71.8125,-102.5
74255804888,83.5625,-54.0625,-81.6875
74255811166,186.938,-32.0625,-61
74255832928,124.25,36.6875,-7.8125
74255848664,152.688,41.625,14.6875
74255869783,15.5625,-6.1875,60.5625
74255892924,29.75,0.8125,55.3125
74255908678,-64.1875,-38.9375,46.5625
74255929713,-54.375,-40.3125,49.5
74255952784,38.4375,-43.9375,23.1875
74255968664,49.5,-42.6875,23.3125
74255989730,31,-41.5,22.5625
74256012837,16.25,-50.375,21.9375
74256028593,30.375,-50.75,13.8125
74256049665,33.5,-43.1875,10.375
74256072884,24.875,-44.375,10.1875
74256088621,15.875,-40,7.5625
74256117928,-38.75,-38.125,13.75
74256132948,-15.4375,-42.125,7.3125
74256148640,8.5,-50.0625,-2.875
74256169747,-0.625,-57.125,-1.25
74256192914,-17.6875,-59.375,3.3125
74256208709,-0.875,-64.3125,4
74256231111,2.1875,-78.75,1.4375
74256252908,14.625,-92.75,-5.0625
74256268671,3,-99.5,-2.0625
74256291115,-9.875,-107.188,-5.0625
74256312840,-15.4375,-116.062,-8.5625
74256328615,-21.4375,-105.875,-16.125
74256351108,-22.4375,-98.6875,-30.1875
74256366105,-18.625,-88.6875,-41.8125
74256388615,-28.6875,-80.4375,-43.5
74256411158,-28.125,-84.8125,-46.0625
74256426113,-25.25,-74.1875,-47.0625
74256448723,-25.4375,-72.3125,-46.1875
74256471219,-19.75,-69.8125,-46.75
74256492248,-17.4375,-66.6875,-48.75
74256508613,-3.4375,-66.25,-57
74256531107,5.6875,-65.6875,-59.1875
74256552154,6.5,-71.8125,-52
74256577509,3.8125,-78.6875,-43.4375
74256591261,0.3125,-76.75,-38.75
74256612279,13.0625,-68.875,-45.9375
74256628674,23.125,-55.25,-56.0625
74256651209,22.25,-47.4375,-58.5
74256672192,22.9375,-43.9375,-55.3125
74256688725,13.875,-39.5625,-46
74256711220,10.8125,-38,-41.875
74256732314,11,-32.125,-38.5625
74256747972,0.875,-25.3125,-38
74256770499,20.1875,-22.4375,-47.625
74256784780,27.6875,-20.8125,-62.5
74256807235,31.875,-18.9375,-67.625
74256830364,32,-16.1875,-66.625
74256844695,21.25,-11.9375,-58.8125
74256867157,10.25,-3.875,-53.1875
74256891825,0.375,3.25,-51.1875
74256904730,18.75,3.75,-53.4375
74256927186,19.4375,2.9375,-50.625
74256958654,27.0625,-0.625,-44.9375
74256964740,30.375,-6.9375,-41.875
74256987423,16.125,-6.0625,-28.4375
74257010451,13.5,-7.0625,-24.25
74257024758,23.5,-7.875,-25.3125
74257047201,22.5,-6.5,-25.6875
74257070469,20,-6.625,-28
74257084825,20.875,-10.75,-30.125
74257107315,14.6875,-7.25,-25.9375
74257130341,9.125,-5.6875,-25.3125
74257144716,19.5,-9.25,-30.4375
74257167215,25.875,-11.6875,-32.25
74257198709,23.5625,-11.625,-31.9375
74257204811,21.25,-10.75,-29
74257227269,8.0625,-4.0625,-24.8125
74257250446,8.625,-1.3125,-23.1875
74257264795,17.9375,-1.5,-23.25
74257287310,23.1875,-3.375,-21.0625
74257310439,27.875,-4.9375,-18.9375
74257324825,33.9375,-6.1875,-19.0625
74257347318,32.625,-4.4375,-19.625
74257370402,26.5,-1.125,-22.0625
74257384751,24.4375,1.1875,-21.1875
74257407267,20.125,0.4375,-21.5
74257430382,22.4375,-2.0625,-20.3125
74257444747,18.9375,-4.0625,-16.5625
74257467176,18.75,-6.5,-13.875
74257490359,20.9375,-7.5,-11.875
74257504817,16.625,-5.4375,-8.125
74257527280,10.3125,-3.5,-5.4375
74257549809,7.3125,-3.8125,-3.5625
74257564760,9.8125,-6.0625,-3
74257587255,13.5625,-8.625,-2.375
74257609940,12.375,-9.25,-1.125
74257624852,9.5,-8.875,-0.625
74257647341,0.3125,-4.8125,-0.8125
74257669743,-8.4375,-0.5,-1.875
74257684679,-28.3125,6.8125,-1.5625
74257707190,-22.8125,6.8125,-3.9375
74257729688,-12.875,4.625,-6.5625
74257744705,-13.3125,4,-7.3125
74257767243,-6.0625,1.625,-9
74257789767,-7,3,-7.9375
74257804664,-6.6875,3.4375,-8.375
74257827242,-1.375,3.3125,-10.375
74257849793,-2.375,4,-9.625
74257864817,1.875,3.125,-9.5
74257887347,4.3125,2.1875,-9.625
74257909671,3,2.75,-7.625
74257924796,5.1875,1.625,-6.4375
74257956868,8.5,-0.375,-4.3125
74257979336,5.625,-1.6875,-2.0625
74257987664,7.75,-3.6875,0.9375
74258007339,9.75,-5,3.5
74258029814,13.4375,-4.875,4.125
74258044863,22.3125,-3.75,5.0625
74258067341,15.25,1.6875,7.125
74258089804,12.5,4.0625,8.6875
74258104817,16.0625,2.5,9.125
74258127243,9.3125,1.3125,10.5
74258149829,3.1875,-1.1875,12.1875
74258164807,-1.0625,-2.1875,14.0625
74258187307,-6.5,-2.875,12.375
74258209757,-3.8125,-5.1875,10.0625
74258224829,-2.125,-6.6875,8.1875
74258247314,1.8125,-5.75,4.125
74258269768,-1.5,-1.3125,1.125
74258284807,-3.625,1.5,-1
74258307312,-2.6875,0.8125,-1.625
74258329836,-1,-2.5625,-1
74258344800,3.125,-6.4375,-0.9375
74258367295,6.0625,-8.125,-0.0625
74258389818,7.5,-6.75,0.75
74258406157,1.6875,-2.375,1.375
74258427284,-0.875,0.375,1
74258449726,0.5,0.5,0.625
74258467759,2,-1.375,-0.5
74258487307,3.875,-4.0625,-0.5
74258509907,4.875,-5.1875,-0.375
74258526276,4.0625,-4.6875,-0.75
74258547341,2.5625,-4.3125,-0.75
74258569742,-0.125,-2.625,-1
74258587661,-3.6875,0.25,-1.375
74258610278,-3.5,0.6875,-2.8125
74258629840,-2.875,0.1875,-3.125
74258646302,-2.5625,-0.0625,-3.3125
74258667311,-1.125,-0.8125,-4.75
74258697907,-0.5,-1.25,-6.0625
74258706242,0,-1.5625,-5.75
74258727350,0.1875,-1.4375,-5.6875
74258749782,-1.8125,-1.5,-5.625
74258766268,-2.125,-1.5,-5.3125
74258787372,-3.9375,-0.8125,-5.6875
74258809785,-2.4375,-0.25,-7.75
74258826210,-0.875,-0.125,-8.5
74258855448,-0.6875,0.125,-8.625
74258869736,-1.5,0.375,-9.5625
74258886157,-0.25,0,-10.1875
74258907288,-0.5,-0.4375,-10.375
74258929812,0.75,-0.75,-9.4375
74258946254,1.5625,-1.0625,-8.625
74258967284,2.9375,-1.0625,-7
74258998036,0.1875,-0.0625,-5.75
74259006218,0.375,0,-5.0625
74259027303,1.5,-2,-3.375
74259049892,1.5,-4.0625,-1.5625
74259066238,-0.25,-4.4375,-0.6875
74259087388,-1.375,-3.9375,0.125
74259111252,-0.1875,-4,-0.0625
74259135763,0.5,-4.1875,-0.125
74259147238,0.625,-3.8125,-0.5
74259169710,1.5,-3.1875,-0.875
74259186192,-0.5625,-0.6875,-0.6875
74259207261,-2.875,0.8125,-0.6875
74259229782,-1.6875,0.1875,-1.6875
74259247762,-0.75,-1.1875,-1.375
74259267250,-1.8125,-2.0625,-0.5625
74259289870,-3.1875,-1.375,0.75
74259306253,-4.625,-0.9375,1.125
74259327264,-5,-1.4375,1.1875
74259349823,-9.625,0.4375,2.4375
74259366344,-9.8125,1.75,1
74259388816,-7.75,1.625,-1.75
74259411303,-4.6875,1.875,-3.5625
74259426306,1.9375,1.625,-6.5
74259456837,5.4375,2.125,-8.25
74259486408,3,3.375,-6.9375
74259509428,3.375,2.5625,-5.5625
74259531931,8.8125,1.0625,-5.3125
74259532799,9.5,1.5625,-2.875
74259546886,6,1.3125,-0.3125
74259568811,4.625,0.1875,2.125
74259589865,1.5,-0.6875,5.625
74259606281,0.6875,-1.5,7.125
74259628697,0.4375,-1.8125,6.9375
74259657936,-1.5625,-0.9375,6.9375
74259666265,-1.5,0,5.5625
74259688728,-3.25,0.5,5.25
74259709806,-3.4375,0.0625,4.375
74259726238,-2.0625,-0.75,2.625
74259748734,-1.625,-0.5625,1.6875
74259772773,-0.875,0.0625,-0.8125
74259792343,0.5625,0.6875,-1.625
74259833310,1.1875,0.6875,-1.375
74259837894,3,-0.0625,-0.6875
74259846238,3.5,-0.9375,1
74259868778,2.5,-1.25,3.5
74259889865,2.875,-1.4375,4.4375
74259906278,3.625,-1,3.6875
74259936253,4.5,0.125,2.0625
74260005809,4.625,1.5625,1.5625
74260011878,4.375,2.125,2.375
74260012590,4.625,1.625,3.5625
74260017952,4.875,-0.125,4.8125
74260050132,6.3125,-3.25,4.3125
74260050939,5.625,-2.875,3.75
74260069869,2,0.125,1.6875
74260086334,0.1875,2.8125,-0.875
74260116211,-1.3125,4.6875,-2
74260147825,-1.75,4.5625,-1.9375
74260170195,-1.5625,2.9375,-1.0625
74260170983,-0.3125,0.375,0.4375
74260197968,-0.3125,-2.0625,2.75
74260221973,0.3125,-3.5625,3.9375
74260244433,1.25,-3.625,4.4375
74260266246,1.0625,-2.0625,3.875
74260272987,0.75,-0.25,2.125
74260296962,0.9375,0.8125,-0.1875
74260320295,1.4375,0.6875,-2.25
74260349855,1.125,0.5,-4.0625
74260372653,0.9375,-0.125,-4.9375
74260373489,0.25,-0.625,-4.4375
74260394422,-0.4375,-0.8125,-3.625
74260416232,-0.4375,-0.8125,-3.0625
74260446989,-0.4375,-0.75,-2.1875
74260469419,-0.375,-0.625,-1.8125
74260500582,-0.125,-0.6875,-1.8125
74260501334,0.375,-1.125,-1.9375
74260537430,1.25,-1.5625,-2.125
74260544491,1.375,-1.75,-2.1875
74260566944,0.5625,-1.8125,-1.6875
74260596182,1.0625,-2.0625,-1.125
74260596988,1.375,-2,-0.5625
74260619391,-0.125,-1.6875,0
74260641941,0.3125,-1.875,0.3125
74260663722,1.375,-2.375,0.25
74260670560,1.125,-2.1875,0.3125
74260694426,0.75,-1.6875,0.125
74260717007,0.625,-1.0625,0
74260745527,0.5,-1,0
74260770113,0.125,-1,-0.0625
74260770935,0.3125,-1.6875,-0.1875
74260791981,-0.75,-1.375,0.4375
74260813781,-0.8125,-1.1875,0.4375
74260844426,-0.6875,-1.125,0.25
74260867665,-1.4375,-0.625,0.375
74260869301,-0.6875,-0.9375,-0.0625
74260889483,0.125,-1.3125,-0.0625
74260918005,1.0625,-1.625,0.1875
74260941960,2.1875,-1.4375,0.0625
74260964592,2.375,-1,0.125
74260986382,0.4375,-0.125,0.4375
74260992959,0.4375,-0.125,1.0625
74261016957,0.8125,-0.75,1.875
74261039418,1.0625,-1.125,2.75
74261061987,0.9375,-0.8125,3
74261083777,1.25,-0.625,3
74261090501,1.6875,-0.375,2.6875
74261114457,1.625,-0.375,2.4375
74261136927,0.5,-0.25,2.5
74261175401,0.625,-0.875,2.6875
74261189863,0.875,-1.1875,3.0625
74261218713,0.375,-1,3.25
74261219440,0.75,-0.6875,2.625
74261240507,0.9375,-0.5,2.0625
74261264442,0.125,-0.5,2.0625
74261287639,0.6875,-1,1.875
74261288425,1.1875,-1.375,1.4375
74261315482,0.375,-0.9375,1.25
74261339895,1.0625,-0.6875,0.4375
74261369893,0.9375,-0.4375,-0.25
74261384495,0.1875,-0.125,0.0625
74261389890,1.0625,-0.625,-0.5625
74261414495,1.25,-1.0625,-0.5
74261436986,1.0625,-1.125,-0.1875
74261459503,0.8125,-0.875,0
74261481296,0.6875,-0.6875,0
74261494921,0.5,-0.1875,0.25
74261535310,0.8125,-0.0625,0.0625
74261543390,0.3125,-0.125,0.125
74261563027,-0.0625,-0.3125,0.25
74261587011,0.5,-0.875,0
74261610212,0.1875,-0.75,0.0625
74261610990,-0.0625,-0.5,-0.125
74261637966,0.0625,-0.1875,0
74261661980,0.625,-0.125,0
74261684479,0.1875,0.125,0.1875
74261706920,-0.25,0,0.8125
74261707736,0.1875,-0.4375,1.1875
74261736943,1.1875,-1.0625,1.25
74261759418,0.8125,-1.125,1.5
74261781979,-0.5,-0.5,1.5625
74261811217,-0.3125,-0.4375,1.5
74261812057,-0.0625,-0.75,1.5625
74261865850,-0.625,-0.6875,1.8125
74261870555,-0.3125,-1,1.6875
74261885581,0.125,-1.1875,1.5
74261909509,0.3125,-1.1875,1.5
74261932605,0.1875,-1,1.0625
74261933484,1.1875,-1.3125,0.375
74261960585,1.3125,-1.375,-0.1875
74262037544,0.5,-1.25,-0.5
74262039942,0.5,-1.375,-0.6875
74262043524,0.25,-0.9375,-0.8125
74262059486,0.125,-0.3125,-0.25
74262081918,0.75,-1,0.0625
74262104447,1.4375,-1.5625,0.125
74262109891,1.8125,-1.75,0.3125
74262134434,1.8125,-1.375,0.1875
74262156946,2.0625,-1,0.0625
74262218758,1.5,-0.875,-0.0625
74262223761,1.75,-0.9375,-0.3125
74262224565,2.25,-1.0625,-0.1875
74262231972,2.8125,-1.0625,-0.0625
74262253787,0.9375,-0.75,0.5
74262283021,0.5,-0.8125,1.125
74262307667,0.875,-1.25,1.1875
74262309311,0.5,-1.125,1.125
74262329468,0.25,-0.9375,1.125
74262390852,0.1875,-0.8125,0.625
74262395497,-0.625,0.0625,0.1875
74262404457,-0.5625,0.5625,-0.375
74262426331,0.4375,0,-0.5625
74262433041,1.25,-0.5,-0.875
74262457058,1,-0.5625,-0.75
74262479415,0.125,-0.0625,-0.5
74262501329,0.5625,-0.0625,-0.5
74262540112,1.1875,-0.5625,-0.0625
74262540922,1.5,-1,0.125
74262562347,0.9375,-0.4375,0.3125
74262577739,0.4375,-0.1875,0.1875
74262605518,0.75,-0.0625,-0.0625
74262712511,0.625,0,-0.125
74262713315,0.9375,-0.125,-0.1875
74262718609,0.125,0.375,0.5625
74262727063,0.25,1.25,0.8125
74262727773,0.125,1.25,1
74262756927,0.625,0.6875,1.0625
74262810515,0.5625,0.3125,1.5
74262825144,0.6875,-0.25,1.25
74262838057,0.375,-0.125,1.125
74262855574,0.25,0.25,0.75
74262856396,0.4375,0.3125,0.375
74262909643,0.375,0.1875,0.0625
74263019983,0.25,-0.3125,-0.3125
74263132514,1.125,-0.1875,1.25
74263134926,1.625,-0.5625,1.25
74263148298,1.375,-0.375,1.3125
74263149952,0.375,0.25,-0.625
74263185156,0.75,0.1875,-0.5
74263186070,1.0625,-0.3125,-0.625
74263206922,1.1875,-0.6875,-0.75
74263320778,0.9375,-0.5625,-0.5625
74263326129,1.125,-0.4375,-0.3125
74263373277,-1.125,0.25,-0.125
74263385919,-0.6875,0.0625,-0.25
74263386742,-0.125,0,0
74263470144,0.625,0.0625,-0.0625
74263472451,0.25,0.125,0.0625
74263522589,-0.0625,0.0625,0.5625
74263524207,0.0625,0,0.5625
74263525039,0.0625,0,0.5625
74263530260,-0.125,0.125,0.625
74263656613,0,0,0.9375
74263680036,-0.0625,0.4375,1.1875
74263695054,-0.125,-0.0625,0.75
74263695833,-0.4375,0.5,0.9375
74263777506,-0.3125,0.8125,1.125
74263779962,-0.875,0.6875,1.25
74263800718,-0.8125,0.3125,1.5
74263837359,-0.625,0.0625,1.8125
74263869104,-1.5625,0.3125,1.375
74263890807,-2,1,1
74263927634,-7.25,4.75,2.375
74263928437,-7.4375,4.5625,2.25
74263933080,-9.125,4.1875,4.125
74263948058,-11.25,3.25,6.125
74263972651,-12.25,3.0625,7.4375
74263973497,-14.9375,4.3125,9.75
74263987777,-21.4375,5.75,12.9375
74264017052,-23.8125,6.5625,14.5625
74264045595,-21.125,4.75,14.8125
74264100898,-23.1875,3.8125,18.25
74264101609,-26.375,4.4375,21.125
74264114531,-28,7.5,23.0625
74264129463,-31.8125,10.4375,25.4375
74264144303,-34.375,14.6875,27.125
74264150475,-34.5,19,26
74264174524,-33,22.6875,24.5
74264196316,-32.125,30.0625,25.625
74264227663,-23.125,38.625,25.5
74264295138,-27,47.625,26.625
74264295918,-39.25,53.375,26.1875
74264302513,-51.4375,58.375,25.375
74264304987,-50.8125,59.125,22.0625
74264330296,-33.375,56.375,19.25
74264355006,-32.6875,59.0625,22
74264386549,-31.5625,59.6875,19.0625
74264393436,-32.9375,57.25,15.5
74264423270,-21.1875,56.5625,12.1875
74264432386,-12.1875,54.6875,7.5625
74264453431,-1.4375,53.8125,6.9375
74264474464,13.6875,52.5,4
74264489463,18.125,48.625,1.375
74264512033,10,50.875,6.5
74264557625,-20.0625,57.4375,16.625
74264572126,-5.5,61.5625,21.1875
74264587830,-2.0625,64.1875,21.125
74264609550,1.75,65.1875,20.5
74264630590,5.375,67.625,20.125
74264644887,-3.1875,71.4375,17.6875
74264667386,0.5625,75.0625,13.5
74264698795,5.25,76,12.8125
74264704906,7.375,73.8125,11.5625
74264727367,-2,77.5,12.875
74264750610,-15.75,78.5625,9.75
74264764947,-16.375,77.5625,8.0625
74264787513,-8,70.875,1.25
74264810679,-5.4375,63.75,1.875
74264824983,-9.8125,58.5,7.0625
74264847471,-17.25,49.875,12.625
74264870585,-23.1875,46.25,17.1875
74264884971,-32.0625,48.25,19.625
74264907492,-33.6875,49.1875,20
74264930611,-34.125,46.5625,17.1875
74264944959,-40.0625,42.1875,15.75
74264967390,-59.125,37.8125,20.375
74264990606,-55.3125,40.5,27.8125
74265004866,-36.1875,41.4375,21.0625
74265027407,-35.6875,37,17.25
74265050609,-25.875,31.9375,17.125
74265065008,-27.125,28.0625,22.5625
74265087465,-46.625,29.875,30.9375
74265110626,-67.4375,37.1875,39.5625
74265124957,-76.875,46.3125,47.5
74265163720,-84.375,48.625,51.8125
74265170524,-91,49.25,56.8125
74265184902,-103.25,50,63.875
74265207368,-118.75,50.25,74.0625
74265230494,-120.188,50,77.5
74265244859,-111.188,49.125,67.25
74265267368,-74.3125,45.875,58.5625
74265291484,-42.5625,41.625,49.3125
74265304924,-35.0625,33.875,51.375
74265327372,-19.5,24.625,45.3125
74265349895,-58.0625,23,52.25
74265364860,-106.312,27.625,45
74265387486,-152.812,30.375,34.75
74265410694,-145.688,24.125,45.625
74265424970,-56.75,18.375,46.75
74265447411,17.9375,11,29.8125
74265470643,51.5625,-8.25,14.9375
74265485002,37.8125,-11.625,13.375
74265507524,21.625,-11.4375,15.9375
74265538728,23.3125,-14.75,17.8125
74265544883,29.5625,-14.8125,17
74265567368,16.625,-17,18.5
74265589841,8.9375,-17.6875,18.25
74265604834,16.875,-19.8125,18.4375
74265635524,28,-21.625,17.6875
74265649847,25.1875,-19.125,18
74265664878,26.75,-18.9375,18.5
74265687385,20.375,-17.0625,17.8125
74265709879,19.8125,-15.375,19.75
74265724840,15.3125,-13.1875,20.125
74265747348,9.0625,-14.5625,19.75
74265769849,10.4375,-16.0625,15.5625
74265784927,10.9375,-18.1875,11.5625
74265807520,6.0625,-17.875,8.125
74265829995,8.5625,-14.0625,6.3125
74265844939,-0.1875,-9.8125,5.125
74265867482,-2.6875,-6.1875,4.8125
74265889972,2.9375,-2.1875,4.1875
74265904951,-3.0625,1.625,4.875
74265927466,-5.75,4.1875,5.0625
74265949932,-9.375,5.9375,3.625
74265964914,-13.1875,2.4375,1.9375
74265987437,-6.4375,0.6875,0.3125
74266009933,-3.125,-2.875,-1.375
74266025011,-1,-5.0625,-2.625
74266048871,1.4375,-4.5625,-3.9375
74266071355,0.625,-3.625,-5.125
74266084962,3.625,-2.4375,-7.875
74266107501,9.0625,-3.3125,-12
74266129969,14.75,-4.25,-15
74266144984,10.1875,-4.75,-15.4375
74266167488,3.625,-2.875,-15.5625
74266189931,5.375,0.125,-14.25
74266204896,1.375,10.625,-14.875
74266227369,-4.125,14,-13.8125
74266258690,-10.125,14.1875,-12.6875
74266264868,-14.8125,12.125,-12.25
74266287380,-14.6875,9.4375,-12.375
74266309911,-16.0625,6.375,-12.5
74266324851,-15,4.0625,-12.1875
74266347342,-9.9375,2.875,-12.8125
74266370023,-7.75,2.6875,-11.125
74266386389,-7.9375,4.375,-9.3125
74266407465,-4.3125,7.625,-7.875
74266429983,-4.375,9.875,-6.25
74266446330,-9.5,10.1875,-4.5625
74266467466,-6.9375,9.5,-4.625
74266489944,-1.0625,8.5625,-5
74266512515,-2.125,7.5,-4.8125
74266527441,-0.875,7.6875,-4.25
74266549979,0,8.75,-3.5
74266566324,-4.8125,8.875,-2.5625
74266587443,-3.4375,8.625,-2
74266609910,0.875,7.25,-2.0625
74266626431,5.9375,5.8125,-2.25
74266647449,6.0625,5.125,-1.8125
74266671354,3.1875,5.75,-1.4375
74266686387,-1,6.375,-1.125
74266707483,-3.6875,6.125,-1.0625
74266729993,-3.9375,5,-1.4375
74266746443,1.5625,3.1875,-1.625
74266767456,3.875,2.875,-2.25
74266789987,-1.8125,2.625,-2.25
74266806399,-1.5,2.125,-1.9375
74266827544,2.3125,2.8125,-1.875
74266850057,-1.125,3.125,-1.4375
74266866433,-4.625,3.75,-0.875
74266888034,-3.625,3.75,-0.9375
74266909916,-2.6875,3.25,-0.75
74266926398,-1.1875,2.6875,-1.0625
74266947524,0.9375,2.25,-2.125
74266969936,-3.3125,1.625,-2.625
74266986443,-5.3125,0.4375,-2.6875
74267007453,-3.5625,-0.6875,-2.6875
74267029943,-2.0625,-1.6875,-2.625
74267047879,-0.375,-1.4375,-2.125
74267067425,0.75,-1.8125,-1.625
74267089909,2.1875,-1.3125,-1.625
74267113864,5.5625,-0.0625,-1.75
74267127421,1.5,0.0625,-2.0625
74267149991,0.1875,-0.375,-2.375
74267166402,2.125,-1,-2.8125
74267187461,1.375,-1.6875,-3.125
74267209967,0.6875,-2,-3
74267226367,3.9375,-1.8125,-3
74267255651,4.625,-0.375,-2.6875
74267269965,2.3125,1.25,-1.625
74267286424,0.6875,1.625,-0.875
74267308882,2.0625,1.625,-0.6875
74267329872,2.75,1.375,-0.625
74267347737,2.9375,1.1875,-0.875
74267368885,2.625,1.0625,-0.8125
74267383870,-0.1875,0.9375,-0.6875
74267406455,-1,1.0625,-0.625
74267428957,0.3125,1.1875,-0.5625
74267450051,1.0625,0.8125,-0.5625
74267466457,2.0625,0,-0.375
74267488899,3.3125,-0.5625,-0.5625
74267510002,2.6875,-0.625,-0.9375
74267526461,0,-0.6875,-0.875
74267556372,-0.5,-1.0625,-1.0625
74267565342,0.125,-1,-1.0625
74267586340,1.0625,-0.4375,-0.6875
74267608892,0.5,0.25,0.0625
74267625415,0.5,1.0625,0.8125
74267646456,0.0625,1.5625,1.4375
74267668959,0.125,1.625,1.875
74267685380,0.375,2,2.125
74267706469,0.4375,2.0625,2.5
74267728903,-0.25,2,2.6875
74267745398,-0.25,1.625,2.5
74267766478,-0.5625,1.5,2.5625
74267788925,-0.1875,1.4375,2.75
74267810600,0.4375,1.625,3.0625
74267825588,1.375,1.875,3.3125
74267848088,1.3125,1.875,3.375
74267870590,1.25,1.6875,3.375
74267893219,2.25,1.375,3.3125
74267908267,2.375,1.375,3.25
74267930659,2.25,1.125,3.4375
74267945656,3.5625,0.8125,3.1875
74267968141,4.5625,0.5625,2.9375
74267990573,4.25,0.3125,3.125
74268005658,3.875,-0.6875,3.125
74268028142,5.75,-2.125,2.625
74268050637,7.5625,-3.125,2.0625
74268065612,6.75,-4.125,1.6875
74268088068,6.25,-5.1875,1.5625
74268110558,6.1875,-6.25,1.4375
74268125541,8.125,-7.4375,1.375
74268155669,7.375,-7.6875,1.6875
74268170692,7.375,-8.125,1.75
74268185682,7.375,-8.6875,1.6875
74268208195,4.75,-9.4375,2.0625
74268230695,5.6875,-9.25,2.625
74268245694,7.875,-8.75,3
74268268180,5.125,-7.375,4.625
74268290660,3,-6.125,5.8125
74268305652,5.1875,-5.75,5.9375
74268335600,6.125,-6.875,6.3125
74268350581,5.8125,-8.375,6.5625
74268365661,6.8125,-10.0625,6.4375
74268388081,7.375,-11.875,5.6875
74268412089,7.75,-15.5625,4.5
74268427086,2.8125,-18.9375,3.8125
74268448233,3.0625,-20,4.3125
74268470706,15.125,-21.1875,1.9375
74268487097,14.25,-19.125,3.9375
74268508068,9.25,-11.875,7
74268530642,10,-10.4375,8.8125
74268547126,9.25,-9.6875,11
74268568189,8.875,-12.25,12.6875
74268590655,14.625,-16.375,10.9375
74268607050,19.75,-23.4375,9.0625
74268628136,6.1875,-29.3125,7.8125
74268650677,13.5625,-31.75,4.8125
74268667097,10.8125,-32.0625,4.4375
74268688188,7.375,-29.375,9.875
74268710684,14.5625,-25.5,9.875
74268727108,13.875,-23,9.75
74268748160,3.75,-21.75,8.875
74268770694,4.375,-21.8125,5.25
74268787150,3.75,-23,2.5625
74268808536,-1.5,-25.5625,-0.125
74268830572,-9.5625,-28.375,-2.125
74268847035,-6.5625,-31.4375,-9.0625
74268868112,-10.125,-28.4375,-9.4375
74268898115,-12.75,-22.625,-8.75
74268914633,-11.5625,-15.375,-10.1875
74268928177,-12.25,-11.4375,-10.1875
74268950688,-11.375,-11.375,-10.9375
74268967125,-10.9375,-12.5625,-12.375
74268988161,-10.625,-16.8125,-14
74269010691,-11.1875,-21.3125,-15.4375
74269026869,-12.375,-27,-18.125
74269048167,-9.125,-31.4375,-21.6875
74269070665,-13.5,-32.0625,-21.0625
74269094573,-13.5,-30.8125,-22.1875
74269108084,-9.9375,-31.5,-24
74269130578,-11.5,-32.4375,-27.5625
74269147125,-13.25,-32.8125,-30.9375
74269167992,-20.1875,-35.9375,-33.1875
74269190731,-28.625,-41.625,-38
74269206439,-26.625,-46.6875,-46.625
74269228184,-25,-50.5,-54.1875
74269250696,-29.25,-53.0625,-62
74269266438,-27.1875,-55.625,-72
74269289587,-22.9375,-63.6875,-81.0625
74269312128,-28.625,-62.1875,-89.5625
74269326432,-66.4375,-73.375,-95.25
74269349623,-106.562,-84.1875,-92.125
74269370698,-143.938,-84.875,-104.875
74269386425,-161.188,-76.0625,-130.75
74269409537,-116.688,-104.625,-122.312
74269430640,-5.75,-98.8125,-91.4375
74269446418,28.25,-87.875,-56.625
74269469617,57.125,-62.625,-11.25
74269490627,109.562,-27.9375,31.625
74269506414,102.625,12.625,54.625
74269529633,114.375,50.5,79.5
74269550758,103.25,88.8125,103.188
74269566501,58.375,126.688,120.938
74269589651,40.6875,161.688,137.312
74269610774,32.5625,193.375,153.25
74269626895,18.875,217.812,163.75
74269649606,23.125,237.375,170.5
74269671062,50.5,259.812,175.5
74269686476,61.25,283.062,171.375
74269709890,58.6875,301.438,163.812
74269730627,72.8125,312.812,151.625
74269746480,90.5625,313.5,134.812
74269769584,69.125,286.5,121.438
74269790680,83.8125,235.625,139.25
74269806518,37.6875,182.125,114.438
74269829640,-20.1875,72.8125,64.9375
74269850723,-126.625,-51.875,-0.1875
74269866401,2.0625,-139.125,-67.3125
74269889575,-135.125,-102.562,-48.8125
74269910625,147.625,-168.562,-102.438
74269926446,96.125,-211.75,-117.438
74269949599,-27.125,-189.938,-66.25
74269978205,-1.1875,-155.312,-24.3125
74269986473,67.5625,-113.438,-39.75
74270009588,39,-99.8125,-37.3125
74270030691,-16.0625,-107.438,-20.75
74270046479,-15.4375,-97.0625,-13.6875
74270069598,2.75,-89.4375,-18.6875
74270090703,17.6875,-84.625,-24.25
74270106513,21.6875,-77.25,-25.875
74270128929,9.125,-67.6875,-16.8125
74270150684,1.8125,-58.5,-11.0625
74270166412,1.9375,-48.9375,-14.8125
74270187472,2.8125,-45.375,-21.25
74270218222,-3.375,-42.625,-20.125
74270226522,-7.375,-39.75,-20.8125
74270247544,-6.3125,-34.1875,-20.375
74270271393,-10.5,-27.1875,-18.4375
74270286483,-21.125,-20.625,-12.1875
74270307546,-28.125,-24.4375,-10.3125
74270330685,-25.6875,-30.9375,-14.5
74270346477,-18.6875,-38.625,-19.625
74270367571,-21,-46.3125,-26.3125
74270390730,-27.5,-57.875,-33.4375
74270406930,-29.1875,-66.25,-40.3125
74270427504,-28.25,-68.25,-44.9375
74270450642,-29.3125,-71.75,-57.4375
74270466410,-30.375,-76.5625,-62.8125
74270487499,-46.3125,-81.6875,-65.8125
74270510688,-73.625,-84,-76.1875
74270526442,-92.875,-84.5,-90.75
74270547620,-106.125,-97.75,-106.25
74270570654,-99.5,-125,-118.875
74270586476,-77.8125,-147.812,-146.75
74270607529,-22.9375,-156.562,-125.25
74270630741,24.9375,-138.875,-97.25
74270646500,64.875,-106.25,-59.75
74270667550,84.3125,-66.25,-10.625
74270690666,96.875,-17.9375,19.5
74270706514,70.5,31.5,35.5
74270727498,55.8125,70.25,58.625
74270750689,41.3125,114.5,70.875
74270766438,29.5,147.938,86.9375
74270788921,8.375,179.75,99.875
74270835107,-9.5,206.25,113
74270837525,-11.125,228.188,128.188
74270848891,-5,248.062,143
74270870705,2.5,262.188,154.688
74270886493,21.25,271.812,162
74270908994,22.4375,285,167.25
74270930690,15.375,293.562,172.375
74270946557,25.5,293.062,174.312
74270969038,40.0625,279.938,171.062
74270990759,39.0625,252.125,156.312
74271006493,-0.375,213.062,134.375
74271028981,-13.875,162.938,111.188
74271052115,-1.75,78.3125,72.1875
74271073124,-13.25,-24.1875,5.125
74271088954,-21.5625,-113.25,-48.4375
74271111420,19.8125,-173.625,-84.75
74271133131,57.8125,-135.375,-47.8125
74271148927,-135.188,-48.3125,-9
74271171478,231.875,-77.3125,-82.375
74271194672,119.125,-177.938,-108.625
74271209036,14.8125,-175.5,-41.9375
74271231533,-5.5625,-165.062,-49.9375
74271254643,8.9375,-119.25,-35.75
74271268952,-24.875,-87.9375,-18
74271291517,-32.1875,-74.75,-12.5
74271314705,-40.75,-64.6875,-7.375
74271329013,-27.125,-51.1875,-6.375
74271351482,-28.0625,-40,-8.1875
74271374585,-28.125,-32.3125,-7.8125
74271388166,-35.375,-28.6875,-5.5
74271402471,-30.25,-27.8125,-8.3125
74271424992,-24.8125,-30,-12.9375
74271448161,-27.25,-32.5625,-13.875
74271462491,-27.625,-37.75,-15
74271485043,-24.625,-42.375,-18.6875
74271508159,-17.6875,-49.25,-22.625
74271532154,-14.0625,-54.5625,-25.6875
74271545018,-8.25,-57.9375,-28.6875
74271576374,-3.9375,-58.8125,-31.875
74271582528,-7.875,-59.4375,-34.0625
74271605007,-23.875,-59.9375,-33.0625
74271628158,-27.9375,-63.4375,-35.25
74271642521,-22.625,-68.75,-39.375
74271665013,-13.125,-76.3125,-48
74271688339,-0.3125,-87.9375,-56.6875
74271702481,2.875,-100.25,-67.5625
74271725096,-10.625,-107.75,-80.625
74271748160,-30,-118.562,-87.875
74271762497,-38,-129.438,-97.5625
74271785060,-69.1875,-142.5,-106.625
74271808200,-97.5625,-149.625,-118.438
74271822505,-103.375,-165.875,-126.25
74271845077,-62.8125,-176.75,-156.312
74271868303,-45.1875,-140.562,-150.188
74271882481,67.125,-147.312,-113.562
74271905042,61.125,-86.3125,-64.75
74271928222,58.875,-23.25,-1.625
74271942519,42.0625,51.8125,19.5
74271965015,9.1875,106.375,42.5625
74271988212,-1.5625,152.375,68.75
74272002540,14.75,187.062,95.25
74272025094,21.1875,219.375,117.062
74272048198,22.75,245.562,134.562
74272062530,6.3125,268,149.062
74272085056,5.625,282.75,160.25
74272107473,19.6875,295.25,160.312
74272122493,1.5,306.938,159.312
74272153216,-9.5625,311.5,164
74272168287,9.625,306.25,158.375
74272182601,34.9375,292.875,159.375
74272205814,56.375,267.5,152.875
74272228238,62,229.375,143.562
74272242555,55.25,180.375,122.312
74272265838,47.375,104.438,74
74272288259,0.5625,-6.125,8.3125
74272302643,-9.4375,-95.0625,-39.9375
74272341356,-12.4375,-134.562,-58.875
74272348156,-6.375,-122.25,-40.5
74272362516,-10.625,-71.5,-34.125
74272385729,120.125,-169.812,-115.75
74272408189,67.9375,-191.125,-74.25
74272422529,20.3125,-182.375,-51.25
74272445746,31.5625,-153,-39
74272468286,9.5625,-106.938,-20.1875
74272482482,-35.875,-87.5625,-12.5625
74272505730,-30.8125,-82,-11
74272528155,-20.3125,-67.875,-8.6875
74272542632,7,-58.8125,-9
74272565509,-26.875,-28.8125,-4.5
74272596425,-26.625,-20.4375,-0.5625
74272602498,-26.1875,-21.75,1
74272625733,-19.0625,-25.25,-2.125
74272648207,-4.25,-31.125,-6.125
74272662516,0.75,-39.9375,-8.75
74272685057,5.0625,-49.0625,-13.5
74272709656,13.5625,-55.6875,-20.9375
74272722538,15.875,-61.3125,-26.875
74272753195,8.6875,-62.25,-27.4375
74272768216,-5.875,-60.25,-27.5625
74272784160,-11.75,-64.375,-29.6875
74272805177,-19,-66.25,-31.9375
74272828244,-24,-70.625,-36.25
74272842661,-24.9375,-73.1875,-41.8125
74272865146,-28.5625,-77.625,-47.5
74272888350,-27.5625,-81.5,-57.6875
74272902610,-22.0625,-88.75,-67
74272925135,-20.25,-98.0625,-77.125
74272948233,-28.875,-106.125,-85.9375
74272962510,-59.3125,-118.812,-93.625
74272985047,-118.188,-121.438,-104.625
74273008186,-179.75,-128.5,-121.875
74273024048,-184.125,-142.25,-134.75
74273045069,-95.75,-155.375,-163.812
74273068214,-72.1875,-131.188,-134
74273084091,-6.9375,-104.688,-122.438
74273105081,48.4375,-83,-70.75
74273129090,94.9375,-25.5625,3.875
74273144151,101.625,23.8125,26.75
74273165184,77.875,71.375,40.3125
74273187631,61.3125,115.938,55.375
74273204097,68.8125,152.75,85.5
74273225189,51.3125,189.562,105.125
74273247583,16.75,221.125,117.688
74273265408,-6.875,246.25,135.188
74273285102,-11.9375,261.5,151.562
74273307484,5.5625,274.625,164.375
74273331547,28.5,284.938,173.938
74273345148,40.5,295.562,183.312
74273368284,53.5,295.812,195.125
74273383998,71.25,292.25,202.812
74273405137,90.9375,286.875,195.438
74273428292,50.5,264.062,180.938
74273444076,-16.0625,229.5,164.188
74273465089,-49.375,153.812,104.188
74273488291,-115.688,21.3125,19.1875
74273504043,-140.375,-83.6875,-37
74273533201,-20.5625,-128.625,-76.75
74273548188,-27.875,-117.688,-40.1875
74273570692,33.625,-57.75,-45.375
74273585090,169.25,-152.062,-144.125
74273607660,58,-191.375,-91.1875
74273624151,-15.0625,-190.562,-58.25
74273645077,41.125,-160.188,-62.0625
74273667584,26,-120.562,-56.75
74273684122,-29.625,-96.625,-39.8125
74273705063,-20.1875,-98.5,-36
74273727660,-0.9375,-87.375,-35.125
74273744121,24.9375,-69.6875,-34.9375
74273765090,28.4375,-57.3125,-31.125
74273787542,17.75,-50.625,-25
74273804052,-2.625,-41.875,-17.5625
74273826488,-7.125,-34.75,-16.125
74273849055,-1.1875,-34.75,-19.0625
74273864088,0.4375,-37.1875,-21.3125
74273885162,-11.625,-38.9375,-20.75
74273915752,-8.8125,-42.8125,-17.125
74273924754,-11.5625,-47.375,-22.0625
74273946510,-12.0625,-51.625,-25.5625
74273967609,-14,-55.875,-26.75
74273984126,-16.25,-55.6875,-29.75
74274006500,-20.3125,-51.9375,-29
74274027573,-33.875,-55.3125,-29.125
74274044040,-37.625,-64.0625,-37.5
74274066514,-31.375,-77.25,-50
74274087626,-20.9375,-92.75,-65
74274104133,-14.1875,-101.875,-83.8125
74274126550,-21.125,-110.812,-92.3125
74274147606,-51.875,-123.125,-97.5
74274164118,-106.75,-134.625,-114.75
74274186986,-180.125,-132.438,-126
74274207652,-185.125,-154.25,-133.125
74274224130,-143.5,-152.062,-155.938
74274246586,-58.375,-134.062,-109.688
74274267568,-48.9375,-88.625,-80.5625
74274292168,46.3125,-80.75,-33.75
74274306640,63.875,-18.8125,32
74274327541,70.1875,33.9375,55.5
74274345495,65.25,80.5625,76.375
74274368087,92.125,115.25,95.9375
74274395778,97.1875,151.125,115.875
74274419646,81.0625,188.062,135.625
74274432556,51.25,221.688,148.062
74274447556,25.8125,246.438,154.312
74274464139,34.4375,263.25,159.5
74274488032,63.0625,279.688,158.312
74274507510,8.0625,302.375,167.688
74274524128,24.8125,314.625,173.688
74274546515,24,321.688,180.625
74274567666,24.5625,319.875,189.562
74274584088,54.5625,297.188,185.312
74274606579,61.875,244.75,172.688
74274627587,31.9375,176.812,140.562
74274644089,-19.4375,53.5625,47.5625
74274666594,-83.3125,-64.4375,-19.5625
74274687635,-28.0625,-140.188,-60.875
74274711525,-4.625,-152.062,-62.4375
74274726539,55.875,-138.062,-31.4375
74274747690,14.8125,-66.3125,-15.1875
74274764127,168.625,-147.812,-112.75
74274786618,149.562,-176.688,-79.875
74274807571,61.375,-186.688,-50.125
74274824095,3.75,-173.188,-34.25
74274846545,3.75,-126.5,-27.625
74274869156,-45.5,-99.125,-19.5625
74274884139,-28.4375,-97,-11
74274906632,-20,-83.875,-14.5625
74274929083,-13.125,-63.5,-14.125
74274942654,-14.25,-52.9375,-13.8125
74274967213,-26.0625,-41.0625,-8.4375
74274988427,-32.875,-34.875,-6.125
74275010821,-31.375,-33.5,-8.25
74275025818,-28.9375,-34.75,-10.8125
74275048317,-32.0625,-37.6875,-12.1875
74275062620,-33.1875,-43.1875,-16.1875
74275087284,-27.375,-49.25,-22.375
74275116434,-21.9375,-55,-25.875
74275122673,-26,-60.25,-28.5
74275145812,-26.9375,-67.375,-30.375
74275168240,-20.625,-70.8125,-32.5625
74275182681,-17.1875,-73.8125,-34.6875
74275205794,-23.3125,-76.875,-36.125
74275228352,-31.5625,-82.3125,-38.5625
74275242665,-28.6875,-89.125,-45.125
74275265832,-27.5625,-97.125,-57.125
74275312644,-35,-108.438,-69
74275315027,-57.625,-120.688,-82.5
74275333958,-106.125,-132.875,-93.4375
74275348342,-189.562,-140.812,-97.8125
74275362663,-212.688,-161.312,-115.188
74275393989,-84.0625,-168.688,-149.438
74275408122,-29.25,-155.438,-130.375
74275422660,67.875,-132.125,-113.812
74275445879,58.8125,-56.125,-66.625
74275468269,43.125,-9.25,-7
74275482592,85.375,40.8125,16.375
74275505739,85.25,97.875,34.625
74275528371,43.875,145,51
74275542674,27.1875,184.062,75.5
74275565797,22.375,219.062,100.812
74275595818,17.3125,246.375,121.625
74275604088,1.75,274.625,133.312
74275625760,-32.1875,298.5,144.688
74275650314,-41.125,310.562,152.25
74275664519,-19.8125,318.312,159.75
74275685625,-14.5,322.375,166.188
74275709724,-18.875,318.5,180.188
74275724130,28.875,304.688,184.188
74275745809,50.625,278.562,185.5
74275768318,39.0625,240.75,173.625
74275784134,6.1875,192.625,142.438
74275805758,-25.625,105.375,79.1875
74275828284,-90.3125,-17.375,-0.5
74275844171,-83.9375,-101.625,-49.4375
74275865824,-23.4375,-127.062,-69
74275888299,13.9375,-112.438,-44.5625
74275904159,77.125,-75.1875,-50.4375
74275927236,127.938,-151.938,-114.812
74275948259,43.625,-189.562,-90.1875
74275962675,31.875,-177.438,-52.25
74275985863,25.9375,-147.688,-43
74276008287,9.5625,-112.375,-37.125
74276022688,-33.375,-94.75,-27.0625
74276045802,-22.8125,-92.0625,-19.625
74276068305,-2.25,-79.9375,-19.125
74276082639,5.75,-66.75,-16.5625
74276105782,7.25,-58.125,-15.5625
74276128208,-9,-55.8125,-14
74276142591,-11.125,-50.6875,-14.5625
74276165724,-1.3125,-45,-20.375
74276188373,11.3125,-43.625,-25.8125
74276202639,8.5625,-43.0625,-24.25
74276227255,-1.125,-41.0625,-21.375
74276248307,-2.0625,-41.375,-19.9375
74276262625,2.625,-43.25,-20
74276294768,1.4375,-43.4375,-19.5
74276308343,-4.4375,-42.375,-19.875
74276322562,-12.5625,-43.0625,-18.0625
74276345822,-19.75,-44.4375,-17.5625
74276368349,-24,-46.8125,-21.25
74276382668,-30.3125,-54.1875,-26.3125
74276405847,-30.8125,-66.875,-36
74276428364,-21,-78.8125,-50.625
74276442647,-13.0625,-87,-64.6875
74276466207,-16.75,-94.6875,-76.3125
74276489732,-28.125,-103.312,-83.75
74276504037,-49.125,-114.562,-94
74276525737,-83.75,-125.062,-112.812
74276548244,-120.75,-142.312,-121.375
74276564041,-108.188,-157.062,-121.75
74276585725,-88.1875,-164.812,-151.312
74276608393,-53,-162.875,-130.438
74276624074,80.625,-146.5,-104.875
74276645856,77.625,-85,-62.75
74276668364,49.75,-38.75,-6.375
74276684132,74.8125,16.5625,21.5
74276705869,60.5625,72.125,40.0625
74276728329,30.875,120.938,49.125
74276744112,18.8125,155.062,74.9375
74276765190,10.4375,188.25,93.0625
74276788354,26.9375,214.562,106.312
74276804166,28,237.312,120.875
74276825257,16.8125,259.875,132.812
74276849843,3.0625,279.688,142.75
74276864559,-3.125,295.25,152
74276885147,-3.8125,306.125,159.312
74276908308,-4.9375,313.125,169.375
74276924172,-17.25,315.062,180.375
74276946622,-2.8125,310.375,189.812
74276969766,9.8125,288.062,184.812
74276984097,-13.625,251.688,173.125
74277006628,-44.375,196.938,135
74277029772,-66.6875,69.5625,41.3125
74277044080,-108.438,-49.4375,-24.625
74277066583,-97.125,-118.438,-52.9375
74277089765,-32.3125,-138.5,-82.3125
74277110803,-142.875,-100,-30.6875
74277126560,174,-127.688,-124.562
74277149732,131.875,-185.312,-126.625
74277170723,93.9375,-190.062,-87.875
74277186525,74.3125,-151.312,-70.5625
74277209754,33.0625,-124.625,-40.875
74277230799,6,-100.438,-32.1875
74277246560,-27.0625,-98.9375,-23.5625
74277269771,-22.4375,-86.375,-17.5625
74277290826,-12,-71.5,-14.625
74277314751,6.6875,-62.5625,-14.8125
74277329819,16.875,-54.5,-14.6875
74277344215,3.25,-43.3125,-9.25
74277365210,-12.1875,-33.25,-6.5
74277388337,-16.6875,-27.125,-8.1875
74277404165,-14.8125,-24.625,-11.625
74277426632,-7.875,-24.4375,-12.8125
74277455835,-7.625,-25.875,-12.625
74277464051,-7.0625,-27.875,-12.625
74277486550,-4.25,-31.1875,-13.625
74277508283,-2.5625,-36.0625,-15.3125
74277524038,-3.5,-41.625,-17.5625
74277546585,-7.625,-43.9375,-19.625
74277568239,-18.5,-47.8125,-22.5
74277590836,-26.875,-54.75,-29.4375
74277606633,-31,-69.375,-37.5
74277628105,-25.875,-81.875,-48
74277645533,-27.25,-88.625,-58
74277666597,-28.125,-92.75,-69.1875
74277688322,-27.625,-93.75,-81.4375
74277704072,-42.3125,-93.6875,-90.4375
74277726599,-67.625,-94.5625,-97
74277747630,-92.3125,-101.062,-117.438
74277772215,-108.938,-139.375,-143.25
74277786573,-146.188,-158.375,-144.938
74277807667,-83.6875,-147.188,-161.688
74277824083,-68.375,-159.312,-141.125
74277846565,-4.5625,-140.875,-103.75
74277867676,77.3125,-81.5,-80.5
74277884087,47.5625,-62.625,-26.0625
74277913330,15.6875,-2.75,6.6875
74277927715,45.9375,47.25,35.75
74277944067,65.625,87.1875,53.875
74277966551,63.1875,121.25,81.625
74277987633,42.4375,160.5,106.5
74278005554,32.75,193.312,125
74278026608,19.8125,221,144.125
74278047693,1.9375,246.562,158
74278072880,-4.1875,264.938,167.188
74278086573,5,277.5,172.75
74278107643,21.8125,290.625,177
74278124121,13.1875,304.25,178.375
74278146577,11.875,309.25,182.938
74278167653,47.375,304.25,177.75
74278192224,81.0625,284.125,168.375
74278213327,93.75,250.25,158.188
74278227678,65.5,200.312,134.75
74278244073,24.3125,113.625,77.4375
74278266574,-59.75,-11.25,-2.625
74278287687,-79.125,-104.562,-55.8125
74278304062,-38.25,-133.75,-83.625
74278333347,-146.688,-72,-46.875
74278349086,81.375,-133,-87.6875
74278372282,86.875,-187.438,-107.562
74278400821,26.875,-191.375,-68.25
74278409092,45.9375,-158.188,-50.125
74278432221,41.875,-120.938,-31.5
74278453339,10.125,-97.3125,-27.5
74278469114,-23.0625,-85.25,-22.8125
74278492299,-39.8125,-72.3125,-8.1875
74278513308,-28.5,-61.625,-5.4375
74278528284,-17.5,-46.0625,-3.5625
74278542710,-19,-32.5,-0.8125
74278565845,-27.875,-22.1875,0.1875
74278588337,-35.5625,-16.375,0.8125
74278603324,-31.5625,-12.75,-0.75
74278625848,-21.5,-13.6875,-4.6875
74278648318,-14.75,-16.625,-7.5625
74278663310,-17.75,-21.75,-7.8125
74278685834,-19.6875,-27.0625,-10.125
74278708341,-17.625,-33.125,-15.75
74278723311,-11.8125,-41.6875,-20.6875
74278745859,-10.5625,-46.875,-27.5625
74278768306,-17.625,-54.5625,-32.875
74278783303,-24.375,-63.875,-36.0625
74278814000,-25.3125,-73.4375,-41
74278828287,-18.6875,-83.1875,-49.375
74278842670,-11.4375,-91.875,-58.625
74278865894,-4.625,-100.625,-70.9375
74278888416,-2.8125,-105.062,-83.625
74278903324,-3,-105.062,-94.4375
74278925840,-6.625,-110.75,-101.125
74278948421,-33.625,-126.062,-111.312
74278963378,-67.1875,-141.5,-128.125
74278985932,-102.75,-154.188,-139.312
74279008312,-106.562,-166.938,-138.75
74279023426,-99.125,-139.75,-162.625
74279045831,26.5625,-157.562,-140.25
74279068387,93.75,-113.938,-111
74279083379,98.6875,-78.0625,-65.8125
74279105856,94.25,-13.625,-25.375
74279128353,79.5,40.75,-8.125
74279143321,46.75,91.625,8.25
74279165919,31,132.125,25.4375
74279188441,18.9375,162.312,48.75
74279203448,22.375,190.5,71.25
74279234093,16.125,215.312,93.5
74279248857,5.75,235.875,117.5
74279263350,-3.5,254.438,133.688
74279294008,-12.4375,271.25,152.625
74279308459,-16.3125,282.438,166.688
74279322725,-12.1875,294.75,179.5
74279345881,-1,297.875,190.375
74279368326,33.25,291.625,198.125
74279382745,61.875,282.938,192
74279405808,65.1875,261.75,172.562
74279428347,31.75,231.438,157.75
74279442665,3.375,159.562,114.938
74279465842,-45.25,31.0625,30.3125
74279488311,-156.438,-79.125,-16.3125
74279502763,0.1875,-141.938,-71.125
74279525906,-3.0625,-123.938,-35.625
74279548367,122.312,-95.3125,-61.3125
74279562763,133.5,-169.812,-104.438
74279585201,65.75,-187.5,-69.9375
74279608452,37.875,-175.375,-56.625
74279622760,21.0625,-136.438,-29.4375
74279645334,-24.5,-94.75,-25
74279667788,-28.875,-80.5625,-22.6875
74279682701,-25.5,-79.75,-15.625
74279705146,-5.4375,-71.3125,-15.1875
74279727646,11.3125,-60.5,-14.75
74279742674,11.25,-53.5,-15.9375
74279765229,-10.375,-43.6875,-13.625
74279787821,-17.75,-35.5,-11.5
74279810938,-14.8125,-28.0625,-11.6875
74279825227,-11.3125,-24.6875,-11.6875
74279847712,-22.125,-24.8125,-9.0625
74279862789,-28.625,-26.9375,-10.3125
74279885253,-26,-35.75,-12.875
74279907794,-14.6875,-45.625,-19.25
74279925651,-1.3125,-56.375,-27.875
74279945212,4.6875,-65.125,-33.8125
74279967645,-9.9375,-70.1875,-34.1875
74279982618,-26.5,-75.6875,-34.8125
74280005270,-25.6875,-84.5625,-42.8125
74280027678,-22.125,-93.25,-53.375
74280044178,-22.5,-102.062,-62.6875
74280065250,-14.875,-108.125,-75.375
74280089238,-7.8125,-112.125,-90.9375
74280102742,-21.375,-114.75,-98
74280125210,-47.125,-114.25,-113.875
74280147719,-100.375,-141,-131.125
74280162739,-130.125,-157.125,-126.688
74280185276,-90.125,-165.625,-149.062
74280207659,-42.4375,-159.625,-128.062
74280222809,-2.6875,-135.312,-92.8125
74280245258,34.1875,-83.625,-66.4375
74280267759,24.8125,-61.1875,-5.75
74280282768,19.9375,-0.9375,21.4375
74280305198,18.5,52.6875,47.1875
74280327799,32.5625,98,66.125
74280342756,49.6875,137.125,81.8125
74280365257,41.6875,171.812,105.312
74280387754,26.4375,208.312,121.25
74280402767,21,237.625,133
74280425276,14.625,262.25,147.562
74280447791,4.6875,285.5,158.688
74280462754,4.8125,302.5,169.188
74280485306,10,320.312,178.5
74280508381,-2.3125,330.688,188.688
74280524140,7.6875,322.688,199.688
74280545278,29.6875,304.25,194.938
74280568404,69.25,267,173.625
74280584189,58.5625,217,151.5
74280605234,28,122.625,92.875
74280628412,-66.6875,-10.875,2.4375
74280644226,-85.1875,-112.812,-58.125
74280665261,0.75,-143.25,-87.1875
74280689857,-142.25,-79.875,-40.25
74280704168,145.188,-122.688,-114.938
74280725291,136.188,-183,-116.75
74280748409,68.6875,-186.812,-76.5
74280764200,53.25,-174.625,-67.4375
74280785298,44.75,-141.688,-42.625
74280808437,-23.75,-115.062,-33.5625
74280824195,-36,-99.4375,-30.75
74280845367,-21.125,-87.875,-24.625
74280868391,-0.5625,-75.25,-23.6875
74280884223,13.6875,-61,-18.75
74280905235,15.1875,-52,-15.8125
74280928405,-4.875,-44.125,-11.9375
74280944196,-15.625,-40,-10.5625
74280965239,-14.0625,-38.1875,-10.5625
74280989856,-10.3125,-36,-12.25
74281004260,-9.3125,-37.375,-14.8125
74281025323,-13.9375,-39.5625,-15.0625
74281048403,-17.6875,-44.0625,-16.875
74281064168,-16,-49.8125,-22.3125
74281085268,-14.625,-56.25,-25.875
74281108396,-15.75,-56.25,-28.25
74281124178,-21.0625,-56.5,-28.9375
74281145316,-27.625,-55.625,-30.5625
74281175860,-39.5625,-57,-33.1875
74281184198,-50.625,-64.1875,-38.4375
74281205296,-48.5,-80,-51.1875
74281227819,-33.375,-99.5625,-71.125
74281244205,-23.5,-113.312,-91.0625
74281265248,-37.9375,-121.188,-100.812
74281287760,-71,-131,-104.688
74281304227,-154.688,-137.625,-130.125
74281325232,-194.625,-124.75,-137.375
74281347798,-92.5625,-165.25,-162.125
74281364270,-60.4375,-168.875,-122.188
74281385193,99,-129.812,-122.688
74281407786,46.6875,-87.375,-78.1875
74281424191,-0.125,-27.1875,-18.375
74281453407,54.1875,21.875,23.4375
74281475976,107.25,67.0625,43.5
74281484184,90.875,116.5,61.0625
74281506709,54,160.312,90.375
74281537035,42.75,197.562,119.562
74281545671,31.0625,227.75,140
74281568230,-8.375,254.25,151.625
74281590655,-28.375,269.812,155.062
74281605697,-30.9375,283.312,159.188
74281626704,-44,293.938,170.125
74281647819,-27.5,293.375,175.875
74281664201,-6.8125,291.125,189.625
74281686682,15.5625,283.812,202.062
74281707794,39.875,274.25,204
74281724225,40.375,259.875,194.562
74281746765,-1.875,221.812,182
74281767783,-21.125,165.938,139.75
74281784213,-60.625,41.6875,44.125
74281806708,-102.875,-72.1875,-17
74281827693,-47,-137.688,-75.25
74281844250,24.625,-140.688,-60.3125
74281868187,-24.625,-81.875,-36.125
74281887753,188,-126.312,-137.25
74281904193,125.5,-192.25,-122.375
74281926689,94.1875,-184.688,-69
74281947782,52,-162.5,-59.3125
74281964202,31.1875,-120.062,-42.875
74281986702,-37.4375,-101.375,-28.9375
74282007819,-48.1875,-95.8125,-20.25
74282024226,-21.5625,-81.625,-21.5
74282046740,10,-69.875,-22.8125
74282067781,17.25,-56.4375,-19
74282084228,7.25,-47.0625,-15.3125
74282105935,-15.5625,-39.875,-13.125
74282128431,-16.375,-35.5,-15.8125
74282143418,-5.8125,-33.9375,-21.1875
74282165881,2.8125,-36.0625,-22.9375
74282188239,-0.125,-37.4375,-21.375
74282206341,-9.875,-40.0625,-20.3125
74282227338,-7.4375,-45.5,-22.75
74282248494,-3,-51.8125,-25.9375
74282263434,-4.4375,-56.5625,-28.875
74282285920,-11.125,-59.1875,-29.5625
74282308477,-18.75,-59.5625,-30.3125
74282323399,-28.4375,-55.0625,-29.9375
74282354077,-37.875,-51.4375,-30.875
74282368523,-43.0625,-56.0625,-35.375
74282383463,-42.6875,-69.6875,-47
74282405960,-33.3125,-85.75,-63.9375
74282428439,-26.5625,-99.75,-83.9375
74282443439,-38.0625,-109.5,-96
74282465946,-66.125,-121.125,-97.4375
74282488235,-96.5,-131.062,-111.875
74282519123,-166.188,-144.375,-127.312
74282525899,-173.625,-150.562,-131.438
74282548415,-97.625,-158.25,-158.062
74282563421,-71.9375,-132.938,-119.438
74282585880,1.9375,-100.312,-104.438
74282608489,77.75,-60.1875,-54.375
74282623845,61.25,-13.8125,-2.8125
74282646040,78.75,25.5,25.375
74282668520,86.5625,78.25,49.4375
74282683517,104.25,123.25,62.9375
74282705953,111.188,159,78.9375
74282728505,89.625,194.062,104.125
74282750991,60.125,223.875,119.75
74282765941,42.1875,249.75,129.875
74282788912,37.0625,268.312,137
74282803505,33.1875,284.375,143.438
74282834616,29.4375,301.688,149.125
74282848390,23.125,315.188,156.938
74282863369,9.8125,319.312,169.5
74282885851,16.625,314.438,179.938
74282908426,38.6875,291.375,180.75
74282923355,37.8125,250.875,174.562
74282945729,19.4375,203.875,152.062
74282968519,-16.5625,113.438,86.1875
74282983409,-99.5,-5.5,6.25
74283006038,-80.25,-97.9375,-44.625
74283028519,-4.1875,-143.688,-92.1875
74283043249,-27.5,-103.188,-66.375
74283065927,33.4375,-99.5625,-70
74283088482,122.375,-170,-115.25
74283104855,55.0625,-206.375,-81.0625
74283125999,58.3125,-175.25,-73.125
74283148456,38.375,-130.188,-39.25
74283165985,-21.8125,-96.5625,-29.6875
74283187797,-21.75,-93.75,-27.9375
74283208421,-12.9375,-86.375,-22.375
74283224827,10,-73.3125,-22.125
74283245880,15.1875,-60.875,-14.375
74283269838,9.25,-49.625,-10.5625
74283284855,-14.0625,-40,-5.1875
74283305927,-15.3125,-32.5,-5.9375
74283328417,-13.875,-21.875,-8.5625
74283343433,-8.25,-20.75,-12.4375
74283365955,-4.8125,-22.8125,-11.125
74283388428,-9.75,-24.4375,-9.6875
74283410998,-9.75,-29.1875,-11.5
74283426012,-9.875,-29.1875,-13.6875
74283448490,-20.375,-32.8125,-12.3125
74283462838,-31.875,-41.625,-13.8125
74283485978,-33.5625,-54.5625,-22.3125
74283508423,-30.5625,-69,-32.5
74283522868,-33.3125,-79.5625,-40.9375
74283546041,-39.625,-88.5625,-48.5
74283569910,-32.875,-98.6875,-61.4375
74283582806,-15.6875,-107,-79.125
74283605991,-14.6875,-111,-91.8125
74283628554,-37.3125,-114.75,-95.125
74283642790,-68.75,-117.125,-103.812
74283673544,-108.188,-141.625,-124.188
74283688472,-189.438,-154.938,-125.188
74283702785,-158.688,-171.625,-141.125
74283725915,-92,-154.062,-137.188
74283748450,-51.375,-121.75,-97.125
74283762825,-31.875,-66.625,-68.4375
74283786019,52.25,-62.3125,-9.6875
74283808448,67.75,-0.75,32.25
74283822866,52.4375,47.9375,58.3125
74283845983,21.3125,93.625,86.0625
74283868524,40.1875,136.938,103.062
74283882860,75.5,164.875,123.875
74283913468,76.8125,200.625,136.125
74283928435,67.8125,232.25,144.438
74283942713,46.875,259.75,152.875
74283973442,20.3125,283.75,158
74283988173,11.8125,298.125,171.188
74284002713,28.3125,316.438,181.875
74284025868,25.625,335.938,183.938
74284048380,17.9375,342.375,186.688
74284064168,42.0625,324.188,185.125
74284086691,86.9375,273.75,174.812
74284108460,94.4375,203.5,152.5
74284124698,41.375,69.4375,63.125
74284145899,-106.438,-63.75,-27.1875
74284168430,-22.25,-158.125,-81.875
74284184317,-23.9375,-132.375,-69.25
74284205988,7.1875,-98.4375,-72.5625
74284228475,127.812,-183.688,-111.688
74284251075,80.0625,-198.25,-94.1875
74284265980,26.5625,-190.688,-63
74284288297,41.8125,-155.438,-41.875
74284304258,37.875,-122.25,-38.25
74284326749,-14.9375,-101.312,-25.5
74284348461,-26.6875,-97.1875,-16.4375
74284364341,-23.0625,-87.9375,-9.8125
74284386769,-8.75,-77,-9.8125
74284409982,15.6875,-66.6875,-13.6875
74284424315,15.5,-61.5,-14.875
74284446782,-2.0625,-55.0625,-13.75
74284469941,-9.3125,-48.0625,-14.25
74284484205,-14.5,-46.5,-16.3125
74284506733,-13.8125,-44.25,-16.3125
74284529962,-16.9375,-42.875,-13.8125
74284544298,-15.0625,-42.4375,-15.6875
74284566796,-10.875,-40.5625,-15.5625
74284589882,-14.4375,-40.25,-14.25
74284604284,-22.375,-41.625,-13.125
74284625363,-28.1875,-44.5625,-13.6875
74284648503,-28.75,-45.9375,-18.5
74284664241,-30.9375,-49,-21
74284685350,-39,-57.0625,-25.0625
74284708516,-43.3125,-70.875,-34.5625
74284724299,-30.6875,-89.1875,-48.8125
74284745363,-12.0625,-103.312,-67.4375
74284768544,-13.3125,-114.75,-80.1875
74284784308,-41.625,-125.688,-87.5
74284805425,-91.4375,-126.688,-103.688
74284828497,-165.75,-131.688,-117.875
74284844258,-153.438,-146.875,-128
74284865344,-68.1875,-156.438,-150.625
74284888516,-83.25,-127.125,-108.25
74284904235,8.3125,-107.688,-92.4375
74284925307,18.375,-57.25,-46.75
74284948493,-15.25,-16.4375,19.625
74284964323,20.25,35.4375,42.4375
74284986780,53.5625,77.6875,60.1875
74285008479,72.1875,114.438,76.3125
74285030987,59.1875,155.75,100.5
74285046747,30.5,193.125,119.625
74285068482,4.75,220.562,135.812
74285084338,-14.5,247.062,152.938
74285106810,-31.9375,268.812,166.5
74285128543,-28.8125,283.625,179.5
74285144334,-8.125,297.438,188
74285166834,-0.8125,303.375,194.625
74285188565,1.375,300,207
74285204947,42.125,287.688,203.312
74285226828,74.5625,265.938,184.438
74285248536,73.8125,226.312,165.938
74285264340,63.3125,168.625,133.5
74285286744,37.5625,68.3125,61.9375
74285307793,-19.9375,-52.375,-9.1875
74285324244,14.75,-128.812,-53.625
74285353551,-29.5,-146.938,-51.1875
74285367883,-30.5,-119.562,-49.375
74285384262,29.5,-79.125,-63.25
74285406837,99.625,-189,-121.562
74285427835,56.9375,-209.312,-95.3125
74285444302,11.125,-180.125,-48.125
74285466758,9,-144.875,-37.25
74285487838,-27.5625,-112.75,-29.0625
74285504335,-20.125,-96.8125,-28.1875
74285527405,-7,-82,-25.1875
74285547814,-5.1875,-65.875,-18.0625
74285564248,-2.125,-52.6875,-10.375
74285586753,3.3125,-42.6875,-6.4375
74285609222,1,-34.625,-4.0625
74285638544,-2.0625,-31.1875,-5.75
74285653553,-7.3125,-29.3125,-7.125
74285692865,-7.3125,-28.1875,-9.3125
74285708789,-8.5625,-30.5,-9.5625
74285714861,-9.125,-32.875,-11.5625
74285728518,-30.125,-32.3125,-19
74285744255,1.0625,-43.375,-12.4375
74285765332,-14.625,-43.3125,-19.5
74285788505,-19.0625,-44.8125,-18.875
74285802882,-14.75,-45.5625,-21.3125
74285825391,-18.875,-43.5,-24.6875
74285848485,-22.3125,-52,-31.375
74285862936,-24.875,-66.1875,-37.0625
74285885351,-25.1875,-84.3125,-47
74285908521,-17.875,-99.3125,-60.125
74285933101,-23.125,-114.938,-73.8125
74285945389,-35.1875,-125.125,-86.75
74285968573,-59.4375,-130.062,-99.875
74285982880,-98.0625,-133.312,-113.75
74286005360,-157.5,-163.875,-134.188
74286028591,-152.062,-171,-156.688
74286042893,-113.938,-153,-162.688
74286066033,3.0625,-138,-112.688
74286088601,112.5,-99.8125,-99
74286103569,72.375,-44.5625,-53.375
74286126027,17,-9.375,-8.375
74286148510,12.5625,49.4375,18.3125
74286164210,29.75,100.75,35.4375
74286186048,57.1875,141.875,44.6875
74286216705,46,179.125,74.5
74286223519,29.4375,216.25,100.688
74286246150,13.25,237.375,120.688
74286268555,-6.5625,263.812,143.375
74286283452,-30.0625,284.188,153.875
74286306032,-21.375,292.625,161.75
74286343982,-27.625,297.312,172.75
74286352481,-48.875,293.562,192.125
74286396454,-28.1875,283.812,192.812
74286407120,-9.875,268.062,194.625
74286420634,-3.625,242.875,190.938
74286443031,-8.1875,213.875,178.25
74286448507,-13.4375,175.625,160.375
74286471110,-7.6875,119,112.438
74286495627,-21.5,20.5,37.3125
74286508288,-28.0625,-67.625,-16.6875
74286561451,-38.5625,-125.875,-33.6875
74286571127,11.125,-135.562,-51.9375
74286576719,148.125,-92.1875,-62.1875
74286583587,159.812,-159.688,-150.25
74286606029,37.125,-204,-69.1875
74286628232,49.1875,-177.25,-55.5625
74286643555,64.5625,-141.562,-54.25
74286665814,-7.0625,-112.938,-38
74286688331,-20.9375,-103,-33.4375
74286703572,-17.6875,-94.375,-28.375
74286727936,2.875,-73.3125,-29.125
74286750014,7.8125,-58.8125,-22.5625
74286763935,-0.9375,-49.0625,-16.5625
74286785898,-9.1875,-39.75,-13.125
74286808447,-5.25,-32.0625,-13.25
74286823556,3.375,-29.3125,-15.4375
74286846079,12.375,-30.625,-16
74286898804,9.3125,-35.625,-15.1875
74286909380,7.0625,-41.4375,-18.875
74286921670,6.75,-49.125,-23
74286936753,3,-55,-23.3125
74286967149,2.75,-55.6875,-25.875
74286974462,-2.0625,-49.5,-32.375
74286988303,-7.5,-54.8125,-33.9375
74287004278,-15.75,-63.1875,-36.8125
74287026083,-16.9375,-69.5625,-42.75
74287048478,-25,-76.0625,-48.5
74287062921,-33.8125,-85.75,-54.375
74287086775,-35.9375,-101,-64.375
74287116520,-28.1875,-119.188,-79.625
74287124286,-20.3125,-130.625,-95.125
74287145464,-32.375,-130.312,-103.25
74287167936,-60.25,-118.688,-106.125
74287182854,-101,-117.25,-113.312
74287205459,-130.312,-133.375,-128.375
74287236705,-136.188,-133.312,-138.125
74287242965,-93.0625,-118.5,-144.812
74287265410,-38.9375,-91.75,-116.312
74287304942,29.125,-65.4375,-92.625
74287307298,53.25,-38.5,-37.625
74287325454,28.75,-5.9375,24.5
74287341807,62.125,45.9375,44.8125
74287362902,81.125,91.8125,70.4375
74287403774,95.5625,120.5,87.625
74287425562,60.5,156.375,111.688
74287427959,14.3125,189.875,135
74287453354,-22.6875,216.562,148.75
74287524658,-39.75,241.812,162.562
74287529987,-62.9375,258.812,169.812
74287542858,-7.5625,272.812,174.438
74287566034,25.9375,268.688,177.875
74287581830,67.4375,258.5,182.75
74287602921,89.75,241,180.312
74287626132,90.75,218.062,168.25
74287641859,66.875,178.875,146.438
74287662987,48.4375,113.062,98.4375
74287693560,-4.75,3,20.625
74287701817,-28.25,-85.6875,-28.8125
74287722934,-12,-136.875,-54.125
74287746038,-17,-133.312,-65.125
74287768586,-88.4375,-72.8125,-38.875
74287782862,127.562,-187.562,-139
74287805367,57.875,-212,-117.188
74287828611,29.25,-189.875,-50.3125
74287842883,22.625,-163.5,-52
74287865381,-8.625,-124.438,-43.8125
74287881878,-35.1875,-101.875,-32.3125
74287902928,-17.1875,-85.5,-24.125
74287925411,-10.5,-71.25,-19.1875
74287948536,-5.625,-58.1875,-11.9375
74287962888,1.375,-48.4375,-9.25
74287985437,0.1875,-41.625,-5.25
74288001852,-14.75,-38.1875,-3.4375
74288022910,-16.4375,-37.75,-6.75
74288045311,-7.1875,-39.5625,-10.5625
74288061797,-0.875,-45.8125,-16.125
74288084294,6.25,-52.1875,-19.75
74288115038,1.8125,-52.625,-20.4375
74288129932,-3.75,-50.5625,-22.625
74288144373,-3.75,-55.375,-25.625
74288165385,-2.0625,-61.6875,-27.625
74288181860,-7.4375,-66.25,-26.5
74288204398,-20.1875,-76.5,-25.4375
74288225404,-26.9375,-85.4375,-33.375
74288241897,-26.9375,-93.3125,-45.5
74288264378,-36.3125,-100.375,-56.5625
74288293568,-51.25,-110.938,-69.125
74288301880,-65.9375,-122.188,-78.875
74288347338,-94.75,-122.5,-85.3125
74288349788,-148.312,-113.188,-93.625
74288393619,-230.875,-137.938,-104.188
74288399229,-310.875,-142.438,-136.75
74288405456,-118.625,-148.625,-150.562
74288421765,-2.9375,-141.125,-150.438
74288444447,182.875,-84.9375,-145.375
74288465379,191.625,-23.8125,-110.25
74288495823,73.625,10.5,-48.5625
74288512951,-16.75,61.3125,9.625
74288525469,-34.5,100.938,44.9375
74288549401,28.125,129.562,81.3125
74288579259,-0.6875,166.812,108.688
74288585437,-49.875,200.062,138.875
74288609311,-38.75,216.375,156.438
74288646502,24.5,219.938,153.75
74288705756,16.4375,230.438,160
74288717111,10.4375,234.938,164.875
74288738181,27.75,237.438,162.938
74288740479,51.3125,232.312,165.438
74288760786,63.5625,231.625,167.812
74288765443,60.75,233.75,170.438
74288781908,55.25,229.562,174.875
74288812225,49.125,220.25,173.312
74288836465,34.6875,197.438,159.875
74288841892,26.5625,148.25,130.312
74288864341,-0.875,76.75,82.5625
74288885412,-56.1875,-29,16.75
74288910761,-32.75,-123.5,-38.9375
74288947500,20.6875,-167.188,-60.5625
74288949823,-113.312,-104.125,-18.9375
74288967920,333.25,-123.5,-116.375
74288991070,100.125,-222.188,-74.875
74289005331,72.5,-229.25,-76.25
74289023300,-52.375,-220.5,-58.9375
74289051108,70.25,-135.438,-65.5
74289066822,-6.0625,-104.062,-39.9375
74289081906,26.5,-92.9375,-44.1875
74289112500,32.0625,-87.75,-35.6875
74289126879,37.125,-64,-18.75
74289141902,18.75,-45.4375,-6.1875
74289164388,-7.3125,-40.875,-0.8125
74289186806,-16.4375,-37.25,-2.9375
74289210860,-16,-39.8125,-8.5
74289234609,-10.625,-45.125,-14.5625
74289255094,-8.75,-49.875,-17.3125
74289268953,-10.375,-54.125,-18
74289291793,-6.4375,-59.9375,-21.3125
74289314313,0.1875,-65.3125,-26.1875
74289328236,0.5,-69,-28.5
74289345086,-7.875,-70.625,-27.25
74289366125,-17.8125,-71.6875,-25
74289388598,-23.625,-72.6875,-27.0625
74289404826,-27.75,-76.375,-29.75
74289426062,-28.1875,-83.6875,-36.5
74289448837,-30.6875,-89.5625,-43.375
74289466505,-40.3125,-95.3125,-52.9375
74289486168,-55.5,-103.688,-66.0625
74289516468,-75.5625,-117.188,-77.8125
74289526536,-98.8125,-127.375,-84.3125
74289546096,-142.5,-133.562,-96.0625
74289568617,-215.188,-169.625,-120.438
74289583549,-153.125,-174.75,-159.562
74289606093,-66.5625,-146.812,-148.875
74289628535,-38,-116.688,-110.5
74289643535,118.75,-75.75,-79.25
74289674263,145.438,-25.5,-18.625
74289688636,88.875,30,35.875
74289710986,88.875,91,59.125
74289726106,53.5,143.25,78.5
74289748544,43.3125,175.375,86.1875
74289763554,33.4375,211.875,111.625
74289786139,-11.1875,243,136.375
74289816768,-35.625,269.875,152.125
74289823652,-43.0625,290.25,164.812
74289847477,-40.3125,301.062,173.062
74289868578,-16.25,304.625,176.25
74289883549,-16.9375,306.375,184.625
74289906522,-4,302.062,187.938
74289928350,25.75,294.125,190.625
74289943606,53.0625,273.75,188.375
74289966108,53,244.438,172.5
74289988585,36.75,202.938,152
74290003584,13.5625,135.5,111.75
74290026116,-14.75,38.8125,44.8125
74290048569,-37.125,-63,-13.3125
74290063580,-16.875,-129.875,-55.875
74290086131,-9.8125,-158.062,-68.375
74290102294,-148.375,-89.375,-14.0625
74290125501,218.875,-101,-102.312
74290146113,117.438,-185.75,-107.125
74290161901,62,-183.25,-48.8125
74290191816,17.0625,-165.5,-50.625
74290206104,59.75,-123.375,-41.125
74290220474,-5.8125,-96.25,-20.9375
74290243631,-14.5625,-89.8125,-20.125
74290266815,-16.4375,-80.8125,-11.9375
74290280453,-0.9375,-68,-11.125
74290303664,-5,-55.5,-7.875
74290326511,-21.75,-47.25,-6
74290340462,-33.625,-40.125,-3.625
74290363643,-38.6875,-31.875,-4.75
74290387995,-27.5625,-29.625,-7.375
74290400488,-20.6875,-30,-8.8125
74290423636,-22.8125,-33.5,-9.4375
74290445896,-21.9375,-40.3125,-11.1875
74290468440,-17.625,-47.4375,-17.0625
74290485108,-13.75,-53.8125,-22.75
74290514143,-10.5,-61.75,-26.75
74290569651,-4.0625,-69.75,-30.625
74290575682,3.4375,-74.125,-35.75
74290580498,-15.1875,-74.875,-37.125
74290603617,-26.4375,-77.125,-38.125
74290634319,-26.5625,-85.75,-48
74290640479,-20.5,-94.75,-58.8125
74290663643,-24.375,-99.1875,-68.25
74290703882,-42.25,-107.188,-70.75
74290708635,-59.375,-116.125,-76.5
74290731131,-89.25,-128.75,-87.1875
74290746121,-132.625,-127.938,-103.375
74290768656,-176.812,-128.5,-119.562
74290783608,-142.188,-154,-152.375
74290806164,-66.375,-130.75,-122.562
74290821890,-12.375,-117.875,-105.812
74290846507,63.375,-55.4375,-59.625
74290884377,32.0625,-16.9375,-2.3125
74290888630,35.3125,37.8125,28.6875
74290903642,47.5,78.625,51.375
74290926165,47.75,119.938,66.125
74290941918,57.4375,158.062,81.875
74290962951,53.875,189.938,102.062
74291002419,34.25,215.75,117.188
74291004874,27.125,234.5,129.75
74291022932,5.4375,257.125,137.312
74291063940,5.75,269.688,147.938
74291068627,37.1875,282.25,152.25
74291082995,31,293.438,154.688
74291106181,7.3125,300,162.188
74291121942,-12.6875,300.688,176.375
74291144396,-3.9375,299.188,182.75
74291167568,-24.5,282.625,182.875
74291181854,-31.3125,247,169.938
74291218630,-15.375,177.25,131.812
74291233594,12.1875,44,31.75
74291241869,5.0625,-72.8125,-35.0625
74291264409,7.1875,-133.438,-55.125
74291287564,19.25,-148.375,-72.75
74291308607,-101.75,-88,-33.3125
74291324449,95.5,-106.25,-92.5
74291347606,50,-169.688,-96.9375
74291393083,11.625,-174.5,-70.6875
74291423930,41.25,-152.188,-53.4375
74291430629,51.75,-128.625,-41.25
74291433084,43.6875,-105.75,-34.875
74291444474,11.875,-94.25,-30
74291467584,-27.8125,-86.125,-17.8125
74291488663,-13.8125,-75.6875,-10.1875
74291512566,3.75,-65.625,-11.5625
74291527565,11.75,-56,-10.125
74291556120,8.625,-48,-5.9375
74291564426,-6.25,-37.125,1.5
74291595708,-11.9375,-29.1875,0.625
74291608681,-5.5,-23.9375,-2
74291624503,-4.5625,-25.4375,-5.75
74291647531,-7.75,-31.375,-5.8125
74291668605,-8.75,-38.3125,-8.3125
74291693234,-7.3125,-44.8125,-15.5625
74291707640,-10.25,-50.625,-20.8125
74291736106,-16.625,-61.5,-25.125
74291744444,-16.875,-69.1875,-32.8125
74291767579,-16.0625,-69.625,-37.5625
74291788613,-30.0625,-66.875,-34.75
74291804411,-41.1875,-66,-34.5
74291827628,-37.75,-74,-43.9375
74291848601,-26.75,-84.125,-54.4375
74291872565,-22,-88.5625,-66.9375
74291904133,-28.0625,-87.8125,-75.4375
74291917566,-45.25,-88.625,-80.0625
74291924424,-66.3125,-94.875,-86.4375
74291946890,-94.5625,-109.938,-109.312
74291968609,-205.625,-125.062,-118.188
74291984381,-223.562,-115.5,-118.75
74292006919,-67.5,-150.438,-178.375
74292030079,35.4375,-168,-134.812
74292044395,54,-142.188,-114.25
74292067560,77,-99,-58.125
74292090073,83.875,-40.6875,-9.6875
74292104378,89.0625,14.3125,23.625
74292126902,60.625,69.5625,39.5625
74292150066,30.125,112.062,60.75
74292164450,34.375,144,87.75
74292186958,33.3125,178.688,102.5
74292233921,15.125,208.625,113.5
74292238404,6.625,232.375,131.125
74292270652,9.0625,252.375,141.375
74292273085,6,267.75,148.312
74292284447,0.3125,282.812,154.5
74292305437,-17.0625,293.938,157.938
74292321911,-26.8125,296.938,169.938
74292344406,1.6875,291.812,173.375
74292366915,24.8125,281.688,172.688
74292381923,29.625,259.375,172.375
74292410901,30.8125,227.312,162
74292428380,10.5625,185.875,142.625
74292450102,10.4375,110.688,90.125
74292464423,0.1875,-6.4375,10.3125
74292485512,-6.9375,-104.312,-40.6875
74292510087,12.3125,-145.875,-71.375
74292524405,-139.5,-85.75,-28.75
74292545562,106.125,-116.875,-113.875
74292561908,53.125,-180.375,-97.75
74292585818,1.375,-172,-66.875
74292606885,23.3125,-155.688,-50.25
74292621871,50.625,-126.375,-45.875
74292677252,43.625,-100.375,-33.6875
74292689824,10.1875,-91.5625,-27.6875
74292721363,-19.0625,-83,-14.1875
74292735570,-21.4375,-68.5,-4.625
74292738052,-4.875,-60.125,-8.1875
74292743341,8,-55.25,-11.75
74292771158,10,-50.4375,-8.6875
74292786949,3,-47.5,-3.0625
74292803334,6.375,-41.75,-1.375
74292832312,9.875,-39.5625,-6.4375
74292846099,13.625,-41.875,-9.6875
74292860434,13.5625,-41.9375,-10.125
74292884812,5.125,-42.875,-11
74292916914,1.5,-43.1875,-12.5
74292921918,-4.6875,-44.5625,-12.25
74292974248,-11.5,-47.0625,-12.375
74292998081,-15,-50.125,-14.5625
74293007146,-18.75,-54.25,-19
74293013198,-21.625,-57.3125,-25.5625
74293034104,-28.875,-58.6875,-28.25
74293043382,-36.8125,-61.6875,-31.625
74293065037,-40.25,-69.125,-36.8125
74293086186,-35.9375,-77.9375,-47.375
74293108632,-31.0625,-81.5,-57.125
74293123656,-37.25,-81.5625,-66.75
74293154258,-48.875,-80.75,-74.25
74293160450,-54.5625,-87,-81.5
74293191763,-64.75,-102.062,-93.3125
74293206081,-73.0625,-120.688,-112.375
74293220485,-110.438,-141.188,-120.75
74293246522,-112.438,-159.562,-125.438
74293266119,-90.6875,-151.812,-146.688
74293280516,-21.75,-141.688,-119.812
74293302936,67.3125,-122,-91.9375
74293334310,52.25,-82.75,-40.4375
74293340492,37.75,-35.4375,15.375
74293371853,65,17.4375,31.625
74293386603,50.375,74.875,46
74293408634,16.9375,119,67.25
74293422988,4.4375,157.938,86.375
74293454267,21.25,191.5,105.75
74293460461,25.75,220.562,121.625
74293482945,16.125,248.25,133.375
74293521602,-0.125,274.625,142.25
74293530041,-28.6875,293.625,150.938
74293543601,-31.125,307.188,158.5
74293566165,-39.3125,313.812,168
74293580472,-33.875,314.312,186
74293603648,4.625,311.375,193.25
74293626184,38.5,299.125,193.188
74293641930,52.6875,270.25,184.188
74293665035,52.1875,223.812,163.062
74293686139,29.8125,147.312,113.5
74293708633,-11,16.6875,28.75
74293723633,-48.9375,-88.75,-32.0625
74293760935,-0.25,-151.688,-73.5
74293771507,-61.3125,-143.062,-52.125
74293785073,-16.25,-113.312,-25.4375
74293806114,69.75,-49.625,-49.125
74293820475,93.875,-131.312,-106.562
74293860738,70.8125,-172.375,-85.5625
74293866145,26.1875,-155.875,-51.0625
74293880459,28.4375,-135.812,-38.625
74293903662,52.875,-112.188,-39.75
74293926142,24.4375,-98.9375,-34
74293940474,-8.9375,-92.375,-28
74293963640,-15,-79.6875,-17.0625
74293986108,6.5625,-71.9375,-16.75
74294016808,23.4375,-65.125,-19.875
74294023657,19.9375,-61.9375,-17.75
74294046140,6.875,-58.0625,-10.0625
74294061900,2.9375,-56.625,-8.0625
74294083691,9.6875,-54.25,-9.9375
74294106181,10.375,-52.125,-14.1875
74294128666,-6,-42.75,-12.4375
74294143691,-16.25,-39.625,-11.5
74294166193,-16.3125,-39.3125,-14.5
74294188733,-17.625,-40.5,-14.4375
74294203697,-17.5,-45.375,-15.4375
74294226160,-16.375,-49.8125,-17.1875
74294240507,-18.3125,-53.75,-22.25
74294263653,-25.4375,-55.5625,-27.25
74294286217,-34.6875,-56.5625,-29.9375
74294300551,-39.875,-61.5,-34.25
74294323713,-36.75,-69.875,-41.75
74294346200,-34.75,-78.1875,-52.0625
74294375993,-32.6875,-87.625,-63
74294386562,-39.625,-96.9375,-76.5625
74294406033,-54.125,-106.375,-93.5625
74294420506,-76.25,-104.562,-116.25
74294443023,-130.875,-120.125,-127.688
74294466182,-96.3125,-152.25,-129.688
74294480577,-81.125,-156.312,-146.5
74294503007,-70.0625,-131.312,-130.812
74294525522,2.6875,-131.188,-98.9375
74294540541,8.0625,-81.25,-58
74294572604,36.125,-52.0625,-6.3125
74294585508,53.4375,0.9375,28
74294600555,43.5,46.25,43.5
74294622948,45.25,87.6875,59.5625
74294645568,47.25,123,80.5
74294660498,36.1875,159.438,99.0625
74294692625,10,188,114.625
74294705447,-5.625,214.312,130.875
74294731647,-8.375,239.938,143.312
74294744537,-20.9375,259.25,148.5
74294766955,-20.1875,270.688,152.938
74294781961,-1.1875,277.25,158.625
74294803029,0.3125,282.375,165.625
74294826218,3.125,282.375,174.812
74294841974,37.125,280.562,179.438
74294863094,61.875,271.125,177.5
74294888098,69.125,245,164.25
74294901935,49.9375,197.312,145.562
74294931102,27.9375,126.312,95.6875
74294946159,-10.0625,18.3125,21.8125
74294961988,-42.875,-78.75,-31.9375
74294983042,-1.6875,-136.062,-87.4375
74295006215,-52.875,-116.25,-52.25
74295022003,14.0625,-82.0625,-62.0625
74295043114,69.8125,-144.375,-95.0625
74295065941,18.5625,-170.625,-82.5625
74295088682,7,-168.375,-41.6875
74295103006,71.9375,-134.312,-52.8125
74295126170,84.1875,-110.812,-41.4375
74295142037,28,-97.375,-34.375
74295162955,-13.3125,-94.25,-25.3125
74295186235,-23.5625,-87.9375,-13.375
74295201934,-7.3125,-77.625,-11.625
74295223025,17.25,-68.125,-17.5
74295262499,40.1875,-63.1875,-16.625
74295264922,15.6875,-51.5,-8.875
74295299329,-7.3125,-40.6875,-0.1875
74295306153,-11.75,-33.0625,-0.8125
74295321995,-6.75,-28.8125,-6.6875
74295343082,-7.6875,-28.6875,-7.4375
74295366222,-13.375,-30.1875,-5.5625
74295382008,-11.5625,-33.125,-9.375
74295403114,-11,-35.5625,-13.25
74295433773,-14.8125,-40.3125,-15.25
74295458318,-21.4375,-49.3125,-19.5625
74295479317,-19.875,-58.0625,-27.5
74295485541,-18.5625,-62.3125,-34.125
74295502005,-28.6875,-62.5,-36
74295523089,-42.6875,-63.75,-36.6875
74295545522,-44.1875,-72.0625,-44.625
74295561969,-32.625,-81.4375,-58
74295583071,-28.125,-89.375,-69.9375
74295605612,-34.5,-93.125,-78.8125
74295623426,-46,-101.125,-83.8125
74295659394,-64.4375,-111.75,-95.25
74295665503,-90.75,-118.438,-117.125
74295690203,-139.125,-140.062,-124.875
74295712712,-106.75,-154.688,-132.562
74295725614,-82.875,-144.75,-157.875
74295741986,-29,-140.625,-121.25
74295764543,29.8125,-105.75,-92.25
74295818285,89.8125,-80.125,-44.8125
74295820614,49.8125,-18.75,7
74295842242,44.8125,32.625,30.125
74295846997,49.5625,82.375,54
74295861980,73.8125,119.188,66.5625
74295884516,67.6875,155.562,80.625
74295905510,64.625,187.625,96.25
74295922035,42.1875,214.062,110.125
74295951946,34.75,237.75,122.062
74295980988,17.0625,258.438,126.312
74295999151,-2.75,274.062,130.188
74296020775,14.125,285.75,135.875
74296025528,3.625,294.562,142
74296050152,-19.75,295.312,156.25
74296064562,-3.25,290.188,167.188
74296085565,17.8125,278.938,177.625
74296101938,8.625,258.75,180.25
74296124440,-14.1875,229.375,173.312
74296145621,-52.1875,183.688,146.625
74296161990,-62.9375,83.4375,75.875
74296209094,-93.3125,-30,7.625
74296213689,-18.4375,-101.062,-43.8125
74296222051,-17.3125,-139.125,-59.8125
74296244586,-24.25,-127.938,-43.3125
74296265570,54.6875,-116,-13.0625
74296282038,46.5625,-31.125,-13.75
74296311230,181.375,-128.688,-140.625
74296364111,51.3125,-161.938,-67.1875
74296382288,-38,-157,-40.5625
74296388384,4,-138.688,-35.25
74296389963,22.625,-107.812,-38.125
74296402035,0.625,-86.25,-31.75
74296424536,-15.8125,-79.5625,-24.375
74296446165,-11.9375,-68.3125,-13.875
74296461241,7,-54.1875,-15.25
74296483742,4.1875,-45.875,-10.9375
74296506621,-14.625,-38.0625,-4.625
74296553253,-32.0625,-33.8125,1.625
74296555666,-21.4375,-29.5625,-3.0625
74296611600,-12,-29.6875,-7.75
74296629814,-8,-32.3125,-10.3125
74296643339,-7.625,-35.625,-12.25
74296644874,-3.75,-38.875,-17.75
74296648732,-2.0625,-44.0625,-22.75
74296663767,-5.5,-53.0625,-24.3125
74296686249,-1.1875,-63,-29.6875
74296701275,2.25,-69.75,-38.1875
74296723741,-5.4375,-73.8125,-38.5625
74296746253,-19.9375,-75.0625,-38.4375
74296761233,-24.3125,-76.125,-40.8125
74296783733,-23.5,-76.5,-43.75
74296806170,-29.375,-75.9375,-47.25
74296821216,-33,-78.6875,-53.9375
74296851926,-35.25,-82.9375,-61.375
74296866232,-38,-92.1875,-72.125
74296881276,-41.375,-100.25,-84.4375
74296903762,-54.4375,-105.062,-99.25
74296926282,-87.875,-120.562,-120.5
74296941292,-140,-141.25,-125.375
74296972601,-93.5625,-167.75,-133.312
74296986202,-51.625,-156.188,-142.875
74297002757,-7.25,-138.438,-100.938
74297023710,-13.5,-94.875,-86.5
74297046269,55.0625,-70.3125,-43.25
74297062663,12.8125,-17.4375,11.4375
74297083733,22.3125,25.6875,25.5625
74297106209,24.3125,76.3125,46.875
74297122672,41.375,120.875,59
74297151297,55,149.875,79.875
74297166258,31.5625,178.562,98.625
74297183172,18.625,204.75,113.188
74297203531,4.5,228.125,126.938
74297250827,2.375,248.5,141.25
74297253167,-5.125,265.875,149.562
74297266630,-19.3125,279.312,151.562
74297286735,-7.75,289.875,155.625
74297301296,-19.625,295.812,163.125
74297323713,-26.4375,296.5,173.375
74297346151,1.75,290,181.5
74297361220,31.4375,263.688,180.312
74297383725,49.5625,218.188,171.188
74297406281,39.375,160.812,133.688
74297421275,15.875,50.4375,55.1875
74297445183,-35.4375,-59.125,-19.625
74297466228,-6.9375,-136.375,-80.75
74297481264,-46.5,-129.375,-57.4375
74297505212,-72.25,-66.1875,-53.75
74297526284,81.8125,-143.688,-106.125
74297541237,45.0625,-175.875,-94.0625
74297563674,9.25,-168.5,-54.875
74297595805,60.5,-135.875,-49.75
74297600579,51.375,-111.875,-39.1875
74297623735,6.625,-94.6875,-32.9375
74297646162,-23.0625,-90.9375,-23.5
74297660604,-30.6875,-80.5,-12.4375
74297691241,-17.625,-66.6875,-8.25
74297706235,6.5,-55.375,-14.5625
74297720612,10.875,-46.9375,-14.75
74297743760,-7.5625,-38.9375,-7.0625
74297766256,-40.3125,-27.0625,2.5
74297780551,-37.875,-22.9375,3.4375
74297803783,-22.25,-23.8125,-1.875
74297827709,-7.625,-26,-6.25
74297848729,-7.625,-28.125,-8.1875
74297871319,-9.5,-30.5,-10.6875
74297894529,-5.0625,-34.1875,-15.375
74297900655,-2.75,-37,-18.875
74297923740,-3.125,-39.8125,-22.5625
74297985848,-10.9375,-41.1875,-24.4375
74297988187,-17.5625,-47.3125,-25.5
74297993504,-17.3125,-55.375,-27.375
74298006924,-11.625,-64.4375,-31.625
74298020596,-9.1875,-71.5625,-37.1875
74298043761,-17,-74.875,-40
74298105794,-23.625,-78.375,-46.3125
74298108184,-24.5625,-85.125,-52.6875
74298129775,-22.9375,-91.75,-60.5
74298134859,-26.5625,-94.4375,-67.8125
74298150159,-40.375,-95.4375,-70.625
74298171324,-59.375,-98.875,-81.3125
74298186220,-76.375,-112.562,-103.438
74298200577,-96,-131.125,-121.75
74298223723,-115,-146.312,-127.062
74298246305,-69.3125,-164.75,-147.188
74298262163,-70.375,-133.562,-111
74298285201,7.4375,-122.312,-101.125
74298307491,32.75,-70.1875,-63.5
74298330191,33.375,-48.8125,-1.6875
74298351253,37.625,11.875,18.25
74298366265,33.3125,66.625,28.25
74298382075,25.875,107.562,46.4375
74298405211,15.375,143.125,71.4375
74298427731,10.9375,176.625,98.9375
74298450208,15.125,200.625,119.188
74298472692,23.4375,220.875,135.312
74298486287,-16.1875,243.75,144.5
74298502138,-18.6875,250.688,147.438
74298525237,6.9375,251.75,152.562
74298554239,7.1875,254.875,160.5
74298568757,25.3125,248.125,155.125
74298583132,71.375,237.688,148.188
74298606314,84.0625,225.875,133.25
74298622135,72.5,213.938,122.188
74298643177,56.6875,194.438,117.562
74298666256,26.625,168.312,110.438
74298682105,2.6875,137.875,96.375
74298703091,-5.0625,98.875,80.5
74298727729,-15.5625,62.8125,53.1875
74298742661,-13.875,19.4375,24.625
74298763131,-15.375,-20.625,1.375
74298793765,-38.5625,-48.1875,-11.0625
74298802140,-14.8125,-92,-36.875
74298832764,-84.9375,-60.9375,-23.5625
74298855215,110.438,-67.875,-70.4375
74298862173,76.125,-136.875,-97.1875
74298883108,-5.5,-153.312,-54.5625
74298913759,50.5,-152.938,-47.125
74298922083,63.9375,-133.875,-45.9375
74298943147,57.5,-106.125,-43.6875
74298969135,21.625,-95,-39.375
74298982130,-6.25,-92.8125,-28.8125
74299012803,-11.5625,-74.75,-20.5625
74299026225,22.6875,-67.4375,-22.0625
74299042099,41.875,-60.6875,-23.1875
74299063168,19.6875,-52.1875,-9.5625
74299086265,-9.125,-46.875,1.4375
74299102098,-12.5625,-41.5,2.1875
74299124546,1.4375,-40.375,-6.375
74299164776,7.375,-42.375,-10.125
74299170250,-0.0625,-41.75,-10.125
74299200675,-8.875,-45.6875,-11.625
74299222667,-5.4375,-49.25,-15.875
74299225098,-5.5625,-51.0625,-15.125
74299244580,-9.0625,-51.0625,-14.75
74299266214,-11.625,-47.8125,-17.25
74299282505,-14.5,-44.1875,-20
74299305070,-15.625,-51.625,-24.6875
74299326285,-17.8125,-59.75,-28.9375
74299342126,-20.625,-65.5,-33.0625
74299364587,-28.625,-68.3125,-33.375
74299386325,-37.3125,-68.75,-32.5625
74299402141,-42.75,-67.375,-36.0625
74299424543,-50.3125,-70.0625,-38
74299446341,-50.4375,-73.75,-44.875
74299462093,-50.375,-81,-55
74299485188,-55.6875,-89.625,-65.75
74299505585,-67.875,-93,-75.875
74299529183,-90.5625,-96.0625,-79.6875
74299544609,-114.875,-91.3125,-88.4375
74299574164,-119.875,-104,-108.125
74299590249,-122.375,-109.938,-130.438
74299604552,-147.375,-122,-125.5
74299627086,-44.75,-123.188,-116
74299650232,75.8125,-98.75,-94.625
74299694934,117.688,-72.625,-68.625
74299727376,113.688,-31.75,-17.375
74299733401,81.4375,17.375,-1.5
74299747131,-19.5625,57.9375,51.6875
74299770735,-77.125,81.75,80.0625
74299784604,-105.875,101.062,103.75
74299813779,-68.875,105.75,110.812
74299837766,-20.75,108.75,110
74299869125,2.3125,114.188,103
74299873752,24.8125,122.25,91.75
74299897708,40,134,80.1875
74299911255,48.9375,146.438,72
74299927078,63.6875,159,72.3125
74299956022,64.25,161.688,74.8125
74299987579,61.9375,162.438,77.4375
74299990030,65.75,159.75,76.75
74300009384,61.625,154.125,73.75
74300023136,55.4375,146.125,71.125
74300046248,39.6875,135.062,65.125
74300069423,31.5,121.688,60.125
74300083088,33.0625,97,53.1875
74300114589,32.625,72.8125,48.0625
74300120559,20.5,53.4375,35
74300143127,68.25,-29.5625,2
74300166299,11.4375,-2.5,30.125
74300182342,53.8125,-40,-6.625
74300203287,19.125,-9.3125,2.6875
74300226278,-27.8125,-11.125,14.625
74300240617,-5.125,-12.25,7.6875
74300263120,3.6875,-8.1875,8.5625
74300286313,6.5,-9.1875,7.625
74300300664,2.5,-9.5,7
74300323807,6.5625,-11.6875,3.375
74300346254,10.0625,-12.6875,1.0625
74300360635,4,-11.8125,1
74300383847,-2.4375,-10.6875,1.75
74300398169,-3.5,-8.9375,1.6875
74300420646,-0.375,-8.5,1.1875
74300443833,1.5625,-8,1.25
74300458072,-0.0625,-6.5625,1.25
74300480572,2,-6.5625,0.375
74300503059,4.9375,-7.0625,-0.3125
74300518205,0.8125,-7.8125,-1.125
74300540622,1.4375,-8.1875,-1.5
74300563253,5.25,-8.5625,-3.1875
74300578103,2.75,-5.3125,-2.375
74300602055,-1.4375,-2.1875,-0.6875
74300623093,-0.8125,1.125,-0.3125
74300638111,3.75,0,-0.1875
74300660609,-2.6875,-0.625,1.3125
74300683118,-8.5625,-0.5,1.6875
74300698103,-2.5625,-3.6875,0.1875
74300720660,-0.25,-5.625,-1.0625
74300744514,1,-7.75,-1.875
74300758069,-5.5625,-2.8125,-0.9375
74300780600,-22.125,5.8125,-0.6875
74300803097,-8.6875,3.4375,0.5625
74300826261,-3.9375,3.1875,1
74300840591,3.6875,1.25,0.875
74300863113,5,0.125,1
74300878206,1.9375,-0.375,0.8125
74300900621,1.75,-1.625,-0.25
74300923105,3.1875,-4.4375,-1.0625
74300938127,4.5,-6.75,-1.5
74300960682,6.9375,-7.6875,-2.875
74300984572,10.75,-7,-2.3125
74300998108,6.8125,-4.625,-1.5625
74301020614,6.0625,-3.1875,-0.75
74301043149,8.3125,-3.125,-1.125
74301061078,8.5625,-3.625,-1.3125
74301080624,6.1875,-3.5625,-1.25
74301111993,4.75,-3.5625,-1.875
74301118166,3.4375,-2.9375,-1.3125
74301140740,3.25,-2.875,-0.875
74301163140,4.125,-3.0625,-1.1875
74301179618,4.6875,-2.8125,-1.1875
74301202070,2.375,-2.4375,-0.9375
74301224596,2.125,-1.9375,-1.125
74301238122,2.5,-1.8125,-1.125
74301260670,1.625,-1.6875,-0.9375
74301283102,1.9375,-1.875,-1.25
74301301059,2.6875,-2,-1.4375
74301320632,1.625,-2.625,-1.875
74301343115,2.375,-2.625,-1.8125
74301366365,3.5,-2.1875,-2.125
74301380695,2.6875,-2,-1.8125
74301403099,2.4375,-1.625,-1.5
74301426352,1.9375,-1.0625,-1.125
74301442124,-0.375,-0.3125,-0.5625
74301463155,-1.125,0.125,-0.8125
74301479530,-0.25,0.1875,-1.3125
74301500636,0.625,-0.0625,-1.4375
74301523153,-0.375,-0.125,-1.4375
74301539569,0.5,-0.0625,-1.375
74301568886,-0.1875,-0.3125,-1
74301583149,-0.5,-0.5625,-0.8125
74301599617,0.5,-1,-1.1875
74301620628,-0.3125,-0.4375,-1.0625
74301643166,-1.1875,-0.0625,-0.5
74301659589,-0.625,-0.0625,-0.5625
74301680618,-0.125,-0.3125,-0.875
74301711248,-1.125,-0.6875,-0.875
74301719590,-1.1875,-0.5,-0.8125
74301740602,-0.125,0.6875,-1.0625
74301763076,-0.3125,1.6875,-0.4375
74301779655,-0.6875,1.9375,-0.1875
74301800672,0.5,1.3125,-0.5625
74301823129,0.8125,0.5,-0.6875
74301839563,0.25,-0.125,-0.875
74301860712,-0.0625,0,-1.25
74301883159,-0.75,0.3125,-1
74301899666,0.1875,0.25,-0.6875
74301920662,0.5,0.25,-0.5625
74301943265,0.375,0.125,-0.4375
74301959562,-0.0625,0,-0.4375
74301980651,0.3125,-0.3125,-0.75
74302003112,0,-0.0625,-0.875
74302019552,-0.6875,0.0625,-0.6875
74302040683,-0.125,-0.125,-0.5625
74302063179,0.875,-0.3125,-0.5
74302079668,0.375,0,-0.3125
74302100667,0.0625,0,-0.375
74302123154,0.125,0.125,-0.625
74302139569,-0.25,0.1875,-0.4375
74302160716,0,-0.125,-0.5625
74302183208,0.3125,0.3125,-0.5625
74302199686,-0.4375,0.9375,0
74302220613,-0.0625,1,0.125
74302243223,0.5,0.875,0.125
74302267137,0.4375,0.375,0.1875
74302280673,-0.125,0.1875,-0.0625
74302303063,-0.1875,-0.0625,-0.125
74302319641,0,0,-0.25
74302342078,0,-0.1875,-0.25
74302363106,0.5,-0.0625,-0.3125
74302379619,0.6875,-0.3125,-0.4375
74302402065,0.5625,-0.125,-0.5
74302423222,-0.375,0.3125,-0.1875
74302439610,0.125,0.375,-0.1875
74302462154,0.4375,0.3125,0.0625
74302483155,0.0625,0.5,0.125
74302499616,-0.0625,0.75,0.1875
74302522091,-0.0625,0.5,0.1875
74302543225,-0.0625,0.375,0.0625
74302559632,0.125,-0.0625,0
74302582108,0.5,-0.5,-0.0625
74302603174,0.625,-0.8125,-0.0625
74302619606,0.75,-0.9375,-0.1875
74302642068,0.625,-0.875,-0.125
74302663166,0.6875,-0.75,-0.1875
74302679618,0.8125,-0.625,0
74302702131,0.625,-0.5625,0.125
74302723166,0.875,-0.5,0
74302739571,0.5625,0,0
74302762136,0,0.3125,0.3125
74302783176,0.5,0.4375,0.375
74302799638,0.4375,0.4375,0.4375
74302822178,1,-0.1875,0.6875
74302844681,1.5,-0.1875,0.5
74302859677,1.375,-0.125,0.1875
74302889576,0.3125,0.125,0.3125
74302903155,0.1875,0.3125,0.1875
74302919587,0.75,0.375,-0.125
74302942136,1.5625,0.5,-0.25
74302963217,1.4375,0.8125,-0.125
74302979676,1.25,1.25,0.0625
74303002086,1.25,1.5625,0.375
74303023238,1.125,2,0.5
74303039620,0.625,2.3125,0.8125
74303062153,0.1875,2.875,1.8125
74303083237,-0.125,3.9375,2.9375
74303099606,0.4375,5.1875,3.9375
74303122118,0.3125,6.3125,4.5
74303143135,-2,7.5,5.625
74303159604,-3.875,8.1875,7.125
74303182085,-4.5625,8.8125,7.8125
74303203187,-0.1875,8.5,7.125
74303219614,2.875,8.4375,5.375
74303242130,0.75,9.375,4.5
74303263289,-0.125,10.625,3.9375
74303279604,0.375,17,0.9375
74303302127,1,19.8125,1.75
74303324638,1.25,18.5,2
74303339725,1.25,13.3125,2.375
74303362177,0.5,10.625,2.25
74303384690,-0.875,9.4375,2
74303401090,-2.625,9.25,2.375
74303422091,-3.1875,8.8125,2.5625
74303446108,-1.5625,6.5625,1.9375
74303461125,-0.0625,4.375,1.375
74303482202,-1.4375,4.625,1.8125
74303504681,-5.5,7.25,2.625
74303521041,-5.5,9.375,2.625
74303542110,-1.875,9.8125,2.125
74303564668,-1.5,11,2.75
74303581158,-4.375,12.25,4.375
74303601459,-4.6875,14.375,6
74303623875,-5,16.8125,7.4375
74303639706,-2.3125,16.625,8.25
74303661367,-4.5625,17.75,9.5625
74303683862,-9.5,18.875,10.0625
74303706418,-8.4375,20.3125,10.5625
74303721356,-4.75,20.1875,10.0625
74303743873,-3.75,18.1875,9.125
74303766349,-8.5625,14.875,8.8125
74303781356,-8.5625,10.9375,7.1875
74303803864,-2.5625,8.0625,5
74303826461,1.4375,5.5625,3.3125
74303841397,-0.4375,3,1.9375
74303863942,-1.25,0.625,1.9375
74303886392,-1.4375,-0.5,1.875
74303901362,3.125,-1.25,1.4375
74303923938,3.5,-2.625,1.0625
74303939746,3.375,-5.5625,-0.1875
74303961474,4.5,-7.625,-1.5625
74303983918,4.625,-8.25,-2
74303999671,0.75,-8,-0.8125
74304021353,-2.0625,-7.0625,1.0625
74304043834,-2.0625,-6.75,2.0625
74304059611,-0.375,-7.375,2.125
74304081351,0.25,-6.1875,2.875
74304103866,-3.1875,-4.5,5.0625
74304119614,-4.125,-2.0625,7.625
74304141372,-6.8125,0.25,9.375
74304163844,-3.625,1.25,9.5
74304179597,-0.5,1.0625,8.125
74304201541,-0.8125,0.6875,7.3125
74304223819,-1.4375,0.125,6.8125
74304239558,-1.0625,1.1875,7.625
74304261319,-0.8125,2.375,8.5625
74304283833,-1.9375,3.5625,8.8125
74304299602,-3.625,4.5,8.5
74304321309,-6.1875,6.125,9.6875
74304343830,-2.1875,6.625,8.9375
74304359622,1.875,7.0625,7.6875
74304382788,2.8125,7,7.25
74304403837,-0.625,7.125,7.3125
74304419623,-0.125,5.3125,6.75
74304442739,3.0625,3.875,6.6875
74304463824,0.375,4.3125,5.5625
74304479626,-1.1875,4.375,5.6875
74304502836,0.25,2.4375,4.875
74304523847,3,-1,4.125
74304539622,6.6875,-4,2.75
74304562776,10.5625,-5.5625,1.4375
74304583821,7.6875,-4.625,2.625
74304599584,6.75,-4.9375,2.9375
74304622794,8.3125,-5,3.1875
74304643870,11,-7.0625,2.9375
74304659612,15.0625,-6.3125,2.125
74304682766,18,-4.5625,3.6875
74304703852,19.5625,-4.6875,4.1875
74304719603,23.1875,-0.125,1.4375
74304742768,22.4375,-2.75,0.375
74304763874,18,-6.5,2.375
74304779656,7.5,-7.4375,3.875
74304802778,5.75,-9.5625,3.4375
74304823843,8.4375,-12.625,1.6875
74304839676,1.9375,-13.5625,0.875
74304862763,-7.1875,-15.5,-0.1875
74304883855,-0.1875,-19.9375,0.1875
74304899632,6.6875,-22.0625,-0.5
74304922790,11.1875,-23.125,-0.3125
74304943843,9.5625,-24.625,3.125
74304959613,4.9375,-24.125,6.75
74304982770,1.9375,-24.5625,8.5
74305003796,5.375,-26.6875,7.5625
74305019652,6.0625,-27.375,7.5
74305042818,2.4375,-29.0625,8.3125
74305063904,2.5,-29.25,9.125
74305079662,3.1875,-25.9375,11.0625
74305102794,-1.125,-26.1875,12.0625
74305123848,-9.5,-26.0625,12.125
74305139614,-5.1875,-25.125,12.3125
74305162231,-8.8125,-17.1875,9.9375
74305183823,-14.75,-14.5625,8
74305199694,-5.3125,-16.125,7.5
74305222147,-0.625,-18.625,6.3125
74305243885,3.125,-21.3125,5
74305267778,7.25,-22.4375,5.0625
74305282115,5.25,-19.25,2.75
74305321660,2.5625,-16.5625,4.4375
74305326331,2,-16.0625,4.9375
74305342137,7.3125,-17.25,4.5
74305365270,6.8125,-17.875,2.625
74305387803,5.875,-18.4375,0.5625
74305410273,5.25,-20.25,-1.875
74305425282,-8.5625,-11.9375,2.125
74305440068,-21.75,-3.75,4.6875
74305462650,-11.375,-7.4375,5.75
74305485350,-14,-4.875,6.6875
74305499620,-18.125,-1.6875,7.375
74305522126,-8.6875,-3.625,6.8125
74305551346,-12.4375,-2.0625,6.5625
74305559677,-9.3125,-4.4375,5.3125
74305582186,-4.625,-8.375,4
74305605374,-0.6875,-10.4375,2.125
74305620195,0.0625,-11.9375,0.5625
74305642171,2.8125,-13.6875,-0.5625
74305665325,4.5,-15.5,-1.25
74305687905,6,-16.4375,-1.625
74305708985,9.125,-14.8125,-2.1875
74305756643,7.1875,-8.9375,-1.625
74305798772,1.3125,-3.8125,0
74305854963,-19.875,7.3125,1
74305876659,-12.3125,7.875,2.875
74305881987,2.5625,1.625,-0.625
74305899277,4.9375,1.125,-0.125
74305921020,-2.9375,3.875,0.1875
74305942784,-4.5,3.625,0.6875
74305945136,-18.375,7.1875,-1
74305966842,-10.4375,4.3125,-1.125
74305988384,-4,1.3125,-1.875
74306002741,-0.625,-1.6875,-2
74306025869,2.3125,-3.4375,-1.9375
74306047869,-0.375,-2,-1.3125
74306062248,-1.1875,-1.875,-0.6875
74306085416,0.5625,-3.125,-1.0625
74306107849,3.125,-3.8125,-1.0625
74306130362,3.5625,-4.25,-0.625
74306152802,3.5625,-6,-0.9375
74306205926,7,-6.25,-2.25
74306208307,10.6875,-5.75,-2.5
74306221862,11.4375,-5.875,-3.3125
74306233644,10.375,-6.8125,-4.75
74306243679,9.75,-7.875,-6.25
74306264710,8.9375,-7.375,-6.3125
74306287918,8.875,-8.625,-6.6875
74306302152,9.875,-9.1875,-6.5
74306324752,9,-8.5,-5.875
74306347878,6,-9.6875,-5.8125
74306362200,4.1875,-11.25,-6.1875
74306384714,4.3125,-10.6875,-6.25
74306407890,4.125,-10,-6.0625
74306422258,3.3125,-8.9375,-4.75
74306444682,2.5625,-9,-3.625
74306467899,3.4375,-8,-3
74306482227,2.6875,-7.25,-2
74306504754,1.625,-6.9375,-2.8125
74306527855,0.5,-5.3125,-1.6875
74306542200,-0.5,-4.75,-0.1875
74306564702,0.125,-3.3125,0.125
74306587843,-0.4375,-2.875,-0.3125
74306602140,-0.3125,-2.0625,-1.25
74306624708,0.5625,0.1875,-1
74306647872,0.5,0.75,-1.1875
74306662243,-0.375,-1.0625,-2.625
74306684708,0.0625,-2.0625,-2.875
74306707865,0.75,-2.625,-3.4375
74306722230,0.5625,-1.9375,-4.3125
74306744692,-1.0625,-1,-3.75
74306767881,-1.4375,0.5,-2.6875
74306788896,-1.0625,1.4375,-0.25
74306804687,-0.5625,0.4375,2.125
74306827903,-1.5625,-0.75,2.625
74306848927,-2.1875,-1.3125,1.6875
74306864687,-1.5,-1.25,0.625
74306895427,1.25,-2.9375,0.375
74306916459,4,-4.625,0.0625
74306924672,4.8125,-7.0625,-1.25
74306947911,4.125,-8.375,-4.5
74306968970,3.5625,-8.3125,-4.3125
74306984723,3.8125,-7.5,-3.1875
74307007882,4.375,-7.4375,-0.9375
74307030397,-5.6875,-5.5,1.6875
74307052854,-10.0625,-1.1875,2.1875
74307067224,-3.8125,-2.25,0.125
74307088700,-0.0625,-2.375,-1.25
74307104690,1.875,-1.375,-1.375
74307127227,2.4375,-1,-2.0625
74307148932,-21.1875,4.1875,-0.9375
74307164678,-56.875,22.9375,4.5
74307178277,-37.625,24.9375,7.0625
74307200792,-13.4375,11.8125,3.4375
74307223952,-4.6875,5.0625,1.9375
74307238326,-0.5,1.8125,0.875
74307260873,-0.4375,1.375,1.125
74307283957,-6.875,4.625,2.0625
74307298298,-16.5,11.625,2.5625
74307320705,-8.625,7,1.0625
74307343998,-2.75,4.5,0.25
74307358290,0.0625,2.625,0.4375
74307389632,1.5,1.4375,0.5
74307404006,2.5,-0.1875,0.875
74307418308,3.625,-3.4375,0.5
74307442229,4.625,-5.125,-0.5625
74307464001,7.8125,-6.5625,-2.0625
74307478323,12.4375,-6.25,-1.375
74307500759,3.1875,-0.3125,-1.3125
74307523979,-5.9375,4.4375,-1
74307538282,-2.25,4.1875,-0.4375
74307560814,0.5,3,-0.3125
74307583904,1.1875,1.9375,0.1875
74307598306,1.6875,0.6875,-0.3125
74307620794,3.875,-0.75,-0.8125
74307643993,5,-1.8125,-1.3125
74307658303,8.125,-4,-2.625
74307680847,13.5,-6.4375,-2.4375
74307703910,17,-7.3125,-2.3125
74307718278,18.3125,-7.375,-1.5625
74307740803,17.25,-7.1875,-1.4375
74307763924,16.8125,-7.3125,-1.875
74307778356,10.125,-3.9375,-1.25
74307800702,6.5,-2.125,-0.5
74307823989,5.6875,-2.625,-1.5625
74307838217,5.25,-2.9375,-3
74307860748,4.625,-2.4375,-2.8125
74307883935,4.5,-2.8125,-3.3125
74307907941,5.125,-3.625,-3.9375
74307920898,5.6875,-3,-3.5
74307943966,4.5,-1.0625,-2.875
74307966434,3.8125,0.5625,-2.6875
74307980852,3.25,1.125,-2.5625
74308003925,3.125,0.75,-3.0625
74308018314,3.375,0.75,-2.625
74308040828,2.25,-0.4375,-1.8125
74308063942,1.125,-1.3125,-1.5
74308078293,0.4375,-2.125,-0.6875
74308100809,0.75,-3.3125,-0.75
74308123304,0.9375,-3.375,-0.25
74308138310,0.875,-3.1875,-0.6875
74308160823,1.0625,-2.625,-0.75
74308184711,0.125,-2.0625,-0.125
74308198296,-0.4375,-2.9375,-0.6875
74308220775,-0.375,-2.3125,-1.3125
74308260915,-0.125,-0.9375,-0.625
74308276720,-0.125,-0.3125,-0.4375
74308280864,-0.125,-0.25,-0.5625
74308337537,0,-0.75,-1.0625
74308342913,0.25,-0.6875,-0.4375
74308343722,0.3125,-0.5625,0.25
74308372189,0.5,-1.125,0.0625
74308378305,0.5,-1.125,0.3125
74308400790,0.25,-0.8125,0.625
74308423319,0.5,-0.9375,0.0625
74308441194,0.8125,-1,-0.25
74308462260,-1.0625,-0.25,0.375
74308486206,-1,0,0.5
74308532547,-0.1875,0.125,0.75
74308554240,0.5,0.25,0.875
74308568511,0.5,0.1875,0.9375
74308570831,1,0.1875,1.125
74308615084,1.25,-0.25,1.3125
74308629334,1.125,-0.625,1.1875
74308630925,1.25,-0.6875,1.1875
74308649013,1.875,-0.625,0.6875
74308672125,1.375,-1.125,-0.0625
74308678320,0.3125,-1,-0.5
74308700718,0.1875,-0.3125,0.5
74308723318,0.125,0.125,0.6875
74308738353,0.1875,0,0.6875
74308760761,0.5,0,0.375
74308786225,0.4375,0.125,0.25
74308846778,-0.0625,-0.25,-0.1875
74308868391,-0.25,-1.125,-0.4375
74308891753,0.375,-0.8125,-0.0625
74308897185,0.625,-1,-0.3125
74308903288,0.25,-1,-0.6875
74308926459,0.4375,-0.625,-0.6875
74308940792,0.5,-0.4375,-0.6875
74308971488,0.1875,-1,-0.8125
74308996152,-0.0625,-1.6875,-1.5
74309000835,0.5,-1.25,-1.4375
74309023318,0.625,-0.6875,-1.125
74309039801,0.4375,-0.8125,-1.3125
74309062284,0.625,-1,-0.9375
74309110095,0.375,-0.625,-0.3125
74309124188,0.3125,-0.5625,-0.375
74309145384,0.1875,-0.75,-0.5
74309147736,0.375,-1.0625,-0.9375
74309167249,0.625,-0.8125,-0.875
74309180867,0.25,-0.5,-0.3125
74309203315,0,-1.0625,-0.3125
74309225866,-0.0625,-1.3125,0.125
74309249083,0.1875,-1.3125,1.3125
74309263378,0,-1.5625,1.375
74309279749,0.625,-1.375,1.4375
74309300807,1.0625,-0.9375,1.625
74309324741,1.3125,-0.25,1.375
74309341213,0.8125,0.6875,1.625
74309363732,0.6875,1,1.625
74309402278,0.9375,1.0625,2.375
74309422864,0.9375,0.5625,2.4375
74309425247,1.25,0.3125,1.9375
74309444734,1.25,0.3125,1.5625
74309461175,0.9375,0.1875,1.125
74309480860,0.5625,-0.125,0.875
74309503303,0.625,0.5,1.25
74309519803,-3.875,1.875,1.875
74309549028,-12.75,2.9375,2.5625
74309563360,-8.625,2.6875,2.1875
74309579779,-4.375,2.3125,1.9375
74309600792,-4.25,2.25,1.6875
74309641833,-1.4375,1.8125,1.25
74309662808,0.8125,0.75,1
74309678338,0.8125,0.5625,0.9375
74309701749,0.75,0.6875,0.75
74309722604,1.625,0,0.1875
74309737138,0.625,-0.125,-0.5
74309743330,-5.3125,1.5,-1.4375
74309759808,-3.8125,1.8125,-0.9375
74309780844,-2.6875,1.5,-1
74309804757,-0.75,0.8125,-0.6875
74309819759,0.125,0.3125,-0.5625
74309843713,0.3125,-0.125,-0.375
74309871508,1.5625,-0.125,-0.6875
74309894051,2.8125,0.1875,-0.5625
74309918619,4.3125,-0.3125,-0.6875
74309940387,5.375,-0.9375,-0.6875
74309942731,5.875,-1.6875,-1.0625
74309977184,5.9375,-2,-1.375
74309983346,5.3125,-2.25,-1.3125
74310001187,4.5,-1.625,-1.0625
74310022178,3.75,-1,-0.75
74310043273,2.875,-1.125,-1
74310059721,2,-1.125,-1
74310082185,1.6875,-1.75,-1.8125
74310103360,1.125,-1.9375,-2.25
74310119730,1,-2.5625,-1.5625
74310142277,1.0625,-2.3125,-1.125
74310171504,0.3125,-2.125,-0.4375
74310179791,0.375,-1.9375,-0.3125
74310208370,0.25,-2.25,-1.0625
74310223374,0.375,-1.875,-1.625
74310239806,-0.0625,-1.375,-1.1875
74310262333,0.5,-1.5625,-0.6875
74310283384,0.8125,-1,0.125
74310299788,0.25,-1.375,0.5
74310322280,-0.375,-1.5,0.75
74310351328,-0.5,-1.5,0.6875
74310361242,-0.1875,-1.4375,0.3125
74310382265,-0.1875,-1.5,0.0625
74310403346,0.375,-0.875,0.3125
74310419801,0.3125,-0.75,0.25
74310442289,0.0625,-1,0.1875
74310466235,0,-1.5,0.1875
74310479788,0.3125,-0.9375,0.375
74310502259,0.25,-0.625,0.5
74310523360,0.4375,-0.5,0.375
74310539830,0.25,-0.875,0.5
74310562266,-0.125,-0.8125,0.1875
74310583334,0.25,-0.3125,0.3125
74310599825,-0.125,0.1875,0.9375
74310622233,-0.3125,0.0625,1.3125
74310643304,-0.1875,-0.9375,1.5
74310659805,-0.0625,-2.0625,0.75
74310682258,-0.125,-1.875,0.6875
74310703272,-0.625,-2.0625,-0.3125
74310719808,-0.5,-2.4375,-0.8125
74310742315,-0.0625,-2.0625,-1.0625
74310763339,-0.4375,-0.375,-0.25
74310778987,-1.875,1.5,0.1875
74310801495,-2.125,1.1875,-0.25
74310824082,-1.4375,0.5625,-0.8125
74310839000,-0.1875,-0.5625,-1.4375
74310861538,1.0625,-1.4375,-1.6875
74310884113,0.25,-1.1875,-1.4375
74310899037,0.1875,-1.5,-1.3125
74310921520,0.5,-1,-1.1875
74310944040,0.5,-1.4375,-1.4375
74310959063,1.3125,-1,-2.0625
74310981493,1.75,1.125,-1.375
74311004000,0.5,2.5,-0.9375
74311020508,-6.3125,3.8125,-0.25
74311041542,-5,2.75,-0.0625
74311063980,-2.25,1.5,-0.375
74311080414,-0.25,0.375,-1.1875
74311101532,1,-0.3125,-1.6875
74311124032,2.1875,-1,-2.625
74311140431,-0.6875,-0.1875,-3.0625
74311161505,-0.6875,-0.25,-2.5625
74311183872,0.5625,-1,-1.625
74311200474,1.125,-1,-0.6875
74311221561,1.375,-1.625,-0.625
74311244009,1,-1.125,-0.625
74311260498,1.4375,-0.875,-0.4375
74311281532,-0.6875,0,-0.6875
74311304026,-6.125,1.4375,-0.1875
74311320479,-4.3125,1.375,0
74311341513,-2,0.125,-0.0625
74311364213,0.0625,-0.6875,-0.375
74311380458,1.625,-1,-0.6875
74311401534,2,-1.25,-0.75
74311424063,2.375,-1.8125,-1.3125
74311440460,3,-2.3125,-2.5
74311461527,4.25,-1.8125,-2
74311491533,5.75,-1.5625,-1.75
74311500491,6.375,-1.75,-1.25
74311521560,5,-1.625,-0.6875
74311544034,3.375,-1.375,-0.5
74311560450,2.1875,-1.0625,-0.1875
74311581535,1.0625,-1.5625,-0.625
74311604018,1.125,-1.8125,-1.3125
74311620475,1.75,-1.6875,-1.75
74311641565,1.75,-1,-1.4375
74311664099,1.4375,-0.125,-0.75
74311680512,1.0625,0.0625,-0.1875
74311701510,0.9375,-0.125,0.375
74311724037,0.5,-0.5,0.3125
74311740481,0.1875,-0.5,0.375
74311761562,0.1875,-0.0625,0.25
74311784113,0.1875,-0.0625,0.125
74311799813,-0.4375,-0.625,0
74311821538,-0.5625,-0.9375,-0.25
74311845506,0.125,-0.5,-0.1875
74311859837,0.0625,-0.6875,-0.25
74311881493,0.4375,-0.8125,-0.3125
74311904076,0.5,-0.75,0.0625
74311919795,0.4375,-0.75,-0.125
74311942895,0.375,-0.6875,-0.25
74311964057,0.5625,-0.75,-1
74311979863,0.6875,-0.375,-1.5625
74312003008,1,0.0625,-1.625
74312024092,0.6875,0.1875,-1.25
74312039880,0.4375,0.25,-0.375
74312063011,0.0625,0.1875,0.25
74312083954,0,-0.25,0.25
74312099800,-0.0625,0,-0.1875
74312123008,0.5,0.0625,-0.625
74312144094,0.8125,0.1875,-0.6875
74312159810,0.75,-0.3125,-0.625
74312183009,0.5,-0.4375,0.0625
74312204032,0.125,-0.4375,0.6875
74312219823,0.375,-0.6875,0.8125
74312242934,0.25,-0.5625,1.0625
74312264011,0.0625,-0.5625,1.0625
74312279877,0.4375,-0.5625,0.8125
74312302977,0.375,-0.0625,0.625
74312340380,0,0.1875,1.0625
74312342750,0.125,0.3125,1.625
74312362958,0.1875,0.0625,1.8125
74312384063,0.4375,0.0625,1.4375
74312407961,0.3125,0.3125,0.9375
74312423013,0.125,0.0625,0.5625
74312444076,0,-0.375,0.25
74312459805,0.625,-0.5,0
74312482964,0.6875,-0.5625,0.4375
74312504013,0.625,-0.5,0.4375
74312519800,0.5,-1.1875,-0.0625
74312542980,0.5,-1.5625,-0.5
74312564060,0.375,-1.4375,-0.5
74312579844,0.625,-1.9375,-0.375
74312603074,0.5,-1.75,-0.125
74312624018,0.75,-1.1875,0.375
74312639815,0.6875,-0.375,0.6875
74312662922,0.4375,0.25,0.625
74312684031,0.375,0.25,0.8125
74312699787,0.25,-0.0625,0.6875
74312722980,0.25,-0.4375,0.1875
74312744088,0.6875,-0.8125,-0.375
74312759857,0.625,-0.75,0
74312782304,0.4375,-1.1875,-0.0625
74312804130,0.375,-1.375,0.1875
74312819857,0.5,-1.875,0.0625
74312842360,0.625,-1.375,0.1875
74312865474,1.125,-0.875,0.3125
74312879836,0.625,0,0.6875
74312902321,0.4375,0,1.0625
74312925450,0.5,0.0625,1.0625
74312939813,0.6875,-0.125,1
74312970461,0.375,0.125,1.0625
74312985503,0.4375,-0.0625,0.8125
74312999852,-0.25,-0.125,1.25
74313022334,-0.5625,-0.8125,0.8125
74313045542,-0.0625,-1.1875,0.625
74313059780,0,-1.0625,0.5625
74313082296,0.375,-0.5,0.625
74313105429,0.75,-0.0625,0.5625
74313119848,0.6875,-0.1875,0.9375
74313142342,0.25,0.1875,1.3125
74313165570,0.125,0.3125,1.5625
74313179823,0.25,-0.125,1
74313202317,0.5625,-0.5,0.9375
74313225412,0.5,-0.625,0.5625
74313239822,0.25,-0.6875,0.9375
74313262341,0.3125,-1,0.5
74313285476,0.625,-0.6875,0.4375
74313299859,0.0625,-0.1875,0.6875
74313322320,0.0625,0.125,0.8125
74313345471,0.5,0.125,0.8125
74313366530,0.25,0.5625,1
74313382387,-0.3125,0.625,1
74313405304,0.0625,0.1875,0.25
74313426316,-0.0625,0.1875,0.625
74313442292,-1.1875,0.1875,0.4375
74313465523,-1,0.1875,0.625
74313486556,-0.75,-0.375,0.3125
74313502318,0.0625,-0.4375,0.5
74313525493,0.5,-0.5,0.5625
74313546616,0.625,-0.0625,0.625
74313562314,0.625,-0.1875,0.5
74313585495,0.6875,-0.125,0.1875
74313606541,1.0625,-0.5625,0.125
74313622309,0.375,0,0.0625
74313645563,0.25,0.0625,0.25
74313666505,0.5,0.1875,0.25
74313682332,0.875,0,0.25
74313704856,0.5,0.375,0.375
74313726982,0,0.5,0.4375
74313742337,0.25,0.0625,0.25
74313764869,0.5625,-0.25,0.125
74313786510,0.625,-0.375,0.0625
74313802264,0.5,-0.4375,-0.4375
74313824862,0.6875,-0.3125,-0.5625
74313848159,0.5625,-0.1875,-0.25
74313862348,0.625,-0.375,-0.1875
74313884852,0.6875,-0.8125,-0.5625
74313908503,1,-1,-0.6875
74313922351,0.8125,-0.5625,-0.5625
74313944823,0.9375,-0.5625,-0.375
74313968020,0.9375,-0.6875,-0.125
74313982359,0.875,-0.9375,0.1875
74314004822,0.5,-0.9375,0.3125
74314027964,0.5,-1.4375,-0.3125
74314042307,0.6875,-0.9375,0
74314064855,0.75,-0.625,0.3125
74314087960,0.5,-0.5,0
74314102351,0.5,-0.5625,0.125
74314124871,0.3125,-0.5,0.5
74314148068,0.5,-0.875,0.5625
74314162312,0.5625,-0.6875,0.6875
74314184836,0.4375,-0.6875,0.625
74314209478,0.5,-0.75,0.4375
74314222358,-0.4375,-0.5,0.1875
74314244822,-0.25,-0.4375,0
74314268069,-0.0625,-0.6875,0.25
74314282436,-0.0625,-0.8125,0.4375
74314304801,0.3125,-0.9375,0.5
74314328036,-0.125,-1.125,0.3125
74314349056,0.1875,-1.1875,0.0625
74314364094,0.3125,-1.125,-0.25
74314378374,0.125,-0.4375,-0.125
74314400939,-0.625,0.0625,0
74314424171,-0.375,0.125,0.125
74314438433,0,0.375,0.125
74314461011,-0.0625,0.625,0.125
74314484124,0.1875,0.375,-0.1875
74314498429,0.0625,0.6875,-0.125
74314520891,0.125,1,-0.125
74314544066,0.125,1.3125,-0.125
74314558474,0.5,0.875,-0.4375
74314580891,0.5625,0.8125,-0.625
74314604058,0.25,0.25,-0.6875
74314618414,0.1875,-0.25,-0.6875
74314640912,0.1875,-0.1875,-0.75
74314664128,0.3125,-0.125,-0.6875
74314678441,0.3125,-0.0625,-0.625
74314700934,0.1875,-0.75,-0.8125
74314724128,0.5,-0.625,-1.0625
74314738369,0.25,-0.625,-1.1875
74314760969,0.25,-0.5625,-1
74314784082,0.125,-0.625,-0.875
74314798454,0.1875,-0.5625,-0.875
74314820927,0.625,-0.25,-0.875
74314844099,0.375,-0.0625,-1
74314859934,0.375,-0.0625,-1.5
74314880872,0.625,0.1875,-1.5
74314904079,0.3125,0,-1.3125
74314918416,0.25,-0.4375,-1.0625
74314949800,0.375,-0.0625,-0.8125
74314964179,0.4375,0.0625,-0.6875
74314978466,0.5,0.0625,-0.6875
74315000905,0.375,-0.3125,-0.6875
74315024136,0.5,-0.875,-0.5625
74315038345,0.5625,-0.8125,-0.5
74315060944,0.5,-0.5625,-0.3125
74315084145,0.5,-0.4375,-0.1875
74315098450,0.4375,-0.1875,0
74315120977,0.0625,-0.5625,-0.4375
74315144173,0,-0.6875,-0.4375
74315158354,0.25,-0.5,-0.0625
74315180986,0.1875,0.0625,0.0625
74315204140,0.3125,0.0625,0.125
74315218493,0.1875,0.625,0.4375
74315240961,0.125,0.5,0.375
74315264150,0.4375,0,0.1875
74315286665,0.1875,0,0.4375
74315300930,0.4375,-0.875,0.25
74315324191,0.5,-0.9375,0.375
74315338460,0.3125,-0.75,0.3125
74315360919,0.25,-0.3125,0.625
74315384134,0.3125,-0.5,0.5625
74315398514,0.5,-0.625,0.6875
74315421579,0.375,-0.125,0.8125
74315444144,0.0625,0.5625,0.8125
74315458508,0.125,0.25,0.375
74315481001,0.25,0.1875,0.375
74315504135,0.3125,0.125,0.75
74315518468,0.1875,-0.125,1.125
74315540919,0.25,-0.1875,0.9375
74315564110,0.5,-0.4375,0.4375
74315578418,-0.125,0.25,0.4375
74315600950,-2,0.4375,0.625
74315624174,-1.375,0.125,0.5625
74315638503,-0.75,0.125,0.6875
74315660999,-0.3125,0.3125,0.8125
74315684113,0.125,0.125,0.625
74315698347,0.3125,-0.0625,0.25
74315720928,-0.5,0.1875,0.1875
74315743509,0.125,0.0625,0.1875
74315758458,-3.875,0.125,0.0625
74315780991,-3.6875,0.375,0.4375
74315803499,-2.0625,0.25,0.0625
74315818392,-0.75,-0.25,-0.1875
74315840910,-0.5625,-0.0625,-0.375
74315863491,-0.75,0.375,-0.25
74315886669,0,0.4375,-0.0625
74315909128,-0.25,0.375,0.0625
74315923435,0.0625,0.0625,0
74315938467,0.5,-0.1875,-0.125
74315960965,0.75,-0.5625,-0.1875
74315983532,1.1875,-0.875,-0.4375
74315998479,1.875,-1.125,-0.5
74316020890,2,-1.125,-0.3125
74316043444,2,-1.1875,-0.25
74316058467,2.25,-1.5625,-0.4375
74316080961,2.8125,-1.375,-0.375
74316103452,2.875,-1,0.125
74316118425,1.6875,-0.875,0
74316142438,1.25,-1.0625,-0.25
74316163435,1.3125,-1.125,-1.3125
74316178470,1.5625,-1.6875,-2.375
74316200938,1,-0.875,-1.3125
74316223451,0.9375,-0.75,-0.875
74316238446,0.9375,-1.125,-0.8125
74316260898,0.625,-0.75,-0.5
74316283436,0.25,-1.25,-1.625
74316298382,0.8125,-1,-1.4375
74316320920,1.25,-0.6875,-0.9375
74316343444,1.25,-0.625,-0.625
74316358404,0.8125,-0.4375,-0.4375
74316380888,0.625,-0.4375,-0.25
74316403435,0.5625,-0.3125,-0.0625
74316418421,0.25,-0.875,0.0625
74316440960,0.5625,-0.8125,0.125
74316463446,0.5,-0.5,0.1875
74316478400,0.4375,-0.375,0.3125
74316500895,0.5,-0.5625,0.125
74316523433,0.1875,-1,-0.125
74316539867,0.5,-0.5625,0.125
74316560937,0.4375,-0.6875,0.5
74316577314,0.25,-1,0.5625
74316599902,0.0625,-0.8125,0.875
74316620863,0.25,-0.8125,1.0625
74316637364,-0.1875,-0.5625,1.0625
74316659819,-0.375,-0.75,0.875
74316680931,-0.6875,-0.8125,0.5
74316697313,-0.625,-0.25,0.8125
74316719815,-0.5625,0.5625,0.9375
74316740947,-0.375,0.875,1.125
74316764897,-0.5,0.4375,1
74316779881,-0.125,-0.125,0.6875
74316800940,0.0625,-0.4375,0.1875
74316817376,0.1875,-0.6875,-0.125
74316839899,0.375,-1,-0.5625
74316862376,0.4375,-1.3125,-0.3125
74316877387,0.5,-1.125,-0.3125
74316899866,0.1875,-1.5625,-0.625
74316920942,0.3125,-1.5625,-0.875
74316937401,0.1875,-1.4375,-1.125
74316959876,0.1875,-1.1875,-1.375
74316980926,-0.1875,-0.4375,-1
74316997344,-0.5,-0.1875,-1
74317019836,-0.6875,-1.375,-2
74317043844,-0.3125,-1.8125,-2.3125
74317057386,-0.375,-1.4375,-2
74317079875,-0.375,-2.0625,-2.125
74317100913,0.3125,-2.9375,-1.75
74317123461,0.1875,-2.75,-1
74317139853,-0.375,-2.9375,-0.5625
74317160964,0.0625,-3.4375,-0.9375
74317177366,0.3125,-3,-0.8125
74317199832,0.375,-2.0625,-0.6875
74317220943,0.4375,-1.5,-0.375
74317237321,0.375,-1.5,0.3125
74317259903,0.1875,-1.375,0.5625
74317280945,-0.0625,-1.3125,0.25
74317297424,-0.125,-0.75,-0.25
74317321347,-0.3125,0,0.1875
74317340909,-0.125,-0.4375,-0.1875
74317357406,0.25,-0.375,-0.0625
74317379897,-0.125,-0.6875,-0.1875
74317400905,0.1875,-0.8125,-0.625
74317417367,0.0625,-1.3125,-0.4375
74317439901,0.125,-1.375,-0.3125
74317462373,0.125,-1.125,-0.125
74317477337,-0.125,-1.625,-0.6875
74317499839,-0.0625,-1.4375,-1.4375
74317522456,-0.3125,-1.0625,-1.4375
74317537389,-0.3125,-1.125,-1.3125
74317559978,-0.1875,-1,-1
74317582416,-0.75,-0.875,-0.75
74317598876,-0.375,-1.25,-1.1875
74317619971,0,-1.4375,-2.0625
74317642460,0.5,-1.625,-2.1875
74317658870,0.1875,-1,-1.75
74317679951,0.0625,-1,-1.6875
74317702438,0.0625,-0.9375,-1.4375
74317718921,-0.25,-0.9375,-1.375
74317739921,-0.0625,-0.5625,-1.6875
74317762404,0.0625,-0.25,-1.6875
74317778864,0.25,0.125,-1.25
74317799933,0.1875,-0.0625,-1.1875
74317822410,-0.125,-0.875,-1.125
74317838930,-0.1875,-1.4375,-1.25
74317859919,-0.1875,-2.125,-1
74317882417,0.125,-2.375,-1.4375
74317898918,0.0625,-2.1875,-1.9375
74317919956,0.5,-1.875,-1.3125
74317941647,0.75,-1.25,-0.9375
74317964215,0.5,-1.4375,-0.6875
74317979187,0.25,-1.0625,-0.3125
74318001667,0,-1.1875,-0.0625
74318024157,0.125,-1.0625,0.125
74318039174,-0.25,-1,-0.0625
74318061653,-0.0625,-1,-0.5
74318084162,0.3125,-1.3125,-0.5625
74318099257,0.5625,-1.4375,-0.625
74318121662,0.625,-1.1875,0.125
74318144160,0.5,-0.875,0.6875
74318159229,0.5625,-1.375,0.3125
74318181702,0.5,-1.125,0.1875
74318204154,0.0625,-0.625,0.1875
74318219159,-0.375,-1.0625,0.1875
74318241657,0.125,-0.375,-0.1875
74318264169,0,0.75,0.5625
74318279183,0.1875,1.1875,0.75
74318301681,0.0625,1.1875,0.875
74318324164,0.125,0.8125,1.125
74318339164,0.375,0.4375,0.9375
74318361672,0.5,-0.1875,0.4375
74318384159,0.5,-0.875,0.375
74318398911,0.625,-1.125,0
74318421422,0.75,-1.0625,0.25
74318444162,0.6875,-1.0625,0.25
74318459223,0.4375,-0.8125,0.25
74318481695,0.25,-0.75,0.3125
74318504177,0.5,-0.3125,0.5625
74318519165,0.0625,0.6875,0.8125
74318541690,0.0625,0.625,0.8125
74318565601,0.125,0.125,0.375
74318580625,0.1875,-0.0625,-0.125
74318601641,0.0625,-0.3125,-0.4375
74318617515,0,-0.625,-0.5
74318640608,0.1875,-0.4375,-0.25
74318661679,0.4375,-0.625,-0.375
74318677413,0.25,-0.6875,-0.5625
74318700668,0.1875,-0.9375,-1.125
74318721694,0.5625,-0.625,-0.6875
74318737485,0.4375,-0.5,-0.25
74318760626,0.25,-0.5625,-0.1875
74318789219,0.3125,-0.5625,-0.125
74318797485,0.125,-0.1875,0.125
74318820614,0,-0.4375,-0.5
74318841665,-0.125,-0.8125,-0.8125
74318857444,0.375,-0.6875,-0.6875
74318880626,0.5,-0.5625,-0.0625
74318903132,0.4375,-0.75,0.1875
74318917504,0.25,-0.75,0.25
74318940601,-0.0625,-0.875,-0.125
74318963087,-0.25,-0.625,-0.25
74318985667,-0.125,0.0625,0.125
74319000597,-0.125,-0.375,0.1875
74319021705,0.125,-0.9375,0.125
74319044177,0,-0.9375,-0.1875
74319060567,-0.1875,-1.625,-0.6875
74319081750,0.0625,-1.75,-0.875
74319097503,0.25,-2.0625,-0.75
74319120623,0.125,-1.5625,-0.6875
74319141681,0.0625,-1.25,-0.625
74319157489,-0.1875,-0.625,-0.4375
74319180625,-0.4375,-0.8125,-0.5625
74319201585,-0.1875,-0.375,-0.375
74319217451,-0.125,0.25,0.25
74319240656,-0.25,0.25,0.75
74319261665,-0.0625,0.375,0.5625
74319277396,0.125,0.25,0.875
74319300640,0.375,0.25,0.6875
74319321664,0.5625,0.1875,0.875
74319337416,0.875,0.75,1.4375
74319361128,0.6875,0.6875,1.5
74319381693,0.375,0.4375,1.125
74319397476,-0.0625,0.5625,0.875
74319419963,0.0625,0.625,0.8125
74319441685,0.5625,0.9375,1.0625
74319457431,1,1.375,0.6875
74319488179,0.6875,2.875,0.9375
74319503153,0.8125,3.125,1.625
74319517467,1.125,2.4375,1.375
74319539945,0.875,2.0625,0.6875
74319563102,0,2.75,1.25
74319577476,0.9375,4.0625,2.625
74319599910,2.5,4.4375,3.5625
74319623179,1.3125,4.75,4.25
74319637465,0.25,4.1875,3.75
74319659941,-2,4.75,5.8125
74319683088,-2.0625,4.8125,5.625
74319697459,-2.375,5.0625,5.125
74319719950,-1.125,6.4375,4.75
74319750580,1.125,7,2.875
74319757425,3.1875,8.6875,1.375
74319780008,2.625,9,-0.25
74319803153,2.5,7.375,-1.25
74319817473,1.5625,5.3125,-2
74319839957,2.875,4.75,-3.5
74319863128,3.25,5.5,-4.375
74319877501,2.625,6.5625,-5.75
74319899952,3.375,7.125,-6.6875
74319923154,5.5625,8.125,-7.25
74319937405,5.1875,9.4375,-3.75
74319959937,1.6875,10.25,-1.6875
74319983105,1.6875,10.4375,-1.25
74320004212,-0.125,9.4375,-1.25
74320020010,0.4375,9.75,-1.75
74320043095,3.125,9.25,-3
74320071698,-3.4375,11.125,-1.625
74320079981,-4.3125,14,-0.5625
74320103134,-2.25,13.3125,-3.6875
74320124207,-0.9375,14.5625,-4.3125
74320140013,3.5,11.9375,-3.75
74320163177,-2.0625,12.25,-3.3125
74320184240,-5.5625,12.375,-2.1875
74320199986,-20.0625,16,-1.4375
74320223112,-11.125,13.1875,-2.9375
74320244219,-5.75,9.375,-4.8125
74320260034,-3.875,5.1875,-6.375
74320283202,-2.0625,3.9375,-8.125
74320305631,-0.75,4.8125,-9.1875
74320320016,-4.5,10.1875,-8.5
74320342440,-6.125,13.125,-6.125
74320364191,-13.9375,17.5,-4.1875
74320379971,-35.875,31.875,-2.9375
74320402479,-22,24.5,-3.4375
74320424224,-13.25,17.875,-4.0625
74320440033,-8.1875,14.6875,-4.875
74320462487,-7.6875,11.625,-5.375
74320485675,-6.75,9.3125,-5.1875
74320499994,-7.5,7.375,-5.8125
74320522501,-6.375,5.9375,-6.5625
74320545658,-4.3125,5.5625,-6.6875
74320559971,-4.0625,4.375,-6.25
74320582500,-3.125,4.625,-6.125
74320605603,-4.625,3.4375,-6.6875
74320619979,-7.9375,3.6875,-6.375
74320642499,-7.3125,1.6875,-6.8125
74320665635,-7.8125,0.3125,-6.8125
74320679926,-6.875,-1.0625,-7.125
74320702493,-6.3125,-2.125,-6.8125
74320725669,-2.25,-3.625,-8.1875
74320740037,1.125,-6,-9.1875
74320770662,5.25,-8.0625,-10
74320785634,11.75,-12.875,-12.125
74320814225,13.75,-14,-12.4375
74320822540,13.25,-15.0625,-11.75
74320845603,13.25,-15.5625,-11.5625
74320866716,13.5625,-14.4375,-13.125
74320882515,11.5625,-14,-13
74320905595,6.875,-13.8125,-12.6875
74320926683,5,-11.875,-10.6875
74320942527,4.75,-11.4375,-10.25
74320965594,3,-11.6875,-9.3125
74320986721,-1.0625,-10.4375,-8.3125
74321002469,-1.75,-9.25,-6.875
74321025565,-2.0625,-7.5,-5.75
74321048167,-2.25,-6.5,-5
74321062553,0.25,-5.4375,-5.125
74321085642,1,-2.5,-4.125
74321106751,-0.375,-1.8125,-2.8125
74321122464,-20.625,2.125,0.3125
74321145621,-15,4.25,1.25
74321166787,-8.125,4.0625,2
74321182484,-7.125,3.0625,2.6875
74321205713,-3.25,0.625,2.3125
74321226746,1.25,-1,1.8125
74321242501,1,-1.6875,2.75
74321264975,0.0625,-2.3125,3.125
74321286782,4.3125,-3.625,0.5625
74321302430,7.375,-3,-1.1875
74321325019,5.5625,-0.75,-0.3125
74321346705,-0.75,2.125,0.375
74321362505,0.125,3.875,0.8125
74321385127,1.8125,6.8125,-0.6875
74321408217,1.5625,6.375,0.3125
74321422513,1.9375,4.1875,-0.1875
74321445004,0.8125,3.25,-0.3125
74321468177,-1.0625,2.875,0.375
74321482538,-0.8125,2.3125,0.125
74321504972,0.25,2.0625,-0.375
74321528119,1.125,1.6875,-0.375
74321541737,3.1875,0.9375,-1.1875
74321556045,4.125,1,-1.125
74321578586,3.5625,3.875,-1.1875
74321601682,1.75,5.625,-0.0625
74321616128,0.8125,6,0.8125
74321638516,0.75,5.375,1
74321662184,1.0625,4.375,0.6875
74321676091,1.125,3.4375,0.125
74321698610,1,2.125,0.0625
74321721705,0.3125,1.6875,-0.1875
74321737554,0.3125,1.5625,-0.5625
74321758614,0.5,1.0625,-0.6875
74321781691,0.3125,2,-0.8125
74321796044,0.625,2.4375,-0.9375
74321818612,1.1875,2,-1.3125
74321841751,0.75,1.8125,-1.3125
74321856084,0.1875,1.8125,-1.1875
74321878565,0.6875,1.75,-1.375
74321901659,0.625,2.1875,-1.125
74321916090,0.375,2.0625,-1
74321938676,0,2.4375,-0.8125
74321961760,-1.1875,2.875,-0.4375
74321976162,-1.75,3.0625,0.0625
74321998629,-1.3125,3.3125,0.3125
74322021723,-0.6875,2.875,-0.125
