myoTS,x,y,z
42138067116,2.3125,-1.8125,-0.1875
42138090813,2.5,-1.5625,0.5625
42138112118,3.875,-0.9375,1.0625
42138127156,4.125,0,0.75
42138150840,5.4375,0,0.4375
42138172222,3.1875,0.8125,1.5625
42138211492,0.25,1.5,2.125
42138213551,0.5,1.4375,0.75
42138225827,2.1875,0.75,-0.1875
42138247891,1.8125,-0.0625,0.375
42138263645,-0.3125,0,1.0625
42138285870,1.4375,0.0625,0.3125
42138329595,4.4375,-0.375,0.125
42138339542,3.625,-0.3125,0.5
42138345983,2.1875,-0.125,0.5
42138367690,2.625,0.3125,0.875
42138383446,3.3125,0.75,0.6875
42138404509,4.5,1.25,0.9375
42138427704,4.1875,1.5625,0.75
42138443422,1.9375,1.1875,-0.0625
42138464573,0.125,0.75,0.125
42138487703,-0.1875,0.75,-0.1875
42138503406,2.3125,0.5,-0.1875
42138524469,2.25,0.5,-0.0625
42138547645,0.375,0.3125,0.5625
42138563407,0,0.0625,0.5625
42138584474,1.1875,-0.4375,0.1875
42138607596,1.75,-0.3125,0.375
42138623401,0.3125,-0.25,0.25
42138645902,-0.4375,0.0625,0.0625
42138667691,0.625,-0.125,-0.375
42138683559,2,-0.4375,-0.3125
42138706009,0.1875,-0.0625,-0.125
42138727769,-2.875,0.25,-0.25
42138743461,-3,-0.125,-0.5
42138766065,-1.4375,-0.25,-0.375
42138787739,0.75,-0.125,0
42138803453,2.1875,0.125,0.375
42138825985,1.25,0.4375,0.5625
42138847657,1.625,0.4375,0.5
42138863399,2.4375,0,0.4375
42138885900,2.25,0,0.375
42138907634,0.4375,0.375,0.625
42138923390,0,0.5,0.375
42138945917,0.875,0.3125,-0.125
42138966986,0.8125,-0.0625,-0.0625
42138983405,0.5,-1,1.25
42139005899,0.75,-1.5,1.3125
42139027073,-2.8125,-1,0.625
42139043540,-0.375,0.75,0.125
42139066005,5.6875,1.4375,0.8125
42139087092,5.875,3.25,0.6875
42139103420,4.4375,2.6875,-0.125
42139126053,1.875,0.375,0.875
42139146991,1.875,-0.375,-0.375
42139163495,-2.5,-0.75,-1.1875
42139185932,-1.875,0,-0.8125
42139206993,3.75,0.4375,-0.125
42139223398,4.8125,0.1875,0.5
42139245908,0.75,-0.125,0.5
42139266963,-1.0625,-0.375,0.625
42139283431,0.5,-0.375,0.75
42139305899,2.375,-0.125,0.375
42139328407,2.125,0.0625,0
42139351557,0,-0.0625,0.6875
42139365881,-0.9375,-0.5,0.4375
42139388529,1.4375,-0.5,0.5625
42139411691,3.4375,-0.1875,0.5
42139425962,3,0.1875,0
42139448513,0.8125,0.4375,-0.125
42139471606,-1.625,0.1875,-0.5
42139485960,-0.25,-0.125,-0.25
42139508520,2.9375,-0.0625,0.25
42139531671,3.3125,0.5625,0.625
42139546051,1.3125,1.125,0.3125
42139568421,-1.1875,0.8125,0.125
42139591552,-1.5,0.4375,-0.3125
42139605934,0.6875,0.1875,0.125
42139628491,3.125,0.4375,0.4375
42139651685,3.8125,0.6875,0.625
42139672728,4.1875,1.1875,0.5
42139688524,2.4375,1.1875,0.1875
42139711679,0.5,1.0625,-0.0625
42139732665,0.9375,1.1875,0.375
42139748522,3.625,1.8125,0.875
42139771654,6,2.5,0.8125
42139792672,5.4375,3.0625,0.6875
42139808442,3.3125,3.375,0.8125
42139831586,3,3,0.625
42139852668,3.875,3.5625,0.875
42139868398,6.75,5.125,1.5
42139891691,13.3125,7.4375,2.8125
42139912765,23,9.9375,4.125
42139928521,33.0625,10.0625,4.5
42139950984,36.75,8.25,3.625
42139972757,27.25,8.5,1.875
42139988555,13.0625,9.9375,0.25
42140011031,8.5,10.875,1.1875
42140032713,11.4375,11.75,1.125
42140048431,16.3125,11.8125,1.25
42140070942,20,11.3125,2.0625
42140094139,23,12,2.625
42140107660,25.9375,13.75,3.8125
42140122082,29.625,15.25,4.875
42140144541,31.375,15.5,4.9375
42140175955,34,15,4.9375
42140182051,33.25,14.3125,4.75
42140204506,32.3125,14.375,5
42140227613,33.875,14.0625,5.0625
42140241957,33.625,12.875,3.125
42140264485,34,11.1875,1.8125
42140287651,32.375,11.3125,1.6875
42140301974,31,13.4375,0.625
42140324633,34.4375,16.375,-0.375
42140347757,42.0625,16.6875,-1.625
42140362097,59.625,15.375,-1.5625
42140384602,80.8125,16.5,-2
42140407765,83.4375,22.3125,-5.375
42140422094,68.6875,27.125,-9.5625
42140444555,52.25,26.625,-12.6875
42140467760,47.5,23.5,-13
42140482044,55.125,22.125,-8.5625
42140504591,68.875,24.75,-7.5
42140527766,79.5,27.1875,-11.125
42140543549,79.5,27.0625,-14.6875
42140564458,73.1875,26.75,-15.9375
42140587621,60,27.3125,-16.5
42140601995,37.125,28.9375,-14.8125
42140624478,11.9375,30.0625,-12.4375
42140647781,-2.875,29.75,-9.6875
42140662111,-4.25,29.1875,-5.0625
42140685999,-0.6875,30.8125,-0.6875
42140707749,0.875,32.875,-1.375
42140722086,11.5625,30.1875,-3.4375
42140744631,22.4375,29.1875,-3.6875
42140767759,20.25,30.0625,-3.375
42140782107,14.0625,31.0625,-0.625
42140806023,10.8125,33.375,4.5
42140827028,9.25,35.25,12.6875
42140842030,13,33.75,19.5625
42140864485,15.625,32.1875,22.1875
42140887789,20.9375,27.4375,26.3125
42140901986,22.875,24.125,33.625
42140924464,26.1875,20,39.9375
42140947757,31.6875,15.375,42.6875
42140962148,36.4375,9.125,40.25
42140984561,36.875,4.8125,35
42141007726,37.25,2.625,30.9375
42141022084,37.5,3.375,26.25
42141044607,31.5625,5.625,19.4375
42141067138,23.375,7.625,13.3125
42141082109,19.875,11.75,9.8125
42141104641,17.25,15.4375,8.6875
42141127108,19,17.125,9.6875
42141142092,19.625,18,11.3125
42141164566,13.25,16.1875,8.9375
42141187143,-3.125,15.5,5.125
42141202176,-21.875,14.25,3.8125
42141224607,-24.3125,9.6875,2.625
42141246945,-11.625,3.375,0.875
42141262015,5.0625,-1.125,-0.0625
42141284565,19.0625,-3.3125,-0.625
42141307007,21.0625,-2.6875,-0.6875
42141322017,12.5625,-0.6875,-0.75
42141344558,2.25,0.4375,-1.625
42141366993,-2,-1.1875,-1.6875
42141381999,-2.9375,-2.5,-0.3125
42141404639,-1.75,-2.1875,-0.0625
42141427192,-1.25,-2.1875,-0.25
42141442166,-0.8125,-1.875,-0.9375
42141464585,-0.125,-1.0625,-1.125
42141487053,1.75,-1,-1.125
42141504964,3.6875,-1.4375,-0.375
42141524623,4.125,-1,0.4375
42141547007,3.5,-0.25,-0.375
42141563478,4.9375,-1.0625,-0.8125
42141584558,7.125,-1,-0.1875
42141607051,5.3125,0.1875,0.4375
42141623506,3.875,1.0625,-0.5
42141644518,1.5625,2.0625,-0.6875
42141667112,0.8125,2.0625,-0.5625
42141682159,1.875,1.625,-0.875
42141704648,3.5625,0.0625,-1.0625
42141727074,2.75,-0.5,-0.25
42141742084,1.0625,-0.5625,-0.1875
42141764612,-0.1875,-1,-1
42141787057,-0.5,-1.0625,-0.8125
42141802018,-0.9375,-0.5625,-0.0625
42141824498,0.875,-0.3125,0.375
42141847073,2.8125,0.1875,-0.1875
42141863434,2.6875,0.8125,-0.375
42141884599,0.8125,1.4375,-0.125
42141907049,0.375,1.0625,0.5
42141923560,1.4375,-0.3125,0.5625
42141944650,2.9375,-0.6875,0.0625
42141975318,1.875,-0.625,0.3125
42141983544,0.625,-0.5,0.875
42142004593,-0.0625,-0.25,1.1875
42142027015,0.0625,0.0625,0.9375
42142043563,0.5,0.0625,0.25
42142064554,2.3125,-0.1875,-0.1875
42142087016,2.75,0.0625,-0.0625
42142103546,1.0625,1.1875,0.125
42142124603,-1.0625,2.1875,-0.25
42142155301,-1.1875,2.0625,-0.375
42142163544,-0.3125,1.3125,-1.125
42142184522,-0.4375,1.0625,-0.9375
42142206988,-0.75,0.4375,-0.5
42142223498,0.3125,0.4375,-0.125
42142244565,0.6875,0.4375,-0.5625
42142267075,0.25,0.375,-0.375
42142283586,0.5,0,0.5625
42142312668,0.3125,-0.625,0.75
42142327145,-0.0625,-0.5,0.375
42142350987,-0.3125,-0.375,0.5
42142364614,-1.875,0.75,0.75
42142395201,-0.9375,0.75,0.25
42142403587,3.5625,-0.125,-1.125
42142424593,7.6875,-0.3125,-2.125
42142447084,8.9375,-0.125,-4.0625
42142463587,7.0625,-0.4375,-5.5
42142484616,5.0625,-0.4375,-4.875
42142507143,5.25,-1.5,-3.3125
42142523568,5.4375,-2.8125,-4.125
42142544624,0.0625,-2.6875,-8.5
42142567245,-8.75,-2.375,-14.625
42142583550,-6.75,-5,-17.5625
42142604596,7.5625,-8.5,-19.125
42142627137,17.875,-8.5,-24.25
42142643479,15,-7.5,-33.6875
42142664479,6.1875,-10.3125,-40.875
42142687035,1,-12.75,-43.0625
42142703464,2.5,-14.125,-41.3125
42142724555,7.5,-17.125,-38.3125
42142747050,12.75,-22.375,-37.625
42142763540,17.375,-36.25,-38
42142786102,17.6875,-47.8125,-36.75
42142807119,5.5625,-53.375,-31.625
42142823626,-14.375,-50.875,-26.9375
42142846086,-28.8125,-44.9375,-23
42142867168,-26.8125,-38.875,-20.875
42142883492,-20.5625,-31.3125,-20.6875
42142907509,-14.6875,-20.625,-17.75
42142927186,-3.9375,-12.8125,-14
42142951094,10.4375,-11.5,-13.9375
42142966116,21.25,-15.8125,-13.75
42142987124,26.875,-19.3125,-10.8125
42143003586,24.375,-18.5,-6.1875
42143026088,11.75,-13.75,-1.1875
42143047151,1.875,-11.9375,0.6875
42143063547,7.9375,-15.25,1.5
42143086071,20.75,-16.6875,1.125
42143107025,24.6875,-14.8125,0.0625
42143123476,14.9375,-11.375,-0.0625
42143145984,0.875,-7.9375,1.125
42143167150,-10.75,-5.1875,2.25
42143183556,-16.0625,-1.625,4.6875
42143206028,-16.5625,0.625,6.1875
42143228562,-15,2.1875,8.4375
42143243570,-10.8125,5.625,8.625
42143265960,-2.5,9.375,7
42143287169,6.5,11.375,7.5625
42143303580,10.9375,12.3125,9.0625
42143326125,6.875,16.0625,10.25
42143347093,-2.5,19.4375,10.75
42143363597,-9.0625,23.625,11.4375
42143386074,-7.9375,26.75,11.6875
42143408616,-4.3125,28.6875,11
42143423568,-1.5,28.75,9.4375
42143446095,1.875,27.5,7.625
42143467112,2,28.1875,6.9375
42143483524,-3.625,30.125,8.5
42143507445,-9,31.125,10.4375
42143527132,-9.4375,32.5,12.8125
42143543470,-7.5625,35.9375,15.375
42143565982,-6.6875,40.3125,17.125
42143587101,-4.3125,45.75,17
42143603479,-3.0625,51.5625,15.75
42143626129,3,54.75,15.5625
42143647185,6.4375,58.4375,16.9375
42143663633,-1.5,62.875,19.0625
42143686067,-8.375,65.9375,19.625
42143708608,-8.125,65.25,20.3125
42143725037,-8.4375,63.1875,23.625
42143746030,-5.9375,59.8125,28.125
42143768624,0.875,54.75,32.8125
42143783559,10.3125,49.125,39.125
42143806143,14.6875,46.3125,47.25
42143828590,5.375,45.4375,52.9375
42143843608,-4.75,45,53.375
42143866080,-1,40.5,50.1875
42143888525,8.125,35,46.125
42143905075,15.3125,29.4375,42.8125
42143926141,17.3125,25.375,40.1875
42143947816,13.125,23.125,37.125
42143970312,9.375,20.6875,32.25
42143985357,9.625,16.3125,27.25
42144007839,14.4375,10.375,23.6875
42144030291,19.5,5.5625,20.3125
42144045359,18.875,3,18.75
42144067734,16.9375,1.5625,17.625
42144083472,18.3125,-1.125,17.125
42144105237,19.4375,-5.25,17.625
42144127696,19,-8.5625,18.5625
42144143521,14.25,-9.875,17.1875
42144165290,11.125,-8.1875,12.375
42144187785,11.125,-5.125,9
42144203528,13.4375,-7.5,9.125
42144225253,17.1875,-10.4375,8.6875
42144247756,17.625,-10.25,6.3125
42144263622,9.0625,-7.4375,4.0625
42144285684,3.9375,-5.125,3.75
42144307849,7.3125,-6.0625,3.25
42144339875,11.6875,-7.0625,2.25
42144345387,12.625,-7.75,2.125
42144367734,16.125,-5.5625,1.25
42144383527,21.375,-1.875,0.875
42144405264,23.3125,2.8125,-0.9375
42144427846,24.6875,6,-2.5
42144450239,23.0625,7,-2.3125
42144465180,3.5625,9.125,2.125
42144487746,-8.0625,8.6875,1.875
42144510234,-11.25,5.125,1.1875
42144525292,-8.5625,1.0625,0.875
42144547801,-3.6875,-2,0.6875
42144570228,0.375,-1.75,0.6875
42144585292,-0.9375,-0.125,-0.375
42144607771,-1.5,1.0625,-1.3125
42144624190,0.6875,1.1875,-1.625
42144645193,1.75,-0.1875,-0.8125
42144667756,0,-1.625,-0.1875
42144683619,1.0625,-2.1875,-0.75
42144705225,3.5625,-2.4375,-0.4375
42144727847,1.5625,-0.6875,0.5625
42144743651,-0.25,0.375,0.4375
42144765338,0.5,-0.3125,-1.25
42144787886,2.25,-1.3125,-1.5625
42144803555,3.1875,-0.75,-0.9375
42144826739,2.375,0.25,-0.25
42144847859,-1.3125,1,-0.375
42144863616,-0.75,0.75,-0.9375
42144894268,6.125,-1.1875,-0.75
42144907793,8.375,-0.5625,1.3125
42144923575,2.4375,-0.4375,5.5
42144946705,1.3125,1.4375,6.75
42144967768,3.625,5.6875,3.5625
42144983528,-13.5625,11.4375,1.125
42145006666,-37.0625,8.5,-2.9375
42145027703,-46.375,-0.1875,-6.0625
42145043608,-55,-1.125,-7.5625
42145066775,-79.0625,10.4375,-5.75
42145087873,-98.75,27.6875,-0.3125
42145103576,-103.312,39.6875,6.375
42145126777,-104.688,41.0625,11.1875
42145147835,-106.312,40.9375,14.875
42145163578,-96.8125,44.25,23.1875
42145186789,-82.75,50.375,35.1875
42145207850,-75.8125,56.1875,41.1875
42145223623,-75.9375,57.4375,39.25
42145260901,-75.25,54.875,33.6875
42145267710,-65,52.1875,29.6875
42145283507,-49.6875,50.4375,27.1875
42145306719,-34.125,52.1875,25.0625
42145327790,-23.3125,51.625,22.0625
42145343564,-25.75,48.3125,18.6875
42145366683,-32.125,41.6875,15.875
42145387799,-24.0625,34.375,14.875
42145403524,-6.25,29.625,15.75
42145426676,5.5625,24.4375,16.75
42145447811,-0.875,18.9375,14.875
42145463571,-13.3125,14.5625,11.1875
42145486753,-17.75,9.0625,10.875
42145507792,-13.6875,7.0625,12.5625
42145523532,-11.25,6,11.625
42145546699,-9.375,2.3125,5.9375
42145567787,-0.75,-1.5625,1.375
42145583558,5.5,-3.5625,0.625
42145606079,5.8125,-4.25,1
42145627785,-1.3125,-3.8125,1.4375
42145643566,-5.9375,-4.25,0.8125
42145666098,-1.6875,-6.8125,-1.9375
42145687817,11.4375,-9.5625,-5.6875
42145703555,16.625,-11.375,-5.8125
42145726519,5,-10.1875,-5.5
42145747810,-9.875,-8.875,-6.3125
42145763577,-13.1875,-7.9375,-6.5625
42145786078,-7.6875,-8.5625,-5.5
42145809173,-2.125,-9.6875,-4.9375
42145823616,2.875,-9.75,-4.5625
42145846088,4.875,-8.9375,-3.3125
42145869244,1.125,-7.0625,-2
42145883578,-1,-5.375,-1.8125
42145906030,2.0625,-4.625,-1.3125
42145929200,4.3125,-3.9375,0.1875
42145943534,6.5,-4,1.3125
42145966087,7.375,-5.125,1.5
42145989226,10.4375,-6.0625,1.25
42146003552,18.5,-4.625,3.0625
42146026102,28.4375,1.0625,4.375
42146049196,43.8125,8.3125,0.3125
42146070268,58.5625,11.3125,-6.0625
42146086094,72.625,6.875,-9.3125
42146109216,93.25,-3.0625,-11
42146130292,100.438,-21.75,-14.75
42146146066,93.5,-53.1875,-19.8125
42146169206,87.5625,-82.9375,-22.25
42146190279,80.5,-101.312,-16.75
42146206045,69,-100.812,-7.625
42146229256,44.9375,-100.562,-3.5625
42146250304,17.3125,-97.375,-7.0625
42146266078,6.875,-91.1875,-15.6875
42146289235,14.6875,-77.75,-20.0625
42146310303,28.125,-59.5625,-19
42146326049,33.75,-38.9375,-13.0625
42146349274,38.1875,-16.625,-7.9375
42146370318,37.5625,1.125,-6.125
42146386060,33.625,4.75,-9.1875
42146409304,35.125,-2.25,-11.6875
42146430313,42.75,-10.6875,-6.6875
42146446080,39.1875,-8.1875,3.125
42146469267,13.3125,-2.6875,7.875
42146490346,-12.625,-3.5,6.1875
42146506080,-19.4375,-9.0625,3.875
42146529226,-13.25,-11.5625,4
42146550288,-2.8125,-9.0625,4.875
42146566053,7.4375,-4.875,3.8125
42146588577,7,-2.625,2.3125
42146610320,-3.75,-0.5625,1.5625
42146626040,-10.4375,2.25,1.875
42146648526,-5.9375,3.375,1.875
42146670296,4.625,2.9375,0.8125
42146686073,13.25,2.8125,-0.6875
42146708620,14,4.125,-0.5
42146730434,6.4375,5.9375,0.875
42146746099,-3.0625,7.1875,1.6875
42146768618,-5.8125,7.0625,1.8125
42146791721,-0.375,4.4375,2.25
42146806076,4.375,2.5625,2.875
42146828570,2.4375,1.4375,2.875
42146851697,-0.1875,0.4375,2.75
42146866119,-1.1875,0.3125,2.875
42146888579,-0.5,0.5,2.9375
42146911746,-0.25,0.8125,3
42146926123,0.125,1.5,2.5
42146948577,1.3125,1.875,1.625
42146971765,3.75,2.4375,0.5
42146986106,4.5625,3.3125,0.4375
42147008616,2.625,3.75,0.375
42147031775,0.4375,4.875,0.5625
42147046117,0.6875,5.6875,0.3125
42147068594,2.625,5.75,0.0625
42147091724,4.25,6.0625,0.25
42147106062,5.1875,7.1875,0.375
42147128568,3.75,8.375,0.0625
42147151749,2.3125,7.5625,-0.0625
42147166198,2.125,5.875,0.9375
42147188630,4.5,3.75,2.8125
42147211823,2.5625,4,7.0625
42147226106,-2.625,4.5,9.25
42147248654,-2.5625,4.375,10.6875
42147271862,-4.3125,6.75,16.875
42147292905,-21.25,11.125,19.5625
42147308702,-35.8125,12.375,6.5625
42147331800,-26.375,10.1875,-12.1875
42147352890,-24.3125,15.25,-15.0625
42147368565,-54.375,22.4375,-14.9375
42147391725,-81.5,23.375,-33.4375
42147412822,-85.5625,23,-50.875
42147428679,-91.6875,29.5,-53.4375
42147451794,-111.562,39.0625,-52.1875
42147472889,-125.375,44,-57
42147488664,-123.5,47.3125,-63.25
42147511165,-115.125,48.625,-62.9375
42147532869,-112.188,48.375,-57.4375
42147548646,-101.625,44.625,-56.0625
42147571216,-90.375,42.375,-51.25
42147592865,-93,44.3125,-43.0625
42147608598,-107.562,42.1875,-38.5625
42147631111,-104.812,33.1875,-35.6875
42147652806,-73.375,23.8125,-29.0625
42147668673,-40.5625,18.75,-18.75
42147691112,-33.625,14.75,-10.5625
42147714337,-40.625,8.875,-4.25
42147728702,-37.8125,2.875,0.8125
42147751186,-10.25,-2.9375,3.6875
42147774338,12.625,-6,8.9375
42147787938,0,-5.625,15.8125
42147802136,-24.25,-5.5625,17
42147824756,-15.4375,-10.375,13
42147847852,12.9375,-15.3125,14.1875
42147862234,16.75,-15.0625,18
42147884705,1.3125,-13.4375,17.5
42147907815,-7.1875,-14.375,16
42147922144,-4.4375,-14.9375,16.125
42147946077,-3.25,-14.6875,17.5625
42147967852,-1.9375,-15.8125,16.3125
42147982184,7.875,-15.8125,11.4375
42148004750,12.0625,-12.25,9.625
42148027919,-2.5625,-9.125,8.9375
42148042231,-16.875,-7.75,8.0625
42148064762,-10.125,-8.5,5.375
42148087908,5.1875,-11.125,2.375
42148102272,7.125,-12.1875,-0.125
42148124803,-2.75,-10.625,-0.0625
42148147892,-11.4375,-9.0625,0.25
42148162333,-8.375,-8.5,0.5
42148184719,-2.625,-7.875,0.375
42148207898,-0.9375,-8.125,0.1875
42148222147,-1,-7.875,1.375
42148244635,-0.4375,-6.5,1.75
42148267925,-0.0625,-3.9375,1.4375
42148282297,-1.375,-1.9375,1.25
42148304749,-1.5625,-0.5625,0.8125
42148327926,-0.8125,-0.9375,-0.5625
42148342270,2.125,-1.375,-0.375
42148364725,-0.375,-0.6875,1.5625
42148387877,-3.625,-0.0625,1.1875
42148402118,-0.25,-1.875,-0.5
42148424735,3.6875,-2.6875,-0.4375
42148447727,4.6875,-2,1.125
42148462198,5.3125,-1.125,0.1875
42148484716,10.125,-0.6875,-2.75
42148507819,16.875,-0.25,-4.875
42148530368,20.8125,1.8125,-5.75
42148544640,26.8125,2,-7.1875
42148567905,40.75,-10.875,-5.8125
42148582275,60.4375,-40.875,10.3125
42148604762,74.5625,-66.75,48.4375
42148627241,91.4375,-70.1875,78
42148642329,84.9375,-69.8125,77.375
42148664772,90.3125,-76.3125,78.1875
42148687275,111,-75.9375,97.4375
42148702212,113.125,-63.5,116.438
42148724780,93.6875,-55.8125,107.938
42148747243,96.5,-52.3125,91.8125
42148762128,67.625,-40.1875,100.875
42148784621,38.9375,-32.6875,80.375
42148807191,51.375,-33.75,44.1875
42148822159,81.5,-34.8125,20.4375
42148844682,70.8125,-22.6875,12.125
42148867308,44.5625,-12,-0.125
42148882249,34.4375,-5.1875,-11.25
42148912951,34.1875,-1,-13.75
42148927313,30.6875,4.6875,-9.75
42148942251,21.8125,9.0625,-9.4375
42148964790,21.1875,11.125,-15.75
42148987282,21,12.625,-21.6875
42149002172,16.125,12.4375,-24.5
42149024832,6.4375,11.125,-24.1875
42149047261,-1.5,9.875,-24.25
42149062198,-3.8125,7,-24.3125
42149084650,-4.375,3.3125,-23.0625
42149107205,-2.3125,-0.75,-20.75
42149130385,-0.0625,-3.75,-16.8125
42149144683,-1.6875,-4.6875,-13.1875
42149167216,-6.0625,-4.9375,-11.6875
42149190453,-8.6875,-4,-12.6875
42149204820,-13.9375,-3.5625,-12.6875
42149227260,-21.875,-4.5625,-11
42149242307,-26.875,-4.9375,-10.5
42149264801,-32.5,-4.25,-11.375
42149288754,-39.625,-1.5625,-14.9375
42149310485,-49,1.9375,-16
42149324731,-52.5,4.0625,-19.375
42149347242,-49.1875,5.1875,-26.25
42149370438,-46.625,3.6875,-33.125
42149384733,-40.125,-2.5625,-40.25
42149407318,-23.4375,-10.625,-44.1875
42149430496,-7.375,-15.5625,-46
42149444812,-3.3125,-14.9375,-47.375
42149467373,-12.0625,-12.75,-47.875
42149490459,-25.625,-9.75,-45.8125
42149504807,-28.0625,-6.5625,-43
42149527215,-14.0625,-5.625,-41.625
42149550353,-2.0625,-6.4375,-40.5625
42149564691,5.625,-5.8125,-39.5
42149587178,10.625,-5.25,-36.9375
42149609762,7.875,-5.5,-33.1875
42149624789,-2,-5.375,-30.3125
42149647319,-11.75,-5.25,-28.1875
42149669837,-17.3125,-6.5,-25.875
42149684749,-19.5625,-8.3125,-22.5625
42149707234,-24.1875,-8.875,-18.1875
42149729800,-36.5625,-7.9375,-16.6875
42149744806,-42.6875,-4.6875,-21.875
42149767330,-56.8125,-1.0625,-29.125
42149789707,-84.8125,-1.25,-35.4375
42149804681,-104.312,-3.625,-40.125
42149827249,-113.5,-8.4375,-43.875
42149849700,-124.625,-13.8125,-43.875
42149864786,-119.625,-21,-43.1875
42149887234,-101.625,-26.625,-46.3125
42149909737,-98.75,-30.375,-45.3125
42149924766,-104.188,-33.9375,-41.125
42149947241,-96.1875,-39.375,-41
42149969783,-78.1875,-43.3125,-41.8125
42149984781,-68.5,-41.4375,-39.3125
42150007282,-75.0625,-38.125,-36.1875
42150029821,-78.625,-38,-33.9375
42150044861,-68.0625,-38.625,-31.4375
42150067168,-51.875,-37.25,-27.25
42150089695,-45.3125,-31.375,-22.1875
42150107666,-52.4375,-25.125,-19.6875
42150127352,-48.9375,-20.625,-17.5
42150149795,-32.25,-18.125,-15.5
42150164824,-24.3125,-14.6875,-13.6875
42150187294,-28.9375,-10,-11.875
42150209825,-31.75,-6.0625,-10.4375
42150224801,-26.6875,-3.9375,-9.9375
42150247282,-16.6875,-3.3125,-9.25
42150269788,-10.375,-2.25,-7.1875
42150284814,-7.5625,0.625,-5.4375
42150307253,-11.9375,4.0625,-2.4375
42150329760,-21.8125,8.25,-0.375
42150346187,-15,8.8125,-1.4375
42150367160,-1.5,7.0625,-2.4375
42150389821,0.1875,6.3125,-1.8125
42150406256,-6.6875,6.75,-2
42150427312,-15.375,7.625,-2.625
42150449834,-18.5,7.375,-3.6875
42150466195,-11.6875,5.1875,-3.4375
42150487310,-5.25,2.4375,-3.8125
42150509799,-7.0625,1.875,-3.25
42150526241,-13.4375,2.8125,-3.875
42150547314,-14.3125,3.0625,-4.625
42150563765,-15.25,2.875,-4.9375
42150586199,-15.125,2.0625,-5.0625
42150607185,-12.625,0.4375,-4.6875
42150623663,-10.4375,-2.125,-4.25
42150646147,-12.25,-4.4375,-4.6875
42150667202,-14.5625,-7.4375,-5.875
42150689670,-16.5,-12.5625,-6.375
42150706142,-19.5,-18.25,-6.75
42150727170,-20.1875,-22.5,-9.375
42150749822,-20.3125,-24.375,-11.0625
42150766276,-25.6875,-23.875,-11.625
42150787292,-30.375,-22.5,-11.3125
42150809790,-23.4375,-20.1875,-10.125
42150826210,-12.5625,-18.125,-9.375
42150847345,-5.125,-15.125,-8
42150869837,-7.875,-10.375,-5.6875
42150886199,-13.625,-4.75,-4.9375
42150907264,-4.9375,-1.9375,-4.3125
42150923690,5.3125,0.375,-3.5625
42150946141,3.375,3.1875,-2.6875
42150967248,-1.75,5.5625,-2.0625
42150983644,0.75,5.25,-1.75
42151006197,3.8125,4.5625,-0.875
42151027235,3.4375,3.75,-0.3125
42151043776,1.125,3.5,-0.0625
42151066246,-1.875,3.5625,0
42151087329,-3.25,3.25,-0.5
42151103742,0.9375,2.625,-0.75
42151126265,6.0625,2.125,-1
42151147296,8.6875,2.5625,-0.4375
42151163767,5.5,4.0625,0
42151186258,0.5,5.6875,1.125
42151207298,1.3125,5.25,0.5625
42151223691,8.375,2.4375,0.5625
42151246157,12.375,0.4375,0.375
42151267226,10.625,-0.9375,-0.375
42151283665,6.0625,-2.125,-2.375
42151306167,0.6875,-2.9375,-4.1875
42151328650,-4.375,-4.375,-4.6875
42151343660,-2.75,-6.125,-4.4375
42151366161,1.625,-8.125,-6.875
42151388697,-2.0625,-9.1875,-9.625
42151409805,-16.25,-10.375,-10.875
42151426267,-32.3125,-14.1875,-11.0625
42151448738,-31.8125,-20,-11.9375
42151469791,-19,-25.125,-15.1875
42151486257,-16.3125,-28.6875,-17.8125
42151510129,-23.375,-31.75,-20.4375
42151529837,-25.875,-35.3125,-22.5625
42151546230,-23.75,-36.875,-25.375
42151568741,-19.875,-38.5625,-27.5625
42151589848,-16.375,-38.3125,-28.3125
42151606207,-15.25,-38.0625,-27.5
42151627898,-19.9375,-37.75,-28.0625
42151650453,-18.5,-38.5,-31.125
42151665445,-13.8125,-40.6875,-33.75
42151687908,-15.25,-40.8125,-33.625
42151710454,-16.3125,-39.0625,-32.3125
42151725450,-14.5,-38.3125,-32.125
42151747945,-13.25,-36.0625,-31.625
42151770399,-9.125,-32.125,-30.1875
42151786880,-11.0625,-28.5625,-28.0625
42151808002,-11.5625,-25.75,-25.9375
42151830549,-3.6875,-21.9375,-22.4375
42151845545,-1.0625,-18.0625,-20.125
42151867991,-8,-12.625,-16.5625
42151890471,-9.6875,-5.75,-10.8125
42151905448,0.875,-0.25,-3.3125
42151927985,9.375,5.625,2.625
42151950440,2.75,9.625,3.5
42151965491,-6.3125,11.4375,5.3125
42151987923,-5.4375,10.4375,6.25
42152011816,5.0625,8.625,6.3125
42152025422,11.125,8.3125,6.875
42152047882,8,8.625,7.25
42152063675,-1.625,10.75,7.875
42152085407,-6.875,11.375,7.9375
42152107907,2.4375,9.75,7.875
42152123718,11.6875,7.8125,8.25
42152145407,13,9.125,8.1875
42152167957,9.8125,11.4375,8.8125
42152183788,9.9375,13.9375,9.9375
42152205473,14.5,16.375,10.4375
42152228054,22.875,19.4375,11.8125
42152250521,27.25,22.25,13.0625
42152265546,25.0625,25.25,13.3125
42152288045,21.9375,28.1875,12.25
42152310490,23.4375,30.6875,12.5625
42152325502,24.4375,34,14.875
42152348016,23.875,37.4375,16.5625
42152370465,24,37.75,16.125
42152385528,28.5625,38.0625,16.9375
42152407939,30.125,43.1875,18.125
42152430404,28.4375,51.1875,18.4375
42152446828,28.875,57.1875,18.25
42152467889,27.9375,59.3125,18.25
42152490441,32.5,60.4375,19.625
42152506876,36.8125,63.625,21.3125
42152527951,46.0625,70.3125,22.6875
42152550413,43.8125,74.3125,23.6875
42152566856,41.9375,73.125,26.625
42152587922,41.4375,66.375,29.5
42152610492,45.3125,59.625,30.5625
42152626970,49.125,55.8125,31.1875
42152648031,42.375,58.4375,34.4375
42152670535,36.5625,61.6875,37.3125
42152686993,36.9375,55.5625,40.1875
42152707939,45.125,46.625,43.9375
42152730565,57.6875,48.625,45.875
42152746978,59.8125,51.875,41.625
42152767954,53.75,56.625,36.25
42152790534,54.3125,52.6875,33.3125
42152806942,59.875,41.125,32.375
42152828015,62.5,35.375,29.375
42152850521,64.875,38.4375,26.125
42152866933,70.8125,36.25,26.375
42152888073,72.6875,27.625,32.4375
42152910537,67.125,19.375,39.4375
42152934389,70.3125,18.9375,42.8125
42152947964,61.25,17.375,41.8125
42152970501,42.5625,13.0625,39.1875
42152986844,32.1875,9.5,38.0625
42153007951,41,7.5,38.5625
42153030509,51.9375,7.125,39.125
42153046995,47.6875,8.5625,34.9375
42153067988,29,3.875,34.6875
42153090506,9.5,1.125,36.625
42153106910,2.3125,5.9375,36.25
42153127872,10.625,10.4375,32.4375
42153150445,15.125,7.75,29.25
42153172922,21.5625,-1.875,24.8125
42153187939,26.25,-2.875,20.0625
42153210435,21.125,4.125,14.0625
42153226238,3.75,14.4375,4.875
42153247966,-15.875,17.6875,-1.3125
42153270447,-7.875,11.25,-0.625
42153286227,22.4375,5.25,5.5
42153308034,30.6875,4.75,5.5
42153330481,8.125,10.625,4.3125
42153346222,-11.3125,14.375,4.125
42153369467,-13.375,12.125,5.875
42153390526,-10.5625,7.6875,5.6875
42153406343,-0.75,4.3125,5.25
42153429468,6.5,3.875,6.0625
42153451952,4.4375,6.0625,4.8125
42153466257,9.3125,5.9375,4.5625
42153496986,12.6875,7.6875,6.5625
42153510509,18.5625,6.3125,4.9375
42153526276,12.25,4.875,3.3125
42153549438,5.875,5.5625,3.1875
42153570525,13.5625,7.0625,3.6875
42153586327,19.625,5.5625,2.9375
42153609506,16.875,4.5,1.25
42153630564,12.4375,3.5,0.8125
42153646336,10.1875,1.375,-0.125
42153669471,7.875,2.9375,-0.5
42153683847,12.625,5.25,-0.6875
42153706339,20.25,5.9375,0.0625
42153729437,20,4.125,-0.5625
42153750456,13.9375,2.375,-0.875
42153766253,11.25,3.5625,-0.625
42153789375,9.1875,5.5625,-1.4375
42153810442,12.9375,6.4375,-1.4375
42153826198,17.125,5.9375,-0.375
42153856897,13.75,5.125,-0.3125
42153870485,9.3125,4,-0.375
42153886253,6.5,4.0625,-0.1875
42153909416,4.875,3.75,-0.375
42153930490,5.125,2.5,-0.5
42153946228,6.3125,-0.25,0
42153969433,2,-2,0.125
42153990506,-4.0625,-2.6875,-0.5
42154006249,-6.125,-2.625,-0.8125
42154029455,-4.25,-2.25,0.1875
42154050492,-1.5625,-1.75,0.8125
42154066279,-0.3125,-1.1875,1
42154089405,-0.4375,-1.125,1
42154110516,-1.3125,-2.1875,0.5625
42154126274,-1.6875,-2,0.5625
42154148861,-2.625,-1.3125,0.5
42154170524,-2.25,-0.5,-0.6875
42154186339,0.3125,-0.6875,-0.3125
42154208814,0.875,-0.5625,0.3125
42154230559,0.375,-0.25,0.5625
42154246348,-0.75,0,0.1875
42154268827,-0.625,-0.75,-0.4375
42154290576,0.375,-0.8125,-0.0625
42154306361,0.875,-0.8125,0.25
42154329324,0.6875,-0.625,0.1875
42154351904,0.0625,-0.625,0.1875
42154366310,0,-0.625,0.3125
42154388785,-0.5625,-0.25,0.1875
42154412018,-0.25,0,0.5
42154426352,0.5625,0,0.625
42154448926,0.625,-0.3125,0.25
42154472048,0.3125,-0.875,-0.125
42154486266,-0.125,-0.625,0.0625
42154508873,-0.8125,-0.125,-0.1875
42154532007,1.375,0,0.1875
42154546257,2.3125,0.3125,0.4375
42154568740,1.1875,-0.3125,-0.0625
42154591898,-0.8125,-0.375,-0.25
42154606212,-0.75,-0.125,0.25
42154628732,-0.25,0.4375,1.125
42154651958,-0.9375,0.625,0.6875
42154666277,-1.3125,0.6875,0.3125
42154688745,0.5,0.75,0.4375
42154711934,1.25,0.6875,0.75
42154726293,0.6875,0.5625,0.6875
42154748800,0.4375,0.5,0.3125
42154771972,1.0625,0.75,0.4375
42154786347,1.4375,0.4375,0.5625
42154808823,1,0.5,0.5625
42154831995,0.8125,0.75,0.125
42154853000,1,0.8125,-0.125
42154868827,1.375,0.625,0.1875
42154891908,1,0.375,0.4375
42154913059,0.5625,0.5,0.1875
42154928896,0.75,0.3125,0.125
42154951945,0.9375,0.0625,0
42154973040,-0.125,0.4375,0.125
42154988869,-0.125,0.625,0.125
42155011977,2.3125,-0.375,0.3125
42155033005,1.25,-0.5625,0.25
42155048828,-0.875,-1.0625,-0.125
42155071340,-2.9375,-0.5625,-0.3125
42155093009,-3.1875,-0.625,-0.5625
42155115598,-0.5,-1.8125,-0.75
42155131345,0.1875,-1.5,-0.375
42155160534,-2.75,-0.9375,-0.1875
42155168871,-2.6875,-0.9375,-0.375
42155191336,0.0625,-0.5,0.0625
42155213076,1.9375,-0.375,-0.1875
42155228841,1.25,-0.125,-0.375
42155251298,-5.6875,-0.375,-0.5625
42155274489,-12.125,-0.8125,-0.5625
42155288805,-11.0625,-1.125,-0.0625
42155311327,-9.8125,-0.625,-0.6875
42155334489,-6.5,-0.1875,-1.375
42155348824,0.5625,-0.0625,-0.125
42155371260,1.3125,1.4375,1.8125
42155394967,-1.75,2.125,1.0625
42155408789,-1.25,0.9375,1.375
42155439620,0.0625,0.125,1.6875
42155454500,-0.9375,0,1.3125
42155468072,-3.3125,0.5,1.0625
42155482485,-1.875,0.5,0.375
42155504930,0.25,-0.0625,0.6875
42155528052,0.625,0.125,0.9375
42155542435,-1.125,-0.375,0.6875
42155564886,-3.3125,-0.625,0.3125
42155588123,-2.6875,-1,0.5
42155602418,-1.1875,-0.875,0.9375
42155624858,-1.25,-0.9375,0.5
42155648128,-1.6875,-0.875,-0.6875
42155670578,-1.375,-1.1875,-0.5625
42155684914,-1.5625,-1.375,-0.3125
42155708092,-2.8125,-0.625,-0.875
42155722480,-3.5,-0.8125,-1
42155744877,7.25,-2.6875,0.25
42155768047,21.4375,-0.6875,0.3125
42155790518,22.0625,-7,-0.5625
42155804823,11.1875,-11.5,-2.625
42155828024,-4.4375,-7.875,-2.875
42155850492,-6.75,-5.1875,-0.1875
42155864858,2.375,-2.375,-3.375
42155887980,12.8125,-2.625,-12.8125
42155910499,25.375,-1.4375,-19.875
42155924857,21,2.125,-26
42155947407,-0.3125,7,-33.75
42155970545,-15.875,7.0625,-43.125
42155984833,-20.75,7.5625,-53.4375
42156007432,-15.0625,4.6875,-64.25
42156030586,-6.5,1.1875,-74.9375
42156044958,-2.6875,-0.625,-85.0625
42156068124,-4.6875,-0.1875,-95.25
42156090583,-18.875,1.4375,-105.5
42156104896,-33.125,0.1875,-111.125
42156128099,-34.875,-4.5625,-114.875
42156150639,-31.875,-6.875,-119.75
42156164931,-31.25,-7.0625,-127.062
42156188031,-33.5625,-7.0625,-132.25
42156210622,-26.0625,-8.375,-126.938
42156224874,-17.125,-9.1875,-121
42156247472,-21.6875,-8.9375,-122.812
42156270607,-32.875,-8.875,-123
42156284925,-27.6875,-11.125,-113.812
42156307480,-12.3125,-12.5,-104.688
42156330604,-8.0625,-12.5625,-101.312
42156344967,-13.125,-12.8125,-99.9375
42156367486,-12.6875,-12,-94.75
42156390594,-4.3125,-12.5625,-88.6875
42156404948,-0.6875,-13.8125,-82.5
42156427464,-0.3125,-14.6875,-77.4375
42156450631,-6.4375,-11.8125,-81.8125
42156464962,-9.9375,-13.1875,-84.8125
42156487392,-10,-13.5,-80.375
42156510547,-3.625,-16.875,-70.375
42156524920,-8.625,-14.8125,-70.25
42156547455,-20.5625,-13.375,-71.9375
42156570572,-26.1875,-11.1875,-68.125
42156584965,-20.4375,-14.6875,-61.375
42156607484,-15.75,-15.125,-61.1875
42156630621,-16.625,-15.75,-59.1875
42156644969,-21.25,-13.1875,-56.0625
42156667418,-24.625,-11.75,-50.8125
42156690604,-24,-10.875,-44.625
42156704959,-22.8125,-8.75,-41.5625
42156727462,-22.3125,-5.8125,-37.125
42156750570,-26.25,-2.375,-34.5
42156764991,-25.375,-3.375,-29.375
42156787429,-20.8125,-3.25,-26.8125
42156810565,-20.625,-2.75,-27.125
42156824937,-26.1875,-0.875,-24.6875
42156847448,-29.75,-0.1875,-21.625
42156870644,-33.75,-0.6875,-15.8125
42156884916,-22.9375,-2.4375,-6.75
42156907397,-16,-1.625,-6.75
42156930524,-19.9375,-0.875,-8.1875
42156944878,-29.8125,1.25,-10.3125
42156967454,-34.9375,3.625,-13.75
42156989944,-36.25,4.75,-17.375
42157004906,-34.125,5.9375,-20.375
42157027403,-33.6875,8.625,-23.75
42157050620,-33.75,11.3125,-26.1875
42157064950,-35.0625,11.3125,-27.125
42157087431,-39.1875,12.5,-27.5
42157110577,-39.875,12.9375,-28.6875
42157124966,-35,12.75,-28.6875
42157147471,-37.1875,11.6875,-28.3125
42157169898,-37.9375,9.8125,-26.3125
42157184832,-38.4375,10.3125,-23.5
42157207380,-41.5,10.375,-23.4375
42157238650,-40,8.3125,-24.625
42157244801,-31.4375,4,-26.1875
42157267393,-25.625,1.3125,-24.125
42157289838,-26.8125,0.8125,-24.125
42157304882,-32.125,1.375,-24.25
42157327403,-33.375,1.5625,-24.3125
42157349921,-29.8125,1.0625,-23.1875
42157364916,-25.875,0.125,-19.75
42157387401,-20.0625,-0.4375,-17.1875
42157409983,-17.75,-1.75,-16.4375
42157425005,-16.8125,-2.0625,-15.625
42157447480,-18.125,-0.4375,-12.9375
42157469943,-21.625,0.75,-10.9375
42157484932,-18.75,-1,-8.0625
42157507526,-13.4375,-2.8125,-5.25
42157529868,-9.4375,-4.625,-5.25
42157544965,-8.9375,-4.5,-3.5625
42157567526,-7.25,-3.9375,-1.875
42157590002,-3.75,-4.375,-1
42157604889,2.3125,-4.1875,1.75
42157627399,8.875,-2,3.75
42157643910,9.1875,-1.25,4.9375
42157664933,7.125,-0.9375,5.75
42157687440,6.5,-0.375,8.125
42157703897,8.0625,0.1875,12.6875
42157724861,13.4375,1.1875,16.5625
42157747407,16.375,-0.5625,17.75
42157769998,19.5625,-4.4375,18
42157787837,22.875,-7.0625,21.1875
42157807411,27.8125,-8.75,25
42157830012,28.9375,-9.9375,26.3125
42157844917,30.6875,-11.9375,25.4375
42157867484,35.75,-12.8125,23.5
42157889946,39.5625,-12.6875,24.1875
42157904965,45.125,-12.625,28.875
42157927463,52.125,-10.125,33.9375
42157949904,48.5,-5.375,31.875
42157966404,41.375,-3.375,27.875
42157987516,41.5,0.25,28.5625
42158009947,40.75,5.0625,29.625
42158026402,41.25,6.25,26.8125
42158047504,45.75,4.5,23.4375
42158069976,47,6.9375,23.5
42158086479,41.75,11.6875,25.8125
42158107471,29.625,17.125,27.875
42158129978,23.9375,17.875,27.0625
42158146406,26.9375,15.875,28.8125
42158167493,25.875,15.375,32.625
42158189989,20.4375,15.125,36.0625
42158206447,16.5,12.625,37.125
42158227483,18.5625,10.875,41
42158249982,26.5,11,48.9375
42158266394,32.5625,14.375,58.8125
42158287460,33,18,68
42158309981,28.25,18.25,74
42158326405,27.125,18.0625,82.25
42158347487,27.875,17.25,92.0625
42158369966,34.5,16.4375,101.125
42158386433,40.6875,15.6875,107.438
42158407437,41.5625,15.875,109.25
42158429898,39.3125,16.5,110.438
42158446399,36.875,17.0625,113
42158467448,38.0625,17.1875,117.062
42158489997,39.0625,19.9375,121.25
42158506466,31.875,19.9375,121.688
42158527481,24.5,19.625,119.5
42158549968,23.1875,17.8125,119.125
42158566404,29.5625,17.3125,122.438
42158587430,35.625,16.875,124.875
42158609900,29.875,15.625,120.688
42158626430,21.3125,15.3125,113.688
42158647449,19.9375,14.0625,112.125
42158669991,28.4375,11.3125,113.688
42158686460,31.0625,11.0625,110.125
42158710410,21.9375,13.25,99.0625
42158729915,9.25,10.5,91.875
42158746445,17.0625,6.125,90.3125
42158767488,30.1875,6.1875,90.875
42158789980,24.4375,10.375,85.3125
42158806383,5.25,12.375,78.875
42158827505,-3.5625,10.625,74.4375
42158849984,3.9375,6.75,73.0625
42158866442,12.5625,5.375,71.3125
42158888914,18.3125,5.3125,67.125
42158910012,21.75,4.6875,58.8125
42158926439,19.3125,1.625,49.125
42158948888,13.875,-0.9375,42.0625
42158969953,12.75,-1,37.5625
42158986458,8.8125,-0.4375,31.9375
42159008935,-1.1875,-0.9375,25.375
42159029939,-8.875,-1.375,21.875
42159046421,-7.8125,-2,22.0625
42159068889,-2.625,-3.3125,22.3125
42159090037,2.625,-3.375,20.5
42159106362,8.25,-1.9375,15.375
42159128800,8.3125,4.1875,3.5625
42159149941,-13.875,8.5625,-5.9375
42159166342,-15.75,7.5,-6.5
42159188848,16.4375,2.6875,0.0625
42159218179,33.6875,-2.8125,6
42159226383,6.75,-1.8125,6.125
42159248817,-29.1875,4,5
42159269867,-45.25,3.875,5.1875
42159286400,-37.625,0.5625,5.3125
42159308145,-28.8125,-2.1875,2.5625
42159330647,-16.5,-4.6875,-1.125
42159345668,-9.4375,-6,2.25
42159368166,-13,-3.1875,7.1875
42159390688,-19.6875,3.1875,5.8125
42159405657,-16.1875,8.1875,3.4375
42159428159,-8.25,9.375,3.125
42159450570,1.1875,6.875,0.1875
42159465643,7.875,3.6875,2.3125
42159488234,2.25,3.1875,4.125
42159510698,-7.625,2.9375,3.875
42159525640,-12.25,0.375,2.9375
42159548152,-8.75,-4.125,2.5625
42159570619,-7.3125,-7.9375,3.375
42159585613,-10.625,-9.25,3.8125
42159608149,-13.8125,-6.375,4
42159630642,-11.75,-5.6875,3.875
42159645703,-6.6875,-7.3125,4.25
42159668177,-5.375,-7,5
42159692073,-6.1875,-6.125,4.3125
42159705635,-4.6875,-5.0625,3.75
42159728160,-2.6875,-5.9375,3.0625
42159750696,-1.9375,-6.75,2.75
42159765622,-4.5625,-5.125,3.0625
42159788187,-5.5625,-4.1875,2.3125
42159810671,-3.75,-4.25,2.375
42159825521,-3.375,-4.8125,1.625
42159848132,-6.4375,-5.4375,0.0625
42159870708,-11.0625,-5.8125,-0.5625
42159885688,-15.375,-6.5,-0.1875
42159908184,-15.8125,-5.9375,0.875
42159923976,-17.75,-4.5,1.375
42159945684,-18.8125,-1.6875,1.3125
42159968118,-14.5,0.4375,0.8125
42159983981,-7.8125,0.375,0.5625
42160007106,-4.6875,1.8125,0.5
42160028183,-3.5625,4.125,0.1875
42160043909,0.125,5.125,0.125
42160067046,4.3125,5.25,-0.1875
42160088162,7.5625,5.5625,0
42160112139,8.4375,5.5,-0.5625
42160127121,6.75,5.1875,-0.75
42160148146,3.8125,5.8125,0
42160163986,3.625,5.6875,-0.1875
42160187149,6.9375,3.4375,-0.9375
42160208237,11.0625,2.5625,0
42160223946,10.4375,3.6875,0.375
42160247147,7.5625,5.3125,0.3125
42160268097,6.4375,6.4375,-0.0625
42160283908,7,6.25,-0.5
42160307099,6.875,3.6875,-0.6875
42160328206,3.5,0.6875,-0.375
42160343962,-3.875,-0.4375,-0.0625
42160367117,-8.25,-1.25,-0.1875
42160388142,-6.375,-1.0625,1
42160403874,-1.5,-0.0625,1.5625
42160433190,3.25,0.625,1.1875
42160448083,4.4375,0.5625,0.6875
42160463938,2,0.0625,0
42160487088,-2.1875,0.125,-0.625
42160508120,-4.125,0.75,-0.875
42160523905,-2.1875,1.3125,-0.5
42160547039,0.4375,1.3125,0.3125
42160568114,2.875,1.25,0
42160583845,3.375,0.875,-0.4375
42160614546,2.3125,0.5,-0.5
42160628119,0.5625,0.5625,-0.25
42160643905,-1.6875,0.5,0.3125
42160667549,-1.375,0.25,0
42160688097,0.6875,-0.1875,-0.25
42160703855,2.5,-0.0625,0.125
42160727095,0.625,-0.25,-0.0625
42160748144,-1.6875,0.1875,-0.125
42160763878,-1.5,0.5,0
42160786386,-0.125,0.75,-0.125
42160808122,0.5,0.8125,-0.8125
42160823957,0.875,1.125,-1
42160846415,0.4375,1.375,-1
42160868131,-0.1875,1.5625,-0.3125
42160883882,-0.625,1.5,-0.5625
42160906368,-0.375,0.8125,-0.625
42160928115,0.9375,0.5,-0.125
42160943854,0.0625,0.4375,0.1875
42160966377,-2,0.625,-0.125
42160989595,-2,0.625,-0.3125
42161003912,-0.6875,0.5,-0.3125
42161026373,0.5,0.6875,-0.125
42161049545,2.375,0.3125,-0.125
42161063877,1.875,-0.375,-1
42161086398,-0.25,-0.625,-1.0625
42161109504,-2.6875,0.1875,-0.625
42161123978,-2.5,0.5625,-0.4375
42161147050,1,-0.125,-0.4375
42161169594,5.875,-1.625,0.5
42161183888,3.625,-1.375,0.4375
42161206405,-0.5625,-0.75,0.375
42161229503,-2.5625,-0.5,0.625
42161243902,-2.0625,-0.125,0.5625
42161266907,-0.3125,0.0625,0.375
42161289555,1.375,0.1875,0.4375
42161303870,0.625,0.8125,0.625
42161326429,-0.625,1.3125,0.25
42161349585,-0.1875,1.125,0.125
42161363844,-0.0625,1.25,-0.125
42161386427,-1.1875,0.8125,0.1875
42161409554,-2,-0.1875,0.0625
42161423874,-2.5,-1.625,-0.0625
42161446404,-5.125,-2.625,-0.375
42161469588,-6.375,-3.875,0.875
42161498161,-4.1875,-5,2.9375
42161506430,1.6875,-6.0625,3.0625
42161537059,3.4375,-7.125,2.1875
42161550663,-3,-9.125,0.875
42161574600,-11.5,-11.9375,0.5625
42161589571,-13.75,-14.25,1.375
42161610650,-12.8125,-10.9375,2.3125
42161626393,-3.0625,-9.125,1.5625
42161649568,10.25,-10.25,0.25
42161670641,17.4375,-16,-0.875
42161686429,16.5625,-16,-4.125
42161708884,13.3125,-11.1875,-8.8125
42161730603,12.125,-7.625,-14.25
42161746438,13.5,-8.0625,-20.25
42161768959,9.625,-9,-28.8125
42161790622,6.1875,-8.0625,-39.9375
42161806438,-1.125,-2.6875,-52.625
42161828895,-10.3125,3.1875,-63.0625
42161850647,-15.6875,5.3125,-71.3125
42161866415,-16.6875,4.6875,-80.8125
42161888917,-16.5,2.5,-90.5
42161912058,-13.8125,1.3125,-97.6875
42161926415,-15.5625,-0.1875,-102.188
42161948891,-23.4375,0.75,-108.062
42161972023,-32.6875,2.3125,-113.188
42161986462,-35.25,2.1875,-119.938
42162008977,-29.5,-0.1875,-124.375
42162032063,-27.0625,-1.75,-127.75
42162046412,-28.9375,-3.375,-131
42162068891,-29.6875,-4,-132.875
42162092095,-29.4375,-3.875,-131.812
42162106532,-25.125,-4.5,-129.938
42162129031,-27.5,-4,-129.438
42162152144,-30,-4.1875,-128.75
42162173233,-28.9375,-4.25,-123.562
42162189019,-23.6875,-6.0625,-114.562
42162212149,-23.75,-7.9375,-109.5
42162233150,-27.4375,-8.4375,-107.375
42162248988,-30.5625,-6.25,-108.25
42162272185,-29.9375,-6.5625,-108.75
42162293245,-22.125,-7.125,-101.438
42162308981,-13.3125,-5.8125,-91.25
42162332162,-15.1875,-7.875,-92.3125
42162353214,-25.5,-8,-93.3125
42162368990,-29.875,-5.6875,-88.1875
42162391899,-25.5,-4.0625,-78.6875
42162413230,-16.4375,-3.8125,-67
42162428972,-10.0625,-2.75,-59
42162452240,-13.1875,-1.8125,-56.1875
42162473179,-10.625,-2.6875,-50.3125
42162488962,-8.1875,-3.375,-44.5
42162511493,-12.0625,-2.5,-39.625
42162533204,-18,-2.1875,-38.3125
42162548996,-22.125,-1.1875,-39.3125
42162572214,-24.625,-2,-38.6875
42162593204,-27.125,-1.875,-36.1875
42162609018,-22.4375,-3.25,-30.3125
42162632140,-23.75,-2.125,-26.1875
42162653249,-30.3125,-2,-26.125
42162669034,-32.9375,-2.375,-26.125
42162691496,-30.4375,-2.25,-24.3125
42162713202,-32.5,0.9375,-20
42162729017,-24.4375,-0.75,-10.1875
42162751561,-14.0625,0.125,-8.3125
42162773216,-17.125,-1,-8.125
42162788927,-28.625,0.875,-7.8125
42162811471,-33.875,3.625,-8.5
42162833174,-36.5,6.0625,-9.8125
42162848973,-35.5625,7.0625,-12.6875
42162871517,-33.5625,6.125,-14.875
42162894630,-29.875,6.1875,-14.125
42162909090,-26.125,7.75,-12.25
42162931520,-26.3125,8.625,-12.4375
42162954613,-26.375,7.5,-14.4375
42162968993,-23.0625,5.5,-15.6875
42162991510,-19.9375,1.75,-15.3125
42163014718,-18.5,0.625,-14.875
42163029033,-20.5,0.5,-14.6875
42163051455,-23.625,1.375,-13.25
42163074677,-22.25,2,-11.5625
42163088962,-15.875,0.75,-10.125
42163111485,-8.8125,-4.5625,-8.75
42163134727,-5.125,-6.1875,-6.0625
42163155771,-9.125,-5.0625,-5.8125
42163162626,-15.4375,-2.75,-5.75
42163185044,-11.8125,-1.3125,-5.5625
42163208249,-3,-2.1875,-3.9375
42163222577,1.125,-1.3125,-1.8125
42163245010,-0.9375,0.5625,-0.5
42163268165,-2.4375,1.4375,0.25
42163282603,-0.25,0.6875,0
42163305067,4.5,0.125,1.625
42163328238,4.9375,0.25,4.125
42163342526,4.8125,-0.125,6.5
42163365124,6.625,-0.625,8.125
42163388211,7.25,-0.125,9.1875
42163402545,8.5,0.8125,11.25
42163425117,10.375,1.9375,12.1875
42163448308,12.75,3.0625,12.875
42163470570,17.5,3.75,13.875
42163485060,27.3125,3.25,15.75
42163507622,36.125,1.6875,24.5625
42163530763,38.3125,2,28.375
42163545062,32.8125,3.125,25.1875
42163567489,30.375,1.625,21
42163590758,28.8125,3.3125,21
42163605151,23.875,5.3125,23.5625
42163627551,23.1875,6.75,23.6875
42163650715,25.625,5.9375,22.6875
42163665138,29.9375,2.4375,22.75
42163687571,30.6875,2.125,24.5625
42163710737,26.375,5.5,27.25
42163725113,21.75,9.0625,29.3125
42163747510,24,10,33.375
42163770719,31.0625,9.75,40.5625
42163785023,38,10.0625,49.9375
42163807582,42.4375,11.125,61.0625
42163830772,38.3125,12.375,71.3125
42163845094,31.9375,7.9375,79
42163867627,36.4375,3.1875,88.125
42163890756,44,3.0625,95.3125
42163905071,40.3125,5.875,98.125
42163927631,37.625,5.9375,99.3125
42163950777,41.25,6.0625,104.562
42163965095,43.8125,9.125,112.312
42163987568,38.875,10.8125,114.062
42164010805,34.3125,10.25,111.688
42164025155,41.6875,9.0625,112
42164047567,46.25,9.75,117.375
42164070711,43.625,9.375,121.625
42164084977,38.25,8.125,123.75
42164107572,37.4375,6.4375,124.312
42164130790,35.9375,5.125,124.75
42164145093,36,6.1875,128.125
42164167576,37.625,6.5,131.25
42164190799,36.1875,7.8125,125.938
42164205081,28.0625,7.9375,113.188
42164227628,23.1875,5.9375,102.812
42164250796,29.5,4,102.688
42164265084,36.0625,5.0625,104
42164287551,24.75,8.25,96.125
42164310718,5.5625,7.625,87.75
42164325130,4.375,5.8125,81.875
42164347584,14.625,3.0625,79.8125
42164370766,23.3125,3.1875,75.25
42164385043,22.4375,3.625,67.6875
42164407582,16.375,4.375,60.25
42164430782,9.5625,4.375,55.875
42164445122,7.375,4.75,53.8125
42164467654,8.3125,4.125,50.625
42164490699,5.875,4.6875,45.3125
42164505095,4.375,5,40.125
42164527603,8.125,4.1875,39.1875
42164550794,12.6875,3.5,39.25
42164565111,13.75,3.25,36.5625
42164587631,5.625,2.875,34.0625
42164610104,-0.1875,2.5625,34.125
42164625100,2.0625,1.5,34.875
42164647643,7.5,1.375,34.9375
42164670806,7.375,0.9375,34.3125
42164685074,5.0625,0.8125,33.0625
42164707624,6.375,-0.1875,30.875
42164730126,16.625,1.5625,17.25
42164745155,-7.4375,15.1875,-7.0625
42164767610,-43.5,9.125,-10.3125
42164790092,-7.25,1.875,-4.8125
42164805085,43.4375,-3.9375,9.875
42164827668,32.8125,-6.125,10.5
42164850143,-21.625,-4.8125,9.5
42164865093,-60.125,-2.4375,6.875
42164887652,-55.3125,-4.5,8.375
42164910029,-32.5625,-8.125,10.5625
42164925092,-20.4375,-9.625,8.4375
42164947619,-20.9375,-9.6875,5
42164970075,-22.375,-9.9375,4.3125
42164985137,-23.8125,-8.5,5.875
42165007537,-28.75,-4.9375,5.8125
42165030084,-33.125,-1.1875,3
42165045078,-20.4375,-1.5625,0.8125
42165067675,-2.4375,-3.375,1.625
42165090155,1.75,-2.125,2.125
42165105167,-5,0.6875,1.125
42165127599,-10.625,0.6875,-1.375
42165144059,-11.875,-1,-3.0625
42165165144,-10.6875,-2.9375,-4.75
42165187601,-10.875,-3.25,-4.125
42165204006,-11.5625,-1.875,-3.3125
42165225032,-9.125,-1.125,-3.5
42165247495,-5.3125,-1.3125,-3.3125
42165263993,2,-0.625,-3.0625
42165284995,9.125,1.6875,-3.3125
42165307569,16,3.4375,-2.3125
42165325452,18.625,5,-1.125
42165345064,14.875,6.3125,-0.875
42165367529,7.5625,6.1875,-1.5
42165383976,2.4375,5.6875,-1
42165405049,1.875,4.625,-1.25
42165427597,3.375,2.5625,-0.625
42165450040,4.1875,1.875,0
42165468020,2.75,1.8125,0.25
42165487637,0.375,1.9375,0.8125
42165510123,-1,2.625,0.0625
42165526586,2.125,3.125,-0.25
42165547601,6.75,2.875,0.1875
42165564031,9.3125,1.5625,0.25
42165586548,5.3125,1.625,0.25
42165607645,1.25,1.875,0.3125
42165624015,-0.875,1.1875,0
42165646555,-1,1.1875,-0.125
42165667673,1.3125,0.6875,-0.625
42165690110,3.0625,0.1875,-0.0625
42165706614,2.25,0.125,0.8125
42165727628,-0.25,0.625,0.875
42165744037,-1.1875,0.5,0.3125
42165766510,0.875,-0.125,-0.4375
42165787618,1.9375,-0.625,0
42165810123,0.25,0.0625,0.625
42165826522,-2.625,0.5625,0.4375
42165847633,-1.9375,0.5625,0.3125
42165870059,1.1875,0,0.25
42165886529,2.4375,-0.25,0.4375
42165907585,0.8125,0,0.125
42165930125,-1.9375,0.25,-0.1875
42165946546,-2.6875,0.3125,0
42165967632,-0.625,0.1875,0.25
42165990159,1.3125,0.25,0.5625
42166006567,1.6875,0.375,0.25
42166027667,1.125,0,-0.0625
42166058340,0,0,0
42166066529,-0.3125,0.125,-0.1875
42166087628,-0.625,0.3125,0.25
42166110160,-0.375,0.25,0.625
42166126540,-0.5625,0.3125,0.375
42166149131,0.875,-0.0625,0.25
42166170094,0.9375,-0.0625,0.5625
42166186544,0,0.25,0.75
42166207601,-1.125,0.5,0.25
42166230132,0.5,0.125,-0.0625
42166246584,1.1875,-0.125,0.125
42166267664,0.75,-0.0625,0.1875
42166290126,-1.375,0.3125,0
42166306561,-1.25,0.3125,-0.375
42166327635,0.5625,0.1875,-0.875
42166350189,1.125,0.0625,-1.4375
42166366544,1.1875,0.5,-1.8125
42166390489,1,1.0625,-1.375
42166410092,1.8125,1.3125,-0.75
42166426587,3.0625,0.875,0.0625
42166449077,5.1875,0.4375,0
42166470189,6.75,-0.3125,-0.375
42166486639,4.4375,-0.8125,-0.625
42166509125,0.1875,-1.6875,-0.0625
42166530146,-2,-1.625,0.375
42166546598,-1.625,-1.0625,-0.5
42166569068,1.125,-0.5,-0.25
42166590188,3.125,0,0.5
42166606528,0.625,1.4375,0.6875
42166629068,-1.4375,1.8125,0.8125
42166650139,-1.375,1.375,0.5
42166666542,-0.375,0.4375,0.5625
42166689068,-0.125,-0.3125,0.25
42166710148,-1.4375,-0.0625,-0.1875
42166726562,-2.375,0.125,-0.25
42166749137,-1.0625,-0.5625,-0.0625
42166770169,-0.9375,-0.625,0.5
42166786563,1.1875,-0.4375,0.6875
42166816606,3.875,-0.375,0.9375
42166830133,3.5625,-0.6875,0.5
42166846641,-0.875,-1.1875,-0.125
42166869025,-5,0.6875,0.875
42166898321,-8.0625,5.75,1.5
42166906585,-5.125,7.8125,2.875
42166929099,6.5,8.0625,4.9375
42166950153,21.0625,6.3125,4.25
42166966529,31,1.625,1.5
42166988997,32.5,-2.125,-4.4375
42167010853,25.3125,-2.625,-6.25
42167025763,19.875,-1.9375,-3.9375
42167048339,22.375,-0.25,-6.375
42167070820,19.4375,-0.25,-10.375
42167085870,15.125,0.125,-16.3125
42167108317,7.0625,2.8125,-22.1875
42167130806,2.1875,5.75,-27.6875
42167145816,-1.25,6.6875,-32.1875
42167168273,1.3125,4.125,-40.9375
42167190792,-2.125,0.75,-48.4375
42167205835,-10.625,-0.8125,-58.3125
42167228329,-19.3125,1,-67.375
42167250840,-18.875,0.3125,-75.875
42167265831,-16.4375,-2.3125,-84.4375
42167288328,-18.0625,-6.8125,-91.125
42167312286,-25.5,-7.4375,-98.5
42167325763,-28.1875,-6.5,-105.625
42167348324,-23.9375,-5.0625,-110.562
42167370840,-13.875,-5.6875,-113.5
42167385884,-10.625,-6.3125,-118.25
42167408360,-11.75,-7.8125,-122.938
42167430885,-12.9375,-7.0625,-123.312
42167445836,-13.5,-4.5,-122.438
42167468355,-12.625,-3.8125,-123.062
42167490719,-14.6875,-2.9375,-123.812
42167505884,-22.4375,-0.5625,-123.125
42167528397,-23.25,-1.6875,-120.938
42167550840,-19.375,-4.4375,-115.562
42167565830,-13.6875,-7.1875,-109.438
42167588367,-12.5625,-8.8125,-105.5
42167610790,-8.0625,-12.1875,-102.938
42167627190,-7.4375,-14.6875,-99.625
42167649809,-10.25,-17.1875,-96.75
42167670789,-8.125,-17.8125,-89.125
42167687320,-7.8125,-18.9375,-83.5
42167708287,-9.875,-17.875,-79.125
42167730797,-11.0625,-17.9375,-76.625
42167747295,-14.0625,-15.375,-77.9375
42167768377,-10.75,-16.6875,-74.5625
42167790854,-3.1875,-17.5,-69.125
42167807248,-1.625,-15.6875,-65.375
42167828349,-3.5625,-14.75,-61.125
42167850861,-11.25,-12.3125,-58.6875
42167867310,-14.75,-10.25,-53.25
42167888348,-15.875,-8.6875,-46.5
42167910852,-11.1875,-9.9375,-36.4375
42167927233,-5.5,-7.5,-32.3125
42167948297,-8.25,-5.0625,-31
42167970848,-12.4375,-1.0625,-29.625
42167987267,-10.875,-0.375,-24
42168008316,-7.3125,-2.1875,-19.5
42168030820,-10.75,0.4375,-19.6875
42168047218,-21.0625,2.6875,-23.25
42168068329,-28.125,3.5,-25.0625
42168090888,-23.3125,3.25,-22.3125
42168107212,-18.75,2.25,-18
42168128355,-22.5625,1.5625,-14.9375
42168150768,-24.875,-0.4375,-10.9375
42168167264,-24.5,0.5,-10.0625
42168188403,-27.0625,2.75,-8.3125
42168210864,-26.75,3.8125,-9.125
42168227243,-23.625,0,-10.375
42168248311,-25.6875,-2.875,-10.75
42168270803,-30.3125,-1.1875,-10.8125
42168287308,-37.5,1.25,-12.0625
42168308383,-40.9375,0.5,-15.375
42168330881,-38.8125,1.3125,-17.5625
42168346649,-38.625,0.75,-16.625
42168368423,-39.75,1.6875,-15.9375
42168390914,-38.6875,1.8125,-17.1875
42168406619,-38.5,2.4375,-18
42168428389,-40.5625,2.5,-18.25
42168450888,-47.5625,1.9375,-17.5625
42168466599,-49.9375,-1.1875,-17.5625
42168488380,-47,-2.4375,-16.25
42168510848,-44.125,-1.1875,-14.5625
42168526598,-45.1875,-2.375,-15.25
42168549781,-41.4375,-4.4375,-17.125
42168570846,-32.375,-6.125,-16.5
42168586626,-31.0625,-6.625,-15.6875
42168609813,-30.375,-7.75,-17.0625
42168630846,-29,-7.6875,-17.625
42168646641,-26.3125,-7.1875,-17.5625
42168669802,-22.5625,-9.5625,-16.4375
42168690830,-16.8125,-11.125,-14.4375
42168706607,-15.5625,-11.5,-12.0625
42168729798,-13.875,-10.4375,-10
42168750877,-11.875,-8.3125,-9.625
42168766656,-8.75,-6.375,-9.875
42168789720,-4.9375,-5.625,-8.375
42168810788,-1,-3.8125,-5.4375
42168826716,-0.125,0.25,-2.8125
42168849778,-1.125,2.875,-2.375
42168870848,-0.5625,2.5625,-1.9375
42168886658,1.25,2.6875,-2.0625
42168909807,3.4375,1.375,-1.4375
42168930845,4.9375,-0.1875,0.25
42168946583,7.4375,-1.6875,2.1875
42168969789,8.25,-2.625,3.8125
42168990897,8.6875,-3.25,5.6875
42169006625,12.375,-3.8125,7.0625
42169029751,13.375,-2.75,8.8125
42169050853,13.8125,-0.9375,11.375
42169066669,14,0.4375,13.8125
42169089711,16.625,1.3125,14.8125
42169110883,20.0625,2.625,15
42169126657,18.375,5.9375,16.375
42169149814,13.125,10.8125,19.3125
42169170884,6.5625,14.8125,21.9375
42169186621,6.75,16,24.5625
42169217318,21.3125,12.5,26.875
42169230905,32.375,10.8125,27.0625
42169254820,41.25,8.1875,27.75
42169269100,38.25,6.625,27.75
42169290886,35.5,2.0625,27.375
42169306657,35.3125,-2.4375,28.625
42169329138,38.1875,-3.375,26.625
42169350920,40.0625,-2.4375,26.4375
42169366632,39.375,-1,26.5625
42169389130,41.5625,0.375,29.5625
42169410866,50,-2.375,36.8125
42169426589,56.6875,1.125,38.375
42169449209,62.625,5.25,34.125
42169472376,58,11.4375,30
42169486631,48.125,13.5,28.6875
42169509142,32.6875,14.125,30
42169532316,24.5625,13.6875,31.375
42169546634,21.4375,15.125,39.25
42169569152,15.375,17.75,51.3125
42169592304,10.4375,16.625,59.375
42169606697,11.625,13.3125,62.1875
42169629157,18.625,9.5625,64.25
42169652394,25.5625,8.5625,72
42169666638,28.5,11.75,82.875
42169689044,24.625,15.25,92.25
42169712339,24.9375,14.9375,98
42169733417,29.9375,13.6875,101.75
42169749121,35.5,13,106.688
42169772313,32.8125,11.75,110.062
42169793372,35.5625,9.5625,113.062
42169809158,40.25,8.1875,115.312
42169832289,43.0625,9.5625,117.062
42169853381,26.9375,15.125,115.562
42169869178,14.25,17.25,111.062
42169892353,16.5,16.375,110.125
42169913293,22.875,13.0625,113.688
42169929063,24.0625,10.9375,113.75
42169952196,27.0625,9.25,107.438
42169973277,28.125,11.625,101.688
42169989076,25.625,12.875,98.5625
42170012246,24.1875,12.0625,96.5625
42170033286,23,10.125,91.875
42170049065,24.0625,10.625,81.5625
42170072220,28,11.0625,71.25
42170093312,28.125,7.625,64.375
42170109111,29,3,60.1875
42170132324,26.0625,0.9375,60.75
42170153449,16.3125,3.1875,61.6875
42170177295,-2.5,7.25,60.125
42170192292,-16.6875,7.6875,55.125
42170213369,-10.9375,4.75,50.75
42170229184,4.1875,2.0625,47.8125
42170251650,10.4375,-0.5,42.5625
42170273386,12,-2.375,37.8125
42170289176,9.3125,-0.375,35.1875
42170311649,2.4375,3.625,30.6875
42170333305,-7.9375,6.4375,23.9375
42170349119,-8.6875,5.4375,19.4375
42170371650,2.75,1.625,18
42170393347,14.75,-0.8125,16.3125
42170409178,10.625,-1.75,15.0625
42170431603,-1.4375,-1.5625,14
42170454804,-3.9375,-1.625,14.8125
42170469104,0,-1.0625,15.6875
42170491597,6.1875,0,14
42170514870,8.3125,-0.4375,11.375
42170529133,11.3125,-1.25,11.125
42170551686,16.3125,-1.3125,11.875
42170574848,17.75,0.1875,12.375
42170589154,11.375,1.0625,12.75
42170611703,1.1875,0.6875,11.75
42170634838,-8.75,-0.375,9.0625
42170649169,-15.875,0.3125,3.6875
42170671626,-27,-0.3125,-0.8125
42170702279,-23.625,-1.9375,-2.375
42170715861,-6,-3.9375,-1.8125
42170731663,1.3125,-4.9375,-1.125
42170754853,-4.875,-2.0625,-0.375
42170775898,-11.625,0.9375,-0.1875
42170791675,-16.875,1.4375,-0.875
42170814828,-16.6875,-0.375,-0.0625
42170829248,-13.1875,-1.375,1.375
42170851377,-8,-1.9375,-0.125
42170865270,-7.5625,-2.5625,-1.5
42170888453,-8.0625,-1.4375,-2.1875
42170910928,-2.875,0.3125,-2.0625
42170925291,-0.3125,1.0625,-1.5
42170948555,1.9375,0.375,0.6875
42170979066,2.0625,2.5625,2.375
42170985259,-0.875,4.5625,2
42171008400,-1,2.75,2.0625
42171030848,-0.875,0.6875,3
42171045258,1.125,0.75,3.5625
42171068409,-1.6875,0.875,3.8125
42171090940,-5.5625,-0.4375,4.25
42171105187,-6.8125,-1,4.1875
42171128460,-4.5,0.1875,4.5
42171150933,1.1875,2.375,3.4375
42171165234,1.875,1.4375,1.5
42171188426,3.625,0.875,1.625
42171210884,1.75,1.125,1.875
42171225209,4.0625,1.125,2.5
42171248386,6.25,0.75,3.0625
42171270848,1.375,-0.9375,0.375
42171285215,-2.9375,0.125,-2.6875
42171307769,-1,0.4375,-3.5
42171330871,10.875,-1.9375,-4
42171345202,23.875,-7.625,-7.125
42171367762,21.625,-14.625,-13.375
42171390929,8,-18.5625,-20.75
42171405257,-10,-16,-27.875
42171427729,-34,-20.9375,-27.75
42171450923,-45.9375,-31.8125,-21.4375
42171465182,-56.0625,-38.5625,-21.3125
42171487701,-61.375,-40.5,-29.625
42171510799,-71.0625,-44.0625,-35.125
42171525238,-68.75,-57.375,-32.1875
42171547743,-60.4375,-66.75,-27
42171570891,-53.375,-66.375,-27.5625
42171585220,-69.3125,-70.75,-27.1875
42171607761,-94.4375,-84,-20.9375
42171630867,-106.438,-93.375,-12.875
42171645247,-98.1875,-94.25,-9.625
42171667807,-90.5625,-92.875,-11.625
42171690848,-96.5625,-95.5625,-12.875
42171705275,-94.75,-101.188,-13.8125
42171727819,-83.875,-103.375,-12.5
42171750946,-77.5,-96.125,-12.5
42171765228,-90.9375,-85.5,-10.9375
42171787812,-106.625,-80.6875,-9.125
42171810908,-103.438,-82.5,-9.375
42171825257,-62.6875,-83.1875,-12.125
42171847770,-24.1875,-77.1875,-10.875
42171870960,-19.0625,-69.3125,-7.5
42171885239,-34,-66.1875,-9.8125
42171907753,-28.625,-61.5,-14.5
42171930893,-13.5625,-49.25,-16.375
42171945256,-15.75,-34.9375,-19.125
42171967820,-26.1875,-27,-20.75
42171990964,-20.5,-27.1875,-21.375
42172005263,-9.6875,-26.125,-18.125
42172027751,-18.1875,-22.75,-11.5625
42172050977,-29.375,-19.3125,-6.375
42172065221,-27.5,-16.5,-2.8125
42172087807,-16.875,-13.25,-1.5
42172110855,-12,-9.75,-1.1875
42172125289,-7.9375,-5.8125,-0.125
42172147796,-2.625,-1.0625,2.3125
42172172371,2.375,2.8125,3.5625
42172185292,-1.4375,1.6875,2.5
42172207762,-8.0625,-1.875,0.75
42172230959,-11.25,-3.8125,-1.125
42172245282,-8.4375,-3.4375,-2.375
42172267709,-4.75,-1.8125,-2.6875
42172290979,-5.9375,-1.4375,-2.625
42172305239,-11.125,-1.0625,-3.0625
42172327669,-15.6875,-1.0625,-3.5
42172350309,-17.625,-2.375,-6.4375
42172368159,-13.6875,-5.125,-7.25
42172387784,-10.0625,-6.3125,-5.3125
42172410311,-9.75,-6.125,-4.375
42172425313,-8.875,-5.8125,-4.75
42172447716,-9.1875,-5,-4.6875
42172470182,-13.625,-4.5625,-3.375
42172485272,-16.6875,-5.4375,-2.125
42172507747,-13.125,-7,-1.1875
42172530233,-6.25,-6.75,-1.5
42172545310,-2.5625,-5.9375,-1.6875
42172567755,-6.625,-5.0625,-1.3125
42172590195,-6.125,-3.3125,-0.1875
42172605292,-2,-1.6875,0.25
42172627774,-0.1875,-1.375,-0.375
42172650299,-1.75,-1.6875,-1.5
42172665371,-2.375,-1.875,-1.75
42172687719,-0.625,-1.4375,-1.125
42172710232,1.1875,-0.5,-0.625
42172725169,1.25,-1.0625,-1
42172747824,-1.5,-1.875,-0.875
42172770262,-4.6875,-1.875,-0.25
42172785294,-3.6875,-1.875,-0.1875
42172807716,-0.6875,-2.5,-0.4375
42172830320,-0.1875,-2.5625,-0.125
42172845279,-4.3125,-1.8125,0.3125
42172867762,-4.625,-1.3125,0
42172890305,-0.75,-1.875,-0.8125
42172905240,2.5,-2.5,-1.1875
42172927710,-2.9375,-1.875,-1.1875
42172950220,-8.75,-1.8125,-0.875
42172965276,-6.1875,-2.5,-1.4375
42172987772,-2.375,-3.75,-2.25
42173010325,-6.75,-4.375,-2.625
42173025274,-14.4375,-4.3125,-2.625
42173047797,-17.4375,-4.5,-2.8125
42173070282,-11.0625,-5.625,-3.0625
42173086699,-4.8125,-5.875,-2.6875
42173107755,-5,-4.5,-1.5625
42173130336,-5.125,-3.5625,-1.25
42173146712,-1.3125,-3.125,-0.875
42173167739,0,-1.875,-0.6875
42173190293,-3.375,-0.8125,-0.5
42173206690,-2,-0.6875,-0.25
42173227815,3.125,-0.4375,-0.1875
42173250318,4.625,0.1875,0.0625
42173266752,0.625,0.5,0.25
42173287801,-1.25,0.25,-0.1875
42173310334,1.5625,-0.0625,-0.125
42173326676,4.4375,0,-0.0625
42173347848,0.4375,0.5625,0.1875
42173370285,-0.375,0.3125,0.25
42173386757,5.25,-0.125,0.625
42173407819,12.875,-0.5625,1.25
42173431725,19.25,-0.25,1.5
42173446668,20,1.125,1.75
42173467743,14.625,2.4375,2.1875
42173490240,10.9375,2.9375,2.5625
42173512805,16.3125,2.375,3.1875
42173527786,28.1875,1.0625,4.0625
42173550294,39.25,1.25,5.3125
42173566750,43.0625,2.375,7.3125
42173587793,41.0625,4.125,8.5625
42173610339,35.9375,4.875,8.8125
42173626725,32.5,5.25,7.375
42173647873,31.25,5.4375,6.25
42173670214,31.375,5.6875,6.0625
42173686774,27.875,6.3125,5.375
42173707748,20.875,5.5,3.875
42173730317,14.75,3.5,2.0625
42173746757,7.9375,2.0625,1.125
42173767785,1.25,1.9375,0.875
42173790257,-0.375,1.9375,0.875
42173806767,3.375,1.25,0.625
42173827827,7.6875,0.625,0.375
42173850309,8.9375,0.8125,0.9375
42173866690,8.1875,1.25,1.1875
42173887771,7.5,0.5625,1.4375
42173910335,6.1875,0.4375,1.1875
42173926732,3.0625,0.25,1.0625
42173947787,-0.5625,0.125,0.75
42173970309,-3.3125,-0.1875,0.125
42173986756,-3.9375,-1,-0.3125
42174007805,-5.5,-2,-0.25
42174030342,-12.9375,-1.375,-0.9375
42174046793,-21.0625,-1.875,-1.9375
42174069245,-18.5,-1.875,-2.625
42174090302,-9,-2.125,-2.25
42174106779,-1.9375,-2.0625,-2.0625
42174129184,-3.25,-0.8125,-2.3125
42174150291,-11.5,-1.0625,-2.5
42174166736,-17.9375,-1.3125,-3
42174189264,-16.75,-1.875,-3.1875
42174210343,-16.625,-2.1875,-5.9375
42174226808,-28.125,-4.125,-9.3125
42174249235,-42.6875,-3.1875,-11.125
42174270230,-53.875,-3.875,-12.875
42174286790,-65.875,-5.0625,-16.5
42174309242,-66.625,-4.75,-16.5
42174330296,-50.0625,-7.0625,-16
42174346724,-31.3125,-9.9375,-14.3125
42174369238,-25.125,-9.9375,-12.5625
42174390307,-25,-9,-9.875
42174406777,-26.6875,-9.4375,-8.375
42174429245,-24.1875,-11.875,-7.875
42174450307,-17.5625,-14.0625,-7.3125
42174466688,-12.75,-14.0625,-5.8125
42174489257,-13,-12.1875,-5.0625
42174510262,-12.3125,-11.1875,-4.8125
42174526658,-5.375,-10.5,-3.375
42174549285,-1.9375,-7.625,-1.4375
42174570359,-5.25,-5,-1.3125
42174586731,-2.4375,-4.75,-1.375
42174609202,4,-3.875,-0.4375
42174630320,4.25,-1.75,-0.125
42174646782,-2.25,0.5,-0.25
42174669289,-2.75,0.0625,-0.5625
42174691033,2.4375,-0.75,-0.5
42174705978,2.875,0.1875,0
42174728497,-2.75,0.875,0
42174751028,-4.8125,-0.6875,-0.6875
42174765956,-1.375,-2.25,-1.1875
42174788461,-0.8125,-2.25,-1.125
42174811025,-5.75,-1.25,-1.0625
42174826001,-7.9375,-1.5625,-1.5
42174848527,-1.125,-2.9375,-1.5625
42174871006,1.9375,-2.625,-0.9375
42174885963,-2.1875,-1.125,0.125
42174908451,-3.8125,-0.375,0.5625
42174930923,-0.375,-1,-0.625
42174946011,1.5,-1.625,-0.6875
42174968420,-2.0625,-1.8125,-0.5625
42174991052,-3.8125,-1.375,-0.3125
42175005968,-1.6875,-1,-0.3125
42175028475,0.3125,-1.4375,-0.875
42175050967,1.3125,-1.625,-0.0625
42175065984,0.4375,-0.4375,0.3125
42175088513,0.0625,0.1875,-0.9375
42175110981,2.75,-0.5,-0.625
42175125952,3.1875,-1.1875,-0.0625
42175148575,-0.5,-0.75,0.125
42175171026,-1.1875,-0.125,0.25
42175187434,0.4375,-0.0625,-0.3125
42175208557,2.9375,-0.75,-0.6875
42175230997,2,-0.375,0.0625
42175247438,-0.8125,0.25,0.625
42175268568,-0.9375,0.625,0.4375
42175291027,0.8125,0.5,0
42175307418,2.3125,0.625,0.125
42175328536,2.3125,0.875,0.4375
42175350979,1.4375,1.3125,0.8125
42175367451,0.4375,1.0625,0.375
42175388413,1.5,0.5,0.25
42175410706,2.6875,0.1875,0.5625
42175427411,2.3125,0.6875,0.8125
42175448517,0.5625,0.75,0.625
42175470984,-2.5,0.6875,0.0625
42175487344,-1.375,-0.5,-0.6875
42175508427,0.5,-0.75,0.0625
42175530936,0.125,-0.5,0.5
42175547375,-0.0625,-0.4375,0.3125
42175568413,-1.25,-0.8125,-0.25
42175590950,-1.875,-1.25,-0.4375
42175607380,-0.4375,-1.25,-0.3125
42175628446,1.0625,-0.625,-0.1875
42175650981,1.3125,0,-0.0625
42175667357,0.0625,0.625,0.25
42175695958,-0.1875,0.75,0.375
42175710955,2.625,1.25,0.125
42175727454,3.9375,1.625,0.1875
42175748455,1.75,1.75,0.375
42175770929,-0.0625,1.25,0.375
42175787390,-0.5625,0.6875,0
42175808434,1.25,0.75,-0.0625
42175830869,2.5625,0.75,0.125
42175847379,1.25,0.6875,0.125
42175868496,-2.4375,0.5625,0.375
42175890956,-3.125,0,0
42175906744,-1.4375,-1.125,-0.25
42175929868,1,-1.4375,-0.4375
42175950942,0.5,-1,0.0625
42175966673,-2.0625,-0.375,0.4375
42175989897,-1.875,-0.9375,0.375
42176010990,0.75,-0.625,0.4375
42176026710,1.0625,-0.75,-0.0625
42176048491,1.6875,-1.0625,0
42176070966,0.5,-0.4375,0.4375
42176086707,-0.125,-0.25,0.4375
42176109850,1.4375,-0.4375,0.0625
42176130896,2.5,-0.25,0.1875
42176146757,1.5,0.375,0.5
42176169885,1.0625,0.4375,0.75
42176190941,2.5,0.3125,0.4375
42176206699,1.5625,0.125,-0.0625
42176229846,0.625,0.25,0.0625
42176250944,0.6875,0.4375,0.4375
42176266712,1.625,0.75,0.3125
42176289931,2.125,0.4375,0.25
42176310947,-0.1875,0.5,0.1875
42176326751,-0.8125,0.5625,-0.0625
42176349874,1.125,0.4375,0
42176370964,2.375,0.625,0.125
42176386715,1.5625,0.4375,0.3125
42176409866,-1.0625,0.375,0.0625
42176430916,-3.375,0.0625,-0.0625
42176446735,-2.1875,0.0625,-0.0625
42176469908,2.0625,0.3125,0.4375
42176490902,3.6875,0.75,0.625
42176506721,0.875,1.1875,0.75
42176530360,-1.75,1.125,0.1875
42176550971,-0.25,0.6875,0.125
42176566747,3.625,0.625,0.3125
42176589894,5.0625,1.125,0.8125
42176610931,3.125,1.3125,0.4375
42176626741,-0.5,1.25,-0.0625
42176649970,0,0.75,-0.3125
42176670994,2.25,0.25,-0.3125
42176686730,2.9375,0.75,0.6875
42176709884,2.5625,1.4375,0.75
42176730968,0.875,1.25,0.625
42176746721,-0.3125,0.6875,-0.125
42176769849,-1.0625,0.25,0.125
42176790968,0.6875,0.125,-0.0625
42176806782,2.4375,0.0625,0.4375
42176829898,1.9375,0.3125,0.25
42176850961,0.0625,0.25,0.4375
42176866716,-1.5,0.1875,-0.1875
42176889246,-2.1875,0.125,0.0625
42176910954,1.125,0.375,0.3125
42176933467,3.9375,0.5625,0.625
42176949198,2.625,0.75,0.5
42176970914,-1,0.6875,0.4375
42176986707,-1.4375,0.375,0.1875
42177009193,0.5625,0.3125,0
42177038491,2.6875,0.5625,0.0625
42177046778,2,0.625,0.1875
42177069330,-1,0.5625,0.3125
42177092405,-1.625,0.1875,-0.1875
42177106717,0.6875,-0.1875,-0.25
42177129289,1.5,-0.0625,0.0625
42177152454,0.3125,-0.125,0.375
42177166813,-0.625,-0.0625,0.1875
42177189355,-0.125,-0.125,-0.1875
42177212496,1.0625,-0.1875,-0.25
42177226766,0.375,0.0625,0.3125
42177249311,-0.1875,0.3125,0.375
42177272416,0.5625,-0.1875,0.375
42177286775,2.6875,-0.625,0.4375
42177316024,-0.1875,-0.4375,0.3125
42177332450,-2,-0.0625,0.125
42177346766,0.375,-0.25,0.5625
42177369331,2.375,-0.4375,1
42177392497,2.75,-0.0625,0.375
42177406763,-0.5,0.3125,0.375
42177429279,0.3125,0,0.5
42177452519,2.0625,-0.3125,0.3125
42177466848,-0.4375,0.375,-0.3125
42177489301,-2.5625,0.5625,-0.25
42177512506,-0.25,0,0.1875
42177533527,1.5,0.3125,0.4375
42177549263,1.625,0.9375,-0.125
42177572434,1.5625,1.3125,-0.6875
42177593594,1.4375,1,-0.6875
42177609341,-0.1875,-0.0625,-0.5625
42177639970,-3,-0.375,-0.5
42177653504,-0.4375,0,-0.25
42177669328,3.125,0.125,-0.5
42177692492,2.625,0.625,0.375
42177713579,-0.4375,0.9375,0.4375
42177729296,-2.5625,0.6875,0.0625
42177752503,-0.5,0.375,0.3125
42177773574,2.75,0,0.375
42177789352,2.4375,0,0.4375
42177811816,0.25,0.1875,0.1875
42177833523,-1.125,0.0625,0.125
42177857511,-1.5625,-0.1875,-0.125
42177871847,0.375,-0.1875,-0.0625
42177893596,2,0.125,0.5
42177909350,2.875,0.5625,0.9375
42177931843,2.6875,0.75,0.8125
42177953574,-0.875,0.6875,-0.0625
42177969337,-4.1875,0.25,-0.625
42177991865,-1.25,-0.1875,-0.4375
42178015010,3.375,-0.1875,0.25
42178029290,3.5625,0.125,0.5625
42178051886,1.125,0.375,0.5
42178075024,-1.3125,0.5625,0.125
42178089357,-1.4375,0.1875,0
42178111836,1.125,0.0625,0.25
42178134970,2.8125,0.25,0.875
42178149719,2.6875,0.1875,0.75
42178171821,0.5625,0.375,0.625
42178195020,-0.5625,0.125,-0.1875
42178209387,-0.5,-0.1875,-0.125
42178231834,0.25,-0.25,0.0625
42178254962,1.9375,-0.0625,0.3125
42178269341,2.4375,0,0.625
42178291815,0.375,0.375,0.5625
42178315006,-1.25,0.1875,0.0625
42178329823,-0.125,0,-0.125
42178351878,1.5625,0,0.125
42178374952,1.375,0.25,0.625
42178389301,0.9375,0.0625,0.4375
42178411859,0.4375,-0.0625,0.25
42178435050,-0.625,-0.1875,-0.125
42178449338,-0.375,-0.375,-0.25
42178472329,1.25,-0.25,0.125
42178494957,0.9375,-0.125,0.25
42178516018,-0.5625,-0.1875,0.125
42178531752,-0.75,-0.6875,-0.25
42178545401,-0.125,-0.5625,0.125
42178567918,-0.0625,-0.6875,0.625
42178591095,-0.1875,-0.375,0.4375
42178605383,-3.3125,-0.3125,0.0625
42178627920,-1.9375,-0.1875,0.5625
42178651092,0.625,-0.0625,0.8125
42178665414,1.3125,-0.0625,0.3125
42178687968,0.4375,-0.25,0.6875
42178711057,-0.1875,-0.4375,0.625
42178725493,-1.375,-0.4375,0.3125
42178747975,-2,0.125,0.25
42178771162,0.125,0.25,0.4375
42178785442,1.75,0.75,0.625
42178807996,2.1875,1.3125,-0.125
42178831136,2.8125,1.875,-1
42178845397,3.6875,1.375,-1.375
42178867908,5.375,-0.75,-0.25
42178891020,0.9375,-1.3125,0.1875
42178905381,-6.4375,-0.125,0
42178927928,-2.3125,0.1875,-0.5625
42178951032,4.875,0.4375,-0.125
42178965495,3.3125,0.6875,0.5625
42178987944,-2.375,0.4375,0.625
42179011027,-0.3125,0.5,0.625
42179025496,3.4375,0.75,0.5
42179047920,2.9375,0.875,0.0625
42179071110,1.3125,0.75,0
42179085461,0.9375,0.875,0.4375
42179107904,1.9375,1.125,0.5625
42179131133,3.0625,1.625,0.8125
42179145416,3.25,2.125,0.625
42179167878,4.6875,2.375,0.9375
42179191035,6.0625,2.4375,0.9375
42179205469,7.125,2.5,0.5625
42179227911,5.6875,2.9375,0.375
42179251130,3.625,2.9375,0.375
42179265504,4.125,2.625,0.4375
42179287941,8,2.8125,0.625
42179311037,9.9375,3.5,1.8125
42179325486,7.625,4.0625,2.25
42179347961,3.375,3.1875,1.125
42179371058,0.5625,1.25,0.375
42179385490,0.3125,0.5625,0.625
42179407941,2.0625,0.5625,1.625
42179431130,4.5,0.625,2.125
42179445414,6.5,0.5625,1.375
42179467897,2.9375,0.25,1.4375
42179491059,-1.25,0.1875,2.0625
42179505458,1.75,0.375,2.375
42179527949,6.6875,0.75,2.125
42179551097,7.5625,1.875,1.3125
42179565480,7.0625,3,1.4375
42179587938,4.8125,4.5625,2.4375
42179611066,5.4375,5.875,2.625
42179625474,9.5625,6.1875,2.0625
42179648002,11.4375,5.875,1.375
42179671071,10.0625,5.4375,0.875
42179685473,4.9375,5.625,1.4375
42179707916,2.75,4.875,1.375
42179731109,4.625,2.8125,0.9375
42179745449,4.875,1,0.75
42179767887,3.0625,0.375,1.0625
42179791090,-0.125,0.375,1.25
42179805442,-0.3125,0.4375,1.3125
42179827967,5.125,0.625,1.75
42179851132,11.125,2.8125,1.5
42179865562,9.3125,3.25,2.5
42179887902,7.5625,4.375,3.5
42179910444,9.4375,5.6875,3.6875
42179925453,18.0625,7.1875,4.25
42179947953,28.875,7.6875,5.375
42179970452,26.1875,10.25,6.1875
42179985437,26.3125,12.9375,5.3125
42180007953,38.75,13.0625,5.5625
42180030498,50.3125,18.75,2.5625
42180045474,40.0625,24.5,-6.125
42180067973,24.375,29,-8.6875
42180090483,32.9375,30.0625,-3.1875
42180105460,46.625,27,2.125
42180136074,61.125,24.5,9.5625
42180150505,64.25,35,16.3125
42180165362,51.5,49.1875,20.9375
42180187956,41.25,61.3125,27.125
42180210464,40.5625,64.6875,30.875
42180225478,55.0625,60.0625,35.75
42180247929,60.375,56.125,40.4375
42180270442,51.75,52.4375,42.3125
42180285469,43.125,47.6875,45.5625
42180307925,41.5625,46.75,48.0625
42180330430,47.25,44.25,46.4375
42180345480,51.3125,40.4375,39.875
42180369423,45.3125,33.625,29.9375
42180390457,42.1875,26.125,25.375
42180405447,36.75,21.25,24.1875
42180427947,18.25,16.5,22
42180450510,-3.8125,11.625,18.25
42180465487,-6.625,5.9375,15.1875
42180487956,4.75,3.6875,15.375
42180510431,9.6875,4,20.125
42180525460,9.75,6,28.125
42180547918,14.6875,9.3125,33.875
42180570562,17.6875,16.375,38.75
42180585433,13,22.9375,40.1875
42180608011,10.4375,28.25,40.8125
42180630448,23,32,42.3125
42180648362,32.25,34.5625,41.1875
42180667934,23.125,35.9375,34.8125
42180693416,7.6875,37.75,28.6875
42180706880,13.5,36.375,30.875
42180727984,36.75,33.9375,36.8125
42180750460,44.1875,29.375,38
42180766944,20.0625,26,36.4375
42180787995,-3.75,23.375,37.5
42180810497,-1.5625,18.75,40.5625
42180826861,12.5625,11.1875,44
42180847923,15.8125,6.125,45.25
42180870438,9.6875,5,43.625
42180886872,8.5,3.8125,41.75
42180907911,7.125,3.1875,36.5625
42180930472,2.5,3.8125,29.875
42180946915,-2.5,7.4375,23.5625
42180969469,2.75,9.875,21.875
42180990436,15.875,11.5625,19
42181006887,14.125,12.1875,10.875
42181027971,1.5625,10.6875,3.875
42181050466,2.4375,7.75,3.3125
42181066915,9.9375,3.1875,4.8125
42181087960,9.75,0.5,5.3125
42181110440,2.25,0.625,2.5625
42181126911,-8.8125,0.75,-5.0625
42181148002,-9.9375,-1.8125,-9
42181170590,2,-3.4375,-6.9375
42181186902,11.5,-4.25,-5.1875
42181207997,4.3125,-6.25,-9.5
42181230482,-8.3125,-9.375,-15
42181246928,-8.5,-10.75,-14.8125
42181267937,-1.0625,-11.5625,-12.5625
42181290444,-4.3125,-10.75,-9.0625
42181306890,-7.6875,-9.3125,-5
42181327984,-3.6875,-8.1875,-1.375
42181350498,2.125,-6.1875,2.875
42181366917,3.3125,-3,4.25
42181387991,3.375,0.375,4.125
42181410477,3.9375,2.9375,3.875
42181426939,2.625,3.75,3.4375
42181447985,1.0625,3.125,4.1875
42181470480,-0.6875,1.4375,3.5
42181486853,-3.0625,-0.125,1.9375
42181508038,-2.3125,-1.875,0.1875
42181530480,-2.3125,-2,-0.1875
42181546918,-3.25,-1.875,-0.4375
42181567977,-2.5,-2,-0.8125
42181590466,-4,-0.6875,-1.3125
42181608361,-3.25,-0.0625,-1.125
42181629358,-1,0.5625,-0.625
42181650410,0.25,1.3125,-0.25
42181666927,-0.5625,1.375,0.9375
42181689471,-1.375,0.6875,2.4375
42181710445,0.25,0.75,3.5625
42181726889,1.75,0.6875,4.125
42181749472,2.875,-0.375,4.25
42181770388,3.25,-1.5,4.375
42181786883,2.25,-1.875,4.9375
42181809462,0.3125,-1.6875,5.25
42181830464,0.3125,-1.875,4.8125
42181846926,2.5625,-1.75,3.8125
42181869451,2.875,-1.0625,2.8125
42181890503,1.25,-0.125,1.4375
42181906837,1.375,0.5,0.625
42181929486,-0.125,1.25,0
42181950460,-2.4375,1.75,-0.75
42181966843,-2.125,1.8125,-1.5
42181989351,-0.5,1.0625,-2.125
42182010526,-0.125,0.5625,-2.5
42182026910,-1.125,0.125,-2.1875
42182049401,-3.5625,0.4375,-1.25
42182070470,-3.625,0.8125,-0.4375
42182086927,-1.0625,1.125,0
42182115507,0.6875,1.25,-0.9375
42182130476,1.625,1.375,-1.0625
42182146931,1.1875,2,-0.875
42182169456,-1.0625,2.1875,-1.625
42182190514,-1.4375,2.3125,-2.125
42182206886,-0.1875,2.25,-2.6875
42182229407,-0.125,1.9375,-3.875
42182250475,-0.4375,2.4375,-5.3125
42182266939,-0.6875,2.75,-5.0625
42182289456,-1.25,3.3125,-3.1875
42182310450,-1.5,3.8125,-1.5625
42182326860,-0.625,4.125,-0.5
42182349423,-0.875,4.125,0.125
42182371520,-1.4375,2.75,1
42182386135,0.75,1.1875,1.125
42182408614,1.125,-0.25,1.125
42182431106,-3.4375,-0.5625,1.4375
42182446139,-5.3125,-0.4375,1.1875
42182468632,-2.5625,-0.8125,0.75
42182491133,-0.125,-1.0625,0.5
42182506139,1.375,-1.0625,0.3125
42182528640,1.9375,-0.25,0.125
42182551158,2.1875,0.625,0.25
42182566130,1.9375,1.25,0.75
42182588628,1.9375,1.5625,0.25
42182611167,2.0625,1.5625,-0.6875
42182626159,0.5625,2,-1.25
42182648664,-1.4375,2.4375,-1.5625
42182671190,-0.125,1.375,-0.5625
42182686161,0.3125,-0.1875,0.0625
42182708702,-1.3125,-1.3125,0.125
42182731167,-0.5625,-4.0625,0.5
42182747614,-0.75,-4.9375,2.1875
42182768620,-3.4375,-4.4375,3.9375
42182791189,-2.25,-4.375,5.125
42182807653,2.4375,-4.375,5.6875
42182828695,5.5,-3.8125,6.5
42182851228,3.625,-2.5625,7.25
42182867622,0,-1.5,8.1875
42182888659,-0.0625,-0.375,10
42182911146,1.875,-0.375,10.4375
42182927569,4.8125,-2.25,9.4375
42182948627,6.125,-1.25,7.9375
42182971149,0.9375,-0.8125,5.25
42182987599,-4.5625,-0.4375,0.75
42183008577,-5.75,-0.375,-1.4375
42183038675,0.5625,-3.875,-3
42183047567,7.4375,-2.375,-5.5625
