myoTS,x,y,z
2358355433,0.4375,2.9375,-2
2358379139,-1.3125,3.25,-2.5625
2358394079,-2.3125,3.125,-3
2358415495,-1.8125,2.9375,-2.6875
2358439120,-1.25,3.125,-1.4375
2358484069,0.3125,3,-0.8125
2358493089,2.5625,2.375,-0.875
2358501840,3.625,1.9375,-1.5625
2358516817,2.5,1.3125,-1.375
2358536865,1.125,1.25,-0.75
2358559094,1,1.1875,-0.375
2358603444,1.875,1.25,-0.375
2358604202,1.6875,1.125,-0.75
2358617798,-0.125,1.375,-0.75
2358634153,-2.4375,1.5,-0.5625
2358656675,-4.375,2.1875,-0.75
2358677759,-3.875,3.3125,-1.4375
2358694151,-2.1875,5.0625,-2.3125
2358716688,-2.5625,6.625,-3
2358737705,-11.5,2,-2.9375
2358754152,-9.1875,10.75,-7.625
2358776660,-8.4375,3.0625,-2.75
2358797754,-5.5625,1.875,-2
2358814164,10.875,-13.5,-3.625
2358836678,4.0625,-3.375,-6
2358857743,-4.125,1.5,-8.5
2358874205,-9.0625,-1,-3.5
2358896673,-19.1875,5.5625,-7.5
2358917757,-15,5.3125,-6
2358934201,-8,4.1875,-3.625
2358956715,-18.75,-7.25,6.5625
2358977772,-18.5,-8.75,9.5625
2359003266,-12.875,-3.875,5.625
2359016770,-3.5,3.5625,0.5625
2359037790,-0.875,6.25,-7.625
2359054174,-7.125,-3.5625,-3.25
2359076674,-6.4375,-3.0625,2.375
2359097734,-0.875,0.4375,4.75
2359114226,3.8125,2.5625,8
2359136700,9.25,-4.3125,5.5
2359157742,5.9375,-5.1875,0.375
2359174202,5.125,-6.9375,1.3125
2359196692,8.9375,-0.4375,-4.5625
2359219170,13.0625,6.5,-12.375
2359234230,14.125,7.875,-12.75
2359256699,14.625,3.8125,-8
2359279183,10.5625,7.0625,-0.5
2359294199,-5.125,6,3.125
2359316669,-5.125,3.875,6.75
2359339199,2.9375,3.1875,2.9375
2359354189,5.125,3.5625,2.0625
2359376698,4.9375,2,3
2359399171,4.9375,3.625,2.875
2359414173,7.8125,7.9375,0.875
2359436695,10.25,9.75,-1.1875
2359459257,11.9375,9.8125,-2.0625
2359474188,11.0625,13.25,-1.875
2359496732,14.8125,14.8125,-3.75
2359519241,17.875,15,-5.3125
2359540263,15.6875,13.1875,-4.75
2359555944,8.8125,13.6875,-2.0625
2359578446,2.9375,15.8125,-0.25
2359592746,1.875,15.8125,-0.1875
2359616685,6.375,13.8125,-0.9375
2359638444,11.75,12.5,-1.8125
2359652750,11.9375,12.0625,-1.5
2359675262,11.25,11.875,-0.5625
2359698419,8.875,11.75,-0.4375
2359712738,7.0625,10.1875,-0.375
2359735242,6.0625,8.5625,0.1875
2359758441,5.375,8.75,1.375
2359772747,3.4375,9.8125,2.0625
2359795284,3.5,9.6875,1.875
2359818450,4.875,8.4375,1.125
2359832784,5.3125,6.625,0.25
2359855315,2.625,5,-0.875
2359878456,-1.25,4.1875,-0.5625
2359892768,-3,4.4375,-0.5
2359915245,-3,3.6875,-0.4375
2359938468,-3.125,2.5,-0.875
2359952744,-2.4375,1.25,-1
2359975311,-2.875,3.0625,0
2359998435,-2.5625,5.25,1.0625
2360012781,-0.875,6.1875,1.5625
2360035263,3.9375,5.25,2
2360058455,10.5625,1.9375,3.4375
2360072806,11.75,-1.6875,3.3125
2360095306,10.3125,-3.8125,2.0625
2360118449,9.75,-5.625,0.6875
2360132803,5.875,-6.8125,0.3125
2360155311,0.0625,-5.375,2.8125
2360178423,-4.9375,-1.75,3.5
2360192826,-4.3125,-0.0625,2.8125
2360215275,1.6875,0.4375,1.5
2360238471,6.75,0.4375,0.375
2360252770,6.0625,0.875,1.125
2360275255,3.9375,1.625,2.1875
2360298419,2.75,0.875,2.3125
2360312772,3.375,-0.25,1.625
2360336723,4.25,-2,1.5
2360358444,1.375,-1.75,1
2360372776,-2.9375,-0.25,0.5
2360395281,-6.125,0.1875,0
2360418411,-5.6875,-0.6875,-1
2360432800,-5.375,-1.3125,-0.625
2360455295,-6.5,-0.9375,-0.3125
2360478442,-7.75,0,-0.1875
2360492836,-8.9375,0.125,-0.1875
2360515256,-5.875,-0.5,-0.125
2360538462,-4.1875,-0.3125,0.4375
2360552886,-4.625,0.0625,0.375
2360575461,-2.5625,-0.375,-0.25
2360598477,-0.4375,-0.75,-0.8125
2360612936,0.875,-0.6875,-0.625
2360635397,0.3125,-0.625,-0.4375
2360658054,-0.75,-0.75,-0.25
2360673035,-1.25,-1,0
2360695401,-0.5625,-1.3125,0.0625
2360718008,-0.6875,-1.3125,0.5
2360732928,-0.25,-0.5,1
2360755479,0.6875,0.25,0.1875
2360777991,2.375,0.125,0
2360792984,3.4375,-0.75,-0.3125
2360815405,3.0625,-0.9375,-0.0625
2360837994,-0.3125,-0.3125,0.3125
2360852797,-2.6875,0.0625,0.5625
2360875514,-1.9375,-0.375,-0.0625
2360897834,0.3125,-1.25,-0.625
2360912783,0.875,-1.875,-1
2360935283,0,-1.75,-0.75
2360957717,-0.1875,-1.6875,-0.4375
2360972753,-0.8125,-1.125,0
2360995297,-0.75,-0.625,0.0625
2361017866,-0.3125,-0.3125,-0.25
2361033026,-0.375,0.125,-0.25
2361055396,-0.5625,0.6875,-0.0625
2361077997,0.1875,0.6875,0.3125
2361093029,1.125,0.0625,-0.0625
2361115513,1.6875,-0.125,-0.5
2361137885,0.875,0.1875,-0.375
2361153098,-0.75,0.875,0.3125
2361175480,-1.6875,1.0625,0.4375
2361197991,-1.25,0.625,0.125
2361212946,0.125,-0.4375,-0.25
2361235295,1.0625,-1.125,-0.4375
2361257757,-1.1875,-0.875,-0.4375
2361272977,-3.4375,-0.8125,-0.5
2361296874,-3.25,-1.25,-0.8125
2361317834,-2.3125,-1.6875,-0.5625
2361332947,-2.5,-0.875,0.125
2361355385,-3.1875,0,0.8125
2361377872,-1.3125,0.375,0.9375
2361394324,2.4375,0.125,-0.1875
2361415501,4.0625,-0.25,-0.5625
2361437931,2.375,0.125,-0.625
2361454367,-0.0625,0.625,-0.3125
2361475293,4.375,4,2.0625
2361497776,7.9375,-7.3125,1.625
2361514221,4.5625,-3.875,0.0625
2361535405,5.125,-4.4375,-0.5
2361558030,5.125,-8.375,-2
2361574217,4.625,-8.875,-1.5
2361595523,-2.875,-6.0625,-2.875
2361617848,-11.0625,-5.0625,-3.375
2361634317,-11.5,-2.5,-1.4375
2361655459,-5.0625,0.75,0.0625
2361677993,-1.625,2.3125,0.125
2361694320,-3.625,3.25,-0.25
2361715493,-12.25,7,-2.1875
2361737925,-15.1875,12.875,0
2361754295,6.75,8.4375,0.875
2361775290,5.875,3.5625,1.125
2361797780,4.5,4.5,1.625
2361814258,3.125,3.1875,1.0625
2361835514,4.75,1.0625,0.5625
2361857933,4.3125,0.4375,0.5
2361874347,-0.5625,0.125,0.5625
2361895507,-0.6875,-0.75,-0.1875
2361917975,1.6875,-1.75,-1.8125
2361934307,2.5,-1.6875,-2.375
2361955475,0.4375,-0.9375,-2
2361978087,-1.875,-0.6875,-1.5625
2361994271,-2.3125,-0.9375,-1.625
2362015498,-1.9375,-1.25,-1.375
2362037941,-0.875,-1,-0.9375
2362054364,0.5,-0.75,-0.6875
2362075269,1.5,0.3125,-0.375
2362097811,2.375,1.6875,0.125
2362114253,2.4375,2.75,0.8125
2362135441,2.5,3,0.8125
2362157928,3.5625,2.0625,0.625
2362174300,3.6875,0.75,0.0625
2362195594,1.6875,0.0625,0.1875
2362218064,-0.875,0.4375,0.375
2362234369,-1.5625,0.375,0.1875
2362255570,-0.1875,0.125,-0.3125
2362279380,0.875,-0.4375,-0.375
2362294347,0.6875,-0.6875,0.5
2362315581,-0.0625,0.0625,0.6875
2362337850,0.4375,0.9375,0.1875
2362354340,3.25,2,-0.625
2362376816,5.9375,1.75,-1.125
2362397770,4.875,0.8125,-1.5
2362414277,7.25,1.75,0.1875
2362436774,10.125,4.8125,-1.1875
2362458042,15.5625,8.375,-4
2362474322,19.0625,11.9375,-3.8125
2362496822,16.3125,14.25,-0.4375
2362518103,14.1875,18,4.375
2362534308,15.875,21.5625,6.875
2362556825,22.0625,23.5625,7.25
2362577988,31.9375,25.5,8.8125
2362594353,28.875,28.125,14.5
2362616781,13.625,29.75,16.875
2362637988,13.8125,29.25,18
2362654328,32.4375,25.625,16
2362676865,47,22.5625,14
2362697888,40,24.3125,15.375
2362714373,21.4375,28.75,19.125
2362736838,13.875,32.1875,21.375
2362758113,22.375,30.8125,21.1875
2362774366,35.5625,28.6875,20.5
2362796751,38.3125,26.75,19.0625
2362817889,28.8125,24.375,20.0625
2362834236,19.1875,19.5,21.8125
2362856779,16.0625,13.75,21.25
2362877844,14.5625,7.25,18.3125
2362894408,11.3125,-0.375,16.625
2362916883,6.1875,-8.1875,14.25
2362937813,0.625,-15.4375,12.875
2362954334,-10.375,-17.8125,10.625
2362976814,-26.5625,-18.4375,8.4375
2362997834,-43.625,-17.25,7.3125
2363014299,-51.5,-15.25,5.5625
2363036817,-49.3125,-14.125,1.6875
2363057841,-43.375,-12.8125,0
2363074273,-36.0625,-9.25,-0.5
2363096791,-31.0625,-5.3125,-1.0625
2363117782,-21.4375,-3.75,-1.125
2363134272,-9.0625,-3.25,-1.1875
2363156763,-5.1875,-2.4375,-1.625
2363177827,-11.8125,-1.0625,-1.375
2363194242,-24.875,1.8125,-2.375
2363216745,-31.625,4.6875,-3.1875
2363238113,-29.6875,8.625,-3.125
2363254391,-26.4375,12.1875,-0.875
2363276848,-24.75,14.6875,1.5625
2363299362,-18.6875,17.9375,2.5
2363314325,-5.9375,23.875,-2
2363336799,1.875,28.875,-2.75
2363359277,1.5625,32.125,-6
2363374293,-5,33.1875,0.875
2363396795,-6.75,26.6875,6.8125
2363419311,-9.1875,28.875,-4.9375
2363434337,-9.375,25.3125,9
2363456191,-2.5625,23.9375,14.4375
2363478536,-0.25,17.25,26.125
2363494310,2.5625,21.4375,16.1875
2363516009,-0.3125,22.6875,16.125
2363538486,-7.75,22.8125,18.9375
2363554284,-15.875,20.6875,21.9375
2363575997,-17.9375,17.375,23.6875
2363598600,-11.875,14.4375,23.375
2363614257,-6,12.1875,24.625
2363636016,-10,10.5625,25.6875
2363658689,-17.3125,8,25.9375
2363674250,-14.6875,4,24.5
2363696150,-3,0.9375,22.5625
2363718561,3.375,-0.75,19.875
2363741219,1.375,-2.375,17.9375
2363756164,-0.3125,-3.25,16.75
2363778695,2.8125,-2.8125,13.8125
2363801095,8.5625,-1.8125,8.625
2363816013,11.1875,-0.5,3
2363838653,9.0625,0.5625,-2.6875
2363855026,5,1.8125,-7.1875
2363876039,2.625,2.6875,-9.875
2363898514,1.5625,3,-12.625
2363915014,2.5625,3,-15.0625
2363936404,4.6875,2.75,-16.5625
2363959983,6.9375,3.125,-17.3125
2363981037,7.75,4.9375,-17.9375
2363996038,6.9375,7.6875,-17.5
2364018510,6,10.6875,-17
2364041022,8,12,-17.375
2364056201,9.5625,11.9375,-16.875
2364078663,10.875,11.3125,-15.625
2364101041,11.5625,10.5,-14.1875
2364116063,12.5625,8.6875,-13.75
2364138514,11.6875,6.8125,-13.75
2364161040,10.1875,4.625,-14
2364175994,9.8125,2.75,-13.75
2364198460,7.6875,1.0625,-13.9375
2364221189,3.75,-0.0625,-13.5625
2364236068,2.125,-1.5,-13.125
2364258765,3.5,-3.125,-12.375
2364274417,4.5625,-4.3125,-11.3125
2364296188,4.625,-4.9375,-10.5625
2364318589,4.8125,-5.625,-9.75
2364334299,4.25,-6.3125,-8.875
2364356219,2.4375,-5.9375,-8.4375
2364378589,0.1875,-5.0625,-8.375
2364394386,-0.625,-4.625,-7.9375
2364416032,-0.5,-4.5625,-7
2364438517,0.8125,-4.25,-5.9375
2364454303,2.625,-3.9375,-4.875
2364477448,3,-3.375,-3.8125
2364499980,2.3125,-2.875,-3.0625
2364514302,2,-2.8125,-3.0625
2364537490,2.3125,-3,-2.75
2364558514,3.125,-3.125,-1.875
2364574287,4.3125,-3.4375,-1.3125
2364597451,3.6875,-3.3125,-1.625
2364618543,1.125,-3.1875,-2.375
2364634387,-0.8125,-2.6875,-2.875
2364657459,0.0625,-2.1875,-2.9375
2364678502,2.5,-2.1875,-3.5
2364694299,3.375,-2.5,-3.6875
2364717448,3.0625,-2.875,-3.25
2364738599,2.625,-2.9375,-2.9375
2364754445,2.6875,-3.25,-2.8125
2364777467,4.4375,-3.625,-2
2364798597,5.125,-4.0625,-1.0625
2364814342,3.8125,-4.5625,-0.4375
2364837443,3.8125,-5,0.5
2364858542,5,-6,0.625
2364874406,6,-6.5,1.75
2364897496,6.5,-6.25,1.5
2364918569,5.9375,-4.5625,1.875
2364942442,3.5625,-2.5625,2
2364957514,2.0625,-0.5625,2.5625
2364978571,3.5,0.5,2.3125
2364994439,5.8125,0.75,1.25
2365017487,5.5,0.6875,-0.1875
2365038515,4.125,0.3125,-1
2365054303,2.625,-0.125,-1.125
2365077437,2.25,-0.125,-1.6875
2365098525,1.5625,0.125,-2.5
2365114505,0.3125,-0.1875,-2.875
2365137470,0.75,-1,-1.8125
2365158695,2.0625,-1.25,-0.6875
2365174296,2.5,-1.0625,-0.375
2365196867,1.5625,-1,-0.25
2365218701,1.1875,-0.8125,0.5
2365234301,1.25,-0.1875,1.0625
2365256922,1.4375,0.5625,1.5625
2365278707,1.6875,1.5,1.75
2365294358,2.0625,2.25,2.375
2365316869,2.75,3.375,3
2365338472,2.25,4.75,3
2365354395,2.4375,5.25,3.5625
2365376847,3.0625,5.5,4.125
2365400021,3.75,5.9375,4.4375
2365414411,2.5625,6.875,4.875
2365436816,0.1875,8.3125,5.1875
2365459984,-0.9375,9.0625,4.75
2365474360,2.1875,9.5,5.6875
2365496842,3.6875,9.5,5.6875
2365520051,2.0625,10.0625,6.9375
2365534412,-0.625,10.4375,8.9375
2365556929,-3.0625,11.375,11.5
2365579990,-4.5,14.125,13.5625
2365594332,-3.9375,17.125,17.875
2365616945,-4,18.875,22
2365639999,-4.8125,20.75,27.625
2365654420,-5.3125,21.0625,32.6875
2365676815,-5.5625,20.375,36.5625
2365699962,-4.5,20,38.5
2365721135,-5.6875,19.8125,43.0625
2365736798,-7.375,18.75,49.25
2365760069,-7.6875,16.625,55.625
2365781240,-8.125,14.5625,62.1875
2365796922,-8.875,13.6875,67.875
2365820072,-9.5,12.6875,73.1875
2365841064,-8.375,12.8125,80
2365856911,-6.125,12.25,84.8125
2365887504,-3.3125,11.3125,87.9375
2365901122,-1.4375,9.875,89.875
2365916966,0.125,9.5,90.8125
2365940087,2.375,10.0625,90.625
2365961045,2.5,10.3125,88.5
2365976846,-0.25,7.3125,85.125
2365999969,-0.125,4.1875,82.75
2366021086,8.8125,0.125,74.25
2366036857,22.75,-8.8125,63.0625
2366059995,29,-15.3125,63.375
2366081063,22.1875,-14.4375,57.3125
2366096822,12.5625,-6.75,39.1875
2366119395,29.625,-1.5625,23.0625
2366141053,50.625,0.1875,15.8125
2366156926,58.625,5.5,14.875
2366179393,54.25,8.875,18.4375
2366201118,26.125,8.5,18.5
2366216863,-7.375,8.75,9.4375
2366239482,0.0625,9.75,6.25
2366261220,29.4375,8.8125,-9.0625
2366276889,42.375,3.5,-18.1875
2366299429,36.0625,4.875,-19.4375
2366322494,26.75,0.5,-16.5625
2366336958,30.1875,-0.875,-18.875
2366359479,41.6875,-0.5625,-21
2366382479,48.125,-5.8125,-25.8125
2366396819,38.8125,-8.25,-25.5625
2366419427,36.4375,-6.8125,-12.1875
2366442536,39.5,-3.25,-2.625
2366456852,41.5,2.1875,-4.4375
2366479389,29.875,9.25,-8.375
2366502528,13.9375,10.6875,-10.375
2366516812,6.125,6.6875,-8.5625
2366539414,4.5625,2.875,-6.75
2366562525,-4.4375,-3.9375,-6.8125
2366576946,-13.375,-9.625,-9.5625
2366599422,-12.125,-8.1875,-13.375
2366622566,-2.875,-6.5,-19.25
2366643546,6,-5.875,-19.875
2366659506,18.25,-4.625,-12.375
2366682631,24.6875,-2.3125,-3.75
2366703728,20.4375,-1.0625,1.5
2366719858,14.75,0.125,4.625
2366742524,17.6875,0.25,4.375
2366764110,15,5.3125,1.75
2366779421,19.9375,7.8125,3.0625
2366802495,20.5,4.5625,7.75
2366823555,14.25,-0.6875,7.0625
2366839397,8.0625,-5.5625,6.5
2366862537,-1.875,-9.25,11.5
2366883628,-8.1875,-11.9375,15
2366899534,-10.375,-17.125,14.125
2366930039,-9.75,-24.5625,10.875
2366943711,-9.0625,-31.625,10.8125
2366959539,-13.375,-33.75,10.9375
2366982576,-24.3125,-33.3125,9.8125
2367003579,-33.9375,-33.5,6.625
2367019479,-39.75,-37.0625,2.625
2367042632,-37.0625,-41.375,0.25
2367063602,-38.4375,-40.25,1.125
2367079522,-45.125,-35.25,5.375
2367101861,-55.3125,-30.4375,6.1875
2367123747,-46.75,-29.4375,5.1875
2367139433,-24.9375,-28.875,3.6875
2367161880,-13.9375,-27.8125,4.8125
2367183993,-18.375,-25.375,6.3125
2367199392,-27.25,-24.75,5.375
2367221833,-31.125,-22.3125,3.5625
2367243700,-30.625,-18.75,3
2367259489,-26.875,-15.0625,2.3125
2367281958,-20.6875,-12.1875,1.625
2367305077,-14.5,-10.6875,1.5
2367318633,-12.5,-9.3125,1.8125
2367332990,-15.0625,-7.9375,3.4375
2367355459,-19.1875,-7.9375,5.25
2367378645,-20.5625,-9.125,5.9375
2367393108,-18.9375,-11.3125,5.9375
2367415576,-18.375,-13.25,3.5
2367438639,-15.625,-15.375,1.8125
2367452973,-11.5,-13.8125,0.9375
2367475657,-13.6875,-10.375,0.5625
2367498747,-17.5,-6.5,0.75
2367513101,-17.0625,-3.375,0.1875
2367535474,-10.125,-0.1875,-1.4375
2367558642,-3.375,3.5625,-2.875
2367572971,0.1875,6.3125,-1.875
2367604444,0.0625,8.6875,1
2367618634,-2.25,12.625,4.375
2367632944,-2.9375,15.5,6.5
2367655639,-4.375,16.5625,6.6875
2367678643,-3.3125,16.375,7.3125
2367693150,1.0625,14.9375,8
2367715630,3.9375,13.9375,7.5625
2367738777,6.125,12.8125,6
2367753124,3.875,11,4.3125
2367775653,0.75,8.1875,4.0625
2367798645,-6.1875,4.9375,2.3125
2367812924,-14.3125,4.875,-2
2367835476,-15,4.25,-6.125
2367858599,-7.9375,4.0625,-11.5625
2367872987,1.625,3.4375,-13.4375
2367895430,3.9375,2.1875,-10.9375
2367918659,1.1875,2.0625,-7.75
2367933120,0.0625,2.5625,-6.5
2367955609,5.875,3.8125,-6.25
2367978759,17.0625,4.8125,-5.3125
2367992994,23.0625,5.3125,-4
2368015493,22.625,5.3125,-2.625
2368038738,12.75,6.0625,-2.1875
2368053192,3.5,7.8125,-2.25
2368075636,1.4375,7.9375,-3.5
2368106870,7.125,8.25,-4.5
2368112986,17.8125,8.125,-4.0625
2368135487,21.0625,7.125,-3.125
2368158632,19.75,6.625,-2.5
2368172952,15.875,5.8125,-1.75
2368195437,15.8125,5.1875,-2.9375
2368219430,18.5,2.0625,-1.9375
2368232925,15.625,0.25,-0.75
2368255469,8.4375,0.0625,0.0625
2368278119,4.9375,0.9375,-0.375
2368293080,7.25,1.8125,-0.25
2368315635,17.4375,1.9375,1.5625
2368338143,24.75,2.5625,2.1875
2368353071,25.75,2.75,2.8125
2368375472,20.8125,1.875,3.375
2368397956,12.5625,0.3125,3.75
2368413151,5.1875,-1.1875,4.375
2368435517,1.375,-2.125,4.375
2368458142,1.9375,-3.25,1.125
2368473147,9.8125,-4.3125,-6
2368495453,20.3125,-4.3125,-12.0625
2368518002,26.125,-4.875,-9.0625
2368533102,18.3125,-3.6875,-8.8125
2368555533,-7.5,-2.4375,-21.5625
2368577974,-8.8125,-3,-32.75
2368601119,4.0625,-11,-31.375
2368615518,2.25,-9.25,-21.375
2368637914,-14.25,5.3125,-12.3125
2368652930,-46.125,29.1875,-8.6875
2368675555,-62.1875,45.25,-3.5625
2368698041,-71.9375,56.375,-12.5
2368713041,-88.25,75.25,-23.125
2368735510,-90.0625,89.1875,-24.75
2368758068,-81.875,98.5625,-24.0625
2368773199,-81.1875,104.312,-25.5
2368795532,-93.375,108.312,-28.875
2368818058,-111.688,113.625,-30.25
2368833071,-125.812,121.438,-24.5
2368855510,-134.562,128.938,-20
2368878041,-136.25,133.25,-23.25
2368893016,-133.125,137.938,-26.875
2368915700,-124.938,143.25,-22.75
2368938181,-125.438,146.438,-13
2368954397,-134,147.062,-8.125
2368975495,-136.062,143.938,-6.5625
2368997990,-125.75,143.312,1.875
2369014513,-121.688,142.625,6.5
2369035532,-117.375,137.875,0.125
2369058119,-110.625,132.125,-0.375
2369074482,-123.375,127.812,12.3125
2369095490,-145,121.375,21.6875
2369118016,-155.375,116.125,15.25
2369134474,-134.375,118,12.125
2369155563,-84.25,126.125,27.875
2369177983,-45.75,142.812,54.0625
2369194434,-25.625,168.25,75.1875
2369215452,2.0625,190.938,77.25
2369237982,38.5,196.438,66.6875
2369255700,63.1875,187.562,56.3125
2369275480,61.8125,182,47.3125
2369297996,51,172.562,38.25
2369314444,30.875,151.125,26.9375
2369335548,10.1875,120.125,13.5625
2369358131,11.9375,89.9375,-0.875
2369374503,8.5,70.6875,-14.75
2369395695,1.625,53.375,-19.25
2369418042,-4,26.625,-28.9375
2369434420,-7.5625,-1.0625,-31.75
2369455638,-16.625,-17.5625,-26.5625
2369495066,-16.3125,-31.25,-19
2369497479,-23.6875,-38.875,-18.1875
2369515532,-13.4375,-41.25,-14.1875
2369537984,-7.75,-44.125,-9.5625
2369554442,-11.9375,-48.3125,-2.625
2369575522,-8.875,-49.5,0.25
2369597970,3.4375,-50.875,2.25
2369614431,15.6875,-57.4375,3
2369635470,20.5,-65.25,6.4375
2369658022,8.875,-72.8125,11.3125
2369674532,-8.75,-78.1875,10.375
2369695674,-20.9375,-81,5.5
2369718068,-20.25,-83.9375,1
2369734417,-17,-89.875,-7.5
2369755674,-11.8125,-96.5625,-17
2369778154,-20.0625,-106.688,-22.1875
2369794496,-16.875,-112.875,-31.0625
2369815507,-8.25,-118.688,-39.5
2369837984,-14.6875,-126.938,-44.5625
2369854414,-26.875,-132.875,-54.4375
2369875713,-34.1875,-133.438,-60.1875
2369899397,-39.375,-129.875,-56.375
2369914534,-45.9375,-120.5,-55.6875
2369936904,-24.3125,-113.812,-62.0625
2369958039,19.1875,-117.375,-53.5625
2369974545,23.8125,-127.688,-42.25
2369997031,9,-125.25,-45.8125
2370017986,-5.5,-126.75,-51.5625
2370034472,-0.625,-129.188,-42.4375
2370056928,15.75,-129.312,-16.8125
2370078000,32.125,-124.875,-7.3125
2370094396,55.3125,-129.812,-26.125
2370116953,86.9375,-143.625,-39.5
2370137992,100.625,-152,-31.375
2370160497,118.875,-150.125,-10.4375
2370176912,112.25,-148.875,1.1875
2370198004,74.4375,-153.938,-0.875
2370214398,28.5,-157.625,-15.0625
2370236983,16.875,-163.812,-24.5
2370258036,37.125,-168.562,-19.625
2370274401,64.9375,-156.25,-13.8125
2370296979,90.75,-143.125,-11.75
2370317994,105.938,-144.625,-2.75
2370334453,108.5,-150.812,-0.75
2370356945,95.5,-145.062,-2.5
2370378049,65.5,-136.188,-5.8125
2370394477,57.25,-133.875,-1
2370416973,61.625,-125.25,8.5
2370437973,50.5,-110.25,3.125
2370454443,34.6875,-95.5625,-15.0625
2370476936,21.75,-88.3125,-16.1875
2370497977,22,-83.875,-9.9375
2370514449,34.3125,-72.8125,-3.5
2370536978,55.6875,-66.875,0.25
2370557987,84.875,-68.9375,3.4375
2370575868,95.375,-69.0625,3.9375
2370604425,86,-66.375,0.1875
2370618022,65.4375,-63.625,-7.75
2370634454,45.375,-59.6875,-15.375
2370656949,34.25,-63.8125,-18.75
2370678014,17.5625,-70.125,-20.625
2370694449,6.875,-73.8125,-23.375
2370716953,14.3125,-78.1875,-30.4375
2370738001,42.75,-88.75,-36.5
2370754494,49.3125,-84.875,-32.875
2370776979,37.1875,-66.125,-19.125
2370797993,-13.5,-23.75,11.75
2370814466,-30.5,9.125,24.25
2370836914,-32.4375,25.625,28.125
2370859419,5.8125,30.6875,22.5
2370874443,53.125,22.1875,8
2370896960,62.125,8,-4.8125
2370919461,40.5,-2.375,-10.5
2370934426,18.25,-7.3125,-9.0625
2370956931,13.8125,-6.3125,-9.0625
2370979500,21.125,-3.1875,-9.5625
2370994432,25.5625,0.5625,-6.5
2371016948,18.875,3.75,-2.75
2371039472,2.6875,6.1875,-0.5625
2371055952,-12,6.1875,1.5625
2371076946,-15.75,3.8125,2
2371099450,-11.75,1.4375,1.8125
2371115914,-5.25,0.75,0.8125
2371136926,1.875,0.6875,-0.375
2371160923,6.75,0.625,-1.25
2371175912,7.3125,0.5625,-1.6875
2371196950,4.8125,0.625,-1.5
2371219433,2.125,0.6875,-0.9375
2371241201,-0.625,-0.0625,0.1875
2371256176,-2.9375,-1.1875,1.3125
2371278663,-4.75,-1.125,1.5
2371301185,-4.375,-0.375,1.5625
2371316136,-2.1875,0.625,1.3125
2371338727,-0.5,1.0625,0.9375
2371361198,-0.125,0.9375,0.4375
2371376225,-0.75,0.3125,0.1875
2371398714,-1.0625,-0.1875,0.3125
2371421224,-0.5,-0.875,0.375
2371436200,0,-1.125,0.1875
2371458702,0,-0.5625,-0.1875
2371481165,0.375,-0.0625,-0.5
2371496201,1.5,-0.125,-0.75
2371518699,2.1875,-0.3125,-0.875
2371541186,1.6875,-0.5625,-0.8125
2371556209,0.75,-0.5625,-0.5625
2371578694,0,-0.8125,-0.5625
2371601164,0.75,-1.25,-0.5625
2371616200,3.9375,-1.125,-0.25
2371638644,3.75,-0.625,-0.4375
2371661176,1.625,-1.1875,-0.5
2371676212,0.0625,-2.1875,-0.75
2371698686,2.75,-3.5,-1.0625
2371721229,7.625,-4.8125,-2.4375
2371736197,4.5625,-7.625,-9.9375
2371758669,13.625,-5.8125,-12.875
2371781209,46.375,-5.8125,-10.25
2371796158,65.5,-5.5,-7.625
2371818709,41.75,3.5,-6.1875
2371841189,-4.125,18.1875,-2.0625
2371856233,-28.5625,32.375,18.75
2371878738,-11.75,40.6875,36.625
2371901255,4.8125,50,29.6875
2371916225,-11.6875,64.625,8.25
2371938704,-36.5,76.0625,-4.9375
2371961175,-65.0625,99.5625,1.3125
2371976232,-66.5625,117.375,10.5625
2371998717,-53.375,132.875,10.25
2372021189,-57.1875,146.812,2.125
2372037630,-61,157.938,-0.375
2372058665,-59.375,172.875,7.5625
2372081190,-65.5625,193.562,6.5625
2372097656,-79.625,208,3.0625
2372118705,-85.875,216.625,-1.75
2372141194,-95.9375,221.5,-4.0625
2372157620,-115.188,224.062,-3.8125
2372178696,-129.375,228.438,1.375
2372194448,-122.625,229.375,9.75
2372217650,-104.75,225.312,15.5
2372238730,-94,216.5,10.25
2372254988,-94.375,209,9
2372277645,-88.9375,203,15.25
2372298711,-80.3125,193.688,27.5625
2372321170,-87.4375,181.875,29.1875
2372337700,-120.75,167.875,9.25
2372358731,-150.562,148.438,-6.9375
2372381228,-175.75,129.812,4.375
2372397655,-196.312,122.375,25.5
2372418705,-181,129.875,31.75
2372441891,-126.062,143.188,42.3125
2372457626,-40.625,160.562,54.3125
2372478685,35.4375,171.875,51.8125
2372501892,75.0625,176.25,57.25
2372517641,89.875,188,83
2372538754,94.375,191.312,98.75
2372563988,88.75,191.562,101.438
2372577648,101.438,180,85.4375
2372598768,105.875,176.25,57.25
2372621211,85.125,159.312,37.6875
2372637652,37.875,133.75,41.9375
2372658732,1.125,99.0625,51.5
2372681259,-3.9375,66.5,37.8125
2372697659,12.3125,46.875,7.9375
2372718918,33.8125,33.125,-12.6875
2372741259,37,7.375,-5.6875
2372756998,14.625,-26.125,5.8125
2372778905,-13.875,-51.25,4.8125
2372801317,-29,-66.5625,2.25
2372817038,-25.3125,-76.75,-1.9375
2372838711,-14.6875,-87.5,-4.625
2372868749,-4.6875,-98.8125,-8.875
2372877078,15.8125,-106.312,-7.9375
2372898892,20,-110.688,-8.9375
2372921340,4.6875,-119.688,-6.75
2372936963,-16.375,-127.25,-8
2372960120,-40.3125,-131.438,-18.9375
2372981306,-57.3125,-133.312,-32.0625
2372997123,-64.5625,-136,-43.25
2373020238,-59.875,-141.5,-49.375
2373041265,-55.4375,-151.312,-62.3125
2373056981,-52.0625,-160,-81.6875
2373080248,-40.375,-169.25,-92.0625
2373102670,-31.5625,-179.5,-96.625
2373117087,-33.75,-182.625,-97.5625
2373140147,-27.125,-174.812,-84.6875
2373161238,-23.8125,-156.875,-62.3125
2373177024,-11.5625,-134.688,-53.25
2373200327,29.875,-125.938,-59.6875
2373221427,75.8125,-129.062,-60.9375
2373237028,121.812,-130,-47.75
2373260144,157.688,-128.875,-33
2373281287,151.062,-128.125,-24.75
2373297065,107.062,-128.188,-16.625
2373320187,69.75,-130.688,-5.375
2373341398,55.3125,-133.688,-1.5
2373357108,59.4375,-133.5,-2.0625
2373380299,73.125,-135.688,-0.75
2373401276,80.5,-142.5,-7.8125
2373416966,91.0625,-144.062,-21.4375
2373440130,92.4375,-136.562,-22.9375
2373461296,82,-128.75,-18.3125
2373477133,65.875,-122.875,-15.9375
2373500227,45.75,-113.312,-13.9375
2373521215,30.875,-108.312,-17
2373537001,25.4375,-105.75,-16.4375
2373560236,21.8125,-103.125,-18.125
2373588794,27.125,-100.75,-21.5625
2373597020,32.9375,-99.8125,-18.5625
2373620165,39.0625,-99.5625,-14.375
2373641400,42.9375,-91.375,-7.0625
2373657532,36.375,-78.1875,0.9375
2373680258,52.375,-79.0625,1.8125
2373701302,71.125,-75.1875,11.8125
2373717049,97.9375,-72.75,16
2373739536,95.5,-71,12.25
2373761314,80.0625,-65.75,5.8125
2373777110,57.25,-60.125,11.1875
2373799592,35.125,-58,12.5
2373821291,21.0625,-56.875,8.0625
2373837016,19.125,-54.25,6.125
2373859628,35.1875,-54.5625,7.6875
2373881462,47.3125,-55.375,14
2373896993,50.8125,-59,15.6875
2373919514,51.625,-65.3125,15.5625
2373942705,54.125,-60.625,14.625
2373957083,17.875,-25.125,7.25
2373979558,-39.0625,10.1875,-9.625
2374002656,-55.1875,24.625,-23
2374017045,-20.4375,14.3125,-25.8125
2374039522,15.25,-4,-22.6875
2374062662,29.875,-16.4375,-18.5625
2374077086,27.375,-20.25,-7.6875
2374099644,16,-13.875,0.875
2374122694,4.8125,-4.5625,2.3125
2374137123,6,1.3125,0.25
2374159617,18.1875,2.375,-4.375
2374182792,19.75,-1.0625,-2.8125
2374197111,5.125,-1.875,-8.125
2374219499,-6.625,-2.6875,-7.25
2374242760,-11.375,-2.25,-5.875
2374257055,-8.25,-0.5,-6.1875
2374279609,10.875,0.9375,-6.6875
2374302692,24.25,0.4375,-7.625
2374323785,21.3125,1.125,-8.75
2374339548,12.6875,1.125,-7.5625
2374362733,7.0625,0.3125,-6.6875
2374383812,4.5625,0.125,-5.5625
2374399594,2.625,1.0625,-4.25
2374422750,-0.125,2.1875,-2.875
2374443784,-1.4375,2.5,-1.625
2374459609,-2.1875,1.75,-1.375
2374490290,-1.5,1.0625,-1.5
2374503889,0,0.875,-1.9375
2374519560,1.375,0.5625,-2
2374542710,3.0625,0.4375,-1.9375
2374563891,3.5625,0.25,-1.6875
2374579554,2.8125,0.5625,-1.875
2374602685,1.375,1.1875,-1.4375
2374623940,-1,1.625,-1.375
2374639662,-3.125,1.3125,-1.3125
2374662101,-3.25,0.6875,-1.125
2374683955,-3.9375,-1,-0.1875
2374699585,-3.125,-1.1875,-0.4375
2374722073,-0.75,-0.5625,-0.375
2374743919,1.375,0.1875,0.0625
2374759586,0.875,0.8125,0.1875
2374782078,-0.5625,1.125,-0.5625
2374803757,-1.875,0.75,-0.375
2374819517,-2.0625,0.625,-0.25
2374842088,-1.5,0.3125,-0.375
2374865179,-1.3125,0.1875,-0.4375
2374879515,-1,-0.3125,0.1875
2374902054,-1.3125,-0.75,0.5
2374925217,-2.5,-0.75,0.6875
2374939516,-3.375,-0.1875,0.8125
2374962101,-3.375,0.5,0.4375
2374985221,-1.75,0.5,0.1875
2374999570,-1.0625,0.9375,-0.3125
2375022153,0.625,0.9375,-2.4375
2375045752,-6.375,1.5625,-0.5625
2375059585,-4.625,1.875,-0.0625
2375082021,1.375,0.5,-0.8125
2375105189,4.5,0.125,-0.6875
2375118768,4.0625,0.6875,-2.4375
2375133274,4.0625,1.9375,-5.75
2375155801,7.5625,1.625,-8.8125
2375178930,9.6875,1.5,-12.8125
2375193302,10.4375,0.5625,-16.5625
2375224626,36.25,10.75,-14.125
2375238776,72.9375,17.5625,-8.375
2375261418,84.25,22.75,2.8125
2375275722,48.5625,47.375,17.125
2375298791,9.4375,69.9375,12.3125
2375321349,-10.1875,91.6875,-3
2375335631,-47.25,121.062,-11.375
2375358842,-64.625,150.875,-11.75
2375381278,-55.5625,169.312,-4.6875
2375395683,-45.625,182.125,-7.6875
2375418775,-45.1875,189.812,-13.3125
2375441484,-55.5625,195.875,-14.75
2375455676,-76.375,199.688,-15.625
2375478700,-100,203.688,-17.75
2375501277,-110.188,205.875,-16.125
2375515818,-111.438,203.625,-17.3125
2375538301,-118.625,199.188,-14.875
2375561465,-126.75,197.5,-8.25
2375575788,-127,195.375,-1.875
2375598296,-119.125,193.188,3.3125
2375621339,-104.875,190.25,11.75
2375635629,-92.875,184.75,18.8125
2375658097,-78.625,179.625,26.6875
2375681277,-64.25,176.688,32.0625
2375695651,-47.875,173.688,28.875
2375718143,-46.5625,170.375,16.5
2375741275,-46.0625,165.688,6.8125
2375755623,-41.6875,157.25,12.25
2375778197,-42.4375,150.5,23.6875
2375801425,-48.1875,147.188,19.5625
2375816976,-49.3125,141.625,3.75
2375839548,-42.8125,127.25,2.375
2375861352,-20.625,111.062,17.25
2375875605,5.4375,114.562,26.375
2375898153,15.8125,119.938,18.9375
2375921317,8.5625,112.312,10.9375
2375935670,-10,96.4375,19.6875
2375958285,-21.9375,96.375,28.5625
2375981421,-22.3125,95.5,26.8125
2375995665,-29.375,70.8125,20.8125
2376018303,-35.5,40.75,19.1875
2376041309,-24.875,21.9375,22.5625
2376055705,-6.9375,17.9375,13.4375
2376078264,8.25,5.3125,9.8125
2376101250,20.6875,-6.75,10.5
2376115576,20.0625,-9.9375,10.875
2376138117,2.3125,-18.125,12
2376161316,-16.375,-28.875,16.5625
2376175599,-19.5,-33,16.1875
2376198126,-19.9375,-37.9375,11.3125
2376229453,-17,-46.375,8.625
2376235629,-8.4375,-53.4375,9.6875
2376258203,7.9375,-53.1875,9.3125
2376281294,12.75,-48.3125,3.8125
2376295796,7.875,-44.125,6
2376318228,0.875,-42.9375,7.625
2376341346,-2.875,-40.6875,5.625
2376355739,5.625,-35.3125,3.125
2376378355,10.25,-31.9375,-1.6875
2376401544,5.25,-34.1875,-1.125
2376415664,-0.25,-33.5,1.375
2376438214,-0.25,-29.6875,0.1875
2376461330,6.3125,-28.875,-1.8125
2376475623,8.625,-30.375,-0.1875
2376498090,2.9375,-30.1875,0.25
2376521258,0.25,-29,2.625
2376535617,-0.375,-26.375,1.375
2376558167,3.5,-25,-2.1875
2376581476,8.5625,-24.6875,-2.3125
2376595674,7.375,-21.125,-4.125
2376618265,2.5625,-19.25,-5.5
2376641327,-1.5625,-20.6875,-4.3125
2376655629,-3,-22.75,-4.5
2376678175,-1.125,-25,-5.375
2376701469,4.6875,-28.1875,-4.8125
2376715789,12.5,-31.1875,-3.9375
2376738143,12.5,-33.75,-4.9375
2376760636,8.9375,-37,-5.875
2376775663,9.1875,-41.375,-2.9375
2376798155,15.9375,-47.4375,1.75
2376820691,18.625,-54.875,1.3125
2376835693,15.6875,-61.25,-10.25
2376858257,7.3125,-71.75,-14.5
2376880676,11.625,-80,-5.375
2376895865,15.25,-82.5,-5.375
2376918230,15.125,-85.8125,-21.1875
2376940759,12.0625,-92.5625,-30.8125
2376955788,10.625,-95.5625,-21.25
2376978132,16.625,-92.5625,-5.25
2377000723,11.625,-88.625,-10.1875
2377015719,12.3125,-92.3125,-23.4375
2377038179,19.8125,-96.8125,-18.875
2377060641,40.625,-97.8125,-7.9375
2377075628,56.375,-97.4375,-7.5
2377098355,66.1875,-98.1875,-14.3125
2377120680,64.75,-100.562,-20.0625
2377135715,63.5,-101.875,-15.5625
2377158157,60.75,-103.188,-9.5
2377180791,51,-104,-7.75
2377195695,40.75,-106.312,-10.1875
2377218326,43.8125,-109.125,-9.5
2377240821,55.9375,-107.562,-5.3125
2377255661,57.125,-107.375,-8.4375
2377278242,50.75,-113.312,-13.9375
2377300662,53.125,-120.562,-13.5
2377315662,63.9375,-119.75,-2.8125
2377338143,67.4375,-118.062,0.75
2377360650,67.375,-121.5,2
2377375853,68.8125,-125.25,8.875
2377398329,58.5,-125.75,7.375
2377420669,54.5,-121.562,6.1875
2377435676,47.1875,-118.25,15.125
2377458195,31.4375,-118.688,12
2377480700,24.625,-114.938,3.5625
2377497193,25.8125,-106.25,4.375
2377518370,23.3125,-97.4375,8.625
2377540800,16.3125,-89.6875,4.5625
2377557200,12.1875,-87.9375,0.3125
2377578191,9.1875,-84.125,2.5625
2377600945,8.1875,-74.0625,5.6875
2377617170,9.4375,-62.3125,7.625
2377638130,18.5625,-59,7.375
2377660647,23.125,-60.375,11.375
2377677136,19.3125,-59.0625,12
2377698376,24.0625,-54.9375,15.75
2377720707,38.125,-55.9375,19
2377737131,42.8125,-62.1875,20.75
2377758171,33.9375,-68.1875,23.625
2377780750,22.1875,-72,23.1875
2377797155,14.5625,-74.4375,20.4375
2377818373,8.9375,-78.375,14.8125
2377840813,-7.5625,-73.4375,7.5625
2377857127,-51.75,-42.125,-2.5
2377886353,-125.875,5.3125,-23.1875
2377900685,-101.562,26.8125,-20.75
2377917066,-4,16.5625,-14.25
2377938168,73.6875,1.875,-7.9375
2377960613,90.5625,-6.1875,0.375
2377977078,56.875,-12.625,3.25
2377998320,-2.5625,-12.875,1
2378020844,-44.9375,-7.5625,-6.5625
2378037124,-49.1875,-0.625,-7.375
2378058231,-26.625,3.875,-7.125
2378080849,1.5,6.0625,-5.1875
2378098612,19,5.875,-3.5625
2378118281,17.875,4.25,-2.0625
2378140846,5.875,2.875,-1.25
2378157106,-7.375,2.4375,-1.5
2378178124,-15.3125,0.375,-0.625
2378200625,-13.125,-1.625,1.1875
2378217128,-9.25,-1.625,1.8125
2378238139,-9.375,-1,2
2378260636,-12.875,-0.3125,1.875
2378277103,-14.625,-0.875,2.6875
2378298159,-10.875,-2.4375,4.125
2378320712,-8.75,-2,4.0625
2378337183,-5.625,-2.9375,4.0625
2378358262,-6.3125,-3.4375,6.875
2378389013,-9.375,-4.625,7.625
2378397204,-7.75,-5.625,6.8125
2378418401,-3.25,-6,5.5
2378440910,1.4375,-6.0625,4.375
2378458567,1.6875,-5.375,3.8125
2378479602,-2.625,-3.75,2.3125
2378502106,-5.25,-1.1875,0.375
2378517098,-9.8125,-0.0625,-0.5625
2378539619,-15.25,-1.25,0.8125
2378560634,-14.6875,-4.9375,2.6875
2378577124,-12.25,-9.0625,6.5
2378599593,-9.3125,-11.4375,8.5
2378620676,-2.1875,-11.875,10.9375
2378637139,7.5,-11.5,11.5625
2378659597,9.25,-11.25,14.3125
2378680921,3.125,-10.375,9
2378697133,2.25,-9.875,7.875
2378719626,2.5,-9.4375,8.0625
2378740733,-0.25,-9.8125,9.125
2378763386,-3.5,-8.625,9.75
2378779674,-3.6875,-7.75,9
2378800851,-4.9375,-6.25,8.5625
2378817220,-0.75,-4.6875,10.625
2378839622,6.375,-4.25,8.75
2378860627,7.0625,-5.25,7.3125
2378877091,2.625,-7.4375,3.75
2378899598,-1.25,-7.6875,0.875
2378920653,12.75,-4.5625,-0.9375
2378937113,26,4.25,-0.875
2378959632,22.9375,16.4375,-0.25
2378980706,13.25,25.625,-2.1875
2378997086,2.25,32.3125,-4.3125
2379018829,-2.6875,36.3125,-2.0625
2379041368,-4.0625,41.0625,0.5
2379056480,-0.375,49.625,-0.5
2379079090,1.25,58.875,-5.8125
2379101405,-5,68.375,-9.75
2379116393,-17.25,82.5625,-7.625
2379138852,-25,97.9375,-8.6875
2379161609,-28.75,112.5,-12.5625
2379176396,-28.75,126.188,-18.0625
2379198693,-25.4375,140.5,-21.25
2379221360,-25.8125,157.25,-26.5
2379236380,-24.4375,171.562,-34.25
2379259090,-22.875,184,-37.3125
2379281465,-35.0625,195.688,-38.875
2379296534,-54.375,206.562,-39.6875
2379318839,-72.4375,215.25,-39.0625
2379341352,-78.625,217.312,-32.875
2379356339,-74.75,213.938,-25.8125
2379378852,-69.375,209.812,-23.1875
2379401383,-67.9375,203.5,-23.875
2379416377,-70.25,196.812,-23.375
2379438847,-72.9375,187.812,-20.6875
2379461336,-77.5625,180.688,-19.125
2379476462,-83.75,170.75,-16.25
2379499004,-88.1875,158.25,-10.125
2379521337,-94.25,145.938,-4.8125
2379536451,-96.5,140.875,-1.375
2379559030,-91.0625,139.812,-3.375
2379581419,-79.4375,140,-8.1875
2379597857,-69.3125,139.5,-8.125
2379618981,-66.1875,137.562,-2.5625
2379641492,-68.75,136.625,-0.25
2379657816,-74,135.812,-3.3125
2379678868,-62.3125,138.25,6.875
2379701506,-35.8125,143.438,26.3125
2379717773,-7.875,149.375,31.375
2379738819,7,155.938,27
2379764155,15.625,152.75,23.375
2379777840,17.5,144.062,34.3125
2379798993,22.375,134.875,38.4375
2379821382,30.0625,134.25,29.1875
2379837804,28.75,128.25,23.375
2379859109,31.1875,113.938,28.25
2379881319,45.375,93.875,30.5
2379897818,56.5625,83.3125,20.9375
2379918952,52.6875,72.1875,8.0625
2379941465,38.8125,54.9375,2.5625
2379957842,27.0625,32.8125,4
2379978984,16.5625,10.125,2.375
2380001567,3.8125,-10.875,-2.0625
2380017767,-8.3125,-30.3125,-2.3125
2380038848,-14.8125,-49.75,2.5
2380061422,-18.625,-65.5,2.125
2380077821,-20.625,-74,-1.375
2380098853,-13.5625,-82.625,1.0625
2380121359,-16.4375,-88.8125,2.5625
2380137803,-19.6875,-93.625,5.4375
2380158898,-18.9375,-97.8125,8.25
2380181464,-18.25,-100.375,8.4375
2380197850,-18.5,-103.562,6.8125
2380218912,-19.5,-108.5,4.3125
2380241490,-14.8125,-111.562,1.3125
2380257821,-5.875,-110.938,-4.5625
2380278912,6.1875,-113.75,-10.5
2380301597,7.5625,-118.125,-17.25
2380317924,3,-120.562,-23.5
2380338922,-8.875,-123.5,-28.1875
2380361633,-22.1875,-127.688,-35.0625
2380377176,-31.125,-131.562,-40.125
2380398905,-26.8125,-130.812,-41.8125
2380421443,-20.625,-125.812,-46.5
2380444268,-19.1875,-122.562,-54.8125
2380458953,-33.375,-125.938,-65.875
2380481453,-47.9375,-135.5,-68.625
2380497260,-59.9375,-142.688,-66.3125
2380520286,-62.25,-140.562,-70.0625
2380541600,-51.75,-133.938,-80.75
2380557190,-30.6875,-127.625,-83.3125
2380580459,-2.875,-126.938,-71.625
2380601498,16.875,-125,-58.4375
2380617273,31.625,-123.312,-54.875
2380640373,59.1875,-120.5,-60
2380661435,96.75,-96.375,-47.75
2380677189,82.9375,-78,-43.1875
2380700428,66,-75.25,-54.6875
2380721440,57.8125,-80.9375,-50.0625
2380737150,28.125,-86.9375,-37.5625
2380760346,-1.375,-94.75,-28.4375
2380781377,-0.4375,-102.625,-29.5625
2380797188,25.5625,-105.938,-32.9375
2380820414,65.3125,-110,-33.75
2380841420,96.9375,-115.062,-31.875
2380857200,101.188,-117.312,-25.5
2380880422,89.875,-114,-16.875
2380901547,70.5625,-106.375,-3.625
2380917192,50.6875,-98.875,5.1875
2380940449,46.125,-89.75,4.5625
2380961587,56.875,-77.0625,4.375
2380977257,68.1875,-63.125,3.25
2381000395,79.5,-50.625,8
2381021471,94.375,-40.6875,19.4375
2381037146,108.5,-37.4375,25.25
2381060353,101.438,-39.0625,22.625
2381081625,79.4375,-41.625,19.3125
2381097211,47.875,-41.9375,15.5
2381120822,34.375,-45.6875,12.8125
2381141326,47.1875,-49.5,12.5
2381165299,61.875,-53.6875,12.1875
2381180394,61.625,-56.6875,9.8125
2381201604,57.625,-63.6875,7.0625
2381217326,47.25,-69,8.0625
2381240464,36.75,-74.0625,8.25
2381261433,31,-79.9375,3.9375
2381277153,35,-89.6875,-1.125
2381299645,48.25,-103.625,-2.75
2381321423,67.3125,-105.125,-6.9375
2381337158,-29.0625,-40.6875,-9.875
2381359755,-180.5,27.3125,13.625
2381381621,-150.125,42.8125,20.4375
2381397260,-39.1875,22.8125,34.875
2381427906,74.75,12.1875,9.0625
2381441628,139.875,-6.4375,-20.5625
2381457199,120.375,-23.375,-17.8125
2381479697,54.6875,-23.4375,-10.125
2381502826,-8.9375,-13.6875,-6.1875
2381517260,-28.5625,-1.75,-6.625
2381539642,2.1875,5.875,-6.0625
2381562837,28.1875,8.125,-5.5625
2381577249,18.9375,10.75,-1.3125
2381599674,-3.5625,10.3125,1.0625
2381622816,-13.6875,7,2.625
2381637139,-11.25,3.9375,1.75
2381659675,-7.75,1.875,1.625
2381682850,-5.8125,1.0625,1.625
2381697208,-1.4375,0.9375,0.5625
2381719706,3.1875,1.5,-0.75
2381743025,4.75,2.5625,-1.5625
2381757160,3.9375,2.9375,-1.75
2381779782,3,2.5625,-1.3125
2381802790,2,1.3125,-0.75
2381817270,0.8125,0.5625,-0.5
2381839735,0,0.25,-0.3125
2381862889,0.1875,0.3125,-0.75
2381877244,1.1875,0.3125,-1
2381899666,1.875,0.125,-1
2381922849,2.125,0.5625,-0.875
2381937209,1.875,1.1875,-1.125
2381959773,1.3125,1.5,-1.0625
2381982850,0.3125,1.3125,-0.875
2382003970,-0.4375,1.125,-0.75
2382019684,0.375,1.5625,0.1875
2382042907,4.375,3.625,2.875
2382064075,9.1875,7.25,6.875
2382079811,4.5625,8.375,7.625
2382102872,-7.3125,6.4375,6.3125
2382124151,-13.8125,3.25,5.8125
2382139790,-10.375,1.0625,4.125
2382162909,-0.6875,2.6875,1.8125
2382184054,8.0625,6.375,-0.6875
2382199781,16.75,9.0625,-4.5
2382222305,31.6875,20.1875,-5.6875
2382244151,51.125,57.625,-6.6875
2382259755,91.25,98.9375,-9.5625
2382282319,176.812,121.562,10.875
2382303964,189.312,122.688,0.0625
2382319718,171.625,108.438,-29.1875
2382342224,145.688,103.75,-57.75
2382364155,68.125,101.125,-69.1875
2382379689,-7.0625,100.562,-67.4375
2382402204,-40.75,96.3125,-48.5
2382425394,-46.8125,94.125,-50.75
2382439707,-24,91,-77.375
2382462174,13.3125,82.875,-95.9375
2382485504,36.125,70.8125,-105.438
2382499734,25.9375,60.875,-106.5
2382522287,-8.9375,54.6875,-102.75
2382545473,-37.125,45.1875,-100.062
2382559687,-48.125,38.6875,-98.375
2382582265,-61.3125,42.625,-83.125
2382605483,-77.1875,49.875,-77.9375
2382619760,-67.375,49.625,-79
2382642221,-32.3125,38.8125,-85
2382665387,15.8125,19.4375,-85.375
2382679704,47.4375,-0.5,-81.4375
2382702602,33.6875,-17.0625,-71.5625
2382725416,-11.875,-31.1875,-53.875
2382739728,-54.5,-44.0625,-32.1875
2382762193,-61.6875,-62.3125,-17.125
2382785407,-24.5625,-74.0625,-8.625
2382806188,13.6875,-63.9375,-0.9375
2382822257,-31.1875,-34.125,11
2382845473,-113.312,-7.5,9.5
2382866633,-92.375,-1.5625,11.3125
2382881660,-23.4375,-2.875,13.75
2382895794,21.8125,-4.6875,15.8125
2382918317,29.25,-5,7.1875
2382941472,14.75,-3.75,1.6875
2382955861,-6.5625,-1.5,-1
2382978306,-18.1875,-0.9375,-6.125
2383001479,-16.6875,-4.25,-9.8125
2383015767,-10.375,-8.6875,-11.75
2383038960,-7.5625,-11.5,-10.8125
2383061464,-9.0625,-11.5625,-9.3125
2383075829,-9.4375,-9.25,-6.0625
2383098744,-6.0625,-6.5625,-3.5
2383121467,-1.625,-4.1875,-2.125
2383135758,1.125,-0.5625,-3.25
2383158956,0,2.25,-2.9375
2383181456,-6,4.5,-2.5
2383195805,-11.25,5.1875,-3.875
2383218971,-12.3125,3.375,-6.125
2383241460,-13.4375,-1.3125,-14.625
2383255864,-20.6875,-10.5625,-31.0625
2383278282,-12,-12.6875,-33.4375
2383301416,-29.8125,-7.5,-27.5625
2383315754,-70.1875,-4.25,-28.75
2383338243,-158.125,11.875,-46.5625
2383361426,-224.938,16.0625,-83.125
2383375787,-174.25,10.4375,-112.5
2383398320,-86.625,11.75,-138.062
2383421474,-33.25,11.25,-135.562
2383435823,-81.125,20.75,-122.375
2383458246,-145.688,29.3125,-116.562
2383481516,-140.625,37.3125,-109.562
2383495750,-76.8125,36,-99.8125
2383518241,-27.8125,28.3125,-83.125
2383541451,-36.375,21.75,-67.9375
2383555779,-64.875,21.625,-54.1875
2383578297,-61.875,20.3125,-45.8125
2383601545,-36.25,15.4375,-36.6875
2383615799,-24,9.8125,-28.6875
2383647109,-29.3125,6.8125,-23
2383661431,-29.0625,6.8125,-19.625
2383675802,-22.1875,7.3125,-23.5
2383698310,-14.9375,5.9375,-26.5625
2383721466,-19.875,3.9375,-32.25
2383735805,-26.0625,-1.9375,-38.625
2383758324,-29.6875,-3.4375,-40.3125
2383781477,-24.75,-3.5,-39.5
2383795831,-18.1875,-4.25,-36
2383827147,-17.25,-5.0625,-30.8125
2383841439,-23.375,-3.75,-26.6875
2383855828,-27.4375,1.1875,-21.875
2383878331,-19.3125,4.3125,-13.1875
2383901444,-3.0625,6.625,-6.4375
2383915806,5.1875,8.1875,-5.875
2383938282,-0.6875,9.75,-2.6875
2383961505,-7.25,13.5,0.0625
2383975810,-4.6875,15.375,0.375
2383998348,0.5625,13.375,0.8125
2384021465,2.625,8.375,-3.125
2384035792,-0.5,6.5,-6.875
2384058307,-4.875,7,-9.5625
2384089656,-2.4375,6.375,-9.5625
2384095770,1.0625,3.5,-8.125
2384118301,3.9375,0.125,-6.8125
2384141487,6.375,-2.25,-2.1875
2384155826,8.625,-2.3125,1.3125
2384178306,11.375,-3.0625,7.4375
2384201418,16.75,-4.75,16.6875
2384215762,16.125,-5.4375,21.6875
2384238284,16.125,-4.4375,23.6875
2384261462,25.5625,-3.125,28.625
2384283964,34.5625,-1.125,33.5
2384298342,33.0625,1.3125,35.125
2384320796,33.4375,1,36.9375
2384335827,37.9375,2.1875,36.75
2384358320,43.8125,3.1875,34.375
2384380770,47.625,4.75,35.25
2384397227,47.5,3.5625,38.25
2384418325,43.1875,1.4375,34.4375
2384440830,42.125,-1.4375,30.6875
2384455842,44.375,-3.25,27.5
2384479752,46.75,-4.0625,22.1875
2384500824,39,-2.5,1.4375
2384515810,28.5625,-0.1875,2.8125
2384538304,39.8125,-8.0625,-0.625
2384560796,35.9375,-8.1875,-2.125
2384575827,18.9375,-9.875,-14
2384598334,11.3125,-10.5,-13.9375
2384620821,10.3125,-7.5,-9.375
2384635802,0.0625,-2.3125,-10.0625
2384658292,-9.125,-1.1875,-10.3125
2384680831,-5.5,-2.4375,-10.8125
2384695858,1.9375,-2.5,-5.4375
2384718355,10.875,-6.0625,0.375
2384740808,5.875,-3.5625,-0.1875
2384755809,-2.6875,-0.375,-0.5
2384778305,-5.1875,5.625,0.1875
2384800840,-10.5625,5.75,2.25
2384815849,-16.875,3.25,5.3125
2384838312,-18,2,6.6875
2384860767,-14,4.125,2.4375
2384875839,-4.75,6.375,-7.3125
2384898332,8.4375,9.625,-12.8125
2384920840,16.5625,7.4375,-13.375
2384935847,16,0.3125,-2.5625
2384958326,16.125,0.5,5.3125
2384980837,17.25,-3.875,4.875
2384995825,16.1875,-6.5625,-17.5
2385018322,13.25,8.4375,-14.0625
2385040820,9.6875,17.3125,-12.5
2385055815,12.9375,2.0625,-16
2385078319,-0.0625,-4.5625,-8.5
2385100830,-9.5,-25.9375,-0.125
2385117248,-3.4375,-17,19.9375
2385138320,-2.125,-5,24.375
2385160814,-25.375,49.125,-0.1875
2385177275,-31.375,9.875,-3.375
2385198334,-11.75,0.375,2.4375
2385220824,7.9375,0.8125,2.75
2385237287,12.5625,-2.375,0.8125
2385258332,2.5625,-2.6875,0.625
2385280865,-8.3125,-2.5,2.0625
2385297278,-7.4375,-0.5,9.5
2385318324,2.0625,3,16.4375
2385340849,10.8125,2.75,17.4375
2385357280,12.5,2.125,16.5625
2385378346,9.25,1.75,14.625
2385400844,5.125,-0.0625,11.75
2385417296,0.75,-0.8125,7.0625
2385438322,-4,-2.0625,2.1875
2385460824,-6.625,-2.0625,-1
2385477254,-5.5625,-1.1875,-3.25
2385498320,-2.25,-0.8125,-4.125
2385520894,-0.375,-0.25,-3.6875
2385537305,-0.25,0,-3.125
2385558444,-0.4375,0.25,-2.125
2385581074,-0.0625,0.8125,-1.5625
2385597300,2.4375,1.1875,-0.8125
2385618472,4.8125,0.625,0.125
2385640914,3.625,0.0625,0.6875
2385657351,2.1875,-0.375,0.9375
2385678380,3.125,0.125,0.1875
2385700895,5.6875,0.125,0.625
2385717330,4.375,-0.5,1.1875
2385738371,1.4375,-1.25,1.25
2385761003,2.125,-0.375,0.4375
2385777345,4.375,0.375,0
2385798341,4.75,0.125,0.75
2385820888,3.8125,-0.125,1.1875
2385837339,4.375,0.5625,0.3125
2385858493,5.375,1.1875,-0.1875
2385880872,5.4375,0.9375,0.625
2385897248,5.9375,0.8125,1.625
2385918596,6.875,0.5625,1.8125
2385941101,7.8125,-0.0625,2.3125
2385957321,8.8125,-0.8125,3.625
2385978479,12.375,-0.9375,6.1875
2386001059,14.8125,-0.75,8.25
2386017310,12.6875,-0.25,8.625
2386039789,9.875,-1.125,8.75
2386060782,11,-2.4375,8.6875
2386078698,14.3125,-3.375,8
2386099792,13.875,-3.0625,7.125
2386120880,11.3125,-4.25,5.625
2386137279,8.4375,-6.125,5.5625
2386159753,7.875,-7.6875,5.4375
2386180791,12.125,-7.9375,5.8125
2386197268,12,-7.1875,5.6875
2386219756,7.5,-7.375,5.1875
2386240944,4.875,-9.3125,5.4375
2386257340,6.25,-10.6875,4.75
2386279871,7.6875,-10.25,3.0625
2386301044,4.125,-9.8125,2.1875
2386317310,2.625,-12.125,1.8125
2386339913,3.5625,-11.5,0.0625
2386360900,7.25,-12.3125,-1.75
2386377342,2.8125,-10.4375,-4.5625
2386399909,-0.6875,-9.875,-5.3125
2386420918,0.0625,-10.75,-5.75
2386437306,2.5,-10.1875,-6.875
2386459808,3.625,-8,-8.8125
2386481004,3.625,-8.8125,-9.75
2386497434,9.8125,-7.1875,-10.125
2386519902,17,-8.125,-9.125
2386540901,11.3125,-11.3125,-8.875
2386557357,2.625,-15.5625,-10.75
2386579883,-0.125,-9.125,-10.6875
2386601069,-7.625,-4.1875,-9.875
2386617279,-10.5625,-0.375,-14.3125
2386639890,-5.9375,-4.5625,-5.6875
2386660864,-14.125,-6.3125,0.3125
2386677411,-12.375,-5.5,2.8125
2386699806,5.1875,-0.375,-1.3125
2386720886,9.5,-3.125,2.5
2386737298,6.125,-3.8125,5.4375
2386759805,2.875,-2.6875,4.5625
2386781568,4.625,-0.9375,2.125
2386796595,8.5,-2.8125,-0.125
2386819021,6.625,-7.875,-7
2386841569,1.5625,-10.875,-4.4375
2386856646,2.3125,-7.625,-6.25
2386879194,11,-2.25,-12.5625
2386901679,9.0625,9.9375,-6.8125
2386916624,11.1875,7,0.1875
2386939070,1.5625,3.6875,5.6875
2386961611,-14.625,1.3125,11.1875
2386976714,-15.8125,-1.75,10.4375
2386999204,-5.8125,-0.625,5.4375
2387021553,5.75,0.5625,2.625
2387036584,10.0625,1.125,1.1875
2387060466,5.125,0.375,1.3125
2387081544,-1.625,1.0625,1.125
2387096680,-4.3125,1.5,0.625
2387119174,-1.3125,0.875,1.125
2387141716,4,0.3125,0.8125
2387156576,5.625,0.1875,0.9375
2387179078,3.25,-0.125,1.4375
2387202945,1.5625,-0.3125,1.8125
2387218006,0.9375,1.125,1.4375
2387239076,2.9375,0.4375,1.75
2387261545,3.9375,0.3125,1.8125
2387277987,3.375,0.6875,1.5
2387299217,1.25,0.8125,0.875
2387321568,0.4375,0.4375,1.0625
2387337945,0.6875,0.4375,1.375
2387366626,2.625,0.6875,1
2387381671,4.3125,0.875,1.0625
2387397967,4.875,0.875,1.1875
2387419127,5.625,1.125,1.0625
2387441731,6.0625,1.6875,0.8125
2387458057,2.875,2.4375,0.8125
2387479008,-1,2.5625,0.8125
2387501655,-0.4375,1.6875,1.125
2387517955,2.3125,0.8125,1.625
2387539188,3.25,0.75,1.5625
2387561701,3.75,1.3125,1.5625
2387578009,4.375,1.375,1.8125
2387599035,5.5625,1.1875,2.8125
2387621531,6.0625,0.8125,2.6875
2387637982,5.6875,0.875,1.875
2387659152,4.625,0.8125,1.75
2387681565,1.1875,1.0625,1.625
2387698107,-2.4375,1.1875,0.625
2387719037,-3.625,0.375,0.8125
2387741534,-1.5,-0.375,1.0625
2387758027,2.0625,0.1875,0.875
2387779066,4.5,0.75,0.375
2387801624,6.1875,1.4375,0.5
2387818021,5.75,1.75,0.4375
2387839144,3.5,1.5625,0.3125
2387861719,2.5,1,0.25
2387877985,2.4375,0.25,0.3125
2387899100,1.625,-0.0625,0.25
2387921610,0.25,0.4375,-0.1875
2387937393,0.0625,0.75,0.3125
2387959028,0.6875,0.625,0.9375
2387981598,0.9375,0.3125,1.125
2387997483,0.625,0.1875,0.75
2388019102,1.375,-0.0625,1
2388041685,2,-0.75,1.0625
2388057427,2,-1.25,1.0625
2388079155,1.1875,-1,0
2388101534,1.125,-0.5625,-0.625
2388117350,0.9375,0.125,-0.625
2388140614,1.5625,0.8125,-0.1875
2388161699,8.25,-6.1875,1.5
2388177380,14.0625,-4.0625,0.1875
2388200720,12.8125,-1.125,-0.875
2388221553,-9,-2.1875,-0.0625
2388237415,-23.9375,-2.5,2.5625
2388260533,-10.6875,2.875,2.6875
2388281593,7.875,-0.3125,-1.375
2388297310,16.5625,-2.5,-1.3125
2388320441,11.375,-0.125,-0.5625
2388341656,-0.8125,0.0625,1.625
2388365483,-5.5,0.0625,2.3125
2388380529,0.25,-0.25,1.6875
2388401494,8.375,-1.375,0.8125
2388417418,9.25,-2.5,0.75
2388440618,5.1875,-2.8125,0.875
2388461602,3.625,-2.625,0.625
2388477342,6.375,-2.625,1.1875
2388500475,9.125,-2.5,0.125
2388521557,16.5625,-2.3125,-3.1875
2388537396,29.125,-0.375,-5.3125
2388560514,33.875,0.8125,-4.375
2388581546,27.5625,1.6875,-3.1875
2388597419,13,2.6875,-1.125
2388620504,1.5625,3.5,-0.3125
2388641529,-0.1875,3,0.75
2388657311,3.3125,0.625,1.5625
2388680500,7.875,-1.9375,2.25
2388701541,14.4375,-2.5625,0.625
2388717502,20.375,-1.8125,0
2388740612,21.25,-1.5,0.625
2388761540,16.75,-0.875,1.6875
2388777297,11,-0.0625,2.0625
2388800452,11.5,1,1.6875
2388821618,17.5625,2.125,0.9375
2388837414,21.375,2.5625,0.375
2388860019,20.6875,1.75,0
2388883108,15,2.0625,0.6875
2388897309,7.125,2.875,0.4375
2388920304,1.1875,3.6875,-0.3125
2388941573,-2.25,3.5,-1
2388957370,-0.875,2.8125,-1.3125
2388979943,0.625,2.75,-2.0625
2389001691,1.3125,3.3125,-3.5625
2389017502,0.8125,4.3125,-4.4375
2389048071,-2.375,4.8125,-4.75
2389063103,-5.6875,4.75,-5
2389077384,-6.3125,4.6875,-5.0625
2389099815,-6.125,4.0625,-5
2389122976,-8.875,4.25,-5.625
2389137322,-12.5625,3.9375,-6.0625
2389159937,-13.875,3.125,-5.75
2389183116,-12.5625,2.125,-5.6875
2389197494,-9.5625,1.4375,-5.75
2389219870,-6.875,0.4375,-5.125
2389243020,-4.375,-0.5625,-4.4375
2389257300,-0.875,-1.25,-4
2389279824,1.4375,-1.5625,-3.6875
2389303058,0.25,-1.3125,-3.1875
2389317509,-2,-1.5625,-2.9375
2389339882,-2.9375,-1.5,-2.6875
2389362995,-5.125,-0.375,-3.9375
2389377424,4.875,-0.6875,-4.25
2389399918,9.0625,-4.3125,-3.4375
2389423109,-3.25,-7.25,-1.1875
2389437473,-12.4375,-9.0625,0.8125
2389459860,-12.75,-5.875,0.1875
2389483058,-8.6875,-3.3125,-0.3125
2389497394,0.5625,3.0625,-2.875
2389519813,1.9375,-4.375,-4.0625
2389542423,-1.625,-4.25,-3
2389564101,-6.3125,-1.8125,-2.8125
2389579903,-7.1875,-1.3125,-1.4375
2389603044,-3.25,-0.25,-0.9375
2389624120,1.8125,-0.125,-0.25
2389639869,2.1875,-0.125,0.5
2389663001,0.0625,0.125,0.3125
2389684082,-1.75,0.8125,0.0625
2389699816,-1.375,1.4375,-0.0625
2389723448,-0.4375,1.5,-0.5
2389744107,0.5,0.625,-1.3125
2389759962,-0.25,0.0625,-2.4375
2389783102,-2.75,-1.3125,-3.6875
2389804126,-4.25,-3,-4.75
2389819885,-5.375,-4.875,-4.75
2389842427,-5.875,-5.625,-5.375
2389864258,-6.125,-5.0625,-6
2389879881,-5.8125,-2.5625,-6.0625
2389902442,-5.75,1.1875,-6.5625
2389924178,-6.125,3.25,-5.125
2389939864,-5.125,3.6875,-3.75
2389962504,-0.4375,4.9375,-4.875
2389984323,4,5.875,-6.5625
2389999944,3.625,5.3125,-7.875
2390030583,-1.3125,2.9375,-8.75
2390045492,-5.875,-0.875,-9
2390059825,-6.9375,-4.875,-9.625
2390082411,-8.1875,-6.875,-10.8125
2390105531,-11.5,-7.25,-11.625
2390119902,-13.5625,-6.4375,-11.375
2390142483,-14.375,-5.375,-9.75
2390165517,-13.3125,-3.9375,-8.9375
2390179955,-9.5,-3,-7.9375
2390202487,-4.75,-2.4375,-5.9375
2390225662,-3.5,-1.625,-3.3125
2390239953,-2.5,-0.9375,-1.5625
2390262506,0.4375,0,-0.5625
2390285576,4.25,-0.125,-0.5625
2390299889,4.25,-0.25,-0.8125
2390322432,2.3125,-0.25,-1.1875
2390345571,0.6875,0.0625,-1.4375
2390360003,-0.6875,0.25,-2.375
2390382479,-1.75,0.6875,-3.375
2390405518,-3,1.125,-4.125
2390419897,-2.875,1.3125,-5
2390442463,-2.9375,1.4375,-4.375
2390465632,-6.6875,-0.625,-3.25
2390480003,3.625,-3,-2.875
2390502441,6.0625,-5.0625,-3.3125
2390525546,4.25,-4.5625,-1.4375
2390546765,3.625,-1.75,-3.3125
2390562439,-3.5,2.1875,-5.1875
2390586173,-8.75,-1.4375,-3.3125
2390606755,-4.9375,-1.875,-2.375
2390622433,1.25,-0.625,-2.375
2390645605,2.6875,-0.375,-2.1875
2390658552,2.5625,0.4375,-1.8125
2390681773,0.0625,0.3125,-1.125
2390696023,-2.1875,-0.0625,-0.6875
2390718490,-1.0625,-1.125,-1.125
2390741626,0.6875,-1.0625,-1.125
2390756057,-0.25,-0.875,-0.9375
2390778619,-1.875,-0.375,-1.6875
2390801576,-1.8125,-0.1875,-1.1875
2390816117,-1.5625,-0.75,-1.25
2390838475,-0.875,-1.0625,-0.9375
2390861684,-0.625,-0.8125,-1.25
2390876056,-1.0625,-0.4375,-1.125
2390898471,-2.3125,-0.0625,-1.1875
2390922091,-2.5625,0,-1.3125
2390935944,-1.1875,0.25,-1.5
2390958668,0.125,0.1875,-1.9375
2390981793,-0.25,0.6875,-2.375
2390996077,-1.3125,0.6875,-2.5625
2391018664,-2.5,0.125,-2.375
2391041579,-1.875,-0.3125,-2.8125
2391055994,-5.9375,-5.3125,-2.5
2391078487,0.0625,1.5625,-4.625
2391101593,0.4375,1.0625,-4.9375
2391115939,-3.6875,1.3125,-3.75
2391138528,-3.6875,-0.4375,-3.375
2391161770,0.5625,0.5625,-3.25
2391176059,8,-2.875,-1.5
2391198645,9.6875,-6.875,-0.75
2391221713,7.25,-7.1875,-1.3125
2391236214,1.875,-5.1875,-1.25
2391258678,6.1875,-1.5,-1.875
2391281832,10.75,2.5,-3.75
2391295987,10.125,5.375,-3.375
2391318634,-9.125,-2.9375,0.25
2391341771,-25.125,-2.625,1.875
2391356120,-20.0625,4.375,-1.5
2391378638,-3.5,-9.625,0
2391402135,14.5625,-3.6875,-2.6875
2391416197,0,-3.6875,-1.9375
2391438485,-16.8125,-0.75,2.0625
2391461688,-8.625,2.25,1.625
2391476023,11.75,0.375,-1.3125
2391498454,19.9375,-2.75,-1.625
2391521671,10.75,0.1875,-0.25
2391536101,-4,1.5625,1
2391558597,-9.125,1.8125,2
2391581653,-1.1875,0.1875,1.8125
2391596143,7.6875,-0.5625,1.5
2391618652,5.75,-0.1875,1.125
2391641706,-1.125,0.1875,1.625
2391655978,-4,0.9375,1.4375
2391678437,-1.3125,1,0.5
2391709795,1.9375,0.75,-0.125
2391715939,2.625,0.25,-0.4375
2391738477,0.375,0.125,-0.0625
2391761680,-1.25,0.1875,0
2391775971,-0.125,0.4375,-0.4375
2391798637,1.6875,0.75,-0.875
2391820998,2.125,0.875,-1.125
2391836123,3.125,-6,3.3125
2391858689,-6.4375,-7.75,1.5625
2391881085,-5.1875,-0.9375,0.3125
2391896044,2.8125,1.1875,-0.0625
2391918481,9.4375,6.8125,-2.1875
2391941013,11.1875,6.5625,-2.375
2391955995,4.4375,-0.875,-0.25
2391978471,-2.25,0.8125,-0.25
2392001000,-2.8125,0.9375,-0.3125
2392018864,0.5625,0.6875,0.1875
2392038482,3.5,0.375,0.125
2392060924,2.5,-0.1875,0.1875
2392075986,-0.375,-0.5625,0.5
2392098445,-2.4375,-0.3125,0.75
2392120941,-1.25,0.5625,0.4375
2392135968,0.875,1,0.125
2392158498,1.875,0.875,0
2392180955,1.0625,0.625,-0.6875
2392195966,-0.4375,0.125,-0.75
2392218626,-1.6875,-0.125,-0.5625
2392241171,-1.8125,-0.5,-0.9375
2392256008,-0.125,-0.375,-1.5625
2392278463,0.6875,-0.3125,-1.9375
2392300962,-0.25,-0.3125,-1.875
2392316047,-1.375,-0.1875,-1.8125
2392338516,-0.1875,0.0625,-1.5
2392361039,1.25,0.0625,-1.625
2392376058,12.1875,2.5625,-3.8125
2392398706,10.6875,-8.75,-3.75
2392421050,-15.5625,-5.6875,-0.125
2392435980,-20.4375,2.4375,-0.5
2392458708,-4.3125,4.1875,1.25
2392480984,13.375,3.4375,0.6875
2392495961,13.0625,-3,-0.6875
2392518577,1.9375,-0.3125,-0.125
2392541230,-6.375,1.5,0.625
2392556045,-4.75,1.6875,1.5625
2392578713,1.5625,1.1875,0.4375
2392601176,5.625,0.25,0.3125
2392616070,4.0625,-0.4375,0.625
2392638511,-0.6875,-0.375,0.5
2392661147,-2.5625,-0.1875,0.3125
2392677498,-1.0625,0.1875,-0.625
2392698535,0.1875,0.6875,-1
2392721097,0.5,0.875,-0.5
2392737463,0,1,0.1875
2392758528,0.1875,0.5625,0.875
2392781094,0.8125,-0.3125,1.5
2392805565,1.5,-1,1.375
2392818529,1.25,-0.875,1
2392841042,0.375,-0.25,0.4375
2392857536,-0.3125,0.0625,0.1875
2392878582,-0.6875,0,0.25
2392901070,0.3125,0.1875,0.1875
2392917495,1.6875,0.5,0.1875
2392938551,1.8125,0.5,0.4375
2392961159,0.75,0.0625,0.375
2392977436,0.5,-0.0625,0.125
2393001396,1.125,-0.375,-0.4375
2393021054,1.125,-0.0625,-0.5
2393037489,0.25,0.0625,-0.75
2393058520,-0.5,0.0625,-1.125
2393081040,0.25,0.125,-1.0625
2393097464,0.75,0,-0.375
2393118792,-0.8125,-1.4375,0.75
2393141146,1.0625,-1.375,0.375
2393157445,-1.9375,-2.75,-0.1875
2393178619,-5,2.4375,1.1875
2393201167,2.625,2.6875,-0.6875
2393217610,9.875,-2.4375,0.5
2393238514,6,-1.0625,0.6875
2393261155,-1.0625,-0.875,0.75
2393277445,-2.875,-0.5,1.0625
2393298530,-0.5,-1,1.0625
2393321060,2.5625,-1.375,0.75
2393337521,3,-1.0625,0.1875
2393361451,0.5625,-0.3125,0.3125
2393381054,-1.25,0.125,0.375
2393397517,-0.625,0,0.1875
2393418726,1.5625,-0.4375,0
2393441227,1.6875,-0.1875,-0.3125
2393457496,0.5,0.5625,-0.4375
2393478683,-0.5,1,-0.375
2393501119,-0.3125,1.0625,-0.4375
2393517484,-0.0625,0.375,-0.5625
2393538532,0.0625,0.125,-0.75
2393561049,0.25,0.25,-0.875
2393577502,0.5,0.375,-0.6875
2393600023,0.375,0.625,-0.25
2393621046,0.1875,0.1875,-0.125
2393637464,0.6875,0.0625,-0.1875
2393659958,0.8125,0.125,-0.1875
2393681022,0.1875,0.125,0.0625
2393697467,0.1875,0.4375,0.1875
2393720037,0.8125,0.625,0.5
2393741108,0.9375,0.875,1.125
2393757592,1.25,1.0625,1.9375
2393780038,2.1875,1.375,2.125
2393801215,3.125,1.4375,2.3125
2393817477,4.4375,1.375,1.8125
2393839965,2.5625,1.1875,1.375
2393861054,-0.4375,1,0.3125
2393877593,-0.875,0.375,-0.3125
2393900083,0.375,0.125,-0.625
2393921176,0.5625,0.25,-0.75
2393937464,-0.5,0.3125,-0.8125
2393959965,0.25,0.375,-0.0625
2393981179,2.1875,0.3125,0.4375
2393997489,1.9375,0.4375,0.75
2394019923,0.5,0.375,0.1875
2394041010,1.3125,0.375,-0.375
2394057498,1.875,0.625,-0.875
2394080042,1.0625,1,-1.125
2394100981,0.5,1.0625,-1.1875
2394117529,0.375,1.25,-1.125
2394139945,0.5625,1.3125,-1
2394161216,1,1.0625,-0.6875
2394177480,2.625,1.4375,-1.1875
2394200005,2.625,1.3125,-1.0625
2394221013,1.4375,0.9375,-0.625
2394237573,0.8125,0.5,-0.875
2394260030,1.625,0.3125,-1.25
2394281028,1.6875,0.1875,-1.5
2394297563,2.4375,0.25,-1.625
2394320015,3.1875,0.375,-1.1875
2394341237,4.375,0.875,-0.9375
2394357562,4.375,1.125,-1
2394386180,3,1.5625,-1.125
2394401086,1.9375,1.9375,-0.5625
2394417603,0.3125,1.8125,-0.3125
2394440020,0.0625,1.5625,0.0625
2394469346,0.5625,1,0.1875
2394477440,1.125,0.6875,-0.0625
2394500009,0.5,0.5,-0.5
2394521088,0.375,0.1875,-0.5625
2394537582,0.25,0.125,-0.25
2394559241,0.25,-0.1875,0.1875
2394581839,0.8125,-0.1875,-0.0625
2394596901,-0.375,-0.1875,-0.375
2394619345,-1.0625,-0.1875,-0.5625
2394641927,-0.375,-0.1875,-0.25
2394656689,0.375,0,0
2394680628,-0.5,-0.125,-0.0625
2394701672,-0.875,-0.5,-0.1875
2394716804,0.1875,-0.625,-0.3125
2394746842,0.625,-0.4375,0
2394761695,0.0625,-0.25,0.3125
2394778227,0.9375,0.125,0.25
2394799395,2.5,0.125,0
2394821778,1.75,-0.5625,-0.125
2394838189,-0.75,-0.875,-0.5625
2394859274,-1.3125,-0.6875,-1
2394881895,-0.1875,-0.3125,-0.75
2394904338,1.25,0.125,-0.8125
2394919390,0.875,0.125,-0.875
2394941694,-0.3125,0.125,-0.8125
2394958154,-0.5,0,-0.375
2394979402,0.375,0.25,0
2395001736,1.25,0.5,-0.0625
2395024177,1.1875,0.125,0
2395039189,0.5,-0.3125,0.0625
2395061704,-0.125,-0.625,-0.125
2395078160,0.8125,-0.5625,-0.3125
2395099198,0.8125,-0.4375,-0.375
2395121709,0,-0.1875,-0.3125
2395138126,-0.5625,-0.0625,-0.5
2395159225,-0.375,0.0625,-0.625
2395181738,0.875,-0.125,-0.4375
2395198115,0.1875,0.25,-0.375
2395219196,-1.1875,0.4375,-0.5
2395241704,0.125,0.125,0
2395258103,1.125,-0.25,0.375
2395279218,0.75,-0.1875,0
2395301698,0.3125,-0.125,-0.1875
2395318184,1.125,0,0.125
2395339221,1,-0.75,0.25
2395361718,0.0625,-1.8125,0.5625
2395378120,1.4375,-2.625,0.125
2395399174,2.5625,-2,0
2395421753,0.75,-1.5625,0.4375
2395438153,0.3125,-1.5,0.5625
2395459234,1.4375,-2.375,0.75
2395483142,2.5,-2.4375,0.6875
2395497515,2.0625,-1.625,0.1875
2395519167,0.75,-1.25,-0.1875
2395541749,1,-1.5,-0.1875
2395557510,1.25,-2.5,-0.0625
2395579205,1.75,-3.375,-0.375
2395601696,2.9375,-3.5625,0.125
2395617495,3.25,-3.75,0.5625
2395639252,3.125,-4.3125,1.5
2395663119,3.625,-6,2.625
2395677487,5.5625,-7.75,3.75
2395700656,7.875,-10.0625,5
2395721721,10.4375,-13.8125,7.375
2395737535,14.1875,-19.8125,10.75
2395760652,20.5625,-28.6875,15.8125
2395781721,29.875,-40,23
2395797509,43.9375,-48.9375,30
2395820690,52.9375,-50,27.75
2395841697,43.3125,-48,21.0625
2395857926,33.375,-52.75,19.9375
2395880658,21.75,-53.8125,20.6875
2395901690,4.5,-52.4375,19.375
2395917472,-15,-49.1875,17.625
2395940622,-36.375,-41,16.5625
2395969229,-36.9375,-27.4375,9.375
2395977504,-57.75,1.6875,2.875
2396000673,-70.6875,20.9375,-11.75
2396021722,-34.25,27.1875,-14.625
2396037476,14.6875,21.4375,-6.4375
2396060646,32.4375,13.75,-1.6875
2396081677,21.9375,11.0625,2.9375
2396097476,8.6875,6.875,9.25
2396120677,7.9375,6.0625,15.3125
2396141768,14.5625,7.1875,15.0625
2396157499,14.875,8.1875,13.25
2396180661,8.4375,8.875,11.5
2396201687,4.875,7.75,10.4375
2396217501,5.9375,5.5,9.5625
2396240613,3.8125,2.4375,7.5
2396261761,0.3125,-0.5,4.75
2396277522,-3.3125,-0.25,1.25
2396300678,-5.8125,0.9375,-0.6875
2396321720,-3.625,1.3125,-0.5625
2396337478,-1.375,1.25,-0.1875
2396360623,0.75,0.875,0.625
2396381726,2.3125,1.8125,0
2396397552,4.25,2.1875,0
2396420687,3.5625,1.8125,0
2396441744,1.75,1.1875,0.25
2396457489,0.125,0.125,0.9375
2396480000,-1.3125,0,1.5625
2396501701,-2,0.8125,1.4375
2396517468,-0.9375,0.8125,1.25
2396539982,-0.1875,0.4375,0.9375
2396561735,-0.6875,-0.25,0.4375
2396577503,-0.875,-1,0.3125
2396600047,-1.6875,-1,0.1875
2396621707,-2.0625,-0.625,0.0625
2396637518,-1.5625,-0.75,0.1875
2396660051,41.3125,-16.3125,2.0625
2396690692,26.1875,-6.5625,4.0625
2396697519,8.625,-6.3125,-1.375
2396719996,-0.8125,-8.4375,-1.9375
2396743180,-4.375,-10.3125,-3.625
2396757497,-15.4375,-3.125,-1.0625
2396780029,-26,7.75,0.3125
2396803184,-10.375,21.3125,4.75
2396817496,1.3125,2.0625,-1.375
2396840004,3.25,-3,1.6875
2396863161,1.25,2.5,0.8125
2396877481,0.875,1.375,0.75
2396900027,2.875,1.25,1.5625
2396923201,-0.3125,1.5,0.4375
2396937530,-0.75,0.5,0.375
2396966732,-0.75,-0.375,0.75
2396983140,-0.6875,-0.5625,1.0625
2396997501,-0.0625,0.25,1.0625
2397019987,-0.25,0.1875,0.4375
2397043189,1.3125,0.875,0.375
2397057521,1.75,0.8125,0.0625
2397080020,1.0625,0.875,0.25
2397103098,0.1875,0.375,0.0625
2397117498,-0.125,0.5,0.1875
2397140005,-0.625,0.4375,0.25
2397163149,-0.8125,0.375,0.4375
2397184265,-0.6875,0.125,0.5
2397200020,-0.4375,0.375,0.6875
2397223197,0.5625,0.875,0.625
2397244242,1.3125,1.0625,0.4375
2397259988,1.6875,1.3125,0.3125
2397283148,1.5,1.125,0.125
2397304243,1.0625,0.75,0.0625
2397322794,0.0625,0.375,-0.0625
2397347379,0.1875,0.0625,0.0625
2397364264,0.0625,0.4375,-0.75
2397380007,0.8125,0.125,-0.125
2397402512,0.6875,1.875,0.8125
2397424264,-0.5,0.375,0.5625
2397440048,-0.875,-0.5,0.875
2397462517,-0.4375,-0.625,0.375
2397484240,1.3125,-0.4375,0.375
2397500053,0.625,0.6875,0.25
2397522512,-1.8125,1.4375,0.4375
2397544232,-0.4375,1.75,1.125
2397560021,0.375,0.1875,0.375
2397582493,0.4375,-0.0625,-0.125
2397605654,-0.125,-0.0625,-0.25
2397620052,0.0625,-0.3125,-0.4375
2397650685,-1.875,2.0625,0.875
2397665691,0.0625,-0.0625,-0.875
2397679988,1.1875,-0.75,-0.75
2397702546,0.4375,1.1875,-0.8125
2397727123,1.375,-0.0625,0.4375
2397740021,0.875,-0.125,-0.3125
2397762518,-0.0625,0.125,-0.5
2397785680,-0.125,-0.25,-0.375
2397800027,-0.4375,-0.375,-0.3125
2397822535,-0.375,0,-0.5625
2397845701,0.0625,-0.1875,-0.5
2397860055,0.1875,-0.125,-0.25
2397882529,0.4375,-0.125,-0.125
2397905462,0.6875,0.3125,-0.0625
2397920046,0.625,0.6875,0
2397942510,0.25,0.25,-0.1875
2397965676,0.0625,0.1875,-0.25
2397980026,-0.25,-0.3125,-0.25
2398002495,-0.1875,-0.125,-0.3125
2398025720,0.25,-0.0625,-0.3125
2398046756,0.25,-0.1875,-0.25
2398062517,0.125,-0.5,-0.25
2398085674,-0.375,-0.625,-0.3125
2398106724,-0.5625,-0.4375,-0.0625
2398129219,-0.3125,-0.5,0.1875
2398145719,0.4375,0,0.1875
2398166746,0.4375,-0.0625,0.125
2398182548,0.1875,-0.4375,-0.1875
2398205700,-0.1875,-0.5,-0.25
2398226736,-0.4375,-0.5625,-0.375
2398242569,12.625,-12.125,0.1875
2398265786,14.3125,-9.875,0.875
2398286814,7.0625,-10,-1.5625
2398302617,2.3125,-9.1875,-1.625
2398325028,4.3125,-9.375,-1.4375
2398356121,11.9375,-9.1875,0.8125
2398362568,16.375,-9.1875,0.8125
2398385084,7.75,-4.0625,0.0625
2398406759,-2.375,1.8125,0.4375
2398422539,-5.5,4.625,0.5
2398445131,0.6875,3.25,0.75
2398458795,1.625,0.5,0.4375
2398489984,-1.5,-0.875,-0.3125
2398496171,-2.1875,-0.8125,-1
2398518668,-4.8125,2,-1.1875
2398541772,-19,13.625,-0.75
2398556140,-25,17.375,-1.6875
2398578854,-15.0625,12.125,-0.625
2398601876,6.125,4,1.625
2398616277,2.8125,-1.125,-0.5
2398638660,0.5,2.5,0.375
2398661929,0.5,1.125,-0.625
2398676211,0.875,0.3125,-0.6875
2398698698,-2.1875,-0.125,-0.875
2398721811,-2.5,-0.75,0.0625
2398736318,-0.75,-0.9375,0.5
2398758741,0.3125,-0.1875,0.375
2398781900,0.875,0.5625,0
2398796327,1,0.625,-0.125
2398818667,1.125,0.0625,-0.1875
2398841940,0.25,-0.375,0
2398856100,-0.75,-0.625,0
2398878701,-0.75,-0.375,-0.125
2398901777,-0.5,-0.1875,0.0625
2398916308,-0.1875,0,0.1875
2398938770,0.6875,0.3125,0.0625
2398961977,1.1875,0.375,-0.1875
2398976267,1.1875,0.4375,-0.1875
2398998650,0.6875,0.25,-0.0625
2399021812,0,-0.1875,-0.1875
2399036195,-0.25,-0.625,-0.375
2399058663,-0.1875,-0.625,-0.75
2399081800,0.0625,-0.625,-0.8125
2399096084,0.0625,-0.25,-0.375
2399118703,0.0625,0,0.0625
2399141815,0.1875,-0.0625,0.25
2399156116,0.125,-0.0625,0.25
2399178778,-0.125,-0.1875,0.125
2399201820,-0.3125,-0.0625,0.1875
2399216326,-0.1875,-0.3125,0.0625
2399238886,0.6875,-0.125,-0.125
2399261835,0.75,0.125,-0.375
2399276160,0.5625,-0.125,-0.5
2399298595,0.0625,-0.3125,-0.5625
2399321788,-0.0625,-0.4375,-0.4375
2399336276,0.1875,-0.25,-0.5
2399358829,0.375,-0.1875,-0.3125
2399381966,0.6875,-0.1875,-0.1875
2399396340,0.25,-0.25,0
2399418801,1.875,-11.0625,-1.25
2399441251,-4.25,-1.875,-0.875
2399456166,-6.4375,-0.8125,-1.9375
2399478700,-6.875,1.3125,-0.75
2399501185,-8.6875,1.8125,-1.75
2399516203,-5.125,-1.1875,0
2399538736,1.5625,-0.625,0.75
2399561363,5.25,-2.25,0.5625
2399576322,2.3125,-0.9375,-0.125
2399598877,1.125,0.25,-0.6875
2399621320,4,0.5,-0.4375
2399636174,7.25,2,0.4375
2399658666,5.625,5.625,-0.5
2399681097,-0.75,0.0625,-0.375
2399696190,0.0625,-0.1875,0.6875
2399718824,0.8125,0.125,0.0625
2399741137,-0.125,-0.5,-0.125
2399756251,-0.4375,-0.5,-0.3125
2399778775,0.1875,-0.375,-0.1875
2399801239,0.875,-0.4375,-0.0625
2399816142,0.25,-0.25,0.1875
2399838696,0.25,-0.0625,0.125
2399861271,0.6875,-0.125,-0.3125
2399876350,0.5625,-0.1875,-0.5625
2399898719,0.0625,-0.4375,-0.4375
2399921230,-0.5,-0.5,-0.375
2399936187,-0.0625,-0.375,-0.125
2399958676,0.0625,-0.25,0.0625
2399981245,0.1875,0,0.0625
2400004348,0.375,0,0.0625
2400018874,0.0625,-0.25,-0.375
2400041132,0.0625,-0.1875,-0.3125
2400056160,0.25,-0.375,-0.1875
2400078689,0,-0.25,-0.0625
2400101195,0,-0.25,-0.1875
2400116210,0,-0.3125,-0.25
2400138820,0.1875,-0.3125,-0.3125
2400161208,0.1875,-0.3125,-0.125
2400176250,0.4375,0.0625,-0.0625
2400198823,0.5625,0.0625,0.0625
2400221356,0.125,-0.25,0
2400237695,-0.25,-0.375,-0.375
2400258665,12,-17.9375,-0.6875
2400281345,1.4375,-9.1875,-0.5625
2400297690,-5.25,-8.1875,-2.125
2400318700,3.4375,-10.8125,-0.75
2400341246,14.5625,-14.3125,0.1875
2400357609,18.5625,-12,1.6875
2400378712,18.625,-7.125,2.1875
2400401183,11.5625,-0.375,1.8125
2400417563,-5.5,5.4375,-0.875
2400438681,-36.8125,17.625,-4.25
2400461302,-29.6875,29.5625,-0.5625
2400477650,3.1875,18.0625,2.375
2400498805,-0.1875,-6.0625,-1.8125
2400521316,2.75,0.6875,2.5
2400537599,-2.9375,1.1875,-1.4375
2400558900,1.75,-0.6875,-0.625
2400581219,-2.125,0,-1.625
2400597657,-1.75,-0.25,-0.9375
2400621548,0.375,-0.625,0.125
2400641162,1.5625,-0.875,0.3125
2400657683,0.9375,0.0625,0.0625
2400678728,0.9375,0.75,-0.25
2400701389,1.5,0.4375,-0.5
2400717727,0.8125,0.25,-0.4375
2400738850,0.25,-0.625,-0.375
2400761277,0.0625,-0.8125,-0.0625
2400777574,-0.1875,-0.625,0.0625
2400798743,-0.3125,-0.5625,0.25
2400821287,0.125,-0.1875,0.5
2400837710,0.5625,0.3125,0.4375
2400858653,0.5625,0.4375,-0.125
2400881231,0.8125,0.125,-0.6875
2400897685,0.3125,-0.1875,-1.0625
2400918658,0.8125,-0.375,-1.25
2400941276,1.4375,-0.4375,-1.4375
2400957593,1.1875,-0.4375,-1.5
2400986329,0.6875,-0.625,-1.25
2401001908,0.5625,-0.5625,-0.9375
2401019121,0,-0.9375,-0.25
2401038781,-0.3125,-0.375,1.25
2401061282,-1,-0.1875,0.8125
2401077712,2.25,0,-1.3125
2401098908,0.5,1.625,-0.5625
2401121296,1.1875,0.8125,-1.1875
2401137567,1.5,0.3125,-1
2401158700,1.8125,1.5,0.0625
2401181157,2.125,1.3125,-0.625
2401197659,2.0625,2.625,-0.5
2401220202,0.375,-0.9375,-1.8125
2401241205,-3.125,1.9375,-1.1875
2401257629,1.625,-2.1875,-1.5625
2401280234,-0.5625,0.75,0.0625
2401301422,2.125,2.25,0.8125
2401317654,3.1875,-0.1875,0.375
2401340131,2.25,-1.375,0.125
2401361380,1.125,-0.1875,-1.4375
2401377734,1.6875,0.25,-0.8125
2401400313,0.5625,0.6875,-0.25
2401421299,-0.0625,1.0625,-0.6875
2401437683,1.375,1.125,-0.6875
2401460203,2.8125,1.125,-0.5625
2401481338,1.375,1.1875,-0.375
2401497641,-0.25,1.0625,-0.375
2401520153,-0.6875,0.375,-0.6875
2401541236,-0.3125,-0.3125,-0.375
2401557610,-0.3125,-0.375,0.375
2401580168,0.8125,1.0625,0.0625
2401601145,3.5625,2,0
2401617712,4.1875,3,-0.1875
2401640096,2.125,2.6875,-0.25
2401661302,0.125,1.25,-0.25
2401677608,0.125,0.375,-0.1875
2401700111,-0.375,0.3125,-0.1875
2401721320,-1,0.75,0.125
2401737650,0.1875,2.3125,0.3125
2401760141,3.1875,3.1875,0.0625
2401781250,5.1875,3.875,0.375
2401797709,4.8125,4.0625,0.1875
2401820258,4.75,5.3125,-0.4375
2401841338,4.4375,5.625,-0.75
2401857568,3.9375,5.0625,-0.375
2401880155,3,5.75,-0.75
2401901235,2.5625,6.25,-0.875
2401917746,2.8125,6.1875,-0.375
2401940122,2.75,5.3125,-0.4375
2401961308,2.25,4.5,-0.0625
2401977663,3.375,4.4375,-0.1875
2402000204,3.1875,4.9375,-0.5
2402021234,2.4375,4.3125,-0.625
2402037647,1.875,3,-0.375
2402060140,1.125,1.8125,-0.25
2402081239,0.5625,1.4375,0.0625
2402097742,0.8125,1.375,0.375
2402120092,1.3125,1.5625,0.4375
2402142645,0.6875,1.5,0.5625
2402157617,0.375,1.1875,0
2402180190,-0.3125,0,-1.1875
2402202642,-0.875,-0.6875,-1.625
2402217624,-2.25,-1.5625,-1.1875
2402240136,-2.5,-1.1875,-0.5
2402262676,-2.125,-0.375,0.1875
2402277656,-0.75,0.5,0.875
2402300188,-0.9375,0.75,1.375
2402322687,-0.8125,0.0625,1
2402338400,-0.75,-1.125,0.25
2402359522,-0.5625,-1.4375,-0.75
2402382072,-0.5625,-1.6875,-1.6875
2402398324,-0.75,-1.4375,-2
2402419402,-0.375,-1.3125,-2.3125
2402441882,-0.4375,-1.125,-2.625
2402458392,-1.375,-0.8125,-2.625
2402479402,-1.375,-1.1875,-2.1875
2402501885,-1.3125,-0.9375,-1.5
2402518398,-2.25,-1.375,-0.8125
2402539363,-2.5625,-1.1875,-0.25
2402561873,-0.4375,-0.8125,0.4375
2402578360,0.9375,-0.1875,0.9375
2402599527,1.0625,1.0625,1.25
2402622047,1.8125,1.5,1.0625
2402638326,2.6875,1.5625,0.75
2402659326,1.8125,1.0625,-0.0625
2402681822,0.75,0.375,-0.625
2402698317,0.1875,-0.3125,-1
2402719526,0.25,-0.4375,-1.0625
2402741886,0.625,-0.125,-1.25
2402758311,0.5625,0.1875,-1.125
2402779405,0.4375,0.125,-0.8125
2402801884,-0.125,-0.1875,-0.875
2402818369,-0.4375,0.125,-0.6875
2402839463,-1.4375,-0.25,0
2402861933,-2.125,-0.6875,0.25
2402878327,-1.25,-0.625,0.1875
2402899406,-0.0625,-1.0625,0.1875
2402921912,-0.3125,-0.625,0.25
2402938352,0.5,-0.0625,0.4375
2402959482,2.125,0.0625,0.0625
2402982078,1.75,0.5625,-0.125
2402998309,0.125,-0.25,-0.375
2403019420,-0.125,-0.8125,-0.8125
2403041917,0.375,-0.75,-1.125
2403057631,0.4375,0.0625,-0.9375
2403079526,0.6875,0.875,-0.3125
2403101850,0.375,1.0625,0.0625
2403117729,-0.25,0.5,0.0625
2403139510,-1.625,-0.625,0.3125
2403161896,-2.1875,-1.1875,0.375
2403177689,-1.125,-0.625,0.375
2403199355,-0.3125,0.25,0.25
2403221816,0,0.1875,0.375
2403237669,-0.1875,-0.6875,0.1875
2403260815,-0.3125,-1.6875,-0.375
2403283281,-0.5625,-1.6875,-0.75
2403297631,-0.5625,-1.0625,-1.0625
2403320852,0,-0.5625,-0.8125
2403341912,0.5,-0.25,-0.5
2403357652,0.875,0.125,-0.3125
2403380793,0.875,0.8125,-0.1875
2403401834,0.3125,1.0625,0.1875
2403417646,-0.4375,0.5,0.375
2403440793,0,0.125,0.1875
2403461982,0.875,0.125,0
2403477686,1.1875,0.25,-0.125
2403500789,1.125,0.25,-0.0625
2403521854,0.625,-0.0625,-0.1875
2403544355,-0.0625,-0.625,-0.5625
2403560823,-0.5625,-1.3125,-0.8125
2403581893,-0.9375,-1.4375,-0.5
2403597869,-0.625,-1,-0.0625
2403620672,0.375,0.25,0.3125
2403641875,1.3125,1.125,0.625
2403657676,0.875,1,0.5
2403680825,0.0625,0.375,0.0625
2403701865,-0.3125,-0.4375,-0.125
2403717672,-0.875,-0.9375,-0.4375
2403740787,-0.8125,-1,-0.625
2403762076,-0.1875,-0.875,-0.6875
2403777695,0.375,-0.75,-0.5
2403800859,0.375,-0.625,-0.1875
2403821940,0.125,-0.25,-0.0625
2403837684,0,-0.125,0
2403860801,0.25,-0.0625,-0.0625
2403882028,0,-0.125,-0.1875
2403897673,0.1875,-0.25,-0.125
2403920941,0,-0.25,-0.1875
2403941914,0.1875,-0.0625,-0.375
2403958147,0.3125,0,-0.625
2403980911,0.625,0,-0.5
2404001861,0.3125,-0.3125,0.0625
2404017703,0,-0.5625,0.4375
2404040183,0.1875,-0.5,0.3125
2404061643,0,-0.4375,0.0625
2404077705,-0.5,-0.5625,-0.375
2404100236,-0.125,-0.6875,-0.75
2404122050,0.375,-0.625,-0.625
2404137662,0.5,-0.3125,-0.1875
2404160246,0.75,0.375,0.1875
2404183524,1.25,0.75,0.625
2404197728,0.8125,0.625,0.75
2404220228,0.375,0.4375,0.5625
2404243348,0.3125,0.125,0.25
2404257800,0.3125,0.5,-0.3125
2404280264,0.25,0.625,-0.4375
2404303447,0.5,0.25,0.25
2404317773,0.6875,0.3125,0.8125
2404346895,2.375,1.25,0.8125
2404363330,2.0625,1.8125,0.1875
2404377697,-0.0625,1.125,-0.4375
2404400244,-2.25,-0.4375,-0.875
2404423529,-1.5625,-1.75,-0.6875
2404437723,-0.375,-1.5,-0.4375
2404460242,-0.8125,-0.125,0.3125
2404483485,-1.125,0.1875,1.25
2404497750,0.375,0.4375,1.3125
2404520263,1.5625,0.5,0.9375
2404543378,1.1875,0.0625,0.75
2404557827,-0.25,-0.375,0.375
2404580250,-1.5,-1.375,-0.625
2404603488,-2.25,-2.1875,-1.25
2404617731,-2.5625,-2.375,-1.1875
2404640156,-1.8125,-1.5625,-0.5625
2404663409,-0.4375,0,0.0625
2404677832,0.1875,1.375,0.0625
2404700303,0.0625,1.1875,-0.25
2404723516,-0.5,-0.3125,-0.75
2404744610,-0.5625,-0.75,-1.5
2404760238,0.125,-0.875,-2.375
2404783387,-0.4375,-1.0625,-2.625
2404804608,-2.1875,-1.8125,-1.9375
2404820251,-2.5,-2.0625,-1.5625
2404843492,-1.6875,-2.375,-0.8125
2404864614,-1.3125,-1.3125,0.0625
2404880332,-1.25,-0.6875,0.9375
2404903439,-1.5,-0.75,1.5625
2404924636,-1.4375,-1.5625,1.25
2404940213,-1.375,-2.75,0
2404962780,-2.6875,-3.0625,-1.5
2404984641,-3.875,-3.1875,-1.8125
2405000283,-4.375,-3.5,-1.875
2405022767,-5.75,-2.875,-1.3125
2405044693,-1.8125,-1.75,-0.4375
2405060270,-0.5625,-0.25,0.625
2405082733,1.625,1.375,1.375
2405104617,3.3125,1.1875,1.375
2405120317,3.5,1.125,0.5625
2405142777,3.9375,1.0625,-0.9375
2405165887,3.6875,0.5625,-2.25
2405180260,1.8125,-0.4375,-2.75
2405202682,0.625,-0.5,-2.4375
2405225985,1.5,-0.5,-1.8125
2405240310,2.5,0.75,-0.875
2405262707,3.25,1.1875,-0.4375
2405285906,3.3125,1.3125,-0.125
2405300243,3.3125,0.8125,-0.375
2405322685,2.8125,0.875,-0.9375
2405345945,3.125,0.6875,-1.1875
2405360277,3,0.875,-0.9375
2405382803,2.5625,0.9375,-0.6875
2405405927,2.5,0.9375,-0.375
2405420243,1.8125,0.5,-0.125
2405442788,0.5625,-0.3125,-0.5
2405465898,-0.125,-0.4375,-1.0625
2405480290,0.125,-0.875,-1.25
2405502778,0,-1.0625,-1.1875
2405525917,0.8125,-0.4375,-0.6875
2405540265,1.8125,-0.0625,-0.4375
2405562796,2.0625,0.3125,-0.5625
2405586005,1.8125,0.1875,-0.625
2405600135,0.5625,-0.4375,-0.6875
2405622735,-0.9375,-1.375,-0.5625
2405645894,-1.625,-1.625,-0.375
2405667019,-0.9375,-1.3125,-0.5
2405682682,-0.375,-1,-0.5
2405705955,-0.25,-0.5,-0.3125
2405726915,0.6875,-0.125,-0.1875
2405742677,0.875,-0.0625,0.1875
2405765963,0.1875,-0.125,0.25
2405786980,-0.5,0.1875,0.0625
2405802687,-0.25,0,0
2405825880,-0.5625,-0.3125,-0.0625
2405846921,-1.4375,-0.625,-0.25
2405862711,-1.375,-0.9375,-0.25
2405885901,0,-0.6875,-0.1875
2405907000,0.8125,0.625,-0.125
2405922763,1.3125,1.0625,0.25
2405945204,1.75,1.125,0.125
2405966982,2.0625,1.375,-0.25
2405982796,1.1875,0.75,-0.375
2406011971,-0.8125,-0.0625,0
2406026958,-2,-1.1875,0.25
2406042705,-1.875,-1.375,0.125
2406065187,-1.75,-1,-0.0625
2406088392,-1.75,-0.1875,-0.1875
2406102729,-1.5,-0.3125,0
2406125289,-1.3125,-0.625,0.25
2406148400,-1.8125,-0.875,0.125
2406162715,-1.625,-0.5625,0.0625
2406185297,-1.25,-0.5625,0.3125
2406208482,-0.1875,0.0625,0.3125
2406222776,1.3125,0.8125,0
2406236437,2,0.75,-0.1875
2406258918,1,0.125,-0.3125
2406282147,-0.25,-0.6875,-0.0625
2406296423,-0.1875,-0.5625,0.1875
2406318818,-0.25,0.375,0.375
2406341942,-0.125,1.25,0.375
2406356416,0.8125,1.9375,0.3125
2406378938,2.1875,2.0625,-0.1875
2406402490,1.6875,1.25,-1
2406416504,1.5,1.3125,-0.9375
2406438796,1.1875,-0.125,-0.5625
2406461978,0.3125,-0.5,0
2406476336,-0.0625,-1.25,-0.4375
2406498967,-0.75,-1.375,-0.75
2406522079,-1.0625,-1.4375,-0.75
2406536426,-0.625,-0.6875,-0.5625
2406558798,0.625,0.1875,-0.125
2406582134,1.25,0.9375,0.375
2406596346,0.1875,1,0.75
2406618841,-1.125,0.3125,0.5625
2406641989,-1.75,-0.625,0.0625
2406656374,-1.9375,-1.1875,-0.25
2406680338,-1.3125,-1.0625,-0.25
2406701938,-0.1875,-0.625,0.4375
2406716359,0.75,0.0625,0.875
2406738893,1.1875,0.625,0.625
2406762001,1.25,0.625,-0.125
2406776324,1.0625,-0.125,-0.6875
2406798876,0.0625,-0.75,-0.875
2406822047,-0.25,-0.875,-0.6875
2406836522,-0.4375,-0.625,-0.625
2406858803,0.125,-0.375,-0.4375
2406882148,0.625,-0.125,-0.125
2406896492,0.5,-0.0625,0.1875
2406926985,0.375,0.375,0.25
2406941984,0.3125,0.25,0.1875
2406956398,0.125,0.125,0.25
2406978821,-0.125,-0.0625,0.4375
2407001961,-0.4375,-0.4375,0.25
2407016264,-1.125,-0.9375,-0.4375
2407039117,-1,-1.3125,-0.9375
2407061277,-0.5,-1.125,-1.1875
2407076302,0.125,-0.5625,-0.75
2407098829,0.75,0,-0.3125
2407121244,1.625,0.625,-0.25
2407136274,1.625,0.75,-0.3125
2407158798,0.5625,0.125,-0.375
2407181277,-0.5,-0.5625,-0.4375
2407196352,-0.25,-0.5625,-0.375
2407218821,0.1875,-0.1875,0.125
2407241292,0.3125,0.125,0.6875
2407256474,0.75,0.1875,0.75
2407278799,1.625,0.375,0.125
2407301325,1.3125,0.25,-0.5
2407316501,0.375,-0.0625,-0.625
2407338967,-0.6875,-0.5625,-0.8125
2407361320,-1.625,-1.375,-0.6875
2407376285,-2.75,-1.875,-0.3125
2407398815,-2.875,-1.625,0.125
2407421324,-1.3125,-0.5,0.9375
2407436423,1.0625,1,0.9375
2407458756,2.4375,1.6875,0.5625
2407481301,2.375,1.125,0.5
2407496265,1.3125,0.3125,-0.1875
2407518877,0,-0.8125,-0.5
2407542849,-1.375,-1.4375,-0.25
2407556497,-0.8125,-0.75,-0.5
2407578840,0.8125,0,-0.3125
2407601394,2.25,0.25,-0.25
2407616384,2.9375,0.625,-0.1875
2407639020,2.0625,0.9375,-0.375
2407661500,0.75,0.3125,-0.125
2407676503,-0.5,-0.25,0.125
2407707046,-1.1875,-0.5,0.1875
2407721416,-1.0625,-0.625,0.3125
2407736413,-0.8125,-0.125,0.0625
2407758852,-0.375,0,-0.25
2407781461,-0.125,-0.3125,-0.0625
2407796474,-0.3125,-0.6875,0.125
2407818896,-0.4375,-1,0.0625
2407841346,0,-0.875,0.125
2407857708,-0.25,-0.6875,-0.125
2407878990,-0.5,-0.375,-0.5625
2407901548,0.125,-0.1875,-0.6875
2407917756,0.75,-0.3125,-0.8125
2407938947,0.6875,-0.0625,-0.3125
2407961506,0.875,0.5625,-0.0625
2407977778,1.25,0.75,0.5625
2407999065,0.6875,0.6875,0.5625
2408021317,0.0625,0.0625,0.125
2408043838,-0.4375,-0.75,-0.3125
2408058782,-0.6875,-1.4375,-0.6875
2408081287,-0.3125,-1.3125,-0.5
2408097762,0.0625,-0.5625,0.0625
