myot,x,y,z
59427253408,8.3125,0.9375,1.9375
59427268513,3.25,2.0625,1.3125
59427299682,1.9375,2.6875,0.5625
59427314714,1.5,3,-0.1875
59427329739,0,2.9375,-0.625
59427351001,-0.9375,2.5625,-0.375
59427374698,-1.3125,2.125,-0.125
59427428716,-1.1875,1.4375,0.1875
59427429535,0.1875,0,0.5
59427436852,2.8125,-1.5625,-0.75
59427457892,7.0625,-3.3125,-1.8125
59427472862,7,-2.3125,-1.9375
59427494142,-1.125,-0.25,-1.75
59427509329,-6.5,0.875,-1.4375
59427545929,-6.625,1.75,-0.6875
59427555953,-4,2.4375,-0.1875
59427577951,-0.625,2.8125,-0.0625
59427590906,2.25,2.75,0.4375
59427614042,1.625,2.875,1.125
59427629793,0.875,3.0625,1.4375
59427650825,1.125,2.25,1.8125
59427673993,-0.3125,0.4375,1.375
59427689798,1.9375,-1.8125,0.5625
59427710928,5.3125,-2.0625,-1.125
59427734024,-3.125,-0.1875,-1.8125
59427749796,-7.5,1.625,-1.6875
59427770839,-11.6875,2.75,-1.9375
59427794028,-8.75,3.6875,-1.875
59427809857,-8.5625,3.875,-1.4375
59427830837,-7.4375,4.125,-0.9375
59427854089,-6.9375,3.6875,-0.75
59427869852,-5,3.25,-0.6875
59427891007,-4,2.5,0
59427913365,-0.9375,-0.25,0.4375
59427929759,3.4375,-2.1875,-0.6875
59427950906,8.5625,-3.875,0.1875
59427973379,1.0625,-2.25,-0.4375
59427989815,0.125,-1.875,0.375
59428010843,-4.25,-0.9375,0.8125
59428033301,-0.375,-0.625,0.8125
59428049717,0.8125,-0.125,0.75
59428072250,1,-0.0625,0.75
59428093263,1.3125,-0.25,0.875
59428109748,-1.375,-0.125,0.8125
59428130778,-2,0,0.6875
59428153270,-4.3125,-0.3125,0.9375
59428169771,-4.4375,-0.875,1.875
59428192303,-6.3125,-1.1875,2.875
59428214799,-5.5,-1.4375,2.6875
59428229793,-4.25,-1.1875,2.625
59428252311,-2.875,-1.5,2.125
59428273422,-1.0625,-1.75,1.875
59428289870,-1.5,-2.3125,2.3125
59428312369,-1.3125,-2.5,2.5625
59428333397,1.1875,-2.625,2.1875
59428357960,-6.3125,-1.25,0.1875
59428372248,-11.8125,-2.0625,-2.875
59428393413,3.25,-13.8125,-6.875
59428409870,-3.3125,-7.8125,-2.0625
59428432320,-5.75,-4.4375,-2.4375
59428453447,8.75,-26.25,-3.125
59428469749,9.625,-33.6875,-1.4375
59428492276,-3.8125,-19.5625,-0.375
59428513419,-14.6875,-11.4375,-0.375
59428529845,-13.3125,-9.5,1.125
59428552330,-12.125,-13.6875,0.6875
59428573346,2.3125,-18,-1.5
59428589847,18.25,-20.3125,-0.6875
59428612259,29.9375,-23.3125,1.9375
59428633319,34.9375,-24.875,6.1875
59428649783,33.9375,-24.1875,10.0625
59428672275,25.9375,-23.0625,13.6875
59428693294,23.75,-18.8125,16.125
59428709028,19.1875,-12.625,18
59428731479,1.25,-4.125,19.875
59428754018,-11.9375,-1,16.625
59428769006,-8.6875,-6.1875,8.3125
59428791460,-0.375,-5.9375,13.5625
59428813983,-11.875,-5.375,16.6875
59428829016,-7.25,-5.8125,19.3125
59428851508,-7,-6.1875,22.625
59428874009,-8.125,-6.5,22.6875
59428888975,-7.875,-4.9375,19.625
59428911477,-4.375,2.625,17.875
59428933970,-5.5,14.625,24.5
59428949101,-27.5625,23.8125,26.875
59428971486,-22.875,29.4375,31.125
59428994069,-22,26.75,34.0625
59429009028,-12.5,17.8125,33.5625
59429031520,-4.125,10.5,34.3125
59429054039,-12.0625,0.875,37.25
59429069068,-31.125,-5.25,40.25
59429091534,-15.3125,-7.9375,46.4375
59429114018,-3.3125,-17.8125,49.3125
59429128984,7.1875,-27.5,49.625
59429151489,12.25,-32.875,45.875
59429174023,15.5625,-32,35.75
59429188925,1.9375,-31.5625,28.6875
59429211501,-2.4375,-32.8125,24.6875
59429233985,-8.375,-31.6875,20.8125
59429249040,-12.6875,-30.4375,17.125
59429271495,-17.375,-26.5,13.8125
59429294089,-21.25,-24.25,13.5625
59429309037,-20.375,-24.8125,12.6875
59429331584,-18.9375,-24.625,12.5625
59429354092,-13.25,-20.4375,11.9375
59429370486,-13.25,-13.875,10.1875
59429391547,-16.8125,-11.75,10.0625
59429414098,-9.4375,-6.1875,8.5625
59429430559,-15.375,2.125,8
59429451540,-15.0625,11.5,7.375
59429474048,-12.25,19.3125,3.625
59429491119,-22.8125,16.5,1.625
59429511555,-11.75,6.6875,-2.625
59429533975,-2.9375,0.125,-6.6875
59429550457,-8.0625,-5.5625,-6.1875
59429571551,-17.6875,-4.875,1.8125
59429587280,-7.3125,-2.5625,5.8125
59429610428,-13.125,-2.4375,7.625
59429631426,-0.3125,-0.375,4.75
59429647323,8.6875,5.25,-2.8125
59429670481,-5.3125,9.6875,-5.875
59429691544,-14.625,9,-5.25
59429707297,-10.9375,6.625,-6.3125
59429746129,-8.3125,6.8125,-2.5625
59429759145,4.375,6.625,-0.375
59429767340,12.1875,11.25,0.25
59429790495,4.75,17.375,-1
59429811610,-12.1875,16.75,-5.375
59429834016,-11.9375,13.375,-5.9375
59429850460,-13.25,7.8125,-5
59429871506,-2.0625,8.25,-2.125
59429893985,5.625,11.625,-0.125
59429910428,-3.5,12.3125,-1.75
59429931513,-2.0625,11.1875,-3.875
59429947340,2.8125,12.4375,-3.125
59429970490,-2.6875,12.5,-3
59429991592,-2.5,13.8125,-2.75
59430007372,-2,15.25,-1.9375
59430030479,-6.4375,13.6875,-4.4375
59430051511,-5.5,8.875,-6.8125
59430067358,1.125,3.125,-7.25
59430089880,-0.625,2.875,-5
59430128588,4.625,6.875,-2.6875
59430130936,0.875,9.5625,0.125
59430149808,0.625,10.125,0.5625
59430171519,9,-3.8125,-2.0625
59430187312,9.375,-6.625,0.8125
59430218315,12.625,-2.875,3.8125
59430231605,15.3125,2.375,6.25
59430247369,10.6875,5.9375,6.8125
59430276616,5.75,6.875,4.625
59430293007,2.625,6.8125,2.3125
59430307380,-0.5625,6.875,0.1875
59430329885,-1.6875,9.125,-1
59430360872,-3.8125,4.5625,-5.3125
59430368813,-2.1875,2.5,-5.9375
59430389836,-6.0625,4,-5.625
59430413045,-4,5.0625,-5.375
59430427307,-4.5625,5.9375,-4.1875
59430457998,-4.4375,6.625,-3.125
59430472963,-3.3125,7.75,-1.25
59430487314,-3.0625,8.5625,0
59430509778,-3.6875,8.625,1.125
59430540494,-3.5,7.375,-1.4375
59430547340,-2.125,6.3125,-1.875
59430569909,-4.125,6.5625,-1.6875
59430593010,-2.75,6.5,-1.0625
59430607325,-3.8125,5.6875,0.25
59430629800,0.375,4.5625,1.6875
59430653005,2.3125,3.5,3.25
59430667332,1.6875,3.25,4.5
59430689940,4.375,2.9375,6.0625
59430713082,7.4375,2.875,7.125
59430735455,5.25,2.8125,7
59430749815,6.125,3.125,5.875
59430772970,4.625,3.875,5.125
59430794130,4.375,3.5,4.75
59430809897,6.5625,3.0625,4.5625
59430832998,6.5,2.8125,4.5
59430854021,5.8125,2.1875,4.5
59430869778,5.1875,1.5625,4.5
59430893014,3.75,1.0625,3.5
59430914069,2,0.8125,1.25
59430929883,-0.8125,0.5,-0.25
59430969051,0.25,1,-1.625
59430975897,-2.1875,1.625,-2.4375
59430989771,-2.875,1.5625,-2.1875
59431012949,-2.875,1.4375,-1.3125
59431034033,-0.75,1.6875,0.0625
59431049830,-0.25,1.375,1.3125
59431072337,0.875,0.625,1.5
59431094136,0.5,0.5625,1.125
59431109943,0.125,0.1875,0.875
59431132360,0.75,0.375,0.375
59431154101,-0.25,0.6875,0.375
59431169919,0.25,1.1875,0.5
59431192416,-0.5625,1.5625,0.625
59431215564,0.5625,1.125,0.75
59431229899,1,0.875,0.4375
59431252380,0.4375,1.0625,-0.1875
59431275493,-1.0625,1.4375,0
59431289833,0.4375,1.375,0.1875
59431312318,1.125,1.25,0.25
59431335442,0.25,0.875,0.4375
59431349778,0.75,0.5625,0.625
59431372401,1.4375,0.75,0.5
59431395523,-0.8125,0.875,0.625
59431409857,0.6875,0.5,0.5
59431432446,1.125,0.3125,0.5
59431455570,1,-0.125,0.375
59431469923,1,0.0625,0.375
59431492357,0.5,0.1875,0.3125
59431515645,0.75,0.25,0.6875
59431538041,1.0625,0.5625,0.8125
59431552335,0.1875,0.5,0.875
59431575975,0.75,0.25,1.1875
59431589866,1.625,-0.125,1.3125
59431612393,1.625,0.25,1.25
59431635497,1.5,0.25,1.6875
59431656623,1.6875,0.75,1.625
59431672374,1.4375,1.0625,1.3125
59431695554,0.9375,0.75,1.25
59431709884,0.625,0.4375,0.9375
59431732419,1.25,0.5625,0.75
59431755495,0.75,0.375,1
59431776622,1.6875,0.25,1.375
59431792497,1.375,0.75,1.5625
59431815545,1.25,0.9375,1.125
59431836630,0.8125,0.8125,0.875
59431852404,0.625,0.3125,0.75
59431875572,1.0625,0.125,0.6875
59431896639,0.25,0.5,0.8125
59431912471,0.875,0.625,1.125
59431935587,2,0.375,1.5
59431964153,1.8125,0.25,1.6875
59431972359,1.5,0.125,1.8125
59431994860,1.6875,0.1875,1.4375
59432016645,1.0625,0.75,1.125
59432032424,-0.0625,0.6875,0.625
59432054896,0.75,0,0.625
59432078096,0.8125,-0.1875,0.5
59432092445,0.4375,0.1875,0.5
59432114881,-0.375,0.8125,0.5625
59432138071,0.1875,0.5625,0.75
59432152438,0.75,-0.1875,0.6875
59432174854,0.625,-0.375,0.6875
59432198118,0.9375,-0.25,0.9375
59432212504,1.375,0.1875,1
59432234891,0.625,0.625,0.625
59432258095,-0.875,0.4375,0
59432272429,-0.1875,0.1875,-0.125
59432294930,0.5,0.5625,-0.125
59432308475,-1,0.5,0.1875
59432331624,1.125,0.375,0.8125
59432345963,1,0,1.5
59432368504,1.875,-0.3125,1.8125
59432399766,1.0625,-0.25,1.75
59432405999,0.4375,-0.25,1.4375
59432428508,0.6875,-0.25,1.0625
59432451660,0.8125,-0.1875,0.625
59432465932,0,0.1875,0.375
59432488469,-0.1875,0.125,0.5
59432511597,0.375,0.0625,0.875
59432525894,0,-0.25,1
59432548503,0.4375,-0.1875,0.5625
59432571602,-0.125,-0.0625,-0.0625
59432585978,-1.75,0.375,-0.75
59432608551,-2.75,0.5625,-1
59432631628,0.375,0.3125,-0.6875
59432646009,-0.1875,0.125,-0.1875
59432668499,-0.1875,0.125,0.375
59432691647,-0.5625,-0.1875,0.4375
59432706039,0,0.125,-0.8125
59432728474,-3.0625,0.4375,-2.125
59432751650,-2.6875,1,-3.3125
59432765894,-7.0625,1.5625,-3.9375
59432788553,-6.4375,1.1875,-3.875
59432811652,-6.1875,0.3125,-3.6875
59432825992,-6.625,-0.625,-3.625
59432848536,-4.3125,-2.9375,-3.0625
59432871628,-2.5,-5.5,-1.875
59432885946,-3.625,-5.9375,-1.0625
59432908525,-4.1875,-5.875,-0.75
59432931629,-0.1875,-7.4375,-0.3125
59432945948,2.4375,-9.0625,-0.0625
59432968463,2.3125,-9,0.1875
59432991608,0.4375,-9.1875,1.375
59433014133,5.5625,-10.5625,2.75
59433036563,6.0625,-11.3125,4.5625
59433051612,8.75,-10.3125,5
59433065918,9.0625,-10.875,6.3125
59433088466,13,-12.125,6.9375
59433110926,11.75,-12.125,6.1875
59433125929,9.9375,-13.3125,5.4375
59433148462,9.75,-11.8125,3.3125
59433171002,3.5,-12.1875,3
59433185897,7.6875,-12.9375,2.0625
59433208448,13.0625,-10.375,1.625
59433230930,11.5625,-8.9375,1.25
59433245965,15.375,-9.8125,2.625
59433268465,25.8125,-10.6875,2.8125
59433290910,18.875,-10.1875,0.625
59433305949,11.4375,-8.5,-4.1875
59433328450,4,-8.75,-7.3125
59433350932,3.625,-7.3125,-8.75
59433365972,5.3125,-6.8125,-6.5625
59433388458,6.1875,-4.25,-5.125
59433410907,6.25,-2.625,-2.6875
59433425947,4.1875,1.0625,-1.6875
59433448456,1.1875,4.25,-1.8125
59433470986,2.75,4.5,-0.3125
59433485958,12,6.5,0.9375
59433508495,4.1875,9.5625,2.1875
59433532401,-11.75,10.625,2.75
59433545985,-9.0625,12.875,1.6875
59433568455,-4.375,11.4375,1.375
59433590921,-14.3125,3.375,-0.9375
59433605959,-1.1875,-2.8125,1
59433628481,5.9375,-2.75,2.625
59433650970,6.375,-0.1875,4
59433665941,3.5625,2.25,5.375
59433688467,0.375,8.625,5.375
59433710928,-0.5625,12.625,5.375
59433725942,-2.5,17.5625,3.8125
59433748461,-1.6875,21.25,2.875
59433771023,-9,25.25,2.6875
59433785938,-16.5,27.0625,3.6875
59433808423,-1.3125,24.3125,6.5
59433830948,8.4375,21.375,5.1875
59433845971,8.875,13.4375,5.875
59433868488,9.75,7.6875,5.0625
59433890946,7.9375,1.625,4.875
59433907440,2.1875,-0.1875,5.125
59433928480,-1.9375,-0.5,8.125
59433950969,13.5625,3.0625,8.125
59433967418,18.5625,7.125,8.1875
59433988490,16.625,11,7.625
59434010938,21.5625,9.6875,4.5
59434034092,27.4375,8.5625,2.1875
59434048461,29,9.0625,1
59434070981,30.8125,11.5625,-0.6875
59434087443,27.5625,14.625,-2.0625
59434116641,22,18.5,-4.6875
59434130974,23.4375,19.8125,-6.9375
59434147429,32.3125,19.25,-8.5
59434168455,36.9375,17.25,-7.875
59434190987,39.9375,14.625,-7
59434207418,36.75,16.8125,-5.875
59434228491,29.625,19.125,-3.625
59434250928,34.375,22.5,-2.375
59434267400,31.5625,24.625,1
59434288479,24.6875,32.875,0.9375
59434310987,7.4375,37.4375,-1.3125
59434327434,-0.5625,41.625,-3.75
59434348478,0.375,45.6875,-8.9375
59434370954,11.4375,48.3125,-11.9375
59434387457,16.4375,52.9375,-15.25
59434408409,16.8125,59.5,-19.75
59434439156,11.875,65.625,-23.875
59434447449,14.75,71.875,-28.125
59434468488,21.6875,77.3125,-39.5
59434490939,7.9375,85.625,-45.1875
59434507396,24.0625,91.5,-47.9375
59434528433,56.0625,104.875,-51.6875
59434550906,18.3125,134.438,-44.625
59434574845,-21.6875,158.438,-35.625
59434588422,-50.0625,155.812,-30.625
59434628032,-21.3125,140,-27.625
59434630520,14,118.312,-26.6875
59434648587,15.4375,90.1875,-27.25
59434671060,11.3125,63.5,-26.5625
59434687454,-5.4375,29.875,-24.1875
59434708539,-25.5625,-4.5625,-21.25
59434731005,-28.0625,-35.6875,-16.5
59434747461,-41.5625,-70.75,-10
59434768517,-44.5,-112.812,-5.3125
59434799237,-52.25,-143.5,2.1875
59434807448,-66.25,-166.5,7.625
59434829861,-59.375,-193.688,7.3125
59434850964,-43.375,-218.688,7.375
59434867410,-42.125,-239.75,8.875
59434889883,-44.4375,-260.375,7.25
59434910939,-29.4375,-271.312,6.625
59434927392,-40.8125,-272.75,9.625
59434949965,-60,-274.875,12.6875
59434971013,-78.375,-277.875,13.375
59434987452,-78.25,-281.375,8
59435009927,-50.0625,-277.062,-1
59435031018,-42.25,-268.438,-7.5
59435047498,-32,-245.375,-6.5625
59435069938,-38.3125,-213.812,1.8125
59435091004,-61.75,-171.75,6.1875
59435107456,-67.3125,-98,4.0625
59435129968,-6.0625,-1.5625,2.25
59435150959,6.8125,75.5,5.5
59435167438,18.4375,114.25,8.1875
59435189873,16.0625,94.3125,20.4375
59435210932,-5.5625,130.188,-2.0625
59435227408,-180.5,179.375,-6.75
59435249874,34.375,153.625,40.75
59435271005,-31.8125,107.625,34.125
59435288876,-148.188,91.1875,47.6875
59435317507,-27.0625,92.375,28.875
59435331030,48.5,86.875,25.25
59435347401,51.125,78.5625,29.4375
59435369975,27.3125,70.5625,23.6875
59435390999,-28.0625,63.75,20.125
59435407455,-24.75,61.4375,19
59435429934,8.75,58.625,17.25
59435450958,26.8125,62.5625,17.5
59435467446,7.6875,67.5625,19.125
59435489966,-28.5,76.25,18.625
59435513938,-33.1875,83.5,20.125
59435527515,2,72.6875,16.8125
59435551400,-5.625,50.1875,14.875
59435572406,1.8125,39.625,10.125
59435587402,11.625,38.25,12.3125
59435609874,27.25,37.8125,13.1875
59435630919,26,41.0625,13.0625
59435647403,32,49.6875,11.6875
59435677543,33.6875,62.3125,9.3125
59435699257,36.4375,77.375,7.75
59435707573,39.5625,88.125,6.75
59435729970,45.5625,94.5625,3.75
59435751070,44.1875,103.062,-1.9375
59435767510,29.75,114.562,-7.25
59435789994,10.125,126.938,-14.5
59435812488,0.5,137.625,-19.6875
59435827501,8.3125,144.312,-25.0625
59435851482,30.125,147.5,-35.0625
59435872476,46.625,131.625,-27.5
59435888966,94.1875,106.062,-26.75
59435909905,42.0625,155,-28.375
59435931618,-3.4375,180.062,-22.3125
59435954107,-29.9375,157.5,11
59435969148,-21.1875,128.5,26.125
59435991629,9,82.25,57.1875
59436014143,-39.5,37.25,71.1875
59436030666,-12.25,-14,65.5
59436051722,2.3125,-63.1875,66.1875
59436074230,3.125,-112.5,61.25
59436089217,-2.375,-150.125,50.125
59436111743,0.375,-182.188,34.75
59436134269,-1.4375,-207.375,19.5
59436149217,-6.0625,-230.125,5.3125
59436171680,-7.3125,-244.062,-7.6875
59436194198,-16,-252.562,-18.5
59436210666,-34.25,-261.875,-32.25
59436231717,-28.1875,-267.688,-39.25
59436254178,-20.4375,-267.188,-37.8125
59436276603,-25.375,-264,-31.75
59436291621,-20.625,-262.875,-24.25
59436314106,-20.875,-258.5,-19.5
59436329100,-25.9375,-244.562,-9.25
59436351581,-37.4375,-231.375,-10.75
59436382421,-4.25,-212.125,-18.875
59436389264,30.5625,-181.875,-11.1875
59436411775,35.0625,-138,5.1875
59436434134,12.1875,-87.3125,10.875
59436449222,-13.5625,-17.375,9.1875
59436471730,-37.875,46.625,12.125
59436494216,-73.625,85.625,15.6875
59436509221,-82,109.5,20.25
59436531699,0.5,54.5,9.6875
59436554232,-111.5,159.25,22.9375
59436576620,-11.5,170.875,21.875
59436591675,83.0625,151.375,30
59436614137,-38.25,114.438,40.9375
59436629127,-3.6875,89.5625,32.5
59436651756,33.5625,84.9375,20.375
59436675692,26.4375,74.25,16.4375
59436689256,12.125,65.25,13.25
59436711718,11,63.8125,10.875
59436727525,21.0625,53.3125,12
59436749225,37.0625,44.4375,10.5625
59436771701,51,45.4375,9.8125
59436787480,39.3125,41.75,6.75
59436809278,29.75,40.6875,5.1875
59436831640,34.1875,43.3125,4.1875
59436847406,40.25,46.625,3.375
59436869163,33.9375,50.1875,2.3125
59436891642,42.875,56.625,1
59436907407,48.5625,64.4375,2
59436930626,43.125,71.0625,-1.5
59436951680,47.8125,80,-0.9375
59436967441,56.25,88.75,-2.375
59436990629,42.5625,100.062,-5.125
59437011669,27.0625,113.062,-7.75
59437027496,3.6875,123.688,-6
59437050619,-5.5,123,-6.5625
59437071752,-16,113.938,-6.875
59437087516,-4.4375,104.875,-9.625
59437110730,12.625,98.0625,-8.5
59437131753,17.375,96.1875,-11.3125
59437147520,30.125,97.3125,-10.75
59437170667,31.125,99,-14.9375
59437191759,31.25,97.9375,-17
59437214219,42,98.1875,-21.9375
59437230592,58.25,102.5,-23.875
59437251653,94.375,107.312,-32.25
59437267425,89.6875,140.812,-37.75
59437290637,10.8125,149.062,-31.125
59437313150,-39.75,135.625,-33.1875
59437327517,-44.75,120.938,-31.8125
59437356712,14.9375,98.4375,-21.4375
59437371730,88.5625,69.1875,-8.125
59437387535,39,26.1875,16.9375
59437410713,-13.5625,-9.25,25.75
59437433215,-48.625,-53.9375,34.875
59437447555,-74.375,-101.688,39.0625
59437470645,-28.0625,-131.875,31.625
59437491699,48.75,-154.875,22.75
59437507525,56,-169.938,8.75
59437530679,27.0625,-176.625,-0.5
59437551780,5.4375,-180.625,0.4375
59437574217,-47.75,-178.188,2.75
59437590689,-75.3125,-177.562,-3.3125
59437611773,-69.4375,-183.625,-23.125
59437627992,-32.0625,-180.375,-38.0625
59437650040,-21.375,-182.438,-39.125
59437671732,-35.75,-177.562,-34.1875
59437687523,-64.3125,-166.812,-19.8125
59437710036,-93.8125,-158.75,-13.9375
59437731683,-91.5625,-153.688,-13.6875
59437747607,-68.625,-141,-12.125
59437769977,-48.5625,-114.312,-9.75
59437791691,-31,-80.1875,-4.8125
59437807451,-10.0625,-45.25,0.125
59437830018,17.125,-4.625,9.75
59437853128,31.375,21.1875,12
59437867588,40.0625,24.9375,12.375
59437890046,27.8125,6.375,16.4375
59437913199,15.8125,-15.75,4.5
59437927500,33.5,-7.8125,12.8125
59437950049,-27.625,-3.625,6.5625
59437973121,-70.0625,3.125,5.125
59437987528,-51.6875,9.4375,4.4375
59438009995,-12.125,8,9.5625
59438033141,19.875,4.75,13.8125
59438047488,26.75,2.25,13.125
59438069924,14.4375,2.4375,9.375
59438093075,-2.1875,1.1875,6.5625
59438107919,-11.3125,0.1875,4.75
59438129997,-9.5,3.0625,6.4375
59438153191,-13.8125,7.5625,7.875
59438173970,-28.4375,10.4375,8.6875
59438190058,-23.5,11.6875,8.4375
59438213194,-3.625,10.8125,6
59438234227,12.1875,9.5625,5.125
59438249999,7.6875,8.9375,3.4375
59438273132,-8.25,7.25,3.125
59438287524,-12.0625,5.375,3.625
59438310023,-6.9375,3.8125,3.625
59438340617,-3.3125,2.5,2.75
59438361726,-2.8125,2.25,2.75
59438369923,-3.4375,2.625,2.5625
59438393094,-3.6875,2.9375,2.1875
59438414225,-2,2.6875,1.5
59438429987,0.875,2.625,1.375
59438453219,2.6875,2.3125,1.3125
59438474227,-1.0625,1.9375,1.5
59438490046,0.8125,1.625,1.125
59438513183,-0.125,1.375,0.75
59438534304,0.6875,0.875,0.3125
59438550059,0.25,0.8125,-0.1875
59438573188,-0.75,0.8125,0.25
59438594223,2,0.9375,0.375
59438618227,-1.625,1.25,0.4375
59438632509,-2.875,1.125,0.4375
59438654276,-1.5,0.4375,0.25
59438670069,-2,-0.3125,-0.375
59438692567,0.5,-0.625,-0.3125
59438714309,3.0625,-0.1875,-0.0625
59438730070,0.125,0.9375,0
59438752567,-1.9375,1.625,0.1875
59438775692,-0.8125,1.8125,0.125
59438790015,-0.5625,1.625,0.125
59438812601,-0.8125,1.5625,-0.25
59438835694,0,1.125,0.125
59438850543,-0.125,1.0625,0.0625
59438872551,-0.875,1.5,0
59438895641,-2.5625,1.6875,-0.0625
59438910042,-2.3125,2.25,-0.3125
59438932542,-1.5,2.125,-0.5625
59438955705,-2.6875,2.0625,-1.0625
59438978240,-4.4375,1.75,-1.0625
59438992478,-2.125,1.0625,-1.125
59439015652,-3.3125,0.6875,-0.9375
59439030093,-2.1875,0.3125,-0.75
59439060634,0.5,0.25,-0.875
59439083135,-0.1875,0.125,-0.75
59439089953,-1,0.5,-0.5625
59439112497,-0.125,0.6875,-0.625
59439135651,0.125,0.25,-0.625
59439150002,0.1875,-0.125,-0.5625
59439172474,-0.5,0.375,-0.4375
59439195735,-1,0.5625,-0.25
59439210012,-0.0625,0.625,-0.125
59439233020,-0.4375,1,-0.0625
59439255730,-1.875,0.8125,0.0625
59439270089,-1.1875,0.4375,0.3125
59439292552,-0.125,-0.125,0
59439316144,-0.1875,-0.6875,0.0625
59439338205,0.5,-1.125,0.1875
59439360776,0.875,-1.375,0
59439376070,-0.5625,-1.5625,-0.125
59439397132,-0.25,-1.375,-0.25
59439412542,-0.25,-1,-0.125
59439435650,-2,-0.3125,0.0625
59439456738,-2.9375,0.25,-0.125
59439472479,-2.25,0.5,0
59439503180,-1.5625,0.625,-0.25
59439516820,-1.5625,0.125,-0.3125
59439531850,-1.0625,-0.125,0
59439546189,0.8125,-0.25,0.0625
59439568646,0.1875,-0.125,0.125
59439591738,-0.625,0.4375,0.0625
59439606164,-1.125,1.125,-0.125
59439637422,-1.125,1.75,-0.1875
59439651798,-1.375,1.8125,-0.375
59439667595,-0.875,1.25,-0.1875
59439688630,1.125,0.375,-0.125
59439711837,-0.1875,-0.625,0.1875
59439727587,0.125,-1.4375,0.375
59439748571,0.375,-1.875,0.5
59439779894,-0.5625,-2.3125,0.375
59439785982,0.875,-2.4375,0.4375
59439808577,1.4375,-2.125,0.25
59439831729,0.375,-1.6875,0.3125
59439847516,0.8125,-1.125,0.5
59439868699,1.125,-0.6875,0.5625
59439899845,-0.9375,-0.125,0.6875
59439914316,-0.8125,0.1875,0.625
59439928646,0.9375,-0.0625,0.4375
59439954674,0.6875,-0.3125,0.5625
59439966200,2.0625,-0.125,1.0625
59439988650,6.75,-0.25,1.3125
59440019951,1.625,0.9375,1.5
59440026148,-2,2.625,1.75
59440048578,-2.5,4.875,2
59440079858,-3.5625,6.3125,1.9375
59440086052,-4.0625,7.8125,1.9375
59440117442,-5.9375,9.625,2
59440131698,-9.375,11.5625,2.125
59440146049,-13,12.8125,2.125
59440170038,-17.5,12.375,2.1875
59440191857,-14.125,10.875,1.5625
59440206124,-5.1875,9.6875,1.9375
59440228678,-5.5,10.25,2.25
59440251773,-12.5,10.6875,2.125
59440266161,-12.9375,10.1875,2.0625
59440288668,-8.75,9.375,2.4375
59440311799,-9.25,9.25,1.9375
59440326189,-15.4375,9.625,1.6875
59440350101,-17.5625,9.6875,0.9375
59440371521,-20.6875,8.6875,0.5625
59440397145,-20.375,6.75,0.875
59440410043,-21.5625,4.1875,0.75
59440431740,-18.4375,1.5625,0.75
59440446049,-14.375,-1.1875,1.5625
59440471450,-9.375,-3.625,2.625
59440491706,-3.3125,-6.25,3.8125
59440506086,1.6875,-9.125,4.75
59440528585,4.625,-11.125,4.9375
59440551817,5.4375,-12.875,5.4375
59440567534,6.625,-13.5,5.625
59440588620,-0.5625,-13.9375,5.4375
59440611843,-3.875,-13.5,5.4375
59440635794,0.1875,-12.5625,4.5625
59440648634,-1,-11.4375,3.9375
59440671786,-0.125,-8.5625,3.4375
59440686152,-0.8125,-4.6875,3
59440708623,-6.75,-1.4375,1.9375
59440731096,-6.0625,0.5,1.3125
59440746088,-2.9375,2.125,0.6875
59440770028,-4.6875,3.1875,0.4375
59440799889,-4.0625,2.5625,0.25
59440806048,-3.6875,1.875,-0.125
59440828571,-4.1875,1.75,-0.1875
59440851156,-1.0625,1.875,-0.3125
59440866204,-1.875,1.4375,-0.125
59440888718,-1.875,0.6875,0.25
59440911191,-0.375,-0.25,0.4375
59440926142,0.75,-0.6875,0.9375
59440948696,1.3125,-1.25,0.9375
59440971127,0.9375,-1.875,1.1875
59440986108,3.5,-15.9375,-1.5625
59441008628,8.3125,-47.8125,-6.8125
59441031160,-0.5,-54.625,-14
59441046193,5.5,-29.8125,-8
59441068627,5.5625,-13.5,-2.875
59441091105,6.25,-5.875,-0.3125
59441106027,5.375,-3.5625,1.125
59441131501,5.5625,-1.8125,1.9375
59441151088,3.3125,0.1875,2.6875
59441166080,3.875,3.0625,3.3125
59441188555,8,7.25,4.25
59441219891,6.5,12.8125,5.1875
59441234361,4.6875,17.9375,5.75
59441248632,-1.5,18.75,4.9375
59441280049,-4.5,15.875,4.0625
59441286127,-2.8125,12.3125,3.0625
59441308676,-2.9375,8.375,2.5
59441331192,-1.5,-0.5625,1.0625
59441346176,1.25,-11.25,-1.25
59441368678,4,-9.375,-1
59441391162,5.125,-11.3125,-1.5625
59441414303,3.3125,-5.875,-0.625
59441428642,0.75,-2.75,0.25
59441451063,1.875,-0.6875,1.0625
59441468980,1.6875,0.375,1.5
59441488564,2.1875,1.9375,1.875
59441512550,1.3125,-3.875,0.875
59441527508,0.6875,-5.5,0.6875
59441548717,3.125,-22.9375,-2.8125
59441571181,3.375,-17.8125,-2.875
59441587608,1.5,-9.875,-1.25
59441608642,1.4375,-5.0625,-0.25
59441639402,-0.1875,-1.5625,0.75
59441647595,-0.75,-0.625,1
59441668674,0.1875,-7.875,-0.25
59441691110,5.125,-11.375,-1.75
59441707634,7.75,-5.3125,-0.5625
59441728585,4.625,-0.9375,0.5
59441751054,0.1875,1.875,0.8125
59441775047,-1.625,3.4375,0.625
59441788565,-2.6875,2.3125,0.0625
59441811113,-3.375,2.75,0.6875
59441827541,1.625,3.9375,1.6875
59441848573,3.25,5.875,2.3125
59441871156,-0.25,7.5,2.1875
59441889115,-1.75,6.9375,1.75
59441908714,-2.75,0.6875,0.0625
59441931176,-1.6875,-5.9375,-1.3125
59441956551,-1.25,-16.625,-4
59441968615,-4.625,-18.125,-5.875
59441991181,-0.5625,-15,-6.0625
59442015049,-0.0625,-11.25,-4.3125
59442028677,0.5,-7.375,-2.5
59442052666,-1.375,-6.875,-1.6875
59442069037,0,-6.1875,-1.5625
59442088651,0,-6.4375,-0.8125
59442111150,2.8125,-6.25,-0.8125
59442127614,2.8125,-5.0625,-0.3125
59442148689,1.75,-3.375,0.9375
59442172653,1,-2.5625,1.125
59442187621,0.125,-2.125,1.25
59442208691,0.875,-0.9375,1.875
59442231215,0.9375,-0.625,1.9375
59442247644,-1,-1.6875,1.6875
59442270119,1.1875,-1.625,2.125
59442291191,1.1875,-2.5625,1.75
59442307661,0.6875,-2.125,2.1875
59442336849,0.625,-1,2.125
59442351198,1.5,-0.0625,2.75
59442367658,1.125,0.0625,2.875
59442388701,0.5625,-0.5625,3
59442412676,4.5,-0.375,3.625
59442427674,7.375,0.625,4.0625
59442456889,4.375,2.3125,4.4375
59442471201,3.875,2.8125,3.5
59442487639,8.3125,2.6875,2.375
59442510096,12.0625,3.1875,0.3125
59442531201,13.25,2.5,-2.25
59442547624,6.8125,5.1875,-2.75
59442571614,-9.875,11.1875,0.25
59442591169,-38.5625,3.125,3.75
59442616682,-18,-4.375,4.0625
59442630128,11.0625,-9,5.625
59442651233,8.0625,-13.4375,10.625
59442667633,1.5625,-14.5625,13.3125
59442690234,5.625,-16.0625,16.6875
59442711235,8.5,-19.0625,18.125
59442735204,2.125,-24.5625,17.375
59442750166,-0.625,-30.625,16.375
59442771200,-0.375,-30.4375,16.0625
59442789078,0,-31.3125,18.25
59442810151,-5.5625,-27.625,18.25
59442831172,-14,-16.9375,18.25
59442856647,-25.4375,-5.0625,19.25
59442870147,-22.375,-3.625,18.625
59442894089,-9.5,-25,9.375
59442907634,-14,-28.625,7.9375
59442930100,-17.8125,-30,4.4375
59442951238,-20.3125,-29.3125,0.75
59442967629,-30.0625,-26,-0.25
59442990108,-29.125,-29.3125,-2.75
59443011234,-31.4375,-29.4375,-3.5
59443027673,-34,-25.5625,-3.8125
59443057698,-21.8125,-23.1875,-5.3125
59443074097,-27.0625,-20.375,-6.6875
59443087615,-28.8125,-16.125,-8.625
59443110141,-42.375,-11.4375,-10.1875
59443131195,-44.6875,-7.8125,-12.875
59443147566,-46.375,-11.25,-16.875
59443170784,-40.5,-17.5,-20.0625
59443191834,-49.375,-23.9375,-23.6875
59443206806,-66,-29.9375,-23.75
59443230795,-88.25,-34.1875,-22.5
59443251924,-92.3125,-36.875,-22.8125
59443266808,-90.75,-39.8125,-22.8125
59443296861,-104.875,-38.4375,-21.9375
59443311856,-137.312,-35.75,-19.6875
59443342496,-178.938,-31.1875,-13.5625
59443349307,-225.25,-23.375,-3.125
59443371765,-292.875,-2.9375,15.0625
59443386827,-358.812,10.25,24
59443409270,-409.75,17.6875,28.25
59443433228,-429.125,41.9375,21
59443446853,-416.75,80.625,30.5
59443469318,-413.5,114.375,48.1875
59443491770,-426.188,142.25,55.4375
59443506809,-457.062,157.938,65
59443529320,-460.438,164.188,78.5
59443559332,-435.875,153,83.0625
59443568320,-375.5,129,80.0625
59443589355,-283.75,98.1875,68.625
59443611829,-209,70.1875,50.6875
59443628362,-182.375,36,38.5
59443649405,-172.812,2.875,29.3125
59443671885,-186.25,-27.9375,14.375
59443688279,-219.438,-59.5625,1.3125
59443709362,-235.562,-94.75,-9.375
59443733348,-223.5,-125.75,-17
59443748325,-193,-153.188,-21.875
59443769383,-155.938,-179.125,-25.0625
59443791875,-132.875,-195.812,-26.125
59443808314,-128.125,-206.688,-25.375
59443829374,-129.625,-214.562,-30.9375
59443851899,-126.688,-209.812,-28.0625
59443868321,-122.375,-198.25,-13.875
59443889132,-110.375,-168.562,-0.3125
59443913363,-77.625,-116.875,20.875
59443928289,-55.1875,-59.0625,18.8125
59443949464,-23.8125,14.8125,16.0625
59443971872,21.4375,75.9375,16.1875
59443988342,25.6875,109.438,7.875
59444009330,74.375,148.125,10.6875
59444031759,-126.875,129.5,1.5
59444048253,-131,97.5625,30.4375
59444069367,-118.188,82.5625,47.9375
59444091838,-39.5625,88.5,36.0625
59444108286,91.3125,66.9375,22.625
59444129352,97.0625,64.9375,19.625
59444151785,50.4375,49.5,15.25
59444175756,-35.5625,44.875,14.8125
59444189297,14.625,44.8125,15.0625
59444211863,70.8125,39.0625,12.125
59444228270,76.5,43.3125,9.4375
59444256779,26.625,49.4375,5.8125
59444271828,26.125,57.5625,7.5
59444303928,45.3125,66.1875,10.125
59444309329,41,76,12.4375
59444331840,53.625,87.25,16.0625
59444346203,34.25,91.8125,12.375
59444369372,7.4375,95.8125,10.75
59444391833,21.875,98.25,14.5625
59444406227,46.5625,101.062,13.75
59444429279,39.9375,107.688,9.375
59444451866,38.1875,114.938,8.0625
59444466147,37.5625,131.875,6.3125
59444489344,23.6875,150.375,-1.75
59444511823,5.5625,160.062,-9.875
59444526173,-2.375,168.375,-23
59444549311,30.125,175.812,-27.5
59444571863,106.562,175.75,-26.625
59444586141,98.3125,215.688,-5.8125
59444609326,58.625,203.5,-12.5625
59444631778,64.9375,194.188,-35
59444646177,20.5,160.75,-20.75
59444669311,-0.125,112.688,-20.3125
59444691773,-44.5625,46.9375,-1.375
59444707666,-113.188,7.5,-3.75
59444738273,-67.5,-67.0625,0
59444751846,-96.875,-146.375,4.25
59444766190,-108.875,-213.062,-1.0625
59444789367,-81.75,-257.188,-7.6875
59444811828,-37.125,-292,-12.375
59444826194,14.875,-305,-10.625
59444849319,27.875,-325.625,-4.875
59444871861,4.3125,-337.812,-4.375
59444886149,-19.125,-349.188,-7.0625
59444909324,-2.8125,-361.562,-4.6875
59444931859,52.125,-366.625,-12.25
59444947576,107.938,-366.062,-13.5
59444969346,134.5,-344.438,-4.625
59444991826,140.438,-330.812,-10.125
59445007685,166.938,-287.625,-23.5625
59445029312,197.312,-215.375,-24.125
59445051827,216.312,-120.312,-26.875
59445067653,223,8.625,-39.1875
59445089358,153.75,83.625,-35.8125
59445111850,51.75,124.812,-28.4375
59445127608,-26.5,111.625,-7
59445149379,-229.812,1.6875,-35.625
59445171873,-264.938,152.062,-47
59445187611,130.688,178.75,19.1875
59445209336,66.875,116.75,8.0625
59445231848,40.375,87.25,13
59445247600,3.8125,59.5,-3.4375
59445268674,-26.3125,49.375,-6.625
59445291841,-26.75,32.625,-4.25
59445307628,33.875,19.375,-3.1875
59445330132,44.5625,9.5625,-2.3125
59445353264,19.6875,1.125,-3.75
59445367606,11.4375,1,-7.75
59445390094,5.25,7.9375,-7.75
59445413298,0.5,13.5,-5.9375
59445427734,-1.9375,19.5625,-5.1875
59445450209,-15.9375,20.625,-5.875
59445473349,-20.4375,21.6875,-3.75
59445487652,-4.875,23.5,-5.3125
59445510115,2.5625,23.125,-3.875
59445533307,-0.1875,18.375,-4.6875
59445547690,-2.375,16.25,-6.3125
59445570122,-6.0625,18.8125,-8.5
59445593278,-10.5,23.875,-11.375
59445614451,-10.1875,25.5625,-11.125
59445630194,-1.1875,26.5,-10.6875
59445653301,5.25,26.9375,-9.75
59445674503,1.8125,29.5,-11
59445690192,-2.6875,29.4375,-14.875
59445713298,-2.5,24.125,-14.25
59445734420,-4.8125,19.3125,-14.3125
59445750151,4.875,12.125,-11.375
59445773311,15.4375,6.3125,-11.3125
59445794459,15.25,2.25,-10.6875
59445810223,17.5625,1.1875,-10.875
59445839404,8.3125,-0.3125,-12.3125
59445854502,6.6875,-2.8125,-13.625
59445870206,9.25,-4.75,-12
59445893370,-2.375,-5.25,-11.375
59445914399,-5.6875,-5,-9.0625
59445930139,-1,-5.375,-7.9375
59445953375,8.9375,-6.25,-6.0625
59445974405,8.25,-6.625,-5.875
59445990171,3.875,-5.75,-5.1875
59446013333,-0.6875,-4.0625,-4.25
59446034407,0.375,-3.5,-2.6875
59446050134,7.6875,-3.25,-2.0625
59446073344,11.8125,-2.375,-2.25
59446094394,1.25,-1.875,-2.5
59446110199,-1.0625,-1.625,-3.0625
59446133294,1,-2.1875,-2.9375
59446154368,2,-3.0625,-2.4375
59446170228,0.625,-4.3125,-1.25
59446192760,3.1875,-4.6875,-0.8125
59446214403,9.8125,-4.25,0.5
59446230119,13,-4.375,2.625
59446252595,10,-4.8125,2.5
59446275810,9.9375,-5,1.8125
59446290148,6.875,-5.5625,1.8125
59446312623,10.0625,-5.6875,2
59446335789,14.0625,-4.625,2.4375
59446350154,10.625,-3.5,2.8125
59446372739,10.1875,-2.5,2.625
59446395845,10.9375,-2.1875,2.25
59446410288,11.5625,-1.5,1.875
59446432698,9.625,-1.4375,1.875
59446455869,9.5,-2.3125,1.5
59446470204,6,-3.5,2
59446492730,3,-4.625,2.9375
59446515873,-0.1875,-5.0625,2.9375
59446530170,-1.375,-5.125,2.6875
59446552683,2.25,-5.125,2.9375
59446575797,-5.625,-4.5,2.625
59446590138,-10.75,-3.6875,2.6875
59446612679,-10.8125,-3.4375,3.4375
59446635877,-11.375,-2,3.1875
59446650155,-9.9375,-0.875,3.625
59446672712,-9.0625,1.5,3.6875
59446695905,-8.9375,2.125,4.5
59446710177,-12.125,2.25,4.5
59446732721,-6.8125,1.125,4.875
59446763438,-0.375,0.75,5.4375
59446768789,6.1875,2,4.6875
59446791916,0.9375,0.1875,5.1875
