myot,x,y,z
610450611969,0.25,-0.25,0.1875
610450626974,-0.125,0.0625,0.25
610450648330,-0.4375,0,0.0625
610450671992,-0.5,-0.1875,-0.125
610450686991,-0.125,-0.4375,-0.3125
610450708355,-0.125,-0.25,-0.375
610450747620,0.0625,-0.0625,-0.3125
610450749711,-0.5,-0.25,-0.0625
610450769753,-0.75,-0.3125,-0.1875
610450792009,-0.875,-0.125,-0.125
610450809732,-0.5625,-0.3125,0.0625
610450829898,-0.75,-0.25,0.3125
610450866316,-0.3125,-0.125,0
610450890300,-0.0625,0.125,0
610450891111,-0.25,-0.125,0.125
610450912046,-0.5,-0.3125,0.25
610450927109,-0.6875,-0.3125,0.0625
610450949578,-0.5,-0.1875,-0.1875
610450970674,0,0,-0.625
610450987072,0.5625,-0.0625,-0.75
610451010041,0.625,-0.25,-0.5
610451030638,0.3125,-0.0625,0
610451047045,0,0.25,-0.0625
610451069594,0.125,-0.0625,-0.1875
610451090618,-0.125,-0.4375,-0.375
610451107039,0.3125,-0.3125,-0.125
610451129551,0,0.125,0.125
610451150598,0.375,0.3125,0
610451167066,0.5625,0.3125,-0.375
610451189547,0.6875,-0.0625,-0.4375
610451210633,0.375,0,-0.25
610451227096,-0.0625,0.125,0.0625
610451249621,-0.3125,0.1875,0.125
610451270639,-0.375,0.0625,0.0625
610451287126,-0.375,-0.375,-0.125
610451309577,-0.1875,-0.0625,-0.125
610451330686,-0.1875,0.1875,0.125
610451347061,-0.0625,0,0.1875
610451369609,-0.125,0.125,0.125
610451390596,-0.125,0.0625,0.0625
610451407051,0,0.125,0.125
610451429542,-0.1875,0.0625,0.25
610451450635,-0.5,0.125,0.125
610451467071,-0.5,-0.125,0.125
610451489604,-0.875,-0.375,0.3125
610451518777,-0.875,-0.0625,0.1875
610451527089,-0.6875,0.0625,-0.3125
610451549543,-0.25,-0.125,-0.375
610451572046,0.0625,0,-0.1875
610451587071,0,0.1875,0.25
610451609551,-0.1875,0.125,0.4375
610451632090,-0.625,0.1875,0.3125
610451647063,-0.4375,-0.1875,0.1875
610451669560,-0.5,-0.4375,0.1875
610451692159,-0.125,-0.25,0.375
610451707109,0.125,0.0625,0.5
610451728884,0.25,0.3125,0.3125
610451751373,0.0625,-0.0625,0.25
610451766359,-0.5625,-0.1875,0.125
610451788813,-0.875,-0.25,0
610451811458,-1,-0.125,0
610451826327,-0.4375,-0.0625,-0.0625
610451848836,-0.125,-0.25,0.125
610451871305,0.0625,-0.125,0.125
610451887722,0.1875,0.1875,-0.0625
610451908784,0,0.25,-0.25
610451931321,-0.0625,0.0625,0.0625
610451947811,-0.25,0.0625,0.3125
610451968837,-0.125,0.25,0.5
610451991298,0.125,0.5625,0.375
610452007761,-0.375,0.375,0.125
610452028798,-0.5,-0.125,0.5
610452051333,-0.8125,-0.25,0.5625
610452067755,-0.1875,-0.125,0.3125
610452088840,0.5,0.25,0.125
610452111327,1.125,0.375,0.0625
610452133882,0.9375,1,0.3125
610452148871,1.125,0.875,0.5
610452171292,0.75,0.4375,-0.0625
610452187746,0.1875,-0.125,-0.625
610452208798,-1,-0.3125,-0.9375
610452231329,-1.375,-0.4375,-0.5625
610452247764,-0.9375,-0.1875,-0.1875
610452268836,0.375,0.25,-0.4375
610452291360,1,0,-0.3125
610452307735,0.25,0.25,-0.0625
610452328802,-0.4375,0.5625,0.8125
610452351312,-1.4375,0.6875,1.75
610452367731,-1.5625,0.5625,2.0625
610452388822,-0.5,0.375,1.5
610452411335,-2.25,1.375,1.125
610452427799,-4.5625,2.1875,0.6875
610452450223,-7.125,2.8125,-0.1875
610452471339,-8.625,3.0625,-1.4375
610452487179,-8.5,3.8125,-1.875
610452508780,-7.125,7.3125,-1.25
610452531364,-6.1875,10.75,-0.625
610452547088,-5.5,11.9375,0.5625
610452568863,-6.125,11.875,1
610452591379,-5.1875,12.125,-0.25
610452607125,-3.125,10.9375,-2
610452630249,-4.125,9.25,-1.8125
610452651407,-8.75,9.25,-2.25
610452667064,-12.1875,10.75,-2.625
610452690251,-13.625,12.0625,-2.5
610452711328,-13.875,12.5,-1.3125
610452727118,-16.625,11.8125,1.875
610452750275,-20.125,11.75,3.875
610452771343,-19.25,13,3.75
610452787097,-16.1875,13.6875,1.875
610452810240,-13.3125,11.8125,-0.3125
610452831397,-10.4375,8.9375,-2
610452847113,-6.875,8.0625,-3.3125
610452870275,-4.5625,8.375,-5.5625
610452891298,-2.875,8.6875,-6.625
610452907109,-1,8.4375,-5.5625
610452930244,1.4375,8.0625,-2.6875
610452951283,0.3125,7,0.125
610452967175,-1.5625,4.9375,1.625
610452990269,-3.4375,3.5,1.8125
610453011469,-5.1875,0.25,-0.3125
610453027190,-2.875,-3.9375,-4
610453050249,-1,-7.4375,-6.875
610453071316,-4.1875,-9.8125,-9.0625
610453087186,-0.375,-10.1875,-11.25
610453110294,10.4375,-9.75,-15.3125
610453131351,1.9375,-8,-18.375
610453147124,4.3125,-8.25,-21.5625
610453170264,-1.3125,-7.125,-22.375
610453191334,-1,-5.25,-23.5
610453213808,-2.4375,-5.9375,-21.875
610453230281,-2.1875,-8.875,-22.5625
610453251365,-5.25,-12.4375,-20.6875
610453267127,2.4375,-14.9375,-21.0625
610453290280,11.8125,-13.375,-21.5625
610453311300,15.9375,-11.375,-21.25
610453327089,7.125,-9.4375,-19.0625
610453350261,-3.625,-11.75,-15.6875
610453371387,9.625,-13.8125,-17.75
610453387177,6.4375,-10.5625,-20.0625
610453409656,14.1875,-11.9375,-23.75
610453431363,12,-8.8125,-23.3125
610453447124,13.1875,-6.25,-23.875
610453469586,7.5,-3.9375,-27.25
610453491366,16.125,-7.75,-33.875
610453507097,3.0625,-7.875,-33.8125
610453529590,-9.8125,-8.5,-29
610453551329,-12.8125,-10.5625,-25.375
610453567106,-10.3125,-9.3125,-21.8125
610453589591,-13.875,-5.875,-20.5625
610453612746,-27.0625,-6.8125,-21.3125
610453627142,-19.875,-9.9375,-22.0625
610453649615,-17.375,-7.875,-23.9375
610453672768,-12.3125,-6.875,-25.625
610453687129,-5.5,-6.75,-33.0625
610453709609,-19.4375,-5.6875,-31.875
610453738907,-26.6875,-12.125,-31.25
610453747086,-21.0625,-10.375,-31.9375
610453769597,-30.8125,-9.25,-25.5625
610453792807,-32.4375,-17.5625,-16.4375
610453807121,-19.875,-12.1875,-20.625
610453829619,-28.375,-7.1875,-21.875
610453852780,-25.5625,-10.75,-14.25
610453873922,-30.4375,-8.5625,-18.8125
610453889586,-29.8125,-6.9375,-15.5
610453912791,-25.75,-7.8125,-17.25
610453933850,-22,-6.375,-18.75
610453949664,-27.75,-2.4375,-16.4375
610453972765,-29.375,-4.0625,-10.3125
610453993833,-25.25,-3.875,-5.0625
610454009591,-21.0625,-2.0625,-4.4375
610454032741,-13.875,-3.5,-3.4375
610454053938,-23.75,5.5625,-2
610454069645,-48.0625,4.0625,3
610454092824,-32.25,2.4375,-8.4375
610454113902,-28,-2.25,-10.875
610454129617,-21.8125,-5.5625,-8.5625
610454152769,-23.1875,-1.8125,-6.5
610454173938,-33.875,2.8125,1.8125
610454189742,-22,2.125,0.125
610454212803,-27.1875,0.5,2.625
610454233852,-10.5625,-4.125,4.3125
610454249618,-4.625,-4.3125,3.1875
610454272813,-14.125,0.375,1.625
610454295300,-17.75,0.3125,-3.125
610454309641,-16.0625,-4.25,0.5625
610454332116,-11.5,-5.75,1.1875
610454353849,0.0625,-6.125,-1.8125
610454369618,-5.3125,-5.0625,-0.5625
610454392594,-14.8125,0,2.25
610454413848,-8.875,0.375,2.75
610454429614,-7.1875,-1.1875,5.0625
610454452124,-1.9375,-0.1875,6.625
610454473849,-7.3125,3.375,10
610454489617,-5.75,3.875,10.0625
610454512093,-2.9375,2.5,10.75
610454535332,1.6875,-0.8125,13.0625
610454549641,-3.0625,1.3125,15.75
610454572659,-4.1875,4.3125,17.8125
610454595294,-1.3125,4.0625,18.1875
610454609620,1.5625,2.5625,18.5
610454632145,2.5,2.75,19.0625
610454655279,4.6875,4.4375,17.125
610454669666,4.6875,6.3125,14
610454692150,6.375,4.5625,12.1875
610454715445,7.6875,1.875,9.9375
610454729611,8.25,3.1875,6.375
610454752123,9.4375,4.625,3.625
610454775273,8.9375,7.0625,0.125
610454789680,7.6875,7.25,-3.6875
610454812157,7.5,4.875,-5.5625
610454835288,7.625,1.5625,-6.0625
610454849643,6.1875,0.25,-5.75
610454872122,4.4375,1.125,-4.9375
610454895277,3.5625,1.9375,-3.625
610454909619,3.8125,1.875,-2.875
610454932156,3.8125,0.375,-1.8125
610454955385,4.4375,-0.5625,-0.875
610454976425,3.9375,-0.5,0.1875
610454992166,4.0625,-0.9375,0.9375
610455015292,2.8125,-1.1875,1.4375
610455036386,0.1875,-2.375,1.25
610455052139,-2,-3.125,1
610455075328,-2.3125,-2.1875,0.6875
610455096799,-3.4375,-0.1875,0.5625
610455112173,-6.375,1.4375,1.0625
610455135326,-8.3125,1.6875,1.625
610455156380,-9.125,0.5,1.6875
610455172144,-10.0625,-0.5,1.3125
610455195311,-14.6875,-1.125,1.125
610455216397,-22.0625,0.3125,2.5
610455232120,-29.5625,5.5625,4
610455255316,-35.25,10.6875,5.625
610455276428,-37.625,14.0625,6.4375
610455292176,-36.9375,19.375,5.3125
610455321360,-27.3125,23.375,3.25
610455336415,-18.25,30.875,1.5
610455352143,-4.625,34.5625,-1.25
610455374648,2.875,35.3125,-2.5
610455396414,4.75,27.875,-3.625
610455412158,4.9375,17.75,-4.75
610455434616,6.4375,9.4375,-6.375
610455448227,15.875,1.25,-6.0625
610455471361,23.5625,-3.125,-4.625
610455485693,29.75,-5.5625,-3.75
610455508261,35.375,-11.6875,-3.0625
610455531374,40.6875,-18.25,-5
610455545764,41.9375,-26.875,-7.25
610455568258,45.0625,-30.625,-10.875
610455599542,44.6875,-30.5625,-14.9375
610455605712,44.0625,-27.875,-19.9375
610455628264,44.5,-24.875,-26.9375
610455651369,40.1875,-24.4375,-34.8125
610455665735,12.8125,-23.1875,-36.4375
610455688247,-17.0625,-14.1875,-29.375
610455711388,-27.4375,-9.9375,-28.8125
610455725733,-15.8125,-17.125,-24.25
610455748285,-9.625,-26.5,-20.3125
610455771426,-5.125,-24.4375,-15.25
610455785706,-8.1875,-27.375,-15.5
610455808227,-13.8125,-27,-19.9375
610455831391,-20.375,-28.5625,-21.625
610455845740,-26.875,-29.125,-24.75
610455868233,10.3125,-42.8125,-12.3125
610455891396,40,-52.875,-14.875
610455905726,40.75,-56.375,-15.8125
610455937062,43.5625,-61,-12
610455951389,51.9375,-63.6875,-11.5625
610455965733,69.3125,-71.5,-11.625
610455988264,87.4375,-82.1875,-7.6875
610456011414,93.875,-81.8125,-10.8125
610456025738,88.8125,-63.3125,-21.125
610456048230,53.4375,-47.5625,-30.8125
610456070740,31.9375,-47.125,-28.4375
610456085733,36.9375,-48.625,-20.6875
610456108273,35.25,-44.5625,-17.9375
610456131403,30,-32.5625,-25.9375
610456145776,19.625,-23.375,-30.0625
610456168210,13.375,-26.75,-33
610456190786,6.1875,-32.0625,-27.75
610456205825,-2.375,-30.8125,-22
610456228229,-9.6875,-32.875,-18.3125
610456251411,-18.5,-35.125,-17.9375
610456265767,-26,-37.875,-17.375
610456288278,-30.875,-39.375,-17.0625
610456311345,-32.375,-40,-15.5625
610456333965,-33.1875,-41.4375,-11.4375
610456348210,-32.0625,-40.125,-6.3125
610456370750,-25.3125,-34.625,-3.5
610456385740,-22.8125,-30.8125,6.0625
610456408258,-20.8125,-22.5,12.625
610456430757,-10.3125,-17,21.25
610456445777,7,-14.375,23.375
610456468240,9.8125,-14.125,20.6875
610456490761,-2.75,-12.125,17.5
610456505728,-17,-15.1875,13.125
610456528268,-12.8125,-17,3.9375
610456550790,-9.1875,-24.5625,0.3125
610456565699,-3.3125,-30.875,-3.0625
610456588224,5.125,-32.625,-4.9375
610456610745,15.3125,-40.0625,-4.0625
610456625754,35.5625,-53.6875,-0.3125
610456648267,15.4375,-74.875,4.9375
610456670753,16.3125,-73,4.6875
610456685698,2.75,-64.25,6.375
610456708273,-15.75,-46.875,10.5
610456730726,-13.3125,-36.6875,11.75
610456745783,5.625,-32.375,13.4375
610456768254,26.4375,-30.6875,12.3125
610456790693,27.4375,-28.75,12.25
610456805747,17.6875,-25.5625,11.625
610456828265,7.3125,-23.6875,10.5625
610456850754,0.625,-24.875,10.125
610456865753,-0.875,-29.0625,8
610456888277,-1.5625,-28.1875,6.5625
610456910764,-1.9375,-21.5625,3
610456925727,5.0625,-14.1875,0.625
610456948292,9.4375,-13.25,0.625
610456970752,7.6875,-14.8125,2.125
610456985742,2.1875,-14.4375,2.25
610457008205,-1.5,-9.6875,1.1875
610457030749,-5.5625,-3.3125,-0.5
610457045733,-3.75,1.875,-1.1875
610457068247,-2.75,4.75,-0.9375
610457090764,-1.0625,2.1875,0.875
610457105763,1.125,0.0625,2.6875
610457128252,2.8125,1.3125,4.3125
610457150820,5,2.5,5.25
610457165769,5.6875,1.625,5.8125
610457188260,2.0625,-0.875,7.125
610457210761,-0.9375,-1.875,7.8125
610457227194,2.875,-1.4375,8.375
610457248288,9.375,-0.8125,8.75
610457270718,9.4375,0.125,9.4375
610457287213,3.6875,-0.125,10.5625
610457308256,0.0625,-0.25,12
610457330759,1.5625,1.125,12.625
610457347228,6.1875,2.9375,11.375
610457368255,7.9375,5.125,9.5625
610457390791,4,5.75,9
610457407176,-3.25,6.5625,9.375
610457428277,-4.5625,8.3125,8.9375
610457450753,0.125,10.625,8.125
610457467168,2.4375,12.25,7.9375
610457488262,2.0625,13.5,8.75
610457510738,-0.8125,13.9375,10.1875
610457527292,-1.6875,14.625,11.4375
610457548382,-2.125,16.125,12.125
610457570848,-2.3125,18.0625,12.75
610457587186,-1.4375,20.0625,12.6875
610457608298,-1.8125,21.125,11.6875
610457630809,-3.1875,21.4375,9.9375
610457647255,-2.0625,19.125,7.6875
610457668308,-1,14.8125,3.875
610457690787,-3.625,11.6875,-0.5
610457707172,-9.4375,7.9375,-3.75
610457728327,-15.8125,5.125,-6.125
610457750733,-21.1875,3,-6.625
610457767208,-21.8125,2.0625,-7.6875
610457788225,-18.4375,1.5,-9.375
610457810741,-14.75,-1.0625,-11.1875
610457827205,-15.1875,-2.4375,-12.1875
610457848268,-17.8125,-3.875,-12.5625
610457870776,-20.75,-4.75,-12.3125
610457887322,-22.625,-4.6875,-12.125
610457908259,-22,-4.4375,-12.5
610457930811,-20.8125,-2.8125,-15.625
610457947219,-21.0625,-1.5625,-18.625
610457968284,-23.6875,-2.4375,-20.9375
610457990843,-25.4375,-3.1875,-23.1875
610458007246,-26.8125,-4.6875,-25.0625
610458028333,-26.0625,-6.0625,-26.9375
610458050794,-21.5625,-6.6875,-29.75
610458067240,-22.4375,-5.75,-31
610458088254,-28.375,-6.625,-28.4375
610458110757,-32,-9.375,-23
610458127211,-27.9375,-9.1875,-20.25
610458149709,-17.0625,-5.0625,-22.25
610458170839,-8.0625,-2.6875,-25.3125
610458187226,-10.1875,-2.8125,-25.3125
610458209718,-17.875,-2.375,-21
610458230800,-19.9375,0.25,-15.8125
610458247175,-11.4375,1.875,-14.5625
610458269752,-2.625,2.4375,-16.8125
610458290808,-0.625,4.0625,-19.5625
610458307215,-5.9375,6.6875,-19.5
610458329691,-11.4375,7.9375,-16.375
610458350834,-11.25,8.125,-12.875
610458367198,-4.625,8.375,-10.375
610458389745,2.875,8.625,-9.25
610458410766,4.125,7.125,-9.125
610458427265,-0.6875,4.5,-7.125
610458449778,-3.625,2.5625,-5.875
610458470761,-0.875,1.3125,-5.0625
610458487297,4.875,-0.0625,-5.25
610458509722,6.6875,-0.6875,-6.875
610458530778,5.1875,-0.25,-7.5
610458547224,4.3125,1.0625,-6.875
610458569727,5.0625,1,-6
610458590775,6.375,0.0625,-5.3125
610458607221,5.125,-0.9375,-4.4375
610458629753,1.9375,-1.1875,-4.125
610458650779,1.9375,-1.25,-4
610458667218,2.9375,-0.4375,-4.125
610458689724,2.4375,0.25,-3.0625
610458710857,1.75,0.375,-1.875
610458727219,1.0625,0.625,-0.875
610458749694,2.5625,1,-0.5625
610458770759,3.625,1.375,-1.25
610458787198,3.0625,0.75,-2.5
610458809707,1.75,0.75,-2.9375
610458830802,0.75,1.4375,-3
610458847189,0.0625,1.4375,-2.75
610458869750,0.375,0.9375,-2.375
610458890799,0.5,-0.4375,-2.25
610458907201,0,-1.8125,-1.875
610458929746,-0.5625,-2.9375,-1.9375
610458950824,-0.0625,-3.0625,-2.625
610458967243,-0.0625,-3.125,-2.6875
610458989791,-0.625,-3.625,-2.0625
610459010808,-0.5625,-3.625,-1.75
610459027242,1.0625,-4,-1.6875
610459049778,1.625,-4.375,-1.625
610459072255,0.8125,-4,-1.1875
610459087254,0.5,-2.9375,-1.5625
610459109754,0.9375,-1.9375,-1.625
610459132217,1,-1.25,-2.125
610459147240,0.0625,-1.6875,-2.625
610459169719,-0.625,-2.625,-3
610459192215,-0.5625,-2.8125,-4.125
610459207232,-0.5625,-2.5,-4.75
610459228981,-1,-2,-3.8125
610459251444,0,-1.625,-2.3125
610459267905,0.9375,-1.1875,-1.6875
610459288975,0.0625,-0.6875,-1.0625
610459311560,-0.125,-0.5,-0.625
610459327908,0.9375,-0.3125,-1.5625
610459348942,0.6875,-0.1875,-2.1875
610459371467,-0.375,-0.1875,-2.25
610459387914,-0.875,-0.375,-1.25
610459408964,0.0625,-0.8125,-0.375
610459431485,0.1875,-1,0.125
610459447913,0.625,-0.875,0.3125
610459468951,0.6875,-0.3125,0.5625
610459491491,0.0625,0.1875,0.4375
610459507929,0.4375,-0.375,0.625
610459528928,0.375,-1.6875,0.625
610459551473,-0.1875,-2.25,1.125
610459567917,0.8125,-2,1.3125
610459588953,0.5,-1.4375,1.5
610459611455,0,-1.3125,1.5
610459627906,-0.375,-1.8125,1.625
610459648983,-0.625,-2.1875,1.0625
610459671475,-0.4375,-2.6875,0.625
610459687964,-1.25,-2.625,0.1875
610459708988,-0.6875,-1.8125,0.1875
610459731480,-0.125,-1,0.375
610459747931,-0.75,-1.0625,1.0625
610459768962,-1.5,-1.25,1.375
610459791457,-1.625,-1.5,1.375
610459807917,-1.1875,-1.8125,1.1875
610459828989,-0.4375,-2,0.875
610459851518,-0.875,-2.375,1.125
610459867891,-1.0625,-2.4375,1.125
610459888974,-1.5625,-2.5625,1.4375
610459911458,-0.75,-2.375,0.75
610459934004,-0.375,-1.625,0.125
610459948953,-1.3125,-0.9375,-0.375
610459971440,-1.625,-0.625,-0.3125
610459987923,-1,-0.8125,0
610460008997,-0.6875,-1.1875,0.125
610460032888,-1,-1.3125,0.3125
610460047265,-0.1875,-1.6875,0.5
610460068961,-0.1875,-1.4375,0.1875
610460091465,1.25,-0.875,0.125
610460107371,1.6875,-0.5,0.375
610460129007,1.625,-1.0625,0.4375
610460151601,1.1875,-1.1875,0.1875
610460167275,0.6875,-0.625,0.375
610460189038,1.0625,-0.1875,0.4375
610460211519,1.5,-0.6875,0.1875
610460227325,1.125,-0.9375,0.125
610460250421,0.4375,-0.5625,-0.3125
610460271448,-0.25,-0.0625,-0.5625
610460287244,0.1875,0.375,-0.4375
610460316445,-0.25,0.4375,0.25
610460331451,-0.8125,-0.25,0.625
610460347221,0,-0.5,0.375
610460370377,1,-0.375,-0.125
610460398998,0.5,-0.125,-0.5625
610460407290,-0.5,-0.0625,-0.125
610460430459,-1,-0.0625,0.3125
610460451461,-0.1875,-0.4375,0.6875
610460467246,0,-0.4375,0.75
610460490394,0.0625,-0.875,0.1875
610460511540,-0.625,-0.875,-0.1875
610460527269,-2,-0.875,-0.125
610460550470,-1.5,-0.875,-0.125
610460571513,-0.375,-0.1875,-0.3125
610460587253,-0.625,0.3125,-0.125
610460610391,-1.4375,-0.0625,-0.1875
610460631501,-1.375,-0.4375,-0.5
610460647271,-0.8125,-0.8125,-0.625
610460670416,-1.5,-0.625,-0.3125
610460691504,-1.25,-0.3125,-0.3125
610460707246,-1.0625,0.125,-0.6875
610460730421,-1.0625,-0.0625,-0.75
610460759010,-1.125,-0.5625,-0.8125
610460767291,-1.375,-0.5,-0.75
610460790483,-0.9375,-0.6875,-0.0625
610460811590,-0.5,-0.6875,-0.125
610460827282,-0.1875,-0.6875,-0.25
610460850512,-0.75,-0.5,-0.3125
610460873026,-1.125,-0.25,0.0625
610460887330,-0.5625,-0.0625,0.25
610460910478,0.1875,0.125,0.25
610460931504,0.125,0.1875,-0.1875
610460947260,-0.8125,0,-0.1875
610460969841,-0.6875,-0.1875,0.125
610460991476,0.5625,0.1875,0.3125
610461007279,0.625,0.1875,0.3125
610461029794,-0.375,-0.1875,0.125
610461051487,-0.6875,-0.5,-0.125
610461067291,0.1875,0.125,-0.1875
610461089775,0.875,0.3125,0.125
610461111562,0.3125,0.0625,0.1875
610461127304,-0.1875,-0.5,0.1875
610461149763,0.6875,-0.1875,-0.1875
610461173023,0.5,0.5,-0.4375
610461187325,0,0.8125,-0.4375
610461209849,0,0.4375,-0.125
610461232909,0.5625,-0.0625,0.125
610461247345,0.9375,0.1875,0.1875
610461269832,1.0625,0.375,0.125
610461293035,0.375,0.1875,-0.125
610461307290,0.5,-0.3125,-0.1875
610461329765,0.1875,-0.3125,0
610461352918,0.1875,0.4375,0.0625
610461367280,0.6875,1.1875,0.1875
610461389797,1.375,1.0625,-0.0625
610461412942,0.8125,0.6875,-0.0625
610461427256,0.4375,0.5,-0.25
610461449790,0.9375,0.75,-0.375
610461472916,0.5,1.1875,-0.1875
610461487243,0.6875,1.0625,-0.25
610461509789,0.125,0.375,0.0625
610461533036,0,0.125,0.125
610461547392,0.5,0.0625,0.125
610461569872,1.0625,0.4375,0
610461592971,0.875,0.625,0.0625
610461607345,0.5,0.5625,0.125
610461629744,0.8125,0.9375,0
610461653023,1.0625,1.1875,-0.25
610461674075,0.5,0.875,-0.375
610461689834,0.125,0.3125,-0.1875
610461712950,-0.125,0.25,-0.0625
610461733949,0.125,0.3125,0
610461749769,0.1875,0.375,-0.5
610461772922,-0.125,0,-0.4375
610461794024,-0.0625,0,-0.125
610461809813,0.5625,-0.375,0.125
610461832948,1.125,-0.375,0.125
610461853999,0.25,-0.25,0.25
610461869779,-0.1875,0.0625,0.25
610461892972,0.1875,0.1875,0.25
610461914149,0.875,-0.3125,0.3125
610461929864,0.75,-0.4375,0
610461952345,-0.0625,-0.5625,-0.0625
610461974110,0.1875,-0.1875,0.1875
610461989890,0.3125,0.1875,0.3125
610462012398,0.5625,-0.0625,0.1875
610462034027,0,-0.25,0.125
610462049799,-0.4375,-0.0625,0
610462072268,-0.1875,-0.0625,0.3125
610462093990,0.875,-0.125,0.3125
610462109773,0.25,0.0625,0.3125
610462132270,-0.375,0.3125,0.125
610462155421,1,0.25,0.125
610462169769,1.125,-0.125,0.3125
610462192452,0.9375,-0.625,0.1875
610462215534,0.1875,-0.5,0.125
610462229846,-0.5625,-0.25,-0.1875
610462252340,-0.625,-0.0625,-0.5625
610462275525,-0.125,0.625,-0.875
610462289914,-0.8125,0.8125,-0.6875
610462312372,-1.4375,0.8125,-0.6875
610462335530,-2.5,0.1875,-0.25
610462349788,-1.9375,0.625,-0.6875
610462372524,-0.9375,1.875,-0.5
610462395438,-1.3125,3.5,-0.4375
610462409816,-2.5625,3.6875,0.3125
610462432264,-4.5625,4.5,0.6875
610462455470,-5,5.75,1.625
610462469802,-4.375,8.75,1.875
610462492302,-4.625,12,0.6875
610462515471,-8.125,16.9375,-1.4375
610462536615,-10.4375,19.4375,-3.25
610462552363,-15.1875,22.25,-3.125
610462575512,-15.9375,25.3125,-2.4375
610462596599,-13.9375,28.4375,-1.1875
610462612378,-12.5625,31.875,-0.125
610462635564,-13.625,35.1875,1.125
610462656529,-15.5,36.8125,1.375
610462672364,-16.4375,37.875,0.125
610462695533,-16.9375,37.875,-0.9375
610462716571,-17.625,37.375,-1.9375
610462732311,-20.0625,35.875,-2.25
610462755475,-21.5625,33.9375,-2.875
610462776544,-22.25,31.8125,-3.625
610462792289,-20.375,29.75,-4.0625
610462815445,-20.875,30.625,-3.8125
610462836519,-24.3125,31.375,-5.3125
610462852341,-27.1875,29.9375,-6.375
610462874930,-31.3125,26.9375,-5.5
610462896603,-37,21,-4.375
610462912379,-43.9375,12.8125,-1.75
610462934843,-49.5625,3.0625,0.125
610462956630,-51.3125,-5.1875,3.25
610462971550,-49.9375,-13,6.3125
610462985971,-37.375,-15.25,7
610463008442,-27.4375,-16.8125,8.9375
610463031591,-28.5625,-24.75,13.8125
610463045865,-37.0625,-31.75,15
610463068360,-44.5,-32.1875,20.25
610463091515,-48.3125,-30.125,22.125
610463105862,-56.125,-33.375,24.9375
610463128453,-56.375,-41.0625,30.625
610463151533,-53.3125,-44.625,35.375
610463165934,-36.625,-42.0625,35.125
610463188376,-18.875,-40.9375,38.3125
610463211528,-8.6875,-41.8125,42.4375
610463226005,-6.625,-45.3125,48.4375
610463248409,-4.5625,-44.4375,51.9375
610463271610,4.625,-25.3125,43.25
610463285979,23.5,-13.375,36.4375
610463308358,38.3125,-5.5625,30.25
610463331560,36.0625,1.1875,24.875
610463345851,24.3125,5.125,22.25
610463369913,16,8.75,20.125
610463391559,13.9375,9.25,18.4375
610463405929,17.5,7.8125,16.375
610463428414,20.75,6.625,13.75
610463451632,21.125,7.5625,10.9375
610463465868,19.6875,10.3125,9.0625
610463488413,16.875,12,7.875
610463511552,12.3125,13.1875,6.1875
610463525916,4.1875,14.0625,4.375
610463548386,-1.125,13.8125,4.1875
610463571541,-3.3125,12.1875,5.375
610463585932,-0.4375,8.6875,6.75
610463608407,6.5,4.5625,7.4375
610463631614,12.125,2.625,6.4375
610463645963,13.0625,2,5.75
610463668429,9.4375,0.625,5.3125
610463691592,4.4375,-1.9375,5.375
610463705994,-0.75,-3.0625,5.3125
610463728432,-6.1875,-3.5625,6.1875
610463751542,-7.75,-4.75,7.3125
610463765888,-7.75,-6.75,8.4375
610463788380,-7.3125,-8.125,9.125
610463811534,-6.375,-6.5,9.0625
610463825920,-9.0625,-2.75,8.5625
610463848379,-9.875,-0.375,7.9375
610463871544,-6.25,2.25,6.9375
610463885936,-2.25,5.125,5.875
610463908337,-1.0625,6.5625,4.5
610463931548,-1.75,5.875,2.9375
610463945966,-3.25,4.0625,1.25
610463968432,-4.5,2.875,-1.0625
610463990954,-6.5625,1.125,-2.5625
610464005854,-8.1875,-1.5625,-3
610464028381,-11.6875,-4.4375,-3.125
610464050985,-13.6875,-6.5625,-3.125
610464065959,-14.375,-7.625,-3.4375
610464088442,-15.1875,-7.3125,-3.9375
610464110939,-19.1875,-6.375,-4.0625
610464125922,-23.625,-5.6875,-3.125
610464148407,-25.3125,-5.9375,-2
610464170981,-23.1875,-6.4375,-1.0625
610464185961,-17.8125,-5.9375,-0.0625
610464208400,-10.125,-3.75,0.125
610464230983,-3.0625,-1.4375,0.8125
610464245943,0.9375,-0.1875,1.25
610464268410,-2.125,-0.0625,1.75
610464290939,-8.1875,-1.5,2.8125
610464305983,-9.25,-3.5,3.0625
610464328429,-4,-3.3125,2.375
610464350908,3.5,-2,1.4375
610464365910,6.75,-1.125,1.4375
610464388400,4.4375,-1.1875,2.25
610464410931,0.8125,-2.125,3.5625
610464425957,-3.1875,-4.4375,5.3125
610464448463,1.375,-4.3125,4.8125
610464470944,12.75,-3.25,2.875
610464485965,13.4375,-6.375,5.375
610464508417,7.5,-15.8125,10.6875
610464530966,5.6875,-23.9375,14.75
610464545952,15,-27.4375,16.25
610464568433,32.125,-28.0625,17.0625
610464590983,50.5625,-27.25,17.1875
610464605952,62.625,-28.25,17.3125
610464628410,64.8125,-31.75,18.75
610464650952,58.4375,-36.1875,20.8125
610464665978,53.1875,-41.5,21.8125
610464688432,51.75,-46.0625,21.6875
610464710982,53.1875,-51,19.625
610464725974,52.8125,-53.75,15.5625
610464756553,46.25,-54.3125,11.875
610464771013,38.5,-53,8.875
610464787358,32.5,-48.9375,5.8125
610464808447,31.3125,-44.1875,3.3125
610464830974,34.125,-39.5,0.5
610464847325,38.4375,-33.8125,-3.1875
610464868390,41.8125,-28.375,-6.5625
610464890928,43,-23.625,-10.375
610464907386,41.9375,-19.8125,-14.875
610464936629,39.9375,-16.9375,-20.25
610464950956,36.3125,-14.1875,-25.125
610464967391,21.8125,-14.125,-31.375
610464988504,3.0625,-13.5,-37.5
610465010920,-17.1875,-10.5625,-41.375
610465027428,-25.9375,-7,-44.1875
610465048552,-23.5625,-6.125,-44.875
610465070950,-9.5,-7.75,-43.5625
610465087346,5.4375,-8.4375,-39.75
610465108538,8.125,-15.625,-32.125
610465130966,9.625,-21.625,-23.5
610465147367,11.9375,-16.5625,-14.75
610465168395,19.8125,-3.375,-15.625
610465190930,5.4375,5.3125,-16.9375
610465207368,-13.4375,7.25,-13.4375
610465228414,-43.6875,7.5625,-15.0625
610465250944,-64.75,-0.5625,-9.375
610465267375,-77.6875,-2.75,-7.5
610465288465,-93.1875,4.25,-6.1875
610465310968,-88.5,16.5625,1.6875
610465327371,-76.375,30.0625,2.9375
610465356622,-59,39.5625,7.5625
610465370949,-42.875,47.3125,7.6875
610465393452,-50.0625,48.875,4.75
610465408497,-80.375,47.4375,3.5
610465430952,-81.25,51.25,0.5625
610465447356,-74.6875,56.125,1.125
610465468439,-66.5625,59.125,2.75
610465490960,-58.3125,60.1875,3.5625
610465507363,-50.25,60.625,5.1875
610465528423,-40.25,61.75,5.5
610465550939,-33.5,63.0625,5.8125
610465567364,-32.25,63.8125,7.0625
610465589911,-33.625,63.625,6.5625
610465610942,-32.375,61.625,4.1875
610465627379,-28.375,58.4375,1.4375
610465648431,-24.0625,54.625,-0.0625
610465671064,-23.625,50.75,-1.1875
610465687407,-26.3125,43.1875,0
610465709931,-26.8125,32.25,2
610465730953,-20.0625,19.8125,3.8125
610465747431,-5.75,9.5625,4.875
610465778104,8.3125,1.4375,6.8125
610465790961,15.375,-8.6875,10.375
610465807419,6.125,-36.9375,27.375
610465829934,32.0625,-71.5,34
610465850930,71.9375,-74.5625,23
610465868895,103,-59.75,11.5
610465889903,105.938,-39.4375,5.0625
610465910958,60.5,-35.875,5.5625
610465927353,-10.6875,-35.3125,12.4375
610465949903,-43.1875,-30.625,18.625
610465973930,-21.1875,-24.3125,26.0625
610465987395,30.4375,-19.375,30.125
610466009970,78.125,-17.4375,29.875
610466031059,94,-17.4375,29.4375
610466047404,85.1875,-19.5,32
610466069947,74.875,-20.0625,32.6875
610466090954,66.25,-19.125,30.625
610466107395,59,-18.875,25.9375
610466129929,53.375,-22.5,20.25
610466150932,45.25,-25.875,14.4375
610466168912,27.375,-27.1875,10
610466189925,11.3125,-26.625,6.875
610466211024,4.625,-27.5625,4.125
610466227453,7,-29.5,2.25
610466249929,14.0625,-29.9375,0.0625
610466270998,19.125,-28.5625,-2.0625
610466287446,22.25,-27.6875,-3.375
610466309924,25.1875,-27.625,-4.4375
610466333924,28.8125,-29.9375,-5.25
610466347430,31.8125,-33,-6.5625
610466374270,34.25,-33.9375,-8.3125
610466399426,36.5,-31.875,-11.4375
610466408730,34.5625,-26.75,-13.6875
610466429931,37.9375,-23.0625,-17.3125
610466450927,38,-19.4375,-22.9375
610466467470,20,-23.6875,-23.0625
610466489897,-4.25,-42.3125,-21.5625
610466510937,-1.0625,-46.375,-15.5625
610466527400,-9.3125,-26.875,-14.3125
610466549927,6.5625,-2.5625,-19.8125
610466570977,4.3125,9.5,-20.0625
610466587482,-29.8125,19.9375,-15.5
610466609995,-57.9375,23,-12.875
610466633994,-68.375,28.125,-17.4375
610466647396,-53.875,47.875,-24.3125
610466677467,-39.6875,66.125,-28.5
610466692456,-38.9375,85.5,-27.8125
610466706019,-32.6875,90.75,-23.1875
610466729076,-36.25,94.5,-18.3125
610466751614,-48.375,89.0625,-9.625
610466768895,-38.6875,92.5625,-6.3125
610466789103,-23.9375,91.8125,-1.5
610466811677,-5,86.9375,3.8125
610466827410,16.6875,85.625,6.1875
610466849195,20.25,76.375,9.0625
610466871715,7.5625,65.5625,14.75
610466887437,1.625,55.75,19.5
610466909125,1.125,44.125,18
610466931817,0.375,35.0625,26.6875
610466948619,15,32.6875,26.625
610466969140,37.75,31.0625,27.9375
610466991626,49.5625,28.9375,29.75
610467007421,59.1875,23.8125,32.75
610467029058,65.25,15.4375,34.3125
610467051630,66.0625,4.625,35.375
610467067419,59.3125,-2.5,35.125
610467090586,45.9375,-7.8125,36.9375
610467111609,33.6875,-15.125,41.9375
610467128043,32.1875,-26.3125,47.8125
610467149096,39.375,-40.5625,53.1875
610467171697,54,-56.1875,57.375
610467188072,70.625,-70.75,59.6875
610467209173,87.375,-79.5625,58.1875
610467231646,103.812,-84.5,55.0625
610467254121,111.562,-85.9375,49.6875
610467269142,101.625,-85.5625,42.75
610467299154,76.125,-81.125,35.25
610467307372,45,-71.5625,27.8125
610467336685,20.625,-56.6875,20.875
610467351627,7,-42.9375,18.1875
610467369491,1.9375,-34.875,17.375
610467396406,6,-30.4375,16.3125
610467411656,19.8125,-27.0625,15.3125
610467427391,36.8125,-19.9375,13.1875
610467449163,50.6875,-10.5625,11.1875
610467471613,58.875,-1.875,10.3125
610467487825,59,5.125,10.8125
610467509130,48.4375,9.6875,11.125
610467531632,33.6875,11.1875,11.375
610467548048,24.875,10.5,11.125
610467569124,23.9375,8.75,10.5625
610467599159,28.8125,6.625,10.0625
610467607421,33.5,6.625,9
610467629111,34.4375,6.0625,8.8125
610467651691,31.3125,5.3125,8.25
610467667431,25.75,4.5,7.1875
610467689191,18.1875,3.9375,5.9375
610467711628,12.875,4.9375,4.1875
610467727463,11,6.875,2.6875
610467749183,12,8.1875,1.75
610467771653,13.0625,8.0625,1.625
610467787393,13,7.875,1.375
610467810537,10.625,7.3125,1.5625
610467831629,7.6875,4.75,1.6875
610467847375,4.1875,0.6875,1.9375
610467870627,1.875,-2,2.125
610467891708,3.9375,-2.375,1.625
610467907419,5.875,-2.25,1.0625
610467930580,5.5625,-1.875,1.4375
610467951583,2.375,-1.4375,1.875
610467967398,-1.25,-1.0625,2.375
610467991206,-3.25,-0.9375,2.8125
610468011664,-5.625,-2.25,3.5625
610468027420,-5.375,-2.75,4
610468050567,-3.625,-2.0625,3.9375
610468071651,1.25,-1.0625,3.4375
610468087445,4.375,-0.375,2.75
610468110573,1.875,0.5625,2.6875
610468131685,0.6875,2.4375,2.375
610468147416,0.9375,3.3125,2.0625
610468170583,0.4375,3.625,1.9375
610468191653,-0.8125,4.0625,1.875
610468215593,-0.1875,5.0625,2.125
610468238071,0.5625,5.5,2.75
610468251647,-0.375,3.9375,3.5
610468267420,-1.75,1.8125,3.6875
610468290602,-0.875,0.1875,3.125
610468311629,1.9375,-0.5625,2.0625
610468327468,1.6875,-1.9375,0.8125
610468350638,2,-4.3125,0.125
610468380613,1.4375,-7.4375,-0.8125
610468387420,1.3125,-10.4375,-1.6875
610468411034,2,-12.6875,-2.5625
610468431666,3.3125,-14.1875,-3.1875
610468447453,5.125,-15.9375,-3.375
610468470571,6.8125,-17.6875,-2.3125
610468491671,9.9375,-15.3125,-2.6875
610468507410,10.8125,-13.3125,-2.1875
610468530546,14.8125,-12.5625,-1.875
610468551694,20.375,-13.375,-1.5625
610468567480,22.1875,-14.125,-1.5
610468589918,19.75,-15.5625,-0.75
610468611652,17,-18.4375,0.875
610468641658,19.0625,-20.6875,2.625
610468649922,22,-21.1875,3.5
610468671645,22.4375,-20.5,4.8125
610468687439,23.625,-19.5625,6
610468709925,24.875,-18.1875,6.625
610468733070,23.6875,-15.875,6.75
610468747486,21.25,-12.25,7.0625
610468769949,21.375,-7.1875,6.9375
610468793093,25.5,-2.5,6.6875
610468807428,28.75,1,6.1875
610468829921,26.4375,4.125,5.3125
610468853086,22.375,8.1875,4
610468874197,22.4375,11.4375,3
610468889942,24.9375,13.75,2.375
610468913087,25.6875,14.0625,2.5625
610468927416,25.5,13.875,2.625
610468949930,25.375,12.625,2.625
610468973101,25.125,9.75,2.375
610468987400,24.625,6,2
610469009992,23.125,2.875,1.5625
610469033093,22.25,0.1875,0.875
610469055572,21.5625,-1.9375,-0.125
610469069893,20.25,-4.375,-0.875
610469093174,20.125,-6.25,-1.8125
610469114218,19.9375,-7.0625,-3.0625
610469129943,19.875,-7.8125,-4.125
610469153129,19.3125,-8.125,-5.3125
610469174222,17.625,-8.9375,-6.5
610469190023,14.6875,-9.875,-7.75
610469213107,11.1875,-12.25,-8.625
610469234300,8.875,-14.5,-9.4375
610469250044,8.25,-15.8125,-9.625
610469273145,9.75,-15.3125,-9.5625
610469294224,11.625,-14.1875,-9.1875
610469310022,10.5,-13.125,-9.625
610469340651,5.3125,-13.875,-9.75
610469354208,0.375,-14.1875,-11.125
610469369951,-2.8125,-15.3125,-12.9375
610469400599,-4.1875,-14.875,-14.875
610469414147,-6.8125,-15.4375,-15.5
610469429916,-9.4375,-17.875,-15.0625
610469453097,-9.125,-20.5625,-14.75
610469475649,-6.25,-22.6875,-14.1875
610469489979,-3.25,-22.875,-15.25
610469512520,-1.0625,-21,-16.1875
610469534220,-1.3125,-20.125,-16.625
610469549974,-2.9375,-19.375,-17.9375
610469572511,-7.25,-20.5625,-19.4375
610469594244,-13.6875,-22,-21.5625
610469609963,-19.125,-22.8125,-22.625
610469632456,-21.9375,-23.9375,-21.5625
610469654238,-24.1875,-28.75,-16.625
610469670058,-18,-34.5625,-12.4375
610469692540,-7.5,-35.3125,-11.125
610469715653,3.875,-35.3125,-9.875
610469729929,14.5,-33.625,-8.875
610469752516,14.6875,-32.25,-7.9375
610469775577,4.1875,-30.5,-6.4375
610469790067,-5.375,-31.25,-5.875
610469812506,-9.3125,-29.625,-7
610469835678,-6.0625,-27.9375,-8.625
610469850036,1.625,-25.125,-11.4375
610469872494,3.0625,-21.125,-13.5625
610469895630,-1.5625,-18.125,-13.5625
610469910085,-8.625,-16.0625,-13.125
610469932568,-13.9375,-13.75,-12.9375
610469955670,-12.6875,-10.4375,-12.9375
610469976693,-6.8125,-7.5,-12.25
610469992545,-2.75,-6.0625,-9.875
610470015656,-3.625,-5.125,-6.875
610470036726,-4.6875,-5.0625,-3.625
610470060667,-1.0625,-2.8125,-2.4375
610470075688,4.375,0.625,-3.5
610470089994,6.625,2.75,-5.0625
610470112521,3.9375,3,-6.0625
610470135744,-2.1875,1.4375,-5.6875
610470156742,-6.5,-0.125,-4.6875
610470172568,-6.3125,-0.75,-4.0625
610470195714,-2.625,-1.0625,-3.5625
610470216768,1.5,-1,-2.875
610470232948,2.125,-1.1875,-1.375
610470256149,0.5625,-0.625,0
610470276770,-1.3125,0.1875,0.8125
610470292503,-0.25,1.25,0.125
610470315666,2,1.75,-0.8125
610470338235,3.1875,1.75,-1.25
610470352533,1.6875,2.1875,-1.5625
610470375620,-1,2.1875,-1
610470396673,-0.75,2,-0.9375
610470420655,0.4375,1.625,-0.5625
610470449923,1.625,1.25,0.0625
610470451487,2.4375,1.25,0.375
610470471735,1.625,1.1875,1.125
610470486715,1.8125,0.375,1.4375
610470508563,1.9375,0.1875,1.4375
610470531657,2.4375,0.125,1.25
610470546097,2.5625,0.4375,1
610470571540,1.6875,0.3125,0.75
610470591782,1.1875,0.5625,0.3125
610470606119,1.75,1.4375,-0.25
610470628594,3,2.125,-0.6875
610470651733,3.625,2.8125,-1.5
610470667574,1.875,3.4375,-1.625
610470697471,-0.125,3.5,-1.1875
610470711694,-0.4375,3.1875,-0.375
610470727525,1,2.4375,0
610470748612,2.1875,1.8125,0.3125
610470779923,1.625,1.25,0.75
610470786122,0.125,0.3125,1
610470808583,-0.25,-0.25,0.9375
610470831849,-0.1875,-0.5625,0.5
610470846065,-0.25,-0.8125,-0.1875
610470877435,-0.3125,-0.5625,-0.5625
610470891682,-0.75,-0.5625,-0.5625
610470906119,-0.9375,-0.4375,-0.125
610470928701,0.375,-0.3125,0.5
610470951777,0.875,-0.25,0.875
610470974244,0.8125,-0.5,0.5625
610470990017,-0.75,-0.3125,0.125
610471011777,-2.3125,-0.125,0.25
610471034260,-1.75,0.0625,0.25
610471057461,-0.125,0.6875,0.1875
610471071698,0.5625,0.6875,-0.0625
610471087564,-0.25,0.4375,0.0625
610471108585,-1.125,0.0625,0.125
610471139940,-1.75,0.0625,0
610471146071,-1.6875,0.375,-0.125
610471168556,-0.625,0.375,0
610471191715,-0.125,0.5625,-0.4375
610471206117,0.5625,0.6875,-0.75
610471228613,-0.125,0.875,-0.5625
610471251658,-1.6875,0.5625,0.0625
610471266099,-2.1875,0.6875,0.3125
610471297383,-1,0.4375,0.75
610471311800,0.5625,-0.4375,1
610471334333,1.3125,-0.5625,0.6875
610471348636,0.875,-0.0625,0.25
610471371819,-0.4375,0.5,0
610471394336,-1,1.4375,0.0625
610471416813,-0.0625,1.4375,0.125
610471431092,0.1875,1.4375,0
610471446188,-0.0625,1.3125,0.125
610471476808,0.1875,0.8125,0.4375
610471499935,0.0625,1.125,0.4375
610471506125,0.0625,1.5625,0.375
610471530078,1.25,1.875,0.0625
610471551773,0.75,1.5,-0.0625
610471566120,0.5,0.875,-0.125
610471588569,0.1875,0.8125,-0.3125
610471611128,0.25,0.5625,-0.375
610471626150,0,0.125,-0.1875
610471648639,-0.5625,0.1875,-0.0625
610471671122,-0.25,0.75,-0.25
610471686122,0.5625,1.25,-0.25
610471716795,0.0625,1,-0.3125
610471731039,0.0625,0.6875,0
610471754193,0.625,0.9375,-0.1875
610471776675,1.3125,1.4375,-0.5625
610471791036,0.9375,1.3125,-0.3125
610471808949,0.25,1,0.125
610471836477,0.25,1.0625,0.0625
610471851050,1.75,0.375,0.125
610471866052,2.125,0.125,-0.0625
610471889973,0.0625,-0.125,0
610471911067,-1.0625,0.125,-0.1875
610471926057,-1.625,0.5625,-0.5
610471950065,-0.3125,0.5625,-0.3125
610471972550,0.125,0.125,0.125
610471986088,0.5625,0,0.25
610472008612,0.8125,0.25,-0.125
610472034016,1,1.1875,-0.4375
610472054278,1.8125,2.125,-0.9375
610472068642,0.25,2.125,-0.6875
610472091123,-0.375,1.625,-0.25
610472114318,0,1.125,-0.0625
610472128654,0.6875,0.875,-0.375
610472151074,0.625,0.625,0
610472169074,-0.75,0.625,0
610472196725,-1.25,0.9375,-0.1875
610472211110,-0.5625,0.75,0.0625
610472229028,0.0625,0.8125,-0.0625
610472250001,-0.25,0.6875,0
610472271152,0.1875,0.9375,-0.125
610472286123,0,0.9375,0
610472311546,-0.25,1.5625,0.0625
610472331086,-0.3125,2.0625,0
610472347578,-0.5,2,0.125
610472368571,-0.125,1.375,0.125
610472391123,-0.1875,1.1875,-0.0625
610472407524,-0.375,1.125,-0.1875
610472428640,0.4375,1.3125,-0.125
610472451151,0.5,1.5625,-0.3125
610472475708,-0.375,1.5,-0.25
610472488645,-1.0625,1.25,-0.1875
610472511069,-1.1875,1.25,0
610472529023,0.25,1.75,-0.3125
610472556822,0.875,2.1875,-0.4375
610472571213,-0.4375,2.125,0
610472587545,-1.9375,2.1875,0.5
610472616840,-1.6875,2.625,0.5
610472631146,0.3125,3.1875,0.5625
610472647564,2.5625,3.25,0.75
610472671526,3.125,3.5,0.125
610472691143,0.8125,3.875,-0.125
610472707622,-0.0625,3.75,0
610472728659,0.125,3.3125,-0.125
610472752550,1,2.5,-0.0625
610472775057,1.0625,1.625,0.125
610472788643,0.3125,1.25,0.5625
610472811071,0.375,1,0.5625
610472835095,0.9375,1.1875,0.375
610472848709,0.9375,1.4375,0
610472871053,-0.125,1.375,-0.375
610472888986,-1.4375,1.1875,-0.4375
610472916818,-0.8125,1.0625,-0.3125
610472931185,0.4375,1.125,-0.5
610472947618,1,1,-0.6875
610472976748,-0.6875,0.9375,-0.4375
610472991181,-1.6875,1,-0.1875
610473007544,-1.75,1.0625,0.125
610473031566,-0.8125,0.75,0.25
610473059326,-0.3125,1.125,0.1875
610473067617,-1.125,1.125,0.6875
610473088640,-1.9375,1.25,1.0625
610473112543,-1.625,1.4375,1.25
610473127770,-0.8125,1.75,1.25
610473148597,-0.25,2.125,1.3125
610473171120,-0.4375,2.375,1.75
610473195144,0.25,2.4375,1.75
610473208559,0.375,2.5625,1.5625
610473231049,-0.375,2.75,1.4375
610473255098,-1.3125,3.0625,1.125
610473276873,-3.1875,3.375,1.4375
610473291122,-2.9375,1.75,2.1875
610473309016,1.0625,0.375,1.6875
610473336765,3.125,0.875,0
610473359328,2.1875,0.4375,0.0625
610473367604,0.625,-0.3125,0.5625
610473391560,-1.3125,-0.8125,0.5625
610473419366,-0.9375,-0.875,0.4375
610473427580,0.25,-0.875,0.9375
610473450049,-0.5625,0.125,1.5625
610473472663,0.5625,1.25,1.625
610473487569,2.4375,1.9375,1.5
610473510105,1.4375,3,1.5
610473539277,1.4375,2.9375,2.3125
610473554994,1.5625,3.0625,2.25
610473570016,1.625,2.9375,1.75
610473591054,3.1875,2.5625,1.25
610473607533,1.375,2.375,0.75
610473630014,-0.4375,2.6875,0.25
610473651023,-1.9375,2.875,0.3125
610473667514,-2.625,3.625,0.4375
610473697547,-1.6875,4.1875,0.5
610473711147,0.625,3.9375,1.1875
610473727514,1.8125,3.5,1.625
610473750027,0.6875,3.25,1.4375
610473779330,-0.3125,2.9375,1.6875
610473787614,0.4375,2.75,1.3125
610473810157,-0.5,2.3125,0.4375
610473832581,-1.4375,1.5625,0.3125
610473847538,-1.8125,0.625,0.25
610473870120,-0.625,0.5625,-0.1875
610473894081,1.1875,1,-0.25
610473915040,0.4375,1.5,0
610473930139,-1.25,2.375,0.375
610473977091,-1.3125,2.1875,1.1875
610473981774,0.25,1.75,1.625
610473990147,1.6875,1.8125,2.0625
610474011095,2.1875,2.0625,2.5625
610474029079,0.9375,2.4375,2.875
610474057554,-0.25,2.8125,2.75
610474088116,1,3.4375,2.25
610474090511,2.1875,3.75,2.125
610474111573,1.6875,3.875,2.125
610474139303,0.9375,3.6875,2.75
610474147575,1.1875,3.6875,2.8125
610474171564,2.875,4,2.4375
610474194106,3.4375,3.6875,1.75
610474206826,1.0625,2.5,1.3125
610474229281,-2.375,1.6875,1
610474253282,-2.75,1.8125,0.3125
610474275706,-0.0625,2.1875,-0.1875
610474289379,1.625,2.25,-0.8125
610474311748,0.3125,1.875,-1.0625
610474326854,-2.5,1.3125,-1.3125
610474349329,-3.6875,0.3125,-1.125
610474380057,-2.25,-0.8125,-0.5625
610474386871,0,-1.3125,-0.4375
610474416877,0.625,-2.125,-0.375
610474431886,-0.5,-3.0625,-0.4375
610474448731,-3.25,-3.9375,-0.75
610474470792,-4.1875,-4.4375,-0.9375
610474499347,-3.625,-5.3125,-1
610474508304,-3.25,-6.125,-1.0625
610474530804,-3.3125,-6.5,-1.0625
610474553669,-3.4375,-6.625,-0.8125
610474583998,-3.6875,-6.375,-1
610474589268,-3.625,-5.9375,-1.25
610474613288,-3,-6,-1.25
610474628078,-2.75,-6,-2
610474649272,-2.9375,-5.1875,-2.75
610474671849,-3.8125,-5.4375,-2.8125
610474695748,-3.8125,-5.9375,-2.75
610474709262,-2.6875,-6.1875,-3
610474731826,-0.5,-5.625,-3.4375
610474748290,0,-5,-3.375
610474776846,-1.125,-4.625,-2.75
610474808897,-1.3125,-4.0625,-2.0625
610474811288,-1.1875,-3.5,-1.625
610474830695,-1.0625,-2.375,-1.625
610474859390,-0.5,-1.4375,-0.875
610474868323,-0.875,-0.75,-0.1875
610474889352,-1.3125,0.3125,0.4375
610474911889,-2.0625,1.1875,0.9375
610474928290,-2.1875,1.9375,1.1875
610474949235,-1.8125,2.625,1.375
610474973311,-0.625,2.75,1.25
610474994345,0,2.75,0.5625
610475009345,-0.5,2.0625,0.1875
610475031892,-1.125,1.1875,-0.0625
610475055799,-1.25,0.25,-0.25
610475069269,-0.25,-0.5625,-0.375
610475091825,0.75,-1.1875,-0.3125
610475108280,0.75,-1.75,-0.0625
610475136825,0.1875,-1.6875,-0.1875
610475151773,-0.3125,-1.5625,-0.3125
610475167609,0.0625,-1.4375,-0.5625
610475189134,-0.0625,-1.3125,-0.75
610475219297,-0.375,-1.125,-0.5
610475227576,-0.4375,-0.3125,-0.25
610475252262,-0.1875,-0.1875,0.0625
610475279446,-0.1875,-0.0625,-0.125
610475287666,-0.1875,0.125,-0.375
610475309298,-0.125,0,-0.75
610475331886,-0.625,-0.4375,-0.4375
610475348225,-0.375,-0.6875,-0.25
610475370793,0.9375,-0.4375,-0.1875
610475391875,0.9375,-0.625,0
610475415781,-1,-0.9375,0.0625
610475445077,-1.4375,-1,0.0625
610475451819,0.4375,-1.1875,0
610475481843,1.4375,-1,-0.125
610475498283,1.4375,-0.5625,-0.1875
610475511771,0,-0.6875,0.125
610475528114,-0.9375,-0.6875,-0.0625
610475558268,-0.375,-0.5625,-0.375
610475571760,0.5,-0.3125,-0.75
610475587614,-0.6875,-0.375,-0.4375
610475610771,-1.3125,-0.3125,0.125
610475639321,-1.4375,-0.3125,0.625
610475647607,-1,0.125,0.6875
610475670807,-0.375,0.625,0.4375
610475693303,-0.5625,0.6875,0.1875
610475707665,-1.9375,0.125,-0.0625
610475730777,-2.9375,-0.375,-0.1875
610475751782,-2.6875,-1.0625,-0.125
610475775801,-1.6875,-1.375,-0.0625
610475790817,-1.4375,-1.3125,0
610475811859,-1.4375,-0.9375,-0.125
610475827637,-2.25,-1.1875,-0.25
610475858341,-3.1875,-1.5625,-0.5625
610475872556,-3.5625,-2.125,-0.5
610475887649,-3.25,-2.5625,-0.625
610475918228,-2.125,-2.9375,-0.5
610475939441,-0.5625,-2.5,0
610475947550,0.25,-1.75,0.375
610475970698,-0.8125,-2.75,0.8125
610476000824,-3.0625,-6.3125,1.5
610476007574,-6.4375,-10.75,1.75
610476032165,-6.625,-13.1875,0.5625
610476053248,-3.125,-14,-0.9375
610476067562,-1.5625,-14.1875,-3
610476090720,-4.875,-14.25,-5.0625
610476113243,-9.25,-14.3125,-6.375
610476135747,-9.6875,-14.8125,-7.5
610476150098,-5.5,-15.625,-8.4375
610476171789,-2.5625,-16.3125,-8.5625
610476195723,-3.0625,-18.0625,-7.6875
610476218268,-4.6875,-20.4375,-6.8125
610476231811,-4.4375,-21.375,-6.125
610476247597,-1.3125,-20.8125,-6.25
610476276865,0.625,-18.6875,-7.125
610476291956,-0.6875,-17.3125,-6.9375
610476307632,-2.625,-16.8125,-6.0625
610476330135,-3.0625,-16.125,-5.1875
610476353692,-1,-14.4375,-4.625
610476367691,2.125,-12.5,-4
610476390119,3.9375,-11,-3.4375
610476413293,3.6875,-10,-3.5625
610476427625,1.625,-8.5,-4.375
610476450146,0.0625,-8.625,-4.625
610476473364,-1.5625,-9.8125,-4.8125
610476487666,-1.75,-10.4375,-4.75
610476510111,-1,-9.8125,-4.375
610476533323,-0.3125,-8.5,-4.0625
610476547671,-0.625,-7.1875,-3.625
610476570119,-1.0625,-5.5625,-3.3125
610476593306,-2.25,-3.9375,-3.1875
610476607720,-1.6875,-2.625,-2.9375
610476630204,0.1875,-1.75,-2.5625
610476653340,1.4375,-1.375,-2.25
610476674369,1.0625,-1.3125,-1.6875
610476690248,-0.125,-1.1875,-1.125
610476713271,-0.75,-0.8125,-0.9375
610476727650,-0.6875,-0.0625,-0.9375
610476750197,-1.1875,0.4375,-0.9375
610476773329,-1.875,0.625,-0.75
610476787724,-1.6875,1.375,-0.875
610476810133,-0.5625,1.625,-0.75
610476833753,-0.5,1.0625,-0.5
610476854407,-1.875,-0.125,-0.1875
610476870138,-2.1875,-1.0625,-0.375
610476893312,-1.6875,-1.375,-0.875
610476914395,-0.5625,-1.6875,-1.125
610476930147,0.1875,-1.5,-1.3125
610476953354,-0.5625,-1.5,-1
610476974350,-0.5,-1.6875,-0.6875
610476990171,0.25,-2,-0.8125
610477013368,-0.0625,-2.5625,-0.9375
610477034391,-1.3125,-3.3125,-1.0625
610477050576,-2.625,-3.5,-0.9375
610477072670,-3.25,-3.3125,-0.9375
610477094283,-2.3125,-2.9375,-0.875
610477110160,-1,-2.1875,-0.8125
610477132635,-0.375,-1.4375,-0.8125
610477154369,-0.375,-1.125,-0.625
610477170124,-0.625,-0.8125,-0.6875
610477192664,-0.375,-0.75,-0.625
610477221955,-0.125,-1,-0.5625
610477244394,-0.8125,-1.5625,-0.5625
610477252701,-0.75,-1.1875,-0.5625
610477275823,-0.3125,-0.5625,-0.4375
610477290151,-0.0625,-0.125,0.0625
610477312651,0.125,0.3125,0.125
610477335796,0.25,0.875,-0.1875
610477350156,0.9375,0.625,0.125
610477372714,1,0.3125,0
610477395833,1.25,0.125,-0.0625
610477416850,1.4375,0.375,-0.5
610477432688,0.25,0.1875,-0.25
610477455893,-0.5625,-0.4375,0.125
610477470185,0,-0.3125,0.125
610477500880,1.75,0.3125,-0.25
610477515825,1.5625,0.4375,-0.4375
610477530149,-0.5625,-0.125,-0.3125
610477552654,-2.125,0,-0.8125
610477583402,-1.125,0.1875,-0.9375
610477596664,0.25,-0.375,-0.8125
610477612666,0.125,-0.75,-0.9375
610477635854,-1.1875,-1.0625,-0.6875
610477650170,-1,-1.0625,-0.5
610477672716,-0.625,-1.1875,-0.3125
610477695867,0.3125,-0.6875,-0.375
610477710144,0.375,-0.1875,-0.625
610477732600,0.0625,0.0625,-0.4375
610477755887,0.125,-0.1875,-0.1875
610477777000,2,0,-0.1875
610477792744,2.75,0.5,-0.3125
610477815862,1.375,0.3125,0.125
610477836907,-0.125,-0.0625,0.1875
610477852645,0,0.375,0.125
610477875827,0.9375,0.125,0.375
610477896835,1.0625,-0.3125,0.5
610477912724,0.75,-0.375,0.3125
610477943244,0.125,-0.0625,0.1875
610477948771,-0.125,0.5625,0.375
610477971902,-1.3125,1.4375,0.5625
610477986246,-0.5625,2.9375,1
610478008786,1.1875,3.8125,1.25
610478040091,1.1875,3.4375,1.1875
610478046325,-1.1875,2.8125,0.9375
610478068725,-3.6875,2.125,1.125
610478091876,-2.625,1,1.5
610478106229,-0.8125,0.5,1.8125
610478128805,0.9375,0.25,1.875
610478151675,0.9375,-0.0625,2.125
610478166266,0.1875,0.1875,2.125
610478188733,0.375,1.125,2.0625
610478211903,1.625,1.3125,1.875
610478226212,2.3125,1.3125,1
610478250257,1.6875,0.875,-0.125
610478271737,0.125,0.4375,-1.125
610478286261,-1.6875,-0.125,-1.8125
610478308769,-1.125,-0.25,-1.9375
610478331917,-0.4375,-0.1875,-2.1875
610478354473,0.25,-0.125,-1.75
610478368788,0.625,0.0625,-1.375
610478391994,0.25,0.5625,-0.75
610478406320,-0.3125,0.0625,0.0625
610478428772,-0.3125,-0.9375,0.3125
610478451995,0.5,-0.875,-0.1875
610478466218,1,-0.4375,-0.875
610478488746,-0.125,-0.5,-0.5625
610478511934,-1.375,-0.5,-0.1875
610478526283,-0.8125,-0.4375,0.0625
610478548769,1.375,-0.0625,0.125
610478571846,2.25,0.125,0.3125
610478586224,1.125,0.125,0.375
610478610176,-0.1875,-0.1875,0.1875
610478631854,-0.3125,-0.6875,-0.5
610478646307,1.0625,-1.0625,-1.375
610478668717,1.125,-1.1875,-1.8125
610478691966,-0.125,-0.25,-1.9375
610478706237,-1.6875,0.375,-1.25
610478728741,-1.3125,0.9375,-0.6875
610478752419,0.125,0.375,0.1875
610478766266,1.375,0,0.375
610478788857,1.625,-0.1875,0.3125
610478812037,0.875,-0.25,0.25
610478826269,-0.375,-0.6875,0.25
610478848795,-0.1875,-0.625,0.125
610478871876,1.125,-0.125,-0.3125
610478887680,1.8125,0.6875,-0.1875
610478908675,1.1875,0.875,0.3125
610478931889,0.25,1.25,0.5625
610478946285,0.625,1.3125,0.3125
610478970241,1.625,1.375,0.125
610478991973,2.4375,2.0625,-0.3125
610479006217,1.1875,1.75,0.0625
610479028747,0.4375,1.375,0.4375
610479051861,1.1875,1.1875,0.5
610479066197,2.75,1.0625,0.25
610479088699,3.8125,1.375,0.0625
610479113293,2.75,1.375,0.125
610479126220,3.4375,1.125,0.625
610479148722,5.3125,2.5,1.375
610479171262,7.375,3.3125,3.3125
610479186211,8.5625,4.125,6.6875
610479208710,10.9375,5.8125,10.5625
610479231239,18.3125,9.0625,13.0625
610479246247,24.6875,13.1875,14.0625
610479268761,28.875,17.5625,13.125
610479291281,29.3125,22.4375,12.9375
610479306173,29.25,27.625,13.0625
610479328743,30.625,31.4375,14.0625
610479351195,33.0625,34.1875,16.3125
610479366249,37.375,37.125,20.8125
610479388746,44,42.0625,26.5
610479411176,54.25,48.0625,33.375
610479426221,63.5,53.0625,39.1875
610479448709,71.125,55.875,42.5
610479471203,76,58.75,42.75
610479494390,79.1875,59.9375,40.8125
610479508745,79.25,58.75,36.75
610479531254,74.125,54.4375,31.6875
610479546210,67.6875,48.875,25.5
610479568736,64.75,43.25,19.6875
610479591202,62.875,39.25,15.3125
610479606196,59.8125,34.875,14.0625
610479628752,56.3125,30.75,14.75
610479651221,54.75,27.4375,16
610479666205,56.625,23.5,17.375
610479688725,59.0625,19.625,18.1875
610479711225,61.4375,16.4375,18.375
610479726231,63.1875,12.8125,19.125
610479748774,62.875,9.625,19.375
610479771214,61.875,7.1875,19.4375
610479786235,61.5,5.5,19.25
610479808749,64,4.3125,18.625
610479831314,67.4375,5.1875,17.25
610479846245,68.4375,6.3125,16.75
610479868781,66.9375,7.5625,16.75
610479900091,63.5625,7.3125,17.8125
610479906294,61.125,6.75,18.3125
610479928726,60.5625,5.9375,18.6875
610479951229,61.625,5.3125,19.25
610479967648,63.8125,4.5625,20.1875
610479988759,66.6875,4,19.8125
610480011235,68.4375,4.0625,19
610480027676,69.125,4.375,18.3125
610480048761,68.5625,3.6875,17.375
610480071250,65.5,3.375,15.5625
610480087724,62,2.5625,13.3125
610480108744,61.625,0.375,10.4375
610480131301,63.4375,-2,7.0625
610480147642,62.4375,-5.3125,3.1875
610480168758,55.875,-8.8125,0.9375
610480191197,48.3125,-12.9375,0.5
610480209089,42.3125,-14.625,0.8125
610480228788,42.1875,-13.625,2.0625
610480259433,47.5,-11.6875,1.75
610480267697,53,-10.5625,-0.25
610480296964,53.375,-10.5,-3.875
610480311258,48.3125,-11.3125,-6.625
610480327703,39.5,-13.4375,-7.75
610480348725,35.75,-16,-7.4375
610480371252,36.0625,-11.9375,-7.125
610480387706,32.875,-3.25,-2.5
610480408773,36.6875,8.3125,3.5625
610480431276,52.625,18.4375,7.375
610480447648,56.1875,22.1875,7.375
610480468778,39.5,17.875,10.6875
610480491189,27.75,15.125,14.6875
610480507633,35.4375,19.6875,15.6875
610480528723,48.1875,25,19.1875
610480551245,56.1875,28.125,22.625
610480573767,57.4375,29.4375,25.5625
610480588778,51,28.9375,27.3125
610480611243,44.9375,30.75,28.625
610480627700,43.0625,34.9375,28.875
610480648761,46.1875,40.4375,28.75
610480671266,48.75,44.3125,28
610480687699,47.75,46.5625,27.625
610480708785,44.5,47.125,27.25
610480731280,42.9375,46.25,27
610480747664,43.6875,43.3125,26
610480768810,43.875,39.625,24.25
610480791229,42.25,34.9375,22.875
610480807628,42.25,28.4375,20.5625
610480828738,45.875,25.125,16.0625
610480851252,49.25,24.1875,12.75
610480867714,50.0625,23.8125,11.1875
610480890170,45.625,22.8125,10.6875
610480912673,38.125,20.6875,10.8125
610480927675,31.875,15.125,11.8125
610480950183,29.8125,7.75,13.3125
610480971265,34,0.8125,14.1875
610480987691,43.875,-4.9375,14.375
610481010196,50.0625,-13,15.375
610481032673,49.1875,-24.6875,18.1875
610481047686,43.3125,-36.25,21.5625
610481070203,41.125,-47.5625,25.625
610481091258,46.875,-56.5625,30.6875
610481113734,55,-57.9375,35.5625
610481130223,56.75,-61.25,48.375
610481151266,70.125,-67.6875,54.75
610481167694,109.812,-53.4375,44
610481190165,127.438,-39.75,43.375
610481214154,117.875,-39,51.75
610481227698,74.3125,-41.875,57.125
610481250180,42.875,-38.1875,57.4375
610481271293,68.25,-26.875,51.5625
610481287821,122.312,-14.625,45.0625
610481310245,145.562,-9.0625,40.5625
610481331319,131,-9.625,35.6875
610481347785,99.125,-13.625,28
610481370215,66.9375,-13.8125,17.25
610481391318,39.6875,-14.5,7.875
610481407747,17.25,-10.5625,-2.9375
610481431714,-11.3125,-7.875,-10.875
610481451346,-33.875,-11.3125,-16.5625
610481467785,-47.8125,-13,-19.5625
610481491727,-51.25,-10.5,-20.125
610481511368,-36.8125,-3.75,-19.4375
610481527750,-4.375,3.25,-16.625
610481550239,13.0625,9.0625,-12.5625
610481571355,8.125,15.25,-9.3125
610481587764,8.875,19.6875,-8.3125
610481610311,25.8125,23.75,-7.4375
610481634174,40.0625,26.25,-6.625
610481647754,38.5625,24.125,-6.5625
610481670281,41.0625,18.625,-5.6875
610481691993,47.1875,1.75,-3.9375
610481706993,55.25,-10.25,-8.0625
610481729397,43.875,0.9375,-18.375
610481751999,18.625,18.75,-26.875
610481766994,-21.4375,24.1875,-29.4375
610481789534,-75.125,16.875,-27.125
610481811933,-112.5,7.6875,-23.9375
610481828443,-116.5,6.375,-19.8125
610481849427,-86.625,14.6875,-16.625
610481872001,-50.1875,24.875,-13.9375
610481887050,-23.375,31,-9
610481911041,-11,33.8125,-2.875
610481931988,-13.9375,34.5,3.9375
610481946990,-22.75,38.375,7.6875
610481969534,-28,42.1875,12.8125
610481992001,-20.3125,41.75,16.6875
610482008408,-9,37.75,20
610482029524,-3,31.375,23.4375
610482052001,-8.125,22.3125,29.625
610482068457,-5.4375,11.1875,35.9375
610482089450,7,6,36.1875
610482111997,23.5625,0.625,31.625
610482128421,25.375,-2.1875,29.4375
610482149466,19.25,-3.75,25.8125
610482172057,8.1875,-7.6875,22.3125
610482188404,-6.75,-16.375,20.6875
610482209538,-15.9375,-27.625,20.375
610482232039,-16.3125,-37.6875,19.75
610482248419,-7.625,-46.3125,18.1875
610482269468,-4.5625,-61.625,22.125
610482291931,0.125,-92.3125,27.75
610482308440,20.5625,-97.9375,16.875
610482329525,32.375,-92.25,9.625
610482352024,46,-74.25,1
610482368460,30.0625,-56.4375,-5.1875
610482389455,-6.5625,-41.3125,-8.4375
610482412050,-41.25,-25.5,-11.8125
610482428433,-63.5,-10.25,-10.625
610482449403,-61.4375,1.6875,-4.8125
610482472074,-36.875,9.9375,-1.4375
610482488468,-8.8125,13.8125,-1.8125
610482509456,9,14.0625,-1.5
610482532049,10.6875,13.125,-1.875
610482548397,2.8125,15.3125,-4.75
610482569474,-11.125,20.1875,-9.75
610482592018,-27.0625,26.1875,-15.3125
610482608493,-41.875,30,-19.875
610482629552,-52.4375,31.125,-23.25
610482651991,-59.125,30.5,-25.3125
610482668469,-65.5625,28.3125,-24.625
610482689474,-70.625,24.625,-22.625
610482712003,-72.3125,22.0625,-21.125
610482727753,-69.875,20.9375,-19.5625
610482749385,-63.5625,19.75,-18.75
610482772113,-62.25,18.375,-17.6875
610482787832,-65.1875,16.9375,-17.0625
610482809513,-68.125,15.25,-15.9375
610482832046,-66.5625,13.5,-14.8125
610482847817,-61.625,11.75,-13.5
610482869490,-55.125,11.125,-11.8125
610482892048,-49.625,10.875,-10.0625
610482907742,-48,10.375,-8.8125
