timestamp,x,y,z
62170932040,1.6875,-0.4375,25.4375
62170954602,7.625,-1,22.4375
62170976322,12.9375,2.375,15.5625
62170992065,3.6875,4.9375,10.3125
62171013821,-8.5,5.3125,8.875
62171036323,-14.3125,5.6875,8.5
62171058829,-11.3125,8.75,4.125
62171073801,-2,15.375,-1.5
62171096297,0.6875,18.4375,-4.25
62171135925,-4.4375,16.25,-3.3125
62171136813,-8.75,12.5625,-3.3125
62171156316,-6.75,10,-4.375
62171187845,0.875,7.3125,-3.3125
62171202854,3.375,8.25,-3.375
62171217204,2.75,6.8125,-2.5
62171240269,2.3125,9.375,-4
62171262786,5.4375,5.375,-6.125
62171277195,2.125,6.8125,-4.625
62171300319,5.375,5.375,-2.625
62171322700,10.25,1.0625,-6
62171337071,13.875,-1.1875,-9.625
62171360255,12.375,-1.5625,-11.375
62171382735,7.375,-3.5625,-12.5
62171397085,4.625,-5.1875,-11.375
62171420201,4.1875,-3.6875,-11
62171442837,7.5,-1.25,-11.125
62171457144,14.5,-1.375,-10.9375
62171480307,14.625,0.4375,-8.4375
62171502805,14.0625,2.6875,-5.9375
62171525220,16.3125,-0.25,-6.8125
62171540273,15.625,-0.4375,-3.8125
62171562851,13.1875,-0.6875,-2.6875
62171577095,14.0625,-1,-2.375
62171600222,13.125,0.9375,-0.375
62171622767,12.375,1.625,1.6875
62171643808,12.4375,1.5625,2.375
62171667785,10.9375,0.25,2.875
62171689543,10.9375,-2.25,5.875
62171696373,10.875,-4.4375,7.125
62171712104,10.9375,-7.0625,7.625
62171735373,10.1875,-9.0625,10.5625
62171756559,9.0625,-10,9.5625
62171772150,9.125,-10.6875,9.0625
62171795356,9.5625,-9.25,8.6875
62171823982,9.6875,-7,7.6875
62171832087,7.875,-3.1875,3.75
62171855237,7,0.8125,0.0625
62171876362,6.125,3.6875,-2.375
62171892096,1.875,4.5,-2.75
62171915250,-1.8125,4.25,-4.375
62171936904,1.3125,3.625,-4.9375
62171952191,5.625,3.6875,-3.375
62171975353,5.375,4.4375,-1.75
62171996486,5.3125,5.5625,-0.0625
62172020324,4.125,4.25,1.125
62172042779,7,2.4375,3.5
62172056375,9.4375,2.625,5.875
62172072176,10.375,2,7.125
62172095331,8.5,0.9375,8.125
62172116505,7.0625,-0.4375,9.1875
62172132222,14.8125,0.125,8.3125
62172155254,14.6875,1.25,7.4375
62172176309,8.6875,1,6.1875
62172222435,2.75,-5.1875,10.0625
62172223230,6.75,-7.5,8.375
62172245246,12.3125,-6.8125,6.6875
62172253582,16.5,-7.3125,2.375
62172288930,18.1875,-15.6875,6.125
62172305389,8.9375,-18.5,7.1875
62172326476,-2.5,-16.75,6.4375
62172342829,-8.1875,-6.75,8.0625
62172365236,-2.75,-3.6875,3.875
62172386539,-4.625,-1.875,2.5625
62172402831,-3.4375,1.4375,8.8125
62172425205,-4.0625,4.5,8.125
62172439597,-4.0625,8.3125,7.0625
62172462742,-1.5625,9.125,6.625
62172485250,-3.1875,8.75,5.9375
62172499639,-1.9375,8.625,5.125
62172522823,0.3125,9.125,3.25
62172545324,-1.4375,13.0625,4.25
62172566535,-3.0625,12.0625,4.5
62172582847,-8.5625,8.75,3.75
62172605279,-10.5625,8.1875,3.625
62172626537,-5.6875,1.875,6.0625
62172642775,-3.375,-2.3125,8.4375
62172665267,-7.375,-5,11.6875
62172686278,-9.875,-7.9375,13.6875
62172702780,-12.125,-7.8125,16
62172725311,-15.3125,-8.625,17.5625
62172746566,-11.625,-8.6875,16.125
62172762791,-2.8125,-8.375,11.875
62172785347,0.25,-8.4375,10.875
62172806429,-6.9375,-9.0625,7.8125
62172822804,-16.375,-7.6875,7.875
62172845341,-17.125,-7.6875,7.8125
62172866373,-10.9375,-8.75,10.375
62172882133,-3.375,-9.375,12.75
62172905260,1.125,-11,15.25
62172927821,4.1875,-11.5625,17.25
62172934630,2.375,-7.25,17.6875
62172957821,4.5625,-1.75,17.5
62172979080,9.1875,2.125,16.5
62172994734,14.375,4.8125,15.3125
62173017871,17.125,7.25,19.75
62173039045,15.0625,8.75,20.375
62173054723,16.625,10.625,22.5625
62173077865,18.375,10.5625,25.1875
62173098908,23.5,10.875,26.3125
62173129591,24.6875,9.4375,26.5
62173136312,24.8125,7,24.4375
62173160331,27.875,4.6875,25.5
62173177634,27.625,1.875,29
62173197830,25.75,-3.3125,32.125
62173218944,32,-5.6875,33.1875
62173234659,31.3125,-6.0625,28.6875
62173257783,29.75,-6.375,23.625
62173279063,32.1875,-5.5625,23
62173294727,35.25,-0.3125,25.125
62173340969,30.3125,1.9375,22.0625
62173341773,27.75,0.875,19.0625
62173362773,30.375,-0.4375,12.75
62173385330,36.3125,-3.5,8.625
62173407151,36.8125,-6.125,1.375
62173414628,29.0625,-8.125,-4.0625
62173437749,19.6875,-11.0625,-6.9375
62173467216,16.375,-14.9375,-3.375
62173490335,15.9375,-21.5,-0.0625
62173506637,21.375,-28.4375,2.4375
62173515104,27.5625,-34.5625,4.0625
62173534689,32.75,-37.5,-0.25
62173557624,30.9375,-34.25,-5.875
62173580304,23.125,-28.3125,-13.625
62173594627,15.5625,-25,-21
62173617108,9.3125,-25,-27.625
62173663298,6.8125,-27.875,-32.625
62173668924,8.4375,-25.9375,-35.375
62173685344,13.5,-23.375,-39.8125
62173699671,15.9375,-19.3125,-40.4375
62173722777,13.1875,-17.8125,-37.3125
62173737916,5.9375,-15.4375,-39.4375
62173752215,0.1875,-17.9375,-37.5
62173774636,-2.3125,-15.1875,-33.1875
62173797232,4.9375,-18.125,-34.75
62173820348,2.0625,-20.6875,-31
62173834767,0.125,-19.125,-31.25
62173857155,-3.4375,-18.125,-33.125
62173880335,-9.3125,-15.75,-33
62173908833,-15.6875,-15,-32.6875
62173917124,-19.0625,-16.375,-27.5
62173940331,-19.375,-13.125,-22.0625
62173961448,-19.3125,-8.25,-21.8125
62173977244,-24.75,-1.5,-21.5
62174000304,-28.625,4.875,-16.8125
62174021563,-25.5,12,-13.3125
62174037184,-30.8125,16.5625,-10.9375
62174060302,-36.6875,19.4375,-8.5
62174081541,-46.5625,17.25,-7
62174097112,-41,19.3125,-6.0625
62174120331,-43.375,25.0625,-2
62174165792,-53.75,29.75,-1.5
62174166581,-54.9375,33.375,-0.625
62174186596,-48.3125,36.125,1.3125
62174203271,-42,37.5,3.4375
62174217892,-37.6875,35.4375,8.25
62174239111,-32.375,33.8125,7.125
62174256125,-27.1875,29.1875,10.8125
62174291451,-22,25.3125,10.1875
62174307850,-17.9375,14.75,10.625
62174330279,-12.0625,5.6875,5.8125
62174351354,-10.8125,3.25,1.5625
62174367785,-14.5625,4.5,-1.6875
62174390314,-22.9375,1.5625,-2.3125
62174411358,-23.5,-3.5,-0.9375
62174427778,-17.625,-2.25,-2.625
62174450404,-6.1875,2.3125,-2.4375
62174471424,4.625,9.4375,3.625
62174487912,9,10.0625,8.9375
62174493370,9.4375,4.6875,10.25
62174515922,5.3125,2.3125,10.9375
62174533665,13.5,-1.875,6.125
62174553427,13.5625,-2,4.5625
62174575769,11.9375,-6,2.8125
62174601132,5.25,-8.8125,5.3125
62174613259,-5.625,-12.3125,7.125
62174635748,-9.5625,-17.4375,9.375
62174653614,-5.0625,-20.375,15.3125
62174673418,1.8125,-21.125,21.5625
62174695876,11,-22.75,25.5625
62174713627,19.0625,-24.625,29.5
62174733442,20.875,-27.0625,30.375
62174755904,17.0625,-30.9375,29.9375
62174773630,16.0625,-33.1875,29.8125
62174793391,18.375,-35.75,28.5
62174815930,15.0625,-39.6875,24.125
62174833599,13.375,-44.9375,22.75
62174853220,11.875,-48.25,25.0625
62174876452,13.3125,-51.5,24.125
62174890751,17.1875,-53.5625,25.5
62174929080,16.8125,-50.375,25.4375
62174945345,16.25,-51.375,27.8125
62174960414,16.0625,-51.375,21.75
62174981603,9.75,-54.6875,19.9375
62174997910,12.6875,-57.125,24.375
62175021142,8.5625,-56.375,31.3125
62175033161,9.75,-61.6875,33.75
62175055690,7.25,-60.875,40.8125
62175073612,20.375,-67.6875,40.75
62175093220,39.375,-74.6875,40.375
62175115934,48.25,-80.3125,42.75
62175133687,46.0625,-89.6875,43.0625
62175153433,40.9375,-102.688,43.875
62175175750,34.9375,-116,42.75
62175193672,33.8125,-125.062,41.0625
62175213449,30.375,-126.188,38.25
62175236580,27.9375,-125.5,37.625
62175250932,27.375,-124.875,35.625
62175273235,28.75,-125.562,33.125
62175296419,38.3125,-119.312,33.625
62175310710,46.875,-113.625,35.9375
62175334695,52.0625,-115.5,40.4375
62175356339,59.625,-113.875,41.3125
62175370927,68.4375,-105.875,40.4375
62175393258,73.0625,-95.9375,40
62175417903,69.875,-87.0625,40.5625
62175430932,61.25,-80.1875,38.125
62175453280,51.125,-73.6875,32.875
62175476621,46.375,-67.75,30.5
62175490810,38.5,-60.6875,28.125
62175513434,25.5,-53.4375,25.0625
62175535935,14.375,-47.125,21.625
62175552264,10.75,-43.25,17.375
62175573376,15,-39.625,12.375
62175595738,12.9375,-35.375,6.4375
62175613591,3.875,-29.4375,0.375
62175633236,-6.25,-25.1875,-5.875
62175655714,-12.1875,-22.5625,-12.125
62175670708,-17.3125,-18.8125,-18.125
62175693433,-24.125,-10.9375,-24.125
62175715954,-26.3125,1.125,-26.25
62175730912,-23.75,12.4375,-26.25
62175753418,-21,23.0625,-28.3125
62175775840,-20.1875,31.625,-30.1875
62175790809,-22.25,37.6875,-32.8125
62175813474,-29.375,42.375,-37.1875
62175835988,-39.4375,51.75,-43.625
62175852228,-48.1875,61.9375,-46.5
62175873329,-60.5625,71.1875,-50.0625
62175895796,-73.375,81.375,-53
62175910747,-74.125,91.75,-53.125
62175933281,-61.9375,102,-51.5625
62175955768,-54.0625,115.875,-52.125
62175970681,-52.25,131.438,-52.5
62175993217,-54.5,142.938,-52.375
62176015958,-60.25,149,-55.4375
62176030957,-64.1875,154.875,-59.125
62176053491,-52.75,168.75,-62.75
62176075876,-40.0625,178.812,-66.1875
62176090811,-39.375,182.062,-70.625
62176113402,-53.875,178.188,-74.5
62176135896,-67.625,177.062,-73.8125
62176150932,-73.1875,180.438,-73.625
62176173352,-71.875,178.188,-71.75
62176195865,-73,171.75,-69.5
62176212258,-69.75,165.125,-64.8125
62176233369,-58.4375,160.688,-63.4375
62176255716,-43.25,156.25,-64.1875
62176270719,-32.0625,151.25,-60.25
62176293261,-35.5625,140.375,-54.5625
62176315926,-43.8125,130.812,-46.9375
62176332181,-46.375,120.188,-42.4375
62176353348,-38.1875,107.938,-39.875
62176375801,-26.9375,96.5625,-34.9375
62176392210,-21.875,83.9375,-30.625
62176413287,-20.1875,73.8125,-26.75
62176436028,-18.4375,66.5625,-24.1875
62176452278,-18.125,54.125,-23.5625
62176481459,-15.75,41.6875,-20.625
62176495755,-14.0625,30.4375,-17.4375
62176512238,-15,19.1875,-14.0625
62176533473,-15.125,6.0625,-10.75
62176555908,-11.125,-6.3125,-7.125
62176572205,-3.75,-21.3125,-2.3125
62176593481,3.3125,-36.75,2.25
62176615820,8.5625,-50.125,5.5
62176632290,11.6875,-60.625,10.0625
62176653440,16.0625,-67.5625,15.5625
62176675788,19.8125,-75.4375,17.5
62176698482,24.125,-83.6875,15.125
62176713494,28.375,-91,14.6875
62176735968,30.3125,-99.5625,17.3125
62176752220,31.25,-107.938,21.1875
62176773387,31.1875,-117.062,23.4375
62176795787,32.375,-128.625,21.625
62176812172,34.5,-138.375,21.6875
62176833203,34.75,-148.375,24.625
62176855717,37.75,-151.125,32.75
62176872229,37.4375,-155.375,35.1875
62176893242,41,-164.5,34.625
62176915764,62,-169.312,40.5
62176932195,79.875,-169,46.25
62176953400,82.1875,-168.75,46.125
62176975826,79.75,-165.938,54.3125
62176992264,65.8125,-165.562,62.1875
62177013338,50.75,-165,62.9375
62177035737,47.875,-164.812,53.75
62177053729,62.6875,-165.75,57.0625
62177073375,75.8125,-166.812,61.1875
62177096047,75.875,-162.688,61.1875
62177112239,70.8125,-157.812,61.625
62177141510,67.5625,-154.062,64.5625
62177155993,63.6875,-151.875,67.5625
62177172223,63.125,-143.25,65.375
62177193363,65.75,-132.688,61.8125
62177216008,72.5,-127.688,60.9375
62177232205,74.5,-122.625,61.3125
62177254815,68.6875,-116.25,58
62177275801,62.8125,-106.062,50.1875
62177292182,58.8125,-88.3125,42.0625
62177314723,52.75,-73.8125,35.125
62177337245,45.5625,-58.125,29
62177359810,39.75,-43.625,22.875
62177376305,37.3125,-31.5,16.625
62177395987,34,-21.875,11.75
62177412228,27.625,-11.5,7.8125
62177434813,20.375,-3.3125,4.375
62177455971,15.5625,3.625,1.6875
62177472304,8.5625,7.75,-0.8125
62177494705,-1.375,13,-4.0625
62177515984,-10.4375,18.125,-6.9375
62177538425,-14.75,23.0625,-8.5
62177554842,-17,27.875,-10.5625
62177575837,-18.5625,32.3125,-13.1875
62177599779,-21.5625,36.6875,-16.3125
62177614781,-27.4375,40.3125,-20.9375
62177635872,-36.25,46.1875,-25.875
62177653736,-40.5625,51.0625,-30.1875
62177674715,-40.875,55.4375,-33.25
62177695790,-41.3125,60.625,-34.6875
62177712326,-41.8125,63.4375,-34.4375
62177734721,-42.9375,67.5625,-35.6875
62177756007,-43.5,75.5,-37.125
62177779820,-47.125,83.4375,-40.625
62177794829,-57.3125,90.8125,-46.625
62177815952,-63.5,100.5,-50.0625
62177838456,-68.875,108.125,-53.6875
62177854800,-77.1875,117.438,-55.625
62177875890,-82.75,129.188,-54.3125
62177892206,-80.1875,134.812,-51.875
62177916258,-71.25,140.5,-52.75
62177935898,-59.0625,145.5,-54
62177952270,-45.3125,152.375,-53.0625
62177974796,-49.375,153,-54.0625
62177995790,-64.25,151.625,-51
62178012254,-74.375,155.688,-51.1875
62178034750,-65.1875,161.562,-52
62178055838,-47.75,160.875,-50.0625
62178072299,-43.5625,155.438,-49.625
62178094791,-47.375,147.625,-45.25
62178117283,-44.6875,140.312,-42.5
62178132297,-32.4375,133.375,-44.4375
62178154804,-24.125,125.812,-43.4375
62178177205,-30.0625,118,-40.75
62178192208,-39.5,107.25,-36.9375
62178214823,-39.9375,96.9375,-32.3125
62178237329,-32.9375,88.5,-30.4375
62178252318,-25.875,79.5625,-29.3125
62178274018,-20,69,-25.875
62178296746,-15.75,57.75,-21
62178310968,-14.5,47.25,-20.4375
62178334032,-13.9375,37.0625,-21.625
62178356522,-15.3125,27.375,-21.5625
62178379159,-15.0625,18.1875,-18.625
62178394103,-14.625,11.0625,-17.8125
62178416540,-16,3.9375,-18.25
62178432288,-14.875,-1,-16.5
62178453983,-15.25,-4.625,-13.5
62178476711,-12.0625,-6.8125,-10.375
62178499171,-7,-6.75,-8.4375
62178514189,-2.625,-6.9375,-6.3125
62178536714,2.0625,-7.3125,-1.875
62178553014,6.375,-7.875,1.75
62178574143,8.5,-9.75,3.3125
62178596629,8.5625,-10.1875,6.75
62178612962,7.5,-10.0625,10.6875
62178634159,5.9375,-9.875,12.75
62178656756,5.75,-9.875,13.5
62178678997,9.9375,-10.8125,14.0625
62178694098,13.125,-12.25,15.5625
62178716718,12.625,-13.5,16.1875
62178739237,9.0625,-14.75,17.5625
62178754119,6.6875,-17.1875,19.25
62178776546,9.625,-20.125,20.875
62178792217,15.25,-23.625,23.375
62178813985,21.375,-27,25.25
62178836511,19.875,-32.75,24.625
62178858965,17.875,-44.125,29.375
62178874007,19.6875,-55.1875,34.375
62178896469,22.875,-63.3125,34.9375
62178919132,25.625,-71.625,35.4375
62178941310,28.375,-77.9375,33.4375
62178956627,29.1875,-81.25,27.8125
62178979065,31.875,-88.25,24.0625
62178994100,33.75,-96.75,25.0625
62179016583,29.8125,-107.188,25.4375
62179032269,30.25,-115.188,25.9375
62179054217,27.9375,-121.562,25.25
62179076589,28.6875,-126.312,21.8125
62179092254,37.9375,-132.625,20.3125
62179114090,45.875,-140.438,21.625
62179136663,45.75,-145.312,26.5
62179152289,40.8125,-144.25,31.5625
62179174183,39.1875,-145.125,38.8125
62179197934,45.4375,-149.438,45.5625
62179212284,58.5,-146.812,48.6875
62179234177,70.8125,-142.5,49
62179256645,79.5,-142.5,47.875
62179272357,86.625,-142.125,47.0625
62179295372,85,-139.75,45.0625
62179316517,70.3125,-132.375,41
62179332721,49.4375,-123,36.6875
62179355547,31.6875,-113.812,32.0625
62179376648,22,-106.375,28.5625
62179392225,21.5,-95.125,25.375
62179415494,29.625,-84.375,23.0625
62179436558,42.125,-74.3125,23.5
62179452346,51.5,-64.75,24.75
62179475489,55.0625,-55.75,25
62179504129,57.5625,-46.3125,25.375
62179512327,58.25,-37.125,25.125
62179535482,53.75,-31.4375,24.5
62179556540,45.9375,-25.5625,21.4375
62179572465,39.625,-21.125,18.3125
62179595546,31.625,-18.375,15.25
62179616527,20.5,-16.5625,12.0625
62179632318,8.5,-14.25,8.4375
62179655489,-0.5625,-11,4.6875
62179676586,-1.125,-7.625,2
62179692325,2,-4.5625,0.4375
62179715544,-1.3125,-1.5625,-0.625
62179737953,-9.4375,2.25,-2.1875
62179752240,-15.4375,7.0625,-4.125
62179781499,-15.25,11.25,-4.9375
62179796581,-12.1875,15.0625,-4.8125
62179812224,-11.6875,17.4375,-5.125
62179835472,-15.5625,19.375,-8.25
62179857908,-17.6875,23.3125,-9.8125
62179872238,-17.0625,26.8125,-11.25
62179895498,-20,30.25,-13.5
62179916737,-26.4375,32.5625,-15.25
62179932386,-34.4375,36.625,-18.3125
62179955564,-37.875,43.25,-19.375
62179976590,-37.4375,47.375,-19.25
62179992256,-35.75,52.3125,-20.875
62180015445,-35.125,57.6875,-24.75
62180036748,-34.125,63.625,-28
62180052350,-37.625,69.5625,-29.9375
62180074820,-46.125,77.1875,-31.5625
62180096560,-54.3125,85.125,-35.75
62180118950,-57.625,92.0625,-39.9375
62180134796,-54,96.6875,-43.4375
62180156549,-49.125,105.562,-44.6875
62180172277,-52.1875,113.625,-46.1875
62180195412,-58.0625,118.188,-48.1875
62180216555,-65.875,121.75,-49.4375
62180232384,-66.75,123.438,-46.9375
62180254783,-63,130,-46.1875
62180277982,-54.1875,136.938,-46.6875
62180299157,-49.875,138.375,-46
62180314852,-56.0625,137,-47.0625
62180337981,-53.875,137.938,-46
62180352330,-41.9375,141.875,-44.9375
62180374854,-28.5625,142.625,-44.125
62180397993,-26.75,138.312,-41.5
62180412309,-34.6875,133,-37.25
62180434754,-41,126.688,-29.875
62180457961,-38.3125,120.688,-25.25
62180472288,-28.9375,117.188,-25.5
62180494795,-21.625,107.375,-25.1875
62180517959,-15.3125,93.9375,-22.75
62180539052,-10.375,85.375,-21.5
62180554757,-10.5,80.0625,-20.9375
62180577954,-17.0625,72.6875,-19.5625
62180599079,-25.0625,61.875,-19
62180614799,-23.5,50.625,-16.5
62180637943,-15.6875,41.375,-14.375
62180658993,-9.3125,32.6875,-11.625
62180674792,-7.6875,24.125,-7.9375
62180697965,-7.6875,16.25,-5.0625
62180719015,-9.375,9.8125,-1.375
62180734786,-10.75,3.4375,1.8125
62180757958,-5.5625,1,3.5
62180778982,0.1875,-0.0625,3.5
62180794799,4.6875,-1,3.6875
62180818417,4.375,-2.1875,4.3125
62180839008,1.1875,-3.4375,3.5625
62180854773,-0.5625,-3.8125,1.375
62180877901,0.625,-3.375,0.375
62180899053,2.0625,-3,0.25
62180914802,0.75,-3.3125,0.1875
62180938007,-0.5625,-3.75,0.4375
62180959011,0.75,-4.3125,1
62180974786,3.875,-4.0625,1.875
62180997923,5,-3.4375,2.0625
62181020177,4.4375,-3.5625,2.875
62181034773,5.625,-4.75,3.125
62181057304,9.8125,-6.3125,5
62181079015,13.125,-7.125,6.125
62181094751,14.1875,-7.4375,6.875
62181117330,13.5,-11.4375,9.5625
62181139021,16.375,-15.5,11.8125
62181154818,22.75,-18.125,11.3125
62181177309,28.875,-19.25,12.375
62181200488,26,-20.375,11.625
62181214785,18.125,-22.9375,10.5625
62181237269,17.375,-27.0625,8.625
62181260468,23.125,-29.625,8.25
62181274760,27.375,-32.5625,7.375
62181297302,27.75,-36.625,7.9375
62181320519,27.3125,-42,11.125
62181334808,28.5625,-47.5,12.5625
62181357376,32.8125,-52.625,14.375
62181380472,35.4375,-60.0625,17.125
62181394796,35,-69.875,17.5625
62181417310,33.5625,-81.625,18.4375
62181441137,34.5,-95,19.8125
62181461534,29,-110.188,18.6875
62181477295,22.3125,-123.812,19.75
62181500512,18.9375,-132.75,21.375
62181521514,17.375,-139.688,18.4375
62181537261,12.5,-147.75,13.0625
62181560491,8.5625,-153.062,14.5
62181581575,3.875,-156.75,19.5
62181597316,-3.25,-160.875,22.5625
62181620481,-9.75,-159.938,18.875
62181641531,-8.5,-156.75,12.8125
62181657322,-1.25,-151.375,12.625
62181680532,9.125,-144.625,13.625
62181701578,16.875,-135.375,17
62181717329,17.1875,-123.75,18.25
62181740482,16.5,-115.438,19.875
62181762150,25.25,-109.438,23.25
62181777282,37.875,-104.5,27.0625
62181800505,44.75,-97.75,28.5
62181821567,45.5625,-88.375,29.9375
62181837313,42.8125,-80.125,30.9375
62181860471,41.875,-73.9375,31.0625
62181881592,39.875,-68.9375,29.75
62181897306,39.625,-63.375,28.125
62181920532,38.5625,-57.1875,27.125
62181941524,34,-52.6875,26.25
62181957332,27.9375,-49.9375,23.875
62181979801,26.375,-43.9375,19.75
62182001547,25.9375,-36.75,16.75
62182017327,26.1875,-29.5625,14.0625
62182039828,24.875,-23.375,11
62182061969,24.625,-17.6875,8.5
62182076548,23.9375,-12.75,6.0625
62182090873,20.875,-9.1875,4.375
62182113400,14.5,-5.375,2.3125
62182136562,10.0625,-1.75,0.625
62182150903,8.6875,1.4375,-0.4375
62182173410,7.375,3.3125,-1.0625
62182196520,4,4.5625,-1.625
62182210881,0.0625,5.4375,-2.5
62182236252,-2.0625,6.3125,-2.75
62182256540,-3.1875,6.125,-3.0625
62182270859,-4.6875,4.8125,-3.4375
62182293358,-5.6875,4.5,-4.1875
62182316554,-6.9375,3.25,-5.4375
62182330931,-8.75,3,-5.4375
62182353526,-10.4375,1.1875,-5.5
62182376540,-11.375,-0.75,-4.6875
62182390958,-11,-1.3125,-3.9375
62182413478,-12.0625,-0.875,-3.75
62182436734,-12.6875,-0.3125,-3.5
62182450967,-14.375,0.25,-4.3125
62182473417,-15.3125,1.5625,-5.25
62182496549,-17.1875,3.625,-6.6875
62182510999,-15.125,8.625,-5.9375
62182533488,-6.5625,19.3125,-2.375
62182557197,-3.5,30.125,-0.0625
62182571097,-5.0625,39.1875,-0.4375
62182593369,-4.625,48.5,-0.3125
62182616627,0.625,56.9375,0.3125
62182631064,0.4375,65.25,2.625
62182653580,-10.0625,70.625,4.625
62182676711,-24.875,75.8125,6.625
62182691066,-31.0625,81.5625,8.75
62182713610,-23.9375,87.8125,12.5
62182736733,-13.5,90.8125,16.4375
62182751085,-12.0625,91,17.3125
62182773383,-18.875,93,14.375
62182796574,-24.4375,95.75,12.75
62182810908,-28.6875,99.4375,13.375
62182833410,-36.375,105.812,15.5
62182856542,-43.6875,115.562,17.9375
62182871083,-42.6875,123.062,20.375
62182893492,-34.8125,130.062,21.875
62182916749,-18.0625,136.75,19.125
62182931075,1.875,143.688,16.0625
62182953627,13.375,148,14.9375
62182976601,10.1875,152.438,12.0625
62182991009,-5.875,155.062,7.6875
62183013383,-22.875,157.312,3.125
62183037720,-29.25,155.5,0
62183050867,-25.3125,152.062,-3.8125
62183073366,-23.125,148.062,-8.25
62183095910,-22.375,144.688,-11.125
62183110930,-23.75,135.938,-12.125
62183133609,-25.1875,126.188,-12.75
62183156077,-25.3125,116.312,-13.75
62183171058,-23.8125,104.375,-11.75
62183196334,-21.4375,92.125,-8.375
62183216101,-19.875,83.9375,-8.5
62183230876,-15.0625,75.0625,-9.3125
62183253568,-7.4375,65.0625,-8.25
62183275917,-5.6875,55.5625,-5.0625
62183291143,-8.6875,47.125,-0.8125
62183313421,-8.75,40.25,1.375
62183335836,-2.25,34.125,1.1875
62183350885,4.125,27.625,0.375
62183373629,3.375,20.625,0.3125
62183396097,-2.4375,14.25,-0.5625
62183410970,-6.8125,6.8125,-0.1875
62183433513,-8.25,1.5625,-2.125
62183455958,-6.25,-4.4375,-5.125
62183471086,-4.6875,-13.0625,-6.3125
62183493394,-7.8125,-22.1875,-7.125
62183516165,-7.5,-27.5625,-6.6875
62183530957,-4.25,-29.375,-6.25
62183553401,0.4375,-29.25,-3.6875
62183575883,3.3125,-27.375,-1
62183590905,1.3125,-24.8125,-0.6875
62183621729,1.5,-21.125,1.0625
62183636080,6.5625,-19.0625,3.875
62183651123,12.4375,-19.625,5.5
62183673574,16.75,-19.375,6.4375
62183696057,16.4375,-21.75,6.1875
62183710952,11.5,-26.4375,6.9375
62183733453,9.0625,-30.75,8.1875
62183756145,11.9375,-32.6875,10.375
62183771110,15.8125,-33.6875,12.8125
62183793419,12.75,-35.25,13.6875
62183818779,7.1875,-39.25,13.4375
62183830915,6.4375,-44.1875,14.5625
62183853431,12.5625,-50.1875,15.8125
62183875987,19.5,-56.4375,14
62183900603,20,-64.6875,8.625
62183913604,13.5625,-73.4375,7.5
62183936125,5.25,-78.3125,9
62183952440,-0.8125,-79.5625,11.125
62183973609,-2.875,-80.0625,10.125
62183995996,-2.125,-82.625,7.3125
62184012413,8.625,-85.75,11.3125
62184033612,22.0625,-90.625,17.5625
62184057327,27.6875,-98,21.625
62184072344,30.9375,-100.812,22.125
62184093396,36.5625,-99,20.625
62184116111,45.0625,-100.688,15.875
62184132434,45.125,-104.25,11
62184153612,33.625,-107.438,6.8125
62184175971,17.75,-107.188,12.125
62184192403,0.0625,-108.125,12.4375
62184213564,-20.875,-111.688,7.9375
62184236197,-26.0625,-111.5,7.5
62184252479,-4.9375,-101.75,14.9375
62184273360,23.9375,-92.625,23
62184297384,46.9375,-87.25,25.375
62184312307,57.1875,-79.8125,26.4375
62184333424,63.375,-73,27.3125
62184355874,65.125,-69.0625,26.75
62184378581,60.8125,-68.75,23.25
62184393429,48.6875,-71.5625,17.375
62184416133,31.8125,-75.375,9.75
62184433888,15,-78.75,3.5625
62184453472,-2.25,-81.625,-1.375
62184476002,-19.6875,-84.3125,-3.8125
62184492390,-27.75,-79.5625,-2
62184513455,-25.125,-72.375,-0.25
62184535932,-15.5625,-67.375,-1
62184552360,0,-62.25,-0.1875
62184573416,19.8125,-56.25,2.0625
62184595977,31.1875,-52.0625,3.3125
62184612342,27.25,-46.125,2.625
62184633672,15.1875,-41.75,0.3125
62184656153,6.375,-38.125,-0.875
62184673887,3.3125,-34.375,0.3125
62184693509,6.6875,-27.5625,2.75
62184716150,13.9375,-19.3125,6.375
62184732395,21.5625,-12.875,8.625
62184753633,22,-8,9.75
62184775962,15.625,-2.6875,8.3125
62184792406,7.4375,3.8125,5
62184816295,4.4375,11.625,3
62184835927,4.875,17.5625,1.125
62184852382,5.8125,21.1875,-0.375
62184881850,2.25,22.6875,-2.3125
62184896116,-5.9375,23.875,-4.25
62184912425,-10.5625,24.625,-5.875
62184934944,-11.5,23.1875,-6
62184956141,-10.25,20.1875,-6.5
62184972461,-11.75,17.0625,-7.6875
62184994888,-15.4375,14.6875,-8.9375
62185016134,-16.25,12.75,-9.875
62185032428,-15.3125,10.375,-10.8125
62185054856,-14.625,10.5,-14.125
62185075886,-12.375,12.125,-14.375
62185093828,-9.875,13.3125,-15.0625
62185114853,-6.125,16.1875,-13.75
62185136191,-7.125,18.8125,-13.875
62185152416,-10.9375,20.625,-15.8125
62185174856,-15.6875,22.625,-16
62185196240,-19.8125,25.8125,-15.625
62185212419,-26.4375,30.1875,-14.75
62185235032,-33.125,34.75,-14
62185255990,-40.875,39.4375,-15.625
62185272467,-42.0625,46.125,-14.125
62185294980,-40.25,55.75,-11.3125
62185316146,-40.375,65.5,-8.3125
62185332479,-42.625,76.5,-3.625
62185354869,-40.625,82.125,-2.0625
62185375939,-36.3125,87.5,1.375
62185392419,-32.375,90.9375,0.5
62185414873,-34.3125,96.375,1.3125
62185436108,-35.875,102.875,1.6875
62185452488,-32.9375,109.125,3.875
62185475061,-29.8125,116.938,4.75
62185495955,-24.375,126.25,7.125
62185512424,-19.5625,135.875,7.875
62185534940,-17.8125,138.188,7.25
62185564181,-19.875,137.75,5.9375
62185572525,-17.875,139.812,3.0625
62185594930,-10.8125,143.625,-0.6875
62185615961,-9.1875,146.188,-3.625
62185632328,-14.875,144.562,-3.625
62185654915,-22.6875,140.312,-4.5625
62185675945,-25.6875,134.938,-7.25
62185692492,-26,127.5,-11.5625
62185716354,-27.25,115.938,-14.0625
62185735949,-30.75,103.5,-14.8125
62185752383,-31.75,91.5,-15.625
62185774955,-30.5625,82.9375,-19.875
62185797421,-28.5,72.0625,-25.125
62185812397,-26.75,61.8125,-27.75
62185834885,-27.375,53.0625,-28
62185857460,-22.5,44.0625,-29.375
62185871114,-17.75,38.0625,-33.75
62185894117,-13,30.75,-36.8125
62185916785,-11.9375,25.4375,-36.75
62185940564,-11.5625,21.6875,-34.3125
62185954529,-10.6875,17.0625,-32.375
62185976610,-9.5,15.5625,-31.9375
62185999225,-8.875,14.375,-32.8125
62186014096,-5.5,12,-31.625
62186036863,2.8125,10.3125,-29.75
62186059197,8.5625,10.3125,-27.5
62186074309,7.9375,10.0625,-25.4375
62186096715,1.875,9.25,-23.0625
62186119304,-2.875,6.5625,-21.1875
62186134216,1.5,5.3125,-16.75
62186156821,10.25,2.8125,-13.4375
62186179313,12.375,0.8125,-12.9375
62186194172,10,0.3125,-10.9375
62186216604,8.375,-1.9375,-5.6875
62186233055,7.8125,-6.1875,-2.1875
62186254119,9.6875,-7.25,0.125
62186276648,11,-6.8125,1.3125
62186299184,9.5625,-7.625,2.4375
62186314273,8.0625,-8.6875,4
62186336733,8.8125,-10.5,3.8125
62186353114,11.75,-13.8125,4.0625
62186375552,16.8125,-17.8125,4.5
62186398052,17.25,-18.4375,6.0625
62186419387,17.5,-20.9375,8.4375
62186434322,20.9375,-25.6875,14
62186456879,31.1875,-31.5625,17.4375
62186480565,47.3125,-39.3125,19.25
62186494091,54.125,-49.125,16.125
62186516620,48.625,-63.125,11.125
62186539096,36.875,-75.625,12.3125
62186554103,28.5625,-89.4375,11.875
62186576614,28.125,-103.75,8.6875
62186599174,34.375,-116.562,7.9375
62186614302,45.3125,-124.562,13.25
62186636827,51.8125,-131.938,20
62186659120,52.8125,-140.562,22.125
62186674384,50,-144.375,23.3125
62186696814,48.6875,-140.062,26.1875
62186712536,44.5625,-138.688,33.125
62186734351,39.125,-145.125,37.875
62186756605,41.4375,-152.75,37.0625
62186772522,56.0625,-155.438,35.125
62186794104,73.8125,-155.812,33.625
62186816670,69.6875,-152.438,33.9375
62186832473,48.8125,-145.438,37.125
62186854386,29.75,-142.125,39.75
62186876687,21.25,-141.625,41
62186892444,32.25,-140.188,41
62186915598,46.9375,-133.375,36.4375
62186936658,56.9375,-128.375,35.875
62186952878,58.375,-122.875,39.125
62186975592,49.5625,-116.75,39.125
62186996718,39.5625,-109.188,37.6875
62187012517,40.625,-101.375,36.0625
62187035616,50.125,-91.1875,33.8125
62187056624,58.9375,-75.8125,31.625
62187072372,63.5,-60.25,27.9375
62187095591,70.0625,-44.0625,24.8125
62187116701,74.875,-29.875,20.5625
62187132480,79.75,-17.6875,16.375
62187155640,77.6875,-8.25,11.6875
62187176614,65.3125,-2.125,6.375
62187192545,48.4375,1.1875,2.0625
62187215567,33.25,2.0625,-0.875
62187236743,22.4375,3.375,-3.3125
62187252545,12.625,3.1875,-5
62187275583,2.25,4.75,-6.3125
62187296638,-4.0625,6.5625,-7.0625
62187312397,-3.6875,9.25,-6.5
62187335557,-0.75,11.9375,-6.3125
62187356660,-0.125,15.125,-6.5625
62187372939,-1.6875,16.5,-6.75
62187395693,-2.375,19.125,-6.6875
62187416757,-2.875,20.9375,-6.75
62187432555,-1.125,21.3125,-6.6875
62187455669,1.5,20.3125,-6.3125
62187476661,1.0625,18.0625,-6.125
62187506625,-3.1875,15.375,-7.125
62187514945,-7.375,13.125,-7.6875
62187536639,-8.9375,11.625,-7.625
62187552476,-11.3125,9.4375,-8.3125
62187575614,-13.5,8,-10.8125
62187596637,-13.875,11,-12.4375
62187612573,-10.3125,14.3125,-13.125
62187635024,-10.3125,19.875,-15.8125
62187656848,-15.125,24.4375,-18.5
62187672524,-21.625,30.125,-20
62187694961,-29.375,36.4375,-24.1875
62187716837,-34,47.25,-32
62187732512,-35.5625,62.6875,-38.75
62187754962,-36.25,75.625,-41.1875
62187784214,-43.25,89.5,-48.5625
62187792412,-52.5625,105.312,-55.875
62187815076,-51.4375,118.688,-60.125
62187838225,-50.0625,127.5,-62
62187852569,-51.6875,131.938,-64.875
62187881844,-56.25,139.125,-68.375
62187898148,-61.75,146.812,-72.0625
62187912470,-71.1875,151.562,-73.3125
62187934983,-81.9375,155.062,-69.125
62187958600,-87.625,156.188,-64.375
62187972497,-80.875,159.312,-64.9375
62187997273,-70.4375,158.938,-61.5
62188018055,-64.375,156.75,-56.75
62188032472,-60,151.812,-49.25
62188054921,-46.8125,145.125,-46.6875
62188078080,-29.75,139.688,-45.1875
62188099251,-21.75,134.188,-42.1875
62188115006,-31.6875,122.125,-38.75
62188138575,-38.375,110.188,-34.4375
62188159286,-33.4375,99.4375,-32.8125
62188174973,-22.1875,88.6875,-29.3125
62188198113,-18,76.9375,-24.9375
62188219358,-19.0625,62.1875,-18.375
62188235000,-15.625,50.3125,-14.5
62188258099,-9.125,41.25,-13.625
62188279175,-3.0625,31.75,-11.5625
62188294911,-1.75,19.875,-7.1875
62188318079,-4.25,11.5,-7.75
62188339302,-3.875,9.75,-12.8125
62188354998,-0.5,7.6875,-16.9375
62188378097,-0.125,2.375,-16.3125
62188399352,-4.875,-3.625,-17.8125
62188415000,-4.625,-4.625,-22.4375
62188438186,-0.9375,-3.6875,-25.875
62188459245,-1.0625,-6.1875,-23.625
62188475020,-8.0625,-9.4375,-21.375
62188498163,-13.25,-11.4375,-19.9375
62188519178,-12.125,-9.625,-19.1875
62188534934,-7.5625,-7,-16.5
62188558076,-5.75,-4.5,-13.3125
62188579344,-5.625,-2.25,-9.6875
62188594985,-3.4375,-0.0625,-7.375
62188618012,0.3125,0.8125,-6.625
62188639432,1.75,0.8125,-2.5
62188655029,0.875,-0.0625,-1.25
62188677580,1.5625,0.3125,-1.25
62188699408,3.875,0.3125,-1.375
62188715071,5.0625,-3.3125,-0.1875
62188737476,2.25,-5.6875,-0.5625
62188760642,0.25,-5.875,-2.9375
62188774940,-0.375,-4.5,-3.625
62188797469,-3.8125,-3.9375,-4.125
62188820660,-5.25,-5.625,-3.9375
62188835018,-0.9375,-7.375,-4
62188857498,3.0625,-4.9375,-2.5625
62188880599,2.4375,-1.5,-3.25
62188895469,-1.3125,-0.5,-1.0625
62188917556,-3.5,-1.4375,-0.5
62188940650,-0.5625,-2,-0.6875
62188955022,3.75,-1.0625,-1.125
62188977535,4.25,-0.625,-0.3125
62189000689,-2.125,-0.125,1.3125
62189014980,-5.125,-0.625,1.8125
62189044209,-1.375,-1.5,2.6875
62189060639,1.5625,-2.1875,3.625
62189075033,1.5,-4.0625,4.625
62189097577,-0.625,-5.0625,4.75
62189128109,-2.4375,-3.5625,7.5
62189134949,-14.125,-1.375,6.0625
62189157474,-20.75,-1,1.625
62189180593,-10.5,-3.5625,5.0625
62189201649,-6.5625,-1.875,6.0625
62189217550,-9.5625,-5.125,0.6875
62189240696,-6.125,-4,1.1875
62189261819,-4,-2.8125,3.625
62189277514,-15.0625,-3.0625,4.5625
62189300691,-11.8125,-0.5625,3.125
62189323165,-1.1875,-3.75,1.25
62189337598,3.875,-0.4375,6.0625
62189360657,-4.0625,-3.5625,5.0625
62189381864,-7.75,-5,1.8125
62189397547,-3.0625,-3.625,1.3125
62189420652,-1.9375,-4.875,0.5625
62189449216,0.375,-10.25,0.75
62189457494,2.0625,-10.0625,3.875
62189480624,2.125,-4.3125,4.75
62189501812,7,1.4375,8.5
62189518082,-3.75,-0.5,7.4375
62189546700,-10.9375,0,6
62189561483,-5.125,-0.625,8
62189577482,25.125,5,6.375
62189599968,20.625,6,12.0625
62189621768,0.375,3.25,6.0625
62189637633,-4.75,-1.4375,6.75
62189659973,-6.0625,-4.875,4.8125
62189689217,-5.1875,-3.8125,2.5
62189696432,-0.875,-0.4375,2.875
62189711032,-0.0625,2.9375,3.75
62189733553,-2,3.375,1.4375
62189756715,8.4375,3.1875,-2.625
62189771011,21.875,1.8125,-5.3125
62189793636,22,2.9375,1.0625
62189816913,3.5625,5.25,-3.25
62189839293,-10.8125,-1.375,0.9375
62189853815,-12.875,-1.1875,2.3125
62189876794,1.1875,-1.4375,14.625
62189891228,16.125,2.6875,0.875
62189913731,13.4375,-0.1875,2.3125
62189936898,5.625,-0.25,3.375
62189951249,-3.9375,-2.0625,2.125
62189973833,-12.5,-3.625,4.5625
62189996927,-10.75,-5.9375,3.3125
62190011086,5.3125,-3.0625,-6.75
62190033710,11.8125,-4.0625,-1.875
62190056855,7.0625,-5.9375,-0.5625
62190071216,-0.3125,-4,-0.6875
62190093568,-4.6875,-3.5625,-1.6875
62190116861,-1.75,-3.375,-1.875
62190131206,2.5,-2.8125,-1.8125
62190153740,2.375,-1.75,-1.4375
62190176716,-1.0625,-1.1875,-1
62190191243,-2.75,-1,0
62190213731,-1.5,-1.25,1.0625
62190236766,-0.8125,-1.9375,0.8125
62190251277,0.375,-1.6875,1.4375
62190273771,0.9375,-1,1.625
62190296771,1.5625,-0.875,1.5625
62190311099,0.5,-1,1.8125
62190333634,-1.1875,-1.3125,-0.3125
62190356863,-2.9375,-0.125,-0.3125
62190371075,-1.5,0.5625,0
62190393602,-0.0625,-0.0625,-0.0625
62190425090,-0.5,-1.4375,0.5
62190431108,-1.1875,-1.875,-0.125
62190453695,-0.4375,-1,-0.1875
62190476711,-0.8125,-0.625,0.375
62190491255,-0.9375,-0.875,0.1875
62190513647,0.6875,-1.3125,0.5
62190536814,1.5,-1.5625,0.5625
62190551068,1.1875,-0.8125,0.4375
62190573748,-0.25,-0.5,0.75
62190596911,0.6875,-0.5,0.625
62190611076,2.4375,-1,-0.375
62190635017,1.375,-1,-1.0625
62190656256,0.75,-0.8125,-1.0625
62190671371,-0.5,-1,-0.625
62190693573,0.25,-1,-0.8125
62190716168,2.5,-1,-0.6875
62190731144,2.375,-1.25,-1.125
62190753746,0.0625,-1.375,-1.625
62190776157,-2,-1.375,-1.25
62190791312,-0.875,-1.25,-1.0625
62190813712,0.6875,-1.3125,-0.9375
62190837550,1,-1,-0.6875
62190852617,0.3125,-0.375,-0.75
62190873768,-0.375,-0.25,-0.75
62190896289,-1.25,-0.4375,-0.5
62190911131,25.375,-10.4375,1.6875
62190933726,14,-2.625,-0.3125
62190956080,9.375,-1.75,0.8125
62190971102,-1.1875,-2.6875,0.1875
62190993586,-3,-2,-0.0625
62191016244,0.375,-1.8125,0.375
62191031238,-0.875,0.0625,-1.5
62191053585,-7,3.375,0.875
62191076167,-18,3.25,-0.625
62191091276,-13.125,1.1875,0.625
62191113641,1.4375,0.375,-2.5
62191136220,8.0625,0.1875,-1
62191151294,2.25,-0.5625,-0.0625
62191173723,-4,-0.8125,0.625
62191196286,-2.125,-1.4375,0.6875
62191219430,0.875,-1.875,0.8125
62191233652,2.125,-1.625,0.125
62191256278,2,-1,-0.0625
62191271192,0.625,-0.5,0.3125
62191293623,-0.375,-0.75,0
62191316188,0.875,-1,-0.375
62191331103,2,-1,-1
62191353782,0.8125,-0.875,-0.75
62191376124,-0.9375,-0.75,-0.5
62191391281,-1.5,-1.6875,-0.6875
62191413620,-0.3125,-1.8125,-0.6875
62191436311,0.125,-1.125,-0.625
62191452630,-0.4375,-0.25,0
62191473724,-1.25,0.4375,0.3125
62191496232,-0.375,0.3125,0.0625
62191512534,-0.125,-0.375,0.625
62191533744,-0.1875,-0.6875,0.5625
62191556095,-0.4375,-0.4375,0.375
62191572608,0.3125,0.1875,0.375
62191593585,0.8125,-0.0625,0.5625
62191616114,1.25,-0.8125,0.6875
62191632512,1.0625,-1.75,0.9375
62191653771,0.75,-1.8125,1
62191676271,1.125,-1.1875,0.5625
62191692510,1.3125,-0.5625,-0.0625
62191713694,1.3125,-0.25,0
62191736251,-0.0625,-0.75,0.0625
62191752605,0.1875,-0.9375,0.6875
62191773763,0.8125,-1,0.8125
62191804364,1.3125,-1,0.1875
62191812550,0.5625,-0.8125,0.3125
62191833540,0.25,-0.875,0.4375
62191856044,0.25,-1.75,0
62191872549,0.3125,-2,-0.4375
62191893589,0.5,-1.375,-1
62191916050,-0.5625,-1.0625,-1.1875
62191938868,-1.5625,-1.0625,-1.1875
62191953714,-1.375,-1.625,-1.375
62191976172,-0.1875,-1.6875,-1.375
62191992581,-0.5625,-1.3125,-1.125
62192013603,-1.5625,-1.5,-0.625
62192036088,-0.375,-1.6875,-0.5
62192052621,0.375,-2.0625,-0.5625
62192073743,-0.0625,-2.8125,-0.8125
62192096270,-0.625,-2.625,-0.875
62192112511,-2.0625,-1.75,-1.125
62192135095,-2,-1,-0.6875
62192156274,-1.1875,-1.1875,-0.375
62192172640,0.0625,-1.75,-0.4375
62192193551,0.125,-1.5625,-0.6875
62192216139,16.6875,2.6875,1.5
62192232555,8.3125,-4.125,-2.8125
62192256477,-7.3125,-1.1875,1.9375
62192285758,-8.5625,-0.3125,-0.4375
62192292535,-6.6875,0.375,-0.25
62192313783,-4.75,-0.3125,-1.875
62192336140,-0.75,1,-1.1875
62192354047,-0.6875,-0.125,-0.625
62192373761,-1.5625,0.1875,0.3125
62192404419,-0.8125,0.625,0.4375
62192412592,0.125,1,0.625
62192435134,-0.4375,1.1875,0.875
62192456132,-1.375,1.0625,0.6875
62192472614,-0.9375,1.75,0
62192496507,-0.0625,1.9375,-0.4375
62192516304,-1.375,1.1875,-0.625
62192532583,-2.3125,0.9375,-0.3125
62192555121,-0.5625,0.4375,-0.3125
62192584440,0.9375,0.375,-0.125
62192592579,0.1875,0.625,-0.5
62192615095,-4.125,4.8125,-1.875
62192644318,1.4375,0.625,-1.5625
62192652559,-0.625,0.25,-0.375
62192675064,-1.6875,0,-0.75
62192697525,-0.25,-0.0625,-0.375
62192718623,0.25,0.4375,-1.125
62192735068,-6.5,2.0625,-1.625
62192756365,-3.9375,1,0.25
62192772614,6.5,0.1875,-0.9375
62192801140,5.75,0.6875,-1.875
62192816183,-1,0.75,-0.4375
62192832566,-3.375,0.75,0.625
62192861096,-0.1875,0.0625,0.5
62192876099,1.4375,-0.5625,-0.375
62192898613,1.0625,-0.75,0
62192915069,-1.6875,-0.625,0.625
62192936163,-2.25,-0.5625,0.75
62192952551,0.25,-1.1875,0.75
62192975055,1.4375,-1.6875,0.625
62192996271,0.5,-2.1875,0.75
62193012606,-0.6875,-2.1875,0.875
62193035086,-0.0625,-1.1875,0.375
62193056306,0.9375,-0.625,0.3125
62193072637,0.625,-0.0625,0.4375
62193102562,-0.625,-0.0625,0.0625
62193124491,0.0625,-0.75,0.5625
62193132505,-0.125,-0.5625,-0.125
62193155123,-0.625,-0.0625,-0.1875
62193176311,-1,-0.1875,0.125
62193192571,-1.1875,-0.75,0.375
62193222565,0.1875,-1.8125,0.9375
62193236291,2.375,-1.9375,-0.9375
62193252618,13,-1.875,1.0625
62193275189,3.25,-1.6875,0.8125
62193296109,-2.6875,-0.6875,0.6875
62193312550,-16.9375,1.375,-2.375
62193335058,-8.75,0.4375,-1.125
62193357524,-1.375,0,-2.1875
62193378648,3.375,0.5,-1.125
62193395117,2,0.25,-0.625
62193417704,-0.3125,0.6875,0.5
62193432568,-0.8125,0.25,0.625
62193455131,-1.8125,0.875,0.1875
62193486537,-0.5625,1.3125,-0.875
62193493276,1.9375,1.625,-0.6875
62193514746,0.5,1.625,0.5625
62193536980,-2.3125,1,0.25
62193553336,-9.875,2.1875,-4.1875
62193574384,4.8125,-1.4375,0.0625
62193596834,-3.8125,-2.4375,1.4375
62193613211,-4.375,-1.3125,0.125
62193634315,1.75,-1.5625,1
62193656799,2.75,-1.25,-0.75
62193673255,-7.6875,-0.125,-1.25
62193694330,-9.875,1,1.8125
62193717018,-1.375,0.3125,0.6875
62193733286,3.75,0.125,-0.6875
62193754464,8.5,1.5,2.8125
62193776820,11.375,-0.0625,-0.125
62193793234,2.75,0.0625,0.375
62193814481,-4.125,1.1875,1.375
62193836838,-1.5,0.125,1.875
62193853321,2.75,-0.625,1.6875
62193874483,2.5625,-0.4375,0.625
62193896918,1.25,0.25,0.4375
62193913263,-2,0,0.875
62193934487,-2.5,-0.75,0.0625
62193956853,0.875,-0.875,-0.5
62193973277,2.625,-0.125,0.0625
62193995765,1.25,0.125,0.6875
62194017037,-0.125,-0.1875,1.125
62194033291,1.0625,-0.75,0.875
62194054494,10.75,0.3125,1.5
62194076803,5.9375,-3.625,-0.875
62194093216,-3.6875,-2.9375,-0.375
62194114488,-3.6875,-0.8125,-0.625
62194144350,0.875,1.625,0.875
62194153243,1.375,0.625,-0.75
62194174484,0.375,0.75,-0.3125
62194196925,-4.0625,0.75,-1.8125
62194213220,-5.875,1.1875,0
62194234456,2.1875,1.25,1.875
62194256794,9.625,-0.1875,0.0625
62194272534,5.25,0.125,-0.1875
62194294253,-1.8125,1.1875,1.1875
62194316786,-3.4375,0.75,1.9375
62194332609,0.0625,0.6875,0.75
62194354295,3.625,0.625,-0.625
62194376799,2.0625,0.3125,-0.3125
62194392566,-1.4375,-0.125,0.625
62194414330,-1.375,-0.8125,0.9375
62194436742,2.75,-0.5,0
62194452677,4.1875,-0.375,0.125
62194475760,1.3125,-0.3125,0.625
62194498308,-1,-0.5,0.375
62194512621,0.875,-0.3125,0.5625
62194535770,3,-0.5625,0.4375
62194558293,1.25,-1,1.125
62194572567,-0.5625,-0.5,0.9375
62194595744,0.5,0.0625,0.875
62194616975,2.0625,0.375,1.1875
62194632637,1.125,0.375,0.8125
62194655847,0.625,0.0625,0.75
62194676894,1.25,0.375,0.4375
62194692631,0.75,0.0625,0.5
62194723253,0.125,0.0625,0.3125
62194736784,0.5625,-0.1875,-0.0625
62194752528,2.3125,-0.6875,0.25
62194783229,1.25,-0.625,0.0625
62194797195,-0.5,-0.5,0.0625
62194812606,-0.125,-0.875,0.3125
62194835790,0.9375,-1.25,0.75
62194856849,0.8125,-1.5625,0.875
62194872587,0.5,-1.0625,0.8125
62194895730,0.4375,-0.5,0.5
62194917044,0.375,-0.4375,0.25
62194932647,0.5625,-0.3125,0.3125
62194955767,1.0625,-0.25,0.4375
62194976901,1.875,-0.25,0.1875
62194992701,1,-0.1875,0.25
62195015808,-0.0625,-0.375,-0.25
62195037010,0.5625,-0.3125,-0.6875
62195052667,1.1875,-0.125,-0.4375
62195075806,0.9375,0,-0.1875
62195096813,0.3125,0.25,0.0625
62195112641,0.5625,-0.25,0.75
62195135778,0.625,-0.5625,0.625
62195157004,0.0625,-1.0625,0.4375
62195172614,0.0625,-0.6875,-0.25
62195195760,0.5,-0.3125,-0.1875
62195217076,0.0625,-0.625,0.0625
62195232687,-0.6875,-1.375,0.625
62195263676,0.25,-1.375,0.4375
62195279684,1.625,-0.625,0.1875
62195292624,1.375,0,0.25
62195315093,0.1875,-0.3125,0.5625
62195336826,0.125,-0.5625,0
62195352605,1,-0.625,-0.125
62195375812,0.3125,-0.5,0.0625
62195398265,-0.8125,-0.0625,-0.1875
62195412598,-0.5,0,0.1875
62195435102,0.6875,-0.1875,0.1875
62195458275,0.625,-0.5,0.5625
62195472565,-1.0625,-0.25,-0.0625
62195495110,-0.75,-0.375,-0.125
62195518289,-1.1875,0.6875,-0.4375
62195532608,9.5,-0.5,0.9375
62195555080,7.25,-2.125,-0.0625
62195585810,5.875,-2.3125,-0.8125
62195592555,3.9375,-1.875,-0.5
62195615056,0.25,-1.125,-0.5625
62195638262,3.4375,-0.5,-0.125
62195652632,4.375,-1.125,-0.4375
62195675079,3.25,-0.6875,0.5625
62195698252,4.5625,-1.75,-0.0625
62195719317,5.1875,-1,-0.5
62195735069,3.1875,-0.625,-0.6875
62195758228,0.75,0.125,0
62195772597,-1.75,0.5625,0.4375
62195795122,-3.4375,1.875,0.875
62195818249,-7.0625,1.5,-0.5
62195833069,-17.875,2.5625,-1.125
62195855096,-16.5,0.8125,1.5625
62195885770,-4.6875,0.5,0.8125
62195899371,7.3125,1.9375,-0.0625
62195915136,4.5625,2,0.8125
62195938256,-2.75,1.5,2.375
62195959359,-3.9375,-0.0625,2.6875
62195975077,-0.5625,-0.5,1.25
62195998229,2.25,-0.0625,0.0625
62196019319,0.625,0.9375,0.1875
62196035162,-1.8125,1,0.6875
62196058280,-0.6875,0.125,0.75
62196079742,1.5625,-0.1875,0.1875
62196095116,2.25,0,0.4375
62196118287,-0.625,0.3125,0.5625
62196139341,-1.3125,0.125,0.5625
62196155074,0.875,-0.25,0.375
62196177583,1.4375,-0.6875,0.6875
62196199348,0.1875,0.125,0.5
62196221827,-0.125,0.9375,0.0625
62196237580,1.0625,1.25,0.1875
62196259330,0.9375,0.4375,0.25
62196283331,0.25,0,0
62196304364,0.5,0.125,-0.3125
62196319354,0.75,0.6875,-0.0625
62196335132,-0.0625,1.0625,0.0625
62196357608,0.125,0.6875,0.25
62196388223,1,0,0
62196395090,1.25,-0.3125,0.25
62196417641,-1.25,0.0625,-0.4375
62196448254,-1.625,0.75,-0.6875
62196455100,0.75,0.6875,-0.375
62196485733,1.3125,0.8125,-0.25
62196500764,0.9375,0.5,0.125
62196515143,0.5,0.0625,0.25
62196537628,0.1875,0,0.0625
62196560763,0.25,0.0625,-0.25
62196575093,0.25,0.125,-0.25
62196597612,0.75,-0.1875,-0.0625
62196620739,0,-0.5625,-0.125
62196635125,-0.25,-0.4375,-0.25
62196657637,0.25,-0.0625,-0.125
62196680756,0.125,-0.5625,0
62196695107,-1,-0.75,0.0625
62196717604,-0.8125,-0.1875,-0.0625
62196746843,0.25,0.3125,0.1875
62196755102,0.25,1.1875,0.25
62196777585,0.125,0.625,0.5625
62196800785,0.625,-0.25,0.9375
62196821852,0.875,-0.5,0.4375
62196844351,0.5,-0.3125,-0.3125
62196860802,-0.25,0.25,-0.6875
62196881845,-0.5,-0.25,-0.5625
62196897602,0.375,-1.3125,-0.4375
62196920753,0.625,-1,-0.625
62196941863,0.875,-0.75,-0.5625
62196964372,1,-0.625,-0.6875
62196980781,1.0625,-1.6875,-0.125
62197002555,1,-2.0625,-0.5625
62197017602,1.875,-1.3125,-0.9375
62197040779,1.8125,-0.5,-0.6875
62197061883,0.5,0.0625,-0.9375
62197077639,0.5,-0.4375,-1.25
62197100812,1.3125,-0.875,-2.25
62197121872,1.0625,-0.125,-2.375
62197137616,-0.375,0.6875,-2
62197160094,-0.75,0.875,-2.3125
62197181832,0.5,-0.0625,-2
62197204328,3.8125,-2.125,-1.25
62197220117,4.5625,-2.4375,-0.4375
62197241795,5.1875,-3.625,-1.75
62197257743,2.8125,-3.5,-1.25
62197280221,0.5,-4.5625,-1.875
62197310268,1.875,-7.8125,-0.625
62197317023,3.625,-9,-0.3125
62197355884,3.875,-7.9375,-2.1875
62197358129,4.5,-6.3125,-1.75
62197376868,4.3125,-5.5625,-2.5
62197391425,6.6875,-6.875,-1.6875
62197413811,8.8125,-7.375,-2.4375
62197445056,12.3125,-7.0625,-3.875
62197451404,15.4375,-7.0625,-4.8125
62197475227,14.75,-12.5,-5.125
62197496924,15.0625,-20.9375,-10.125
62197519537,18.125,-27.5,-16.125
62197533898,17.5,-29.8125,-19.5
62197557011,5.75,-28,-24.625
62197571390,-8.5625,-31.125,-25.1875
62197593739,-11.0625,-35.6875,-23.3125
62197617009,-2.1875,-34.125,-26.875
62197632744,10.3125,-30.5,-27.875
62197653804,13.5625,-25.0625,-27.9375
62197677068,9.25,-24.4375,-27.125
62197691428,13.5,-27.5625,-26.0625
62197713905,22.4375,-27.6875,-29.5
62197737084,29.875,-25.8125,-32.25
62197751420,28.3125,-23.4375,-34.875
62197775215,17.25,-25.5,-37.0625
62197796907,9.6875,-30.0625,-39
62197820111,7.8125,-32.125,-42.3125
62197833954,8.0625,-32.25,-43.125
62197857109,1.1875,-31.4375,-44.25
62197871417,-6.6875,-31.9375,-44.9375
62197895156,-7.25,-37.6875,-42.1875
62197917069,-3.0625,-39.6875,-41.5
62197931386,-0.125,-38.25,-41.4375
62197962703,-1.875,-34.9375,-39.5
62197976909,-10.25,-31.8125,-39.125
62197991325,-14.375,-32.25,-39.125
62198013798,-9.25,-34.25,-34.3125
62198036971,-5.375,-34.3125,-32.125
62198051378,-4,-31.8125,-30.4375
62198073945,-5.5625,-29.875,-28.375
62198097016,-3.8125,-31.0625,-23.1875
62198111257,0.875,-30.4375,-20.75
62198133753,4,-27.0625,-19.8125
62198156899,1.0625,-22.4375,-17.25
62198171216,-8.9375,-18.75,-16.625
62198193813,-9.4375,-16.6875,-16.0625
62198216373,-3.25,-16.75,-15.1875
62198231319,0.5625,-17.125,-14.75
62198253945,-0.3125,-17.5625,-12.1875
62198276402,-1.6875,-19.75,-10.875
62198291432,1.5,-24,-7.25
62198313805,3.0625,-24.875,-5.25
62198336302,1.1875,-23.0625,-3
62198352762,2.5,-21.1875,0.25
62198373885,4.4375,-17.5,1.75
62198396274,9.625,-14.1875,4.1875
62198411253,16.375,-10.375,6.4375
62198433847,16.8125,-9.8125,8.75
62198456490,14.5,-9.25,10.1875
62198471457,11.0625,-7.125,10.5625
62198493761,9.8125,-6.25,12.4375
62198516371,7.3125,-5.25,13.625
62198531400,5.8125,-4.8125,13.6875
62198553854,6.25,-4.375,13.0625
62198576355,8.25,-3.6875,12.125
62198591420,7.8125,-3.0625,12
62198613926,4.875,-4.1875,12.125
62198636253,2.4375,-6.875,12.125
62198652664,2.6875,-10.5625,11.625
62198673932,3.8125,-14,10.3125
62198696289,4.375,-17.1875,9.4375
62198711277,3.125,-19.125,8.5625
62198733869,0.6875,-20.3125,8.125
62198756533,-1.5,-21.5625,7.75
62198771378,-1.0625,-21.25,7.5625
62198793826,1.75,-20.375,7.4375
62198816399,5.5,-19.9375,7.6875
62198831370,7.0625,-18.75,7.625
62198853939,4.5625,-17,7.1875
62198876366,-0.1875,-15.5625,5.8125
62198891242,-3.125,-15.3125,4.5
62198913811,-3,-13.5625,2.25
62198936356,-1.6875,-12,-1.125
62198951424,-1.6875,-11,-3.625
62198973830,-6.875,-11.375,-6.3125
62198996334,-11.0625,-11.5625,-9.125
62199012776,-12.75,-13.0625,-13.75
62199033915,-16.125,-14.5625,-15.0625
62199056435,-20.5625,-16.1875,-13.8125
62199072676,-21.5,-18.625,-12.0625
62199093801,-23.75,-18.375,-15.75
62199116420,-22.125,-20.0625,-19.125
62199132718,-16.6875,-24.9375,-21.5625
62199153960,-14.6875,-26.125,-21.625
62199176502,-14.3125,-25.375,-19.1875
62199192726,-16.625,-24.875,-18.125
62199213906,-15.9375,-26.9375,-20.1875
62199236290,-14.125,-27.4375,-19.75
62199252749,-18.0625,-28,-20.8125
62199273863,-25.875,-27.0625,-22.0625
62199296400,-27.875,-21.6875,-19.625
62199312666,-23.5,-15.3125,-23.9375
62199333776,-14.8125,-12.25,-26.8125
62199356405,-17.9375,-8.1875,-28.6875
62199372683,-25,-4.1875,-28.125
62199393754,-31.1875,-1.125,-27.25
62199416239,-28.25,2.1875,-26
62199440148,-23.8125,5.625,-23.0625
62199461958,-21.875,8.25,-19
62199476512,-19.5,8.6875,-15.125
62199492742,-16.375,8.3125,-11.4375
62199513940,-15.25,7.3125,-9.875
62199536409,-13.6875,6.8125,-7.375
62199552701,-12.5625,7.25,-5.0625
62199573876,-8,5.9375,-4.3125
62199596467,-4.3125,6.0625,-6.3125
62199612759,0.1875,4.8125,-5.625
62199633743,3.0625,2.375,-4.5625
62199656219,1.125,-1,-2.25
62199672644,-1.5,-3.9375,0.1875
62199693731,0.0625,-6.3125,1.9375
62199716217,2.8125,-7.75,1.9375
62199732748,3.125,-6.3125,1.5625
62199753846,3.375,-4,0.5
62199776388,1.5625,-1.3125,1.375
62199792792,-1.3125,0.125,1.9375
62199813807,-1.4375,0.4375,3.3125
62199836448,0.1875,0.4375,5.375
62199852653,1.0625,0.0625,7
62199873762,1.125,-0.6875,8.4375
62199896231,1.625,-3.25,11.25
62199912651,0,-7.125,13.0625
62199933911,1.0625,-11.0625,16.0625
62199956351,3.625,-14,17.125
62199972781,4.625,-16.5625,18.4375
62199995211,5.9375,-18.4375,20.3125
62200016444,9.6875,-20,23.25
62200032776,15.625,-18.75,24.875
62200055256,19.875,-17.875,26.625
62200076450,18.25,-16.9375,26.875
62200092833,12.25,-15.6875,27.9375
62200115296,8.875,-14.625,26.4375
62200136398,10.5625,-13.4375,24.5625
62200152656,11.1875,-12.3125,24.8125
62200175300,8.625,-11.25,24.875
62200196332,5.6875,-9.8125,25.5
62200212707,4.25,-6.3125,26
62200235281,7.625,-2.5,25.4375
62200256280,12.9375,1.875,24.6875
62200274816,17.6875,5,25
62200295163,20.1875,6.875,25.125
62200316326,21.125,6.1875,24.625
62200338750,20.1875,4.5,22.625
62200355259,19.4375,2.3125,20.8125
62200376366,15.6875,-0.6875,19.0625
62200392780,10.3125,-3.4375,17.5
62200415184,7.25,-5.0625,16
62200436312,6.75,-6.125,15.6875
62200452647,7.9375,-6.1875,14.8125
62200475254,9.625,-5.125,13.8125
62200496326,10.6875,-3.1875,12.3125
62200512721,9.8125,-1.125,10.9375
62200535233,7.75,-0.75,10.875
62200556423,6.4375,-1.0625,9.5
62200572785,6.6875,-1.875,8.125
62200596712,4.6875,-2.8125,7.4375
62200616402,0.875,-3.875,7.375
62200632761,-0.375,-4.75,6.625
62200655240,0.875,-4.25,5.5625
62200676318,3.1875,-3.4375,4
62200692710,2.6875,-1.875,2.6875
62200715281,-0.0625,-0.5625,1.5
62200736482,-0.75,0.8125,1
62200752783,1,1.1875,0.5
62200775294,1.25,1.5,0.8125
62200796308,-0.875,0.9375,0.9375
62200812697,-1.75,0.25,0.625
62200835276,-0.6875,-0.4375,-0.1875
62200856493,-0.1875,-0.5625,-0.625
62200872803,-0.9375,-0.0625,-0.3125
62200895218,-1.0625,0.4375,1.0625
62200917810,0.5,0.625,2.25
62200932752,2.5,-0.0625,2.75
62200955243,3.125,-1.25,1.4375
62200977707,2.3125,-2.625,-0.0625
62200992705,0.3125,-2.9375,-1.375
62201015301,-2.125,-2.375,-1.875
62201037824,-1.3125,-1.5625,-1.625
62201052809,1.5,-0.8125,-0.25
62201075311,3.75,-0.6875,0.8125
62201105244,5.625,-0.1875,0.875
62201112712,6.4375,0.0625,0.4375
62201134461,6.375,0.0625,0.25
62201157173,6.8125,0.0625,-0.5625
62201173397,5.125,-1,0.3125
62201194529,2.8125,-1.3125,0.8125
62201217119,2.1875,-1.9375,0.625
62201233403,3.5,-2.375,0.0625
62201254429,3.75,-2.5625,-0.5
62201277129,1.6875,-2.5625,-1.0625
62201293374,-1.125,-2.25,-0.625
62201322021,-2.0625,-1.4375,-0.25
62201337122,-0.8125,-0.4375,0.5
62201359560,-0.75,1.625,1.1875
62201374446,-1,3.1875,1.6875
62201396989,1.125,3.9375,2.5
62201412680,2.375,3.9375,2.8125
62201434537,1.1875,3.1875,2.625
62201456938,0.375,1.8125,2.875
62201473333,0,0.5625,2.75
62201494440,0.375,-0.5,2.3125
62201516932,0.1875,-1.0625,1.875
62201533403,0.5625,-0.9375,1.0625
62201554401,1.1875,-0.6875,0.625
62201576922,1.25,-0.4375,0.5
62201593326,1.125,-0.375,0.0625
62201614537,1.5625,-0.5,0.5
62201636921,1.4375,-0.8125,0.3125
62201653373,1.6875,-0.9375,0.8125
62201674483,1.0625,-1.125,0.625
62201696957,0.5625,-1.1875,0.125
62201712673,0,-1.375,-0.3125
62201734672,0.0625,-1,-0.4375
62201757137,0.4375,-0.8125,-0.75
62201773455,0.5625,-0.125,-0.5625
62201794562,0.4375,0.25,0
62201817135,0.0625,0.4375,0.5
62201833502,0.25,0.5625,0.4375
62201854646,0.5625,0.25,0.25
62201877049,0.6875,0.125,-0.125
62201892760,0.125,0,-0.4375
62201914423,-0.5,-0.0625,0.0625
62201936976,-0.625,0.125,1
62201952779,0.25,0.1875,1
62201974612,1.125,0.4375,1
62201997009,1.5,0.1875,0.625
62202012720,1.25,0.0625,0.5
62202034563,0.5625,0.0625,1.0625
62202056983,0.625,0.1875,1.375
62202072802,1.625,0.4375,1.625
62202095910,1.5625,-0.125,1.9375
62202117113,0.3125,-0.0625,1.625
62202132750,0.625,-0.125,0.875
62202155959,1.0625,0.25,0.625
62202177108,0.5625,0.3125,0.625
62202192878,0.8125,0.25,1.0625
62202215995,1.3125,0.5,1.75
62202236952,1.5,0.4375,1.75
62202252756,1,0.5625,1.625
62202275959,0.75,0.4375,1.375
62202297029,0.625,0.0625,1.125
62202312699,0.5625,-0.125,1
62202335966,0.25,-0.3125,0.6875
62202357124,0.8125,-0.125,0.8125
62202372846,1.4375,0.1875,0.75
