myoTS,x,y,z
264695579539,-0.125,0.1875,-0.8125
264695594534,0.0625,0.3125,-0.5625
264695615837,-0.4375,0.3125,0
264695639521,-0.3125,0,0.6875
264695655087,0.375,-0.5625,1
264695675854,0.9375,-0.9375,0.8125
264695715138,1.5625,-1.0625,0.5625
264695717280,0.75,-0.875,0.3125
264695737251,0.5,-0.6875,0
264695759573,0.375,-0.625,-0.125
264695777257,0.375,-0.3125,0.1875
264695797334,0.5,-0.375,0.5625
264695833209,-0.375,-0.125,0.8125
264695843492,-0.5625,0.0625,0.5
264695857227,0.375,0.1875,0.5625
264695878168,0.375,0.25,0.0625
264695894605,-0.3125,0.5,0.4375
264695917052,0.1875,0.25,0.3125
264695938315,-0.5625,0,0.3125
264695954677,-1.125,-0.1875,-0.1875
264695977150,-0.25,-0.375,-0.5625
264695998152,0.4375,-0.4375,-0.5
264696014606,0.125,-0.25,-0.625
264696037221,-0.1875,-0.1875,-0.25
264696058190,0.4375,-0.1875,0.1875
264696074676,0.5,-0.0625,0.8125
264696097099,0.3125,-0.0625,1.0625
264696118134,0.125,0.125,1
264696134559,0.4375,0.1875,0.625
264696157039,0.375,0.25,0.625
264696178149,0.5,0.0625,0.4375
264696194586,0,0,0.25
264696217146,0.0625,-0.375,0
264696238162,0.0625,-0.1875,-0.0625
264696254587,0.4375,-0.125,-0.125
264696277082,-0.125,0,-0.3125
264696298157,0.1875,0,-0.375
264696313859,0.0625,0.25,-0.3125
264696336356,0.0625,0.4375,-0.125
264696358985,-0.4375,0.5625,0.1875
264696374013,0.125,0.4375,0.375
264696396339,0.1875,0.5,0.3125
264696419079,0,0.5,0.25
264696434008,0.125,0.5625,0.4375
264696456511,0.1875,0.5625,0.375
264696478876,-0.4375,0.625,0.3125
264696493804,-0.5,0.5625,0.25
264696516380,-0.3125,0.5,0
264696538805,-1.9375,1.1875,-0.5625
264696553989,-4.4375,2,-1.25
264696576335,-3.9375,2.5625,-1.6875
264696598778,-3,2.8125,-1.5625
264696613778,-2.3125,2,-0.8125
264696636258,-2.625,1.1875,0
264696658840,-1.625,0.9375,-0.4375
264696673746,-0.375,1.5,-1.875
264696696347,3.75,0.6875,-2.0625
264696718826,4.5625,0.125,-1.6875
264696733831,2.9375,-0.9375,-1.5
264696756346,0.9375,-1.75,-0.75
264696778848,-0.5,-2.6875,0.3125
264696793837,0.0625,-3.25,1.1875
264696816342,0.4375,-2.6875,1.4375
264696838808,0.125,-1.1875,0.6875
264696855240,-0.75,-0.3125,-0.125
264696876540,-0.5625,-0.1875,-0.375
264696898914,1.5625,-0.3125,0.375
264696915329,-0.375,-0.5625,1.1875
264696936563,-3.6875,-0.6875,1.5
264696959063,-5.75,-0.625,0.9375
264696975379,-5.75,-0.125,0.25
264696996316,-4.6875,0.5,0.125
264697018778,-5.0625,0.9375,0.3125
264697041418,-8.4375,1.5,-0.4375
264697056357,-10.5,1.5,-1.25
264697078819,-7.25,1.25,-0.6875
264697095267,-5,2.125,-0.125
264697116385,-6.625,1.875,-0.3125
264697138804,-7.5,1.875,0.375
264697155253,-8.6875,1.75,0.3125
264697176339,-6,1.5,0.375
264697198821,-4.125,1.625,0.625
264697215247,-7.3125,1.625,1.3125
264697236320,-8.875,1,1.8125
264697258951,-6.25,0,1.6875
264697275301,-4.125,-1,2.125
264697296345,-4.0625,-1.9375,4.25
264697318944,-5.25,-3.0625,5.4375
264697335246,-4.0625,-3.625,7
264697356552,-7.8125,-2.8125,7.125
264697378863,-10.5,-4.0625,4.125
264697394622,-5.8125,-6.25,1.3125
264697417812,-1.125,-6.75,0.625
264697438818,-1.0625,-6.3125,0.875
264697454588,-4.6875,-6.6875,2.6875
264697476440,-6.9375,-7.5,2.6875
264697498790,-5.5625,-7.5625,3.5
264697514567,-1.625,-6.1875,3.5625
264697536323,1.5625,-5.3125,4.5625
264697558806,1.5,-4.5625,5.25
264697574565,-0.125,-3.9375,5.75
264697597871,-0.5625,-4.1875,5.3125
264697618833,-3.1875,-3.75,5.25
264697634647,-4.4375,-3.75,3.6875
264697657844,-2.625,-4.0625,2.4375
264697678788,-1.875,-3.75,1.625
264697694582,-2.875,-2.6875,1.8125
264697717833,-4.5625,-1.5625,1.4375
264697738995,-4.1875,-1,0.9375
264697754678,-1.6875,-0.375,0
264697777860,-1,0.75,-0.125
264697806456,-2.0625,1.5,0.0625
264697814618,-0.625,1.125,0.125
264697837867,0,1.0625,0
264697858823,0.9375,1.625,0
264697874619,2.5,1.625,0.625
264697897783,2.875,1.1875,1.25
264697919025,1.3125,0.375,0.8125
264697934610,1.5,-0.125,0.0625
264697957750,3.25,-0.3125,0.5625
264697978860,4.875,-0.25,0.625
264697994626,5.1875,-0.3125,1.3125
264698017840,4.9375,-0.5625,1.1875
264698038862,3.125,-0.375,0.625
264698054673,2.4375,-0.4375,0.1875
264698077802,3.5,-0.375,0.125
264698098833,4.5625,-1.125,-0.4375
264698114603,4.375,-1.8125,-0.6875
264698137738,3.125,-1.6875,-1
264698158969,2.3125,-1.8125,-1.0625
264698174684,3.625,-1.75,-0.75
264698197829,3.1875,-1.9375,-0.375
264698219078,1.6875,-1.5625,-0.3125
264698234613,2,-1.125,-0.5
264698257759,3.8125,-0.75,-0.375
264698278890,4.375,-0.5625,0.0625
264698294655,3.9375,-0.125,0.0625
264698317786,4.3125,-0.125,0.8125
264698339026,4.25,-0.75,1.8125
264698354621,3.5,-1,2.3125
264698377228,2.9375,-1.4375,2
264698398903,0.5,-1,1.5
264698414648,1.4375,-1.1875,0.6875
264698437153,2.75,-1.0625,0.375
264698458873,1.75,-0.9375,0.125
264698474602,-0.1875,-0.75,-0.125
264698497104,-0.875,-0.6875,-0.0625
264698520329,-0.6875,-0.375,-0.375
264698534707,-0.25,-0.1875,-0.5
264698557122,0.125,0.25,-0.625
264698580325,-2,1.1875,-0.5
264698594732,-2.5,1.375,-0.1875
264698617121,-3.25,0.875,0.4375
264698640366,-4.1875,-0.3125,0.5625
264698654653,-5.0625,-1.25,0.625
264698677153,-4.3125,-1.875,0.375
264698700294,-3.0625,-2.25,0.4375
264698714626,-3,-2.5,0.1875
264698737128,-2.125,-2.5625,-0.1875
264698760386,-1.3125,-1.75,-0.3125
264698774646,-0.9375,-0.9375,-0.25
264698797241,-0.0625,-1.125,-0.4375
264698820420,0.8125,-1.5,-0.1875
264698834704,0.5,-1.875,0.3125
264698857131,0.125,-2.3125,1.125
264698880281,0.8125,-2.5625,1.75
264698894707,1.4375,-2.625,1.8125
264698917149,1.875,-2.6875,1.5625
264698940362,1.8125,-2.5625,1.8125
264698954638,0.6875,-2.5625,1.6875
264698977124,1.1875,-2.875,1.8125
264699000350,0.8125,-2.9375,2.0625
264699021340,-0.125,-3.75,2.1875
264699043868,-1.875,-3.8125,2.625
264699060352,-1.5,-3.625,2.4375
264699081349,0.5,-3.9375,2.3125
264699097204,2.1875,-3.8125,2.0625
264699120354,2.25,-2.75,1.75
264699141450,1,-1.6875,1
264699157244,3.1875,-2.125,1.375
264699180330,3.3125,-2.5,1.9375
264699201372,1.6875,-2.625,1.4375
264699217132,2.1875,-2.1875,1.25
264699240349,4.5625,-1.875,1.5625
264699261484,1.6875,-0.25,1.0625
264699277146,-1.6875,1.1875,-0.6875
264699299717,-2.625,2.5625,-1.5625
264699321327,-3.3125,3.8125,-2.1875
264699337118,-3.6875,4.1875,-2.1875
264699359712,-5.625,4.0625,-2
264699381359,-6.875,2.375,-2.5
264699397181,-6.75,-0.4375,-2.6875
264699419663,-5.625,-1.625,-3
264699441374,-6.5625,-0.625,-1.3125
264699457254,-8.0625,0,-0.25
264699479690,-5.375,-0.5625,-0.25
264699502855,-2.875,-1.75,0.75
264699517178,-2.5625,-2.25,2.1875
264699539659,-4.4375,-3.8125,2.625
264699562809,-6.5,-5.9375,1.8125
264699577202,-10.8125,-6.6875,0
264699599739,-9.625,-6.875,-2
264699622894,-3.5,-6.8125,-3.0625
264699637161,-5.125,-6.9375,-2.5625
264699659636,-6.5,-8.5,-0.9375
264699682797,-6.75,-8.9375,0.375
264699697215,-4.9375,-8.5,1.3125
264699719691,-2,-6.9375,2.6875
264699742816,1.0625,-6.3125,2.9375
264699757148,1.75,-5.3125,4.1875
264699779664,0.5,-4.1875,4.875
264699802822,-1.9375,-3.375,5.5
264699817141,-1.3125,-3.625,4.5
264699840340,1,-3.625,3.0625
264699862837,3.25,-3.5625,1.875
264699877223,1.9375,-2.125,2
264699899772,-0.625,-0.5,2.375
264699923024,-3.1875,0.875,2.0625
264699937223,-1.3125,0.875,1.375
264699960163,2,0.5,0.8125
264699982885,2.125,0.25,0.4375
264700003878,2.375,0.5,0.9375
264700019652,-1.1875,1.625,1.75
264700042831,-4.6875,2.9375,2.375
264700063875,-1.125,2.1875,1.8125
264700079617,2,1.5625,1.9375
264700093188,1.1875,1.3125,1.5625
264700115697,1.4375,1.5,1.3125
264700138934,0.6875,1.8125,1.0625
264700153307,-0.375,2.1875,0.75
264700175863,1.125,2.5625,0.125
264700198904,2.5625,2.75,-0.375
264700213254,3.75,2.4375,-0.25
264700244661,3.375,2.3125,0.1875
264700275291,2.5,2.625,0.25
264700277757,2.4375,2.625,-0.1875
264700295694,2.75,2.875,-0.625
264700318949,3.125,3.3125,-1.3125
264700333226,3.0625,3.375,-1.75
264700355840,0.9375,3.5,-1.25
264700378939,0.6875,3.3125,-0.5625
264700393296,1.875,2.5625,-0.5
264700415804,1,2.1875,-0.5
264700439114,1.5,1.9375,-0.6875
264700453192,2.1875,1.75,-0.125
264700475811,-1.375,2.4375,0.875
264700498900,-2.875,2.25,0.9375
264700513245,0.25,1.4375,0.5
264700535754,2.75,0.875,0.125
264700558942,3.0625,0.5,0.0625
264700574652,2.9375,0.75,0.4375
264700595736,0.6875,1.625,1.25
264700619087,-0.375,2,1.5
264700633236,1.25,1.6875,1.3125
264700655720,3.0625,1.5,0.8125
264700678971,1.875,1.6875,0.75
264700693278,0.6875,1.5625,0.8125
264700715796,1.6875,1,0.625
264700738916,2.125,0.875,1
264700753471,2.1875,0.5,1.3125
264700775770,1.6875,0.25,1.875
264700798885,0.9375,-0.1875,2
264700813204,1.875,-0.75,2
264700835739,1.625,-1.1875,2.125
264700858877,-1.125,-0.9375,1.8125
264700881486,-1.1875,-1.125,1.1875
264700895769,-1,-1.125,0.75
264700918702,-1.875,-0.9375,0.4375
264700933301,-1.8125,-0.6875,-0.375
264700955714,0.1875,-1,-0.5625
264700979347,-0.8125,-0.3125,-0.125
264700993255,-2,0.4375,-0.1875
264701015820,0.4375,0.875,0
264701038901,1.0625,1,0.8125
264701053312,-1.25,1.8125,1.875
264701075920,-2.9375,2.3125,1.875
264701099024,-1.625,1.5625,1
264701113377,1.875,0.6875,0.8125
264701135707,1.8125,0.4375,1.3125
264701158920,-2.9375,0.875,1.375
264701173379,-5.0625,0.75,1.5625
264701195832,-3.1875,1.5,0.9375
264701218895,-1.6875,2.875,0.0625
264701233437,0.5,3.3125,0.875
264701255761,0.0625,3.3125,2.0625
264701287162,-3.6875,2.125,1.625
264701293289,-4.5625,1.25,0.875
264701315844,-4.75,1.375,0.3125
264701338296,-3.375,2.8125,-0.625
264701353453,0.5,5.1875,-1.125
264701375903,0.6875,7.6875,-0.0625
264701398215,-2.4375,9.375,0.9375
264701413253,-3.1875,10.25,1.9375
264701435757,-0.3125,12.6875,2.8125
264701458276,2.375,13.125,3.875
264701473216,0.875,13.9375,3.8125
264701495727,-2.75,15.5625,4.875
264701518236,-3.25,15.75,5.0625
264701533353,-3.75,17.4375,5.625
264701555749,-3.9375,18.5625,4.9375
264701578326,-1.0625,21.3125,4.5
264701596190,0.875,23.3125,4.6875
264701615801,-2.4375,24.5,3.75
264701638234,-2.375,24.25,2.5625
264701653260,1.5625,23.875,0.5
264701675843,5.9375,23.6875,-0.6875
264701698305,4.125,24.0625,-0.8125
264701713282,1.75,23.5625,-1.6875
264701735924,3.25,22,-1.5
264701758295,6.5625,20.1875,-0.3125
264701773270,5.0625,18.8125,1
264701795779,-0.75,18.125,1.875
264701818269,-4.125,17.125,2.1875
264701833333,-3.375,14.8125,2.3125
264701855755,-1.6875,13.3125,3.25
264701878367,0.6875,11.9375,4.6875
264701893258,0.5,11.0625,6.0625
264701915748,-1.3125,10.1875,6.0625
264701938267,-2.8125,9.4375,4.8125
264701953306,-1.9375,8.5625,2.3125
264701975834,0.5,8,2.0625
264701998294,1.5,8.625,3.125
264702013249,1.3125,8.8125,3.75
264702035870,3,7.9375,2.6875
264702058475,1.625,7,1.125
264702073440,-4.9375,6.5,-0.875
264702095832,-8.8125,6.125,-1.9375
264702118292,-5.5,5.125,-1.9375
264702134765,-2.6875,4,-2.1875
264702155827,-3,3.8125,-2.75
264702178294,-5.0625,4.1875,-3.3125
264702194771,-5.875,3.8125,-3.625
264702215937,-4.3125,3.0625,-3.875
264702238326,-1.6875,2.5,-3.5
264702254720,-0.875,1.875,-3.0625
264702275794,-1.875,1.75,-2.1875
264702298236,-2.8125,1.9375,-1.125
264702314759,-2.125,1.75,0
264702335747,0.1875,0.875,0.8125
264702358398,0.5,0.5625,1.4375
264702374759,-1.0625,0.8125,1.8125
264702395729,-2.0625,1.1875,1.875
264702418230,-0.75,0.6875,2.1875
264702434781,0,0.125,1.9375
264702455755,-0.25,0.0625,0.9375
264702478256,-0.6875,0,0.25
264702494730,-1.1875,0.0625,-0.4375
264702515752,-0.875,-0.125,-1.1875
264702538281,0.0625,-0.125,-1.125
264702554698,0.125,-0.375,-0.4375
264702575795,-0.875,-1.125,0.0625
264702598255,-1.75,-1.625,0.1875
264702614703,0.1875,-1.6875,-0.4375
264702635765,0.625,-1.1875,-0.8125
264702658461,0.1875,-1,-0.9375
264702674768,1.75,-1.4375,-0.9375
264702695788,2.1875,-1.25,-0.3125
264702718264,0.8125,-0.9375,-0.0625
264702734722,1.25,-0.6875,0.5
264702755810,1.875,-0.25,1
264702778348,2.9375,0.0625,1.8125
264702794758,3.4375,0.1875,2.25
264702815805,2.9375,0,2.125
264702838376,1.5,0.3125,1.9375
264702854820,0.875,0.375,1.8125
264702875813,1.1875,0.625,1.6875
264702898335,1.8125,0.8125,1.4375
264702914713,1.25,0.9375,0.875
264702935783,0.1875,0.9375,0.4375
264702958242,0.1875,1.0625,0.3125
264702974759,0.3125,1.0625,0.0625
264702995787,0.5625,0.875,0.3125
264703018375,0.4375,1.125,0.5
264703034709,0.3125,1.1875,0.8125
264703055979,1,0.875,1.125
264703078320,1.5,0.6875,1.5
264703094824,1,0.75,1.8125
264703117269,0.375,0.125,1.4375
264703146455,0.625,-0.25,0.8125
264703154843,0.625,-0.6875,0.3125
264703177272,0.75,-0.875,0.3125
264703198306,0.625,-0.75,0.5
264703214722,-0.125,-0.5625,0.875
264703237248,-0.75,-0.1875,0.6875
264703258521,-0.4375,-0.5625,0.25
264703274799,0.4375,-0.875,0.125
264703297303,0.6875,-0.9375,0.1875
264703318327,-0.3125,-0.5,0.375
264703334770,-0.0625,-0.4375,0.6875
264703357280,-0.1875,-0.1875,0.6875
264703378274,-0.1875,0.125,0.5625
264703394740,0.375,0.1875,0.3125
264703417241,0.8125,0.375,0.4375
264703439738,0.4375,0.75,0.6875
264703454721,0.25,0.8125,1.25
264703484721,-0.25,0.875,1.6875
264703498266,1.5,0.3125,1.875
264703514740,1.1875,0.0625,2.5
264703537227,0.6875,0,2.1875
264703558294,0.1875,0.1875,1.75
264703574744,-0.5625,0.3125,0.9375
264703597215,0.3125,0.375,0.0625
264703618300,1.0625,0.4375,-0.625
264703634742,1.4375,0.5,-0.9375
264703657272,0.25,0.625,-0.75
264703678327,-0.875,0.25,-0.8125
264703694697,-0.375,-0.0625,-0.875
264703717247,0.5625,-0.1875,-1.125
264703746455,-0.0625,0.0625,-0.6875
264703754762,0.3125,0.25,-0.4375
264703777240,-0.0625,0.4375,0.125
264703798287,0.1875,0.0625,0.5
264703814751,0.625,0.0625,0.6875
264703837221,0.5,0.5625,1.125
264703858922,0.125,1,1.9375
264703873993,0.875,0.75,1.3125
264703896434,2.3125,1.0625,1.125
264703918963,1.4375,1.0625,1.3125
264703934029,1.1875,0.5625,0.8125
264703956459,1.625,-0.375,1.0625
264703980422,0.9375,-0.5625,0.9375
264703993992,0,-0.75,0.5625
264704016515,0.5,-0.9375,0.125
264704038992,0.25,-0.9375,-0.375
264704053983,0.8125,-0.625,-0.8125
264704076453,0.875,-0.625,-1.375
264704098960,0.5,-0.375,-1.25
264704113975,1.25,-0.375,-0.8125
264704136482,1.0625,-0.5625,-0.1875
264704158946,0.5,-0.875,0.25
264704173981,0.4375,-1.125,0.375
264704196456,0.4375,-0.9375,0.5
264704219002,0.125,-0.3125,0.75
264704235395,0.3125,-0.5625,0.3125
264704256538,-0.25,0.125,0.3125
264704278980,0.5,0.25,0.5
264704295411,0,0.1875,0.5
264704316452,-1.375,0.5,0.6875
264704340377,0.5,-0.375,0.5
264704355415,1,-0.5,0.5625
264704376527,0.125,-1,0.5625
264704398947,0.9375,-1.3125,0
264704415401,1,-0.9375,-0.5
264704436453,0.1875,-0.125,-0.875
264704458987,0.3125,-0.125,-0.75
264704475452,0.875,0,-0.625
264704496563,0.375,-0.125,-0.375
264704519028,0.1875,0,-0.125
264704535412,0.5625,-0.3125,0.5
264704556456,1.0625,-0.25,0.75
264704578991,0.875,0.0625,0.875
264704595375,0.4375,0.125,0.625
264704616546,0.8125,0,0.625
264704638977,0.0625,0.5,0.3125
264704655423,-0.75,-0.375,0.125
264704676472,-0.3125,-1.4375,0.1875
264704698980,-1,-2.5,0.8125
264704715378,-2.125,-3.3125,1.1875
264704736649,-2.75,-4.1875,1.9375
264704758989,-2.4375,-3.75,2.0625
264704775423,-1.8125,-3.25,1.625
264704796489,-2.0625,-2.5625,0.5
264704819004,-0.625,-1.8125,-0.6875
264704835260,1.5625,-1,-1.5
264704856472,2.1875,0,-1.8125
264704878941,1.25,0.8125,-1.4375
264704895387,0.6875,0.875,-1.25
264704916599,0.9375,0.25,-0.875
264704939017,0.5625,0.1875,-0.4375
264704955442,0.1875,0.375,0.0625
264704976566,0.5,0.25,0.6875
264704999042,0.5,0.1875,0.8125
264705014760,-0.5625,-0.5,0.625
264705036502,-0.25,-0.125,-0.0625
264705058961,0.5625,0.375,-0.6875
264705074747,-0.5625,1.3125,-1.0625
264705096545,-0.25,0.875,-1.375
264705118951,-0.9375,1.0625,-1.25
264705134808,-2.375,1.6875,-1.9375
264705157957,-3.5625,3,-3.25
264705179018,-4.6875,3.9375,-5
264705194771,-5.8125,5.3125,-6.8125
264705217956,-4.5,5.9375,-8.9375
264705239013,-5.4375,6,-10.25
264705254757,-9.125,5.5,-11
264705277976,-11.8125,5.3125,-13
264705299040,-13.375,6.125,-15.25
264705314768,-13.375,6.125,-17
264705337938,-16.1875,6.9375,-18.5
264705358964,-16.6875,6.375,-21.1875
264705374788,-17.6875,6,-24.8125
264705398416,-17.8125,5.5625,-27.375
264705419018,-18.375,5.4375,-29.5
264705434771,-21.375,5.8125,-30.4375
264705457935,-22.9375,6.8125,-33.5625
264705478985,-24.75,7.625,-36.125
264705494748,-29.625,8.5625,-38.75
264705517895,-30.5625,9.5625,-38.4375
264705539031,-23.6875,11.1875,-39.3125
264705554757,-22.25,13.125,-40.4375
264705577981,-24.4375,12.8125,-42.3125
264705599177,-27.9375,14.625,-39.3125
264705614833,-26.6875,13.5625,-41.5
264705645506,-23.1875,14.8125,-38.75
264705659230,-22.875,14.0625,-39.875
264705674907,-26.75,12.8125,-40.9375
264705698006,-30.125,13.375,-42.375
264705718975,-28.5,13.6875,-41.4375
264705734847,-25.75,14.3125,-42.125
264705757914,-25.0625,14.875,-42.6875
264705779016,-25.75,16.4375,-41
264705794815,-25.4375,15.8125,-41.875
264705817948,-21,18.875,-41.4375
264705839111,-19,15.875,-40.5
264705854835,-15.0625,14.625,-41.625
264705877410,-16,14.625,-43.0625
264705899130,-16.375,15.375,-42.6875
264705921539,-13.5,14.875,-39.875
264705937272,-9,14.75,-35.5
264705959048,-5.8125,14.375,-30.9375
264705974819,-3.9375,12.875,-25.375
264705997252,-5.5625,11.5,-24.125
264706019220,-6.125,8.3125,-22.125
264706034887,-6.1875,8.375,-14.125
264706057383,-3.5,7.4375,-7.9375
264706080545,-1.875,6.25,-4
264706094816,-3.4375,5,0.125
264706117336,-3.0625,3.0625,4.125
264706140530,0.5625,1.875,6.1875
264706154823,0.625,3.5,7.1875
264706177338,0.3125,5.5625,7.875
264706200526,1.375,6.1875,8.125
264706214825,4.75,7.3125,7.4375
264706237322,7.0625,8.75,6.8125
264706260545,9.3125,8.5,6.8125
264706274778,8.125,6.5,8.6875
264706297279,4.25,4.4375,9.6875
264706320522,2.875,3.3125,10.1875
264706334934,1.25,2.3125,9.5
264706357462,-1.3125,1.1875,8.5
264706380514,-1.5,1.1875,8.1875
264706401596,1.6875,1,7.6875
264706417290,2.25,1.0625,7.3125
264706440417,0.5625,0.3125,7.6875
264706454877,-2.25,-1.5625,7.25
264706477303,-2.375,-4.8125,7
264706500520,-1.375,-4.1875,8.625
264706514905,-0.625,-3.8125,9.875
264706537403,-1.8125,-2.1875,13.3125
264706560449,-2.75,-1.0625,17.3125
264706581568,1.4375,-1.625,20.125
264706597316,6.875,-2,21.4375
264706620679,5.5,-1.0625,24.9375
264706641548,5.3125,-1.375,29.875
264706657407,10,-2.25,34.875
264706680455,13.8125,-2.5625,38.625
264706701458,13,-2.3125,36.25
264706717375,11.875,-1.9375,36.8125
264706740521,17.3125,-1.625,36.8125
264706761542,21.8125,-3,37.3125
264706785450,28.375,-4.125,40.1875
264706800488,28.125,-2.375,43.5
264706821589,20.5,0.25,40.25
264706837402,15.0625,0.875,37.625
264706859795,21.75,-0.5625,36.5625
264706881661,27.5,-3,35.625
264706897311,22.75,-5.6875,34.25
264706919831,20.75,-8.75,34.0625
264706941572,16.5625,-10.3125,34.25
264706957331,6.1875,-9.5625,32.75
264706979824,3.125,-11.375,30
264707001543,8.3125,-13.0625,26.3125
264707017341,11.3125,-13.875,24.125
264707039854,9.75,-12.5,21.875
264707062986,7.125,-9.3125,18.6875
264707077356,3.75,-8,14.9375
264707099833,6.1875,-8.3125,13
264707123006,7.6875,-8.8125,13.125
264707137339,5.9375,-8.8125,13.3125
264707159820,5.75,-7.4375,13.9375
264707183031,3.5,-5.1875,12.8125
264707197364,-0.5,-4.4375,12.5625
264707219831,-4.75,-5.25,12.3125
264707242979,-8.125,-6.1875,11.25
264707257302,-8.0625,-6.125,10
264707279793,-6.3125,-4.3125,8.625
264707302779,-2.75,-2.375,7.5625
264707317347,-0.25,-0.75,6.4375
264707339886,3.6875,0.4375,3.9375
264707362981,2.1875,1.875,2.1875
264707377473,-0.875,2.375,1.125
264707399956,0.5,2.9375,1.75
264707422994,0.3125,4,3.125
264707437407,-1.75,4.5625,4.125
264707459801,-1.3125,5.1875,4.75
264707482985,-1.4375,5.8125,5.3125
264707497335,-3.9375,7,5.75
264707519835,-4.5,5.6875,5.125
264707543068,0.4375,4.25,4.875
264707564056,0.75,4.4375,6.0625
264707579888,-3.1875,5.75,7.9375
264707603035,-4,5.3125,9.5625
264707616066,-1.8125,4.3125,8.9375
264707638860,-2.4375,5.0625,8.875
264707653376,-0.625,6.875,9.1875
264707676060,7.4375,7.0625,9.875
264707699164,13.5,7.375,11
264707713416,11.625,7.875,11.0625
264707736000,6.625,7.5,9.3125
264707759091,10.6875,6.4375,8
264707773540,14.625,6.125,8.5625
264707795900,13.8125,5.625,9.1875
264707819043,15.125,4.75,9.75
264707833455,15.125,3.625,8.6875
264707855897,13.3125,2.375,6.375
264707879093,11.25,2.4375,4.25
264707894937,14.5625,1.25,1.8125
264707915943,20.5,0.25,0.625
264707939157,23.625,1.75,1.1875
264707953617,22.125,5,3.1875
264707976094,19.125,4.75,6.3125
264707999202,22.3125,2.8125,11.75
264708013436,23.875,-0.125,15.0625
264708036087,20.8125,-1.9375,17.6875
264708059225,17.625,-4.3125,21.0625
264708073550,17.1875,-6.375,22.9375
264708095885,17.3125,-7.9375,23.125
264708119029,11.5,-9,21.5
264708133383,6.9375,-11.75,21
264708155901,7.9375,-16.1875,21.4375
264708179058,9.1875,-17.875,22.3125
264708193449,6.9375,-14.875,20.375
264708215938,3.75,-14.125,17.1875
264708239089,-1.8125,-11.4375,14.625
264708253466,-2.6875,-11.9375,13.9375
264708275940,2.3125,-11.8125,11.375
264708299051,9.5,-10.5625,9.625
264708313417,8.3125,-8.25,7.0625
264708335957,5.4375,-6.6875,4.8125
264708359138,3.5625,-6.25,4.375
264708373434,4.125,-6.4375,4.125
264708395982,1.1875,-5.6875,2.8125
264708427970,1.6875,-3.9375,1.9375
264708442366,1.8125,-5.75,1.75
264708465536,2.3125,-4.4375,1.25
264708480531,3.5,-10.6875,5
264708495581,-0.5,-6.9375,3.3125
264708515913,6.1875,3.3125,-3
264708539215,4.3125,5.4375,-5.5625
264708561713,5.5625,4.8125,-3.5625
264708575951,6.5625,4.6875,-3.9375
264708599126,0.75,5.5,-2.4375
264708613398,8.5,-1.0625,-0.625
264708635898,7.5625,0.625,-1.3125
264708659052,-0.1875,1.375,-3.8125
264708673455,-4.4375,3.875,-4.4375
264708695989,-3.1875,4.1875,-5.625
264708719161,-0.4375,2.5625,-4.3125
264708733539,0.1875,0,-4.5
264708755937,-2.1875,-0.6875,-4.5625
264708779067,-5.875,0.75,-6.3125
264708793374,-8.75,-0.4375,-5.4375
264708815865,-8.5625,-2.5,-5.25
264708839036,-10.125,-3.75,-5.1875
264708853379,-11.1875,-4.25,-6.6875
264708875890,-12.6875,-2.625,-10.4375
264708898587,-16.4375,0,-13
264708913533,-18.1875,2.625,-16.9375
264708936072,-14.9375,2.875,-20.1875
264708967447,-14.125,1.5,-24.5
264708973456,-18.125,3.0625,-29.6875
264708995991,-28.5,5.6875,-37.6875
264709018611,-34.75,6.875,-47
264709033401,-39.3125,7.625,-54.6875
264709055905,-42.3125,4.875,-60.5625
264709078414,-47.625,3.5,-64.6875
264709093442,-49.25,3,-71.5
264709115880,-56.1875,6.125,-80.25
264709138394,-66.1875,10.625,-90.1875
264709153399,-79.3125,17.1875,-97.6875
264709175926,-88.9375,24.1875,-107.25
264709198431,-86.5625,28.8125,-112.438
264709213371,-82,30.625,-116.438
264709235933,-81.75,30.5,-118.062
264709258456,-85.0625,29.375,-118.312
264709276327,-89.8125,30.4375,-119.188
264709296007,-91,31.4375,-121
264709318463,-98.0625,32,-122.062
264709333446,-97.75,33.75,-122.75
264709355962,-89.875,37.125,-126.062
264709378395,-87.125,37.9375,-124.875
264709393391,-86.625,34.9375,-125.188
264709415955,-85.625,30.9375,-122.438
264709438568,-80.5625,29.5,-118.5
264709453600,-83.25,29.125,-121.562
264709475888,-91,31.5,-122.062
264709498411,-97.5625,30,-119.438
264709513384,-98.25,26.1875,-114.125
264709536014,-95,22.4375,-109.188
264709558437,-84.4375,20.1875,-102.625
264709581573,-61.4375,21.4375,-88.25
264709595933,-58.25,15.8125,-87.125
264709618452,-58.3125,22.5625,-94.6875
264709633370,-56.75,24.0625,-104.812
264709655895,-59.5625,34.875,-104
264709678425,-57.6875,39.75,-105.438
264709693416,-49.75,40.6875,-103.562
264709715910,-43.6875,42.25,-100.688
264709738455,-40.375,41.125,-99
264709754908,-36.1875,37.4375,-93.6875
264709775906,-35.3125,34.625,-87.625
264709798474,-41,31.3125,-83.625
264709814879,-48.375,26.3125,-78.1875
264709835987,-49.8125,22.25,-70.3125
264709858515,-45.4375,19.75,-65.5625
264709874864,-41.625,20,-61.4375
264709895957,-39.25,24.0625,-58.4375
264709918423,-31.125,28.375,-56.3125
264709934981,-22.875,27.8125,-51.4375
264709956096,-22.1875,23.3125,-46.0625
264709978416,-26.25,19.6875,-40.5625
264709994945,-17.25,14.0625,-35.6875
264710015920,-8.625,9.75,-30
264710038407,-6.9375,7.0625,-24.6875
264710054887,-5.0625,2.4375,-23.0625
264710075942,-8,-2.75,-19.0625
264710098470,-9.5,-1.1875,-10.8125
264710114852,-6.25,2.625,-10.75
264710135977,-4.125,2.25,-12.375
264710158484,6.5625,0.125,-6.4375
264710174925,10.75,2.4375,0.5625
264710198863,1.25,10.8125,2.875
264710218697,0.6875,12.1875,-1.5
264710234924,4.0625,9.625,-1.5625
264710256008,6.25,7.5625,4.5
264710278504,6.625,8.9375,9.5625
264710294870,3,11.75,11.75
264710315948,5,10.6875,12.9375
264710338434,9.625,7.75,18.8125
264710354937,10.875,6.9375,25.3125
264710375917,9.3125,6.25,31.6875
264710398452,12.75,3.875,35.8125
264710414918,15.75,0.9375,40.9375
264710435939,14.1875,-3.625,47.375
264710458422,17.25,-7.4375,55.6875
264710474904,23.1875,-8.1875,65.375
264710496000,26.5,-6.6875,71.3125
264710518705,35.125,-6.1875,76
264710534958,58.3125,-6.3125,84.1875
264710555928,69.875,0.125,95.375
264710578419,70.0625,5.8125,99.9375
264710594923,59.75,4,98.5
264710615972,47.3125,-10,107.5
264710638460,48.5625,-17.8125,122.562
264710654938,66.75,-18.6875,134.125
264710677472,73.75,-27.0625,136.812
264710698451,57.5625,-39.125,146.5
264710714920,51.5625,-42.25,161.125
264710737416,69.8125,-44.0625,174
264710758462,81.8125,-34,170.625
264710774844,52,-35.3125,161.25
264710797396,28.4375,-47.375,166.25
264710818423,24.25,-49.75,167.188
264710834867,45.3125,-40.3125,171.688
264710857406,69.6875,-38.5,164
264710878543,97.8125,-46.0625,164.875
264710894984,103.562,-55.875,168.375
264710917373,85.5625,-53.75,151.812
264710938472,70.0625,-46.1875,137.188
264710954899,53.4375,-35.6875,131.25
264710977404,55.5625,-39.625,146.312
264710998505,70.4375,-47.5,154.688
264711014941,75,-52.5625,138.938
264711037404,72.625,-51.75,123.375
264711058429,67.25,-47.875,121.125
264711074938,52.375,-46.0625,116.438
264711097427,38.5,-47.125,105.5
264711119893,35.1875,-47.25,97.3125
264711134969,32.5,-45.5,94.4375
264711157394,31.9375,-46.125,90.625
264711178685,40.9375,-47.625,85.0625
264711194907,50.6875,-46.875,80.9375
264711217409,41.125,-40.1875,75.25
264711238512,31.6875,-35.625,65.8125
264711254876,33.625,-32.625,59.25
264711277439,32.1875,-28.25,51.9375
264711298438,29.1875,-22.5,41.75
264711314887,24.8125,-17.4375,24.75
264711337396,25.25,-14.9375,16
264711358617,16.4375,-8.875,10.5625
264711374874,2.5625,-3.625,6.875
264711396566,1.875,-0.125,5.4375
264711427425,9.8125,2.25,2.6875
264711434230,19.3125,4.1875,2.25
264711456701,21.5,6.5625,1.1875
264711479196,15,9.375,0
264711494135,8.3125,11.75,-0.8125
264711516634,5.4375,11.6875,-0.25
264711539148,3.25,9.9375,1.75
264711554155,0.1875,7.75,2
264711576647,1.9375,5,0.875
264711599147,4.6875,4.25,-0.6875
264711614109,2.625,5,-2
264711636797,-3.6875,4.75,-1.6875
264711659228,-6.0625,3,-1.625
264711674193,-3.4375,0.5625,-1.5
264711696645,1.4375,-0.4375,-1.9375
264711719208,2.8125,0.0625,-3.3125
264711735611,1.5,-0.6875,-4.4375
264711756650,3.125,-2.125,-5.1875
264711779258,3,-3.0625,-4.1875
264711795627,1.625,-4,-3.4375
264711816599,1.6875,-5.625,-2.6875
264711839143,0.8125,-7,-2.6875
264711855657,-0.6875,-7.5625,-4
264711876654,-1.6875,-7.125,-4.125
264711899161,-2.25,-6.375,-3.6875
264711915624,-1.625,-5.375,-2.0625
264711936683,-2.875,-5.9375,-0.375
264711959151,-7.9375,-8.375,2.25
264711975624,-6.5625,-8,5
264711996761,-5.1875,-4.875,7.625
264712026809,-4.4375,-1.8125,8.375
264712043116,-8.0625,-1,4.5
264712056668,-12.375,-1.5,0.5
264712079215,-7,-2.4375,-1.625
264712095552,3.3125,-2.5625,-1.5
264712116674,2.5625,-1.3125,-2
264712139186,-4.0625,0,-3.625
264712155636,-5.6875,1.3125,-3.9375
264712176661,-4.6875,1.75,-3.75
264712199195,-3.125,2.25,-4.3125
264712215599,-1.0625,2.0625,-5
264712236768,0.125,0.9375,-6.375
264712259170,-4.3125,2.625,-6.8125
264712275593,-9.875,4.125,-7.3125
264712296693,-10.0625,1.375,-3.8125
264712319247,-6.4375,-1.125,-1.0625
264712335612,-3.5625,-3.8125,0.875
264712356666,-2.875,-4.75,1
264712379158,-5.6875,-5.1875,1.5625
264712395622,-10.625,-5.8125,1.3125
264712416639,-11.75,-6.1875,-0.0625
264712439183,-8.3125,-6.4375,-1.3125
264712455648,-7.3125,-6.1875,-1.4375
264712476675,-10.25,-4.9375,-2.9375
264712499149,-10.9375,-8.5,-9.1875
264712515626,-12.1875,-12.75,-16.6875
264712536826,-22.75,-12.75,-23.3125
264712559259,-32.8125,-11.8125,-32.25
264712581658,-38.125,-13.3125,-43.1875
264712596744,-49.375,-12.125,-52.5625
264712619191,-54.125,-11.1875,-61
264712634930,-56.125,-7.5625,-68.25
264712656724,-56.3125,-2.625,-75.625
264712679236,-57.0625,1.5,-81.5625
264712694994,-57.0625,7.375,-86.625
264712718125,-56.0625,11.8125,-92.0625
264712739159,-57.625,14.875,-99.875
264712755024,-59.8125,18.8125,-107.938
264712778189,-63,22.1875,-112.25
264712799204,-65.375,24.9375,-115.438
264712814925,-63.4375,29.1875,-120
264712838131,-57.0625,32.5625,-128.312
264712859160,-53.4375,31.4375,-133.5
264712875071,-56.3125,32.125,-135.625
264712898107,-61,35.5,-132.062
264712919352,-67.125,38.6875,-129.562
264712934997,-71,38.75,-126.562
264712958175,-68.4375,36.625,-123.812
264712979254,-68.625,37.625,-122.312
264712994961,-71.125,40,-120.562
264713018092,-72,40.8125,-117.438
264713039311,-72.5625,41.125,-111.812
264713055017,-72.6875,39.9375,-107
264713078127,-73.6875,34.4375,-108.625
264713099145,-77.1875,33.25,-104.812
264713114941,-79.125,31.0625,-100.562
264713138118,-81.25,25.875,-98.625
264713159384,-76.0625,14.375,-100.625
264713174951,-81.1875,16.8125,-100.062
264713198120,-91.375,18.875,-110.562
264713219228,-103,23.625,-108.875
264713234987,-100,23.1875,-104.5
264713258137,-90.0625,17.6875,-104.875
264713279356,-86.6875,16.375,-99.3125
264713294947,-73.9375,25.5625,-94.9375
264713318097,-70.5625,30.375,-93.6875
264713339138,-66.9375,29.6875,-87
264713354930,-62.6875,24.9375,-79.875
264713378072,-54.75,23.4375,-77
264713399184,-47.8125,24.375,-78.0625
264713414960,-47.625,25.25,-78.5
264713444198,-51.25,24,-74.8125
264713459257,-51.625,14.75,-69.75
264713474963,-49.625,3.5,-62.6875
264713497467,-46.25,3.0625,-54.8125
264713519185,-41.5,8.4375,-48.4375
264713534948,-43.5625,16.25,-40.75
264713557565,-44.875,15.25,-35.1875
264713579370,-39.8125,9.6875,-33.25
264713594959,-39.5625,5.5625,-26.6875
264713617501,-42.5,7.9375,-16.1875
264713639164,-42.0625,7.8125,-9.125
264713654930,-34.3125,3.0625,-2.25
264713677483,-23.5,-1.6875,5.5625
264713700575,-8.875,-5.4375,10.875
264713714979,-3.4375,-5.1875,16.3125
264713737750,-4.6875,-4.625,20.25
264713760622,-2.5625,-6.625,22.4375
264713774960,2.8125,-10,24.9375
264713797433,0.875,-10.75,27.5625
264713820576,2.125,-16.25,29.875
264713834969,5.5,-27.4375,29.3125
264713857528,-2.8125,-27.1875,32.1875
264713880615,-13.5625,-19.5625,33.375
264713894949,-5.1875,-15.4375,30.4375
264713917524,4.875,-13.375,26.4375
264713940578,-2.6875,-13.3125,25.75
264713969393,-9.125,-13.1875,29.4375
264713977548,-1.25,-12.75,30.75
264714000684,5.1875,-11.25,30.375
264714021803,9.3125,-14.125,30.5625
264714037567,6.875,-15.6875,31.125
264714060604,7.8125,-12.625,27.5625
264714081683,12.3125,-9.625,27.625
264714097553,16.25,-8.125,28.8125
264714120680,26.5,-8.6875,28.1875
264714141783,34.5,-9.5,27
264714157611,39.5625,-11.25,28.4375
264714180664,28.9375,-13.875,37.1875
264714201642,29,-17.125,47.1875
264714217422,54.6875,-24.4375,54.8125
264714240658,68.4375,-34.375,55.875
264714261889,58.25,-40.375,61.25
264714277530,59,-45.75,72.9375
264714300620,72.1875,-42.625,83.9375
264714321725,80.0625,-37.5,87.0625
264714337474,84.4375,-36.125,89.375
264714360747,93.3125,-40.1875,98
264714381690,94.5625,-43.0625,105.938
264714397560,97.375,-52.0625,115.875
264714420029,96.25,-56.5625,127.125
264714441716,97.8125,-62.125,140.438
264714457542,116.125,-66.125,146.312
264714479950,127.625,-68.1875,150.375
264714501674,121.938,-67.625,146.812
264714517554,102.688,-66.4375,138.438
264714539959,103.875,-71.375,133.562
264714561663,106.875,-61.375,129.188
264714577445,70.75,-50,127.188
264714600003,53.0625,-53.3125,116.5
264714621788,69,-62.75,104.812
264714637692,101.688,-56.6875,103.125
264714659920,125.688,-42.4375,97.4375
264714683144,124.562,-33.9375,95
264714697561,96.6875,-35.375,106.438
264714719971,78.5,-33.125,106.062
264714743209,80.1875,-27.3125,98.375
264714757588,86.3125,-15.8125,85.8125
264714779971,103,-1,75
264714803084,108.562,3.875,78.1875
264714817532,98.875,6.125,72.625
264714839978,77.4375,13.375,60.875
264714863600,63.5625,16.3125,48.875
264714884182,67.625,17,48
264714899943,70.25,20.25,50.75
264714923092,62.4375,21.3125,46.25
264714944209,45.4375,13.875,37.0625
264714959986,35.375,2.375,35.75
264714983216,31.3125,-2.25,35.125
264715004234,21.1875,-2,34.875
264715019952,15.6875,0.0625,31.3125
264715050645,20.0625,6.625,21.5625
264715065652,24.5,11.5625,12.3125
264715080059,28.875,9.75,9.375
264715110647,33.0625,3.6875,10.3125
264715125686,34.375,1.6875,13.5625
264715140035,33,2.875,15.0625
264715163179,35.6875,-0.625,10.5
264715176227,25.9375,1.8125,7.5625
264715199167,8.9375,9,3.5
264715213605,6.0625,4.3125,1.25
264715236131,15.6875,-2.375,5.125
264715259200,16.5,0.125,4.8125
264715273543,10.6875,5.8125,3.1875
264715296005,9.9375,8.25,4.5
264715319263,10.75,10.6875,4.375
264715333673,10.8125,11.5,3.9375
264715355989,14.125,11.9375,2.9375
264715379826,13.1875,12,-0.75
264715393592,9.8125,10.125,-3.3125
264715416032,7.9375,7.125,-2.8125
264715439168,2.9375,5.5625,-1.125
264715453536,-2.0625,2.5,0.9375
264715476010,-1.375,-0.4375,2.1875
264715499183,0.75,-3.125,3.1875
264715513582,-0.25,-4.5,3.75
264715536019,-3.75,-3.6875,3.75
264715559333,-5.375,-1.8125,3.8125
264715573712,-4.5,0.5625,4.1875
264715596060,-2.6875,2.125,2.6875
264715619260,2.1875,3.3125,1
264715633603,4.125,4.375,0.1875
264715656242,3.75,5.5,-0.6875
264715679436,2.625,5.375,-0.1875
264715693553,2.625,4.9375,0.8125
264715716016,1.25,4,1.5625
264715739173,0.5625,2.9375,1.375
264715753584,-0.1875,2.375,1.25
264715776089,-0.75,2.125,0.6875
264715799223,-0.5,0.9375,1.1875
264715813543,1.0625,0.3125,0.8125
264715836099,2.25,0.5625,1.25
264715859402,0.3125,1.625,0.125
264715873794,-1,3.1875,-0.9375
264715896121,-0.625,4.0625,-1.875
264715919235,1.25,3.9375,-1.9375
264715941685,2.5625,3.4375,-1.75
264715956053,3,2.875,-1.625
264715979307,1.5625,2.125,-1.25
264715993631,0.3125,2,-0.6875
264716016027,-0.25,2.1875,-0.3125
264716039285,-0.125,2.25,-0.4375
264716053555,0.5,2.4375,-0.25
264716076096,0.5,2.375,-0.5625
264716099216,0.875,2.4375,-0.5625
264716113772,1.375,2.875,-0.25
264716136084,1.125,2.9375,0.125
264716159388,0.75,2.875,0.1875
264716173592,2.1875,2.875,0.4375
264716196098,2.375,2.625,0.1875
264716219216,0.9375,1.625,0.125
264716233563,0.6875,0.625,0.3125
264716256090,0.625,0.4375,0.4375
264716279402,-0.0625,0.5625,0.25
264716293556,-0.375,0.8125,0
264716316045,-0.75,0.375,0.4375
264716339303,-1,0.25,0.375
264716353584,-0.3125,0.3125,0.25
264716376017,0.0625,0.25,-0.1875
264716399212,0.5,0.375,-1.25
264716413580,-1.125,0.8125,-1.75
264716436084,-3.3125,1.4375,-1.4375
264716467369,-2.5,1.125,-1
264716473580,0.0625,0.875,-0.5
264716496089,0.5625,0.8125,0.0625
264716518541,-0.25,1.3125,0.6875
264716533560,-0.5,1.875,1.4375
264716556083,0.5,1.4375,2.1875
264716578612,1.3125,1.25,3
264716593580,2.0625,1.4375,3.5
264716616060,1.5625,1.8125,3.3125
264716638658,1.125,1.75,3.3125
264716653710,1.875,1.4375,2.6875
264716676268,2.25,0.5625,2.875
264716698580,2.125,-0.4375,3.375
264716713583,1.5625,-1.375,2.25
264716736060,-0.9375,-1.3125,1.3125
264716758573,-5.375,-2.3125,0.4375
264716775069,-5.6875,-4,-3.25
264716796273,-6.25,-4.1875,-8.75
264716818750,-14.9375,-3.1875,-14.375
264716833627,-28.4375,-5.125,-20.9375
264716856075,-30.625,-9.6875,-28.25
264716878584,-34.625,-11.0625,-34.75
264716893534,-49.9375,-14.6875,-39.1875
264716916070,-56.1875,-20.875,-38.8125
264716938564,-66.625,-20.875,-43.9375
264716956529,-81.5625,-18.625,-57.375
264716976063,-90.6875,-17.8125,-70.875
264716998648,-94.4375,-16.1875,-82.9375
264717013544,-98.25,-12.9375,-94.75
264717036060,-99.125,-9.375,-105.75
264717058643,-105.062,-5.25,-115.25
264717073601,-112.312,-4.5,-122.875
264717096120,-117.875,0.625,-127.25
264717118576,-126.75,12.75,-130.875
264717133710,-129.688,23.6875,-134.062
264717156098,-132.688,29.375,-130.938
264717178677,-128.75,30.25,-123.562
264717193628,-116.438,29.375,-114.75
264717216109,-97,28.1875,-107.438
264717238554,-92.6875,30.5625,-104.375
264717261872,-102.125,33.625,-106.5
264717276059,-108,35.75,-109.375
264717298592,-106.375,42.0625,-114.625
264717315035,-99.625,45.8125,-114.312
264717336134,-90.5625,49.1875,-110.5
264717358800,-82.8125,52.375,-110.875
264717375123,-72.25,54.375,-111.375
264717396112,-59.375,54.875,-108.125
264717418565,-54.75,58.6875,-100.875
264717435040,-50.6875,59.375,-94.4375
264717456102,-50.625,57.3125,-92.4375
264717478805,-60.1875,54.1875,-98.0625
264717495006,-60.75,51.6875,-103.375
264717516215,-49.9375,53.125,-103.938
264717538565,-40.8125,55.75,-103.625
264717555106,-38.9375,60.5,-107.5
264717576030,-46,62.75,-112.438
264717598556,-48.375,58.375,-115.562
264717615021,-39.125,54.625,-112.438
264717636063,-35.375,55.5,-102.125
264717658674,-34.4375,54.0625,-96.8125
264717675066,-36.9375,45.625,-93.0625
264717696060,-36.6875,31.6875,-81.1875
264717718589,-36.375,18.6875,-70.8125
264717735091,-41.625,10.0625,-58.8125
264717756091,-43.25,7.8125,-46.0625
264717778730,-42.625,4.9375,-34.25
264717795165,-37.6875,3.0625,-20.1875
264717816141,-37.5,-3.625,-7.9375
264717838786,-32.6875,-3.625,-0.375
264717855075,-25,2,4.8125
264717879098,-21.125,6.8125,9.375
264717898635,-13.4375,9.8125,12.5625
264717915088,-1.25,12.625,14.25
264717936182,5.375,11.0625,16.75
264717958690,2.75,10.375,19.75
264717975096,-0.0625,9.375,24.0625
264717996127,3.125,8,26.25
264718018567,13.5625,3.125,26.875
264718035165,16.625,-2,28.4375
264718056227,9.5625,-5.3125,30.1875
264718078627,7.5,-7.4375,33.1875
264718095106,16.5625,-8.8125,40.25
264718116169,25.625,-12.4375,47.125
264718138758,30,-17.125,51.8125
264718161276,27.75,-23.5625,54.3125
264718184282,17.0625,-28.25,57.125
264718198621,17.9375,-31.875,62.125
264718215040,17.75,-34.25,64.4375
264718237528,17.9375,-36.625,61.125
264718258570,25.5625,-35.125,57.125
264718275035,44.125,-29.375,56.4375
264718297516,65.1875,-18.125,57.125
264718318591,69.8125,-15.75,58.375
264718335038,54.6875,-22.5,61
264718357559,41.8125,-27.125,71.3125
264718378634,55,-32.375,89.625
264718395069,74.625,-41,103.562
264718417619,82.4375,-47.25,108.5
264718440126,73.5625,-49.375,117.062
264718455058,62.125,-49.125,127.688
264718477549,60.75,-53.375,135.375
264718498633,65.875,-55.25,136.938
264718515054,70.5,-53.4375,138.625
264718537548,84.9375,-45.25,139.312
264718558587,94.875,-44.75,137.25
264718575007,90.375,-40.6875,134.5
264718597535,85.5625,-34.0625,129.125
264718618602,86.5625,-19.9375,124.625
264718635060,92.1875,-1.0625,117
264718657547,112.688,4.3125,110.625
264718678690,128.062,0.1875,107.812
264718695085,126.688,-7.6875,106.375
264718717526,116,-9.75,107.438
264718738714,99.5,-5.6875,110
264718755037,91.3125,-1.875,114.188
264718777588,93.3125,-4.5,120.062
264718798605,89.5,-14,121.688
264718815075,85.375,-21.1875,115.375
264718837576,90.875,-22.625,107.125
264718858625,87.9375,-20.3125,108.125
264718875086,60.8125,-14.375,107.938
264718897574,50.375,-15.25,103.5
264718918603,56.3125,-18.9375,95.3125
264718935059,61.0625,-17.6875,87.375
264718956534,59.5625,-13.75,78.5625
264718979302,45.1875,-8.1875,71.875
264718994341,25.0625,-7.5,65
264719024290,16.125,-13.25,60.625
264719039309,16,-16.1875,57.125
264719054323,13.9375,-13.8125,50.75
264719076770,7.25,-12.5,41.25
264719107441,6,-15.6875,34.8125
264719114254,4.1875,-12.8125,26
264719136759,-1.5625,-3.75,12.8125
264719159259,-0.9375,4.875,0.125
264719174256,5.375,9,-7
264719196790,9.375,11.375,-9.75
264719219348,9.9375,11.3125,-11.375
264719235779,11.8125,11.125,-11.6875
264719256838,14.6875,14.375,-12.6875
264719287499,14,19.375,-12.5625
264719294264,10.0625,18.3125,-7.0625
264719316788,6.75,14.5,-2.875
264719339259,1.6875,7.1875,-0.3125
264719355773,-2.1875,2.375,1.4375
264719376801,-3.8125,1.9375,1.625
264719399321,-4.125,3.4375,2.9375
264719415733,-5.5625,4.8125,4.8125
264719436808,-3.6875,3.3125,5.125
264719459296,1.125,1.0625,3.5
264719475751,2.25,0.9375,0.6875
264719496833,-1.5,1.125,-1.0625
264719519354,-8.1875,1.5,-0.375
264719535729,-8.75,0.875,0.625
264719556816,-5.0625,0.9375,1.4375
264719579324,-1.5625,1.375,1.5625
264719595705,0,1.9375,0.3125
264719616932,-3.5,4.0625,-1.625
264719639281,-5.6875,6.1875,-1.6875
264719655742,-1.6875,6.8125,-2.125
264719676800,2.5625,6.625,-2.6875
264719699271,2,5.6875,-2.8125
264719723259,1.125,4.3125,-2.0625
264719736833,0.4375,3.5,-1.125
264719759347,-1.75,3.125,-0.3125
264719775753,-1.375,2.3125,0.25
264719796825,1.3125,1.625,-0.375
264719819313,1.3125,1.375,-1.125
264719835734,-0.125,1.5625,-1.6875
264719856762,0.5625,1.3125,-1.8125
264719879330,1.125,1.0625,-1.8125
264719895749,1.125,0.5,-1.8125
264719916812,1.1875,0.375,-1.9375
264719939336,0.5,0.125,-1.9375
264719955716,-1.25,-0.25,-1.5625
264719976742,-1.5,-0.6875,-1.375
264719999331,-1.0625,-0.4375,-1.125
264720015761,1,-0.4375,-1.3125
264720036865,0.5,-0.4375,-1.25
264720059340,0.625,-1.5,0
264720075761,2.6875,-0.8125,-0.5625
264720096665,4.375,-0.1875,-1.125
264720119333,5,0.375,-1.125
264720135085,3.5,0.6875,-1.8125
264720156848,0.1875,0.75,-0.6875
264720179312,0.25,-0.4375,-0.625
264720195070,2.0625,-2.125,-0.375
264720216847,1.375,-3.75,0.6875
264720239282,-1.1875,-5.8125,1.625
264720255043,-4.6875,-6.875,1.9375
264720276770,-8.9375,-8.75,0.9375
264720299243,-9.125,-9.875,-0.5625
264720315118,-7.9375,-10.9375,-3.0625
264720338292,-11.125,-10.5625,-5.75
264720359332,-13.375,-8.1875,-8.5625
264720375150,-12.8125,-7.0625,-11.5625
264720398297,-13.125,-6.625,-16.3125
264720419284,-13.375,-7.0625,-21.5
264720435118,-15,-6.9375,-26.0625
264720458351,-18.6875,-7.375,-30.75
264720479311,-25.3125,-7.5625,-38.0625
264720495069,-33.125,-7.125,-46.9375
264720518226,-42.1875,-4.5625,-55.375
264720539315,-48.5,-1.1875,-65.5625
264720555140,-55.125,2.1875,-76.6875
264720578315,-64.0625,5.0625,-86.6875
264720599349,-68.875,5.5,-97.25
264720615099,-70.4375,7.4375,-104
264720645713,-78.5,9.6875,-109.938
264720659286,-88.375,11.4375,-114.625
264720675121,-90.5,11.9375,-121.5
264720698223,-92.9375,14.625,-130.625
264720719493,-93.5625,18.5,-136.75
264720735087,-96.8125,20.6875,-140.688
264720758246,-106.812,20.25,-141.75
264720779303,-109.375,16.75,-146.188
264720795120,-103.438,14.625,-149.125
264720818259,-102,16.75,-147.938
264720839415,-96.0625,17.875,-142.125
264720855139,-96.875,22.25,-141.125
264720878280,-90.25,25.25,-140.562
264720899283,-77.875,26.5625,-133.5
264720915155,-69.0625,25.8125,-133.062
264720938343,-63.9375,22.625,-121.188
264720966839,-66.125,23.0625,-117.75
264720975274,-74.375,23,-105.875
264720998364,-80.375,15.4375,-101.312
264721019374,-76.9375,4.3125,-97.0625
264721035194,-68.25,-0.4375,-86.3125
264721057609,-59.625,-1.625,-78.3125
264721079512,-46.0625,-6,-69.1875
264721095182,-56.1875,-12.6875,-62.625
264721117574,-72.5,-12,-61.625
264721139311,-74.8125,-1.4375,-66.625
264721155138,-67.3125,12.0625,-73
264721177567,-54.1875,20,-80.5
264721199306,-39,26.5625,-88.375
264721215141,-28.1875,32.3125,-94.375
264721237670,-28.125,39.875,-95.4375
264721260791,-31.9375,44.0625,-91.75
264721275221,-31.3125,42.625,-82.0625
264721297668,-17.6875,35.75,-74.125
264721320765,-13.5,28.1875,-67.6875
264721335132,-18.9375,22.5,-57.375
264721357632,-36,14.8125,-44.625
264721380782,-50.875,6.4375,-30.875
264721395185,-47.9375,0.125,-23.25
264721417656,-40,-7.625,-18.5
264721440837,-28.1875,-16.1875,-9.5
264721455143,-16.375,-18.125,0.9375
264721477609,-13.375,-14.0625,2.625
264721500760,-16.625,-8.3125,4.25
264721515152,-22.5,-8.875,6.4375
264721537743,-20.8125,-8.375,10.4375
264721560745,-3.125,-6.3125,14.8125
264721581842,3.8125,-4.375,16.5625
264721597699,2.875,-5.6875,19
264721620752,-1.375,-6.3125,18.3125
264721641940,-0.25,-3.875,17.9375
264721657621,4.875,-2,16.875
264721680834,5.875,-1.125,16.5625
264721701834,8.3125,-2.8125,19
264721717589,8.4375,-2.25,19.4375
264721740778,6.9375,-1.5,20.4375
264721761846,5,-2.875,23.875
264721777715,6.9375,-5.8125,27.1875
264721800885,11.875,-9.375,31.8125
264721821849,16.8125,-12.6875,36
264721837601,13.9375,-15.5625,41
264721860758,13,-20.6875,48.125
264721881866,18,-25.3125,53.875
264721897712,26.6875,-30.5625,59.25
264721920775,36.5,-34.5,64.0625
264721941918,35.1875,-39.375,68.625
264721957676,22.8125,-42.25,72.3125
264721988349,27.125,-42.625,73
264722001844,37.1875,-46.625,71.875
264722018116,39.75,-53.0625,75.625
264722040136,43.875,-54.1875,80
264722062102,50.6875,-52.25,78.75
264722077719,65.75,-50.9375,74.9375
264722100120,68.875,-55.6875,78.5
264722121849,60.6875,-58.5625,94.8125
264722137647,66,-59.3125,103
264722160356,84.4375,-62.375,104.812
264722181893,87.6875,-68,106
264722197648,87.75,-65.1875,111.5
264722220898,97.5625,-59.6875,116.5
264722243421,104.875,-56,116.125
264722257660,102.062,-51.75,115.688
264722280101,100.125,-49.75,111.312
264722303407,103.5,-47.3125,111.375
264722317665,97,-47.4375,102.125
264722340120,94,-41.4375,103.062
264722363259,96.125,-44.1875,106.938
264722377597,90.5,-45.25,106.75
264722400138,96.75,-40,101.688
264722423349,105.25,-32.1875,88.3125
264722444430,108,-23.1875,77.375
264722460186,99.125,-17.875,82.0625
264722483275,97.5625,-12.5,85.8125
264722504346,107.938,-10.25,79.25
264722520109,110.562,-6.9375,71.4375
264722543307,114.812,-0.625,73.25
264722564400,115.438,10.5,76.75
264722580197,113.938,18.9375,77.3125
264722603310,114.125,21.5,73.9375
264722624509,112.5,20.875,74.9375
264722640181,98.75,20.25,76.75
264722663361,77.875,21.4375,70.1875
264722684387,68,15.6875,62.375
264722700152,68.625,5.125,57.625
264722723359,54.3125,-6.1875,55.5625
264722736188,33.75,-12.375,49.3125
264722759435,23.0625,-16.25,39.875
264722773713,19.8125,-17.8125,32.25
264722796190,12.5625,-17.3125,28.0625
264722819540,5.0625,-14.3125,24.125
264722833698,1.625,-9.8125,19.375
264722856333,1.5,-7.1875,14.875
264722879418,4.5625,-4.875,12.0625
264722893866,6.8125,-3.6875,10.4375
264722916251,6.75,-3.5625,9.125
264722939377,4.0625,-0.1875,4.25
264722953864,2,5.375,-1.5625
264722976191,0.9375,10.875,-6
264722999368,3.125,12.0625,-9.4375
264723013754,7.9375,6.25,-10
264723036323,12.25,0.5,-7.4375
264723059491,8,0.9375,-5.5
264723073717,0.4375,2.9375,-4.4375
264723096242,-5.125,2.6875,-3.5625
264723119417,-8.9375,1.8125,-3.3125
264723133730,-9.0625,0.8125,-2.75
264723156327,-3.5,-0.9375,-1.875
264723179585,1.3125,-1.9375,-1.5
264723193883,0.5,-2.375,-1.875
264723216261,-2.6875,-3,-2.125
264723239394,-3.5625,-3.5,-1.5
264723253888,-3.25,-3.625,-1.6875
264723276411,-3.0625,-3.375,-2.0625
264723299445,-0.9375,-4,-3.375
264723313922,3.125,-5.3125,-4.5625
264723336229,1.9375,-5.9375,-5.8125
264723359546,0.25,-5.5625,-7.6875
264723373850,0.4375,-4.375,-8.0625
264723396448,-2.4375,-2.875,-6.8125
264723419552,-2.75,-2.6875,-6
264723433766,3.125,-2.5,-6.4375
264723456257,10.6875,-1.8125,-6.4375
264723479407,8.625,-0.4375,-5.0625
264723493797,1.4375,0,-5.125
264723516190,-0.1875,-0.75,-4.9375
264723539480,1.1875,-1.3125,-3.9375
264723553923,0.6875,-2.75,-2.75
264723576404,2.8125,-4.5625,-2
264723599345,2.4375,-5,-1.875
264723613767,-0.1875,-5.125,-3.3125
264723636246,-0.25,-5.125,-5.875
264723659477,4.875,-4.1875,-7.5
264723673703,9.375,-2.375,-9.25
264723696301,12.3125,-1.5625,-10.3125
264723719386,14.375,-2.375,-11.6875
264723733715,15.5625,-3.75,-12.375
264723756198,15.0625,-3.375,-11.5
264723779379,10.9375,-2.3125,-8.75
264723793683,9,-2.8125,-7.0625
264723816205,13.25,-6.625,-5.4375
264723839357,14.3125,-9.4375,-3.0625
264723853742,9.625,-12.625,-0.8125
264723876235,3.875,-15.625,0.625
264723899369,-0.5,-16.4375,1.6875
264723913700,-3.75,-16.25,1.6875
264723936305,-5.3125,-15.9375,1.9375
264723959461,-6.5625,-15.6875,1.375
264723973796,-6.4375,-15.0625,0.1875
264723996367,-4.25,-13.125,-0.875
264724019423,-2.0625,-10,-1.5
264724033765,-0.9375,-7.6875,-2.5625
264724056356,1.1875,-6.75,-3.75
264724078815,2.625,-6.5,-5.1875
264724093823,1.875,-5.625,-5.1875
264724116237,-1.0625,-3.5,-3.75
264724138832,-2.5,-2.125,-3.3125
264724153820,-1.625,-1.25,-2.6875
264724176324,0.5,-0.625,-1.625
264724198752,1.875,-0.625,-0.1875
264724213824,2.125,-0.375,0.9375
264724236221,1.25,0.3125,1.9375
264724258789,1.4375,1.25,3.125
264724273880,0.9375,1.4375,3.75
264724296393,0.0625,1.0625,2.9375
264724318795,-0.6875,0.375,2.25
264724333686,1.6875,0.5,1.3125
264724356334,1.3125,1.1875,1.0625
264724378800,-1.3125,0.9375,0.375
264724393791,-1.125,0.1875,-0.0625
264724416211,0.3125,-0.25,-0.1875
264724438914,0.875,0.0625,0.1875
264724453881,0.25,-0.1875,0.125
264724476290,-0.1875,-0.6875,0.25
264724498840,-0.125,-0.875,0.875
264724513864,0,-0.875,2.5
264724536418,-1.6875,-0.8125,3.5625
264724558807,-1.8125,-0.8125,4.5
264724573905,-3.75,-1,6.125
264724596368,-10.4375,-1.75,6.1875
264724618954,-15.875,-1.6875,4.4375
264724633882,-16.5,-0.8125,3.3125
264724656250,-15.125,-0.4375,3.125
264724678816,-13.3125,-0.125,3.375
264724693797,-8.9375,-0.5,4.0625
264724716248,-6.5625,-3.1875,2.75
264724738788,-8.6875,-6.25,-0.875
264724753803,-16.75,-6.875,-3.125
264724776313,-25.125,-5.75,-3.5
264724798767,-27.1875,-6.3125,-2.4375
264724813778,-29.125,-6.6875,-1.0625
264724836364,-37,-11.5,0.75
264724858816,-42.1875,-13.1875,0.125
264724875200,-42.25,-11.6875,-2.8125
264724896208,-43.3125,-8.8125,-1.125
264724918731,-41.875,-11.125,-4.3125
264724935236,-41.8125,-12.875,-6.8125
264724956494,-36.1875,-13,-5.3125
264724978728,-38.5625,-12.625,-6.25
264724995227,-43.1875,-14.4375,-6.4375
264725016252,-44.125,-21.5,-7.5
264725038800,-61.125,-23.3125,-5.125
264725055274,-91.8125,-21.0625,0.6875
264725076386,-97.125,-18.25,0.9375
264725098840,-56.3125,-18.9375,-2
264725115222,-30.625,-23.75,-6.0625
264725136322,-37.875,-27.3125,-4.125
264725158938,-44.4375,-32.3125,-4.75
264725175240,-32.5625,-34.625,-5.3125
264725196407,-29.5625,-35.8125,-5.125
264725218767,-34.0625,-36.8125,-5.9375
264725235244,-37.5625,-37.25,-6.25
264725256233,-33.5625,-38,-4.375
264725278869,-30.9375,-38.0625,-2.6875
264725295236,-30.125,-36.875,-1.875
264725316236,-31.5,-35.5,-2.3125
264725338765,-27.75,-33.625,-3.375
264725355272,-25.5,-33.0625,-3.3125
264725376288,-21.9375,-30,-1.8125
264725398810,-17.5625,-27.75,-0.4375
264725415162,-15,-24.9375,0.375
264725436307,-11.875,-22.1875,-0.875
264725458715,-10.9375,-19.125,-1.25
264725475251,-7.375,-15.5,-0.1875
264725496370,-1.3125,-10.4375,1
264725518821,2.875,-5.5,1.3125
264725535249,0.5,-2.5,1.1875
264725559216,-2.25,-1.0625,2
264725578742,3.1875,-1,2.5
264725595170,9.5625,-1.6875,3.4375
264725624449,8.3125,-1.5,3.75
264725638859,2.6875,-1.8125,3.6875
264725655287,-0.3125,-1.6875,2.9375
264725676229,3.125,-1.5,2
264725698709,4.3125,-1.4375,1.4375
264725715291,1.875,-1.1875,0.4375
264725736335,1.25,-0.75,-0.4375
264725758831,1.125,0.25,-0.6875
264725775382,0.3125,0.8125,-0.5
264725796264,0.875,1.625,-0.25
264725818918,3.3125,1.9375,0.0625
264725835247,5.5625,2.4375,0
264725865850,1,2.8125,0
264725878870,-1.5,2.9375,1.1875
264725895218,3,2.875,1.6875
264725924415,4.6875,2.3125,1.5
264725938810,3.6875,1.9375,1.5625
264725955306,-0.5625,1.5,1.4375
264725977746,-0.375,-0.125,0.625
264725998776,3.6875,-1.1875,-0.0625
264726015276,4.8125,-1.375,-0.1875
264726037756,0.5,-0.8125,-0.375
264726058888,-1.3125,-0.4375,-0.25
264726075263,1.5625,-0.125,0.375
264726097693,3.5,0.25,0.5
264726118949,3.375,0.875,-0.125
264726135201,0.875,1.1875,-0.25
264726157707,2.125,-0.0625,-0.4375
264726178722,2.6875,-1.1875,0.125
264726195249,2.625,-2.0625,-0.25
264726217751,0.8125,-2.125,-1.1875
264726238746,-0.5625,-1.1875,-1.5625
264726255191,0.0625,-0.4375,-1.1875
264726277662,0.6875,0.3125,-0.625
264726298933,1.3125,1,-0.5625
264726315185,1.3125,1.5625,-0.6875
264726337760,1,1.625,-0.9375
264726358974,0.9375,1.25,-0.5625
264726375217,2.125,0.3125,0.0625
264726397758,1.875,-0.5625,0.4375
264726418998,2.625,-1,1
264726435302,3.75,0.3125,1.5625
264726457778,1.8125,1.8125,0.8125
264726481720,0.125,2.875,0.3125
264726494499,3.25,3,0.625
264726516910,4.25,2.1875,1.1875
264726539483,0.6875,0.25,1.9375
264726554462,-0.75,-1.9375,2.125
264726577150,0.625,-2.5625,2.4375
264726599472,4.3125,-2.5625,1.8125
264726614527,4.625,-1.5625,1.125
264726637017,0.5,-1.1875,0.3125
264726659563,0,0.25,0
264726674514,-1.25,1,-1.5625
264726697039,-0.9375,1.0625,-1.6875
264726719467,1.25,0.5,-0.5
264726734477,1.8125,-0.125,0.375
264726757000,0.5625,-0.875,0.0625
264726779529,0.25,-1.6875,-0.125
264726794513,1.25,-1.875,-0.0625
264726816938,0.75,-1.5,0
264726839476,0.875,-1.375,0.25
264726854524,0.8125,-1.0625,0.875
264726877147,1.4375,-0.5,0.4375
264726899467,-0.625,0.3125,0
264726915907,-0.25,0.9375,0.25
264726937080,1.25,0.75,0.25
264726959648,0.5,0.1875,0.0625
264726975979,0.0625,0.0625,-0.6875
264726997008,0.1875,-0.375,-0.1875
264727019627,-1.375,-0.1875,0.5
264727043423,0.0625,0,0.625
264727057105,2.25,-0.1875,0.5625
264727079422,1.875,-0.125,0.3125
264727095979,-0.3125,0.1875,0.0625
264727116963,0.3125,0.0625,-0.1875
264727139594,-0.875,-0.6875,-0.5625
264727156003,0.0625,-0.8125,-0.5625
264727176973,2.5,-0.9375,-0.125
264727199520,1.6875,-0.5,-0.0625
264727215972,-0.9375,-0.1875,-0.3125
264727237070,-2.0625,-0.0625,-0.5625
264727259548,-0.4375,-0.5625,0.1875
264727275947,1.75,-0.8125,0.8125
264727297168,1.125,-0.5625,0.875
264727319444,-1.0625,-0.4375,0.875
264727335983,-2.0625,-0.25,0.9375
264727357050,-0.4375,-0.5625,0.875
264727379521,0.0625,-0.8125,1
264727395956,0.875,-1.0625,0.5625
264727416998,0.625,-1.3125,0.625
264727439466,-0.875,-1.4375,0.5
264727455914,-0.8125,-2.3125,1.5625
264727477077,4,-1.375,1.125
264727499507,0.25,-1.1875,0.6875
264727515917,0.3125,-1.625,0.8125
264727537037,0.75,-1.5,1.375
264727559664,2.0625,-2.125,1.1875
264727575950,3,-2.0625,1.25
264727596961,1.5,-2.0625,1.375
264727619511,1.4375,-2.4375,1.8125
264727635961,2.0625,-2.5,1.375
264727656945,1.9375,-2.4375,1.5
264727679574,2.5,-2.3125,1.3125
264727695262,1.5,-1.9375,1.25
264727716991,0.9375,-1.4375,0.875
264727739565,0.875,-0.6875,0.5625
264727755277,0.25,-0.4375,0.0625
264727776992,0.4375,-0.625,-0.25
264727799469,0.6875,-0.1875,-0.25
264727815313,-0.25,0.625,-0.5625
264727836834,-1,1.3125,-0.5
264727859495,-0.1875,1.8125,-0.625
264727875363,0.0625,1.5625,-0.6875
264727898437,0.125,1,-0.9375
264727919637,0.5,1,-1.125
264727935367,0.1875,0.9375,-0.875
264727958467,0.125,1.8125,-0.6875
264727979536,-0.375,1.5,-0.75
264727995286,0.5,1.25,-0.5625
264728018533,1.125,1.0625,-0.375
264728039515,1.75,1.25,-0.3125
264728055308,1.75,1.875,-0.875
264728078423,0,2.625,-1.25
264728099619,-0.875,2.75,-1.4375
264728115286,0.5,2.0625,-1.3125
264728138509,1.125,1.5,-1.0625
264728159749,-0.625,1.3125,-0.875
264728175294,-0.3125,1.0625,-0.4375
264728198474,0.25,1.5,-0.25
264728219428,0.375,1.625,-0.375
264728235256,-0.3125,1.5,-0.125
264728258455,0.5,1.25,0.1875
264728279617,0.9375,1,0.25
264728295331,-1,0.9375,0.375
264728325962,-0.5625,1.0625,0.125
264728339550,1.3125,0.9375,0.25
264728355258,-0.5625,-0.25,0.9375
264728378479,1.9375,-2.0625,2.25
264728399600,2.375,-2.3125,3.125
264728415298,4.25,-3.1875,2.375
264728438485,5.5625,-2.6875,1.5625
264728459663,2.1875,-0.5,1.0625
264728475310,3.375,1.5625,-0.5
264728498523,4.4375,2.625,-1.5625
264728519632,-0.1875,2.6875,-2.4375
264728535357,-5.0625,2.625,-1.875
264728558483,0.1875,1.625,-1.3125
264728579568,2.1875,0.625,0.625
264728595288,2,-0.9375,2.6875
264728618397,0.5,-1.75,2.875
264728639649,-1.8125,-2,2.1875
264728655307,1.75,-2.8125,0.6875
264728677805,3.875,-1.6875,-0.375
264728699612,4.0625,-0.625,-1.0625
264728715263,3.625,0.1875,-1.875
264728737803,2,0.75,-1.3125
264728759573,3,1.4375,-0.375
264728775302,3.5,1.875,0.5625
264728797804,5.75,2.125,1.375
264728820988,5.9375,2.0625,0.75
264728835275,5.0625,2.125,-0.3125
264728857796,8.125,3.1875,-0.5625
264728881037,13.8125,4.5,1.4375
264728895270,16.9375,5.3125,3.25
264728917805,19.375,5.1875,3.8125
264728940994,14.0625,4.375,2.8125
264728955278,9.875,2.8125,2.6875
264728977888,15.125,2.5,2.5625
264729000988,26.625,2.375,1.75
264729015301,31.0625,3.6875,3.125
264729037835,29.5,4.9375,4.625
264729060965,26.25,6.4375,2.6875
264729075285,21.0625,8.25,-2.125
264729097960,19.0625,9.4375,-3.0625
264729121052,14.0625,12.8125,-0.75
264729142162,18.125,13.25,0.1875
264729157899,29.25,11.3125,0.0625
264729180988,31.4375,8.0625,0.6875
264729201941,28.125,3.4375,0
264729217779,32.8125,-1.75,-1.5625
264729248495,27.6875,-1,-3.5625
264729262077,16,0.5,-4.875
264729277868,10.0625,2.9375,-6.125
264729300952,13.5625,6.375,-7
264729321961,15,12.0625,-7.9375
264729337829,15.625,17,-8.5625
264729361036,15.6875,19.3125,-9.1875
264729382116,16.1875,18.9375,-9.75
264729397835,18.875,16.4375,-9.25
264729420922,18.5,13.8125,-8.1875
264729441997,16.4375,10.1875,-7.0625
264729457826,17.75,6.5625,-6.1875
264729480994,18.3125,4.75,-4
264729502017,13.9375,2.5625,-3.125
264729517805,10.875,1.3125,-3.8125
264729541031,10.6875,1.625,-3.375
264729562057,12.5,3.125,-1.0625
264729577773,15.5625,4.1875,3.3125
264729600273,12.4375,5.375,6.625
264729621967,11.125,4.25,6.5
264729637784,14.5625,2.375,5.625
264729660384,14.75,-0.125,5.75
264729682071,16.625,-1.5,5.875
264729697744,17.5,-0.6875,6.3125
264729720366,13.8125,1.0625,5.75
264729742235,7.9375,2.8125,3.875
264729757868,2.8125,4,0.875
264729780430,-1.1875,5.5625,-1.375
264729803522,1.875,6.8125,-2.5625
264729817783,2.8125,7.625,-3.3125
264729840355,0.5,7.4375,-3.1875
264729863483,-1.4375,7.0625,-2.75
264729877800,-1.0625,5.8125,-2.0625
264729900319,1.75,4.0625,-1.0625
264729923581,3.0625,2.5625,0.3125
264729937773,0.25,1.9375,0.8125
264729960262,-2.25,1.5,1
264729983437,-1.9375,1,1
264729997752,-1.25,0.8125,1.6875
264730020331,-0.125,-0.75,1.75
264730043543,1.25,-2.6875,1.75
264730065973,0.5,-3.875,1.5625
264730080717,-0.8125,-4.75,0.875
264730103414,-0.0625,-4.75,0.125
264730117831,0,-4.3125,0.125
264730140797,-1.375,-3.0625,-0.5
264730163568,-2.625,-1.8125,-0.4375
264730177866,-3.625,-1,0.125
264730200258,-7,-0.3125,-0.8125
264730223628,-6.9375,0,-3.375
264730246007,-9.625,0.75,-3.3125
264730260263,-9.875,2.125,-2.25
264730283920,-4.375,3.6875,-1.375
264730296423,-2.1875,5,-0.6875
264730319638,-4.9375,6.25,-1.125
264730333858,-7.8125,7.375,-1.5
264730356403,-7.125,8.25,-2
264730387758,-4.125,8.25,-1.5625
264730393867,-1.5,7.5625,-1.375
264730416377,-1.75,6.625,-1.3125
264730439592,-1.25,5.5,-1.0625
264730453880,-0.8125,5.0625,-0.5
264730485166,0.0625,4.1875,-0.375
264730499662,-0.5,3.5625,-0.5625
264730513887,-0.0625,2.8125,-0.375
264730536345,-0.8125,2.125,-0.3125
264730559594,-0.8125,1.1875,-0.5
264730573961,0.875,0.25,-0.5625
264730596333,1.4375,-0.3125,-0.0625
264730619550,0.125,-0.75,0.0625
264730633876,-0.625,-1.3125,0.0625
264730656385,-0.25,-1.625,0.25
264730679568,1.25,-1.8125,0.625
264730693837,2.5625,-2,1.1875
264730716364,2.125,-2.0625,1.875
264730739590,1.1875,-2.5625,1.9375
264730753989,1.5625,-2.875,2.125
264730776568,1.5,-2.6875,2.0625
264730799568,1.6875,-2.5625,2.1875
264730813979,1.25,-2.1875,1.875
264730836313,1.375,-2.125,1.25
264730859623,0.625,-2.5,0.8125
264730874020,-0.25,-3.125,0.6875
264730896390,0.75,-3.5,0.0625
264730927686,1.75,-3.4375,-0.125
264730933868,1.5,-2.25,-0.125
264730956341,0.3125,-1.75,0.0625
264730979691,-0.0625,-1.125,-0.0625
264730993901,-0.8125,-0.6875,-0.0625
264731016366,-0.4375,-0.625,0.0625
264731039604,1.0625,-0.5625,0.625
264731053947,1.125,-0.375,1.25
264731076492,0.625,-0.5,1.5
264731099622,0.5,-0.5,1.6875
264731113935,1.125,-0.4375,1.625
264731136451,1.0625,-0.125,2.1875
264731159583,0.3125,0.5625,1.9375
264731173939,0.1875,0.1875,1.125
264731196418,0.375,-0.5,0.3125
264731219537,-0.375,-0.6875,-0.0625
264731233905,-0.1875,-0.75,-0.6875
264731256417,-0.3125,-0.5625,-1.0625
264731279594,-0.0625,-0.625,-1.0625
264731293851,-0.125,-0.0625,-0.6875
