myot,x,y,z
609102781178,-0.125,-0.0625,-0.0625
609102795593,-0.125,0,0
609102819263,0.1875,-0.0625,-0.0625
609102840637,0,0,-0.0625
609102855566,-0.0625,0.0625,-0.0625
609102879258,0,0,-0.0625
609102933302,-0.0625,-0.0625,0
609102934089,-0.0625,-0.0625,0
609102935708,0.0625,0,-0.0625
609102954884,-0.0625,0.0625,0
609102976264,-0.0625,0.0625,0.0625
609102990619,0,-0.0625,0.125
609103014231,0.0625,-0.125,0
609103043684,0.1875,-0.125,0
609103053997,0.1875,-0.1875,0
609103073547,-0.0625,-0.1875,0
609103096179,-0.0625,0,-0.125
609103111158,0,0,-0.125
609103133588,0.0625,0.125,-0.125
609103156201,0.0625,0.0625,-0.125
609103171115,-0.125,0.125,0.0625
609103193661,-0.0625,0.0625,0.0625
609103216108,0,0.125,0.0625
609103231085,0,0.125,0
609103253563,0,0,0
609103275923,0,0,0.125
609103294038,-0.0625,-0.0625,0.125
609103313687,0,-0.125,0
609103336049,0.125,-0.1875,0.0625
609103351148,0.0625,-0.125,0
609103373601,-0.125,-0.0625,0.0625
609103396043,-0.0625,-0.0625,0.0625
609103410413,0.0625,0.0625,-0.125
609103433567,0.125,0,-0.1875
609103456085,0,0.125,-0.1875
609103470395,-0.1875,0.125,-0.25
609103493596,0,0.125,-0.25
609103516074,0.0625,0.0625,-0.25
609103530452,0,0,-0.125
609103553550,-0.0625,0,-0.125
609103576094,-0.1875,-0.125,-0.3125
609103590396,0.3125,-0.1875,-0.375
609103613562,0.0625,-0.625,-0.3125
609103636118,0,-1.0625,0
609103650414,-0.3125,-1.3125,-0.625
609103673555,0.6875,-1.6875,-1.375
609103696524,0.875,-2.375,-1.625
609103710492,1.3125,-2.6875,-2.1875
609103733661,-0.125,-2.9375,-2.8125
609103756113,-1.75,-3.0625,-3.3125
609103770503,0.4375,-2.8125,-3.875
609103793639,0.6875,-2.375,-4.75
609103816085,-0.375,-2,-5.625
609103830521,1,-1.5,-4.9375
609103853658,-0.3125,-1,-3.8125
609103876127,-1,-0.5625,-2.875
609103890426,-0.375,-0.25,-2.3125
609103913601,-0.0625,-0.125,-2.4375
609103936051,0.4375,0.25,-2.5
609103950390,0.6875,0.5,-2.6875
609103973604,-0.1875,0.625,-2.5625
609103996096,-1.125,0.625,-2.5
609104010424,-0.5,0.5,-2.5625
609104032916,-0.25,0.4375,-2.5
609104055434,-0.5625,0.4375,-2.375
609104070419,-0.25,0.5,-2
609104092914,-0.875,0.6875,-1.8125
609104115433,-0.125,0.875,-1.375
609104130457,0.1875,1.1875,-1.0625
609104152962,-0.0625,1.5625,-0.6875
609104175475,-0.25,2,-0.5
609104190395,-0.0625,2.25,-0.3125
609104212966,0.9375,2.125,-0.75
609104235422,4.5625,1.625,-1.8125
609104250439,7.875,2,-2.8125
609104272951,6.875,2.5,-3.9375
609104295467,6,3.0625,-4.25
609104310413,5.5,3.5625,-3.625
609104332935,0.375,4.75,-1.375
609104355431,-4,5.875,-0.0625
609104370472,-2.3125,6.25,0.6875
609104392948,-2.5,7.6875,0.0625
609104416926,-2.5625,8.1875,-1.4375
609104430442,-0.1875,8.25,-3
609104452911,0.9375,8.3125,-3.625
609104475400,0.5625,8.4375,-3.5625
609104490435,0.5,8.5625,-3.375
609104521113,0.5,8.6875,-3.25
609104535384,1.5,9,-3.1875
609104550440,4.875,9,-3.8125
609104572923,9.625,9.125,-4.4375
609104595438,13.8125,9.25,-5.4375
609104610453,15,8.875,-6.9375
609104632939,17.0625,9.25,-6.9375
609104655385,16.625,10.4375,-5.75
609104671886,13.9375,11.625,-3.625
609104692923,13.3125,13.3125,-2.125
609104723607,11.5,15.125,-1.4375
609104731887,9.25,16.75,-1.6875
609104752956,9.625,18.4375,-1.5625
609104775433,8.4375,20.1875,-2.125
609104791902,5.1875,22.5,-2.3125
609104812925,2.25,23.8125,-3.1875
609104835457,2,24.5625,-4.125
609104851887,3.75,23.5625,-4.9375
609104872932,11.3125,23.6875,-3.9375
609104895451,13.125,23.75,-3.1875
609104911910,12.625,23.75,-2.3125
609104932935,10.6875,24.5625,-2
609104955430,7.1875,24.0625,-2.8125
609104971924,7.75,23.5,-2.3125
609104992927,7.625,23.1875,-1.625
609105015447,5.8125,23,-0.75
609105031899,3.375,22.75,-0.5
609105052939,0.125,22.125,-0.8125
609105075475,-0.1875,22,-0.0625
609105091891,-1.875,21.875,1
609105112946,-6.6875,22,2.0625
609105135442,-8.625,21,3.5625
609105151893,-6.9375,20.0625,3.8125
609105172966,-9,18.625,2.125
609105195473,-6.4375,19.0625,1.9375
609105211917,-6.75,19.875,1.0625
609105232964,-9.8125,20.25,-0.3125
609105255443,-10.875,19.125,-1.1875
609105271891,-8.25,17.5625,-0.875
609105292923,-6.3125,17.25,-1.625
609105315487,-8.5,17.5,-2.125
609105339365,-8.5,16.375,-0.9375
609105352952,-8.5625,12.9375,-2
609105375465,-1.9375,9.25,-2.25
609105391946,4.0625,7.875,-1.75
609105412928,5.9375,7.8125,-2.25
609105435473,1.75,6.375,-3.6875
609105451920,0.8125,5,-3.75
609105472944,3.75,4.25,-3.5
609105495454,3.875,3.8125,-3.5625
609105511900,1.9375,3.5,-3.1875
609105532944,-2.5625,3.0625,-3.75
609105555416,-8.125,2.625,-3.625
609105571881,-4.375,1.6875,-3.25
609105594377,-1.25,0.875,-3.125
609105615498,0.25,0.125,-3.5625
609105631888,1.5625,-0.5,-4.3125
609105654388,-0.125,-0.875,-6.375
609105675476,-2.625,-1.125,-7.8125
609105691936,1,-0.9375,-8
609105714413,3.0625,-1.3125,-8.5
609105735486,7.0625,-1.5625,-8.9375
609105751900,8.1875,-1.875,-8.5
609105781892,6.6875,-1.6875,-7.9375
609105795461,3.3125,-1.5,-7.3125
609105811915,2.6875,-1.5,-6.5625
609105834412,1.1875,-1.4375,-5.75
609105858334,0.375,-1.375,-5.3125
609105871889,-0.0625,-1.1875,-4.75
609105894396,-1.625,-0.625,-5.0625
609105915430,-4.125,-0.375,-4.6875
609105931887,-1.0625,-0.5,-3.8125
609105954398,-1.6875,-0.3125,-3.625
609105975556,-1.375,-0.0625,-3.6875
609105991885,0.5,-0.25,-3.3125
609106014363,0.0625,0,-3.125
609106035551,-0.1875,0,-2.5625
609106051948,0.75,0.125,-1.8125
609106074456,-0.9375,0.25,-1.1875
609106095464,-0.875,0.125,-0.6875
609106111932,-1.3125,0.1875,-0.375
609106134439,-1.0625,0.1875,0.125
609106155480,-0.6875,0.0625,0.3125
609106171906,-0.75,0.1875,0.5625
609106194418,-2.0625,0.1875,0.5625
609106215461,-0.9375,-0.0625,0.75
609106231914,0.125,-0.3125,0.6875
609106254413,0.6875,-0.3125,0.375
609106275485,1,-0.4375,0.25
609106291914,0.6875,-0.25,0.0625
609106314391,-0.8125,-0.125,0.1875
609106335447,-0.75,-0.25,0.25
609106351890,0.4375,-0.25,0.5
609106374389,0.6875,-0.0625,0.4375
609106395493,-0.1875,0.0625,-0.0625
609106411142,-0.25,-0.3125,-0.625
609106433614,1.5625,-0.4375,-1
609106456186,0.75,-0.375,-1.0625
609106471111,-0.375,-0.375,-0.75
609106493611,1.25,-0.25,-0.5
609106516164,0.9375,-0.25,-0.8125
609106531085,0.625,0.0625,-0.6875
609106553658,0.5625,-0.1875,-0.625
609106576143,0.625,0,-0.375
609106591178,-0.0625,-0.125,-0.1875
609106613647,-0.5,0,0
609106636141,0,0.0625,0.0625
609106651328,0.375,0.125,0.125
609106673743,-0.125,0.25,0.125
609106696144,-0.125,0.25,0.25
609106711245,-0.4375,0.125,0.5
609106733766,-0.6875,0.0625,0.6875
609106756196,-0.625,0,0.6875
609106773090,0.125,-0.1875,0.4375
609106793671,0.875,-0.1875,0.1875
609106816274,0.4375,-0.125,0
609106832657,-0.4375,0,-0.125
609106853646,-0.5,0.0625,-0.375
609106876133,0.1875,0.0625,-0.3125
609106892572,0.5,-0.1875,-0.3125
609106913634,0.5625,-0.0625,-0.3125
609106936180,0.1875,0.0625,-0.1875
609106952607,-0.125,0.25,0.0625
609106973625,-0.5,0.25,0.1875
609106996137,0.125,0.125,0.1875
609107012553,0.125,0,0.375
609107033613,-0.25,-0.0625,0.375
609107056115,0,-0.1875,0.4375
609107072540,-0.375,-0.1875,0.375
609107093779,-0.0625,-0.0625,0.3125
609107116166,-0.125,0.0625,0.625
609107132680,-0.75,0.25,0.875
609107153713,-0.6875,0.5,0.5625
609107176178,0.875,1.0625,-0.5625
609107192677,3.125,1.9375,-2.1875
609107213723,3.3125,2.3125,-3.875
609107236150,1.5,2.0625,-5.1875
609107252603,-0.1875,1.25,-5.6875
609107273673,-0.75,0.5625,-5.375
609107296124,-0.875,-0.3125,-4.6875
609107312554,0.375,-0.875,-3.4375
609107333687,0.5,-1.25,-2.1875
609107356160,0.3125,-1.0625,-0.5625
609107372585,-0.6875,-0.875,0.75
609107393670,-1.625,-0.4375,1.8125
609107416177,-1.3125,0.0625,2.5
609107432591,-0.8125,0.5,2.5625
609107453693,-1.1875,0.5625,1.875
609107476175,0.1875,0.3125,1.4375
609107491980,0.5,0.0625,0.625
609107513759,-0.0625,-0.1875,0
609107536220,-0.125,-0.3125,-0.6875
609107552033,0.5,-0.375,-0.9375
609107573735,0.625,-0.25,-0.8125
609107596209,0.25,-0.1875,-0.5
609107612002,-0.125,-0.25,-0.1875
609107633770,0.1875,-0.1875,0.1875
609107656261,0.4375,0,0.375
609107671999,-0.125,0.3125,0.4375
609107695109,-0.4375,0.5,0.5625
609107715960,-1.25,0.6875,0.75
609107731918,-1.1875,0.5625,0.875
609107755160,0,-0.0625,0.9375
609107776248,0.125,-0.9375,0.75
609107791985,0.5,-1.625,0.5
609107815111,0.75,-1.8125,0.25
609107836149,-0.6875,-2.375,-0.625
609107851986,1.25,-3.4375,-1.125
609107875186,3.5625,-4.0625,-1.375
609107903771,2.625,-3.9375,-1.6875
609107912018,0.5,-3.3125,-1.75
609107935148,-0.3125,-2.5625,-1.9375
609107956233,0.25,-1.6875,-2.1875
609107971992,1.125,-1.0625,-2.375
609107995137,0.6875,-0.625,-2.875
609108016163,1,-0.125,-3.125
609108031962,0.625,0.5,-3.3125
609108055112,-0.6875,1,-3.125
609108076173,-0.75,1,-2.5
609108091940,0.625,0.9375,-1.25
609108115089,-1.125,1.1875,-0.1875
609108136142,-1.375,1.5,1.4375
609108151906,-1.875,2.5625,3.0625
609108175167,-4.875,4.3125,3.375
609108196180,-7.9375,7,3
609108211944,-4.875,9.6875,4.25
609108242676,1.375,12.4375,6.4375
609108256227,0.25,15.0625,7.9375
609108280172,-2.5625,16.375,10.3125
609108294435,-1.375,17.6875,13.1875
609108316252,-6,21.0625,14.9375
609108331990,-4.5625,24.625,16.75
609108355191,-0.5,29.625,19.75
609108376147,-1.125,34.3125,22.125
609108391910,-3.9375,37.75,22.875
609108414545,-5.875,42.3125,23.3125
609108436163,-6.5,46.1875,21.75
609108451965,-4.9375,45.4375,21.6875
609108474458,12.0625,45.3125,20.125
609108496171,4.9375,42.875,13.4375
609108511962,-9.625,40.8125,9.5
609108534469,8.5625,39.375,9.5625
609108556176,28.3125,41.0625,6.4375
609108571974,14.5625,39.9375,0
609108594460,4.9375,32.1875,-5.5625
609108617639,2.125,22.75,-7.1875
609108632057,7.375,18.125,-5.5625
609108654546,10.875,14.3125,-5.5
609108677654,6.6875,5.75,-12.125
609108692028,11.8125,-3.4375,-15.375
609108721263,14.75,-8.5625,-16.375
609108737737,11.8125,-13.5625,-15.6875
609108751950,9.3125,-15.3125,-17.0625
609108774495,2.3125,-17,-18
609108797698,6.9375,-15.5,-13.125
609108827601,18.4375,-6.375,-3.1875
609108834439,1.3125,9.125,10.75
609108857603,-117.75,10.9375,48.6875
609108871930,-153.188,-14.125,81.3125
609108894487,-142.875,-30.6875,108.375
609108917637,-98.5,-56.125,123.125
609108938793,1.9375,-66.6875,139
609108954487,118.875,-71.0625,145.188
609108977626,175.375,-59.0625,140.375
609108998764,135.75,-52,104.5
609109014439,68.4375,-47.9375,64.875
609109037707,53.0625,-42.75,37.125
609109058713,81.4375,-43.375,7.25
609109074518,84.75,-32.9375,-25.3125
609109097616,54.5625,-22.4375,-39.6875
609109118664,115.562,-4.5625,-34.375
609109134434,52.5,-6.9375,-41.5
609109157590,-5.25,-4.625,-38.1875
609109178683,18.25,-2.625,-31.4375
609109194537,42.75,-5.125,-28.375
609109217722,45.6875,-5.5625,-18.5
609109240213,26.1875,-4,-9.375
609109254495,5.25,3.1875,-4.125
609109277751,-25.5625,9.3125,-6.8125
609109298779,-33,5.0625,-14.375
609109314506,4.5625,-0.4375,-16.3125
609109337736,45.3125,-0.625,-12.8125
609109358774,33.1875,3.3125,-9.9375
609109374474,-8,4.5,-8.5625
609109396992,-7.875,3.5625,-7.5625
609109418667,15.5,2.5625,-11.9375
609109434484,26.9375,1.8125,-13.5625
609109457095,25.5,0.375,-16.6875
609109478741,26.0625,1.9375,-20.625
609109494537,27.5625,4.25,-20.375
609109516986,31.875,7.1875,-22.3125
609109538833,28.8125,7.625,-25.625
609109554599,35.4375,7.8125,-27.6875
609109577022,43.25,8.3125,-29.5625
609109600201,33.6875,5.875,-31.125
609109614523,36.9375,5.4375,-28.0625
609109636954,49.375,6.0625,-26.5
609109659912,50.1875,7.1875,-25.0625
609109674435,41.625,8.875,-24.8125
609109697018,25.25,9.8125,-25.0625
609109720190,6.5,12.125,-25.3125
609109742667,-4.6875,15.4375,-22.8125
609109757009,-32.0625,21.3125,-18.375
609109780216,-29,18.9375,-21.125
609109794611,-20.125,15.25,-23.25
609109817041,-15.75,10.75,-26.6875
609109847741,3.9375,8.6875,-28.875
609109861233,35.25,10.4375,-29.9375
609109876965,27.9375,11.625,-35.3125
609109900184,26.375,12.0625,-37.875
609109921339,20.625,12.6875,-36.375
609109936991,14.1875,14.5,-28.1875
609109960136,6.9375,15.5,-19.75
609109981201,12.1875,11.6875,-9.9375
609109997021,25.9375,6.8125,-1.75
609110020165,30.375,6.5625,8.1875
609110041349,27.3125,-3.1875,13.5
609110056311,20.25,-2.3125,2.3125
609110070581,-8.75,10.8125,-8.875
609110093086,17.75,5.75,7.625
609110116293,19.4375,-11.125,20.5
609110130697,-26.5,-14.875,23.1875
609110153076,-15.6875,-16.5625,20.0625
609110176257,19.875,-17.5625,12.125
609110190628,24,-14.0625,7.9375
609110213106,2.5625,-12.875,7.1875
609110236297,-7.6875,-13.1875,10.625
609110259500,-6.125,-12.625,14.125
609110273026,-3.8125,-9.6875,13.5
609110296174,-4,-11.25,12.25
609110310561,5,-11,12.8125
609110333692,4.125,-6.1875,14.9375
609110356195,-11.3125,-4.1875,19.9375
609110370555,-20.375,-6.0625,23
609110393164,-5.1875,-5.625,23.0625
609110416302,4.4375,-3.625,20.625
609110430649,9.3125,-5,21.3125
609110453111,12.375,-6.625,22.1875
609110476315,11.5625,-6.0625,22
609110498731,13.3125,-4.25,21.5
609110513192,16.125,-4.25,19.0625
609110536291,18.0625,-4,17.5
609110550664,6.875,-2.25,14.1875
609110573077,-4.1875,-2.0625,8.625
609110596246,3.6875,-1.1875,7.8125
609110618719,-1.6875,-1,1.875
609110633105,5.25,-0.375,-3.4375
609110656284,13,-0.0625,-3.875
609110670681,4.8125,0.25,-3.25
609110693044,1.875,0.5,-0.1875
609110716294,1,1.0625,2.25
609110730562,2.125,1.5,4.5625
609110753116,2.125,1.1875,6.25
609110776265,-5.9375,1.25,4.8125
609110790642,-0.0625,2.5,5.9375
609110813086,-1.5,3.0625,4.75
609110836213,-0.9375,2.8125,2.9375
609110850597,1.625,2.25,2.125
609110874505,6.25,1.375,1.3125
609110896199,2.25,-0.1875,-0.5
609110910571,2.125,-0.5625,-2.8125
609110933072,1.9375,-0.75,-2
609110956220,-0.125,-1.125,-1.5625
609110971987,0.6875,-1.3125,-0.625
609110993078,0,-1.1875,0.0625
609111016210,-1.0625,-1.125,0.1875
609111030698,-0.1875,-0.5,-1.1875
609111053067,-2.4375,-0.5625,-2.625
609111076283,0.5625,-0.875,-2.9375
609111090550,1,-0.5,-3.25
609111113106,2.75,-0.9375,-3.25
609111136248,3.0625,-1.625,-3.625
609111150598,5.5625,-1.1875,-3.625
609111173117,2.375,-1,-3.4375
609111196335,1.8125,-1.0625,-4.4375
609111210570,6.4375,-1.4375,-3.75
609111233161,3.125,-1.375,-3.75
609111256214,3,-1.5625,-3.5
609111270638,3.5625,-1.0625,-3.625
609111293080,2.4375,-1.5625,-4.6875
609111316252,4.9375,-1.5625,-3.875
609111330744,3.625,-1.75,-3.625
609111353086,1.5,-1.125,-2.625
609111375531,2.5,-0.75,-1.875
609111390600,2.375,-0.75,-0.75
609111413070,0.0625,-0.9375,-0.75
609111436313,-0.875,-1.3125,0.25
609111450702,-0.3125,-0.5625,-0.6875
609111473061,-0.875,0,-1.125
609111495641,0.9375,0.25,-2.25
609111510601,-1.25,0.5625,-2.6875
609111533093,1.6875,1.3125,-3.75
609111555688,1.125,1.4375,-6.25
609111571992,2.375,2.6875,-6.8125
609111593136,4.9375,2,-7.125
609111615644,5.375,-0.3125,-5.9375
609111630587,0.8125,-0.8125,-2.6875
609111653097,-8.375,-0.9375,-8.125
609111675546,0.375,0.1875,-11.125
609111690696,-12.375,2.3125,-14.0625
609111713182,-6.875,0.3125,-17.25
609111735549,18.125,-0.3125,-21.4375
609111750667,18.9375,3.0625,-20.375
609111773151,3.0625,3.8125,-21.8125
609111795647,14,3.9375,-20.125
609111810675,17.875,3.8125,-16.875
609111833133,-2.9375,2.25,-14
609111855645,-1.8125,3.5,-7.1875
609111870555,4.875,-0.3125,-1.375
609111894485,-6.875,-1.25,0.4375
609111915563,-16.5,-1.1875,3.25
609111930580,-23.75,1.0625,12.5
609111953082,-51.125,0.4375,20.75
609111975647,-68.6875,0.75,31.5625
609111990728,-61.4375,-3.0625,33.125
609112013154,-36.125,-2.1875,32.0625
609112035679,-27.125,-0.875,30
609112050692,-39.5,-1.5,27
609112073169,-37.125,-1.25,26
609112095717,-25.3125,-3.4375,21.25
609112110676,-12.5,-6.4375,14.1875
609112133084,-0.25,-5.75,8.3125
609112155643,-10.375,-7.75,5.5625
609112170689,-4.0625,-11.4375,6.5
609112193119,0.75,-12.8125,7.5
609112215618,-4.6875,-12.5,9.1875
609112232020,-7.0625,-11.9375,9.3125
609112253060,-12,-15.6875,6.125
609112275593,-11.3125,-18.6875,2.25
609112292139,6.6875,-18.625,1.25
609112313186,3.625,-18.4375,1.5625
609112335646,-2,-17.625,2.375
609112352121,-16.6875,-18.4375,2.875
609112373141,-11.75,-24.25,-0.875
609112395648,21.8125,-27.0625,-11.1875
609112412094,24.5625,-28.6875,-15.6875
609112433156,12.5,-26.9375,-15.3125
609112455663,13.6875,-24.4375,-11.125
609112472038,3.75,-18.25,-12.6875
609112493137,-15.375,-19.625,-18.8125
609112515604,-0.0625,-21.9375,-24.8125
609112532066,17.6875,-21.5625,-26.1875
609112553114,-2.8125,-18.0625,-25.75
609112575623,-28.125,-16.3125,-21.625
609112592022,-10,-15.375,-17.75
609112613170,-3.75,-10.4375,-11.5
609112635595,-10.5,-9.1875,-9.375
609112652013,-5.75,-7.125,-13.8125
609112673147,-29.875,-4.625,-16.125
609112695670,-38.1875,1.5,1.5625
609112719634,-93.4375,25.8125,28.1875
609112733076,-125.438,27.375,46.25
609112755694,-171,20.4375,74.625
609112772131,-194.25,10.8125,91.1875
609112793113,-173.812,10.75,89.75
609112815622,-130.312,9.9375,76.875
609112832083,-110.75,3.9375,56.375
609112853115,-73.4375,-2.1875,38.5625
609112875630,-22,-10.5625,15.25
609112892016,36.1875,-18.1875,-10.25
609112922711,27.3125,-15.3125,-14.9375
609112935616,42.9375,-10.4375,4.9375
609112952066,18.9375,-11.375,-3
609112973111,-31.75,-5.9375,-7.625
609112995616,16.3125,-3.3125,-8.0625
609113019634,38.75,-7.6875,-11.75
609113041267,48.375,-9.0625,-12.5
609113055788,40.4375,-7.0625,-10.75
609113072127,25.6875,-7.4375,-10.5
609113093180,21.5625,-6.25,-7.6875
609113115659,12.3125,-4.625,-6
609113132134,12,-3.3125,-4.4375
609113153150,10.5625,-2.125,-4.1875
609113175731,5.0625,-1.3125,-4.1875
609113192046,7.5,-1.0625,-3.4375
609113229472,7,-0.9375,-2.4375
609113235714,4.875,-0.6875,-0.5625
609113252074,3.875,-1.625,-0.75
609113274679,6.9375,-1.0625,-2
609113295709,5.3125,-0.6875,-3.625
609113312066,9.8125,-0.9375,-4.3125
609113334594,6,0.6875,-3.3125
609113355661,0.125,1.4375,-3.8125
609113373611,1.9375,0.6875,-3.9375
609113394562,8,0,-3.375
609113415764,9.0625,0.3125,-2.875
609113433569,4,0.5,-3
609113454607,2,0,-2.6875
609113475603,2.875,-0.4375,-1.5
609113492038,0.875,-0.0625,-0.0625
609113514564,-2.375,-0.3125,0.125
609113535747,0,-1.4375,0.625
609113552065,2,-1.625,2.25
609113574633,-0.4375,-1.6875,3.1875
609113595711,-2.25,-1.625,3
609113619678,-1.5625,-1.625,2.75
609113634620,1.125,-1.625,2.75
609113655643,-0.75,-1.25,2.1875
609113672140,-0.5,-0.8125,1.25
609113694656,0.125,-0.75,0.375
609113716266,-0.3125,-0.625,0.1875
609113731316,0,-0.9375,0.1875
609113753850,0.375,-1,0.375
609113776344,0.25,-0.8125,0.6875
609113791364,-0.125,-0.8125,1.1875
609113813844,-0.3125,-0.9375,1.3125
609113836322,-0.5625,-1.0625,1.5625
609113866953,0.375,-0.6875,1.4375
609113873751,0.1875,-0.25,1.3125
609113896397,0.3125,-0.25,1.25
609113911246,-0.0625,-0.5625,1.1875
609113941417,0.625,-0.75,1.125
609113956363,0.4375,-0.625,1
609113971359,-0.5,-0.0625,0.75
609113993828,-0.375,-0.1875,0.8125
609114016314,-1.0625,-0.5625,1.25
609114032791,-0.6875,-1.0625,1.375
609114053747,-0.375,-1.125,1.4375
609114076315,-1.75,-1.0625,1.3125
609114091318,-0.6875,-1.0625,1.25
609114113765,0.375,-0.9375,1.0625
609114136255,0.5625,-0.875,0.5
609114151289,-0.0625,-0.625,-0.125
609114173749,0.8125,-0.4375,-0.0625
609114204254,0.6875,-0.375,0.1875
609114214229,0.875,-0.25,0.25
609114241329,0,-0.125,0.3125
609114256292,0.4375,0.125,0.25
609114271309,0.5,0.25,0.4375
609114293807,0.375,0.5,0.4375
609114317715,0.1875,0.3125,0.3125
609114332738,0.1875,0.3125,0.0625
609114353839,0.8125,0.0625,0.125
609114369571,0.6875,-0.0625,0.125
609114392722,0.4375,-0.0625,0.1875
609114413618,0.125,-0.1875,0.1875
609114429633,0.125,-0.1875,0.125
609114460278,0.6875,-0.125,0.25
609114481302,0.625,0.0625,0.4375
609114489585,-0.0625,0.25,0.4375
609114512734,0,0.1875,0.4375
609114534431,-0.1875,-0.0625,0.5
609114557737,0.375,-0.0625,0.6875
609114572769,-0.875,-0.0625,0.625
609114593825,-0.625,-0.0625,0.6875
609114609607,0.125,-0.125,0.4375
609114632759,0,-0.25,-0.125
609114661319,0.5625,-0.125,-0.1875
609114669538,0.0625,-0.0625,0.0625
609114700271,-0.1875,-0.0625,0
609114713825,-0.4375,-0.0625,0.1875
609114729591,0.1875,-0.3125,0.4375
609114752753,0.1875,-0.3125,0.75
609114773803,-0.9375,-0.375,0.5
609114797573,0.1875,-0.125,0.4375
609114812787,-0.1875,-0.0625,0.4375
609114833834,0.25,-0.125,0.3125
609114849597,-0.125,-0.1875,0.4375
609114872763,-0.4375,-0.0625,0.6875
609114893808,-0.75,0,0.6875
609114909633,-0.25,0.125,0.625
609114932766,0.5,0.1875,0.625
609114969297,0.125,0.125,0.5
609114977821,-0.5625,0.1875,0.3125
609114992726,0.125,0.125,0
609115013782,0.3125,0.1875,0.0625
609115029635,-0.125,-0.125,0.0625
609115052079,-0.25,-0.1875,-0.0625
609115073820,0.625,-0.1875,-0.25
609115103761,0.3125,0,0
609115112061,-0.1875,0.0625,-0.1875
609115133867,-0.375,0.125,-0.0625
609115149645,0.4375,-0.0625,-0.125
609115172674,0,-0.0625,0
609115193827,0,0.125,0.1875
609115209704,-0.0625,0.125,0.0625
609115232184,0.5,0,0.0625
609115255294,-0.25,-0.1875,-0.1875
609115277806,-0.0625,-0.1875,0
609115292057,-0.125,0.0625,0.125
609115315297,-0.1875,0.125,0
609115329611,0.5,-0.0625,0.25
609115352116,0.5625,0.125,0.3125
609115375235,0.6875,0,0.375
609115389601,-0.0625,0.0625,0.3125
609115412054,-0.0625,-0.125,0.4375
609115435217,0,-0.125,0.625
609115449631,-0.375,-0.125,0.3125
609115472177,-0.4375,0,-0.25
609115495305,-0.0625,0.0625,-0.6875
609115509720,0.375,0.0625,-0.75
609115532148,0,-0.0625,-0.9375
609115555232,-0.4375,-0.3125,-1.0625
609115569708,0.875,-0.5625,-1
609115592153,0.6875,-0.5,-1
609115615321,-0.375,-0.3125,-0.625
609115629595,-0.125,-0.375,-0.25
609115652637,0.0625,-0.1875,0.125
609115675238,0.4375,0.0625,0.1875
609115689561,-0.5,0.125,0.3125
609115712111,-0.75,0.1875,0.125
609115735265,0.125,0.25,0.0625
609115756316,0,0.3125,-0.125
609115772091,0.5625,0.125,-0.25
609115795960,0.0625,0.125,-0.1875
609115816279,0.6875,-0.0625,0.0625
609115832059,0,0,0.125
609115855365,0.9375,-0.0625,0.1875
609115876394,0.375,-0.0625,0.375
609115892173,0.25,-0.1875,0.375
609115915264,0.125,-0.375,0.4375
609115936393,0.3125,-0.1875,0.1875
609115952183,0.25,0,0.0625
609115975241,0.1875,0,0.0625
609115996390,-0.6875,-0.25,0.125
609116012207,-0.4375,-0.4375,0.1875
609116034605,-1.5625,-0.3125,0.375
609116056322,-2.1875,0.1875,-0.5
609116072108,1,0.625,-1.0625
609116102793,0.1875,0.8125,-1.25
609116116285,0.25,0.75,-1.3125
609116132143,0.5,0.4375,-1.1875
609116154629,0.9375,0.25,-0.8125
609116176283,0.875,0.125,-0.5625
609116192141,-0.0625,0.0625,-0.3125
609116214699,0.25,-0.0625,-0.375
609116245243,0.4375,-0.0625,-0.0625
609116252166,0,0.0625,0
609116274650,-0.1875,0,-0.125
609116298262,-0.4375,-0.1875,-0.25
609116312179,0.3125,-0.0625,-0.125
609116334671,-0.3125,0,-0.0625
609116357532,-0.1875,0.0625,-0.25
609116372111,-0.125,0,-0.375
609116401355,0.25,-0.125,-0.6875
609116417779,0.75,0,-0.5625
609116432141,0.3125,-0.0625,-0.6875
609116454670,0.1875,0,-0.6875
609116485289,0.6875,0.0625,-0.6875
609116492157,0.625,0.0625,-0.375
609116514736,0,0.0625,-0.5
609116537847,0.3125,0.125,-0.5625
609116552144,0.4375,0.1875,-0.25
609116574677,-0.625,0.125,-0.1875
609116605289,-0.1875,0.0625,0.0625
609116612099,-0.0625,-0.125,-0.125
609116634642,-0.1875,-0.125,0
609116657789,-0.125,-0.0625,0.0625
609116672115,0.0625,0,-0.0625
609116694683,-0.1875,0.125,-0.0625
609116717818,-0.4375,0,-0.25
609116738892,-0.0625,-0.125,-0.25
609116762846,0.0625,-0.1875,-0.25
609116777819,-0.0625,-0.1875,-0.1875
609116798835,-0.5625,0,-0.1875
609116814665,0.0625,-0.0625,-0.0625
609116845316,0.125,0,-0.1875
609116858855,0.0625,-0.0625,-0.1875
609116874639,-0.3125,-0.0625,-0.4375
609116898201,0.875,-0.0625,-0.375
609116918861,-0.1875,0.0625,-0.375
609116935087,-0.125,0.0625,-0.375
609116957212,0,0,-0.3125
609116978913,0.375,-0.0625,-0.3125
609116994622,-0.25,-0.0625,-0.25
609117017117,-0.125,0.0625,-0.25
609117038837,-0.25,-0.125,-0.3125
609117054628,0.1875,0,-0.625
609117077120,0.1875,0,-0.6875
609117098842,0.4375,-0.0625,-0.625
609117115114,0,-0.125,-0.5
609117137111,0.125,0,-0.375
609117160319,-0.125,-0.0625,-0.25
609117174648,0.3125,-0.1875,-0.1875
609117197185,-0.25,-0.3125,0.0625
609117220297,-0.25,-0.25,0.25
609117234642,-0.5625,-0.4375,0.3125
609117257108,-0.3125,-0.3125,0.0625
609117280267,0.5625,-0.1875,0
609117294660,0.125,-0.0625,-0.25
609117325766,0,0.0625,-0.375
609117340269,0,0,-0.5625
609117353820,0.25,0,-0.4375
609117368167,0.4375,0.0625,-0.1875
609117390698,-0.4375,-0.0625,0
609117422051,-0.4375,-0.125,0.1875
609117428198,-0.5,0,0.1875
609117459490,0.0625,-0.125,0.1875
609117473978,-0.375,-0.125,0.125
609117488180,-0.125,-0.1875,0.0625
609117510687,0,-0.125,-0.0625
609117533833,-0.125,-0.0625,-0.125
609117548156,-0.1875,0,-0.0625
609117570723,0.0625,0,-0.0625
609117594252,0.0625,0.0625,-0.125
609117608184,-0.375,0.125,-0.125
609117630705,0.125,0,0
609117661998,0,0.0625,-0.1875
609117668196,0.375,0.125,-0.25
609117690681,-0.4375,0.125,-0.3125
609117713844,0.125,0.1875,-0.25
609117728199,0.0625,0.125,-0.375
609117750735,0.125,0.25,-0.1875
609117773933,-0.125,0.125,-0.25
609117788205,0.0625,0.0625,-0.125
609117810721,-0.125,0.1875,0
609117833920,0,0,0
609117848212,-0.125,0,-0.1875
609117872161,0.125,0.125,0
609117893920,-0.375,0.1875,0
609117908256,0.0625,0.0625,0
609117930665,-0.3125,0.0625,0.0625
609117953949,-0.1875,0.0625,0
609117968238,-0.25,-0.125,0.1875
609117990744,-0.5625,-0.4375,0.25
609118013968,-0.4375,-0.5,0.25
609118036386,-0.0625,-0.4375,0.0625
609118050721,0.0625,-0.0625,0
609118073933,0,0.1875,-0.125
609118088205,-0.0625,0.25,-0.125
609118110720,0.25,0.1875,-0.1875
609118133185,-0.0625,0.25,-0.125
609118151080,0.4375,0.1875,0
609118170702,-0.5,0.1875,-0.0625
609118193216,-0.125,0.1875,0
609118208206,0.125,0.125,0
609118230735,0.3125,0.125,-0.0625
609118253238,-0.25,0,0
609118268191,-0.4375,0.1875,-0.0625
609118290712,0.0625,0.0625,-0.0625
609118313204,0,0.0625,0
609118328216,-0.125,0,-0.1875
609118350704,0.0625,0.0625,-0.0625
609118373260,-0.1875,0.0625,-0.1875
609118388220,0,0.0625,-0.0625
609118410738,-0.1875,0.0625,0
609118433222,-0.0625,-0.0625,0.125
609118448256,-0.375,0.0625,0.125
609118470713,0.0625,0.0625,0.25
609118493223,0,0.0625,0
609118508274,-0.5625,0.1875,0.0625
609118530697,0.0625,0.125,0.125
609118554668,-0.1875,0.125,0.125
609118568226,0.0625,0,0.0625
609118590697,-0.5,0,0.0625
609118613252,-0.1875,0.0625,0.125
609118628211,-0.5,-0.0625,0
609118650701,-0.1875,-0.1875,0.0625
609118673254,0,-0.25,0.0625
609118688218,0.0625,-0.1875,0.125
609118710738,-0.75,-0.125,0
609118733250,-0.375,-0.1875,-0.0625
609118748234,0.3125,-0.0625,-0.125
609118772171,0.0625,0,-0.25
609118793276,0.25,-0.125,-0.375
609118809708,0.125,0,-0.375
609118830748,0.25,0,-0.25
609118861409,0.0625,0.0625,-0.125
609118869650,-0.0625,-0.0625,0.0625
609118892194,0.125,-0.125,0.25
609118913284,0.4375,-0.0625,0.25
609118929669,-0.8125,0,0.1875
609118950724,-0.375,-0.1875,-0.125
609118981367,0.5625,-0.25,-0.25
609118989677,0.4375,-0.125,-0.625
609119010737,0.4375,0.125,-0.5625
609119033265,-0.1875,0.125,-0.3125
609119049653,-0.125,-0.0625,-0.0625
609119070732,-0.375,-0.1875,0.125
609119093272,0.4375,-0.25,0.25
609119109636,-0.25,-0.125,0.3125
609119130672,-0.4375,0.0625,0.3125
609119153221,-0.375,-0.125,-0.1875
609119169666,0.625,-0.125,-0.3125
609119190713,0.4375,-0.0625,-0.375
609119213267,-0.3125,0.0625,-0.25
609119229665,-0.5,0,-0.3125
609119250713,0.1875,0,-0.3125
609119273270,0.375,0,-0.1875
609119289692,-0.125,0.0625,0.0625
609119310752,-0.375,0.125,0.0625
609119333297,0.1875,0,0
609119349647,0.1875,-0.0625,-0.0625
609119373603,0.0625,0.125,-0.0625
609119401453,-0.25,0.125,-0.3125
609119409687,0.4375,0.0625,-0.25
609119430751,-0.125,0,-0.25
609119453277,0.25,-0.125,0
609119471183,-0.1875,-0.0625,-0.125
609119490768,0,-0.1875,0.1875
609119513363,-0.375,-0.125,0.125
609119529702,0.25,-0.125,-0.0625
609119550775,0.3125,0.0625,0
609119574710,-0.125,0.0625,-0.125
609119589669,-0.375,-0.0625,-0.125
609119610698,0.375,-0.0625,-0.1875
609119633289,0.3125,-0.125,-0.25
609119649771,0.125,-0.0625,-0.1875
609119670778,-0.3125,-0.0625,-0.25
609119693237,0.25,0.0625,-0.0625
609119709744,0.0625,0.25,-0.0625
609119730755,-0.1875,0.25,-0.0625
609119753297,-0.125,0.125,0.25
609119769734,-0.1875,0.0625,0.375
609119792242,0.0625,-0.0625,0.375
609119813315,0,0.0625,0.25
609119829653,-0.25,0.0625,0.0625
609119852333,-0.0625,0,-0.0625
609119873344,0.125,0.0625,-0.1875
609119891288,0.4375,0.0625,-0.0625
609119912255,-0.3125,0,-0.1875
609119933380,0.0625,-0.0625,0
609119949691,-0.125,-0.125,-0.0625
609119972218,0.25,-0.1875,-0.125
609119993310,0.1875,-0.125,-0.125
609120009750,0,0.0625,0
609120032211,-0.3125,-0.0625,-0.0625
609120053236,0.25,-0.0625,-0.0625
609120069743,0.1875,-0.0625,-0.0625
609120094193,0,-0.125,0.0625
609120113333,-0.0625,0,0.125
609120129704,-0.3125,0.0625,-0.0625
609120152289,0.3125,0.125,-0.125
609120173333,0.1875,0.125,-0.0625
609120189705,-0.5,0.0625,0.0625
609120212169,-0.0625,0,0.25
609120233381,-0.3125,-0.0625,0.1875
609120249693,0.0625,0,0
609120272322,-0.0625,0.0625,-0.1875
609120293337,-0.0625,0.125,-0.1875
609120309707,-0.1875,0.125,0
609120332219,0,0.0625,-0.1875
609120353369,0.375,-0.0625,-0.125
609120371223,0,0,0.1875
609120393707,-0.375,0.0625,0.1875
609120413275,-0.375,-0.0625,0
609120429686,0.6875,-0.125,-0.0625
609120452311,-0.125,-0.125,-0.1875
609120473427,0,-0.0625,-0.125
609120489714,-0.4375,-0.125,-0.0625
609120512230,-0.0625,-0.0625,-0.25
609120533238,0.6875,-0.0625,-0.0625
609120549714,0,0.125,0.3125
609120573583,-0.625,0.1875,0.375
609120593295,-0.375,0.125,0.25
609120609706,0.375,-0.0625,0.125
609120632219,0.125,-0.125,0.25
609120653284,-0.375,0.0625,0.125
609120669709,-0.1875,0,0.0625
609120693698,0.125,-0.0625,-0.0625
609120713318,0.375,0.0625,-0.0625
609120729743,-0.625,0,-0.1875
609120752185,0.0625,-0.0625,-0.1875
609120774736,0.125,-0.25,-0.125
609120789742,-0.0625,-0.1875,-0.1875
609120812192,-0.25,-0.0625,-0.125
609120834745,0,-0.125,0
609120849686,-0.3125,-0.0625,-0.0625
609120872241,0.4375,-0.0625,0.0625
609120894788,-0.25,-0.125,0
609120911238,0.1875,-0.125,0
609120939747,-0.4375,-0.125,0.0625
609120954740,-0.125,-0.125,0.0625
609120971217,0.375,-0.125,-0.125
609120992201,0.125,-0.0625,-0.375
609121013943,-0.0625,0.0625,-0.25
609121029724,0.125,-0.125,-0.3125
609121051458,0.4375,-0.0625,-0.375
609121073962,0.3125,-0.125,-0.25
609121090382,-0.0625,-0.0625,-0.125
609121111455,-0.3125,-0.125,-0.25
609121134003,0.1875,-0.0625,-0.3125
609121150456,0.125,0.0625,-0.3125
609121171528,0.125,-0.0625,-0.0625
609121201521,0.0625,-0.1875,-0.0625
609121210482,-0.75,-0.875,-0.3125
609121231543,1.0625,-2.4375,-0.375
609121254012,-0.4375,-3.3125,-0.75
609121270459,-0.125,-3.75,-1.125
609121291551,-1,-4.1875,-1.125
609121314047,-0.6875,-3.4375,-0.5
609121330400,0.875,-2.625,0.125
609121351453,2.8125,-1.8125,0.5625
609121373942,3,-0.9375,1.125
609121390365,-1.9375,-0.0625,1.4375
609121411940,1.25,0.8125,1.6875
609121433998,-0.625,1.9375,0.75
609121450453,0.4375,2.9375,-0.4375
609121471490,-1.8125,4.375,-0.25
609121493958,-1.4375,5.5,0
609121526117,-2.0625,5.9375,-1
609121531526,-1.9375,6.375,-2.25
609121553999,-2.3125,6.9375,-2.3125
609121570517,-1.5,7.0625,-2.4375
609121591520,-1.125,7.0625,-2.5625
609121621491,-1.6875,7.4375,-3.5
609121630401,0.6875,7.5625,-3.4375
609121651448,1,7.75,-3.25
609121673918,-0.5,7.3125,-2.25
609121697893,-1.625,6.875,-1.25
609121711465,-3.25,6,0.1875
609121735365,-2,5.375,1.8125
609121749706,-3.4375,4.75,3.1875
609121771400,-2.8125,3.9375,4.8125
609121793962,-2.0625,3.125,6.4375
609121810169,-4.375,2.1875,7.1875
609121835017,-5.875,1.375,7.1875
609121853950,-4.0625,0.875,7.75
609121869729,-6.5625,0.3125,8.5625
609121892934,-11.1875,0.0625,9.6875
609121914025,-19.625,0.8125,10.3125
609121929789,-26.6875,2.5,11.5625
609121952937,-26,4.6875,11.3125
609121974090,-12.6875,2.3125,6.75
609121989787,-11.125,-0.25,5.25
609122012921,2,-1.4375,6.1875
609122050358,-2.6875,-2.125,6.375
609122052741,-1.6875,-2.875,4.375
609122072890,-5.6875,-2.75,1.625
609122093940,4.875,-1.4375,-0.0625
609122109690,10.3125,0.8125,-2.3125
609122132927,9.6875,0.3125,-2.4375
609122153965,7.75,-0.25,-1.375
609122169740,5.9375,0.4375,-0.6875
609122192889,5.0625,1.0625,1.5625
609122213976,1.9375,1.5625,8.375
609122229704,-6.25,5.6875,18.375
609122252936,-35.3125,10.6875,25
609122274062,-50.5,14.375,32.625
609122289749,-51.9375,8.5625,33
609122312938,-38.125,2.625,30.75
609122334014,-25.5625,-1.3125,29.125
609122349771,-19,-4.5625,30.875
609122372949,-22.3125,-7.4375,33.5
609122394062,-20.625,-5.75,38.125
609122409742,-29.6875,-3.625,40.0625
609122440484,-32.5625,-4.25,40.875
609122454015,-29.6875,-4.375,38.125
609122469793,-21.375,-3.875,31.625
609122492941,-15.6875,-3.0625,23.9375
609122514127,-9.5625,-1.1875,18.9375
609122529818,-1.875,0.8125,13.375
609122552962,21.9375,5.3125,5
609122573970,51.4375,4.9375,0.8125
609122589736,79.3125,4.4375,-3.0625
609122612888,78,4.625,-5.6875
609122633943,63.0625,10.375,-9.75
609122649725,41.8125,15.375,-13.75
609122672269,-8.6875,4.375,-13.6875
609122693992,-34.0625,-8.625,-3.375
609122709775,-43.0625,-11.4375,-2.8125
609122732259,-101.312,-17.3125,-16.3125
609122753969,-102.812,-17.6875,-21.9375
609122769772,-92.3125,-10.75,-27
609122792292,-106,-7.0625,-35.625
609122814048,-102.062,-2.375,-44.9375
609122829748,-108.688,2.8125,-48.75
609122852296,-104.375,5.25,-51.5625
609122875505,-98.5,11.75,-50
609122889737,-127.188,21.5625,-53.875
609122912220,-129.625,25.625,-52.9375
609122935537,-111.25,27.625,-49.25
609122949775,-96.1875,28.75,-43.375
609122972279,-88.0625,27.8125,-37.625
609122995381,-91.625,26.625,-32.25
609123009750,-90.3125,28.5625,-27.9375
609123032205,-90.125,32.125,-26.5625
609123055439,-89.0625,34.125,-24
609123069768,-84.25,34,-22.4375
609123092259,-87.9375,31,-24.5
609123115422,-87.125,26.1875,-24.6875
609123136472,-78.375,21.6875,-24.375
609123152248,-58.9375,18.375,-21.1875
609123175388,-33.625,10.25,-18.625
609123196527,-43.0625,7.5625,-14.1875
609123212264,13.8125,8.5,-1.1875
609123235463,-19.1875,4.375,-0.0625
609123256553,-14.5625,2.5625,3.8125
609123272330,-8.6875,1.9375,8.25
609123303497,6.0625,-3.9375,12.0625
609123309826,10.6875,-7.3125,14.125
609123332780,6.8125,-7.9375,10.375
609123355516,-0.625,-6.25,10.9375
609123376477,-10.9375,-4.875,17.0625
609123392236,2.375,-1.5,25.625
609123415388,-6.25,2.4375,34.5625
609123436536,-29.8125,7.5625,40.6875
609123452258,-69.875,13.375,42.125
609123475444,-74.0625,12.4375,35.375
609123496456,-57.5,10.75,25.75
609123512235,-32.0625,9.5,17.25
609123535390,-19.0625,9.25,9.6875
609123556298,-18.25,7.6875,1.375
609123573768,-9.125,-1.5625,-3.6875
609123594806,2.4375,-10.8125,-9.625
609123616587,21.25,-11.75,-10.5
609123632322,23.3125,-8.25,-6.75
609123654819,9.875,-7,1.375
609123676506,-2.6875,-12.875,6.75
609123692354,-10.6875,-17.1875,7.5625
609123714819,-10.875,-17.375,8.9375
609123736560,-10.3125,-18.25,9.0625
609123752288,-4,-21.8125,8.875
609123774827,-3.1875,-25.625,10.375
609123797936,7.375,-37.375,12.8125
609123812258,15.125,-56.4375,24.75
609123834759,65.875,-69.1875,41.25
609123857911,44.75,-72.8125,42.125
609123880437,57,-72.0625,42.25
609123894761,76.5625,-66.75,37.9375
609123917946,68.25,-58.25,37
609123932270,81.375,-38.125,31.8125
609123954767,53.4375,-29.5,24.375
609123977965,-7.4375,-23.25,24.125
609123992390,-38.125,-20.5,13.8125
609124014828,-31.8125,-24.3125,1.125
609124037943,-19.3125,-21.3125,-2.0625
609124059002,-47.8125,-13.125,-2.6875
609124074801,-76.3125,-3.1875,-3.6875
609124097959,-100.688,5.875,-6.625
609124119032,-91.3125,15.5,-8
609124134787,-98.6875,23.1875,-8.875
609124157938,-87.25,36.6875,-5.5625
609124178980,-88.0625,57.75,-2.3125
609124194772,-72.3125,74.25,-1.25
609124217914,-39.5,84.4375,-2.3125
609124238985,-25.5,84.8125,-3.6875
609124254813,-1.3125,73.375,-2.875
609124277954,10.1875,48.75,0.0625
609124299043,-1.375,-11.75,17.4375
609124322908,29.5,-22.0625,20.75
609124338023,-85.625,4.4375,5.9375
609124359113,-22.4375,10.25,1.375
609124375366,18.875,8,1.75
609124397992,2.125,8.6875,1.3125
609124419076,-17.125,10.5,-0.8125
609124434816,-12.1875,10.75,-2.4375
609124457977,-4.1875,10.625,-2.5625
609124478788,-1.375,9.6875,-0.3125
609124494768,5.75,8.4375,3.0625
609124518019,3.9375,6.125,4.0625
609124539050,1.4375,4.75,4.9375
609124554832,0.125,3.25,4.3125
609124577393,1.5625,2.125,4.4375
609124599070,5.6875,2.0625,4.8125
609124614811,6.4375,1.375,3.875
609124637306,6.5625,1.25,3.5625
609124658955,6.25,1.4375,3.625
609124674017,3.375,1.75,3.375
609124688301,2.5625,1.8125,3.125
609124710827,2.875,1.8125,2.5
609124733995,4.8125,1.125,1.5
609124748357,7,0.5625,1.5
609124770859,7.875,0.0625,1.5
609124793992,3.0625,-0.1875,0.875
609124808398,4.1875,-0.4375,1.5
609124830986,2.75,-0.25,2.125
609124854061,1.5625,-0.125,2.3125
609124868360,2.25,-0.125,2.25
609124899780,4.375,-0.4375,1.875
609124914076,4.75,-0.25,1.5
609124928340,1.3125,-0.25,1.0625
609124951022,1.875,-0.375,0.625
609124974100,2.8125,-0.5,0.5
609124988392,0.5625,-0.9375,0.125
609125010818,1.375,-1.625,0.1875
609125034018,3.5,-1.625,0.0625
609125048412,4.375,-1.5625,-0.4375
609125070905,4.1875,-1.25,-1.0625
609125094067,4,-0.875,-1.5625
609125108476,3.3125,-0.6875,-1.75
609125130906,3.125,-0.5625,-1.9375
609125154125,3.1875,-0.25,-2.1875
609125168362,3.875,0.0625,-2.0625
609125190965,3,0.4375,-1.5
609125214487,2.3125,0.6875,-0.9375
609125228362,-0.875,0.25,-0.625
609125250858,-1.625,0,-0.625
609125274000,-0.5,-0.25,-0.875
609125288338,0.0625,-0.25,-0.9375
609125310908,0.25,-0.1875,-0.5
609125333784,-2.125,0.3125,0.0625
609125348393,-2.1875,0.5625,-0.375
609125370924,-1.5,1.875,-0.875
609125394067,-8,4.0625,-2.4375
609125408487,-13.625,3.5625,-7.1875
609125430874,-12.6875,0.875,-11.5625
609125454141,13.3125,-5.6875,-15.6875
609125468436,28.8125,-18.75,-23.125
609125490928,20.6875,-31.5,-30.125
609125514098,8.8125,-39.5,-32.375
609125528431,-12.5625,-44.6875,-33
609125551032,-27,-44.9375,-32.625
609125574104,-37.875,-43.1875,-30.75
609125588421,-44.3125,-38.875,-29.6875
609125610847,-46.4375,-32.9375,-28.3125
609125634092,-34.1875,-26.8125,-27.4375
609125648445,-26.9375,-19.8125,-25.25
609125670946,-27.125,-12.875,-22.3125
609125693414,-32.125,-8.1875,-21
609125708310,-33.8125,-3.875,-19.5
609125730928,-35,0.375,-19.25
609125762180,-21.5,1.3125,-19.875
609125768404,17.625,-6.125,-7.6875
609125790992,47.625,-5.625,4.25
609125813419,-46.8125,-2.6875,6.3125
609125828883,-47.625,3.125,-0.3125
609125850959,-15.1875,1,-8.8125
609125873468,5.1875,-2.8125,-10.3125
609125888376,-5.3125,-7.125,-8
609125910964,0.3125,-7.0625,-4.1875
609125933398,9.625,-10.25,-3.3125
609125948472,4.625,-11.625,-3.4375
609125970990,3.625,-10.8125,-1.625
609125993476,3.75,-9.125,1.1875
609126008378,0.0625,-7.6875,3.1875
609126030934,0.3125,-6.0625,5.75
609126053343,-0.1875,-3.8125,8.4375
609126068367,-1.5625,-1.625,9.75
609126090917,8.0625,1.0625,8.5
609126113389,12,3.5,6.3125
609126128375,9.1875,7.0625,8
609126150933,-1.625,12,8.625
609126173372,-7.3125,15.25,9.625
609126188489,-2.5,17.9375,11.375
609126210950,-3.375,19.75,12.5625
609126233451,2.5625,22.25,14.5625
609126248477,5.1875,23.0625,16.5625
609126270937,2.375,24.1875,16.6875
609126293377,-0.3125,24.5625,14.625
609126308373,2.5625,24.875,14.1875
609126331006,6,24.4375,13.875
609126353406,14.125,21.9375,13.125
609126368505,20.3125,21.625,11.0625
609126391053,23.9375,20.9375,10.0625
609126413477,14.5625,22.125,8.9375
609126429950,6.4375,17.8125,8.25
609126450991,9.5,13.625,10.1875
609126473411,12.125,11.625,10.4375
609126489941,11,10.125,8.9375
609126510898,10.6875,10.125,6.375
609126533409,15.6875,9.625,4.0625
609126549982,4.6875,11,3.75
609126571003,-1,7.4375,3.75
609126593450,3.6875,6.8125,5.3125
609126609920,4.3125,5.125,5.25
609126639121,1.375,1.3125,3.6875
609126653468,11.25,-2.125,1.375
609126669938,17.5,-5.0625,-1.0625
609126691005,5.375,-4.6875,-4
609126713487,9.0625,-6.75,-4.9375
609126729865,21.9375,-7,-4.1875
609126750980,22.5,-7,-3.3125
609126773423,20.25,-2.6875,-3.0625
609126789981,17.5,6,-2.5625
609126810958,12.6875,10.25,-1.6875
609126833345,20.1875,17.625,0.8125
609126849957,11.1875,20.5,1.9375
609126870975,19.1875,22.5625,3.5625
609126893442,21.375,23.1875,3.5
609126909942,10.875,25.4375,4.125
609126931018,6.4375,22.0625,4.8125
609126953524,-0.0625,17.625,5.5625
609126969983,5.9375,15.375,7.125
609126991001,-1.9375,11.6875,6.5625
609127013488,5.1875,10.5625,5.3125
609127029942,8.125,9.125,2.6875
609127052348,-2,6.0625,-0.6875
609127073421,-1,4.25,-1.3125
609127089909,-0.6875,2.875,-1.375
609127110912,-8.75,2.4375,-0.4375
609127133463,-1.0625,3.1875,1.0625
609127151391,0.4375,4,0.875
609127171035,13,4.9375,1.5
609127193424,10.8125,4.8125,0.6875
609127209913,1.875,4.9375,0.1875
609127230977,-10.4375,5.875,-0.75
609127253467,-12.125,3.125,-2.375
609127269936,-7.0625,1.5,-2.6875
609127291046,-7,-0.625,-2.25
609127313508,-14.125,-2.8125,-1.25
609127329981,-7,-1.6875,-0.8125
609127350977,-7.875,0.1875,-0.1875
609127373509,-6.8125,1.75,1.0625
609127389978,-3,2.3125,2.6875
609127412408,4.5,1.25,3.4375
609127433416,14.6875,1.75,3.9375
609127449888,16.1875,2.875,2.6875
609127472388,6.875,4.3125,3.0625
609127494894,4.625,3.8125,2.375
609127509948,6.875,3.4375,-0.4375
609127532420,4,4.0625,-0.125
609127553542,-3.125,3.5,-0.75
609127569972,-6.4375,2.5625,-0.5
609127592403,-3.875,1.625,-1.375
609127613472,-3.9375,2.0625,-0.5
609127629934,-18.75,2.75,-0.125
609127652429,-18.5,4.3125,0.875
609127673466,-13.875,4.5625,0.875
609127689943,-11.9375,4.6875,1.375
609127712446,-10.125,5.0625,1.5625
609127733480,-11.3125,6.25,2.25
609127749937,-15.8125,6.4375,2.125
609127772399,-15.125,5.875,1.625
609127793448,-13.9375,5.3125,1.1875
609127809940,-14.4375,4.125,0
609127832431,-12.9375,3.625,-0.25
609127853453,-17.75,2.5,-1
609127869980,-19.5,2.5,-1.3125
609127892382,-19,2,-1.625
609127914933,-18.1875,3,-1.5625
609127929969,-17.8125,4.3125,-1.875
609127952458,-17.8125,5.625,-2.0625
609127976409,-18.8125,6.0625,-2
609127989891,-12.4375,6.75,-2.6875
609128012989,-7.5,4.625,-3.125
609128033465,-1.625,6.0625,-3.9375
609128049925,0.25,2.625,-4.25
609128073845,-6.625,2.875,-2.1875
609128093434,-14.9375,2.9375,-0.125
609128109935,-12.8125,3.375,-0.4375
609128132430,-7.0625,1.0625,0.125
609128153408,-2.4375,-1,0.25
609128177435,-1.5625,-3.0625,0.0625
609128192432,-1.8125,-3.4375,0.9375
609128213472,-2.625,-4.6875,2.0625
609128229902,-2,-6.5625,3.4375
609128252449,1.0625,-8.375,4.5
609128273424,9.5,-10,5.5
609128291406,10.8125,-10.3125,5.875
609128312436,11,-9.375,5.4375
609128334140,6.25,-10.625,5.5625
609128349168,12.25,-13.625,6.375
609128371675,23.8125,-16.125,7
609128394137,26.0625,-16.75,7.9375
609128409032,18.5,-15.1875,9.3125
609128431625,12.4375,-12.6875,10.5625
609128454083,14.3125,-9.9375,12.8125
609128469083,14.9375,-8.125,15.625
609128491598,13.4375,-5.3125,17.125
609128514093,-7.375,-3,17.8125
609128530519,-8.0625,-3.9375,17.125
609128551584,-9.625,-7.4375,14.125
609128574091,-20,-10.25,10.25
609128590597,-14.1875,-13.125,6.25
609128611704,-20.25,-13,2.9375
609128634203,-33.3125,-12.125,0.6875
609128650617,-23.9375,-13.375,-1.0625
609128671636,-20.3125,-17,-2.8125
609128694176,-18.875,-22.375,-3.6875
609128710656,-29.375,-25.1875,-2.8125
609128731699,-43.5,-26.375,-2.6875
609128754229,-39,-30.5625,-2.9375
609128770727,-25.125,-31.25,-1.6875
609128791664,-22.8125,-31.25,-2.4375
609128814152,-24.9375,-31.625,0.125
609128836674,-17.625,-29.3125,2.5
609128851716,-21.9375,-28.8125,2.8125
609128874092,-26,-27.5625,4
609128890498,-23.5625,-28.5,4.125
609128911623,-19.9375,-29.375,3.625
609128934173,-25.375,-30.1875,3.6875
609128950605,-29.125,-33.5,4.8125
609128971695,-23.5625,-40.4375,8.4375
609128995588,-35.375,-43.25,6.3125
609129016633,-40.375,-45.4375,2.3125
609129031652,-40.125,-48.75,-2.125
609129054136,-40.5625,-54.5,-6.25
609129070593,-27.875,-62.75,-13.125
609129091596,-17.3125,-70.5,-20.1875
609129114143,-16.5625,-74.8125,-24.625
609129130515,-22,-78.5,-29.375
609129151613,-36.4375,-80.4375,-34.9375
609129174150,-27.375,-82.5,-51.3125
609129190557,-9.5625,-84,-47.5625
609129211592,-42.3125,-78.875,-48.75
609129234134,-71.0625,-86.9375,-44.8125
609129250515,-84.25,-95.8125,-32.3125
609129271586,-55.125,-129.125,-27.5625
609129294123,-34.625,-137.5,-25.125
609129309895,-55.875,-134.25,-20.5
609129331674,-62.125,-125.062,-20
609129354134,-125.375,-117.25,-18.875
609129369886,-69.625,-107.125,-14.625
609129391655,-27.8125,-89.125,3.1875
609129414113,-5.8125,-52.3125,27.1875
609129429886,27.8125,-11,46.125
609129451674,6.125,25.75,53
609129474102,1.875,69.5,57.8125
609129489889,2.9375,110.688,65.4375
609129513494,-11.875,142,71.5625
609129534834,-19.3125,175,79.375
609129549922,-21.25,210.938,85.625
609129573072,-15.25,239.438,93.125
609129594163,1.1875,261.562,95.8125
609129609904,4.3125,276,94.0625
609129633035,-4.1875,288.75,96.5
609129654052,6.0625,293.375,94.5625
609129669882,13.5625,290.188,94
609129693066,23.25,285.812,89.125
609129714137,10.75,278.438,84.625
609129729890,10.375,269,82.9375
609129753053,20.1875,247.562,79.8125
609129774135,41,224.562,73.625
609129798064,28.25,189.688,61.875
609129820543,5.875,137.188,52.5
609129834111,4.375,62.3125,35.4375
609129849899,-4.375,-30.5625,3.4375
609129873010,40.5625,-97.75,-10.5625
609129894146,59.3125,-129.438,-24.3125
609129909917,-38.875,-4.6875,9.3125
609129933107,256.5,-104.688,10.25
609129955515,87.3125,-139.25,-45.75
609129969912,-37.0625,-131.875,-13.375
609129993061,65.375,-125.312,1.375
609130021628,77.4375,-99.25,-2.8125
609130029889,-43,-86.9375,3.6875
609130053047,-78.1875,-66.6875,6.25
609130074109,4.25,-54.875,5.1875
609130089887,10.4375,-48.5,7.0625
609130120580,-13.1875,-38.8125,6.625
609130134143,-17.25,-29.5625,8.6875
609130149887,-55.1875,-25.8125,5.125
609130173040,-42.8125,-23.5625,3.0625
609130194112,-14.625,-21.875,1.4375
609130209905,-18.625,-25.4375,-1.125
609130233064,-17.4375,-27.5625,-2.4375
609130254112,-20,-30.375,-5.1875
609130269907,-5.8125,-33.8125,-5.1875
609130292382,0.5625,-36.375,-5.5
609130314146,-1.375,-37.5,-8.25
609130329890,-4.6875,-41,-7.875
609130360632,-0.125,-42.4375,-9.6875
609130374081,-1.1875,-42.9375,-12.75
609130389919,-0.375,-45.875,-13.5625
609130412423,1.875,-47.375,-15
609130435580,8.3125,-44.5625,-16.375
609130449897,-2.3125,-42.1875,-17.875
609130472396,-9.3125,-40.75,-18.0625
609130495567,-10.0625,-42.3125,-19.25
609130509913,-6.6875,-46.5625,-20.8125
609130532409,0.0625,-49,-24
609130555559,-9.5625,-49.4375,-23.5
609130569894,-16.125,-48.25,-24.4375
609130592386,-13.5625,-49.75,-28.8125
609130615542,-12.875,-52,-32.875
609130636645,-16.375,-54.8125,-36.625
609130652418,-20.5625,-59.125,-40.1875
609130675569,-31.4375,-65.5625,-44.5
609130696667,-30.3125,-64.1875,-53.8125
609130712394,-24.25,-67.4375,-66.75
609130735550,-38.1875,-78.8125,-68
609130756688,-61.125,-83.6875,-72.125
609130772477,-30,-97.8125,-68.625
609130795587,-28.375,-103,-60.625
609130816669,-37.0625,-100.125,-49.625
609130832399,-47.0625,-93.5625,-36.6875
609130855570,-64.0625,-84,-26.8125
609130876598,-83.0625,-74.3125,-17.125
609130892450,-98.1875,-56.25,-7.5
609130915623,-102,-42,2.8125
609130936692,-47.3125,-11.4375,20.6875
609130952423,8,12.3125,31.9375
609130975566,55.5625,36.3125,42.875
609130996684,86.5625,60,48
609131012450,74.25,82.375,48.5625
609131043066,66.0625,98.9375,50.8125
609131056668,67.5625,118.562,49.1875
609131072447,42.4375,138.562,41.375
609131095580,35.875,153.188,38.5
609131116673,58.9375,160.875,36.5
609131132406,88.1875,161.812,33.9375
609131163069,101.562,158.375,28.875
609131176726,94.125,149.938,23.4375
609131193065,59,138.625,16.8125
609131214921,25.4375,124,14.9375
609131236703,10.875,105.25,14.8125
609131252892,26.9375,83.25,14.6875
609131274880,49.5,63.125,9.1875
609131296623,44.8125,44.8125,6.875
609131319141,29.0625,30.625,2.875
609131334928,12.3125,21.5,4
609131358074,4,15.4375,5.875
609131372489,12,-4.5,13.75
609131394998,29,-2.6875,2.6875
609131425587,-6.3125,2.5625,11.875
609131432464,24.875,8.1875,14.5
609131454954,32,-0.75,8.25
609131478101,26.5625,-5.5,6.75
609131492451,14.625,-5.9375,7.75
609131514996,-1.125,-10.1875,6.0625
609131538140,16.8125,-10.625,4.8125
609131560626,13.375,-12.9375,5.6875
609131575040,13.125,-10.1875,4.75
609131598150,9.9375,-9.6875,3.375
609131612489,13.4375,-9.625,3.1875
609131634964,9.8125,-9.5625,2.25
609131658160,7.25,-8.125,2.9375
609131672482,5.6875,-6.875,2.75
609131694991,5.0625,-5.5,2.3125
609131718170,2.875,-4.625,1.625
609131732607,0.0625,-3.6875,1.25
609131754995,-1.3125,-3.625,1.3125
609131778198,0.5625,-4.3125,1.125
609131792499,4.3125,-5.375,1.1875
609131814924,2.625,-5.6875,1.0625
609131838162,4.3125,-4.75,0.75
609131852535,8.25,-3.375,0.8125
609131874931,5,-1.3125,0.5
609131898158,2.4375,-0.1875,0.125
609131919181,6.1875,0.25,1.375
609131934969,-0.6875,0.625,1.125
609131958135,1.6875,0.375,0.9375
609131979240,2.375,-0.25,0.6875
609131994284,0.0625,-1.25,0.1875
609132008518,0.5,-2.3125,0.1875
609132031138,1,-2.9375,0
609132061460,3.1875,-3,0.0625
609132071469,0.9375,-2.75,0
609132091175,0.625,-2.5,0.1875
609132114233,4.5,-2.75,0.3125
609132128495,5,-2.4375,0.3125
609132151006,1.3125,-2.5625,0.3125
609132177100,1.8125,-2.875,0.125
609132188521,4.6875,-3.625,0.5
609132211016,2.8125,-3.4375,0.375
609132234164,2.4375,-2.9375,0.1875
609132248594,2.8125,-2.125,0.125
609132272484,-0.375,-1.5625,0.25
609132294294,-2.6875,-1.4375,-0.0625
609132308604,2.5,-1.8125,0.0625
609132331103,2.1875,-1.8125,0.25
609132354243,-1.5625,-1.8125,-0.0625
609132376664,-1.25,-1.5625,-0.6875
609132391073,-0.5625,-1.5625,-1
609132414027,-2.75,-1.25,-0.5
609132431494,-2.4375,-1.625,-0.125
609132459929,3.6875,-1.6875,0.25
609132474762,1.5,-2.0625,0.375
609132488634,2.125,-1.9375,0.75
609132511105,1.3125,-1.875,0.625
609132534193,0.875,-1.75,0.3125
609132548923,-1.75,-1.5625,0
609132579885,-0.6875,-1.75,0.25
609132594264,2,-2.0625,0.0625
609132608611,1.9375,-2.4375,0.0625
609132631047,1.75,-1.75,0.125
609132654261,-1.0625,-1.3125,0.125
609132668562,0.5625,-1.125,-0.3125
609132699966,2.625,-1.375,-0.25
609132714187,2,-1.875,-0.4375
609132728533,3.125,-1.625,-0.5625
609132751029,1.9375,-0.9375,-0.1875
609132774200,1.5,0.125,0.125
609132788573,3.6875,0.75,0.3125
609132811006,4.5625,1.375,0.3125
609132834131,2.0625,1.125,0.4375
609132848531,0.6875,0.4375,0.5
609132871049,1.125,-1.3125,-0.25
609132894182,4.75,-3.75,-0.75
609132908510,5.375,-6.5625,-1.3125
609132931058,6.125,-8.4375,-0.8125
609132954299,12.8125,-9.4375,-0.9375
609132968650,9.5625,-7.9375,-1
609132991095,12.3125,-4.875,-0.625
609133014211,6.5625,1.75,1.5
609133028516,2.3125,2.3125,1.6875
609133051084,-1.3125,2.6875,1.875
609133074192,-1.3125,2.1875,1.1875
609133089997,1.5625,1.0625,0.8125
609133111189,-0.625,-0.25,-0.1875
609133134229,-3.125,-2.125,-0.9375
609133148649,2.6875,-2.5,-0.3125
609133171104,8.4375,-1.8125,-0.625
609133193499,1.75,2.1875,-0.125
609133208568,-19.3125,11.125,1.375
609133231132,-25.5,11.0625,2.875
609133253569,-13.875,6,1.9375
609133268657,-1.0625,4.1875,2.8125
609133291078,-0.875,1.625,3.375
609133313546,-0.625,0.125,3.375
609133328562,4.8125,-2.1875,4.25
609133351175,8.125,-2.9375,4.875
609133373580,9.375,-2.5,6.375
609133388645,12.4375,-1.25,10.6875
609133411016,25.4375,0.25,11.8125
609133433567,14.5,1.8125,11.6875
609133448609,10.6875,3.8125,12.8125
609133471088,3.6875,5.75,14.625
609133493547,8.875,7.625,17.1875
609133508601,7.375,7.0625,17.5625
609133531107,29.3125,10.1875,18.1875
609133562381,30.625,12.6875,15.875
609133568525,32.5,17.0625,16.4375
609133591135,24.625,20.8125,17.1875
609133613569,22.375,24.8125,20.0625
609133628599,30.5625,27.5625,21.375
609133651088,30.3125,30.625,20.75
609133673586,16.1875,37.5625,19.5
609133688547,-3,44.4375,16.0625
609133711111,-22.6875,43.9375,13.125
609133733591,-11.9375,33.5,12
609133748619,-0.9375,27.5,9.9375
609133771132,-3.9375,23.125,6.875
609133793611,-9.5,17.8125,4.375
609133808643,9.75,10.75,2.875
609133831068,22,4.375,-0.0625
609133855047,20.5625,0.25,-1.9375
609133868537,28.875,0.375,-3.25
609133891044,28.0625,1.25,-4.5
609133913646,20.125,2.5,-5.25
609133928653,23.4375,5.8125,-3.5
609133951081,23.3125,9.1875,-3.75
609133973545,29.875,12.6875,-4.1875
609133988672,30.25,17.5,-4.25
609134011089,20.75,21.25,-5.1875
609134033579,22.875,23.625,-4.875
609134050012,34.1875,27.0625,-6.1875
609134071097,41.1875,28.625,-8.5625
609134093645,44.0625,31.8125,-10.5625
609134110047,51.625,37.25,-9.5
609134131191,35.375,42.0625,-11.375
609134153566,-6.625,46.8125,-13.25
609134176812,-30.5,48.8125,-18.5625
609134191096,-28.3125,37.5,-23.8125
609134223171,8.1875,21.375,-30.1875
609134229962,102.125,7.3125,-34.8125
609134251144,169.062,-6.375,-43.25
609134273638,295.5,-35.25,-56.4375
609134290032,390.125,-91.3125,-77.3125
609134311070,425.125,-140.625,-74.6875
609134333532,392.5,-174.25,-67.5625
609134350044,340.812,-189,-63.125
609134371121,312.188,-187.25,-58.8125
609134393550,293.25,-174.938,-58.25
609134409985,304.125,-155.875,-60.25
609134431137,320.062,-137.938,-59.3125
609134453658,341.188,-114.875,-47.5
609134470014,331.688,-79.6875,-34.8125
609134491143,310.25,-41.9375,-27.75
609134530582,299.562,-3.8125,-24.125
609134533088,294.938,36.4375,-16.6875
609134551151,285.375,76.5,-10.6875
609134573643,277.125,106.5,-0.4375
609134590044,261.625,132.562,13.75
609134611116,235.812,152.625,29.9375
609134633637,219.125,169.312,47.4375
609134650089,203.125,177.5,61.875
609134671119,192.062,175.812,69.875
609134693527,170.062,166.375,72.3125
609134710050,169.625,155.125,87.5
609134731118,186.188,145.562,83.75
609134753681,119.125,116.188,55.25
609134770066,153.75,71.125,46.8125
609134791203,91.875,9.0625,26.6875
609134813577,49.875,-58.0625,9.4375
609134830007,13.4375,-112.625,-9.75
609134851114,-19.6875,-152.812,-18.75
609134873592,-65.375,-39.375,-33.4375
609134890043,234.375,-174,-30
609134911106,105.438,-195.562,-77.9375
609134933669,1,-191.5,-22.0625
609134950047,93.4375,-147.5,-16.5
609134972502,-33.6875,-114.625,-10.0625
609134993616,-112.812,-113.125,-7.1875
609135010116,-24.75,-78.1875,-0.25
609135032609,36.125,-56.125,2.0625
609135053603,29.1875,-44,5.4375
609135070040,-24.5,-32.9375,8.375
609135092614,-38.75,-29.5625,4.8125
609135113712,11.4375,-29.0625,0.5625
609135136073,27.3125,-31.8125,-0.9375
609135152536,-2.75,-36.4375,-1.8125
609135173666,-21.875,-40.1875,-0.6875
609135190055,-28.3125,-45.8125,-3.75
609135212527,-30.0625,-54.3125,-5.0625
609135234234,-28.9375,-62.8125,-9.8125
609135250042,-17.4375,-71.4375,-12.9375
609135272509,-15.125,-75.25,-12.5625
609135293621,-39.0625,-76.0625,-9.9375
609135310036,-45,-76.75,-13.8125
609135332490,-31.875,-74.625,-15.0625
609135353566,-32.8125,-69.8125,-15.375
609135370013,-45.5,-64.0625,-17.1875
609135392522,-51.5625,-60.5,-20.625
609135413676,-53,-56.5625,-25
609135430027,-50.75,-55.5,-33.8125
609135452540,-58.25,-63,-39.0625
609135473708,-79.5,-69.0625,-44.625
609135490059,-125.75,-82.875,-50.9375
609135512515,-163.688,-98.625,-50.125
609135550649,-155.062,-118.938,-47.375
609135552978,-110.688,-138.125,-40
609135572533,-71.125,-137.938,-31.6875
609135593582,-79.625,-117.562,-19.1875
609135610089,-107.438,-109.688,-6.875
609135632577,-9.375,-90.25,24.4375
609135655710,106.75,-51.4375,42.625
609135669288,104.125,-5.4375,58.4375
609135691710,70,39.3125,81.9375
609135714304,21.375,77.1875,109.312
609135729247,-24.75,110.062,128.375
609135751769,-45.6875,141,142.875
609135774308,-50.4375,173.188,147.438
609135789319,-45.5625,199.25,147.188
609135811798,-19.1875,223.75,140.562
609135834324,-30.5,243.25,131.938
609135849286,-62,263,128
609135871779,-74.3125,277.688,124.75
609135894350,-94.3125,282.938,118.625
609135909290,-115.125,281.25,118.438
609135931759,-141.188,268.438,115.812
609135954356,-175.812,245.375,89.8125
609135969352,-161.75,193.875,61.25
609135991774,-52.9375,131.688,33.75
609136014220,12.125,58.9375,1.75
609136029342,-30.9375,-15.6875,-29.75
609136051754,-70.875,-62.375,-48.375
609136074264,-123.812,-84.3125,-33.9375
609136090710,-164.125,-3.1875,2.125
609136111780,131.875,-19.375,4.875
609136134286,99,-36.125,-31.0625
609136150688,-122.562,-44.1875,-13.8125
609136171734,-39.3125,-26.9375,-12.0625
609136194249,60.5625,-19.1875,-2.9375
609136210662,7.5,-2.875,-1.375
609136231740,-65.9375,3.0625,3.375
609136254299,-46.5625,2.8125,1.5
609136270687,-6.625,5.1875,-4
609136291753,10.1875,4.8125,-8.1875
609136314284,-11.4375,4.6875,-12.5625
609136330669,33.5,5.1875,-14.125
609136351801,22.625,3.5,-14.75
609136374344,7,-2.125,-16.25
609136390714,-31.25,-11.9375,-22.75
609136411725,-18.625,-14.25,-26.6875
609136434304,-13.8125,-19.1875,-28.3125
609136450744,-15.5625,-17.5,-27.75
609136471821,-7.9375,-21.3125,-31.5
609136494262,-6.875,-26.5,-34.5
609136510672,6.25,-32.125,-36.25
609136531827,-1.9375,-36.0625,-39.4375
609136554283,4.625,-36.4375,-38.375
609136570738,25.9375,-36.8125,-37.5625
609136591760,28.125,-36.25,-34.5
609136614297,1.125,-36.3125,-34.125
609136630704,-22.875,-36.3125,-32.5
609136651849,-19.9375,-37.1875,-33.4375
609136675710,-12.5625,-38.3125,-34.375
609136690752,-11.0625,-36.75,-31.9375
609136711767,-31,-34.25,-27.9375
609136734348,-45.9375,-30.375,-27.9375
609136750764,-41.6875,-29.875,-32.9375
609136771750,-21,-24.5,-35.5
609136794276,-20.25,-10.6875,-38
609136810739,-36.8125,-0.1875,-38.875
609136831791,-55.6875,9.0625,-30.6875
609136854340,-97.125,8.5,-20.125
609136870140,-158.062,3.5,-8.5
609136891732,-214.25,-11.8125,34.8125
609136914338,-119,-7.5625,82.9375
609136930090,-328.25,-23.8125,100.438
609136951814,-285.188,-28.75,113.25
609136974283,-239.75,-36.125,106.625
609136990136,-172,-22.5625,100.625
609137011781,-130.625,12.3125,81.0625
609137034336,-79.625,48.125,31.5
609137050040,-44.3125,-0.75,-28.9375
609137073196,141.938,-32.1875,-15.5
609137094318,54.6875,-14.875,-11.0625
609137110070,-140.188,6,1.6875
609137140709,-85.3125,-6.375,-11.3125
609137154350,-9.375,-11.875,-21.5
609137176822,5.3125,-17.5,-19.4375
609137193243,27.1875,-7.25,-13.4375
609137214304,-46.625,-8.0625,-7.625
609137230022,-41.875,-2.9375,-12.5
609137253295,-17.0625,-4.375,-16.4375
609137274378,17.625,-5.6875,-14.8125
609137290081,-14.375,-4.3125,-10.3125
609137313287,-23.25,-4.625,-7.125
609137334277,-17.4375,-2.875,-5.1875
609137350117,-6.125,-3.4375,-6.1875
609137373196,11.75,2.4375,-5.875
609137394363,8.75,5.4375,-3.875
609137410069,13.8125,6.625,-4.4375
609137433225,14.875,6.875,-5.625
609137454416,28.5625,7.0625,-7.625
609137470091,19.1875,6.875,-10.25
609137493238,18.3125,10.375,-12.375
609137514336,22.125,12.0625,-12
609137530154,18.0625,13.1875,-11
609137553264,14.4375,13,-10.125
609137574346,16.9375,5.5625,-12
609137598191,34.25,0.4375,-13.5625
609137613243,40.0625,-1.4375,-12.5625
609137634276,37,-1.6875,-11.1875
609137650091,38.8125,-1.875,-11.875
609137673245,33.125,-0.1875,-14.5625
609137701849,19.75,0.4375,-16.625
609137710095,15,3.875,-16.5
609137733281,38.8125,12.1875,-17.125
609137754374,53.8125,18.5625,-10.0625
609137770098,12.5625,21.5,10.4375
609137792668,-43.5625,14.6875,36.8125
609137814363,-35,7.4375,58.8125
609137830120,20.0625,3.8125,77.0625
609137852555,69,8.9375,99.25
609137874274,84.625,18.625,106.75
609137890072,56.3125,23,99.1875
609137912649,24.9375,23.6875,87.25
609137934278,58.5625,19.25,71.375
609137950062,73.875,18.375,54.4375
609137972604,38.1875,13.75,40.3125
609137995758,15.0625,6.375,23.0625
609138010599,21.0625,9.625,-9.0625
609138032586,-48.1875,9.625,-22.125
609138055732,-9.625,9.1875,-24.8125
609138070135,62.75,12.4375,-12.25
609138092644,60.5,16.5625,-4.375
609138115740,10.6875,18.25,0.625
609138130066,-34.3125,19.25,1.625
609138152673,-39.5625,18.4375,-0.75
609138175777,-13.8125,14.1875,-2.125
609138190162,16.8125,11.875,1.4375
609138212597,22.1875,13.4375,1.875
609138235768,8.5,12.6875,-2.5625
609138256786,6.4375,13.1875,-4
609138272649,12,13.4375,-6.6875
609138295819,5.1875,12.625,-8.5
609138310065,5.9375,9.375,-9.3125
609138332562,11.1875,7.5,-9.4375
609138355776,10.5625,7.0625,-11.9375
609138376818,15.875,5.75,-15.25
609138392653,16,3.125,-22.25
609138415730,20.0625,-1.0625,-27.75
609138436836,18.8125,-5.125,-33.25
609138452629,15.1875,-9,-39.375
609138475760,24.0625,-13.4375,-45.25
609138496804,24.125,-16.4375,-51.875
609138512621,24,-20,-54.875
609138535814,10.5625,-20.9375,-58.5625
609138556873,-0.625,-21.5625,-64.0625
609138572677,0.75,-21.9375,-67.0625
609138595767,11.3125,-19.375,-68.0625
609138624430,9.375,-16.5625,-65.375
609138632633,-5.75,-16.3125,-65.25
609138655734,-15.6875,-15.8125,-60.8125
609138676900,13.125,-19.8125,-59.875
609138692591,10.0625,-13,-65.9375
609138723317,8.25,-7.6875,-74.5
609138736835,-2.9375,1.75,-76.6875
609138752652,0.8125,4.1875,-77.5
609138775133,0.5625,4.625,-70.125
609138796798,-3.3125,6.75,-63.6875
609138812638,-3.0625,12.1875,-62.1875
609138835137,10.0625,21.375,-58.375
609138856863,21.375,26.5,-50.3125
609138872687,10.375,27.875,-27.3125
609138895182,-63,28.125,6.75
609138916850,-34.625,15.0625,45.8125
609138932714,-1.5625,-10.9375,78.4375
609138955089,67.625,-38.625,102
609138978274,149.438,-39.0625,134.688
609138992672,157.25,-40.6875,150.562
609139015108,166.875,-43.5625,170.312
609139038215,231.062,-35.1875,183.25
609139052697,249.438,-6.5,194.25
609139075189,180.25,15.9375,193.25
609139098302,98.375,30.4375,183.875
609139112648,-9.875,36.1875,164.25
609139135169,-44,28.5625,143.75
609139158320,-18.8125,17.125,119.125
609139172655,48.75,7.25,100.375
609139195233,78.875,7.1875,68.4375
609139218395,4.125,-22,23.3125
609139239342,14.0625,-32.9375,11.5
609139255135,80.5625,-15.5625,7.4375
609139278312,35.4375,-10.6875,-7.3125
609139299279,-4.9375,-8.3125,-15.8125
609139314294,1.6875,-10.25,-10.8125
609139328718,27.6875,-14.5625,-3.5625
609139351172,32.125,-13.25,4.5625
609139374446,24.5625,-7.125,14.875
609139388725,-0.8125,-1.0625,14.5625
609139411298,-34.1875,-0.125,11.9375
609139434401,-19.25,-1.9375,7.625
609139448821,6.625,-4.625,2.9375
609139471232,16.25,-6.6875,5.0625
609139494326,0.5625,-6.625,9.5
609139508752,-8.6875,-4.5,15.0625
609139531141,-12.5,-4.375,16.125
609139554435,-8.875,-4.5,14.375
609139568772,-5.5625,-4.5625,7.9375
609139591298,5.0625,-3.3125,4.375
609139614354,1.4375,-2.9375,1.25
609139628788,-11.5,-2.4375,-0.875
609139651869,-6.6875,-2.5,1.0625
609139666256,1.625,-2.8125,4.875
609139688796,4.125,-1.6875,8.5625
609139711884,-2.75,-1.125,6.5
609139726171,2,-0.25,3.0625
609139748743,2.4375,0.1875,-1.5625
609139771894,-2.375,0.125,-5
609139786212,2,-0.375,-5.6875
609139808713,5.8125,-0.8125,-4.875
609139831845,4.625,-0.3125,-2.1875
609139846220,1.875,0.9375,-1.0625
609139868762,0.75,1.6875,-1.125
609139891164,0,0.9375,-2.125
609139906185,1.6875,0.125,-3.4375
609139928755,3.125,-0.4375,-4.4375
609139951207,4.125,-0.6875,-3.1875
609139966220,1.25,-0.4375,-2.1875
609139988637,0.0625,-0.625,-0.5
609140011298,0.375,-0.5625,0.3125
609140026241,-0.0625,-0.625,-0.1875
609140048697,1.6875,-0.75,-0.9375
609140071226,1.125,-0.6875,-0.9375
609140086173,-0.4375,-0.625,-0.8125
609140108791,-0.5625,-0.25,-0.375
609140131200,-0.25,-0.3125,0.125
609140146188,0.1875,-0.3125,0.3125
609140168798,0.5,-0.25,0.3125
609140191287,0.75,-0.1875,-0.25
609140206197,-0.625,0.0625,-0.5
609140228769,-0.5,0.25,-0.6875
609140251266,-0.125,0.3125,-0.375
609140266194,-0.625,0.1875,-0.125
609140288700,0.3125,0.0625,0.4375
609140311303,0.0625,0.125,0.25
609140326138,-0.5625,0.375,0.375
609140348732,-0.5625,0.375,0.125
609140371210,-0.0625,0.3125,0.4375
609140387631,-1,0.375,0.5625
609140408758,-0.0625,0.25,-0.25
609140431313,0.1875,0,0.0625
609140446165,-0.75,-0.0625,0.25
609140468738,-0.25,0.0625,0.625
609140491304,-1.0625,0.1875,0.5
609140507703,-0.75,0,0.1875
609140528777,0,-0.125,0.1875
609140551157,-0.625,0,0.0625
609140566130,0.3125,0.0625,0.5625
609140588708,-1.75,-0.0625,0.1875
609140611272,-0.1875,-0.0625,0.0625
609140626198,0.5625,-0.0625,0.125
609140648650,-0.1875,-0.125,0
609140671261,-0.25,-0.25,0.3125
609140687715,-0.5625,-0.25,0.4375
609140708722,0.8125,-0.375,0.625
609140731146,-0.25,-0.25,0.6875
609140747656,-1,-0.25,0.625
609140770140,0.125,-0.125,0.625
609140791189,-0.25,-0.25,0.1875
609140807585,-0.625,-0.25,0.375
609140828643,-0.625,-0.25,0.0625
609140851217,0.1875,-0.25,-0.25
609140867633,1,-0.125,-0.375
609140888679,-0.1875,0.0625,-0.4375
609140911180,-0.1875,0.1875,-0.625
609140927667,0,0.25,-0.8125
609140948700,0.375,0.125,-0.5
609140971210,0.75,0.1875,-0.25
609140987579,-0.375,0.375,-0.125
609141008711,-0.625,0.3125,-0.1875
609141031148,0.5625,0.125,-0.3125
609141047643,0.5625,-0.0625,-0.375
609141076889,0.8125,0,-0.5
609141091185,-0.1875,-0.125,-0.375
609141107592,0.75,-0.25,-0.1875
609141128712,1.75,-0.3125,-0.1875
609141151167,1.25,-0.3125,-0.375
609141167636,0.75,-0.3125,-0.375
609141188676,0.8125,-0.375,-0.1875
609141211178,0.6875,-0.1875,0.0625
609141227646,0.625,-0.25,0.0625
609141248703,0.8125,-0.3125,-0.1875
609141271208,1.375,-0.5625,-0.375
609141287675,1.375,-0.5625,-0.25
609141308719,0.9375,-0.5,-0.1875
609141331220,0.5,-0.5625,-0.375
609141347662,0.9375,-0.6875,-0.5625
609141368715,1.125,-0.625,-0.375
609141391212,0.6875,-0.25,-0.125
609141407630,-0.8125,-0.0625,-0.125
609141428715,-0.25,0,-0.1875
609141451162,0.625,0,-0.125
609141467632,0.4375,-0.0625,-0.0625
609141488698,0.5,-0.0625,-0.0625
609141511171,0.8125,-0.1875,-0.5
609141527671,1,-0.125,-0.5
609141548677,0.875,-0.0625,-0.0625
609141571223,-0.1875,-0.1875,-0.125
609141587654,0.625,-0.3125,-0.125
609141610152,1.5625,-0.25,-0.1875
609141631201,0.4375,-0.25,-0.1875
609141647614,0.125,-0.1875,-0.0625
609141670186,0.0625,-0.125,0.25
609141692649,-0.625,0.125,0.25
609141707666,-0.3125,0.125,0.375
609141730147,-0.0625,0.1875,0.4375
609141751254,-0.0625,-0.0625,-0.3125
609141767658,1,0,-0.4375
609141790162,0.5,0.0625,-0.4375
609141811196,0.4375,0.125,-0.1875
609141827668,-0.3125,0.25,0.1875
609141850135,-0.125,0,-0.1875
609141874094,0.625,-0.125,-0.125
609141887637,0.5625,0.125,0.0625
609141910124,-0.0625,0.0625,-0.0625
609141931159,-0.625,0.0625,-0.0625
609141947636,1,-0.1875,-0.1875
609141970125,0.375,-0.125,0
609141991250,-0.375,-0.125,-0.125
609142007622,0.5625,-0.25,-0.0625
609142030120,0.3125,-0.125,-0.0625
609142051259,-0.1875,-0.125,-0.1875
609142067655,0.5,-0.125,-0.1875
609142090228,-0.0625,-0.0625,-0.375
609142111203,0,0,-0.25
609142127667,-0.125,0.0625,0
609142150170,0.25,0.125,0.125
609142171198,-0.3125,0.125,-0.0625
609142187667,0.125,0.1875,0
609142210173,-0.125,0.1875,-0.25
609142231220,-0.1875,0,-0.1875
609142247660,0.3125,0.0625,-0.3125
609142271660,0.4375,0,-0.3125
609142291208,-0.1875,0.0625,-0.375
609142307667,-0.3125,0.0625,-0.0625
609142330151,0.0625,0.25,-0.0625
609142351200,0.3125,0.125,-0.1875
609142367627,0.25,-0.125,0.1875
609142390121,-0.375,-0.125,0.25
609142411263,-0.3125,-0.1875,0.1875
609142427640,-0.0625,-0.25,-0.0625
609142450165,0.4375,-0.25,-0.125
609142471225,-0.6875,-0.0625,-0.375
609142487666,-0.5625,0,-0.125
609142510171,0,0.1875,-0.125
609142531202,0.0625,0.25,0.375
609142547680,0,0.125,0.3125
609142570196,-0.5625,0.1875,0.25
609142592700,0.5,0.1875,-0.125
609142607664,0.3125,0.125,0.0625
609142630145,-0.5,0.3125,0.1875
609142652645,-0.1875,0.25,0.125
609142667665,-0.125,0.25,0
609142690169,0.5625,0.0625,-0.25
609142712692,-0.3125,0.0625,0
609142729091,-0.1875,-0.1875,0.0625
609142750166,0.125,-0.125,0.1875
609142772670,0.375,0,0.125
609142789148,-0.625,0.1875,0
609142817685,-0.375,0,-0.0625
609142832668,-0.0625,-0.0625,0.25
609142849121,-0.75,-0.0625,0.375
609142870194,-0.5625,0,0.75
609142892697,-0.875,-0.25,0.625
609142909140,-0.625,-0.25,0.375
609142930185,0,-0.3125,0.125
609142951964,0.1875,-0.1875,0.125
609142975018,-0.25,-0.3125,0.1875
609142989391,-0.6875,-0.375,0.125
609143011937,0.25,-0.3125,0
609143034391,0.1875,-0.25,0
609143049438,-0.4375,-0.1875,0.3125
609143071932,-0.875,-0.0625,0.375
609143094325,-0.3125,0,0.375
609143109397,-0.4375,0.125,0.625
609143133801,-1.125,0.0625,0.8125
609143154388,-0.625,-0.25,0.5625
609143169419,0,-0.4375,0.25
609143191923,-0.25,-0.4375,0.25
609143214373,-1.0625,-0.1875,0.0625
609143229431,0,-0.25,-0.125
609143251922,0.25,-0.125,0.0625
609143274377,-0.375,0,-0.125
609143289384,-0.375,0,-0.125
609143311960,-0.4375,0,-0.125
609143334407,0.1875,-0.1875,-0.0625
609143349402,0.125,-0.1875,0.0625
609143371914,-0.625,0,-0.125
609143394396,0.0625,0.0625,-0.1875
609143409437,0.0625,-0.0625,-0.1875
609143431983,-0.625,0,-0.0625
609143454496,-0.8125,-0.0625,-0.0625
609143469444,-0.1875,-0.0625,0
609143492004,-0.375,0,0
609143514436,-0.125,-0.125,0.125
609143529492,-1.5,-0.125,0.375
609143559419,-0.75,0.5,0.5625
609143567708,-0.3125,0.4375,0.9375
609143589485,-0.6875,0.375,0.5625
609143611941,-0.6875,0.125,0.25
609143627712,0.3125,0.1875,0.1875
609143649501,-0.1875,0.375,-0.125
609143671995,-0.1875,0.1875,0.0625
609143687705,-0.75,-0.0625,-0.25
609143710949,0.5625,-0.1875,-0.3125
609143740978,0.5625,-0.0625,-0.25
609143747712,0.1875,-0.0625,-0.3125
609143770958,0.375,-0.125,-0.25
609143792001,0.5,-0.125,-0.0625
609143807714,-0.0625,-0.0625,0.0625
609143830988,0.625,0.0625,0
609143851997,-0.25,-0.125,0
609143867755,0.25,-0.125,-0.0625
609143890892,-0.4375,-0.25,-0.25
609143911942,0.75,-0.375,-0.25
609143927712,0.625,-0.375,-0.25
609143950945,1,-0.375,-0.25
609143972009,0.75,-0.125,-0.25
609143987749,0,-0.0625,-0.25
609144010993,-0.0625,0.125,-0.375
609144031921,1.0625,0.125,-0.5625
609144047666,0,0.125,-0.5
609144078466,0.625,0,-0.25
609144091949,0.4375,-0.125,-0.25
609144107738,0.375,0,0
609144130892,-0.1875,0,0
609144151901,0.0625,-0.0625,-0.0625
609144167771,0.375,-0.25,0.0625
609144190892,0.3125,-0.25,0.1875
609144211953,0.6875,-0.0625,-0.1875
609144227713,-0.1875,0.0625,-0.25
609144250937,0.6875,-0.0625,-0.1875
609144271940,0.375,-0.125,-0.0625
609144287741,0.1875,0,0
609144310940,-0.0625,0.0625,-0.125
609144331945,0.5,0,-0.125
609144347618,-0.25,0.125,-0.0625
609144370885,-0.1875,0.0625,-0.125
609144391994,0.5,-0.0625,0.25
609144407739,-0.0625,0,-0.0625
609144430283,0.25,0,-0.125
609144451893,0.125,-0.125,-0.1875
609144467741,0.875,-0.25,-0.25
609144490188,-0.1875,0.0625,-0.3125
609144511999,-0.3125,0,-0.25
609144527745,0.75,-0.0625,-0.25
609144550160,0.125,-0.1875,-0.25
609144571914,0.75,-0.125,-0.0625
609144587704,-0.5,0.125,-0.25
609144610216,0.3125,0.1875,-0.1875
609144633420,-0.25,0.0625,-0.125
609144647722,-0.1875,0,-0.0625
609144670245,0.3125,-0.1875,0
609144693454,0.375,-0.25,-0.125
609144707752,-0.1875,-0.0625,0.125
609144730225,-0.3125,-0.25,-0.1875
609144753410,0.125,-0.25,-0.25
609144767763,0.6875,-0.125,-0.125
609144790278,0.0625,0,-0.125
609144813375,-0.375,0.125,-0.0625
609144827736,-0.0625,0.0625,0.1875
609144850196,0,0.0625,0.0625
609144873345,0.25,0.0625,-0.25
609144887765,0.875,0.1875,-0.1875
609144910246,-0.25,0.1875,-0.125
609144933382,-0.5625,0.375,0
609144947749,-0.0625,0.25,0
609144970258,-0.125,0.4375,0
609144993433,0.0625,0.4375,0.5
609145007679,-1.1875,0.3125,0.3125
609145030270,0.3125,0.125,0.25
609145053461,0.375,0.125,0
609145074447,0,0.0625,0.125
609145090289,-0.125,0.125,0.125
609145113353,0.625,0,0.375
609145134516,0.1875,0,0.75
609145150241,0.3125,0.1875,0.8125
609145180883,-0.4375,0.125,0.4375
609145194563,0.0625,0.125,0.5
609145210244,0.1875,0,0.5
609145233363,0.1875,-0.125,0.5
609145254469,0.875,-0.125,0.6875
609145270328,-0.25,-0.0625,0.75
609145293390,-0.5625,0.0625,0.625
609145314599,0.1875,0.0625,0.375
609145330276,0.125,0.125,0.0625
609145353499,-0.1875,0.25,0.125
609145374468,0.0625,0.25,0.25
609145390222,0.4375,0.125,0.4375
609145412752,-0.1875,0.125,0.75
609145434404,-0.5,0.1875,1.625
609145450260,-1.375,0.25,2.3125
609145472721,-0.875,0.25,2.9375
609145494608,-1,0.3125,2.5
609145510288,-0.3125,0.1875,2.1875
609145532766,-1.125,0.4375,1.625
609145554440,-0.0625,0.6875,1.375
609145570222,-0.3125,0.8125,1.1875
609145592759,-0.3125,0.75,1
609145615964,0.125,0.6875,0.9375
609145630193,0.125,0.5,0.9375
609145652768,0.3125,0.3125,0.625
609145675987,1.4375,0.25,0
609145690351,1.625,0,-0.375
609145712774,1.375,0,-0.5
609145743445,1.5,-0.1875,-0.125
609145750270,0.4375,-0.25,-0.125
609145772748,1.125,-0.25,-0.0625
609145795938,1.25,-0.5625,-0.25
609145810319,1.0625,-0.5,-0.1875
609145832714,0.3125,-0.5,-0.3125
609145856392,0.0625,-0.4375,-0.25
609145870225,0.875,-0.375,-0.3125
609145892788,0.625,-0.4375,-0.0625
609145915938,-0.125,-0.25,0.125
609145930273,0.4375,-0.4375,0.0625
609145952789,0.1875,-0.4375,-0.1875
609145975947,0.6875,-0.4375,-0.25
609145990256,0.4375,-0.5625,-0.375
609146012757,0.1875,-0.5625,-0.5625
609146035907,0.8125,-0.5625,0
609146056979,0.5625,-0.5,-0.1875
609146072732,0.75,-0.4375,-0.3125
609146096432,0.0625,-0.25,-0.375
609146116984,-0.3125,-0.125,-0.625
609146132725,0,-0.1875,-0.8125
609146155900,1.0625,-0.25,-0.8125
609146176932,0.3125,-0.3125,-0.625
609146192746,0,-0.1875,-0.375
609146215926,0.25,-0.1875,-0.5625
609146237012,0.375,0.0625,-0.5
609146252739,0.375,0.125,-0.5
609146275887,0.1875,0,-0.5
609146296974,-0.125,0.0625,-0.375
609146312772,0.1875,0,-0.25
609146335188,-0.1875,0,-0.3125
609146356923,0.75,-0.125,-0.125
609146373121,0.1875,-0.1875,0
609146395237,-0.3125,-0.0625,0.1875
609146416966,0.0625,-0.0625,0.5
609146432807,-0.25,0.0625,0.1875
609146455244,0,0.0625,-0.1875
609146476994,0.25,0.125,-0.25
609146492747,-0.1875,0,-0.25
609146515248,0.1875,-0.125,0.0625
609146538402,0.5,-0.125,-0.25
609146552781,0.375,0.125,0
609146575218,-0.625,0.0625,-0.25
609146598421,0.125,0,-0.25
609146611998,0.4375,-0.0625,-0.1875
609146626292,-0.125,0.125,-0.25
609146648807,0.1875,0.0625,-0.1875
609146671922,-0.0625,0,-0.1875
609146686307,0.25,-0.0625,-0.25
609146708832,-0.1875,-0.125,-0.125
609146732048,-0.1875,0,0.0625
609146746324,0.625,-0.0625,-0.25
609146768810,0.1875,-0.0625,0
609146792051,-0.6875,-0.0625,-0.125
609146806278,-0.0625,-0.1875,0
609146828898,0.5,-0.1875,-0.125
609146852048,0.875,-0.1875,-0.0625
609146866357,-0.25,0,0
609146890261,-0.3125,0,-0.125
609146912049,0.4375,-0.0625,-0.1875
609146926435,-0.1875,-0.25,-0.25
609146948884,0.1875,-0.0625,0
609146972079,0.375,-0.125,-0.1875
609146986317,-0.0625,-0.1875,0
609147008802,0.3125,0,-0.1875
609147031982,0.6875,-0.0625,-0.25
609147046314,0.0625,-0.125,-0.625
609147068874,0.5,-0.25,-0.9375
609147092134,1,-0.25,-0.625
609147106372,-0.1875,-0.0625,-0.3125
609147128927,-0.375,-0.125,-0.5
609147151968,1.1875,-0.375,-0.625
609147166388,0.5625,-0.4375,-0.75
609147188852,0.5,-0.3125,-0.375
609147228321,0,-0.3125,-0.125
609147230745,0.4375,-0.3125,-0.4375
609147248798,1.3125,-0.3125,-0.3125
609147271953,0.125,-0.0625,-0.25
609147286310,-0.0625,-0.1875,-0.1875
609147308854,0.0625,-0.0625,0
609147331976,0.1875,0.125,-0.3125
609147346328,0.1875,0.125,-0.25
609147368809,-0.5625,0.0625,-0.1875
609147392005,-0.4375,-0.0625,-0.0625
609147406314,0.625,-0.0625,0.0625
609147428834,0.3125,0,-0.25
609147452043,-0.75,0,0
609147466374,-0.3125,-0.1875,-0.0625
609147488798,0.75,-0.125,0.3125
609147511373,0.0625,-0.125,0.1875
609147526425,-0.25,0.0625,-0.1875
609147548943,0.0625,0,-0.3125
609147571371,-0.5,-0.0625,-0.375
609147586287,0.875,-0.125,-0.25
609147608857,0,-0.1875,-0.3125
609147631333,0.1875,-0.125,-0.1875
609147646369,0.5,0,-0.3125
609147668834,0.3125,-0.125,-0.4375
609147691384,0,0.125,-0.4375
609147706441,-0.0625,0.125,-0.4375
609147728929,0.1875,0,-0.25
609147751361,0.25,-0.0625,-0.3125
609147766268,0.5,-0.0625,0
609147788886,-0.125,-0.0625,-0.125
609147811342,0.125,-0.0625,-0.125
609147826416,0.1875,-0.125,-0.25
609147848849,0.0625,0,-0.25
609147871333,0.1875,-0.0625,-0.125
609147886399,-0.0625,-0.0625,-0.25
609147908857,0.375,-0.0625,-0.125
609147931399,0.6875,-0.25,-0.125
609147946470,-0.5625,-0.1875,-0.125
609147968844,-0.375,-0.25,-0.0625
609147991365,0.625,-0.25,-0.375
609148006434,0.5625,-0.25,-0.3125
609148028829,-0.6875,0.1875,0
609148051387,-0.25,0.0625,0.0625
609148066428,-0.0625,0.1875,0.0625
609148088828,0.25,0.1875,-0.125
609148111307,-0.25,0.125,-0.25
609148126337,-0.25,0.125,-0.25
609148148879,0.25,-0.0625,-0.375
609148171396,0.75,0,-0.125
609148186418,-0.3125,0.125,-0.0625
609148208866,-0.5625,0.0625,-0.25
609148231319,0.25,-0.0625,-0.1875
609148249209,0.6875,-0.125,-0.1875
609148268879,0.375,-0.125,-0.1875
609148291349,-0.0625,-0.125,-0.25
609148307775,0.1875,-0.125,-0.125
609148328846,0.1875,-0.125,0.125
609148351436,-0.0625,-0.1875,0.0625
609148367764,0.625,-0.3125,-0.0625
609148388926,0.875,-0.1875,-0.0625
609148411419,-0.25,-0.125,-0.125
609148427775,0.375,-0.125,-0.25
609148450358,0.3125,-0.1875,-0.5625
609148471473,0.375,-0.125,-0.5625
609148487837,0.25,-0.0625,-0.25
609148508985,-0.8125,0,-0.1875
609148531418,0.25,0.0625,-0.0625
609148547805,0.125,-0.125,-0.1875
609148568930,0.5,-0.125,-0.125
609148591382,0.0625,0,-0.125
609148607818,0.1875,0,-0.25
609148628839,0.0625,-0.125,-0.25
609148651386,0.75,-0.1875,-0.25
609148667825,0.4375,-0.125,-0.1875
609148688802,-0.1875,0.125,-0.1875
609148711420,0.1875,-0.125,-0.25
609148727850,-0.0625,-0.125,-0.0625
609148748909,0.25,-0.125,-0.0625
609148771422,0.125,-0.3125,-0.25
609148787856,0.3125,-0.125,-0.125
609148808878,-0.25,-0.3125,-0.375
609148831457,-0.0625,-0.25,-0.3125
609148847793,0.25,-0.25,-0.4375
609148868954,0.3125,-0.1875,-0.3125
609148891382,0.5625,-0.0625,-0.1875
609148907823,0,-0.0625,0
609148928895,-0.5625,0.0625,-0.125
609148951341,0.5,0.0625,-0.25
609148967858,-0.0625,0,-0.3125
609148988919,0.0625,0.0625,-0.375
609149011455,0.0625,-0.0625,-0.125
609149027846,-0.125,0.0625,0.0625
609149048917,0.3125,-0.125,0.0625
609149071460,0,-0.0625,-0.25
609149087984,0.1875,0.0625,-0.375
609149108920,-0.0625,0,-0.4375
609149131397,0.0625,-0.1875,-0.3125
609149147855,0.375,-0.1875,0
609149170360,0.125,-0.1875,-0.0625
609149191398,0.3125,-0.1875,0
609149207766,0.0625,0.0625,-0.25
609149230314,-0.125,0.125,-0.125
609149251405,0,0.125,0.0625
609149268515,0.375,-0.0625,0.0625
609149290318,0,-0.0625,-0.0625
609149311385,0.5625,-0.0625,-0.25
609149327832,-0.0625,0.0625,-0.25
609149350353,0.125,0,-0.25
609149374316,0.125,-0.125,-0.3125
609149387948,0.3125,-0.125,-0.25
609149410370,0.3125,-0.1875,-0.1875
609149431421,0.125,-0.125,-0.0625
609149447838,0,0.0625,-0.1875
609149470339,-0.3125,0.0625,-0.125
609149491384,0.125,0.125,0.0625
609149507807,0.0625,0,0
609149530333,0.1875,0,0.4375
609149551431,-1.0625,0.125,0.6875
609149567876,-1.125,0.1875,1
609149590388,-0.9375,0.375,1.625
609149611419,-0.125,0,0.4375
609149627889,1.25,-0.4375,-0.375
609149650389,0.875,-0.5,-0.625
609149671367,-0.1875,-0.25,-0.4375
609149687772,-0.5,-0.3125,0
609149710285,0.5,-0.25,0.1875
609149731470,0.75,-0.1875,-0.0625
609149747791,-0.1875,0.0625,-0.4375
609149770369,0.125,0.125,-0.5
609149791379,0.125,0.0625,-0.4375
609149807841,0,-0.0625,-0.1875
609149830319,0.375,0,-0.0625
609149851507,0.125,0.0625,-0.375
609149867885,0.1875,0,-0.625
609149890356,-0.125,-0.0625,-0.875
609149911487,0.5,-0.25,-0.4375
609149927940,-0.1875,-0.1875,-0.5
609149950365,0.375,-0.25,-0.5
609149971445,0.8125,-0.4375,-0.5
609149987944,0.375,-0.3125,-0.3125
609150010322,-0.1875,0,-0.5
609150031461,0.25,-0.0625,-0.1875
609150047948,0.125,0,-0.375
609150070300,-0.3125,0.125,0
609150091442,-0.3125,0.0625,0.0625
609150107884,0,0,-0.125
609150130288,0.5,-0.125,-0.0625
609150152847,-0.1875,0,-0.3125
609150167849,-0.3125,-0.0625,-0.3125
609150190347,0.5625,-0.125,-0.125
609150213476,-0.25,-0.0625,-0.3125
609150227854,0.375,-0.125,0.0625
609150250417,0.1875,-0.0625,0
609150272939,-0.0625,-0.125,-0.0625
609150296023,-0.125,0.0625,-0.5
609150309663,0,-0.0625,-0.375
609150332013,-0.4375,0.0625,-0.1875
609150348567,0.0625,-0.0625,0
609150369522,-0.3125,0,0.125
609150392068,0.1875,0,0.125
609150408648,0.0625,-0.3125,-0.3125
609150429596,0.125,-0.3125,-0.3125
609150452093,0.5,-0.1875,-0.125
609150468544,-0.4375,-0.0625,-0.1875
609150490236,0.0625,-0.0625,-0.0625
609150511979,0.375,0.0625,-0.125
609150528511,-0.4375,0,-0.1875
609150549636,-0.1875,0.0625,-0.0625
609150572154,-0.0625,0.0625,-0.25
609150588482,-0.0625,-0.0625,-0.125
609150609614,0.375,0,-0.0625
609150632044,-0.3125,-0.0625,-0.3125
609150654588,-0.125,-0.0625,-0.375
609150669641,0.5,-0.0625,-0.3125
609150692025,0,0,-0.1875
609150708494,-0.125,0,-0.1875
609150729637,0,-0.125,-0.1875
609150753521,0.25,-0.125,-0.25
609150768313,0.3125,-0.25,-0.3125
609150789610,-0.25,-0.0625,-0.1875
609150812079,0.125,0.0625,-0.125
609150828587,-0.0625,0.0625,-0.25
609150849609,0.25,-0.125,-0.25
609150872060,-0.1875,-0.0625,-0.125
609150888490,-0.3125,-0.125,-0.1875
609150909583,0,0.0625,-0.3125
609150932023,0.1875,-0.0625,-0.25
609150948515,0.5,0.0625,-0.25
609150969716,-0.5625,-0.0625,-0.375
609150992170,0.25,-0.1875,-0.1875
609151008553,-0.1875,-0.125,-0.375
609151029681,0.1875,-0.125,0.0625
609151052087,-0.125,-0.0625,0
609151067851,0,0,-0.0625
609151089642,0.3125,-0.0625,-0.0625
609151111989,0,-0.125,-0.125
609151127784,-0.125,0,0.0625
609151149623,-0.4375,0.0625,-0.0625
609151172067,-0.1875,0,-0.3125
609151187869,0.6875,-0.125,-0.25
609151209627,0.125,-0.125,-0.1875
609151232044,-0.1875,-0.3125,-0.0625
609151247897,0.125,-0.25,-0.1875
609151271043,0.25,-0.25,-0.375
609151292016,-0.0625,-0.0625,-0.5625
609151307939,0.0625,0,-0.375
609151331022,0.3125,-0.125,-0.25
609151352169,-0.1875,0,-0.25
609151367940,-0.375,0.125,-0.25
609151391018,0.375,0,-0.3125
609151412084,0,0.125,-0.125
609151427995,-0.375,0.0625,-0.3125
609151451021,0.0625,0.0625,-0.3125
609151472091,0.375,0,-0.375
609151487846,0.25,-0.0625,-0.125
609151511019,-0.1875,-0.125,0
609151532101,-0.1875,-0.0625,-0.1875
609151547981,0.6875,-0.1875,-0.4375
609151571081,0.0625,0,-0.3125
609151592113,-0.6875,0,-0.1875
609151607798,0,0,0
609151631017,0.25,-0.0625,-0.0625
609151652107,-0.375,-0.125,0.0625
609151667913,-0.6875,-0.125,0.0625
609151691007,0.25,-0.1875,0.0625
609151712064,0.3125,-0.125,0.0625
609151728342,0,0,0
609151751060,-0.3125,0,-0.3125
609151772058,0.375,-0.0625,-0.25
609151787935,0.0625,0.0625,-0.375
609151811029,0.0625,0.0625,-0.25
609151833569,-0.25,0,-0.1875
609151847938,0.25,-0.125,-0.1875
609151871074,0.5,-0.1875,-0.3125
609151892169,0,-0.125,-0.5625
609151907993,0.375,-0.1875,-0.5
609151930386,0.1875,-0.125,-0.5
609151952021,0.25,-0.0625,-0.3125
609151967993,0.1875,-0.0625,-0.0625
609151991085,-0.4375,0,-0.0625
609152012224,0.375,0,-0.25
609152027943,0.125,0.0625,-0.3125
609152050368,0,-0.0625,-0.125
609152072112,0.1875,-0.0625,-0.0625
609152087943,-0.0625,-0.3125,-0.0625
609152110387,0.25,-0.125,-0.375
609152132069,0.5,-0.1875,-0.375
609152147949,-0.125,0,-0.4375
609152170392,0,-0.0625,-0.3125
609152192138,0.0625,0,0.125
609152207983,-0.375,0,0.0625
609152230457,0.0625,0.0625,-0.3125
609152253520,0.25,-0.0625,-0.375
609152267921,-0.1875,0,-0.3125
609152290457,0,0,-0.3125
609152313555,0.1875,0,-0.25
609152327964,0.3125,0,-0.125
609152350395,-0.1875,-0.0625,-0.1875
609152373579,0,-0.0625,-0.1875
609152387886,0.25,0,-0.1875
609152410369,0,0,-0.375
609152433514,-0.25,-0.125,-0.125
609152447898,0.125,-0.0625,-0.25
609152470386,0.3125,-0.125,-0.0625
609152493559,-0.3125,-0.0625,-0.3125
609152507937,0.375,-0.25,-0.375
609152530442,-0.0625,-0.4375,-0.75
609152553648,1.25,-1.1875,-0.6875
609152567963,0.375,-1.5,-0.5625
609152590449,1.0625,-1.875,-0.875
609152613511,1.625,-2.3125,-1.25
609152627933,-0.875,-2.375,-1
609152650490,2.125,-1.0625,-0.75
609152673609,-2.375,-0.3125,-0.9375
609152687880,-2.5625,0.5625,-1.75
609152710416,-3.0625,1.6875,-2.3125
609152733564,-3.4375,2.9375,-3.375
609152754588,-2.4375,4.125,-4.625
609152770439,-2.8125,4.75,-5.3125
609152793578,-4.625,5.4375,-5.9375
609152814699,-3.1875,5.8125,-6.125
609152830366,0.6875,6,-6
609152854265,-0.75,6.25,-6.9375
609152874608,0.8125,6.6875,-7.9375
609152898573,1.75,7.125,-9.5
609152913647,4.25,7.5,-9.6875
609152934633,3.625,7.5625,-8.875
609152950435,1.9375,7.5,-7.5625
609152972901,4.4375,8.6875,-6.3125
609152994632,2.625,8.375,-4.625
609153010338,1,7.875,-2
609153032896,0.8125,7.4375,1.125
609153055319,0.5625,7.5625,3.125
609153070368,-4.875,6.8125,6.4375
609153092901,-7.9375,5.3125,9.4375
609153114604,-7.625,3.875,10.25
609153130426,-4.4375,2.4375,10.4375
609153152882,0.375,1.6875,9.5625
609153176067,-1.1875,2.3125,7.75
609153190362,-5.625,3.5,7.6875
609153212893,-9,3.5625,7.75
609153236017,-11.75,2.4375,7.125
609153250375,-12.125,1.3125,9.25
609153272888,-9,0.625,11.5
609153296089,-8.625,0.3125,13
609153310396,-10,0.875,14.4375
609153332898,-11.625,1.25,17
609153356019,-14.0625,1.5625,18
609153370340,-16.75,2,18.3125
609153392901,-15.8125,1.9375,18.375
609153416045,-12.625,1.9375,16.9375
609153437091,-11.5625,1.9375,14
609153452891,-8.0625,1.4375,10.5625
609153476020,-5.4375,0.6875,8.3125
609153497069,-5,0.375,6.1875
609153513323,-3.4375,0.375,4.3125
609153536068,-1.25,0.5,3.0625
609153550384,0.25,0.875,2.1875
609153572892,-2.0625,1.4375,1.5
609153596041,-1.5,1.6875,1.9375
609153610412,-1.125,1.625,1.3125
609153633315,-3.5,1.9375,1.1875
609153656051,-2.9375,1.375,1.4375
609153678553,-0.5,0.875,0.5
609153692903,0.625,0.125,-0.625
609153716015,2.125,-0.375,-0.9375
609153737149,1.25,-1,-1.5
609153752908,-0.0625,-1.9375,-1.5625
609153776039,-0.4375,-2.4375,-0.4375
609153797101,2,-2.3125,-0.8125
609153812888,3.25,-2,-1.0625
609153836022,1.9375,-1.875,-0.9375
609153857126,0.5625,-2,0.4375
609153872887,-2.3125,-1.5625,2.25
609153896087,-2.6875,-1.0625,3.0625
609153917089,-1.25,-0.6875,3
609153932895,-0.875,-0.125,2.4375
609153946451,0.25,-0.125,1.6875
609153968991,0.9375,-0.1875,1.5625
609153992140,-0.75,0.0625,1.625
609154006505,-2.25,0.3125,1.6875
609154028979,-2.4375,0.4375,1.4375
609154052154,-1.9375,0.1875,1.0625
609154066458,-0.875,-0.125,0.625
609154088997,0.9375,-0.375,0.4375
609154112109,1,-0.25,0.1875
609154126505,0.6875,0.125,-0.375
609154148941,0.625,0.0625,-0.6875
609154172123,0.8125,-0.4375,-0.1875
609154186451,1.1875,-0.75,-0.375
609154208973,2.625,-0.5,-0.5
609154232108,1.875,-0.3125,-1
609154246443,1.625,0.125,-1.3125
609154268976,2.375,0.25,-1.375
609154292094,1.6875,0,-0.875
609154306466,1.0625,-0.125,0
609154328960,0.125,0,0.25
609154352155,1.25,0.125,-0.25
609154366455,1.3125,0.1875,-0.8125
609154390394,0.9375,0.0625,-0.75
609154412095,0.75,-0.125,-0.75
609154426435,0.5,-0.25,-0.75
609154448958,1.0625,-0.1875,-0.625
609154472146,0.8125,-0.375,-0.6875
609154486461,0.875,-0.5,-0.3125
609154508963,0.1875,-0.5625,0.3125
609154532117,-0.5625,-0.375,0.375
609154546522,0,-0.4375,0.125
609154568938,0.1875,-0.4375,-0.0625
609154592134,-0.0625,-0.375,0.0625
609154606429,-0.1875,-0.125,0.0625
609154628978,-0.8125,0.1875,-0.4375
609154652127,-1.1875,0.25,-0.3125
609154666440,-1,0.1875,0.0625
609154697760,0.125,-0.125,0.1875
609154712101,0.4375,-0.25,0
609154726469,0.75,-0.3125,-0.0625
609154748940,0.375,0,-0.0625
609154772193,-0.375,0.25,-0.25
609154786423,-0.25,0.1875,-0.4375
609154808941,0,0.125,-0.4375
609154832088,-0.5,-0.1875,-0.3125
609154846486,0.25,-0.0625,-0.375
609154868997,0.375,-0.25,-0.4375
609154891926,0.1875,0,-0.1875
609154909384,-0.4375,0.25,-0.125
609154928983,-1.375,0.5,-0.0625
609154952182,-1.9375,0.4375,-0.0625
609154966447,-1.3125,0.5,-0.375
609154988934,-0.9375,0.5,-0.5625
609155011469,0.9375,0.3125,-0.625
609155026466,1.0625,0.5,-0.0625
609155049110,-0.5625,0.125,0.625
609155071423,-0.75,0.125,0.9375
609155086459,-0.6875,-0.0625,0.5625
609155108972,-0.375,-0.125,0.125
609155131502,-0.25,-0.25,-0.25
609155146496,-0.1875,-0.1875,-0.375
609155169026,0.4375,-0.0625,-0.1875
609155192924,0.875,0,0
609155214711,0.375,0,0.4375
609155229011,0.125,0.1875,0.625
