timestamp,x,y,z
61822101835,-4.5,-95.25,40
61822108785,-5.625,-90.125,35.5625
61822131365,-2.625,-86.25,32.375
61822152496,3.75,-80.1875,30.875
61822168810,6.375,-72.0625,31.25
61822191287,4.9375,-65.0625,29.8125
61822212523,9.0625,-53.8125,25.5625
61822230253,17.5625,-41.25,22.125
61822251245,19.875,-28.75,16.9375
61822273834,12.6875,-14.8125,10.25
61822297000,-1.25,-0.3125,4.0625
61822312527,-16.25,15.4375,-1.4375
61822340754,-26.1875,31.9375,-5.125
61822348828,-31.3125,47.1875,-7.0625
61822371365,-29.6875,59.125,-9.75
61822393825,-30,69.875,-15.8125
61822416347,-28.1875,79.3125,-20.8125
61822430731,-27.1875,91.875,-24.1875
61822453130,-30.3125,100.375,-28.375
61822468021,-38.5625,104.625,-33.0625
61822490658,-48.9375,107.688,-39.875
61822513211,-54.4375,110.062,-44.9375
61822528137,-55.9375,112.938,-48.25
61822550592,-58.375,117.125,-51.5
61822573199,-62,121.875,-57.25
61822588236,-64.8125,123.125,-55.75
61822610405,-66.25,126.375,-60.3125
61822633135,-72.25,133.375,-65.75
61822647552,-69.0625,141.875,-66.125
61822670637,-63.4375,148.938,-66.25
61822693004,-67.1875,146.688,-67.3125
61822708100,-72.5625,139.625,-69.4375
61822730738,-71.8125,139,-72
61822753067,-64.375,143.188,-74.875
61822783785,-60.5625,138.312,-79.1875
61822790717,-61.75,127.562,-80.1875
61822813094,-61.8125,122.625,-83.3125
61822828212,-58.3125,118.5,-83.5625
61822850592,-58,117.625,-87.125
61822873212,-61.125,117.25,-90.0625
61822888161,-53.75,116.438,-91.375
61822910727,-39.6875,113.812,-92.5625
61822933146,-33.625,111.938,-91.125
61822948158,-38.875,110.188,-84.0625
61822970755,-45.9375,110.5,-80.1875
61823001668,-41.75,108.312,-78.5
61823008230,-26.1875,106.75,-79.25
61823030743,-15.875,105.688,-77.8125
61823053180,-11.125,105.75,-73.625
61823067564,-9.0625,101.75,-69.25
61823090042,-3.5,97.1875,-65.875
61823113199,1.3125,89.25,-60.6875
61823135560,5.6875,78,-58
61823149928,10.75,68.0625,-57.5
61823173193,13.375,54.6875,-56.75
61823187523,10.9375,41.75,-55.25
61823210078,2.875,31.5625,-53.75
61823241386,-6.5,19.6875,-52.875
61823247475,-10,8.75,-52.3125
61823269873,-7.8125,1.4375,-52.5625
61823295890,-3.6875,-3.625,-52.8125
61823307535,-5.125,-7.25,-50.625
61823329998,-10,-9.75,-46.5
61823353077,-15.1875,-13.6875,-42.1875
61823367553,-9.875,-16.4375,-35.25
61823389858,1.75,-17.5,-30.0625
61823413209,11.9375,-15,-28.0625
61823427527,15.0625,-10.375,-23.3125
61823450085,9.125,-8.875,-17.25
61823473170,0.875,-6.8125,-12.75
61823487415,-2.0625,-5.4375,-9.4375
61823510031,-3.3125,-4.5625,-5.3125
61823533109,-6.625,-5.25,-1.0625
61823547583,-5.9375,-8.125,1.5625
61823569895,4.125,-6.1875,2.5
61823593178,15.625,-4,4.375
61823615629,20.0625,-3.3125,4.6875
61823638117,20.8125,-1.5625,2.8125
61823652350,18.125,2,5.5625
61823667426,9.125,13.1875,0.9375
61823690071,7.1875,5.5625,0.9375
61823712566,11.5,1.625,2.1875
61823737015,22.25,-5.6875,5.375
61823750058,36.4375,-7.5625,6.4375
61823772533,40.25,-1.0625,0.3125
61823787499,29.3125,-2.875,7.875
61823809892,10.5,-8.625,11.5
61823832538,-8.3125,-5.4375,11.375
61823848978,7.875,-1.4375,-4.625
61823869976,13.8125,-4.1875,-9.5625
61823892426,-1.5,-6.6875,-3.3125
61823907535,-6.5,-3.5625,-1.125
61823930041,-8.4375,-2.25,0.5
61823953851,-8.6875,3.1875,5.875
61823975724,-6,3.875,7.6875
61823989932,-2.9375,-1.3125,3.6875
61824012495,5.25,-5.25,1.0625
61824027574,11.5625,-10.8125,-1.1875
61824050105,13.3125,-11.4375,-3.3125
61824072520,10.375,-8.0625,-1.625
61824087532,3.3125,-7.0625,0.8125
61824110031,-1.0625,-11.375,4.1875
61824132551,-7.4375,-12.625,5.5625
61824147621,-2.4375,-12.9375,6.875
61824169981,-6.25,-15.875,0.1875
61824192501,-10.375,-5.1875,3.75
61824207455,-13.8125,3.3125,19
61824230015,-20.5,1.8125,14.5
61824252409,-9.8125,2.5625,11.25
61824270269,-0.625,9.9375,-4.1875
61824290053,-12,0.75,3.3125
61824312562,-20.25,-1.8125,7.3125
61824327516,-9.0625,3.625,11.375
61824350045,2.9375,6.6875,-3.5625
61824372378,5.1875,4.1875,0.6875
61824387390,4.375,-1.0625,-0.9375
61824410056,3.3125,-7.9375,3.25
61824432531,8.0625,-5.8125,-4.0625
61824448921,1.4375,-4,-3.75
61824470025,-10.625,-5.25,-3.25
61824492473,-18.4375,-1.625,6.125
61824508857,-22.25,-4.375,10.8125
61824530075,-16.3125,-8.625,-0.25
61824552460,-13.25,-3.625,-0.3125
61824568786,-7.625,-1.4375,-5.1875
61824592907,-7.0625,2.875,6.6875
61824612634,-1.375,2.0625,6.125
61824628953,4.1875,2.5625,3.625
61824650027,8.5625,2.5625,5.6875
61824680530,11.5625,-2.6875,2.5625
61824688844,8.3125,-6.25,2.6875
61824709913,2.3125,-1.625,1.75
61824732474,-4.25,-1,8.375
61824748777,-5.1875,-3.9375,10.4375
61824769960,-8.4375,-4,1.375
61824792367,-6.5,-12.5,-3.3125
61824808807,-3.5625,-15.125,-1.625
61824829810,-0.25,-10.0625,1.9375
61824852339,-0.5,-2.1875,1.5
61824868848,-3.125,-1.8125,6.4375
61824890031,0.3125,-3.8125,9.5625
61824912407,3.625,-6.1875,3.3125
61824928864,6.25,-4.375,-2.9375
61824958065,5.625,-2.875,-4.75
61824972503,6.75,0.5625,-4.5625
61824988845,5.8125,-1.5,-4.625
61825009944,3.0625,-0.9375,-0.8125
61825032422,2.1875,3.375,2.5625
61825048791,2.625,7.125,4.5625
61825069882,-2.5,4.5,10.75
61825092465,3.375,-0.5,12.8125
61825114916,8.125,0.8125,9.6875
61825129932,22.6875,2.375,1.6875
61825152433,38,5.1875,-8.75
61825176303,48.4375,15.3125,-39.125
61825198111,56.875,7.25,-26.0625
61825220582,23.6875,-21.125,33.875
61825228854,-29.375,2.1875,1.25
61825252780,-41.6875,3.125,-2.4375
61825272562,-6.125,0.9375,-4.4375
61825288885,15.375,0.375,1.5
61825309926,5.5625,-0.625,-2.75
61825332659,-1.8125,2.5625,2.1875
61825348931,-0.25,-3.0625,-0.625
61825378074,-0.1875,-4.4375,9.125
61825392587,-9.3125,-8,6.0625
61825408936,-9.125,-11.625,-0.6875
61825438243,-1.875,-9.5625,-1.0625
61825452483,5.125,-7.375,-4.75
61825468823,-1.5,-0.625,-5.8125
61825491386,1.9375,-0.625,-0.8125
61825512434,5.6875,-0.125,0.6875
61825528918,3.125,-2.875,0.75
61825551374,-2.0625,-1.375,-1.1875
61825572578,-7.3125,-1.5,-0.3125
61825588926,-8.1875,-1.8125,1.5
61825611362,-8.25,-4.0625,1.9375
61825632644,-9.25,-4.75,1.9375
61825655082,-7.3125,-7.0625,-7.75
61825671407,-10.0625,-0.625,-7.25
61825692576,-8.5,2.8125,2.375
61825708855,-0.6875,2.4375,3.875
61825731375,5.625,-2.6875,1.5625
61825752427,6.6875,-5.4375,-4.625
61825768876,3.5,-0.25,-3
61825791369,3.8125,2.0625,0.3125
61825812586,3,-1.5,0.75
61825828907,1.4375,-1.6875,3.25
61825851389,-1,-1.125,2.75
61825872557,-2.6875,-4.625,0.3125
61825888947,-3.25,-3,-0.6875
61825911431,-2.9375,-2.8125,0.75
61825933877,-0.625,0.0625,3.1875
61825948880,1.4375,0.625,2.1875
61825971356,-1.6875,1,3.375
61825992572,-4.75,-2.75,-0.6875
61826008920,-9.3125,-4.1875,-0.5625
61826031421,-7.6875,-1.6875,1.875
61826052473,-3.25,0.8125,6.1875
61826068820,0.25,3.75,9.5
61826090646,3.3125,-0.3125,8.3125
61826113206,0.25,-5.5,6.8125
61826137069,9.75,-3.8125,6.3125
61826150732,28.3125,1.1875,3.5625
61826173118,31,0.125,2.625
61826188298,3.9375,-4,1.375
61826210745,-28.3125,-2.6875,16.125
61826233306,-24.8125,-7.0625,20
61826255726,-34.25,-4.25,11.125
61826270739,-30.25,-2.625,-8.25
61826293126,-28.6875,-0.9375,-15.3125
61826308230,-11.1875,4.3125,-20.125
61826330742,13.5625,3.8125,-10.0625
61826353155,12.3125,3.75,1.6875
61826368178,-2.1875,-13.25,0
61826392113,7.3125,1.6875,1.4375
61826413282,-7.625,-1.4375,1.75
61826428291,-22.75,8.3125,6.3125
61826450792,-17.6875,16,6
61826473221,-12.8125,5.125,4.0625
61826489603,-14.3125,9.1875,6.3125
61826512089,-4.6875,2.125,3
61826533210,-6.4375,2.625,5.875
61826550211,-6.4375,3.9375,1.25
61826570791,1.25,7.0625,0.9375
61826593291,12.625,10.4375,1.1875
61826610010,19.8125,8.25,-2.625
61826630690,21.6875,-0.875,-6.75
61826653138,34.375,-15.3125,-18.6875
61826669506,52,-31.625,-33.75
61826692531,42.1875,-33.4375,-20.375
61826714539,25.6875,-5.9375,-7.375
61826729668,-5.3125,-2.75,-0.9375
61826752021,-11.6875,-1,4.1875
61826773225,-9.5,1.4375,6.625
61826789547,-4.6875,-2.25,8.0625
61826810786,3,2.6875,3.875
61826833351,11.3125,4.1875,1.8125
61826849665,8.25,4.75,1.875
61826872063,5.25,5.375,1.375
61826893226,5.25,5.5625,1.75
61826909618,5.4375,4.9375,1.8125
61826930771,6.5625,4,2
61826953077,4,1.0625,-0.5625
61826969534,2.4375,1,-1.125
61826990738,2.4375,-0.375,-1.875
61827013230,3.75,-1.1875,-1.125
61827029584,4.5,-4.875,-1
61827050658,7.375,-4.8125,1.625
61827073233,6.6875,-3.5625,1.75
61827090060,6.75,-4.5,1.125
61827111048,8.6875,-4.9375,1.6875
61827133345,9.875,-7.875,3.875
61827149566,9.8125,-8.5625,4.6875
61827170623,8.4375,-7.0625,3.5
61827200652,7.8125,-4.8125,4.75
61827209574,6.375,-4.1875,2.4375
61827230659,4.375,-2.3125,2.625
61827253133,1.25,-2.1875,2.75
61827269544,-0.1875,-3.3125,4.125
61827290619,-1.0625,-4.3125,1.875
61827313056,0.125,-3.625,2.875
61827328859,-0.875,-0.9375,1.6875
61827350899,-2.1875,0,0.125
61827373255,2.875,0,-5.375
61827388945,4.3125,0.5625,-0.1875
61827412056,-3.4375,-2,-0.375
61827434622,-3.5625,-2.125,1.0625
61827448945,-0.3125,-3.1875,0.875
61827472104,2.625,-3.4375,1
61827493262,3.6875,-4.8125,0.4375
61827509004,0,-2.0625,-1.1875
61827532068,1.3125,-3.125,-1.375
61827553130,2.5625,-1.5625,-0.3125
61827575731,2.5,-3.1875,-1.4375
61827598288,2.5,-3.625,-0.8125
61827613006,1.875,-3.6875,-1.6875
61827628987,5.1875,-5.0625,-4.6875
61827652098,3.375,-3.5,-2.25
61827673259,-1.5,-3.0625,-0.75
61827688921,-2,-2.875,-0.75
61827712081,-0.6875,-2.4375,-2.1875
61827733240,-1.0625,-1.4375,-2.0625
61827748912,-1.625,-1.6875,-1.3125
61827772087,-1.3125,-1.5625,-1
61827793297,-0.1875,0.3125,-0.375
61827808983,1.3125,0.8125,-0.9375
61827832127,0.5,0.1875,-0.375
61827853091,42.4375,0.625,-4.4375
61827868885,10,0.375,-1.8125
61827892110,2,0.5,2.1875
61827913124,-0.875,0.5625,0.4375
61827928945,-7.3125,0.25,-1.9375
61827952032,-17,2.4375,-1.6875
61827973213,-13.8125,0.1875,-2.1875
61827988854,-2.6875,1.5625,-4
61828012745,0.5625,0.4375,-0.4375
61828040761,1.8125,-0.4375,0.4375
61828048936,2.5625,-0.75,-0.8125
61828072065,-0.8125,-2.3125,1.25
61828093280,-1.9375,-1,1.3125
61828109029,0.9375,-0.25,1.1875
61828132137,2.625,-1,-1.625
61828155093,-0.375,0.0625,-0.75
61828168912,-1.8125,-0.875,-0.4375
61828192094,-0.625,-0.625,0
61828213367,1.4375,-0.75,-1
61828228919,1.0625,-1.125,-0.3125
61828259635,-0.375,-1.375,-0.0625
61828273265,0.1875,-1.75,-0.6875
61828288899,0.875,-2.5,-1.6875
61828311380,0.1875,-2.375,-3
61828333144,-0.6875,-1.8125,-4.25
61828348891,-0.9375,-2.25,-4.5625
61828371338,-0.9375,-2.25,-5.1875
61828394657,0.125,-2.1875,-6
61828408926,0.5625,-1.5,-6.8125
61828431942,-0.0625,-0.375,-8.0625
61828454595,-0.625,0.0625,-9.0625
61828468911,-0.625,0.3125,-10.375
61828491443,-0.5625,-0.1875,-11.9375
61828514376,-0.3125,-0.8125,-13.5
61828530412,0,-0.1875,-13.75
61828551456,0.8125,-0.1875,-14.5
61828574627,1.625,0.1875,-14.5625
61828588987,0.625,0.875,-14
61828611443,2.125,1.5,-16.3125
61828634533,0.6875,-0.125,-16.875
61828648984,-2.0625,1.0625,-16.0625
61828671474,-2.875,1.625,-13.9375
61828694674,-1.75,1.125,-14.4375
61828708949,-1,0,-14.125
61828731429,-3.0625,-0.8125,-12.6875
61828754632,-3.5625,1.5,-12.75
61828768980,-2.625,-5.375,-8.9375
61828791540,-14.6875,-1,-11
61828814672,0.125,-2.5625,-8.8125
61828828963,-4.6875,-3.875,-5.1875
61828858349,-7.125,-3.625,-7.6875
61828874575,-6.8125,-3.125,-5.625
61828895788,-10.0625,-2.5625,-4.3125
61828911456,-5.3125,-2.375,-2.5625
61828934654,1.4375,-3.625,-2.9375
61828955798,4.5625,-2.4375,-2.5625
61828971444,3.0625,-2.1875,-4
61828994657,-3.25,-2.75,-1.0625
61829015825,-5.625,-2.375,1.4375
61829031427,-2.4375,-2.4375,1.3125
61829054603,0.3125,-2.625,0.625
61829075729,-0.625,-1.4375,1.5625
61829091492,-2.5625,0.25,2.5625
61829114681,-1.6875,0.5,2.875
61829135697,-0.125,-0.3125,2.6875
61829151470,0.0625,-1.1875,2.25
61829174024,-0.75,-2,2.25
61829195788,-1.1875,-1.9375,2.6875
61829211457,-0.1875,-2.1875,2.5625
61829233995,1.125,-1.625,2.5625
61829255790,2.1875,-1.0625,1.9375
61829271526,1.8125,-1.1875,1.6875
61829293954,0.8125,-1.1875,1.875
61829317042,1.75,-1.0625,1.5625
61829331400,2,-1,1.3125
61829353880,1.875,-0.8125,0.875
61829377093,0.125,-1.25,0.4375
61829391538,-0.75,-1.0625,0.0625
61829413950,-0.9375,-0.8125,-1.625
61829437169,-1.8125,0.0625,-2.9375
61829451458,-4.8125,2.5,-2.8125
61829473961,-3.1875,0.4375,-1.125
61829497166,0,-1.1875,0.1875
61829511436,3.75,-1.8125,0.9375
61829542134,3.125,-1,0.4375
61829557836,0.25,-0.375,0.9375
61829571499,-0.5,-0.75,-0.8125
61829593899,-0.9375,0.0625,-2.75
61829617219,-1.8125,-0.9375,-1.4375
61829631557,4.25,0.4375,-0.625
61829653965,18.5,-1.9375,-0.625
61829677054,20.25,-3.25,-0.4375
61829699687,13.9375,-3.4375,-0.0625
61829714024,8.3125,-3,1.1875
61829737093,5.8125,-0.875,0.5625
61829749986,5.6875,-0.9375,-0.9375
61829773115,5.375,-1.625,-0.8125
61829787700,0.3125,-1.375,-0.3125
61829810821,-2.75,-1,0.3125
61829833150,-7.5,-0.375,0
61829847661,-22.25,1.3125,0.125
61829869988,-29.125,3.9375,1.3125
61829893298,-14.125,0.9375,-0.6875
61829908991,-3.5,1.9375,-2.9375
61829930244,2.1875,2.0625,-1.75
61829953241,0.0625,2.625,1.4375
61829967720,-0.375,0.0625,1.8125
61829990745,1.125,0.1875,2.25
61830013163,1.6875,-1.75,1.1875
61830027534,1.1875,-0.0625,0.125
61830050654,1.375,0.5,-0.6875
61830073272,0.4375,-0.0625,0.4375
61830087565,-0.375,-0.9375,1.0625
61830110849,1.875,-1.875,0.9375
61830141406,2,-1.1875,0.25
61830155824,0.125,-0.1875,0.625
61830170502,-0.5625,0,0.5625
61830193310,-1.1875,-0.1875,0.0625
61830207626,0.5,0.1875,0.0625
61830230052,2.375,0.5,1.25
61830270947,2.1875,0.875,2.25
61830275794,1.5,0.5625,1.875
61830290181,2.125,-0.375,1.5
61830313251,1.6875,-0.4375,1.5625
61830335665,1.0625,-1.3125,0.4375
61830351457,0.125,-0.9375,0.5625
61830373306,0.125,-1,0.3125
61830387588,0.625,-1,0.5625
61830410195,1.3125,-0.8125,-0.125
61830433294,0.5,-1,0.5625
61830447739,-0.5,-1.6875,0.1875
61830471537,0.125,-1.6875,-0.0625
61830493229,0.5625,-1.1875,0.125
61830507528,-0.3125,-1.6875,0.8125
61830530054,-1.1875,-2.625,0.125
61830553149,-2.0625,-2.875,-0.9375
61830567740,28.0625,-2.4375,0.625
61830590231,27.375,-3.125,-2.0625
61830613217,16.5625,-4.5,-1.8125
61830627561,19.8125,-4.25,0.5
61830650130,22.25,-3,-1.1875
61830673314,16.875,-2.8125,-0.8125
61830687657,5.125,-1.75,-0.4375
61830710101,-7.8125,0.8125,-0.8125
61830733121,-22.125,1.3125,-3.1875
61830747707,-35.1875,0.0625,-3.6875
61830771516,-42.4375,1.9375,-0.9375
61830793325,-19.9375,1,0.25
61830807733,-4.4375,3.375,-3.625
61830830198,2.8125,3.4375,-2.125
61830853192,-1.375,3.1875,-0.25
61830867716,-4,1.625,0.4375
61830890027,-1.3125,-0.3125,0.625
61830913352,0.375,-0.4375,-0.6875
61830927633,1.5625,0.875,-1.0625
61830950283,0.9375,1.1875,-1
61830973359,1.3125,1.3125,-1.1875
61830987562,2.5625,-0.625,-1
61831010058,2.5625,-2,-1.1875
61831032731,1.625,-2.125,-1.9375
61831047757,0.5,-0.9375,-2.625
61831070044,0.1875,-1.5,-3.3125
61831093287,-0.5,-1.4375,-4.25
61831108964,0.1875,-1.875,-5.25
61831130100,-0.375,-0.75,-5.375
61831153230,-1.5,0.5,-5.75
61831167721,-0.375,0.0625,-6.3125
61831190205,-0.1875,-0.3125,-6.75
61831212605,-0.375,1.3125,-6.6875
61831227750,0.625,2.6875,-8.0625
61831250202,1.5,2.5625,-7.875
61831266584,1.625,1.625,-8.5
61831287573,3.1875,1.875,-9.4375
61831310128,5.375,2.6875,-9.8125
61831341511,7.3125,1.625,-9.8125
61831347524,8.1875,0.375,-9.75
61831370072,9.6875,-1.125,-12.6875
61831386487,9.0625,-2.5625,-15.5
61831407567,6.8125,-0.75,-16.4375
61831430215,7.0625,-0.4375,-18.0625
61831446449,7.9375,-2.1875,-17.5625
61831467727,10.5,-3.875,-19.6875
61831491568,13.4375,-4.8125,-21.875
61831512717,14.3125,-5.1875,-24.125
61831527601,11.625,-6.0625,-26.3125
61831558261,8.0625,-8.875,-28.125
61831572707,5.625,-16.625,-26.9375
61831587533,8.5,-21.8125,-29.8125
61831610072,9,-23.0625,-34.8125
61831632543,7.6875,-24.625,-37.8125
61831647681,0.0625,-26.6875,-40.125
61831670053,-6.25,-31.9375,-38.9375
61831692567,-7.4375,-34.5625,-41.1875
61831707576,-4.3125,-33.125,-45.75
61831730269,-2.9375,-31.4375,-46.3125
61831752581,-6.3125,-31.75,-44
61831767787,-9.1875,-34.125,-41.9375
61831790183,-7.5,-33.6875,-41.5625
61831812751,-0.0625,-32.1875,-41.0625
61831827701,2.875,-31.9375,-39.3125
61831850237,-0.625,-33.4375,-36.25
61831872641,-5.5,-35.75,-33.5625
61831887611,-5.4375,-35.8125,-32.3125
61831910193,-1.5,-33.625,-32.9375
61831932665,1.25,-32.25,-31.625
61831947646,-1.3125,-31.5625,-29.0625
61831970144,-2.6875,-30.3125,-26.75
61831992742,0.75,-28.6875,-24.625
61832010529,6.25,-26.25,-21.3125
61832030235,8.8125,-23.75,-18.1875
61832052622,13.125,-24.125,-14.125
61832068996,21,-30.625,-8.6875
61832090099,29,-42,-5.625
61832112755,40.0625,-49.625,-7.5
61832129104,44.9375,-50.4375,-14.9375
61832150059,34.9375,-46.3125,-22
61832172676,14.75,-40.5,-26.25
61832188981,-0.75,-35.5625,-27.75
61832210242,-1.3125,-32.0625,-29.1875
61832232735,10,-26,-29.1875
61832249069,24.9375,-19.25,-24.3125
61832269975,35.125,-15,-18.1875
61832292769,39.75,-12.5,-11.875
61832309032,46.375,-9.75,-5.75
61832330032,46.625,-2.25,-4.625
61832352567,42.3125,5.25,-6.5625
61832369075,39.1875,11.0625,-10.5
61832390237,38.4375,12.625,-13.6875
61832412672,36.875,13.25,-16.25
61832429065,32.0625,13.875,-16.6875
61832450276,23.8125,18.1875,-14.8125
61832472758,15.75,21.9375,-12
61832495010,12.125,26.1875,-10.625
61832510225,18.875,32.625,-11.5
61832532822,31.3125,41.6875,-12.5
61832549015,34.3125,47.1875,-11.6875
61832570115,27.9375,50.1875,-11.9375
61832592746,18.8125,52.4375,-13.25
61832609009,14.3125,54.1875,-14.8125
61832630239,10.75,53.9375,-17.625
61832652643,9.4375,53.875,-19.1875
61832668985,7.8125,54.4375,-20.5625
61832690158,4.5625,55.3125,-21.625
61832712755,-2.6875,54.3125,-23.6875
61832729035,-4.625,55,-23.4375
61832750259,-7.9375,55.625,-22.9375
61832772677,-10.5,58,-21.25
61832789000,-13.1875,62.5625,-19
61832810146,-10.9375,68.75,-15.8125
61832832647,-5.5,73.5,-13.625
61832849061,3.5625,77.25,-12.5625
61832870039,9,80.875,-11.625
61832892754,-5.8125,84.9375,-11
61832909091,-31.875,86.0625,-9.625
61832930189,-43.3125,82.0625,-4.125
61832952618,-35.1875,72.6875,2.25
61832969022,-33.8125,63.375,7.5
61832991614,-46.9375,59.125,13.125
61833012567,-66.875,57.4375,19.0625
61833028985,-78.9375,53.75,30.0625
61833051537,-79.75,47.25,38.0625
61833072562,-76.375,40.5625,42.1875
61833089005,-78.875,31.25,50.0625
61833111495,-85.6875,27.625,55.0625
61833132704,-96.0625,23.625,59.5
61833149081,-97.25,16.875,68.125
61833171569,-89.75,5.1875,75.8125
61833192735,-72.375,-12.625,84.6875
61833209074,-42.5,-34.3125,93
61833231591,-5.75,-49.125,94.75
61833252756,15.375,-50.5,81.5
61833269056,0.5625,-49.75,61.125
61833291568,-28,-53,37.9375
61833312586,-56.4375,-50.875,14.5625
61833328990,-95.75,-47,-6.375
61833351507,-127.188,-46.375,-12.9375
61833372700,-131.688,-46.3125,-11.3125
61833389025,-108.562,-42.3125,-6.875
61833411535,-90.375,-40.8125,-2
61833432643,-69.25,-44.75,6.6875
61833448304,-51.3125,-45.8125,21.0625
61833470791,-46.25,-39.0625,20.125
61833493249,-43.9375,-22.75,9.75
61833508250,-40.4375,-9.25,1.375
61833530739,-26.75,-4.9375,-5.9375
61833553239,-22.9375,-8.4375,-8.25
61833568247,-31.5,-13.5,-5
61833590755,-43.5,-14.9375,-1.375
61833613227,-47.4375,-16.1875,-4.3125
61833628221,-36.625,-19.25,-7.0625
61833650721,-15.6875,-20.75,-5.125
61833673197,5.5,-20.375,-2.0625
61833688238,13.75,-17.0625,-1.5
61833733933,11.125,-16.8125,-2.1875
61833734726,6.25,-19.875,-5.125
61833749649,4,-23.8125,-8.8125
61833785743,7.1875,-27.25,-10.25
61833802184,11.0625,-24.8125,-14.125
61833817152,8.3125,-23.8125,-16.9375
61833838238,1.25,-25.1875,-16.9375
61833854653,-4.875,-21.5,-18.5625
61833877178,-8.875,-15.3125,-14.3125
61833898284,0.75,-10.9375,-14.625
61833914677,9,-5.4375,-13.0625
61833937162,6.6875,-2.6875,-12.5625
61833958265,0.6875,-2.5,-11.125
61833974525,0.5625,-2,-10.5
61833997161,9.5625,1.3125,-9
61834018220,16.125,1.75,-5.8125
61834034656,14.875,-5.8125,-5.6875
61834057214,3.875,-7.625,-4.25
61834078289,4.875,-11.3125,-3.6875
61834094681,12.0625,-15.5625,-3.375
61834117120,20.4375,-19,-2.6875
61834138271,17.0625,-22.0625,-2.0625
61834155327,8.75,-19.3125,-1.375
61834177158,-18.75,18.5,13.0625
61834198211,4.4375,22.625,4.8125
61834214657,42,12.3125,-6.875
61834237157,49.5625,7.5,-1.0625
61834258249,15.125,0.9375,-4.3125
61834274648,-29.9375,6.5,-4
61834297189,-19.75,7.625,-7.1875
61834318253,7.6875,6.0625,-6.125
61834334654,20.4375,1.75,-4.4375
61834357135,11.6875,1.4375,-5.375
61834378250,2.3125,1.25,-4.625
61834394024,3.875,3.3125,-4.125
61834417214,11.6875,4.6875,-3.3125
61834439641,17.3125,5.875,-4.8125
61834454684,13.375,8.375,-4.4375
61834477150,9.1875,10,-3.0625
61834490755,7.0625,4.375,-3.5625
61834506505,3,6.6875,-2.5
61834551954,9.4375,2.875,-3.5
61834558263,7.3125,4.0625,-0.0625
61834573269,10.75,2.9375,-2.6875
61834620347,8.5625,6.375,-1.0625
61834621159,4.875,5.9375,-0.6875
61834640770,1.4375,4.3125,2.25
61834657201,-2.5,6.875,5
61834672156,-2.875,2.9375,7.125
61834687957,-8.5,4.8125,9.4375
61834723926,-11.75,7.125,6.75
61834730788,-8.625,4.625,3.8125
61834746542,-4.3125,6.3125,5.25
61834769729,-3.875,8.1875,6.375
61834790773,-0.0625,8.375,2.875
61834806501,0.1875,5.3125,5.8125
61834829685,-1.1875,4.0625,4.625
61834850793,0.4375,3.625,3.9375
61834866544,2.375,1.875,4.625
61834889059,4.375,1.625,3.0625
61834910797,2.75,-0.125,3.8125
61834926548,18.6875,-3.625,-1.875
61834949029,12.25,3.9375,5.125
61834970745,-2.3125,3.0625,0.125
61834986563,-3.1875,4.1875,-1
61835009045,7.75,2.0625,0.0625
61835032155,6.5625,1.125,0
61835046520,1.9375,0.75,-0.5625
61835069075,0.75,0.75,-2.25
61835092682,5.25,1.75,-2.5
61835106539,8.875,2.0625,-2.5
61835129063,11.1875,3.625,-3.5
61835152171,14.375,4.5625,-4.3125
61835166520,15.9375,5.75,-6.3125
61835188998,18.25,4.4375,-11
61835212276,24.1875,1.625,-14.3125
61835233367,29.4375,0.1875,-14.1875
61835249075,27.5,-1.375,-15.125
61835272259,16.3125,-1.0625,-17.125
61835293440,8.0625,-6,-18.0625
61835309059,-1.1875,-6.0625,-17.75
61835332258,2.75,-7.875,-10.625
61835353281,-2.3125,-5.125,-7.9375
61835369046,-3.375,-1.0625,-3.6875
61835392188,-3.0625,4.4375,-1
61835406531,1,8.375,2.9375
61835429103,-0.875,8.125,6.5
61835452233,-11.125,7.75,8.5
61835466692,-15.4375,6.8125,8.75
61835489123,-17.9375,5.0625,6.875
61835512278,-12.6875,1.625,5.5625
61835533426,-6,-0.25,3.5
61835549096,-0.5625,0.125,2.1875
61835572253,1.625,2.125,2.0625
61835593363,3.375,3.8125,3.4375
61835609053,1.1875,4.3125,4.5
61835632283,-1.3125,3.125,4.6875
61835653352,-1.875,2.5625,3.75
61835669124,-0.3125,2.25,2.9375
61835692242,0.25,3.5625,1.5625
61835713442,0.8125,4.125,0.1875
61835729092,2.6875,3.9375,-0.5625
61835752252,5.3125,2.1875,-1.3125
61835773359,9.6875,0.9375,-1.1875
61835789070,8.875,0.875,-1.375
61835811573,11.5,1.5,-1.6875
61835833453,9.6875,3.1875,0
61835849139,7,3,1.875
61835871579,3.1875,5.125,1.8125
61835893248,2.125,5.25,1.9375
61835909028,1.8125,4.875,2.0625
61835931510,0.9375,4.8125,1.4375
61835954754,1,5,1.6875
61835969109,0.3125,4.5625,1.625
61835991614,0.125,4.5625,1.3125
61836014732,0.5625,4.3125,0.4375
61836029040,1.6875,6,1.0625
61836051612,-0.5625,6.1875,3.5
61836074680,-0.25,7.625,4.3125
61836089148,-2.0625,6.25,2.4375
61836111575,1,3.75,1.5
61836134715,3.5,0.875,1.625
61836149052,3.1875,-1,0.9375
61836171564,0.625,-2.125,0.1875
61836201470,-2.9375,-3.625,-1.3125
61836209059,-4.1875,-4.875,-1.75
61836231636,-2.3125,-4.5625,-3.3125
61836254729,1.875,-3.75,-3.25
61836269083,4.125,-3.625,-2.875
61836291660,4.9375,-3.125,-2.625
61836314842,3.625,-2,-3.3125
61836329139,3.375,-2.5,-3.75
61836351572,5.75,-4.625,-3.5
61836374750,8.5,-6.8125,-3.5625
61836389068,5.0625,-9.125,-5.625
61836411526,9.3125,-3.6875,-5.4375
61836434826,12,-1.625,-4.4375
61836456218,11.625,0.625,-2.1875
61836471576,9.1875,2,-0.75
61836494805,5.9375,2.8125,0
61836515896,4.25,3.8125,0.9375
61836531600,3.0625,4.0625,1.125
61836554704,3.0625,4.75,1.5
61836575804,3.6875,5.125,1.9375
61836591532,4.4375,5.1875,2.0625
61836614720,4.125,5,2.1875
61836635790,5,4.5,1.9375
61836651608,5.625,4.5625,1.75
61836674778,5.75,5.125,1.6875
61836695785,8.625,5.125,0.375
61836719760,9.25,4.75,0.3125
61836734731,12.8125,3.9375,-0.625
61836755901,15.4375,4.1875,0.6875
61836771546,11.625,4.4375,1.25
61836794061,5.375,3.375,2.0625
61836815800,0.4375,1.3125,1.75
61836831553,-2.625,-0.25,2.3125
61836854089,-5.75,-1.375,2.1875
61836876107,-7.5,-1.0625,2.125
61836891554,-6.5,-0.8125,2.6875
61836914056,-7,0.9375,2.875
61836937199,-8.0625,1.75,2.5
61836951535,-7.5625,1.125,2.75
61836976133,-4.5,-0.5625,1.3125
61836997218,-3.3125,-0.1875,1.4375
61837011574,-4,0,-0.1875
61837034085,-2.8125,-0.375,-0.1875
61837057264,-1.375,-0.875,0.0625
61837071709,-1.8125,-0.875,0.0625
61837094076,-3.5625,-0.125,0.625
61837117198,-4.875,0.6875,1.125
61837131650,-5.375,1.4375,1.75
61837145242,-6.9375,1.8125,2.0625
61837167708,-8.1875,1.5625,2.5
61837190844,-8.75,1.3125,2.125
61837205129,-7.4375,0.875,1.25
61837227642,-5.4375,0.9375,1.875
61837250850,-3,-0.5,0.6875
61837265140,-4.4375,-0.6875,1.1875
61837287643,-2.875,-0.8125,0.3125
61837310857,0.25,-0.875,-0.125
61837325147,0,-0.625,-0.1875
61837347623,-1.125,-0.3125,-0.75
61837370780,-0.3125,-0.0625,-0.5
61837385173,1.375,0.4375,-0.1875
61837407660,1.625,0.625,0
61837431887,-0.1875,0.1875,0.25
61837445179,-1.1875,-0.1875,-0.25
61837467678,0.5,0.1875,-0.625
61837492072,2.75,0.6875,-0.9375
61837505185,4.625,0.4375,-0.8125
61837528136,5.375,0.25,-0.3125
61837550787,4.1875,0.1875,0.1875
61837565188,1.5625,-0.25,-0.125
61837587682,-1.5,-0.3125,0.625
61837610807,-2.0625,-0.375,0.8125
61837625143,-2.4375,0.1875,1.125
61837647702,-2.375,0.3125,1.375
61837670819,-1.75,0.375,1.6875
61837685395,-1.1875,0.125,1.9375
61837707891,-2.375,0.625,1.4375
61837730911,-4.5,0.4375,0.6875
61837745196,-3,-0.625,0.625
61837767771,-0.4375,-0.6875,0.625
61837791028,0.375,-0.0625,0.5
61837805231,0.0625,0.5625,0.375
61837827671,-1.25,0.375,0.625
61837850830,-1.375,-0.3125,0.9375
61837866551,-1.4375,-0.625,0.75
61837887664,-0.625,0.3125,0.5625
61837910198,-0.375,1.125,0.5625
61837925176,0,0.5,0.125
61837947730,2.375,0,0.25
61837970188,2.6875,-0.25,-0.0625
61837987280,0.6875,0.5,-0.5625
61838007654,-0.125,0.9375,-0.5625
61838030206,1.8125,0.6875,0.0625
61838045378,3.875,0.3125,0.25
61838067798,2.9375,0.375,0.0625
61838090296,0.5,0.9375,-0.1875
61838105151,-0.6875,0.5625,-0.125
61838127754,0.6875,-0.375,0
61838150234,2.5,-1,0.375
61838165315,1.125,-0.8125,0.25
61838187724,0,0,0.3125
61838210355,-0.9375,0.75,0.125
61838225335,0.125,0.375,0.5625
61838247786,0,-0.3125,0.625
61838270203,-0.375,-0.0625,0.75
61838285316,-0.8125,0.25,0.4375
61838307843,-1.25,-0.4375,0.5625
61838330342,-0.25,-0.6875,0.4375
61838345207,0.1875,0.3125,0.3125
61838367707,-1.8125,1.25,0.125
61838390386,-1.4375,0.625,0.5
61838405207,0,-0.5,0.875
61838427791,-0.0625,-0.9375,0.0625
61838450342,0,-0.5,0.125
61838465270,-0.5625,0.0625,-0.0625
61838487775,0.375,0.375,0.4375
61838510202,0.4375,0.5,0.1875
61838525336,0.8125,0.125,0.125
61838547834,0,-0.25,0.1875
61838570227,-0.6875,-0.125,0.375
61838585360,0.0625,0.375,0.375
61838607883,1.375,0.625,0.1875
61838630292,0.375,0.375,-0.125
61838645206,-0.4375,-0.5625,0
61838667723,0.4375,-0.75,0.1875
61838690356,0.8125,-0.3125,0.25
61838706658,0.1875,0.0625,0.25
61838727896,-0.375,0.25,0.1875
61838750305,-0.1875,0,0.3125
61838766625,0.5625,-0.1875,0.1875
61838787730,1,0.125,0.4375
61838810197,0.5625,0.375,0.625
61838826760,0.375,0.75,-0.0625
61838847842,0.625,0.5625,-0.1875
61838870249,0.75,-0.0625,0.1875
61838886608,0.4375,-0.375,0.375
61838907888,0.75,0.1875,0.1875
61838930310,0.4375,0.6875,0.125
61838946654,-0.375,0.25,0.0625
61838967718,0.3125,-0.25,0.3125
61838998629,0.3125,-0.375,0.4375
61839006586,-0.0625,0.1875,0.375
61839027638,0.125,0.625,0.1875
61839050337,1,0.4375,0.3125
61839066747,0.4375,0.1875,0.1875
61839087712,-0.4375,0.1875,0.3125
61839110416,-0.4375,-0.375,0.3125
61839126650,-0.1875,-0.5625,0.3125
61839147773,-0.3125,-0.25,0.4375
61839170317,-0.4375,0.3125,0.4375
61839186672,0.625,0.6875,0.1875
61839207868,0.6875,0.5625,0.3125
61839230370,-0.125,-0.0625,0.25
61839252829,-0.5625,-0.375,0.375
61839267855,-0.5,-0.4375,0.3125
61839290342,0.125,-0.0625,0.125
61839306695,1.1875,0,0.0625
61839327945,1.1875,0.0625,0.125
61839350361,0.75,0.25,0.0625
61839366638,0.0625,0.25,0.1875
61839387761,0,0.0625,0.3125
61839410420,0.5,0.125,0.1875
61839426716,0.5,-0.5,0.1875
61839447837,0.5625,-0.625,0.25
61839470252,0.0625,-0.3125,-0.0625
61839486641,0.125,0.25,0.0625
61839507745,0.25,0.375,0.125
61839531702,0.625,0.25,0.125
61839546638,0.125,0,0.0625
61839567879,0.4375,-0.5,0.25
61839590326,0.4375,-0.5,0.125
61839606600,0.3125,-0.1875,0.1875
61839629174,0,0.0625,0.125
61839650394,0.25,-0.125,0.25
61839666696,0.6875,-0.0625,0.3125
61839689147,0.25,0,0.3125
61839710253,-0.8125,-0.6875,0.125
61839726681,-1.5,-1.9375,0.625
61839749255,-0.8125,-2.875,1.0625
61839770411,-0.6875,-2.1875,1.125
61839786650,-0.5,0.125,0.3125
61839809229,0.1875,0.875,-0.125
61839830333,1.0625,0.125,-0.5625
61839846779,1.625,-1,-0.6875
61839869159,1.625,-1.875,-0.75
61839890389,2,-2.0625,-0.375
61839906648,2.5625,-1.3125,-0.1875
61839929179,2.375,0.125,0
61839950309,1.625,1.125,-0.3125
61839966696,1.375,1.25,0.0625
61839989209,1.6875,0.5,0.25
61840010238,1.5,0.125,0
61840026653,1.125,-0.125,0
61840049142,1.5,-0.25,0.0625
61840070243,2.3125,0.1875,0.1875
61840086683,1.0625,0.4375,0.375
61840109200,-1.75,0.25,0.3125
61840130406,-2.0625,-0.625,0.875
61840146676,-0.3125,-0.75,1.5
61840169216,-0.125,0,1.1875
61840190372,-0.4375,0.6875,0.8125
61840206673,-0.3125,0.5,0.4375
61840229155,-0.625,0.625,0.25
61840250315,0.5625,-0.1875,0.1875
61840266671,1.25,-0.1875,0.3125
61840289211,0.5,0.0625,-0.0625
61840310369,0.5625,0.1875,0
61840326670,1.125,0.3125,0
61840349136,1.125,0.3125,0
61840370251,1,0.3125,0
61840386610,0.6875,0.25,0.0625
61840410673,1.25,0.75,-0.0625
61840430293,1.625,0.875,0.375
61840446663,1.1875,0.9375,0.3125
61840469186,0.875,1.0625,0.3125
61840490436,0.375,1.3125,0
61840506668,0.5625,0.5,0.5
61840529190,0.5,0.125,0.4375
61840551729,-0.3125,-0.0625,0.5
61840566672,-0.5,-0.0625,0.4375
61840589224,-0.8125,0.0625,0.625
61840611628,-0.9375,0,0.4375
61840626657,-0.3125,-0.125,0.75
61840649147,-0.625,0.25,0.5625
61840671687,-0.3125,-0.25,0.625
61840686784,-0.1875,-0.125,0.5
61840709120,0,0.3125,0.1875
61840731657,0.1875,0.4375,-0.6875
61840748187,1.875,-0.375,-0.75
61840769205,3,-1,-0.5625
61840791658,2.0625,-0.8125,-0.25
61840808161,0.375,-0.25,0.4375
61840829190,-0.25,-0.75,0.1875
61840851738,-0.5625,-0.4375,0.3125
61840866678,-0.375,-0.3125,0.0625
61840888413,0.5625,-0.0625,0.25
61840910972,0.75,-0.0625,0.125
61840926760,1.0625,-0.0625,0.125
61840948424,0.6875,0,0
61840970925,0.375,0.0625,0.1875
61840986683,0.625,0,0.0625
61841008408,0.625,-0.3125,0.125
61841031069,0.5,-0.5,0.1875
61841046655,1,-0.1875,0.0625
61841068568,1,0.3125,0.125
61841091056,0.8125,0.5625,0.25
61841106685,0.375,0.4375,0.0625
61841128582,0.4375,0,0.0625
61841151048,0.1875,-0.6875,0.0625
61841166655,0.4375,-0.6875,-0.0625
61841188406,1.25,-0.25,0.125
61841211005,1.625,0.25,0
61841226727,0.625,0.5,0
61841248530,0.5625,0.25,-0.1875
61841270978,-0.25,0.0625,-0.0625
61841286691,-0.8125,-0.0625,0
61841308543,-0.4375,-1.0625,0.4375
61841331005,-1.875,-2.8125,-0.625
61841346717,-2.375,-3.4375,-2.375
61841368599,4.1875,-4.25,-4
61841390918,9.125,-3.625,-3.9375
61841406664,10.875,-3.25,-3.0625
61841428540,6.875,-2.125,-1.9375
61841451087,0.5,-1.375,-0.125
61841467385,-5.5,-1.1875,0.8125
61841488376,-6.9375,-0.8125,2.125
61841511007,-9.0625,-1,3.3125
61841526757,-10,-1.75,4.5
61841548492,-10.625,-2.4375,5.75
61841570915,-11.9375,-2.8125,6.0625
61841586761,-10.3125,-2,4.5625
61841608486,-8.5,-1.5625,4
61841631113,-6.125,-0.75,3.0625
61841646646,-5.25,0.375,4
61841669865,-6.0625,0.25,7.0625
61841691044,-10.375,0.75,6.3125
61841706735,-9.3125,2.375,3.375
61841729857,-6.75,3.25,4.25
61841750953,-5.75,1.25,2.5
61841766784,-4.625,0,1.0625
61841789855,-0.9375,-0.5,-0.1875
61841811130,1.0625,-0.6875,-0.5625
61841826829,1.6875,0.125,-1.125
61841849921,1.5625,1,-0.8125
61841870964,2.125,1.4375,-0.4375
61841886707,0.25,1.1875,-0.9375
61841909930,-1.0625,-0.125,-1.75
61841931066,0.125,-1.75,-2.9375
61841946700,2.4375,-3.625,-3.375
61841969856,4.625,-4.125,-2.875
61841990946,5,-4,-1.3125
61842006667,2.1875,-1.875,0.0625
61842030417,-0.375,0.1875,0.1875
61842051110,-1.1875,1.125,0.25
61842066799,-0.75,0.625,0.25
61842089834,1.125,-0.75,0.3125
61842111091,1.875,0.3125,-0.25
61842126793,2.375,0.6875,-0.6875
61842149855,2.375,-0.125,-0.125
61842170933,0.5,-0.5625,-0.25
61842186774,-1.1875,0.125,0.375
61842209854,-2.25,0.8125,1.0625
61842230988,-2,1.1875,1.875
61842246769,-2.125,1.5625,2.125
61842269976,-2.625,1.5,1.6875
61842291083,-1.3125,1.6875,1.0625
61842306705,-0.4375,1,0.5
61842329947,-0.5,0.125,0.1875
61842351069,-0.25,-0.6875,0.1875
61842366760,0.625,-0.5625,0.3125
61842389844,0.25,0.3125,0.375
61842411118,-0.1875,0.875,0.3125
61842426728,0.5625,0.8125,0.25
61842449254,1.6875,0.875,-0.125
61842470940,1.9375,0.875,-0.1875
61842486812,1.6875,0.4375,-0.4375
61842509248,1.4375,0.0625,-0.0625
61842531036,1.125,-0.1875,0.5
61842546763,-1.0625,0.0625,0.9375
61842569283,-3.3125,0.4375,1.5
61842592490,-4.4375,0.8125,1.9375
61842606761,-4.6875,0.6875,1.5
61842629226,-3.3125,0,1
61842652398,-0.9375,-0.25,0.4375
61842666806,0.8125,0.125,-0.25
61842689164,1.625,-0.0625,-1.125
61842712366,3.1875,-1.1875,-1.375
61842726826,4.3125,-1.1875,-1.75
61842749313,3.5625,-0.8125,-1.6875
61842772479,3.0625,-0.6875,-0.5
61842786793,1.5,-0.5625,0.8125
61842809259,-0.9375,0.3125,1.5
61842832402,-2.6875,1.6875,1.75
61842846773,-3,2.375,1.4375
61842869249,-1.3125,2.1875,1.3125
61842892416,0,1.4375,0.9375
61842906681,1.375,0.75,0.5
61842929274,1.75,0.3125,-0.0625
61842952453,1.875,0.5625,0.1875
61842966790,1.3125,1,0.1875
61842989229,1.5625,1.5,0.9375
61843012461,1.1875,1.8125,1.375
61843026777,0.875,2,1.5
61843049222,-1.375,1.25,-0.1875
61843072426,-0.625,-1.125,-0.5
61843086728,1.8125,-2.25,-0.1875
61843109309,1.8125,-1.5625,-0.25
61843133107,1.5,-0.5,0
61843153436,-0.0625,0.375,0.1875
61843169260,-0.875,0,0.1875
61843192470,-0.4375,-0.5,0.125
61843213504,0.6875,-0.625,0.0625
61843229281,1.4375,0.125,0
61843252431,1.75,0.5625,0.1875
61843273669,1.3125,0.625,0.1875
61843289207,0.5,0.25,0.25
61843312382,-0.125,-0.25,0.5625
61843333610,-0.4375,0.125,0.9375
61843349212,-0.6875,0.3125,0.9375
61843372351,-0.4375,0.125,0.8125
61843393460,-0.3125,-0.0625,0.8125
61843409233,-0.1875,-0.1875,0.1875
61843431703,1.25,-0.0625,-0.125
61843453592,1.5,0.0625,-0.0625
61843469321,1.0625,0.4375,0.0625
61843491767,0.5,0.625,0.1875
61843513621,0.3125,0.1875,0.5
61843529277,-0.0625,-0.1875,0.5
61843551812,-0.125,-0.1875,0.5
61843574921,-0.3125,0.1875,0.625
61843589233,0,0.5625,0.5
61843611763,-0.1875,0.25,0.3125
61843634937,0.25,-0.375,0.25
61843649301,0.0625,-0.375,0.125
61843671725,0.25,-0.25,0.3125
61843695393,0,0,0.375
61843709279,0.5,-0.125,-0.1875
61843731707,1.5,0.0625,0.125
61843754848,0.5,0.5,0
61843769289,0.1875,0.5625,0.1875
61843791800,0.4375,0.75,-0.0625
61843814876,1.3125,0.125,0.3125
61843829299,0.375,-0.0625,0.125
61843851701,0,-0.375,0.375
61843874881,-0.375,-0.625,0.1875
61843889181,0.5,-0.5625,-0.0625
61843911757,1.4375,-0.25,0.0625
61843934881,0.875,-0.1875,0
61843949205,-0.4375,-0.25,-0.125
61843972247,-0.25,-0.125,-0.1875
61843994949,0.875,0.125,-0.0625
61844009215,1.625,-0.1875,0.125
61844031804,1.4375,-0.4375,-0.3125
61844054897,0.5,-0.1875,-0.4375
61844076053,0.8125,-0.0625,-0.3125
61844091725,0.9375,0.3125,-0.1875
61844114925,0.4375,-0.0625,-0.125
61844135937,-0.5625,-0.125,-0.1875
61844151667,0.0625,-0.1875,-0.25
61844174944,0.5,-0.25,-0.25
61844196139,0.3125,-0.5625,-0.125
61844211852,-0.0625,-0.5,-0.3125
61844234966,0.1875,-0.3125,-0.25
61844255918,0.0625,-0.3125,-0.0625
61844271713,-0.1875,-0.375,-0.25
61844294949,-0.125,-0.5625,-0.3125
61844316181,0.25,-0.5,-0.1875
61844331791,0.4375,-0.25,-0.25
61844354276,0.8125,-0.1875,-0.4375
61844376085,0.9375,0,-0.5625
61844391784,0.6875,-0.0625,-0.375
61844414233,0.3125,-0.125,-0.0625
61844436001,-0.1875,-0.1875,0.0625
61844451759,-0.4375,-0.3125,-0.3125
61844474260,-0.125,-0.375,-0.625
61844496138,-0.5,-0.3125,-0.5
61844511772,0.125,-0.25,-0.0625
61844534274,0.25,0.4375,0.1875
61844557455,-0.25,0.4375,0.125
61844571043,-0.6875,0,0.0625
61844585457,-0.9375,-0.125,0
61844607913,-0.75,-0.1875,-0.0625
61844631119,-0.0625,-0.375,0.0625
61844645441,0.25,-0.375,0
61844667848,0.0625,-0.3125,0.125
61844691193,-0.75,0.3125,0.1875
61844705308,-0.875,0.5625,0.1875
61844727981,-0.25,0.125,0.375
61844751040,-0.0625,-0.125,0.3125
61844765495,-0.6875,-0.4375,0
61844787846,-0.4375,-0.5625,-0.125
61844811179,0.125,-0.4375,-0.125
61844825505,0.5,-0.125,0.0625
61844847962,0.3125,0.3125,0.125
61844871197,-0.1875,0.5,0.125
61844885395,-0.75,0.125,0.0625
61844907981,-0.5,-0.25,0.1875
61844931056,0,-0.25,0.125
61844945441,0,-0.0625,0.125
61844967999,-0.1875,-0.0625,0.125
61844990996,-0.6875,0.1875,0
61845005321,-0.75,0.3125,0
61845027810,-0.625,0.1875,-0.0625
61845051090,-0.125,-0.125,0.125
61845065529,0.3125,0.125,0.25
61845087879,0.0625,0.25,0.1875
61845111161,-0.3125,0.4375,0.0625
61845126798,0.0625,0.375,-0.1875
61845147997,0.5625,0.75,-0.1875
61845170980,0.6875,0.9375,-0.75
61845185284,1.875,0.5,-0.5
61845207889,1.875,0.75,-0.3125
61845231026,0.5625,0.5,-0.25
61845245556,0,0.25,-0.125
61845268021,-0.125,-0.25,-0.25
61845291168,0.25,-0.625,-0.375
61845305384,0.625,-0.375,-0.1875
61845327931,0.25,0.1875,-0.25
61845367531,0,0.5,0
61845369806,0.0625,0.75,-0.0625
61845387927,0.1875,0.5,0.0625
61845411214,-0.25,0.1875,0.0625
61845425332,-0.5625,0.0625,-0.0625
61845447984,-0.375,0.0625,0.125
61845470409,-0.1875,0.1875,-0.125
61845485524,0.375,0.125,0
61845507989,0.0625,0.375,-0.0625
61845530308,0.25,0.5,0
61845545476,0.25,0.25,0.0625
61845568032,0.1875,0.25,0.0625
61845590411,-0.0625,0.0625,-0.1875
61845605437,0.1875,-0.125,-0.3125
61845627976,0.75,0.1875,-0.375
61845650508,1.3125,0.25,-0.25
61845665435,0.5625,0.4375,-0.1875
61845687861,-0.125,0.25,0.0625
61845710453,-0.625,0.3125,0
61845725385,-0.3125,0.3125,0.0625
61845747854,0,0.0625,0
61845770403,0.5,-0.125,-0.0625
61845785577,0.4375,-0.125,-0.125
61845807813,0.1875,-0.0625,-0.1875
61845830412,0.1875,0.0625,-0.0625
61845845526,0.4375,0.3125,0.125
61845867949,0.5625,0.625,0.125
61845890391,0.5,0.4375,-0.0625
61845905389,0.3125,0.6875,-0.1875
61845927870,-0.625,0.5,-0.625
61845950379,-0.375,0.0625,-0.5
61845965312,0.3125,-0.4375,-0.1875
61845988768,-0.375,-0.5625,-0.125
61846010363,-1.0625,-0.4375,0
61846025514,-1.125,-0.25,0.25
61846047906,-1.1875,-0.375,0.25
61846070397,-0.875,-0.5,-0.0625
61846085516,0.4375,-0.125,0
61846116050,0.375,0.3125,-0.0625
61846130298,-0.25,0.4375,-0.125
61846148301,-0.3125,0.0625,-0.1875
61846168008,-0.4375,-0.6875,-0.0625
61846190451,-0.0625,-0.875,-0.1875
61846205367,-0.0625,-0.5625,-0.125
61846227974,-0.3125,-0.125,0.125
61846250515,-0.375,0.4375,0.0625
61846266855,-0.5625,0.1875,0.0625
61846287943,-0.6875,-0.3125,0.25
61846310443,-1,-0.3125,0.25
61846326829,-1,-0.1875,-0.125
61846347908,-0.75,-0.1875,-0.0625
61846370428,-0.3125,-0.1875,0.0625
61846386844,-0.25,-0.125,0
61846407817,-0.375,-0.1875,0.0625
61846430459,-0.3125,0.0625,-0.0625
61846446843,-0.875,0,0.0625
61846468017,-1.3125,-0.375,0.25
61846491851,-1.1875,-0.75,0.25
61846506825,-1.0625,-0.875,0.0625
61846527916,-0.5,-0.5625,-0.0625
61846550534,-0.8125,-0.5625,0
61846566848,-0.875,-0.4375,0.125
61846587891,-0.75,-0.125,0.1875
61846610356,-0.625,0.0625,0.125
61846626727,-0.8125,-0.1875,0.0625
61846648076,-0.9375,-0.3125,0.125
61846670509,-1,-0.4375,0
61846686801,-0.6875,-0.5,-0.0625
61846707848,-0.1875,-0.5,-0.125
61846730505,-0.1875,-0.4375,-0.125
61846746793,-0.1875,-0.125,-0.0625
61846767973,0.0625,-0.0625,0
61846790533,-0.3125,-0.375,-0.0625
61846806824,-0.4375,-0.4375,0.0625
61846827967,-0.375,-0.5,-0.125
61846850542,-0.125,-0.375,0.0625
61846866891,-0.4375,-0.375,-0.125
61846888064,-0.3125,-0.4375,0
61846910557,-0.125,-0.375,-0.0625
61846926749,-0.0625,-0.125,0
61846947874,-0.4375,-0.1875,-0.0625
61846970303,-0.5,-0.3125,0
61846988212,-0.8125,-0.5625,0.1875
61847008020,-1.0625,-0.5,-0.1875
61847030384,0.0625,-0.375,-0.0625
61847046848,0.5,0.0625,0
61847068020,-0.4375,0.3125,-0.1875
61847090322,-0.25,-0.0625,-0.1875
61847113074,0.1875,-0.25,-0.1875
61847128090,-0.125,-0.75,-0.25
61847150372,0.3125,-0.75,-0.0625
61847166845,-0.1875,-0.1875,-0.125
61847189339,-0.75,0.1875,0
61847210379,-0.4375,-0.0625,0.0625
61847226895,-0.375,-0.375,0
61847249346,-0.4375,-0.4375,0.125
61847270499,-0.75,-0.3125,0
61847286887,-0.625,-0.375,0.0625
61847309253,-0.375,-0.5,-0.125
61847330370,-0.375,-0.375,0.1875
61847346884,-0.875,-0.25,0.3125
61847369370,-0.6875,-0.3125,0.125
61847390410,-0.25,-0.4375,0.25
61847406803,-0.5,-0.5625,0.125
61847429290,-0.9375,-0.5625,0.125
61847450328,-0.9375,-0.9375,0.0625
61847466800,-0.375,-0.6875,-0.0625
61847489286,0.3125,-0.75,-0.1875
61847510480,0.375,-0.4375,0
61847526873,-0.3125,-0.1875,-0.125
61847549342,-0.625,0,0.125
61847570440,-0.25,0,0.125
61847586841,-0.5,-0.1875,0
61847609404,-0.75,-0.625,0
61847630450,-0.6875,-0.75,0.0625
61847646761,-0.5,-0.5,-0.125
61847669391,-0.5,-0.4375,-0.125
61847690376,-0.625,-0.4375,-0.0625
61847706802,-0.6875,-0.1875,-0.0625
61847729416,-0.5,-0.5,-0.125
61847750379,-0.125,-0.4375,-0.1875
61847766854,0,-0.5625,-0.25
61847789305,0.25,-0.5625,-0.25
61847810402,-0.125,-0.75,-0.25
61847826940,-0.375,-0.75,-0.125
61847849358,-0.5625,-0.5625,-0.125
61847870477,-0.25,-0.375,0
61847886947,-0.375,-0.0625,-0.0625
61847909386,-0.375,-0.3125,0.1875
61847930357,-0.5,-0.5625,-0.0625
61847946873,-0.3125,-0.8125,0.0625
61847969332,-0.25,-0.5,-0.125
61847990371,-0.3125,-0.4375,-0.25
61848006776,0.25,-0.375,-0.25
61848029401,0.1875,-0.25,-0.375
61848050470,-0.25,-0.4375,-0.25
61848066872,-0.6875,-0.5,-0.125
61848089323,-1.375,-0.4375,-0.4375
61848110579,-0.8125,-1.1875,-0.5625
61848134396,0,-1.25,-0.5
61848149989,0.375,-0.75,-0.1875
61848171801,0.1875,-0.0625,0
61848186884,0,0.125,0
61848209370,-0.75,-0.375,-0.125
61848231832,-0.6875,-0.75,0
61848246918,-0.75,-0.75,-0.0625
61848269312,0,-0.9375,0
61848291864,0.3125,-0.6875,-0.1875
61848307494,0.1875,-0.4375,-0.25
61848328727,-0.4375,0.0625,-0.1875
61848351187,-0.0625,0.0625,-0.1875
61848367544,0.1875,0,0.125
61848388704,-0.0625,-0.4375,0.0625
61848412582,-0.5,-0.875,-0.0625
61848427536,-0.875,-1.0625,-0.5
61848448586,-0.125,-0.75,-0.3125
61848471059,0.5625,-0.5625,-0.1875
61848493574,0.5,-0.25,-0.125
61848508548,-0.375,-0.0625,-0.0625
61848531097,-0.6875,-0.0625,0
61848547479,-0.6875,-0.25,0.0625
61848568527,-0.5,-0.25,-0.0625
61848591031,0,-0.3125,0.0625
61848607472,0,-0.25,0
61848628541,-0.1875,-0.25,0
61848651048,-0.25,-0.1875,0.125
61848667488,-0.375,0.125,0.125
61848689967,-0.375,0.125,0.0625
61848711037,-0.375,-0.25,0.125
61848727537,-0.125,-0.3125,0
61848748541,-0.3125,-0.375,0
61848771084,-0.125,-0.25,0
61848787491,0.0625,-0.1875,-0.125
61848808577,0,-0.0625,-0.125
61848831049,-0.375,-0.1875,-0.0625
61848847514,-0.25,-0.375,0.1875
61848868585,-0.375,-0.1875,0
61848891035,-0.3125,-0.0625,-0.4375
61848907513,0.3125,-0.0625,-0.25
61848928555,0.25,0,0.1875
61848951047,-0.375,-0.125,0.125
61848967475,-0.875,-0.25,0.25
61848988598,-1.1875,-0.3125,0.3125
61849011063,-1.0625,-0.5,0
61849027543,-0.4375,-0.375,0
61849049996,-0.3125,-0.25,0.125
61849071034,-0.4375,0.1875,0.25
61849086801,-0.9375,0.1875,0.3125
61849108526,-0.8125,0,0.1875
61849131013,-0.5,0,0.125
61849146784,-0.6875,-0.125,0.1875
61849168562,-0.5,-0.375,-0.125
61849191093,-0.125,-0.5625,0
61849206856,0.0625,-0.375,0.0625
61849228574,-0.0625,0.0625,0.0625
61849251049,0,0.3125,0.125
61849266857,-0.375,0.3125,0.0625
61849289973,-0.625,0,0.25
61849311080,-0.4375,-0.5,0.125
61849326811,-0.4375,-0.4375,-0.25
61849349986,0.25,-0.25,-0.375
61849371089,0.5,-0.1875,-0.125
61849386876,0.25,-0.3125,0.0625
61849410017,-0.375,-0.0625,0.1875
61849431027,-0.9375,0,0.1875
61849446836,-0.375,-0.0625,0.125
61849469974,0,-0.0625,0.125
61849491041,0.3125,0,0.125
61849506851,0.25,-0.125,-0.3125
61849530064,0.0625,-0.3125,-0.0625
61849551076,0.25,-0.1875,-0.125
61849566831,0,0.125,-0.1875
61849589980,-0.25,0.3125,-0.4375
61849611067,0.25,-0.1875,-0.3125
61849626798,0.25,-0.4375,-0.3125
61849650030,-1.1875,-0.8125,-0.4375
61849671055,-2.125,-1.125,-0.4375
61849686863,-1.5,-1.125,-0.5
61849709988,-0.125,-1.0625,0.0625
61849731047,-0.1875,-0.875,0.5625
61849746813,-0.875,-0.5625,0.125
61849770034,-1.625,-0.5,-0.0625
61849791116,-1.1875,-0.3125,-0.6875
61849806909,0.75,-0.625,-1.1875
61849829974,2.875,-1,-0.9375
61849851068,3.125,-0.25,-1.375
61849866803,2.9375,0.5625,-1.5625
61849890002,3.375,0.3125,-1
61849911114,2.6875,-0.1875,-0.4375
61849926869,1.1875,-0.625,-0.875
61849950088,1.6875,-0.0625,-0.375
61849971089,1.5,0.375,-0.125
61849986892,0.8125,0.6875,0.125
61850009987,1.625,0.375,-0.25
61850031105,0.125,0.5625,0.75
61850046847,-0.875,0.125,0.6875
61850077502,-1.25,0.5,0.625
61850091099,-0.8125,0.375,0.5625
61850106837,-1.1875,-0.3125,0.4375
61850129338,-1.8125,-0.125,0.375
61850151051,-2.25,0.125,0.3125
61850166881,-0.8125,0.1875,0.625
61850189336,0,0.0625,0.4375
61850212590,-0.375,-0.3125,0.375
61850226862,-1.5,-0.375,0.0625
61850249450,-0.9375,-0.4375,0.0625
61850272579,-0.0625,-0.4375,-0.125
61850286921,0.5625,-0.1875,-0.1875
61850309349,0.375,-0.1875,-0.4375
61850332532,0.5,0,-0.1875
61850346934,0.3125,0,-0.125
61850369371,-0.5,0.125,-0.125
61850393723,-1,0,-0.5
61850406834,0,-0.5625,-0.125
61850429345,0.5,-0.625,0.0625
61850452489,-0.6875,-0.375,0.0625
61850466877,-1.9375,0,0.25
61850489369,-1.75,0.125,0.5
61850512526,-1.1875,0.0625,0.5
61850526870,-1.1875,0.1875,0.3125
61850549416,-0.875,-0.25,-0.0625
61850572542,-0.4375,-0.375,0.0625
61850586879,-0.8125,-0.375,0.1875
61850609414,-1.4375,-0.375,0
61850633050,-0.625,-0.75,0.625
61850646974,-1.8125,-0.4375,0.625
61850669484,-1.9375,0.125,0.625
61850692568,-2.0625,0.5,0.5625
61850713812,-1.4375,0.4375,0.875
61850729402,-1.5625,0.375,0.625
61850752529,-1.1875,0.125,0.0625
61850773602,-0.0625,-0.4375,0
61850789352,-0.125,-0.0625,-0.0625
61850812502,-1.1875,0.0625,-0.25
61850833579,-1.125,0.3125,0.1875
61850849396,-2.125,-0.3125,0.3125
61850872550,-2.125,-0.4375,0.3125
61850893768,-1.25,-1,0.3125
61850909389,-1.9375,-0.625,0.25
61850932610,-2.1875,-0.5625,0.1875
61850953673,-1.5,-0.5,0.25
61850969373,-0.75,-0.6875,0.375
61850991875,-1.125,-0.4375,0.4375
61851013799,-1.6875,0.0625,0.25
61851029375,-1.5625,-0.375,0.25
61851051927,-0.875,-0.75,0.3125
61851073685,-0.3125,-0.9375,0.3125
61851089351,-1.0625,-0.3125,0
61851111917,-1.4375,-0.125,0.25
61851133778,-1,-0.125,0.3125
61851149440,-1.5,-0.25,0.375
61851171923,-1.125,-0.5625,0.375
61851195130,-0.5,-0.5625,0.125
61851209433,-0.375,-0.5625,-0.25
61851231979,0.25,-0.625,-0.3125
61851255117,0.25,-0.1875,-0.125
61851269470,-0.1875,0.4375,0
61851291886,-0.3125,0.1875,-0.0625
61851315039,0.75,-0.625,-0.25
61851329496,0.3125,-0.75,-0.375
61851351925,-1.0625,-0.5625,-0.375
61851375106,-1.0625,-0.6875,-0.1875
61851389419,-0.875,-0.25,-0.0625
61851411945,0.125,-0.3125,0.0625
61851435071,0.1875,-0.5,-0.125
61851449541,-0.6875,-0.375,-0.25
61851471950,0.1875,-0.375,-0.75
61851495057,2.1875,-0.4375,-0.375
61851509886,1.6875,-0.375,-0.625
61851531944,0.4375,-0.375,-0.625
61851555096,-0.375,-0.25,-0.5625
61851576096,0.25,-0.125,-0.375
61851591954,0.0625,-0.1875,-0.25
61851615121,0.375,-0.6875,-0.125
61851629372,1.0625,-0.625,-0.3125
61851651996,0.6875,-0.375,-0.625
61851675095,0.375,-0.3125,-0.4375
61851696301,0.3125,-0.3125,-0.3125
61851711850,0.5625,-0.3125,-0.3125
61851741114,1.25,0.0625,-0.25
61851756122,0.5,0.0625,-0.375
61851771965,-0.375,-0.125,-0.3125
61851795118,-0.3125,-0.6875,-0.0625
61851816285,-0.125,-1.3125,0.0625
61851831903,0.375,-1.125,-0.125
61851855061,-0.5,-0.6875,-0.125
61851876187,-1.1875,-0.25,0.0625
61851891913,-0.75,-0.1875,0.1875
61851914501,-0.25,-0.4375,0.25
61851936262,-0.375,-0.6875,0
61851951907,-0.875,-1.0625,0.25
61851974507,-1.1875,-1.3125,0.375
61851996314,-1.375,-1.625,0.25
61852011964,-0.9375,-1.5,0.4375
61852025492,-0.625,-0.8125,0.3125
61852048095,-0.6875,0.125,0.1875
61852071164,-1.4375,0.5,0.0625
61852085556,-1.5,-0.625,0.3125
61852108003,-0.25,-1.4375,0.125
61852131154,0.3125,-1,-0.3125
61852145643,-0.375,-0.1875,-0.5625
61852168149,-0.1875,-0.1875,-0.3125
61852191321,1,-0.1875,0.25
61852205629,1.0625,0.25,0.0625
61852228090,-0.375,0.5,-0.0625
61852251317,-1.375,0.125,0.0625
61852265724,0.3125,-0.4375,-0.0625
61852288184,1.625,-0.5625,-0.25
61852311346,0.625,-0.1875,-0.1875
61852325606,-0.9375,0.125,0
61852348095,-1,0.0625,0.4375
61852371345,-0.5,0.0625,0.375
61852385701,-0.3125,-0.0625,0.1875
61852407943,-0.5625,-0.0625,0.125
61852431205,-1,0,0.125
61852445429,-0.25,-0.0625,-0.125
61852467998,0.3125,-0.375,-0.1875
61852491218,-0.1875,-0.5,-0.0625
61852505526,-0.5625,-0.3125,-0.0625
61852528148,-0.75,0.0625,0
61852551284,-0.3125,-0.1875,0.25
61852573627,-0.125,-0.25,-0.125
61852588155,0.5625,-0.5,-0.1875
61852611303,0.75,-0.375,-0.0625
61852625672,-0.25,-0.125,-0.1875
61852648149,-0.9375,-0.25,0.125
61852671296,-0.875,-0.5,0.375
61852685695,-0.5,-0.8125,0.25
61852707995,-0.25,-0.5,0
61852731344,-0.4375,-0.125,0.0625
61852745727,-0.5,0.125,0.375
61852768129,-0.5625,0.1875,0.1875
61852791329,-0.3125,0,0.0625
61852805583,-0.5,0.0625,-0.0625
61852828134,-0.9375,0,0.125
61852850543,-0.875,-0.5,0.125
61852865732,-0.3125,-1,0.0625
61852888210,-0.125,-0.625,-0.125
61852911236,-1.0625,0.1875,0
61852925716,-0.75,0.25,0.1875
61852948066,-0.3125,0,0.25
61852971311,-0.1875,-0.25,0.1875
61852985646,-0.125,-0.25,0.0625
61853007979,-0.5625,-0.625,-0.0625
61853030755,-0.4375,-0.5625,-0.1875
61853045653,0.25,-0.0625,-0.0625
61853068150,0.75,-0.0625,0
61853090595,-0.0625,-0.1875,0
61853105611,-0.875,-0.0625,0.0625
61853128192,-1.1875,0.0625,0.0625
61853150737,-0.1875,-0.375,0
61853165603,0.5625,-0.5,-0.0625
61853188252,-0.25,-0.125,-0.125
61853210542,-1.125,0.0625,0.0625
61853225561,-0.8125,-0.125,0.1875
61853248176,-0.3125,-0.125,0.1875
61853270625,-0.25,-0.25,0.25
61853285720,-0.9375,-0.1875,0.0625
61853307966,-0.9375,-0.3125,0
61853331999,-0.5,-0.375,-0.125
61853345741,0.0625,-0.5,-0.1875
61853368002,-0.125,-0.5625,-0.1875
61853390531,-0.1875,-0.1875,-0.0625
61853405681,-0.125,-0.3125,0.0625
61853428171,-0.1875,-0.1875,0.0625
61853450536,-0.5625,-0.1875,0.25
61853465515,-0.75,-0.1875,0
61853488023,-0.0625,-0.1875,-0.125
61853510675,0.75,-0.1875,0
61853525525,-0.0625,0.1875,-0.125
61853548101,-0.5625,0.1875,-0.125
61853570723,-0.125,-0.125,0
61853585694,-0.125,-0.6875,-0.125
61853608017,-0.125,-0.6875,-0.1875
61853630655,-0.1875,-0.1875,0
61853645702,-0.5,0.125,0.1875
61853668089,-0.75,0.1875,0.25
61853690568,-0.625,0.125,0.1875
61853705627,-0.75,0.0625,0.125
61853728198,-1,0.0625,0.125
61853750539,-0.4375,-0.25,0.0625
61853765640,0.0625,-0.625,-0.125
61853788222,-0.375,-0.625,0.1875
61853810577,-0.875,-0.375,0.25
61853826984,-0.75,0,-0.125
61853848038,-0.3125,0,0.1875
61853870706,-0.25,-0.3125,0.125
61853887009,-0.6875,-0.4375,0.0625
61853908027,-1,-0.625,0
61853930569,-0.5625,-0.5625,-0.1875
61853946937,0.1875,-0.375,-0.25
61853968171,0.4375,-0.3125,-0.25
61853990517,0,-0.125,-0.0625
61854006972,-0.3125,0,0.0625
61854028220,-0.625,-0.125,0.125
61854050659,-0.375,-0.25,0
61854067019,-0.375,-0.375,-0.1875
61854088198,-0.125,-0.4375,-0.125
61854110529,0.0625,-0.3125,-0.0625
61854127029,0,-0.125,-0.0625
61854148146,-0.25,-0.125,0
61854170587,-0.1875,0.0625,0
61854186913,-0.0625,0.0625,0.0625
61854207969,0.0625,-0.375,-0.125
61854230716,0.375,-0.3125,-0.1875
61854246989,0.0625,0.0625,-0.25
61854268181,-0.375,-0.125,0.0625
61854290543,0.125,-0.5,-0.0625
61854306948,0.25,-0.5625,-0.4375
61854328197,-0.25,-0.375,-0.375
61854350711,-0.75,-0.3125,0.125
61854367052,-0.5625,-0.3125,0.3125
61854388219,-1,-0.3125,0.3125
61854410628,-2.0625,-0.3125,0.4375
61854426936,-1.9375,-0.75,0.125
61854448068,0.4375,-0.75,0.0625
61854470524,1.125,-0.1875,-0.4375
61854486998,-0.0625,0.1875,-0.9375
61854508025,0.875,0.25,-0.8125
61854530653,1.3125,-0.125,-0.6875
61854547030,1.6875,-0.9375,-0.5625
61854568208,0.875,-0.9375,-0.6875
61854590578,0.0625,-0.4375,-0.5
61854606949,-0.0625,0.125,-0.25
61854628173,0.1875,0.125,0.1875
61854650648,-0.5625,-0.1875,0.3125
61854667005,-1.75,-0.1875,0.1875
61854688147,-1.25,-0.4375,0.125
61854710652,0.125,-0.625,0.375
61854727004,-0.25,-0.5,0.0625
61854748044,-0.25,-0.875,0.25
61854770580,-0.4375,-0.1875,0.375
61854787019,-0.4375,0.4375,0.0625
61854809563,-1,0.25,0.0625
61854830698,-0.5625,-0.3125,-0.5
61854847035,0.375,-0.5625,-0.1875
61854870190,-0.1875,-1.125,-0.4375
61854890520,-0.5,-1.1875,-0.625
61854906983,-0.4375,-1,-0.1875
61854929485,-0.5,-0.4375,-0.0625
61854950528,-0.6875,-0.4375,0.125
61854966948,-1.25,-0.3125,0.0625
61854989503,-1.875,0,0.0625
61855010703,-0.6875,0.3125,0.125
61855027012,0.1875,-0.0625,0.25
61855049566,-0.75,-0.6875,-0.3125
61855071989,-2,-1.75,0.125
61855087051,-0.625,-1.625,0.625
61855109531,1.0625,-1.5625,1.125
61855130711,-1.8125,-1.75,0.625
61855147070,-2.1875,-1.6875,0.75
61855169553,-1.875,-1.1875,0.875
61855198768,1.3125,-1.5625,0.75
61855206920,-5.75,-3,-1.75
61855229538,-10.75,-5.5,0
61855250735,-0.625,-3.9375,0.1875
61855267051,-0.6875,-1.875,-0.5
61855289500,-3.5625,-3,0.6875
61855310666,-0.625,-0.125,0.25
61855327095,-1.1875,-1.3125,0.125
61855349584,0.0625,-1.4375,1.8125
61855370558,1.4375,-1.125,0.6875
61855387017,2.375,-0.625,0.75
61855409529,4.3125,3.125,-1.25
61855430542,1.125,1.6875,1
61855446987,-0.125,2.125,0.1875
61855469484,0.3125,0.6875,1.125
61855507629,2.3125,-0.375,1.75
61855544486,1.375,-0.6875,1.0625
61855545281,-0.75,0.1875,0.9375
61855560238,1.8125,2.75,1.5625
61855575192,-0.1875,-1.6875,0.625
61855589508,-3.0625,2.4375,1.8125
61855612714,3.1875,1.6875,-1
61855635273,-1.125,1.0625,2.625
61855649507,-3,-0.1875,2.6875
61855672698,-3.1875,-0.875,0.5625
61855695147,-5.375,0.0625,0.25
61855709529,-3.1875,1.25,2.1875
61855738702,2.25,0.6875,0.8125
61855755125,3.625,-0.75,-0.5625
61855776376,-0.625,-1,-0.9375
61855792683,-4.8125,1.4375,0.625
61855822638,-0.0625,-1.125,-0.5
61855836868,1.5,0.6875,1.4375
61855852693,4.75,-0.3125,0
61855875240,-0.3125,1.5625,1.1875
61855903931,0.375,0.0625,0.25
61855912700,1,0.8125,1.4375
61855935218,-0.1875,-0.0625,0.875
61855956256,1.75,-0.75,-0.125
61855972699,-0.5,-0.125,0.0625
61855995241,1.0625,0.5625,0.8125
61856016407,2.0625,0.3125,0.75
61856032658,0,-0.75,2.375
61856055202,-3.5,-0.5625,0.625
61856076402,-2.0625,-1.75,0.9375
61856092764,-2.25,-1.1875,1.25
61856115204,-2.8125,-1.1875,0.1875
61856136302,-0.0625,-1.125,1.4375
61856152741,2.75,-1.6875,1.625
61856174987,2.9375,-1.9375,1.3125
61856196334,1.3125,-0.1875,1.25
61856212725,-0.1875,0.875,1.25
61856227728,1.4375,0,0.0625
61856248889,-2.5,0.5,0
61856271236,0.4375,-0.625,1.9375
61856287727,3.1875,-1.125,0.0625
61856308800,2.8125,0.4375,2
61856331422,4.125,1.125,1.9375
61856347667,0.5625,0.5625,0.875
61856368912,0.125,-0.5,1.1875
61856391219,-1.9375,-0.625,0.1875
61856407620,-4.75,-0.6875,-0.5
61856428853,-6.125,-2.0625,-1.625
61856451431,-4.625,-4.3125,-2.1875
61856467685,-0.8125,-6.8125,-2.4375
61856488724,1.9375,-6.8125,0.9375
61856511213,2.4375,-6.125,-1
61856527666,-3.4375,-2.5,-1.1875
61856548701,-3.5,-3.4375,-0.9375
61856571231,-3.25,-4.6875,-0.75
61856587659,-7.25,-4.75,-2.8125
61856610230,-7.625,-3.5625,-2.625
61856631315,0.5625,-1.625,0.6875
61856647604,4.125,-1.375,-0.4375
61856668766,1.1875,-4.5625,-3.3125
61856691279,-7.875,-6.3125,-6
61856706981,-11.0625,-6.3125,-10.125
61856728905,-6.8125,-1.6875,-6.1875
61856751397,-3.125,0.875,-1.5625
61856767095,2.875,1.6875,-2.6875
61856788961,1.375,2.5625,-1.75
61856811312,-1,1.875,-2.25
61856827025,-0.9375,1.125,-0.875
61856850249,-3.75,-0.25,-0.5625
61856871279,2.8125,1.375,-1.6875
61856887136,4.3125,2.1875,-1.25
61856910226,2.25,3.75,-0.625
61856931302,0.4375,4.875,0
61856947082,2.3125,3.3125,0.25
61856970218,3.25,0.9375,0.375
61856991243,1.3125,0.625,0.3125
61857007045,-0.0625,1.875,-0.75
61857030159,-0.6875,2.6875,-0.5625
61857051217,0.25,2.8125,-0.6875
61857066973,0.875,3,0.1875
61857113455,1.625,2.25,0.6875
61857114228,1.625,1.375,0.5625
61857133851,3.1875,0.6875,0.125
61857151002,2.1875,2.1875,-0.6875
61857180241,-0.125,0.3125,1
61857194601,-1.625,0.9375,1.375
61857217792,-0.375,2.8125,0.375
61857240147,2.0625,-0.6875,1.25
61857255255,3.4375,-1.3125,-2
61857277725,2.1875,-0.3125,-1.4375
61857300276,2.8125,0.8125,0.375
61857314498,3.0625,1.5625,1.3125
61857337659,3.0625,2.75,1.1875
61857360125,4.125,3.125,0.6875
61857374558,3.25,1.75,0.5
61857397739,-1.1875,1,0.875
61857420264,-3.5,1.8125,2.25
61857427120,0.5,0.125,0.5625
61857450193,-0.1875,-1.125,-0.25
61857471295,-1.75,2.75,0.4375
61857486979,-0.5625,0.8125,0.125
61857510242,0.4375,0.8125,0.5
61857531369,0.25,0.625,0.6875
61857547027,-1.125,0.6875,0.25
61857570677,-0.875,0.6875,0.1875
61857591226,0.4375,0.3125,0.3125
61857607026,0.25,0.125,-0.0625
61857629504,-0.5625,-0.0625,0.3125
61857651414,-0.875,0.125,0.125
61857666972,-0.3125,0.5,0.25
61857689601,-0.75,0.5,0.3125
61857711205,-1.4375,0.125,0.3125
61857727026,-0.1875,-0.125,0.1875
61857749542,1.375,0.1875,0.25
61857772722,0.375,0.75,0.0625
61857787034,-0.9375,0.75,0.0625
61857809565,-0.75,0.4375,0.0625
61857832725,0.6875,0,0.0625
61857847117,0.5,-0.125,0.125
61857869533,-0.125,0.1875,-0.0625
61857892737,-0.4375,0.3125,-0.0625
61857907051,-0.375,0.0625,-0.1875
61857929597,0.625,-0.125,0.125
61857952704,0.25,-0.0625,0.1875
61857967091,-1.0625,0.3125,0.125
61857989484,-0.625,0.0625,0.5
61858012650,-0.5625,0.125,0.5625
61858035192,-1.125,0.375,-0.0625
61858049530,-0.9375,0.5,-0.25
61858072683,-0.5,0.6875,-0.0625
61858087034,0,0.8125,-0.125
61858109585,0.3125,0.4375,0.1875
61858132729,-0.5625,-0.625,0.125
61858147001,-1.0625,-0.375,0
61858169543,-0.75,-0.0625,0.0625
61858192703,-0.25,0.125,0.0625
61858206976,0,0,-0.3125
61858229486,-0.1875,-0.1875,-0.4375
61858252686,0,-0.125,-0.4375
61858267053,0.1875,0.1875,-0.1875
61858289595,-0.0625,0.4375,-0.125
61858312735,0.25,0.625,-0.3125
61858333917,1,0.3125,-0.25
61858349534,0.5625,-0.0625,-0.25
61858372774,0.5,-0.0625,-0.375
61858393906,0.5625,0.0625,0.125
61858409581,-0.3125,0,0.0625
61858432753,-0.25,0.0625,0.5
61858453951,-1.25,0.125,0.25
61858469578,-1.0625,-0.25,0
61858492660,-0.0625,-0.375,-0.1875
61858513960,1.0625,-0.25,-0.1875
61858529642,0.5,0.25,-0.375
61858552138,-0.4375,0.25,-0.375
61858573823,-0.9375,-0.1875,0.0625
61858589604,-0.375,-0.5625,-0.25
61858612011,-0.25,-0.6875,-0.0625
61858633784,-0.25,-0.75,-0.0625
61858649812,0.5625,0.0625,-0.0625
61858672020,0.75,0.9375,-0.25
61858693793,0.8125,1,-0.875
61858709528,1.3125,0.0625,-0.875
61858732022,2.9375,0.0625,-0.8125
61858757380,3,-0.1875,-0.5
61858769560,1.4375,-0.6875,-0.1875
61858791998,0.0625,-1.0625,-0.0625
61858815190,-1.6875,-0.375,0.1875
61858829661,-2.3125,0.4375,0.6875
61858852079,-2.125,0.375,1
61858875214,-1.25,-0.5,0.75
61858891504,-1.6875,-0.625,0.6875
61858912070,-2,-0.5625,0.125
61858935179,-0.9375,-0.4375,-0.0625
61858949538,0.5625,-0.1875,-0.125
61858978820,0.875,-0.125,-0.375
61859001233,0.5,-0.4375,-0.375
61859009508,0,-0.5625,-0.3125
61859032033,0.375,-0.4375,-0.3125
61859055181,1.0625,-0.5,-0.25
61859069576,0.9375,-0.125,-0.375
61859094026,0.75,0.3125,-0.25
61859115228,0.75,0.375,-0.0625
61859129537,0.375,0.25,0.0625
61859152029,-0.25,-0.125,0.125
61859175217,-1.125,-0.375,0.3125
61859190548,-0.75,-0.3125,0.375
61859212018,-0.25,-0.1875,0.375
61859235180,-0.3125,0.0625,0.375
61859256314,-0.9375,0.5625,0.625
61859272070,-1.5625,0.875,0.4375
61859296168,-1.9375,0.625,0.625
61859316282,-1.5625,-0.0625,0.6875
61859332038,-0.6875,-0.625,0.75
61859357617,-1.25,-0.5625,0.375
61859376259,-1.25,-0.5625,0.125
61859393860,0.125,0.1875,0
61859415211,1.125,0.8125,0.3125
61859436338,0.1875,0.75,0.1875
61859452049,-0.125,0.5625,0.125
61859475200,0.875,-0.0625,0
61859497564,1.4375,-0.375,0
61859511282,0.1875,0.3125,-0.125
61859525651,-1.4375,0.875,-0.5625
61859548189,-1.3125,0.875,-0.625
61859571386,0,-0.1875,-0.875
61859585583,1.3125,-0.25,-0.375
61859608114,-0.0625,0.1875,-0.3125
61859631263,-0.4375,0.125,0
61859645612,0.625,0,0.375
61859668127,0.8125,0.0625,0.1875
61859691288,-1.1875,0.5625,0.3125
61859706830,-1.0625,0.6875,0.3125
61859728180,0.75,0.5,0.25
61859751337,1.4375,0.0625,0.4375
61859765722,0.75,0.125,0.125
61859788124,-0.5625,0.0625,0.125
61859811242,-1.5625,0.25,0.5625
61859833760,-1.4375,0.0625,0.625
61859848127,-0.3125,-0.25,0.625
61859871280,-0.4375,0.25,0.625
61859885630,-1,0.6875,0.4375
61859908161,0,0.6875,0.375
61859931274,0.125,0.4375,0.5
61859945602,-0.5,0.375,0.4375
61859968205,-1.125,0.25,0.5
61859991309,-1.1875,0.1875,0.4375
61860006534,-1.25,0.1875,0.4375
61860028107,-0.375,-0.375,-0.3125
61860051274,-0.6875,-0.5,-1.375
61860065622,-0.125,-0.3125,-1.0625
61860088176,-0.5,0.0625,-0.875
61860111961,-1.125,0.125,-0.1875
61860125633,-0.0625,-0.1875,0.375
61860148358,-0.25,-0.4375,0.25
61860171306,-1.0625,0.375,0
61860185649,-1,0.4375,0.1875
61860209309,0.1875,-0.0625,0.375
61860231721,0.875,-0.0625,0.0625
61860245654,-0.0625,0.3125,0
61860268297,-0.75,0.25,0.1875
61860291283,-0.4375,0.375,0.5
61860305666,-0.125,0.125,0.125
61860328175,-1.0625,-0.4375,-0.0625
61860351819,-0.1875,-0.1875,-0.0625
61860367052,-0.125,0.6875,-0.375
61860389553,-1.25,-0.25,-1.25
61860412470,-1.375,-2.375,-2.125
61860425626,0.3125,-2.8125,-3.3125
61860448158,-4.4375,-2.4375,-4.375
61860471648,-7.6875,-1.375,-4.25
61860485619,-4.3125,-2.125,-2.875
61860508159,-1.9375,-2.375,-1.4375
61860531321,-2,-2.9375,-1.6875
61860545661,1.375,-2.25,-1.9375
61860568110,-2.5625,-2.1875,-4.375
61860591300,-3.3125,-1.125,-3.9375
61860605619,-1.3125,-0.5625,-2.4375
61860628299,-2.5625,-0.4375,-1.875
61860650689,-2.625,-1.4375,-0.625
61860665610,1.75,-1.75,-0.375
61860688184,2.5,-2.5,-0.25
61860710661,-8.6875,-6.5625,-2.3125
61860726206,-5.8125,-6.875,-2
61860748121,-4.375,-7.375,-4.1875
61860770614,-5.5625,-7.9375,-7
61860785811,-7.375,-8.75,-8.625
61860808143,-4.625,-8.3125,-7.8125
61860830905,-6.6875,-8.5625,-1.9375
61860845666,-9.8125,-10.25,-4.1875
61860868144,-7.75,-11,-5.3125
61860890654,2.4375,-10,-3.8125
61860905679,4.6875,-9.375,-4.5
61860928117,2.375,-8,-4.1875
61860950645,1.9375,-7.5625,-3.5625
61860965626,2.5,-8.1875,-1.625
61860988197,-6.5625,-10.125,-5.375
61861010664,-9.9375,-11.0625,-6.375
61861026525,-3.75,-12.375,-6.9375
61861048146,1.8125,-11.3125,-6.5625
61861070682,2.1875,-11.125,-7.0625
61861085694,2.9375,-8.9375,-6.375
61861108179,8.125,-6.375,-3.5
61861130639,6.5625,-4.8125,-0.1875
61861145817,-0.625,-4.3125,-1.4375
61861168147,-2.6875,-3.75,-0.5625
61861190704,1.5625,-3.3125,-2.125
61861205705,1.375,-0.625,-2.4375
61861229169,1.1875,0.25,-0.875
61861250718,2.625,0.625,-1.4375
61861265660,1.4375,1.5625,-1.0625
61861288284,-1.4375,2.3125,0.0625
61861310635,-6.4375,5.125,5
61861326761,-4.25,2.6875,5.25
61861348371,-1.6875,4.5625,6.3125
61861370693,-3,3.4375,5.5625
61861385705,-2.6875,3.3125,3.8125
61861408135,-4.625,4.375,0.25
61861430771,-8.3125,3.375,-1.6875
61861447105,-14.8125,3.8125,-1.9375
61861468175,-6.4375,0.375,-2.75
61861498863,-0.375,-1.3125,-0.875
61861507093,-4.25,-3.75,2
61861528115,-11.8125,-1.625,5.625
61861550830,-13.9375,-0.875,3.8125
61861567091,-10,-1.0625,4.5
61861588181,-9.6875,-1,4.6875
61861610678,-7.3125,-2.9375,8.75
61861627097,-11.1875,-1.25,5.875
61861648196,-7.4375,-0.4375,2.5625
61861670620,-1.875,2.1875,0.375
61861687096,-1.3125,1.4375,-2.375
61861708114,-0.3125,-0.0625,-4.75
61861730644,4.5625,-1.875,-2.6875
61861747100,5.5625,-1.8125,-2.875
61861768157,6.1875,0.9375,-1.5
61861790706,3.1875,3.6875,-0.0625
61861807120,2.5,3.5625,-1.25
61861828165,3.25,3.3125,0
61861850647,4.625,2.75,2.125
61861867080,4.5625,3.6875,2.75
61861888155,1.25,-1.1875,2
61861910659,4.5625,2.8125,0.1875
61861927082,7.375,3.8125,-0.5625
61861948210,8.5,5.5,-1.125
61861970698,8.4375,6.75,-0.9375
61861987171,6.125,6.875,-0.375
61862008218,2.875,6.0625,0.4375
61862030692,-0.125,5,0.9375
61862047130,-1.125,2.5,0.4375
61862068171,0.1875,0.5,1.3125
61862090682,1.1875,0.125,0.5
61862107179,3.125,0.8125,-1
61862128187,4.4375,1.5,-2.125
61862150743,9.4375,1.375,-2.5625
61862167059,9.0625,1.75,-1.75
61862188212,6.5625,2.0625,-1
61862210787,6.875,1.875,-0.5
61862227124,9.0625,1.5625,0.125
61862248150,8.8125,1.5625,0.125
61862270725,6.25,2,0.4375
61862287130,3.875,1.375,0.25
61862308195,4.8125,0.75,0.4375
61862330677,6.1875,1.1875,0.1875
61862347172,4.375,1.9375,-0.5
61862369629,3.3125,3,-1
61862390668,4.8125,3.875,-0.875
61862407087,5.6875,4,-0.375
61862430239,3.75,3.125,-0.3125
61862458836,3,2.4375,-0.25
61862467137,3.375,2.3125,0
61862489581,2.75,2.4375,0
61862510694,1.25,3.1875,0.0625
61862527100,0.6875,3.25,0.0625
61862549641,0.0625,2.5625,0.875
61862570672,-0.8125,2.3125,0.4375
61862588551,-0.6875,1.25,1
61862609581,-0.0625,0.375,0.9375
61862630719,0.125,0.6875,0.8125
61862649490,-0.375,0.9375,0.4375
61862669581,-0.4375,1.3125,0.5625
61862690689,-0.4375,1.5,0.625
61862707107,-0.625,1.5625,0.5
61862729577,-1.1875,1.3125,0.25
61862751488,-1.375,0.1875,0.25
61862767081,0.125,-0.125,0.25
61862789577,1.0625,0.3125,0.125
61862810666,0.25,0.875,0.1875
61862827074,-0.5,1.375,0.25
61862851601,-1.1875,1.5625,0.375
61862870741,-1.5625,1.125,0.875
61862888636,-1.25,0.5,1.1875
61862911073,-0.8125,0.125,1.0625
61862930680,-1.3125,0,0.8125
61862948122,-1.25,0.3125,0.6875
61862971046,-0.625,0.3125,0.875
61862990662,-0.875,0.5625,0.8125
61863007103,-1.5625,1.8125,-0.0625
61863029631,-2.25,1.6875,-1.625
61863051632,-4.6875,2.375,-1.8125
61863067153,-4.4375,1.6875,1.875
61863097154,0.125,1.25,1
61863110692,3.1875,0.3125,-0.625
61863127090,0.1875,2.125,1.5625
61863149726,-13.875,5.625,5.75
61863170908,-17.6875,3,2
61863187124,-1.4375,1.25,1.125
61863209610,1.75,-1.1875,1.625
61863231380,-2.625,-1.25,1.75
61863246330,-9.25,2.5,2.75
61863269088,-6.375,2.8125,0.4375
61863291336,-1.25,-1,0.75
61863306319,1.75,-6.375,4.0625
61863328861,-3.125,-3.25,4.5
61863351375,0.5,-3.4375,0.8125
61863366409,6.125,-1.25,0.625
61863388823,5.375,1,-3.5
61863411368,1.1875,0.9375,-8.6875
61863426349,-6.0625,-1.875,-8.8125
61863448816,-17.875,-4,0
61863471369,-8.8125,-13.75,-2.5
61863487750,6.1875,-15.25,-1.5625
61863508874,2,-14.25,-2.625
61863531390,-7,-12,-2.75
61863547802,-13.0625,-8.5,-4.625
61863568876,-13.125,-8.625,-7.1875
61863591378,-10.3125,-9.875,-6.8125
61863607781,-6.25,-9.1875,-5.1875
61863628859,-6,-6.75,-3.4375
61863651354,-0.75,-7.875,-6
61863675297,-5.875,-6,-3.625
61863688919,-13.6875,-4.8125,-3.6875
61863718853,-8.8125,-2.8125,-0.1875
61863727779,-2.5,-1.8125,0.1875
61863748850,0.6875,-1.4375,0.125
61863771299,1.9375,-1.125,1.6875
61863787816,-1.4375,0.5625,2.8125
61863808834,-2.6875,1.8125,2.375
61863831406,-0.375,1.375,2.8125
61863847808,0.75,1.75,2.25
61863869567,1.0625,0.5,0.9375
61863899634,-0.125,1.125,1
61863930977,0.375,0.5625,0.0625
61863931803,2.1875,0.4375,0.5625
61863951366,4.8125,0.5,0.6875
61863982782,0.3125,1.125,0.625
61864004673,-3.3125,2,0.5
61864011367,-3.8125,3.1875,0.5
61864035310,0.1875,1.3125,-0.1875
61864057789,0.4375,0.25,-0.5625
61864086379,0,0.0625,0.0625
61864110350,-2.5,0.8125,0.4375
61864133531,-2.5,1.8125,1.25
61864134298,-1.3125,1.25,0.9375
61864161385,-3.1875,1.4375,0.75
61864185290,-2.75,0.6875,1
61864207162,-1.125,0.875,1.5625
61864213867,-0.0625,0.8125,1.3125
61864236422,-0.625,0.75,0.25
61864260303,-0.8125,0.625,-1.5625
61864284499,-2,1.875,-2.4375
61864312048,-0.5625,1.25,-3.8125
61864312837,5.0625,-0.25,-4.75
61864335068,7.6875,-0.25,-4.4375
61864357804,9.875,-0.8125,-3.5
61864379672,7,1,-6.75
61864411007,5.3125,0.8125,-6.125
61864411826,1.3125,0.9375,-4
61864432785,-3.4375,1.125,-0.625
61864454652,-2.9375,-0.6875,-0.25
61864470302,1.0625,-1.9375,1.1875
61864492775,0.1875,0.375,0.25
61864515285,0,0.75,-1.1875
61864530351,1.3125,0,-0.75
61864551425,6.375,-2.125,-0.5
61864567164,9.0625,-3.4375,-0.125
61864591981,6.625,-4.25,-2
61864611367,-2.75,-0.5625,-2.8125
61864627158,-4.4375,4.0625,-1.125
61864650324,10.5625,4.1875,-3.8125
61864671412,7.0625,1,-2.75
61864687188,2.75,-1.875,-1.25
61864710358,1.625,-4.125,-1.9375
61864731427,1.625,-1.9375,-1.125
61864747154,3.5625,-0.1875,-3.5625
61864770313,1.5625,3.625,-4.125
61864791619,2.75,4.5625,-3.5625
61864807132,2.9375,3.6875,-2.9375
61864830315,-0.125,-0.625,-0.4375
61864851337,-15.125,4.75,-10.375
61864867195,3.25,2.5625,1.625
61864890321,5.125,-0.9375,-1.6875
61864911418,-6.375,1.9375,1
61864927176,-12.9375,1.4375,1.25
61864950340,-7.25,4.875,-1.9375
61864971391,4.6875,-0.375,3.0625
61864987140,1.875,-4.8125,-1.0625
61865010331,-6.1875,-1.8125,-1.4375
61865031332,-0.625,-2.1875,1
61865047185,0,0.5,0.375
61865070314,5.8125,1.0625,1
61865091417,11.25,1.6875,1
61865107153,-2.9375,2.125,2.5625
61865130351,-13.1875,-3.875,2
61865151393,-19,0.8125,-4.125
61865167159,9.6875,-4.6875,2.5
61865189635,-1.625,-1.375,0.25
61865211384,-11.3125,1.625,0.875
61865227189,0,0.375,1.5
61865249642,13.8125,-2.5,1
61865271372,12.3125,-2.625,1.75
61865287151,5.875,-0.0625,-0.125
61865309684,-6.9375,-3.25,1.9375
61865332801,-12.125,-2.75,1.1875
61865347193,3.1875,0.125,-0.25
61865369692,2.5,2.375,-1.5625
61865392847,-2.25,3,-0.875
61865407173,3.5,2.0625,-1.4375
61865445384,8.0625,-0.1875,-0.8125
61865450710,5,-0.4375,0.125
61865475386,-1.4375,1.25,-1.125
61865489679,0.6875,3,0.0625
61865512832,2.75,3.5,-0.875
61865527194,3.3125,3.4375,-0.6875
61865549657,1.0625,0,-0.375
61865572825,4.875,-1.0625,-0.875
61865587155,5.1875,0.0625,-0.8125
61865617881,0.125,2.0625,-1.3125
61865632852,-1.0625,2.125,-1.625
61865647162,-1.5625,-1.9375,-0.4375
61865669696,0.375,0,-0.25
61865692833,2.25,2.1875,-0.875
61865707163,3.5,2.5,-1.375
61865729691,4.5,2.6875,-1.0625
61865752839,-3.0625,0.75,0.0625
61865767176,-2.6875,0.125,0.4375
61865789691,1.5,-0.6875,0.5625
61865812849,-0.125,-0.375,-0.625
61865827176,-0.9375,0.5625,-0.1875
61865849669,0.125,0.8125,-0.8125
61865872888,3.0625,0.4375,0.0625
61865895352,2.375,0.3125,0.125
61865911498,-4.3125,0.9375,1.375
61865932896,-10.6875,1.625,1.625
61865953915,-7.875,1.8125,-0.875
61865969703,1.25,-4.1875,1
61865992814,-1.625,1.375,0.5625
61866013864,-5.125,2.1875,0.75
61866037850,-1.8125,-0.875,-0.125
61866052838,0.25,-1.4375,0.25
61866073964,-1.6875,-1.9375,-0.125
61866089678,-2.5,-1.125,0.8125
61866114297,2.375,-2.4375,-0.75
61866133909,3.625,-2.4375,-1.0625
61866149698,6,-0.875,1.4375
61866172301,-1.0625,0,0.1875
61866193978,-6.5625,-1.875,2.3125
61866211374,-8.4375,2.5,-0.6875
61866232197,1.8125,-0.6875,1.25
61866253988,4,1,-0.9375
61866269703,3.125,0.5,0.375
61866315520,-2.5625,-1,2.4375
61866321459,-2.875,-2.375,1.6875
61866337851,0.625,-2,1.875
61866352851,0.8125,-0.1875,-0.4375
61866367176,8.75,-0.875,-0.0625
61866405399,6.6875,4.875,-3.125
61866413881,9.4375,2.375,-3.125
61866435399,3.875,3,0.5625
61866449651,5.25,0.875,-3.1875
61866472199,-1.375,3,1
61866495347,0.125,0.9375,-1.5625
61866509701,5.3125,1.6875,-0.8125
61866532286,7.0625,2.25,1.9375
61866555397,-0.25,4.125,3.8125
61866569681,-8.8125,3.3125,3.75
61866592204,-1.625,1.9375,4.5
61866617284,2.625,0.5625,4
61866629730,-0.6875,0.1875,2.5
61866652210,-4.125,-0.1875,1.375
61866675357,-2.125,0.375,0.5625
61866689747,3,1,0.4375
61866712184,3.4375,1.1875,0.6875
61866735392,-2.3125,1.1875,0.9375
61866749689,-3.8125,1.375,0.875
61866772198,-1.5625,1.0625,0.9375
61866795332,-0.8125,0.4375,0.25
61866817535,-0.6875,0.625,0.0625
61866832278,1.0625,0.9375,0.0625
61866855355,1.875,1.375,0.5625
61866876419,-0.5625,1.9375,0.9375
61866892220,-1.6875,2.1875,1.25
61866915477,-1.8125,0.5625,1
61866936628,-1.125,-0.0625,0.0625
61866952190,1.375,-0.3125,-0.625
61866975348,1.75,0.3125,-0.5
61866988444,2.0625,0.625,-0.0625
61867011393,1.5625,1.0625,0.4375
61867025739,0.3125,1.3125,0.625
61867048453,-0.75,1.375,0.75
61867071460,-2.1875,1.3125,0.4375
61867085777,-5.375,-0.75,-0.375
61867108315,-2.0625,-0.625,-0.5625
61867131495,1,0.4375,0.1875
61867145930,-0.375,0.9375,-1.25
61867168268,-0.4375,0.625,-0.875
61867191462,-3.8125,-0.25,-1.5
61867205747,0.9375,-0.25,-0.6875
61867228234,1.5625,0.375,-0.25
61867251526,0.0625,1.25,-0.6875
61867265780,-1.8125,0,-0.5
61867288352,-0.5,-0.625,0
61867311466,3.8125,-0.5,-0.25
61867325866,3.375,0.25,-1.4375
61867348426,2.9375,0.9375,-1.25
61867371469,1.9375,1.4375,-1.625
61867385850,1.5625,1.125,-1.3125
61867408290,0.125,-0.625,-0.25
61867432695,0,-1.375,-0.5
61867445854,0.0625,-0.9375,-0.25
61867468297,-1.4375,-0.5,-1.3125
61867491506,-1.8125,0.1875,-1.25
61867505918,-1.625,-0.3125,-0.75
61867528325,2.75,-0.5,-0.6875
61867551424,-1.6875,-0.9375,-2.0625
61867565806,-2.6875,-3.25,-3.6875
61867588467,-2.9375,-3.8125,-3.0625
61867611446,2.3125,-5.25,-5.25
61867625825,7.9375,-5.0625,-5.25
61867648274,10.1875,-4.8125,-3.8125
61867671580,9,-1.4375,-2.125
61867685798,1.4375,1.8125,-2.8125
61867708433,-4.0625,5.1875,0
61867731459,-4.0625,4.1875,0
61867745803,-3.3125,2.125,1
61867768306,1.25,2.3125,1.4375
61867791473,-0.5625,1.5625,0.8125
61867805991,-3.125,2.5625,0.125
61867828291,-1.875,2.75,0.375
61867851554,-0.4375,2.0625,0.625
61867865995,-2.875,-0.5625,0
61867888293,-5.625,-3.5625,0.8125
61867911433,-0.9375,-3.25,2.125
61867925775,-2.9375,-2.25,3.375
61867948276,-3.125,0.8125,1.0625
61867971478,3.5625,2.5625,0.9375
61867985842,2,3.0625,0.0625
61868008328,-0.125,2.375,0.375
61868031532,-0.0625,1.1875,1.1875
61868047077,-0.375,1.3125,1
61868068313,-4.75,0.5,2.375
61868091459,-5.4375,-1.6875,-0.375
61868105834,-1.9375,-1.375,-0.3125
61868128345,-3.5,-2.125,-0.625
61868151530,-5.75,-1.8125,-0.1875
61868165879,-3.6875,-2.125,-1.1875
61868188340,-3.375,-1.6875,1
61868210819,5.125,-2.125,1.125
61868225850,11.375,-1,1.625
61868248996,0.125,-2.125,-1.75
61868270812,0.4375,0.125,0.125
61868285818,-0.3125,1.25,-0.6875
61868308393,-4.3125,-1.8125,-1.4375
61868330855,-8.3125,-1.625,-0.5625
61868347043,0.625,-0.4375,-0.75
61868368444,1.3125,-0.75,-0.5625
61868392227,-1.5,0.6875,0.1875
61868406003,-1.4375,2.375,0.625
61868428341,1.6875,3.375,1.4375
61868450864,0.5625,2.6875,1.0625
61868465864,-0.75,1.625,0.5
61868488331,-2.5,-2.25,-0.0625
61868510834,-1.6875,-3.25,0.625
61868525901,1.5625,-2.6875,-0.1875
61868549024,-2.375,0.5,-1.1875
61868570859,-2.1875,2.25,0.25
61868585828,1.5625,2.25,1.375
61868608392,2.9375,1.4375,0.8125
61868630852,-1.625,1.5,0.9375
61868646520,-2.5625,0.5625,0.5625
61868668344,1,0.8125,0
61868690819,2.6875,0.9375,0.125
61868706059,-1.3125,0.0625,-0.375
61868745485,0.8125,0.8125,0.5
61868760482,-0.0625,1.1875,-0.1875
61868774734,-0.375,1.3125,-0.875
61868788321,-2.5,0.875,-0.6875
61868810882,3.75,-5.25,1.0625
61868825816,1.8125,-7.125,1.375
61868848925,-6,-4.125,0.5
61868870817,-3.625,-3.3125,0
61868885862,3.5625,-2.375,-0.4375
61868908378,-6.8125,0.6875,-1.0625
61868930839,-7.5625,2,-0.5625
61868945800,-2.375,2.375,-0.1875
61868968495,5.25,1.5625,-0.1875
61868990834,7.4375,2.125,0.8125
61869007301,7.125,1.8125,-0.4375
61869028297,0.9375,1.6875,-1.1875
61869051279,-4.375,1.3125,-1
61869067301,0.125,0.0625,-0.9375
61869088408,2.75,-0.3125,-0.125
61869110826,0.0625,0.75,-0.1875
61869127258,-0.1875,1.625,0.1875
61869148274,1.0625,1.375,-0.3125
61869170884,1.25,0.5625,-0.25
61869187258,-1.375,-0.3125,-0.25
61869208324,-3.3125,-1.125,0.1875
61869230904,-1.75,-1.9375,0.5625
61869247292,0.375,-0.5625,1
61869268582,-1.1875,0.875,0.125
61869307936,-2.875,1.875,-0.5
61869315407,-4.0625,0.375,-0.25
61869328340,-5.875,-0.0625,-0.25
61869350832,-8.375,-1.25,0
61869367242,-4.6875,-4.25,1.9375
61869388351,-2.0625,-1.6875,0.0625
61869410827,-1.875,-3.5,2
61869427203,-3.875,-1.125,0.625
61869448365,1.375,1,1.125
61869471008,2.75,0.0625,0.25
61869487265,3.5,-0.8125,1.1875
61869508305,3.3125,0.5,1.9375
61869530966,8.5,-0.8125,-0.0625
61869547264,0.5625,-0.3125,-1.375
61869568535,-6.25,0.5,-1.4375
61869590895,-0.25,1.0625,0
61869607259,2.4375,0.8125,0.5625
61869628446,0.625,0.5,0
61869650813,1.0625,-0.125,0.1875
61869667263,1.375,0.0625,0.125
61869688349,-0.625,0.0625,-0.0625
61869710866,-4.4375,0.1875,0.375
61869727297,-2.125,0,0.5625
61869748354,1.625,0.25,1
61869770842,-0.0625,0.25,0.25
61869787303,-1.6875,0.6875,0.4375
61869808388,-1.4375,0.6875,0.5
61869830857,-0.6875,1.25,0.8125
61869847175,-0.375,2.25,-0.125
61869869184,1.5,1.5,0.375
61869890881,-0.5,0.5625,0.375
61869907285,-3.5,0.75,-0.3125
61869929882,-1.4375,-1.0625,0.5625
61869950864,-3.5,-0.8125,1.4375
61869969562,-5.3125,-0.625,1.125
61869989842,-0.3125,-1.75,3
61870010877,-10.125,-0.375,2.9375
61870027259,-12.9375,1.5625,3
61870049790,-11.75,3.0625,7
61870071623,-1.9375,-1.625,6.1875
61870087295,-13.5625,-2.6875,4.6875
61870109728,-18.9375,0.875,8.375
61870131051,-11.1875,1.25,6.25
61870147263,-15.125,0.875,6.3125
61870172206,-14.0625,-2.5625,1.3125
61870190889,-4.3125,-0.625,1.625
61870207236,1.4375,1,3.5625
61870229774,15.75,-3.8125,9.125
61870250874,15.875,-1.3125,8.4375
61870267291,9.4375,-5.125,-0.25
61870289794,-0.9375,-1.5,-5.875
61870310831,-21.8125,-1.375,-4.1875
61870327249,4.0625,-8.0625,-11.9375
61870349796,35.6875,-6.0625,-20.5
61870370856,6.625,4.3125,-12.8125
61870387332,-19.9375,10.9375,-7.5
61870409773,-9.625,5.25,-5.125
61870430862,10.125,1.9375,0.1875
61870447307,2.5,-1,3.8125
61870469809,-15.625,0.5,5.125
61870490860,-1.125,2.125,0.5625
61870507246,5.25,1.25,6.25
61870529816,-3.375,-4.6875,1.875
61870551016,-1.125,-3.75,1.0625
61870567298,10.9375,-0.5625,-1.9375
61870589918,8,2.0625,-2.5625
61870612315,8.4375,2.125,-3.25
61870627279,11.625,1.375,-3.375
61870649774,12.1875,1.3125,-1.5625
61870670841,7.5,3.25,0.625
61870688174,7.4375,4.5,-1.375
61870709810,4.75,4.5,-2.25
61870731525,-0.8125,4.25,-2.3125
61870746528,-0.8125,4.6875,-1.6875
61870769031,2.1875,3.6875,-0.125
61870791515,3.75,0.125,-1.5
61870806723,2.3125,-2.8125,-1.625
61870829054,-3.5,-9.75,-0.1875
61870851573,4.6875,-9.9375,1.25
61870866563,4.1875,-6,-1.375
61870889601,-5.75,-1.625,-6.5
61870911543,-3.6875,2.1875,-4.125
61870926547,1.125,3.4375,0.25
61870949235,5.25,3.625,1.625
61870971532,7.75,3.9375,0.8125
61870986556,4.6875,3.125,0.4375
61871009086,-1,4.625,-0.4375
61871031519,-4.125,5.8125,0.1875
61871047929,-3.4375,5.5,1.6875
61871069027,-1.0625,2.75,1.8125
61871091541,3.4375,0.8125,1.9375
61871108084,3.3125,0.9375,1.375
61871128988,0.375,2.75,1.25
61871151736,-2.875,2.25,0.0625
61871168009,-2.0625,1.6875,0.5625
61871189008,1.875,0.3125,1.25
61871211594,3.8125,0.375,1.125
61871227961,1.25,1.5625,1.5
61871249050,-1.8125,2.125,1.4375
61871271529,-0.3125,2.1875,1.875
61871287957,1.0625,2.1875,1.6875
61871309061,-0.0625,2.1875,1.25
61871331548,-2.125,1.625,1.125
61871348010,-2.375,1.3125,0.8125
61871369133,-1,0.5,0.4375
61871391522,0.3125,-0.375,0.8125
61871408043,-3.75,0.0625,1.125
61871429044,-10.375,0.875,1.625
61871451590,-3.5,-0.625,-1.0625
61871467938,-2.4375,-1.25,0.4375
61871489059,-8,-2.3125,1.25
61871511617,-2.5625,-3.3125,1.9375
61871527974,4.0625,-3.0625,2.375
61871549158,5.1875,-2.1875,3.875
61871571581,3.4375,1.25,6.1875
61871587955,4.375,2.0625,6.875
61871609063,3.875,0.875,2.8125
61871631556,0.625,0.75,2.125
61871647946,-5.5,0.0625,0.9375
61871669180,-1.3125,-2.125,1.6875
61871691580,3.5625,-4.8125,1.125
61871707987,3.4375,-3.375,2.3125
61871729039,-4.3125,-0.6875,0.8125
61871766539,-7.4375,1.625,4.25
61871791203,-3.875,1.25,4
61871792030,4.6875,-1.4375,5.25
61871812958,-0.1875,-0.625,5.5625
61871834828,-2.3125,0.6875,4.0625
61871865510,4.3125,2.1875,5.3125
61871888650,2.6875,2.5625,0.3125
61871889481,2.4375,3.25,-4.875
61871916553,1.25,1.375,-7.625
61871940471,6,-0.5,-6.75
61871963015,7.75,-0.75,-4.5625
61871984823,4.25,-0.5625,-5.9375
61871991556,8.625,1.125,-3.9375
61872015476,7.4375,1.1875,-1.6875
61872037353,1.9375,3.0625,-3
61872052945,-0.5625,5.375,-2.375
61872068781,-1.6875,4.5625,-2.3125
61872090504,1.0625,3.3125,-2.0625
61872111658,3,1.3125,-2
61872127326,1.9375,0.9375,-0.9375
61872150507,-2.9375,0.0625,-0.75
61872171585,-2.6875,-0.9375,0.0625
61872187420,-1.5625,-0.6875,0.625
61872212857,0.625,-1.375,0.875
61872231752,-0.6875,-0.8125,-0.25
61872247292,-7,-2.4375,-0.875
61872270525,-1.6875,-0.75,-0.625
61872291582,1.5,0.625,-0.75
61872337251,-0.5625,0.5,-0.1875
61872338032,0.5625,0.375,-0.625
61872352959,-2.4375,-1.0625,0.3125
61872368029,0,-0.3125,-0.375
61872404023,3.25,-2.625,-1.25
61872420597,-0.625,0.375,-4.0625
61872435578,-3,0.375,-1.125
61872457996,-0.8125,1.6875,-1.875
61872471804,-9.5625,1.5,2.5
61872487445,-15.5,-1.1875,5.125
61872510500,-11.8125,-1.9375,3.0625
61872531591,7.6875,-4.3125,1
61872547331,4.6875,-4.6875,-0.375
61872570575,-3.8125,-1.875,-0.75
61872591731,-11.75,-4.375,-0.875
61872607300,-11.125,-3.0625,1.25
61872630612,7.875,-3,-0.375
61872651536,8.5625,-2.0625,-2.8125
61872667374,6.6875,0.0625,-1.875
61872690526,6.125,2.5625,-1.75
61872711564,5.25,2.6875,-2
61872727327,1.9375,3.5,-0.9375
61872750498,1.1875,3,-0.75
61872771587,-0.8125,1.6875,-0.125
61872787306,-0.625,0.25,0.375
61872809792,1.9375,0.75,1.375
61872831605,-0.5,0.9375,0.1875
61872847336,-1.25,0.875,-0.4375
61872869792,1.1875,0.875,0.0625
61872916190,1.75,0.5,0.9375
61872917006,-3.375,0.1875,0.3125
61872929830,-5.0625,-0.6875,0.6875
61872952951,-0.125,-0.6875,0.75
61872983003,1.3125,-1.25,-1.5625
61872998077,-2.625,3,-1.0625
61873012969,1.0625,-1.0625,-1.9375
61873029238,-2.5,-1.6875,3.375
61873049822,1.625,-3.6875,-0.625
61873073035,1.5625,-0.9375,3.125
61873087458,1.75,0.8125,-1
61873109825,-3.0625,1.5625,-1.375
61873133083,-2.5625,2.75,-0.1875
61873147372,1.1875,1.9375,0.6875
61873169858,2.8125,0.6875,1.4375
61873192981,-0.6875,-0.0625,0.9375
61873207311,0.125,0.25,0.4375
61873232126,-0.4375,1.4375,-0.125
61873253005,-0.875,1.125,-1
61873267355,-0.8125,1,0.25
61873289901,0.5625,0.1875,0.0625
61873313016,0.5,-0.0625,1.125
61873327406,0.875,0.4375,0.375
61873349830,0.875,1.5625,0.5
61873372975,0.4375,2.1875,0.3125
61873394109,-0.5625,2.375,-0.0625
61873409816,0.1875,1.875,0.5
61873434726,1.25,1.3125,0.6875
61873454109,1.3125,0.75,0.25
61873469880,1.0625,0.6875,0.0625
61873493072,0.375,1,-0.1875
61873515472,0.0625,1.75,0.0625
61873529883,0.4375,1.75,0.1875
61873553008,0.125,1.6875,0.5625
61873574095,-0.5,1.125,0.5
61873589916,-0.8125,1,0.3125
61873612999,-1.1875,0.4375,0
61873634920,-0.375,0.125,0.125
61873649883,-0.375,0.375,0
61873672975,0.5,0.8125,0.1875
61873694079,0.375,1,0.375
61873709850,-0.5625,0.875,0.375
61873733344,-0.4375,0.75,0.3125
61873754123,-0.4375,0.125,0.25
61873769799,-0.125,0.3125,-0.0625
61873792377,-0.5625,-0.25,0.0625
61873814047,0.8125,0,0.1875
61873829821,1.625,0,0.5
61873852364,0.125,-0.125,0.3125
61873874098,-1.625,0.375,0.375
61873889803,-1.25,0.9375,0.4375
61873912376,0.75,0.625,0.875
61873935291,0.875,0.375,0.875
61873949901,-1.5625,0.375,0.5
61873972380,-2.125,0.1875,0.25
61873995615,0.0625,-0.0625,0.625
61874009855,0.4375,0.5,0.5
61874032379,-1,0.75,0.5625
61874055546,-1.375,0.25,0.8125
61874069840,0.1875,-0.4375,0.6875
61874092352,1.125,-0.3125,0.25
61874115469,0.4375,-0.125,0.125
61874129886,-1.1875,-0.1875,0.25
61874152455,-0.875,-0.0625,0.875
61874175562,0.125,0.4375,0.8125
61874189898,0.5,1,0.4375
61874212384,-0.1875,0.625,0.625
61874235534,-1.5625,0.5,0.625
61874249821,-1.625,0.9375,0.25
61874272373,0.75,1,0.5625
61874295495,0.9375,0.375,0.4375
61874309888,-0.6875,0,0.25
61874332357,-1.4375,0,0.375
61874355625,-1.0625,0.3125,0.4375
61874369857,0.125,0.4375,0.375
61874392384,-0.4375,0.5625,0.1875
61874415609,-1.1875,0.5625,0.375
61874436593,-0.75,0.5,0.25
61874453746,-0.0625,0.1875,-0.0625
61874475472,0.1875,-0.0625,0.3125
61874488425,0.3125,-0.25,0.375
61874511636,-0.1875,0.1875,0.125
61874525914,0.3125,0.5,0.125
61874549472,0,0.8125,0.4375
61874571720,-0.875,0.5625,0.5
61874585912,-0.75,0.5,0.625
61874608506,-0.4375,0.0625,0.3125
61874631619,0.3125,-0.25,0.125
61874645915,1,-0.0625,-0.0625
61874668524,0.4375,0.25,0.1875
61874691582,-1,0.1875,0.1875
61874705924,0.25,0.0625,0.5
61874728437,-4.4375,-2.25,-0.375
61874751627,-1.375,-1.1875,0.25
61874765940,-0.125,-0.3125,0.1875
61874788427,-0.3125,0.0625,-0.125
61874811652,0.8125,0,-0.125
61874825976,0.3125,-0.3125,-0.125
61874848439,-0.3125,-0.125,0
61874872478,-0.1875,-0.0625,0.4375
61874885954,0.1875,0.1875,0.5625
61874908450,-0.125,0.625,0.5
61874931821,-0.3125,1,0.5
61874945942,-0.5,1.0625,0.625
61874968435,-0.3125,0.6875,0.4375
61874991666,0.4375,0.1875,0.5
61875005932,0.5625,-0.125,0.5
61875028424,-0.4375,0.25,0.5625
61875051599,-1.6875,0.5,0.0625
61875074174,-0.4375,0.5,-0.0625
61875088514,1.6875,0.3125,0.25
61875111599,0.4375,0.5,0.0625
61875125990,-0.3125,0.5,0.125
61875148458,0.0625,0.3125,0
61875171643,0.375,-0.375,-0.0625
61875186046,0.5,-0.6875,-0.3125
61875208528,0.75,-0.5,-0.4375
61875231815,0.875,0.0625,-0.375
61875245928,0.625,0.5625,-0.5
61875268449,1,0.5,-0.0625
61875291664,0.0625,0,0.0625
61875307359,0,-0.1875,0.125
61875328497,-0.625,-0.5625,-0.1875
61875351645,0.1875,-0.4375,-0.3125
61875365948,0.75,-0.5625,-0.0625
61875388658,0.375,-0.0625,-0.25
61875411594,0.25,0.375,-0.0625
61875425980,-0.375,0.125,-0.0625
61875448544,-0.625,-0.4375,0.125
61875471628,-0.25,-0.6875,-0.0625
61875485962,-0.3125,-0.5625,-0.25
61875508453,0.3125,-0.625,-0.8125
61875531726,1.5,-0.375,-0.5
61875545950,1.875,0,-0.25
61875568472,0.5625,0.1875,-0.125
61875591803,-0.625,-0.0625,0.0625
61875606006,-0.3125,-0.375,0.1875
61875628585,0.0625,-0.125,0
61875651600,0.3125,0.125,0.125
61875665923,0.125,0.0625,-0.0625
61875688665,0,-0.125,0
61875711655,0.0625,-0.4375,-0.25
61875725987,0.4375,-0.3125,0
61875748581,0.3125,-0.3125,-0.125
61875770952,0,-0.1875,-0.125
61875786163,0.3125,-0.375,-0.125
61875808533,0.5,-0.3125,0
61875830961,0.25,-0.25,-0.1875
61875845989,0.125,-0.3125,-0.1875
61875868475,0.1875,-0.875,0.3125
61875891184,0.375,-0.5,0.3125
61875906011,-1,0.1875,-0.1875
61875928451,-0.875,0.375,0.0625
61875951155,0.4375,0.375,0.375
61875966003,0.4375,0.125,0.375
61875988550,-0.9375,0.25,0.6875
61876010948,-1.625,0.25,0.875
61876025972,-2.0625,0.125,0.6875
61876048480,-2.4375,-0.125,0.625
61876071016,-1.75,0,0.375
61876086028,0.125,-0.125,0.75
61876108493,-0.0625,0.3125,0.625
61876130944,-1.3125,0.625,0.5625
61876145995,-1.875,0.375,0.6875
61876168479,-0.75,0.875,0.5
61876192216,-0.9375,-0.25,0.5
61876206153,0.0625,-0.4375,0.3125
61876228445,0.1875,0,0.25
61876251155,-0.625,0.5625,0
61876274101,-0.875,0.6875,0.25
61876288508,-0.25,0.375,0.5625
61876311005,0,0.125,0.6875
61876325939,-0.875,0.0625,0.1875
61876348471,-0.5625,0.3125,0.1875
61876370993,0.1875,0.4375,0.25
61876385991,0.375,0.5625,0.5
61876408732,-0.4375,0.375,0.375
61876430994,-0.5,0.1875,0.5
61876445981,-0.9375,0.125,0.625
61876468512,-1.1875,0.0625,0.5625
61876490978,-0.875,0.3125,0.1875
61876506184,-0.1875,0.625,-0.0625
61876528459,0.625,0.6875,0.0625
61876550960,0.75,0.375,0.125
61876567457,-1,0.125,0.25
61876588529,-1.125,0,0.375
61876610999,-0.3125,0,0.375
61876627399,-0.6875,0.25,0.3125
61876648550,-0.5,0.375,0.125
61876671071,0.25,0.25,0.3125
61876687541,-0.375,0.0625,0.125
61876716759,-0.375,0.375,0
61876731033,0.3125,0.5,0
61876747378,0.5,0.9375,0.4375
61876768552,-0.75,0.9375,0.1875
61876790950,-0.75,0.75,0.25
61876807463,0,-0.0625,0.3125
61876828596,0.125,-0.5625,-0.125
61876850977,-2.0625,-0.625,0.0625
61876867488,-2.5625,0.5,0.5
61876888689,0.1875,0.4375,0.6875
61876911024,-0.9375,0.75,0.6875
61876927426,-1.3125,0.9375,0.5625
61876948453,-1.125,0.75,0.4375
61876971043,-0.625,0.625,0.6875
61876994885,-1.0625,0.375,-0.125
61877008445,1.375,0.3125,-0.0625
61877031028,1.6875,0.375,-0.0625
61877047502,0.875,0.5,-0.1875
61877068561,-0.125,0.625,0.0625
61877091038,0.0625,0.375,-0.125
61877107414,0.375,0.25,0.3125
61877128479,0.1875,0.25,0.0625
61877150995,0,0.5,-0.3125
61877167388,0.875,0.625,-0.375
61877188556,0.875,0.6875,-0.125
61877210963,0.25,0.375,0.1875
61877227503,-0.1875,0.3125,0.125
61877248528,-0.5625,0.375,0
61877270991,-0.125,0.3125,0.3125
61877287494,-0.0625,0.375,0.3125
61877308524,-0.25,0.375,0.5
61877331086,-0.5625,0.125,0.25
61877347424,-0.375,0.0625,0.1875
61877368486,-0.625,0.5,0.125
61877391069,-0.6875,0.4375,0
61877407438,-1.0625,-0.3125,-0.0625
61877428530,0.3125,-0.6875,-0.3125
61877451039,-0.25,-0.375,-0.5
61877467520,0.375,0.3125,-0.125
61877488717,-0.5625,0,0.125
61877511018,-2.0625,-0.4375,-0.375
61877528331,-0.5625,-0.25,0.125
61877549891,-1.4375,0.4375,0.375
61877570998,-3.6875,1.1875,0.3125
61877587430,-1.5,0.75,-0.5
61877609931,1.5625,-0.0625,0
61877630997,-0.5625,0.1875,-0.3125
61877647597,-3.5625,0.4375,-0.5625
61877669930,-3.8125,-0.625,-0.5625
61877691192,-0.25,-1.5625,0.25
61877707472,1,-1.5,-0.75
61877730375,0.4375,-0.875,-0.4375
61877751048,-0.4375,-1.1875,-0.0625
61877767487,-1.625,0.0625,-0.125
61877789997,0.125,-1.8125,0.125
61877811026,6.1875,-6.0625,-0.4375
61877829302,3.5,-6.125,-0.1875
61877850043,-0.5625,-3.8125,-0.4375
61877871001,-9.8125,-4.75,-3.25
61877887543,-15.5,-5.875,-0.8125
61877909950,-9.375,-3.125,1.125
61877931804,-0.25,0.5625,0.875
61877947527,7.125,1,0.9375
61877969971,8.625,1.75,0.25
61877991194,0.5625,2.3125,-0.1875
61878007523,-5.625,3.4375,0.4375
61878031772,-5.1875,4.125,3
61878051234,-1.5625,3.375,3
61878067554,6.9375,5,3.3125
61878089956,1.0625,2,2.4375
61878111020,-1.25,-0.75,0.875
61878127498,1.4375,3,0.375
61878149987,2.25,0.5625,0.125
61878171011,-0.1875,-0.9375,1.625
61878187471,-3.4375,-2.6875,-0.0625
61878209932,1.4375,-4.4375,-0.8125
61878232610,-2.875,-5.9375,-0.625
61878247385,-3.8125,-5.3125,1.9375
61878269201,1.1875,-2.8125,1.9375
61878291707,3.8125,-2.5625,2.125
61878306866,-5,-3.125,0.4375
61878329177,-3.3125,-0.1875,0.1875
61878351738,-0.625,1.25,-0.875
61878366694,-1.9375,1.1875,-1.5625
61878389183,2.3125,1.375,-1.125
61878411698,1.5625,1.875,-0.1875
61878426674,1.25,1.0625,-0.875
61878449214,1.4375,-0.3125,-0.6875
61878471684,-1.8125,-2.375,-1.375
61878486665,-3.5625,-2.125,-0.625
61878509202,0.125,0.125,-0.375
61878531706,0.4375,1.0625,-0.25
61878546837,-0.125,1.5,0.375
61878569224,1.0625,0.5,-0.125
61878591668,3.4375,-0.625,0.0625
61878606698,3.875,-0.25,0.1875
61878629191,-1.75,2,0.1875
61878651688,-4.6875,2.9375,0.5
61878668152,-1.625,0.6875,0.4375
61878689150,-0.0625,-0.625,0.4375
61878711668,-1.875,0.1875,0.0625
61878728095,-7.125,1.6875,0.625
61878750272,-6.0625,1.5,0
61878771725,0.8125,0.375,-0.9375
61878788139,2.0625,-1.375,-1.8125
61878809197,0.625,-0.5,-0.875
61878831686,0.8125,0.5,-1.1875
61878850913,-0.1875,1.1875,-0.5625
61878869203,0.75,0.375,-0.25
61878891660,-3.625,-1.5,0.5
61878914182,-10.25,-2.125,3.8125
61878929211,-8.6875,-2.75,-1.9375
61878952698,5.375,-3.0625,2.125
61878968120,3.5625,-1.1875,-0.3125
61878989149,1.1875,0.3125,0.75
61879011686,-3.0625,-1.25,1.5
61879028135,-3.8125,-4.0625,1.75
61879049228,0.3125,-2.75,0.9375
61879071728,8.3125,-2,-0.125
61879088161,7.3125,1.8125,-2.0625
61879109177,7.5625,2.5625,-2.875
61879131667,3.0625,4.625,-1.5
61879148109,-0.3125,3,-1
61879169193,2.375,0.1875,-0.1875
61879191663,0.375,-1.5,0.25
61879208129,-2.4375,-0.9375,-0.375
61879229191,0.9375,-0.75,-0.75
61879252685,1.75,-0.8125,-0.9375
61879268146,0.375,-0.5,-1.5625
61879289181,2.8125,-2.5,-1.0625
61879311671,7.8125,-2.6875,1.6875
61879328107,-4.375,-5.875,0.1875
61879349141,-22.125,-11.1875,0.25
61879371692,-17.0625,-6.9375,0.8125
61879388139,5.875,-3.5625,-0.6875
61879409245,3.875,0.0625,-2.8125
61879431696,-2.5625,2.125,-1.75
61879447490,-7.6875,2.6875,0.875
61879469229,-10.1875,0.9375,0.9375
61879491709,6.3125,1.5625,1
61879507508,3.75,7.75,3.0625
61879529207,4.3125,1,2.75
61879551698,0.0625,4.3125,3.0625
61879567515,4.125,2.9375,2.5
61879590646,0.75,1.625,0.5625
61879611702,-4.6875,-2.125,0.25
61879627501,-2,-5.125,4.875
61879650622,-7.3125,-5.8125,12.5
61879671669,-14.1875,-7.5,10.1875
61879687526,-1.0625,-9.0625,3.25
61879710636,5.875,-9.125,2.375
61879731738,-2.1875,-5.6875,4.125
61879747494,-11,2,3.75
61879771122,0.125,2.8125,-0.6875
61879791691,7.6875,8.125,-0.5
61879807497,4.625,5.9375,-3.5625
61879830629,0.625,2,-4.5625
61879851726,4.4375,0.125,-7.375
61879869774,15.125,0.4375,-7.125
61879890662,14.625,4.875,-6.8125
61879911687,10.25,7,-6.1875
61879927500,8.25,7.3125,-0.3125
61879950619,8.0625,5.875,0.5625
61879971709,2.0625,3.5,-0.8125
61879987477,-4.8125,2.125,-0.9375
61880010644,-7,1.1875,0.1875
61880031697,-5.75,0.0625,0.5625
61880047482,-1.6875,-1.1875,1.1875
61880071683,2.75,-4.6875,3.8125
61880091767,2,-1.625,3.4375
61880107501,-4.3125,-0.1875,2.3125
61880130639,-13.125,2.875,4
61880151707,-3.625,0.75,0.9375
61880169258,0.1875,-3.1875,0.5
61880190625,-2.25,-6.6875,1.25
61880211696,-7,-6.875,2.9375
61880227476,0.4375,-1.4375,-2.0625
61880250648,-0.0625,3.0625,-5.875
61880272298,-7,2.875,-4.4375
61880287484,-4.6875,3.0625,-2.5
61880310641,5.0625,0.8125,-1.5
61880331724,3.8125,0.625,-0.5
61880347480,-2,2.3125,-0.0625
61880371692,3.25,0.875,-0.0625
61880391709,1.1875,-0.75,1.1875
61880407487,0.9375,-1.5625,1.5625
61880430079,6.3125,-1,3.25
61880451744,-0.875,-2,1.125
61880467496,-2.25,1.1875,3.875
61880489983,-1.0625,-1.6875,1.25
61880513123,-2.3125,-1.375,1.125
61880527481,-5.625,0.5625,-0.0625
61880550124,-27.5625,4.9375,4.875
61880573239,-17.125,-2.0625,-4
61880587546,-2.125,-3.5625,0.625
61880609999,0.4375,-7.625,1.75
61880633199,-1.0625,-5.125,1.625
61880647924,-5.3125,0.25,2.25
61880669962,1.1875,0.75,2.75
61880693179,3.5,-1.6875,1.8125
61880707513,4.6875,-0.625,1.9375
61880744962,3.625,0.9375,0.9375
61880751725,0,1.875,0.75
61880776646,1.4375,0.375,0.1875
61880798186,0.375,1.625,0.6875
61880826726,-2.875,2.125,0.5625
61880851307,-9,0.6875,1.75
61880852127,-0.6875,-2.875,2.1875
61880873130,0.5,-1.625,2.5625
61880895021,1,-2.5,2
61880925663,-2.3125,1.875,6.125
61880948881,2.875,-0.375,5.75
61880949695,1.8125,-0.5625,4.375
61880970044,3.75,0.375,1.3125
61881000687,2.1875,3.6875,-1.4375
61881023185,-0.1875,3.5625,-3.125
61881045706,-2.0625,2.625,-3.3125
61881051108,-6.9375,1.0625,-3.8125
61881075684,-13,2.375,-5.4375
61881098162,1.8125,-0.6875,-3
61881120709,5.375,-1.6875,-1.875
61881142635,2.9375,-0.8125,-0.375
61881173831,6.875,-1.1875,0.9375
61881174647,10.75,-3.75,-0.9375
61881195708,7.8125,-2.75,-1.8125
61881217483,6.5625,1.125,-3.375
61881248239,4.625,5.8125,-2.75
61881271389,7.4375,6.625,-2.75
61881272210,5.3125,5.5625,-1.25
61881300680,2.625,4.5625,-0.3125
61881322526,1.125,3.75,-0.8125
61881331476,1.5625,3.4375,-0.6875
61881353819,2.5625,4.6875,0
61881368125,2.4375,5.625,-0.875
61881389977,3.1875,5.1875,0.0625
61881412471,0.875,4.875,1
61881435651,-1,4.3125,1.3125
61881450035,-1.875,3.5625,1.6875
61881472505,-1.9375,2.9375,1.6875
61881495678,-2.25,2.875,0.75
61881541385,-0.6875,1.5625,-0.5625
61881542233,0.8125,1.375,-0.25
61881555686,2.375,1,-0.375
61881569977,0.6875,1.8125,-0.0625
61881591740,-1.25,2.25,0.625
61881623131,-1.25,-0.125,-2.3125
61881644289,-1.5,-2.0625,0.3125
61881660689,-0.9375,-0.6875,-1.3125
61881683187,0,-0.5,0.375
61881705053,1.5625,-1.25,-1.75
61881720682,4.3125,-1.25,-1.3125
61881743191,4.0625,-0.9375,0.25
61881764267,0.125,-0.5,1.9375
61881780674,0.8125,0.5,2.875
61881805509,2.1875,0.375,0.6875
61881825684,-1.5,0.375,0.1875
61881840686,-2.5,1.3125,1.625
61881863130,4.125,-0.5,0.25
61881885715,2.8125,-1.5625,0.25
61881900675,1.6875,0.6875,0.6875
61881923203,-1.125,0.375,0.125
61881945700,1.125,0.75,0.3125
61881960062,-0.8125,1.5,0.9375
61881983152,0.6875,0.625,0.25
61882006690,1.6875,0.75,0.125
61882011643,0.3125,1.1875,0.125
61882027510,-0.375,1.5625,-0.125
61882048567,1.75,1.625,0.375
61882071293,1.125,0.6875,-0.0625
61882087497,1.0625,-0.8125,0.125
61882109725,0.9375,-1.1875,0.3125
61882131101,1,0,0.1875
61882147521,-1.1875,1.0625,0.125
61882168632,-1.0625,1.5625,0.75
61882191158,0.0625,1,1
61882208486,1.375,-0.375,0.375
61882231499,0,-0.3125,0.6875
61882251753,-1.5,0.5625,0.9375
61882266105,1.625,-0.3125,-0.3125
61882288616,-2.3125,1.75,2
61882312784,0.4375,-1.0625,0.5
61882326148,0.6875,0.6875,0.4375
61882348625,0.3125,0.6875,0.5625
61882371794,-0.3125,0.125,0.25
61882386174,-0.0625,-0.0625,-0.4375
61882408584,1.0625,0.0625,-0.1875
61882431758,2.375,0.1875,-0.25
61882446074,0.9375,0,0
61882468636,0,-0.375,-0.125
61882491771,0.8125,-0.0625,0.125
61882506134,0.9375,0.1875,0.3125
61882528642,-0.1875,0.125,0.5625
61882551796,-0.875,-0.125,0.4375
61882566139,-0.4375,-0.125,0.375
61882588583,0,0.0625,0.375
61882611783,0.125,0.125,0.5
61882626190,-0.3125,0.375,0.625
61882648629,-1.0625,0.25,0.25
61882671756,-0.125,0.125,-0.0625
61882686099,1.25,-0.125,0.0625
61882708628,1.125,-0.0625,0
61882731783,0,-0.1875,-0.25
61882746150,-0.3125,0,-0.1875
61882768573,0.5,0.0625,0.0625
61882791775,1.375,0.25,0.1875
61882806085,1.4375,0.625,0.1875
61882828558,0.125,0.9375,-0.125
61882851798,-0.3125,0.5,0.125
61882866139,0.1875,0.0625,0.1875
61882888777,0.8125,-0.125,0.25
61882911792,0.125,0.1875,0.125
61882926878,-0.1875,0,0.375
61882948604,0,0.0625,0.1875
61882971837,0.3125,0.375,0.125
61882986175,0.625,0.8125,0.125
61883008627,0.375,0.9375,0.3125
61883032568,-0.25,0.875,0.4375
61883046106,-1.5625,1.4375,0.125
61883068616,-3.875,1.75,-1.75
61883091916,-1.4375,1,-0.625
61883106141,-0.8125,-0.3125,-0.25
61883128657,-1.4375,0,0.4375
61883151776,-1.75,0.6875,0.75
61883166125,-0.9375,0.5625,0.5625
61883188692,-0.9375,0.5625,0.8125
61883211794,-0.9375,0.5625,0.3125
61883226125,-0.0625,0,0.1875
61883248628,1.3125,0.125,0.3125
61883271794,1.1875,0.375,-0.0625
61883286140,0.5,0.375,0.0625
61883308622,1.0625,0.0625,-0.0625
61883332468,0.5625,0,0.125
61883346137,-0.4375,-0.125,-0.0625
61883368593,0,0,0.0625
61883391305,-0.1875,0.1875,-0.375
61883406154,-0.9375,0.1875,-0.375
61883428652,-1,0.1875,-0.6875
61883451291,-0.875,0.3125,0.0625
61883466153,-0.9375,0.25,0.125
61883488689,-0.5,0.4375,0.375
61883511139,-0.3125,0.4375,0.3125
61883526098,-0.9375,0,0.125
61883548761,-0.5,-0.125,0.4375
61883571131,-0.875,0.0625,0.125
61883586181,-0.5,-0.0625,-0.25
61883608690,0.8125,-0.3125,0.0625
61883632605,0.8125,-0.125,0.0625
61883646170,-0.375,0.1875,-0.0625
61883668658,-0.6875,0.125,0.375
61883691147,-0.375,-0.375,0.4375
61883706319,0.1875,-0.375,0.0625
61883728595,0.5625,-0.25,0
61883751322,-0.1875,0.25,0.125
61883766185,-0.625,0.25,0.1875
61883788662,-0.125,0.5625,0.375
61883811080,-0.125,0.375,0.5625
61883826156,-1,0.4375,0.4375
61883848767,-0.9375,0.4375,0.5
61883871160,-1.9375,0.5,-0.125
61883886097,-0.875,0.25,-0.3125
61883908780,-0.125,0.125,-0.25
61883931103,-0.1875,0.375,0
61883947017,-0.5625,0.6875,0.1875
61883968690,-0.1875,0.5,0
61883991082,0.125,-0.0625,0.1875
61884006196,-0.5,-0.4375,0.0625
61884028647,-0.125,-0.25,-0.0625
61884051141,0.5,0.125,0
61884066144,0.6875,0.25,0
61884088603,0.75,0.125,0.0625
61884111202,0,0.4375,-0.125
61884126176,-0.125,0.625,0.125
61884148666,0.125,0.375,0.1875
61884171092,0.75,0.125,0.3125
61884187562,0.1875,-0.0625,0.1875
61884210104,-0.25,-0.1875,0.125
61884231148,-1.1875,0.375,0.0625
61884248695,-1,-0.3125,0.3125
61884268724,-1,-0.8125,0.5
61884291195,-2.75,-1.25,-1.3125
61884307614,-4.1875,-1.75,-0.3125
61884328703,-2.5625,-2.375,0.1875
61884351146,1.6875,-0.375,1
61884367576,2.375,0.25,0.6875
61884388658,2,0.375,1.25
61884411151,0.75,0.5625,0.4375
61884427602,-0.3125,0.375,0.25
61884448664,0.75,0.125,0.125
61884471270,1.3125,0.5625,0.75
61884487580,1.5,0.8125,0.625
61884508638,2.25,1.125,0.6875
61884531105,0.9375,0.3125,0.375
61884547581,-0.5,-0.4375,0.1875
61884568734,0.125,-0.8125,0.625
61884591166,0.5,0.0625,0.4375
61884607537,-1,0.8125,0.3125
61884628659,-0.0625,0.625,0.1875
61884651100,0.625,0.6875,0.5
61884667556,-0.5,0.625,0.6875
61884688638,-1.4375,0.3125,0.4375
61884711114,0.25,0,0.125
61884727592,1,0.375,0.3125
61884750056,0.125,0.875,0.1875
61884771158,0.0625,1,0.125
61884789059,0.8125,1.25,0.5
61884808668,0.875,1.375,0.25
61884831163,1.25,1.4375,0.5
61884847578,1.1875,1.6875,0.625
61884869473,1.375,1.8125,0.1875
61884891161,1.0625,1.875,0.1875
61884907576,1.875,1.3125,-0.0625
61884928649,1.5625,0.5,0.0625
61884951120,-0.0625,0.25,0.625
61884968564,-0.375,0.3125,0.625
61884988652,-0.5,0.5625,1.0625
61885011159,-0.1875,0.625,0
61885028245,-1.125,0.1875,0.25
61885048652,-0.6875,-0.0625,0.5
61885072064,0.1875,-0.3125,0.0625
61885087553,-0.5625,0.125,0.4375
61885110055,-0.375,0.1875,0.25
61885132558,-0.625,0.625,0
61885147549,-0.5625,0.5,-0.0625
61885176753,-0.25,0.375,-0.0625
61885191152,0.375,0.3125,0.0625
61885207599,0.5625,0.0625,0.25
61885230111,1.0625,0.125,0.1875
61885251171,0.125,0.5625,0
61885267617,-1.1875,0.375,0.5625
61885290094,-1,0.0625,0.375
61885319311,0.3125,0.375,-0.125
61885327573,1.4375,0.4375,0
61885351590,0.1875,0.5625,0.1875
61885371187,-0.25,0.4375,0
61885387551,0.375,0.375,0
61885410208,-0.1875,-0.25,0.1875
61885431256,-1.0625,-0.3125,0.3125
61885447597,-1.25,-0.0625,0.5
61885470120,-1.25,0.375,0.25
61885491220,-0.25,0.75,0.3125
61885507578,0,0.5625,0.1875
61885530141,-0.5625,0.375,0.3125
61885551202,-1.0625,0.125,0.1875
61885567604,-0.875,-0.375,0.25
61885590231,-0.25,-0.4375,0.1875
61885611184,-0.1875,-0.125,0.1875
61885627608,-0.75,0.25,0.0625
61885650118,-0.9375,0.6875,0.125
61885679297,-0.5625,0.4375,0.125
61885687637,-0.25,0.125,0.0625
61885710102,0.375,-0.25,0
61885731158,0.4375,-0.5625,-0.375
61885747660,0.6875,-0.3125,-0.5625
61885769731,1.1875,-0.1875,-0.375
61885791855,1.1875,-0.125,-0.1875
61885806895,0.6875,-0.25,-0.1875
61885829366,0.3125,0.25,-0.0625
61885851848,-0.0625,0.3125,-0.125
61885866846,0.5,-0.1875,-0.1875
61885889392,1.1875,-0.3125,-0.3125
61885911835,0.9375,-0.25,-0.125
61885926866,0.125,-0.1875,-0.0625
61885949397,0.25,-0.125,0
61885971854,0.3125,0.0625,0.0625
61885986824,0.1875,0,0
61886009357,0.375,-0.125,0
61886031888,-0.125,-0.5,-0.1875
61886054339,0.1875,-0.6875,-0.3125
61886069351,0.6875,-0.6875,-0.25
61886091897,0.8125,-0.5,-0.0625
61886108253,0.125,-0.1875,-0.25
61886129328,-0.0625,-0.25,-0.125
61886151833,0.25,-0.375,0
61886167223,0.125,-0.3125,0
61886189379,0.4375,-0.0625,-0.25
61886211871,0.5625,-0.0625,-0.0625
61886228303,0.3125,-0.125,-0.25
61886256828,-0.25,-0.375,-0.0625
61886273258,-0.9375,-0.9375,-0.375
61886288239,0.0625,-1.25,-0.1875
61886309352,1.125,-0.8125,-0.25
61886331865,1.0625,-0.3125,-0.1875
61886355811,0.125,0.0625,-0.3125
61886369326,-0.625,0.1875,-0.3125
61886392026,-0.3125,0.1875,0.0625
61886408277,0.3125,-0.0625,0.1875
61886430805,-0.3125,-0.6875,-0.125
61886459354,-0.0625,-0.875,-0.4375
61886468274,0.875,-0.5,-0.3125
61886496835,0.875,0.0625,-0.125
61886511863,-0.4375,0.3125,0.125
61886528260,-1.0625,0.3125,0.125
61886549489,-0.375,0.3125,0
61886571807,0.75,-0.3125,0.1875
61886588278,0.125,-0.8125,-0.125
61886609396,-0.1875,-0.5,-0.375
61886631869,0.5625,-0.0625,-0.5
61886648280,1.3125,0,-0.0625
61886669386,0.75,0,0.375
61886691881,-0.9375,0.1875,0
61886708309,-1.8125,0.125,0.0625
61886729316,0.4375,-0.125,0.0625
61886752015,1.1875,-0.1875,-0.125
61886768230,0.125,-0.1875,-0.25
61886789317,-0.4375,-0.0625,-0.125
61886811938,0,-0.0625,0.1875
61886828320,-0.0625,-0.125,0.0625
61886849438,-0.4375,0.125,0.0625
61886871877,-0.4375,0.0625,-0.0625
61886890358,0.375,-0.0625,-0.0625
61886909497,0.75,-0.25,-0.125
61886931825,0.4375,-0.3125,0.1875
61886948254,-0.25,0.125,0.125
61886969405,-0.375,0.375,-0.0625
61886992887,0.0625,0.375,0.25
61887007775,0.5625,0,-0.0625
61887029368,-0.875,0,0.125
61887051201,-0.4375,-0.0625,0.0625
