myot,x,y,z
138465062048,-1.6875,-1.25,-1.1875
138465070691,-2.3125,-1.75,-0.875
138465091989,-3,-2.875,-0.375
138465115664,-0.375,-2.5,0
138465131948,-0.0625,-1.8125,-1
138465151998,-1.5625,-1,-0.6875
138465175672,-0.5625,-0.375,-0.5
138465206366,-0.875,0.125,-0.8125
138465213960,-0.5,1.125,-0.75
138465228449,1.625,1.3125,-0.6875
138465250959,3.8125,1.0625,-0.375
138465273833,2.4375,1.8125,1.375
138465290952,6.625,4.0625,1
138465332485,2.3125,6.3125,2.75
138465333272,1.4375,10.625,-2.3125
138465346799,-1.5,13.3125,-3
138465370022,2.875,13.8125,-4.5625
138465392492,-2.1875,12.3125,-5.625
138465406807,-6.1875,11.1875,-7.625
138465431396,-8.4375,9.1875,-7.75
138465452492,-12.5,8.8125,-6.1875
138465466844,-10.375,8.4375,-4.75
138465489976,-10.4375,6.625,-1.1875
138465512460,-12.8125,2.4375,1.4375
138465526803,-11.6875,-4.3125,5.6875
138465549986,-15.1875,-10.3125,8.0625
138465572484,-18.25,-13.625,10.4375
138465586851,-18.0625,-15.875,11.0625
138465609998,-21.1875,-18,12.1875
138465632497,-21.1875,-20.8125,14.5
138465646857,-17.625,-25.5625,15.5625
138465669987,-22.75,-32.25,22.3125
138465692524,-19.625,-44.4375,28.875
138465706815,-14.125,-65.8125,38.8125
138465729977,26.9375,-79.9375,45.3125
138465752492,67.0625,-76.5,61.5625
138465766815,145.125,-45.5,49.375
138465789996,23.625,-33.4375,37.375
138465812450,-178.688,-25.25,58.25
138465826804,-172.438,-24.1875,37.8125
138465849999,-279.312,-46.4375,26.6875
138465872529,-367.188,-22.5,0
138465886828,-279.875,-5.125,11.75
138465910031,-205,18.3125,33.75
138465932518,-244.875,37.3125,21.75
138465948275,-249.5,40.5625,24.4375
138465970019,-276.625,37.5,16.6875
138465992484,-327.125,42.3125,7
138466008250,-326.75,48.6875,-0.9375
138466030005,-307.75,59.5625,-1.6875
138466052505,-284.438,73.375,1.125
138466068274,-251.312,79.75,0.625
138466089992,-234.625,80.4375,4.3125
138466112484,-239.438,71.5625,-1.5625
138466128270,-261.125,54.5,-8.5
138466150015,-282.312,41.25,-20.375
138466172505,-295.438,29.6875,-29.3125
138466188297,-303.938,24.3125,-45
138466210012,-311.75,26.0625,-44.6875
138466232503,-241.688,36.8125,-6.3125
138466248245,-194.188,4.3125,11.1875
138466269316,226.562,-143.875,-67.75
138466292487,-235.062,2.1875,10.625
138466308251,183.625,-110.688,143.938
138466330728,-100.25,34.1875,-27
138466353958,56.0625,-46.5,-51.9375
138466368274,38,-2,-17.625
138466390784,-38.5625,4.375,-5.5625
138466413918,5.0625,2.8125,-4.0625
138466428288,2.4375,-13.1875,-19.5
138466450794,-15.875,-12.6875,-6.5625
138466474016,-22.4375,-20.6875,-11.5
138466488305,-18.8125,-21.0625,-3.5
138466510778,-25.9375,-17.75,0.125
138466533973,-23.0625,-15.1875,-5.8125
138466548305,-17,-11.9375,-1.6875
138466570849,-19.3125,-8.875,0.875
138466601556,-22.125,-3.8125,2.375
138466615078,-18.25,-1.5,0.6875
138466630870,-18.5,0.625,6.3125
138466653986,-20,-1.375,3.9375
138466675022,-19.625,0.5625,8.5
138466690799,-19,0.1875,6.0625
138466713948,-22.25,4.25,10.9375
138466735040,-19.8125,8,7.9375
138466750856,-6.6875,13.5,2.25
138466773961,-9.9375,15.5625,4.25
138466794997,-10.3125,17.25,4.5
138466810824,-10.0625,16.0625,5.6875
138466833996,-14.75,14.125,6.0625
138466855080,-22.5,8.75,11.25
138466877593,-24,0.875,12.25
138466894047,-20.5,-7.25,15.9375
138466915036,-16.0625,-16.875,23.25
138466930845,3.75,-23.25,27.375
138466954017,24.5,-21.5,13.5625
138466975098,25.5625,-18.375,30.125
138466990873,-10,-25.5625,42.8125
138467014003,-74,-26.375,28.375
138467035099,-127.688,-35.9375,18.625
138467050870,-185.875,-65.1875,22.5625
138467074025,-351.562,-86,-15.75
138467095124,-404.125,-73.9375,-37.8125
138467110834,-295.75,-44.9375,-38.375
138467133985,-205.5,-6.625,-28.625
138467155012,-180.375,23.3125,-31.1875
138467170829,-159.125,37.25,-35.5625
138467193328,-196.375,47.0625,-48.8125
138467215014,-228.062,62.5,-60.75
138467230821,-189.25,79.75,-56.3125
138467253311,-124.5,91.6875,-51.25
138467275049,-75.9375,91.0625,-51.4375
138467290818,-55.25,88.9375,-47.1875
138467313371,-50.125,70.75,-47.125
138467336499,-133.562,-100.875,-8.75
138467350856,168.875,143.5,79.5625
138467373370,-184.375,18.9375,5.8125
138467396540,69.625,-76,101.062
138467410860,-59.375,60.3125,79.0625
138467433843,-0.625,6.125,-77.625
138467456460,92.3125,55.3125,-33.0625
138467470811,-17.1875,45.6875,-7.0625
138467493396,-14.625,44.25,-22.8125
138467516480,42.75,39.625,-9.625
138467530809,1.75,22.3125,-13.25
138467553298,-12.25,10.25,-10.5625
138467576459,13.75,-0.4375,14.6875
138467597541,-5.875,-3.625,-0.6875
138467613351,-9.625,-2.5,2.75
138467636522,2.75,-3.3125,12.3125
138467657621,-14.1875,-6.0625,8.625
138467673329,-16.5625,-9.4375,12.1875
138467696494,-9.25,-11.5625,16.875
138467717505,-22.0625,-11.5625,14.3125
138467733377,-32.4375,-6.125,9.1875
138467756543,-23.6875,0.25,4.1875
138467777526,-15.75,4.8125,1.8125
138467793386,-11.875,5.875,1.1875
138467816543,-9.25,4.5625,0.1875
138467837569,-4.375,5.1875,-2.25
138467853415,0.0625,5.625,-2.5
138467876504,-1.125,6.125,-0.4375
138467897600,2.25,4.6875,-2.5
138467913345,0.5,4.5625,-3.875
138467936541,-2.75,3.5625,-2.9375
138467949389,-3.75,3.125,-2.6875
138467972695,-0.1875,2.5,-1.5
138467988339,-0.25,1.4375,-1.3125
138468009414,-1.375,0.9375,-1.5625
138468032564,-0.3125,0.625,-1.9375
138468046921,0.125,0.3125,-2.3125
138468069374,-0.3125,-0.1875,-1.75
138468092540,-0.3125,0.1875,-2.6875
138468106931,-0.4375,0.5625,-2.75
138468129374,-1.25,0.1875,-2.6875
138468152548,-0.375,0.875,-2.75
138468166982,0.5625,0.75,-2.9375
138468189394,4.75,-0.0625,-3.125
138468212355,1.5625,-0.5625,-2.3125
138468226898,1.5,-0.375,-2.5
138468249428,2.0625,-0.3125,-3.0625
138468272609,0.25,-0.6875,-2.0625
138468287000,-0.9375,-0.875,-2.375
138468309495,1.5,-1,-2.75
138468332593,1.1875,-1.5625,-3
138468346995,-0.9375,-1.375,-2.0625
138468369468,0.1875,-1,-2.375
138468392626,1.4375,-0.75,-2.5
138468406993,0.6875,-1.1875,-2.3125
138468429453,-0.8125,-0.8125,-2
138468452570,3.125,0.1875,-0.9375
138468466953,4.5,0.25,-1.6875
138468489420,6,-1.375,-1.5625
138468512618,-0.625,-0.125,0
138468526881,2.0625,-0.375,-1.8125
138468549430,3.4375,-0.8125,-1
138468572607,0.1875,-0.9375,-0.9375
138468586938,5.8125,-1.0625,-0.25
138468609381,2.875,-1.375,-0.6875
138468632560,-1.3125,-1.4375,-0.3125
138468646978,0.3125,-1.3125,-0.5625
138468669437,-0.75,-1,-0.75
138468692587,-1.3125,-0.5625,-0.8125
138468706863,0.6875,-0.9375,-0.75
138468729388,3.0625,-1.875,-0.4375
138468752511,2.125,-0.875,-0.6875
138468775107,3.75,-1.1875,-0.6875
138468789355,9.9375,-3.25,-0.6875
138468820771,3,-3.375,-0.0625
138468826944,4.1875,-1.4375,-0.8125
138468849526,1.0625,-0.125,-0.625
138468872687,-0.1875,0.125,-0.3125
138468886935,-0.5,0.4375,0
138468909484,-1.6875,0.5,-0.3125
138468932620,-2.1875,0.3125,-0.375
138468946919,-2.875,0.5625,-0.125
138468969407,-2.875,0.5625,-0.3125
138468992592,-2.6875,0.125,0
138469007039,-3.0625,0,-0.125
138469029448,-3,-0.0625,-0.5
138469052593,-1.1875,-0.4375,-0.1875
138469067004,-1.0625,0.125,-0.125
138469089425,-0.625,-0.3125,-0.0625
138469112579,0.25,0.3125,0.1875
138469126888,3.0625,0.25,0.0625
138469149368,0.6875,0.375,0.625
138469172570,7.4375,-1.5625,0.6875
138469186938,5,-1.0625,0.5625
138469209518,3.125,-0.875,0.5625
138469231948,4.1875,-0.5,0.4375
138469246923,2.9375,-0.0625,0.3125
138469269444,1.625,0.125,0.6875
138469291918,8.4375,-1.5,0
138469307030,8.375,-3.875,0.125
138469329438,5.5625,-1.125,1.4375
138469351975,3,-1.1875,0.125
138469367009,0.4375,-0.0625,1.1875
138469389444,-0.5,0,0.3125
138469411995,-1.8125,-0.125,0.875
138469426995,-2.6875,0,0.75
138469449531,-3.3125,0.1875,0.9375
138469472047,-3.6875,0.5625,0.8125
138469486993,-4.5,0.875,0.9375
138469509458,-4.1875,0.875,0.9375
138469531995,-4.8125,0.75,0.875
138469547069,-4.5,0.5625,0.75
138469569469,-4.1875,0.5,0.875
138469592057,-4.125,0.1875,0.8125
138469606964,-3.5625,0.3125,0.625
138469629446,-4.0625,-0.125,0.5
138469653349,-4.3125,-0.3125,0.6875
138469666990,-3.25,-0.25,0.8125
138469689451,-2.0625,-0.125,0.5
138469712044,-2.1875,0,0.625
138469726999,-1.625,-0.125,0.5625
138469749467,-1.5,0.0625,0.625
138469771956,-1.625,0.25,0.5
138469786936,-1.5,0.3125,0.625
138469809381,-0.875,0.25,0.75
138469831932,-1.0625,0.125,0.625
138469846935,-1,0.0625,0.75
138469869447,0.125,-0.3125,0.6875
138469891986,-0.625,-0.5,1
138469906956,0,-0.1875,0.5
138469929479,0,-1,1.25
138469951939,-0.75,-0.75,0.25
138469966911,-1.1875,-0.6875,0.5
138469989411,-0.0625,-0.8125,0.5
138470011933,-0.5625,-0.4375,0.6875
138470028336,-0.25,-0.6875,0.75
138470049375,-0.1875,-0.5,0.6875
138470072031,0.3125,-0.5625,0.5625
138470088448,-0.0625,-0.5,0.75
138470109549,0.25,-0.5625,0.6875
138470132006,0.3125,-0.5625,0.8125
138470148442,0.0625,-0.625,0.5625
138470169511,0.125,-0.8125,0.6875
138470192031,0.5625,-0.9375,0.6875
138470209867,-0.4375,-0.6875,0.5
138470229419,0.375,-0.8125,0.5
138470251977,-0.125,-0.875,0.5
138470268326,0.0625,-0.75,0.4375
138470289531,-0.3125,-0.8125,0.5
138470311931,0.125,-0.5,0.25
138470328373,-0.1875,-0.6875,0.375
138470349408,0.3125,-0.625,0.4375
138470371994,0.125,-0.625,0.5625
138470388395,0.4375,-0.75,0.3125
138470409502,0.125,-0.8125,0.5
138470432039,0.6875,-1,0.25
138470448483,-0.3125,-1,0.625
138470469433,0.5,-1.25,-0.1875
138470492004,-0.4375,-1.625,0.3125
138470508424,-0.5625,-1.5625,0.4375
138470529550,-0.375,-1.3125,0.0625
138470551974,-0.5625,-1.0625,0.25
138470568388,-0.8125,-0.8125,0.3125
138470589539,-0.1875,-0.6875,0.5
138470612035,-0.25,-0.625,0.5625
138470628442,-0.25,-0.4375,0.4375
138470649427,-0.0625,-0.375,0.4375
138470672073,0,-0.1875,0.375
138470688462,0.25,-0.3125,0.4375
138470709510,0.1875,-0.1875,0.3125
138470732028,0.125,-0.1875,0.4375
138470748423,0.3125,-0.25,0.3125
138470769531,-0.0625,-0.1875,0.375
138470792056,0.4375,-0.125,0.625
138470808339,-0.0625,-0.25,0.625
138470829424,-0.25,-0.125,0.5625
138470851988,0.125,-0.1875,0.375
138470868366,0.25,-0.625,0.4375
138470889410,0.3125,-0.9375,0.5625
138470911944,0.0625,-1,0.4375
138470928383,-0.1875,-1,0.5625
138470949509,-0.125,-1,0.5
138470972005,-0.0625,-1,0.5625
138470988433,-0.125,-1,0.4375
138471011210,-0.3125,-1,0.4375
138471032093,-0.125,-1.1875,0.5
138471048479,0,-1.25,0.4375
138471070994,-0.125,-1.5625,0.375
138471092030,0,-1.4375,0.3125
138471108426,0,-1.5,0.3125
138471130968,0.125,-1.3125,0.0625
138471151960,0,-1.4375,0.25
138471168407,-0.125,-1.25,0.125
138471190942,-0.25,-1.3125,0.125
138471211953,0.5,-1.375,-0.1875
138471228446,-0.125,-1.3125,0
138471250949,-0.125,-1.5,0
138471273368,-0.875,-1.375,-0.0625
138471288379,-1.625,-1.125,-0.5
138471310942,-1.125,-1.375,-0.3125
138471332039,-1.6875,-0.75,-0.3125
138471348447,-0.25,-0.8125,-0.375
138471370991,0.125,-0.625,-0.125
138471392019,-0.3125,-0.75,-0.25
138471408437,1.5,-1.375,0.25
138471438469,1.5,-0.6875,-0.0625
138471452017,3.875,-0.375,0
138471468496,4.875,-1.0625,-0.1875
138471490949,1.75,-1.25,0.375
138471511942,5.0625,-0.5,0.6875
138471528419,7.4375,-1,0.3125
138471550940,3.8125,-1.6875,1.1875
138471571992,5.0625,-1.375,0.5
138471587623,5.875,-1.1875,1
138471610174,5.0625,-1.0625,1.25
138471640776,4.75,-1.4375,1.625
138471647618,4.125,-1.1875,1.0625
138471670112,3.6875,-1.5625,1.5
138471692685,3.6875,-1.75,1.4375
138471715233,2.8125,-1.8125,1.625
138471730197,2.5,-1.875,1.6875
138471752731,2.625,-1.4375,1.8125
138471767742,3,-1.5625,1.875
138471790192,1.5625,-1.75,2
138471812744,0.5625,-2.0625,2
138471827745,0.8125,-2,2
138471850167,0.8125,-1.875,2.0625
138471872684,0.625,-1.5625,2.0625
138471887709,1.125,-1.6875,2.375
138471910133,0.875,-1.375,2.375
138471932624,1.125,-1.9375,2.375
138471947609,0.25,-1.75,2.125
138471970142,-0.4375,-2.25,1.9375
138471992604,0.5,-2.125,2.0625
138472007707,0.25,-2,2.25
138472030167,0.375,-2.75,2.25
138472052457,-0.375,-3.0625,2.375
138472069139,-0.25,-3.0625,2.5
138472090144,0.0625,-3.3125,2.3125
138472112682,-0.6875,-3.5625,2.5
138472129072,-1.0625,-3.8125,2.5625
138472150174,-0.6875,-4,2.25
138472172679,-1.1875,-4.1875,2.375
138472189155,-0.625,-4.4375,2.1875
138472210220,-1,-4.6875,2.5
138472240254,-1.25,-4.625,2.375
138472249147,-1.125,-4.8125,2.6875
138472270197,3.125,-4.4375,1.875
138472292756,0.8125,-3.5625,2.375
138472309129,3.5625,-3.25,2.625
138472330194,3.0625,-2.8125,2.625
138472352670,2.3125,-2.25,2.5
138472369070,3.5,-2.5,2.625
138472390245,2.625,-2.3125,3
138472412695,2.6875,-2.3125,2.4375
138472429126,3.125,-2.625,2.5625
138472450117,3.3125,-3.0625,2.625
138472472619,2.25,-2.5625,2.375
138472489038,2.875,-2.4375,2.5625
138472510080,3.5625,-1.4375,2.25
138472532621,3.9375,-0.8125,1.875
138472549107,5.1875,-0.375,1.1875
138472570142,3.8125,0.3125,1.0625
138472592608,2.3125,0.3125,0.3125
138472609122,1.625,-0.0625,-0.125
138472630134,0.375,-0.9375,-0.875
138472660194,0.375,-2.25,-1.375
138472669104,-1.8125,-4.375,-1.5625
138472690176,-3.5,-5.125,-2.125
138472712678,-3.4375,-5.4375,-2.125
138472729147,-2.75,-5.625,-1.4375
138472750156,-3.625,-5.3125,-1
138472772675,-2.9375,-5.625,-0.4375
138472789131,-2.8125,-5.4375,0.625
138472810192,-2.625,-4.75,0.25
138472832696,-1.5625,-4,1.0625
138472848457,-0.3125,-3.125,0.875
138472870161,0.5,-2.4375,1.375
138472892696,-0.0625,-1.875,1.1875
138472915114,0.0625,-1.5625,1.0625
138472930233,0.5,-1.4375,1.5
138472952707,1.125,-1.125,1.1875
138472968472,1,-1,1
138472991591,0.375,-1.4375,0.875
138473012720,0.1875,-1.1875,0.375
138473028468,2.25,-1.125,0.3125
138473051620,1.125,-1.1875,0.1875
138473072669,0,-1.6875,-0.375
138473088489,0.75,-1.625,-0.375
138473111651,0.0625,-2.25,-0.5625
138473132743,-1.375,-2.4375,-0.6875
138473148510,-0.25,-2.125,-0.25
138473171599,0.875,-2.125,0.125
138473192709,-0.1875,-2.25,-0.875
138473216599,-0.5625,-1.8125,-0.25
138473231700,0.375,-1.75,-0.3125
138473252688,0.4375,-1.6875,0.3125
138473268429,1,-1.5625,-0.3125
138473291605,0.875,-1.375,0.375
138473312595,0.875,-1.4375,-0.125
138473328407,1.0625,-1.375,0.25
138473351631,0.8125,-1.0625,0.25
138473372710,0.75,-0.75,0
138473388496,1.0625,-0.375,0
138473411598,0.9375,-0.25,0.3125
138473432668,0.875,0.25,0.0625
138473448419,1.125,0.625,0.125
138473471643,1.0625,1.125,0.125
138473494163,0.75,1.1875,0.375
138473508450,0.6875,1.25,0.375
138473539118,0.5,1.25,0.5
138473552700,0.3125,1.1875,0.375
138473568487,0.5625,1.1875,0.25
138473591665,-0.5625,0.9375,0.6875
138473612694,0.1875,0.875,0.25
138473628495,-0.125,0.75,0.625
138473651609,-0.5,0.5625,0.1875
138473672672,-0.5625,0.5625,0.5
138473688537,-0.4375,0.375,0.375
138473711664,0.25,0.75,0.0625
138473732687,0.4375,0.625,0.1875
138473748455,-0.125,0.375,0.25
138473771588,0.1875,0.4375,0.25
138473792671,0.375,0.375,0.0625
138473808530,0.25,0.25,0
138473831020,0.3125,0.125,0
138473852634,0.125,0.0625,0
138473868527,0.375,0,-0.0625
138473890983,0.8125,0,-0.25
138473912739,0.1875,0,-0.25
138473928475,0.25,-0.375,-0.375
138473950974,0.5625,-0.875,-0.5625
138473974164,0.125,-1,-0.75
138473988471,0.75,-1.1875,-0.6875
138474010920,0.75,-0.875,-0.5
138474034086,0.625,-1,-0.75
138474048603,0.5625,-1,-0.4375
138474071008,0.5,-1.1875,-0.5
138474101612,0.5625,-0.875,-0.625
138474108455,-0.0625,-0.5625,-0.75
138474130957,0,-0.5625,-0.5
138474154080,0.125,-0.3125,-0.625
138474168483,-0.1875,-0.4375,-0.6875
138474190971,-0.125,-0.3125,-0.625
138474214131,0.0625,0,-0.6875
138474228465,0.0625,-0.0625,-0.625
138474250971,0.25,0.1875,-0.4375
138474274110,0.75,0.1875,-0.6875
138474288460,0.5,0,-0.5625
138474310985,-0.0625,-0.375,-0.5
138474334165,-0.125,-0.5625,-0.4375
138474348429,0,-0.5,-0.5625
138474370998,-0.125,-0.5,-0.1875
138474393480,0.4375,-0.5,-0.3125
138474408431,0.3125,-0.5625,-0.125
138474430956,0.1875,-0.6875,-0.375
138474454208,0.0625,-0.75,0.125
138474475286,0.5,-0.625,-0.125
138474491038,0.3125,-0.625,0.1875
138474514115,0.4375,-0.5625,0
138474535202,0.75,-0.375,0.125
138474550936,0.5,-0.1875,0.125
138474574114,0.5625,-0.1875,0.375
138474595238,1.0625,-0.4375,0.1875
138474610999,0.75,-0.5,0.5625
138474634195,0.5,-0.4375,0.1875
138474655309,-0.3125,-0.5625,0.375
138474671010,-1,-0.625,-0.0625
138474694091,-1.125,-1,0.125
138474715199,-1.375,-0.9375,0
138474731063,-1.4375,-1.125,-0.1875
138474753568,0.375,-1.625,0
138474775279,0.125,-0.9375,-0.5
138474791041,-0.3125,-1,-0.5
138474813534,0.6875,-0.3125,-0.6875
138474835251,1.75,0,-1.625
138474851052,1.8125,0.75,-1.5625
138474873505,1.75,0.8125,-1.25
138474896640,1.625,1.375,-1.875
138474911013,2.0625,1.375,-1.5
138474933448,2.125,1.6875,-0.6875
138474956628,2.625,1.625,-0.5
138474970995,3.5,1.875,-0.1875
138474993538,3.1875,2,-0.4375
138475016627,2.8125,2.3125,0.5625
138475031012,3,2.25,0.25
138475053437,1.5,2.375,0.6875
138475076615,-0.125,2.0625,0.6875
138475091009,0.5,1.9375,0.0625
138475113450,-0.4375,1.875,-0.0625
138475136665,-0.6875,1.6875,-0.125
138475150999,0.75,1.75,-0.1875
138475173467,1.375,1.6875,-0.75
138475204147,1.1875,1.375,-0.5
138475210993,8.1875,-0.8125,-2.8125
138475224524,4.25,-0.6875,-1.8125
138475247141,5.8125,-0.625,-0.375
138475270183,7.6875,-1.5625,-1.9375
138475284500,4,-0.9375,-0.6875
138475307066,1.75,-0.75,0.25
138475330248,13.25,-2.4375,-2.625
138475352670,25.0625,0.375,-8.3125
138475367019,18.3125,4.75,6.875
138475389522,0.6875,1.9375,-5.3125
138475412664,1.75,0.5,1.5625
138475427096,2.125,-0.5,2.5625
138475449580,12.375,8.6875,-5.5625
138475472779,23.9375,8.5625,-0.125
138475487050,9.625,2.5625,-3.3125
138475509608,-2.25,1.4375,-6.3125
138475532749,-5.9375,-1.6875,1.3125
138475547086,-3.0625,-10.375,-3.75
138475569612,13.6875,-17.875,0.375
138475592741,9.3125,-30.5,-0.3125
138475607100,-10.9375,-35.875,-2.375
138475629654,2.5625,-29.125,1.1875
138475652713,4.25,-20.4375,1.25
138475667124,0.875,-10.3125,-7.875
138475689593,1.3125,-4.9375,-8.0625
138475712753,10.375,-0.375,-7.1875
138475727057,12.4375,0.5625,-12.9375
138475750284,8.125,0.5,-6.6875
138475764577,8.3125,4,-12.125
138475787057,15.75,8,-1.3125
138475809549,7.6875,13.6875,-3.125
138475824554,11.75,12.625,-3.5625
138475847020,0.0625,9.75,-6.6875
138475869556,-0.8125,2.75,2.875
138475887492,-8.625,-7.0625,8.4375
138475907095,-3.75,-10.125,15.6875
138475929618,3.875,-15.9375,22.125
138475952779,0.375,-19.5,15
138475967173,-3.5625,-21.5,16.875
138475991130,-6.625,-24.0625,18.875
138476012760,-15.5625,-25.8125,21.25
138476028500,-19.9375,-29.875,29.25
138476049650,-24.6875,-33.125,28.125
138476080933,-23.75,-33.625,23.875
138476087117,-18.0625,-36.6875,10.5
138476109580,-22.4375,-40.875,14.1875
138476132769,-27.5,-49.6875,24.625
138476147037,-19.875,-62.3125,31
138476169560,-17.9375,-72.8125,36.4375
138476192702,-14.9375,-80.5,38.8125
138476207069,-2.625,-84.3125,43.5625
138476238356,7.9375,-81.3125,43.5
138476252666,13.25,-83,45
138476267054,21,-87.3125,43.5625
138476304969,13.8125,-104.062,46.5
138476331063,30.5,-115.062,49.375
138476337933,48.5625,-129.812,46.0625
138476366019,52.0625,-143.312,56.875
138476380921,64.75,-152.062,55.5
138476387134,73.9375,-163.188,65.5
138476409526,46.9375,-165.5,85.625
138476435595,-30.375,-103.5,61.8125
138476455246,-23.9375,-92.3125,36.0625
138476469598,30.125,-28.625,-0.0625
138476492735,-27.8125,-8.625,-73.6875
138476507097,-99.25,71,-56.25
138476529667,-25.9375,132.438,-87.8125
138476552796,-13.375,181.875,-100.625
138476567008,-54.875,229.062,-94
138476589628,-59,253.625,-118.125
138476612742,-64.9375,260.688,-122.188
138476627126,-94.5,267.5,-143.062
138476649577,-111.562,277.375,-136.188
138476672718,-75.375,270.875,-100.188
138476687098,-67.8125,272.25,-89.875
138476709593,-40,260.562,-63.0625
138476732707,21.6875,222.312,-9.625
138476747138,8.3125,195.5,-31.125
138476769662,-108.062,111.938,-95.5
138476792091,-23.25,-43.8125,4.8125
138476807693,-16.1875,61.5,54.6875
138476829633,52.4375,-28.0625,36.625
138476852135,-70.25,-31.25,-20.125
138476870018,178.438,-548.625,-119.375
138476889665,-55.5,-62.3125,76.125
138476912143,-67.3125,28.25,99.375
138476927133,173.875,-82.9375,42.625
138476949575,66.8125,-64.125,-91.3125
138476972037,2.0625,-36.0625,-42.125
138476987046,26,-34.6875,8.0625
138477009599,19.5,-41.0625,0.25
138477032051,23.9375,-49.5625,-13.4375
138477047078,32.5625,-49.125,28.5
138477069581,20.8125,-47.875,15.5
138477092605,24.25,-46.6875,3.75
138477107129,25.4375,-44.75,18.3125
138477130259,15.5,-44.25,14.3125
138477160828,15.125,-45,19.125
138477167140,10.625,-46.8125,19.875
138477190269,6.9375,-49,20.0625
138477212736,2.3125,-50.4375,23
138477227121,-6.375,-52.6875,23.125
138477250277,0.625,-54.5625,19.9375
138477272726,0.8125,-58.1875,20.1875
138477287124,0.75,-62.625,21
138477309647,9.125,-69.1875,21.875
138477332671,6.5625,-77.6875,24.0625
138477347048,8.0625,-81.5,24.9375
138477369599,19.6875,-84.625,25.0625
138477392775,23.8125,-86.1875,27.1875
138477407197,24.125,-87.6875,25.9375
138477429646,33.25,-88.25,27.625
138477452707,45.75,-90.375,32.625
138477475291,63.0625,-102.25,40.0625
138477489535,70.8125,-118.625,45.5
138477512769,88.8125,-135.062,48.5
138477527076,127.188,-156.625,41.5625
138477549543,82.125,-164.5,43.4375
138477572774,77.75,-147.75,49.5
138477588583,37.75,-195.562,87.0625
138477609667,-11.375,-82.5625,48.5
138477632805,5.125,-90,24.25
138477648649,116.375,-19.25,29
138477669621,97,-28.9375,-71.8125
138477692779,-31.9375,100.688,16.5625
138477708512,-58.8125,143.812,-30
138477729668,32.4375,191.312,-66.5625
138477752834,30.4375,220.062,-44.9375
138477768581,-67.5,232.5,-101.5
138477789626,-63.1875,244.938,-108.25
138477812840,-70.125,250.5,-123.062
138477828590,-83.5,254.375,-139.812
138477849617,-83.9375,254.625,-133.5
138477872821,-55.4375,255.375,-131.312
138477888570,-43.875,245.625,-108.312
138477909680,-12.4375,232.375,-97.3125
138477932720,18.875,209.062,-69.8125
138477948594,-13.0625,175.812,-45.5625
138477969523,-67.75,118.062,-32.75
138477992709,-54.875,46.25,-12.3125
138478008530,-8.4375,-17.0625,-14.875
138478029549,-2.6875,-71.375,-18
138478052770,-71.125,-65.625,41.9375
138478068554,-73.5,-177.125,73.125
138478089610,-122.875,15.5,-8.6875
138478112155,-86.875,-98.125,-2.8125
138478128595,25.3125,-92.3125,-43.6875
138478149676,-19.125,-53,35.875
138478172181,36.25,-53,-43.25
138478188618,22.3125,-48.75,-1.4375
138478209646,-15.125,-51.0625,-15.5
138478232176,45.8125,-53.875,2.875
138478256053,40.625,-54.1875,4.625
138478269654,26,-46.75,19.0625
138478292168,35.0625,-46.0625,10.875
138478308526,27.375,-46.125,18.125
138478329643,23.5625,-47.3125,13.0625
138478352145,26.5625,-48.75,17.5625
138478368562,24.6875,-50.125,19.9375
138478389629,20.4375,-51.625,19.8125
138478412099,21.25,-52.9375,23.8125
138478428525,11.375,-55.375,23.3125
138478449585,2.625,-56.0625,21.9375
138478472149,6.3125,-53.9375,20.8125
138478488583,13.8125,-53,16.9375
138478509690,19,-57,17.5625
138478532078,15.25,-64.9375,19.25
138478548638,15.5625,-74.3125,23.25
138478571066,19.25,-82,24.25
138478592146,22.5625,-86,25.6875
138478608548,28.5625,-88.4375,23.0625
138478631164,37.4375,-88.625,22
138478652210,56.3125,-96.1875,30.5
138478668558,83.0625,-107.188,49.3125
138478691153,112.5,-128.812,43.1875
138478712179,132.375,-147.438,49.375
138478728599,126.938,-166.125,56.625
138478751045,63,-164.875,96.125
138478772092,91.5625,-234.438,76.3125
138478788577,-14.25,-294.375,65.625
138478812494,43.8125,-76.625,34
138478832104,-1.875,34.9375,51.75
138478848535,62.625,35.4375,63.875
138478871029,121.812,-63.0625,-77.9375
138478892799,-95.875,115.625,-65.3125
138478907786,-23.375,159.25,-11.9375
138478930354,78.9375,206.688,-54.625
138478952849,42.375,221.188,-37.0625
138478967768,-58.4375,231.75,-114.75
138478990319,-46.1875,239.812,-120.188
138479012844,-87.75,241.312,-136
138479027863,-113.125,243.875,-138.812
138479050362,-101.75,229.062,-122.375
138479072853,-106.625,227.188,-119.125
138479087863,-90.3125,219.062,-97.9375
138479110320,-64.875,205.562,-95.75
138479132826,11.1875,197.75,-64.625
138479147824,40.75,178.125,-79.375
138479170325,15.25,138.375,-52.125
138479201095,-55.1875,91.5625,1.125
138479207794,-78.9375,11.25,-5.8125
138479230339,-2.4375,-76.3125,13.5
138479252852,-112.75,-52.625,-10.8125
138479267842,-60.375,-165.875,91.625
138479290316,-55.6875,-34.875,14.1875
138479321006,-107.625,-90.875,-10.4375
138479327774,-17.875,-67,17.6875
138479350392,17.625,-61.75,-3.4375
138479372840,15.875,-55.4375,-36.6875
138479387882,6.625,-48.6875,4.5625
138479410257,2.4375,-38.625,2.6875
138479432780,-7.0625,-36.625,-0.1875
138479447793,14.8125,-34.875,11.6875
138479470223,13.5625,-38.875,6.0625
138479492760,7.6875,-46.5625,15.75
138479507715,14.1875,-50.3125,14.5
138479530267,14.125,-51.8125,12.3125
138479552809,22.125,-52.875,17.75
138479567753,16.625,-53.375,16.125
138479598509,14.375,-52.3125,17.5625
138479612779,18.25,-50.5,15.5625
138479627782,10.1875,-48.9375,15.875
138479650301,7.375,-47.4375,16
138479672789,11.25,-45.75,14.4375
138479687782,11.5625,-44.75,13.6875
138479710322,10.6875,-45.3125,15.0625
138479732747,17.5625,-47.6875,16.6875
138479747750,22.4375,-50.875,16.4375
138479770245,23.3125,-55.5,16.4375
138479792770,22.5625,-60.5625,19.75
138479807777,26.6875,-65.1875,18.75
138479830257,30.6875,-66.0625,23.4375
138479852828,30.625,-67.6875,22.875
138479867781,32.875,-65.0625,21.9375
138479890279,39,-56,27.875
138479912826,49.8125,-60.75,35.875
138479927765,56.4375,-65.75,39.5625
138479950311,43.4375,-78.8125,36.3125
138479964626,66.9375,-90.875,39.9375
138479987782,87,-106.062,26.375
138480010282,93.25,-115.188,31.375
138480024625,87.25,-128.312,36.625
138480047802,70.125,-142.562,47.4375
138480070317,70,-146.375,75.375
138480084617,65.8125,-157.25,49.625
138480107859,79.9375,-130.062,25.9375
138480130307,73.9375,-66.125,15.5625
138480146126,82.25,-33.3125,15.6875
138480167807,68.3125,28.0625,9.875
138480190279,7.8125,-4.25,-101.688
138480212795,18.125,63.625,-4.9375
138480228431,55.875,114.625,-45.9375
138480250285,16.875,137.688,-91.5
138480266051,-11.6875,167.062,-91.125
138480287810,-33.0625,191.688,-120.5
138480310290,-51.375,215.125,-116.375
138480332779,-45.0625,217.5,-118.5
138480347791,-51.6875,207.562,-135.125
138480370295,-95.1875,212.188,-129.688
138480386053,-88.8125,195.5,-97.5625
138480409183,-102.188,174.438,-90.5
138480430332,-93.25,160.438,-71.9375
138480446119,-55.25,123.375,-53.375
138480468602,-62.25,77.6875,-29.5
138480491711,-96.0625,19.3125,19.625
138480506049,-40,-2.375,33.625
138480528543,-101.688,-6.6875,-17.6875
138480551731,-18.3125,1.5,64.0625
138480566077,25.25,20.3125,75.625
138480588564,4.625,-1.9375,-28.8125
138480611693,-3.5625,-12.3125,9.0625
138480632786,24.625,-22,-12.4375
138480648522,7.5625,-29.9375,-27
138480671785,1,-35.1875,-0.0625
138480686086,-7.25,-30.0625,-9.0625
138480708657,-9.0625,-28.75,-4.125
138480731747,-0.5625,-21.625,-7.3125
138480752861,-2.625,-16.4375,-11.375
138480768696,2.625,-10.625,-8.8125
138480791713,7.25,-5.625,-8.1875
138480812871,25.5625,-4.75,-7.3125
138480828610,29.1875,-6.625,-11.75
138480851730,21.5,-5.75,-6.8125
138480872775,22.5625,-7.1875,-0.625
138480888583,20.5625,-6.5,-2.5
138480911751,18.375,-6,-0.1875
138480932836,19.125,-5.25,-2.8125
138480948606,18.375,-3.375,-4.25
138480971751,16.0625,-2.4375,1.1875
138480992878,12.9375,-2.25,-0.1875
138481008596,13.4375,-1.125,0.8125
138481032285,11.5,-3.1875,0.75
138481054322,3.25,-3.75,0.0625
138481068626,-0.3125,-4.0625,3.5625
138481099255,-0.125,-5.8125,3.1875
138481112849,-3.75,-7.125,5.25
138481128661,1,-8.5,6.375
138481151864,-0.8125,-9.75,9.3125
138481172828,-1.8125,-11.375,7.6875
138481188673,-4.75,-11.75,11
138481211771,-9.3125,-12.875,10.5
138481232803,-20.6875,-13.6875,12.0625
138481248660,-24.25,-10.8125,16.25
138481271795,-16.5625,-7.8125,13
138481292866,-12.375,-4.25,8.625
138481309076,-14.25,-1.0625,9.6875
138481332492,-17.4375,1.3125,11.9375
138481352797,-12.125,4.0625,10.75
138481368696,-3.25,5.8125,7.625
138481391214,-1.3125,6.375,5.375
138481420370,-1.875,6.3125,4.4375
138481428691,0.25,5.75,3.8125
138481451125,4.8125,4.5625,4.25
138481474338,4.75,3.5,4.5
138481488617,4.75,2.625,3.9375
138481519342,3.3125,1.8125,2.5625
138481540370,1.25,2.375,0.6875
138481548663,1.4375,3.4375,-0.375
138481571188,0.4375,4.3125,-0.875
138481594340,-1.25,4.8125,-0.4375
138481608625,-0.1875,6.375,-0.6875
138481631142,0.5,6.1875,-1.0625
138481654318,1.375,6.5625,-0.4375
138481668637,1.8125,5.375,-1.0625
138481706755,1.75,5,0.5
138481714321,5.1875,4.1875,-1
138481728637,4.3125,2.625,-0.625
138481751194,2.8125,3.125,1.9375
138481774326,6.125,1.875,-0.5
138481796800,5.8125,1.5625,0.75
138481819346,1.8125,1.625,1.9375
138481841854,3.3125,1.625,1.25
138481848595,5.875,1.4375,0.3125
138481871130,4.0625,1.625,0.8125
138481894268,1.625,1.6875,1.625
138481908687,3.875,2.625,1.8125
138481931188,5.5625,1.75,0.8125
138481954370,3.8125,1.1875,0.6875
138481975288,2.75,0.875,2.1875
138481991169,1.3125,-0.75,1.625
138482014307,3.75,-0.375,1.875
138482035387,3.125,-2.3125,0.4375
138482051159,-0.3125,-3,1.3125
138482074853,-2.375,-3.5,2.875
138482095415,-1.3125,-3.625,0.625
138482119334,-3.125,-4.25,2.0625
138482141805,-5.0625,-3.5625,3.625
138482162816,-3.875,-3.8125,1.6875
138482171111,-3.625,-3.5625,1.9375
138482194346,-4.875,-3.625,1.9375
138482215395,-4.1875,-3.375,2.5625
138482231143,-3.0625,-3.375,2.5
138482254322,-3,-2.6875,2.875
138482275400,-1.5625,-2.125,3.0625
138482291194,-1.3125,-1.9375,2.4375
138482313670,-2.0625,-1.3125,2.9375
138482335304,-2.25,-0.6875,2.9375
138482351173,-0.5,-0.125,2.9375
138482373597,-0.9375,0.1875,2.4375
138482395361,-1.375,0.625,2.4375
138482411093,-0.625,0.8125,1.9375
138482441815,-0.8125,0.9375,2
138482462829,-0.5,1.0625,1.75
138482471160,-0.1875,1.375,1.5
138482493667,0.5625,1.375,1.5625
138482516807,-0.25,1.375,1.5625
138482531173,0,0.875,1.5625
138482544734,-0.6875,0.3125,1.25
138482567181,-1.6875,-0.4375,1.3125
138482590315,-2.3125,-1.3125,1.0625
138482604735,-4.6875,-2.5,1.625
138482627239,-5.8125,-3,1.75
138482650875,-6.875,-4.375,0.9375
138482664773,-11.625,-4.375,3.3125
138482696105,-12.5625,-3.9375,3.5
138482710399,-9.4375,-2.6875,4.375
138482724716,-7.3125,-1.875,3.8125
138482747186,-6.375,-1,3.3125
138482770318,-5.25,-0.75,2.9375
138482784694,-3.375,-0.3125,2.4375
138482807165,-2.4375,-0.25,1.875
138482830365,-2.1875,0.4375,2.25
138482844630,0.375,0.6875,0.875
138482867246,0,0.75,0.1875
138482890284,-1.375,0.875,1
138482904769,-2,0.6875,1
138482927123,4.1875,2.8125,1.25
138482950348,8.875,1.9375,-3.375
138482964788,8.3125,1.25,-2.75
138482987279,3.0625,-0.4375,-2.625
138483010394,1.5625,-1.375,1.1875
138483024760,1.5625,-1.625,0.5625
138483047243,1.1875,-2.75,-0.0625
138483070346,0.6875,-2.8125,-0.375
138483084763,-0.5,-3.6875,-1.875
138483107186,-2.1875,-3.75,-0.4375
138483130412,-1.3125,-3.625,-0.6875
138483144681,1.5625,-3.1875,-1
138483167240,0.125,-2.1875,-0.875
138483190422,0.9375,-1.4375,-1.6875
138483204771,0.1875,-1.0625,-2.4375
138483227218,-2.5625,0.125,0.5625
138483250907,-2,1.8125,1.0625
138483272957,2.5,3.3125,0.3125
138483287271,4,4.75,-0.3125
138483310413,3.125,5.625,0.375
138483324787,4.625,7,0.5
138483347293,7.125,7.875,-0.375
138483369720,7.25,9.375,0.875
138483384770,9.6875,10.4375,-0.0625
138483415419,10.75,11,-1.4375
138483429809,9.375,11.4375,-0.6875
138483444717,8.9375,11.875,-0.4375
138483467224,11.25,12.375,0.25
138483489726,13.9375,12.875,-0.625
138483504720,13.5,12.875,-2.5
138483527244,13.9375,12.8125,-0.6875
138483549698,14.0625,15,0.125
138483564686,23,14.125,0.125
138483587291,24.5625,14.3125,-4.3125
138483609675,36.375,11.3125,3.5625
138483624689,29.8125,12.1875,4.5
138483647206,20.3125,13.3125,1.3125
138483669794,17.75,12.625,1.875
138483684759,23.625,11.5,6
138483707205,24.4375,11.3125,5.0625
138483729752,22.25,9.6875,1.125
138483744722,20.125,8.8125,2.3125
138483767285,17.5625,8.875,5.125
138483789718,16.4375,8.3125,3.5625
138483806250,15.0625,8.375,2.375
138483827253,16.5,8.6875,4.8125
138483849780,18.625,8.125,4.6875
138483864745,16.75,6.25,1.75
138483887211,11,5.5,1.5625
138483909758,8.625,4.1875,3
138483924729,7.8125,2.5,1.9375
138483947177,4.75,0.625,-0.1875
138483969788,-0.125,-1,0.375
138483987621,-3.25,-2.0625,1.4375
138484007275,-3.5,-2.25,0.625
138484038498,-2.5,-3.375,0.5625
138484044787,-3.8125,-3.25,0.25
138484067283,-5.75,-3.125,0.1875
138484089749,-3.875,-3.0625,0.1875
138484104779,-4,-3,-0.25
138484135456,-3,-2.8125,-0.375
138484149750,-3.75,-3.0625,-0.75
138484164665,-3.9375,-2.9375,-0.1875
138484187188,-1.625,-3,-0.1875
138484209779,-1.4375,-3.5625,-1.125
138484226196,-4.125,-3.0625,-0.3125
138484247201,-2,-3.1875,0.1875
138484269749,-2,-3.5625,-1.3125
138484286243,-3.5,-3.375,-0.5625
138484307298,-1.6875,-3.625,-0.5625
138484329802,-3.125,-4.4375,-2.125
138484346218,-5.75,-4.625,-1.125
138484367281,-5.75,-4.125,0.125
138484389779,-0.9375,-4.4375,-0.5625
138484406209,-0.25,-4.625,-2.0625
138484427250,-2.6875,-4.8125,-1.0625
138484449772,-4,-4.75,-0.375
138484466195,-2.875,-4.8125,-0.875
138484495327,-0.9375,-4.875,-0.625
138484509699,-1.75,-4.4375,-0.3125
138484526221,-1.0625,-4.25,0.0625
138484547206,0.125,-4.4375,-0.1875
138484569791,0.6875,-4.6875,0.1875
138484587636,2.5625,-5.375,1.0625
138484607243,3,-5.625,2.3125
138484631155,1.375,-6.5,0.5
138484646174,4.125,-6.5625,1.25
138484667295,2.375,-6.5,1.75
138484689755,2.3125,-5.875,0.375
138484706223,4.125,-6.1875,1.5
138484727195,3.0625,-5.25,1.5
138484749740,3.125,-4.8125,0.5625
138484766189,4.625,-4.625,0.5625
138484787212,2.5625,-4.0625,-0.5
138484809768,1.125,-3.75,-0.5625
138484827643,0.75,-2.6875,-0.6875
138484847346,1.8125,-1.625,-0.25
138484869747,3.1875,-0.9375,-0.5625
138484886244,2.6875,-0.3125,-0.75
138484915430,3.0625,-0.125,-0.75
138484938076,2.1875,0.4375,-0.75
138484946175,2.3125,1,-0.5
138484967326,5,1.4375,-0.625
138484991269,5.4375,1.4375,-0.625
138485006259,2.8125,1.625,-0.75
138485027279,2.5,1.6875,-0.6875
138485049803,3.0625,1.625,-0.9375
138485066177,2,1.875,-0.8125
138485087295,0.875,2,-0.75
138485109668,1.375,2.25,-1
138485126174,0.6875,2.4375,-1.1875
138485148658,0.5625,2.6875,-1.0625
138485169808,0.125,2.9375,-1.0625
138485186240,0.875,2.875,-0.625
138485208741,1.75,3,-0.6875
138485229768,1.0625,2.5,-1
138485246264,0.25,2.4375,-0.6875
138485268680,-0.125,1.8125,-0.6875
138485289807,0.5,1.8125,-0.4375
138485306271,1.375,1.5,-0.625
138485328701,1.125,1.375,-0.375
138485349800,1.9375,0.9375,-0.8125
138485373714,1.3125,0.6875,-0.6875
138485388707,0.875,0.5,-0.875
138485409770,1.0625,0.5,-0.625
138485426245,1.8125,0,-1.0625
138485448726,0.125,-0.125,-1.3125
138485469748,-0.5625,-0.625,-1.5625
138485486242,-1.1875,-0.875,-1.5625
138485508683,-1,-0.4375,-1.0625
138485529799,0.5,-0.5625,-1.75
138485546217,-0.9375,-0.6875,-2.3125
138485570210,-2.375,-0.875,-2.25
138485589736,-2.6875,-1.3125,-2.875
138485606227,-3.75,-1.8125,-3.375
138485628713,-6.1875,-3.125,-4.375
138485649774,-10.8125,-4.5625,-5.0625
138485666223,-17.3125,-5.875,-5.4375
138485688708,-18.375,-3.5625,-0.8125
138485709794,-6.375,-3.375,-0.625
138485733733,-5.125,-3.0625,-4.1875
138485748741,-7,-2.5,-2.875
138485787517,-4.875,-3.5,-4
138485789897,-6.625,-3.3125,-5.125
138485816329,-7.375,-2.125,-1.875
138485829835,0.125,-0.625,-1.5
138485846203,-0.875,-1.8125,-3.5625
138485870206,-6.625,-2.625,0.9375
138485889769,-10.5625,-4.375,-2.5
138485906205,-10.0625,-7.8125,-4.75
138485930161,-15,-9.4375,-2.5625
138485949759,-18.4375,-10.375,-1.5625
138485966167,-16.125,-11.625,-3.1875
138485988670,-15.4375,-11.625,-3.125
138486009853,-18.125,-12.4375,-3.1875
138486027694,-18.6875,-11.5,-3.6875
138486048780,-15.4375,-11.6875,-3.625
138486069793,-17.8125,-11.5,-4.375
138486086265,-20.3125,-10.3125,-3.375
138486108734,-17.5625,-9.25,-4.6875
138486131231,-17.8125,-8.8125,-5.1875
138486146225,-17.25,-6.6875,-3
138486168754,-12.625,-6.4375,-5.375
138486190431,-12.4375,-5.75,-5.9375
138486204768,-12.5625,-6.0625,-7.25
138486227946,-8.375,-5.1875,-10.0625
138486250381,29.5625,-4.25,-27.4375
138486266202,17.0625,1.5,-12.125
138486287955,1.75,2.1875,-5.9375
138486310385,-11.0625,-2.5,-10.0625
138486326168,-4.9375,-2.3125,-3.0625
138486348085,-10.625,-4.0625,-4.5625
138486371933,-12.0625,-3.875,-4.0625
138486386951,-5.0625,-4.0625,-3.8125
138486415460,-7.6875,-4.125,-3
138486430530,-9.75,-4.5625,-4.125
138486446986,-8.625,-4.4375,-2.8125
138486468015,-10.3125,-3.875,-2.625
138486491962,-11.6875,-3.3125,-2.625
138486506955,-10.4375,-2.6875,-2.75
138486527996,-10.25,-2.125,-2.5
138486550448,-8.125,-1.625,-3.125
138486566988,-6.5,-0.75,-1.9375
138486588032,-5.3125,-0.4375,-2.25
138486610469,-1.75,-0.1875,-1.0625
138486626933,0.4375,-0.4375,-0.125
138486647985,-0.1875,-1.0625,-0.25
138486670435,3.25,-0.5,-0.0625
138486694410,8.3125,-1.3125,-1
138486707990,10,-0.5,-0.1875
138486730405,48.0625,-0.625,-18.3125
138486746200,35.125,0.25,-10.5
138486767946,27.3125,3.75,-2.3125
138486790398,9.25,0.3125,-8.5625
138486806201,10.3125,0.375,-1.125
138486828029,7.4375,-1.25,-0.75
138486851975,2.0625,-1,-1.625
138486866968,2.0625,-1.125,-0.9375
138486888014,-2.4375,-0.6875,0.625
138486910479,-7,0.3125,0.3125
138486926301,27.0625,2.4375,-14.0625
138486949385,26.5,4.5,-5.5625
138486970475,16.5,8.25,-8.75
138486986265,13.4375,6.25,-5.6875
138487007923,9.9375,3.125,-7.6875
138487030473,12.4375,5.5625,-11.375
138487046243,14.1875,2.8125,-8.6875
138487068032,8.4375,0.875,-9.125
138487090457,7.75,0.25,-7.8125
138487106287,8.5,-0.5,-6.3125
138487135405,5.375,-0.5625,-6.125
138487150470,4.625,-0.0625,-5.4375
138487166274,6.1875,2.5625,-5.125
138487189355,6.375,2.4375,-6.1875
138487210459,6.25,1.9375,-4.3125
138487226249,4.3125,1,-3.3125
138487249944,1.5,0.375,-1.75
138487270436,1.4375,-0.5625,-0.6875
138487286212,-0.0625,-0.9375,0.5625
138487309394,-2.5,-1.625,2.25
138487330429,-5.25,-1.8125,4.125
138487346248,-10.6875,-2.1875,7.375
138487369388,-13.4375,-1.75,12.8125
138487390424,-15.25,-1.3125,14
138487406241,-16.8125,-1.9375,13
138487429457,-27,-4.25,12.3125
138487450262,-30.625,-3.25,16
138487466218,-26.9375,-2.9375,14.125
138487489418,-21.9375,-1.6875,11
138487510519,-15.3125,-1,7.875
138487526336,-6.125,-1.625,3.25
138487549443,-6.5,-1.5,3.25
138487570528,-7.3125,-2.25,3.4375
138487586304,-3.375,-2.75,2.5625
138487609403,-3.9375,-2.5,0.6875
138487630455,-4.4375,-2.5625,-0.0625
138487646285,-5.1875,-0.0625,1.5
138487669468,-1.8125,-0.3125,0.375
138487691920,-6,0.5625,1.4375
138487706220,-2.75,1.4375,-0.0625
138487729886,-0.4375,0.4375,0.8125
138487750500,-3.75,0.375,1.375
138487766218,-1.8125,-0.375,0.125
138487789436,-1.8125,-0.75,1.625
138487810433,-2.6875,-0.75,1.25
138487826195,-1.375,-0.6875,2
138487849460,-0.8125,-0.6875,2.3125
138487870529,-1.3125,-0.875,2.125
138487886271,-0.6875,-0.875,2.5
138487909432,-0.625,-0.6875,2.75
138487930532,-1.25,-0.9375,2.8125
138487946270,-1.3125,-0.1875,2.5
138487969406,-0.75,-0.4375,2.375
138487990557,-1.375,0,2.75
138488007036,-1.875,0.0625,2.75
138488036952,-1.8125,0.5625,2.5
138488050496,-1.25,0.75,2.1875
138488066290,-1.9375,0.9375,2.0625
138488088732,-2.0625,1.5,1.9375
138488111990,-0.0625,1.4375,2
138488126283,-1.125,1.5625,2.25
138488148834,-1.5,1.6875,2
138488171986,-0.875,1.75,2.125
138488193057,0.125,2.125,2.1875
138488208721,-0.0625,1.8125,2.375
138488232007,-0.3125,1.875,2.5
138488246787,0.1875,1.375,2.875
138488268820,-0.6875,1.1875,3.375
138488291949,-1.5,0.9375,2.8125
138488306302,-0.6875,1.25,3.25
138488328799,0.3125,0.875,3.4375
138488359490,-1.125,1.0625,3.4375
138488366303,-3.4375,0.5625,3.0625
138488388786,-6.875,0.3125,3.6875
138488411946,-11.5,-0.0625,3
138488426284,-16.625,0.375,3.0625
138488448819,-17.5625,1.1875,2
138488471681,-17.25,2.1875,2.0625
138488486254,-16,3.25,2.125
138488508793,-11.25,4.25,2.8125
138488531935,-3.6875,4.875,2.875
138488546353,-2.1875,4.9375,3.1875
138488568821,0.875,5.0625,3.25
138488592009,4.125,4.625,3.625
138488606228,4.5,3.875,4.1875
138488628755,2.9375,3.0625,4.5625
138488651995,3.125,2.1875,4.1875
138488673024,4,2.0625,4.5625
138488688830,4.5,1.6875,3.75
138488711993,3.8125,1.9375,4.75
138488732996,4.4375,1.6875,4.1875
138488755536,4.3125,1.1875,4.625
138488771991,3.8125,0.8125,4.4375
138488800522,4,0.75,4.625
138488808844,7.5,0.875,3.3125
138488831955,4.875,1.25,3.6875
138488852990,7.375,1.125,2.75
138488868747,6.875,0.125,2.0625
138488891993,4.8125,-0.25,3
138488913003,4.125,-0.8125,2.5
138488928844,6.0625,-0.75,2.9375
138488951339,7.9375,-1.0625,2.5
138488973071,5.75,-1.25,1.9375
138488988850,4.875,-1.3125,2.5625
138489011323,4.0625,-1.5,2.875
138489032989,5.5,-1.5,3.125
138489048828,6.3125,-2.0625,2.5625
138489071276,4,-2.5,2.6875
138489094429,2.9375,-2.5625,2.8125
138489108790,3.5625,-2.5625,2.75
138489131297,3.5625,-2.4375,2.1875
138489154412,2.4375,-2.125,3.5
138489168762,2.75,-1.75,2.9375
138489191308,3.75,-1.6875,2.0625
138489214426,1.875,-2.375,3.5
138489228744,0.6875,-2.6875,3
138489251328,-0.3125,-3.4375,3.0625
138489274434,0.5,-3.5,2.9375
138489288814,1.25,-3.6875,2.5
138489311371,2.3125,-3.3125,2.75
138489334449,4.125,-2.8125,2.375
138489356997,3.3125,-2.375,1.1875
138489379897,2.75,-1.375,1.9375
138489394455,3.875,-0.9375,1.8125
138489408831,5.375,0.125,2.125
138489439268,4.3125,-0.0625,1.8125
138489454430,2.625,0,2.0625
138489477355,0.5,-0.75,3
138489491281,0.75,-1.4375,3
138489515476,0.6875,-2.4375,2.75
138489528811,0.5625,-3.1875,3.75
138489551280,1.1875,-3.875,3.0625
138489574429,0.9375,-4.625,3
138489595482,0.9375,-5,3.5625
138489611299,0.375,-5.125,2.75
138489634470,0.1875,-5.375,2.5
138489655634,-2.5625,-5.3125,3.3125
138489671348,-4.125,-5.3125,3.0625
138489694457,-7.875,-5.375,3.375
138489722943,-10.0625,-4.875,4.1875
138489731325,-9.875,-4.0625,4.5
138489754527,-6.75,-3.125,4.3125
138489775490,-5,-2.4375,3.75
138489791367,-4.8125,-2.25,3.75
138489821975,-3.375,-2.3125,3.3125
138489835528,-2.0625,-2.6875,3.3125
138489851327,-1.5,-3.25,2.875
138489864808,-1.1875,-3.75,2.6875
138489887340,-2.0625,-4.3125,2.75
138489910552,-2.4375,-4.5625,2.9375
138489924830,-1.625,-4.375,2.375
138489947336,-0.1875,-4.625,3.25
138489978670,-0.0625,-4.8125,1.9375
138489984849,-1.0625,-4.75,2
138490007360,1.1875,-4.3125,2.5
138490030517,3.1875,-3.75,1
138490044859,3.125,-3.875,1.5
138490067430,2.875,-3.1875,1
138490090554,4.875,-2.9375,0.375
138490104858,4.125,-2.6875,0.5625
138490127424,3.25,-2.25,0.25
138490150546,3.875,-1.9375,0
138490165020,3.0625,-1.875,0.0625
138490187420,3.125,-1.0625,0.3125
138490210604,3.5625,-0.125,-0.3125
138490224843,4,0.6875,-0.25
138490247354,2.5625,1.375,-0.5
138490270461,2.9375,2.125,-0.6875
138490284813,3.1875,2.4375,-1
138490307358,1.4375,2.5625,-0.6875
138490330510,2.625,3.1875,-0.3125
138490344827,3.375,3.4375,-1.75
138490367375,4.1875,3.5,0
138490390543,0.5,3.4375,-0.875
138490404935,1,3.375,-1.25
138490427426,1,2.6875,-0.375
138490450644,0.6875,2.25,-0.5625
138490466373,0,1.5,-0.6875
138490487430,-0.5,1.0625,-0.125
138490510582,-0.625,0.1875,-0.125
138490524933,-1.625,-1.0625,0.625
138490547466,-2.125,-1.6875,0.875
138490570572,-2.375,-2.75,1.25
138490584851,-3.1875,-3.4375,0.8125
138490607374,-3.9375,-3.875,1.25
138490630506,-3.875,-4.0625,1.3125
138490644821,-4.5,-4.0625,1.4375
138490667348,-4.25,-3.625,1.4375
138490690379,-3.5625,-3.1875,0.9375
138490704923,-3.4375,-2.8125,0.875
138490727450,-3.5,-2.125,1.125
138490750523,-3,-1.75,0.8125
138490764946,-2.75,-1.0625,0.8125
138490787420,-2.5625,-0.1875,0.6875
138490810498,-2.625,0.8125,0.625
138490824890,-2.875,1.875,0.6875
138490847421,-2.75,2.6875,0.8125
