myoTS,x,y,z
41685724923,11.25,-31.1875,-30.0625
41685739961,12.8125,-35.25,-28.3125
41685763630,10.125,-33.8125,-27.5625
41685784911,10.3125,-31.875,-25.125
41685799905,12.9375,-29.6875,-21.6875
41685823576,10.75,-26.4375,-17.6875
41685868637,6.8125,-23.9375,-13.625
41685877547,-0.3125,-22.75,-9.75
41685885063,-6.875,-20.9375,-5.1875
41685905592,-13.25,-19.125,0.1875
41685921419,-14.9375,-17.6875,5.75
41685943621,-8.6875,-16.1875,11.4375
41685987338,0.5,-14.0625,13.375
41685997436,7.75,-12.25,13.125
41686004379,8.875,-10.5,11
41686025551,8.625,-8.75,7.9375
41686041282,2.4375,-8.1875,9.3125
41686062322,-4.125,-7.25,9.5
41686085521,-6.1875,-6.125,8.4375
41686101228,-4.3125,-4.5625,8.3125
41686122330,-6.5625,-3.1875,6.75
41686145481,-6.75,-3,4.125
41686161287,-4.5625,-4.125,3.9375
41686182324,-3.125,-3.5625,3.6875
41686205447,1.5625,-3.4375,3.6875
41686221236,5.5,-3.9375,5.3125
41686242312,7.0625,-3.6875,6.125
41686265496,5.125,-2.75,4.625
41686281279,2.75,-0.0625,3.5625
41686302221,0.25,2.75,2
41686325488,2.5,5.0625,-1
41686341213,4.375,7,-2.5625
41686362283,5.5,6.75,-1.9375
41686385476,6.8125,5.125,-0.25
41686401215,5.125,3.625,1.4375
41686423695,3.9375,1.6875,1.5
41686445457,4.625,-0.25,0.625
41686461208,4.125,-1.5625,0.4375
41686483781,0.5625,-1.125,0.75
41686505446,1.625,0.6875,0.6875
41686521179,6.75,1.375,1.1875
41686543700,8.625,1.0625,2.5625
41686565536,6.75,1.3125,3.1875
41686581309,3.25,2.125,3.3125
41686603728,1.375,2.5625,3.1875
41686625511,3.5625,2.875,2.3125
41686641267,6.375,2.6875,1.5
41686663721,6.75,2.3125,1.375
41686684841,5.25,2.625,1.5
41686701186,6.0625,3.75,1.4375
41686723704,6.4375,4,1.8125
41686744888,5.1875,3.625,1.6875
41686761235,3.4375,3,1.5625
41686783691,1.6875,2.3125,1.4375
41686804877,-0.6875,2,1.5
41686821215,-2.6875,1.625,0.875
41686843689,-3.8125,1.125,-0.0625
41686864753,-3,1,-0.4375
41686881169,-0.9375,1.8125,-0.8125
41686903818,0.8125,1.875,-0.8125
41686924807,1.1875,1.625,-0.625
41686941298,-0.375,1.75,-0.375
41686963782,-0.3125,1.4375,-0.6875
41686986346,0.25,0.875,-0.5625
41687009407,-0.125,1.0625,-0.125
41687023787,-0.6875,1.5,0.75
41687046282,-5,0.5,1.5
41687069388,-8.625,0,1.3125
41687083721,-8.875,-0.0625,1.375
41687106172,-7.125,-0.5625,1.8125
41687129448,-4.9375,0.6875,2.3125
41687143724,1.5,1.9375,2.75
41687166255,5.625,1.625,2.875
41687189344,3.5625,1.6875,2.9375
41687203721,1.0625,2.0625,2.3125
41687226733,-0.9375,1.875,1.5625
41687249393,-2.4375,1.375,0.625
41687263747,-3.0625,0.875,-0.25
41687286325,-3,0,-0.6875
41687309467,-3.0625,-0.1875,-0.75
41687323832,-3.625,-0.0625,-0.3125
41687346255,-7.3125,-1.3125,0.1875
41687369476,-15.1875,-2.5,0.5
41687390600,-24,-3.5625,0.6875
41687406278,-27,-5.0625,-2.75
41687429368,-28.875,-4.6875,-5.25
41687450443,-43.0625,-4.375,-6.6875
41687466196,-55.8125,-6.25,-14.3125
41687489359,-74.8125,-10.375,-18.875
41687510484,-82.9375,-10.6875,-22
41687526330,-81.0625,-10.9375,-24.125
41687549503,-56.9375,-10.9375,-21
41687570548,-35.625,-20.375,-22.9375
41687586255,-36.6875,-30.0625,-23.375
41687609447,-43,-34.75,-22.75
41687630506,-46.125,-37.125,-21.6875
41687645557,-46.0625,-37.625,-19.6875
41687659848,-60.1875,-36.8125,-12.25
41687682294,-75,-40.9375,-17.0625
41687705442,-78.625,-41,-18.1875
41687719811,-63.9375,-37.4375,-20.875
41687742314,-39,-32.375,-18.75
41687765513,-27.0625,-28.5625,-13.5625
41687779887,-31.5,-30.1875,-11.8125
41687802288,-42.5625,-28.9375,-10.5
41687825548,-36.5625,-24.75,-10.6875
41687839888,-18.9375,-18.25,-10.375
41687862395,-12.875,-13.375,-9
41687885566,-13.5625,-11.625,-6.9375
41687899944,-13.5625,-9.875,-4.625
41687922361,-10.0625,-7.3125,-3.75
41687945532,-1.9375,-4,-2.6875
41687959799,6.25,-1,-0.875
41687982278,3.6875,-1.6875,-0.0625
41688005678,-5.0625,-3.5,-0.3125
41688019818,-11.4375,-4.25,-1.375
41688042374,-5.5,-3.6875,-1.875
41688065536,2.25,-1.75,-1.5
41688079883,0.25,-1.6875,-1.75
41688102216,-7.875,-3.875,-3.375
41688125609,-10.75,-4.75,-4.125
41688139825,-7,-4.4375,-4
41688162326,-4.0625,-3.6875,-3.25
41688185485,-7.625,-4.0625,-3.5
41688199869,-10.6875,-5.375,-4.1875
41688222329,-10.1875,-6.0625,-5.6875
41688245421,-4.25,-5.8125,-5.8125
41688259817,0.6875,-3.5,-3.75
41688282408,2.4375,-0.9375,-1.125
41688305457,2.6875,0.5,0.125
41688319907,3.5,1.6875,1
41688342406,6.875,3.125,1.875
41688365598,10.4375,5.1875,2.5
41688379928,9.75,6.375,2.25
41688402299,6.25,5.625,2.0625
41688433717,5.1875,5.375,2.125
41688439903,8.125,5.5,2.125
41688462438,7.3125,3.75,1.6875
41688485514,0.5,2.1875,0.4375
41688499861,-4.3125,1.1875,-0.625
41688522293,-0.8125,0.3125,-0.9375
41688545450,4.5625,-0.625,0
41688559752,4.375,-1.1875,0.625
41688582315,0.625,-1.5,0.875
41688605527,-2.25,-1.3125,-0.125
41688619885,-1.1875,-0.6875,-0.25
41688642449,3.1875,0.1875,0.625
41688665563,5.5,0.4375,1.1875
41688679859,1.4375,0.125,0.9375
41688702311,-3.25,0.0625,0.125
41688725497,-1.5,0.25,-0.25
41688739885,4.5,0.3125,0.25
41688762455,6.375,0.3125,0.3125
41688784801,1.75,0,-0.0625
41688799801,-3.1875,-0.1875,-0.875
41688822337,-2.9375,-0.1875,-0.375
41688844787,2.25,-0.125,0.5
41688859909,4.75,-0.5,1.0625
41688882360,2.0625,-0.6875,1.625
41688904838,0.0625,-0.8125,1.3125
41688919905,0.9375,0.0625,1
41688942407,3.25,0.0625,0.8125
41688964908,3.6875,0.75,0.9375
41688979928,1.5625,1.0625,0.4375
41689002302,-1.6875,1.625,-0.5
41689024806,-2.6875,1.375,-1.5625
41689039835,-0.125,0.125,-1.3125
41689062450,-0.3125,-0.6875,-0.75
41689084921,1.625,-1,0.5625
41689099855,2.0625,-1,-0.125
41689122391,-0.4375,-0.6875,-1
41689144811,-0.6875,0,-0.25
41689159892,1,0.1875,0.375
41689183758,3.5,0.375,0.875
41689204811,1.9375,0.5,0.25
41689219803,-3.75,0.75,-0.4375
41689242367,-3,0.5625,-0.8125
41689266269,2.1875,0.125,0.1875
41689279916,4.1875,-0.0625,0.6875
41689302361,1.75,-0.125,0.25
41689324823,-2.6875,-0.3125,-0.875
41689339798,-4.125,-0.625,-0.875
41689362382,-1,-0.75,-0.4375
41689386337,3.8125,-0.8125,0.4375
41689399852,5.125,0.3125,0.875
41689422506,4.3125,1.25,0.625
41689444934,2.125,1.375,0.3125
41689459811,1.25,2.25,0.5
41689482358,5.25,3.3125,1.25
41689504857,11.625,4,2.1875
41689519824,15.6875,5.375,3.125
41689542348,22,7.0625,5.4375
41689564859,32.75,9.6875,9.1875
41689581218,43.6875,15.625,12.375
41689602306,59.625,20.625,14.625
41689624858,74.5,22.8125,14.5625
41689641382,80.5625,23.875,13.75
41689662465,76.4375,25.25,13.4375
41689684901,66.9375,28.6875,15
41689701254,61.125,27.5625,14.4375
41689722464,59.125,23.625,10.125
41689744843,54.4375,18.875,7.5625
41689761345,44.25,14.6875,5.3125
41689782434,32.5625,15.625,5.375
41689804848,30.0625,15.5,6.25
41689821365,38.1875,13.75,5.25
41689842367,43.3125,11.1875,4.5
41689864929,38.8125,8.5625,4.75
41689881362,28.5625,7.375,4.125
41689902428,19.75,6,5.625
41689924874,19.0625,6.1875,4.875
41689941215,19.25,6.375,1.75
41689962430,15.875,8.25,-0.125
41689984843,13.3125,8.0625,-1.1875
41690001254,20.9375,5.375,-2.9375
41690022274,28.4375,3.8125,-4
41690044895,28.0625,4.8125,-4.5625
41690061373,27.75,6,-6
41690082404,31.25,5.5625,-8.9375
41690104869,29.8125,5.125,-8.3125
41690121370,31.8125,2.625,-8.9375
41690142478,32.6875,5.25,-10
41690164935,37.0625,9,-10.375
41690181398,37,9,-9.9375
41690202393,32.1875,4.25,-10
41690224953,17.0625,4.5,-8.8125
41690241332,7.1875,2.8125,-5
41690262399,6.6875,2.5,-3.125
41690284829,8.0625,4.5,-4.9375
41690301307,11.3125,2.25,-5.1875
41690323731,13.625,-0.5,-1.4375
41690344832,14.9375,-2.3125,0.0625
41690361281,3.0625,-2.8125,-0.1875
41690382307,-9.8125,-1,0.1875
41690404911,-6.8125,1.3125,-0.4375
41690427400,8.375,3.4375,-0.8125
41690442448,18.25,2.625,2.1875
41690464940,18.0625,4,2.25
41690481332,8.5,6.125,0.8125
41690503804,0.4375,8.75,0.125
41690524918,-0.625,10.5625,0.625
41690541387,6.1875,10.3125,0.9375
41690563851,8.9375,9.375,0.4375
41690584892,6.625,8.8125,0.75
41690601280,5.5,7.4375,1.5625
41690623840,7.3125,5.875,2.6875
41690644914,9.1875,4.6875,3.125
41690661388,11.25,5.125,2.9375
41690683879,12.125,5.9375,2.5
41690704901,12.75,6.1875,2.875
41690721391,12.125,6.1875,2.625
41690743776,9.6875,6.125,3.0625
41690764843,9,6.1875,2.375
41690781265,7.3125,7,2.4375
41690803839,3.25,8.0625,2.5625
41690824855,-0.125,7.6875,1.5625
41690841278,2.0625,6.4375,1.25
41690863822,3.625,5.125,1.25
41690884889,4.25,4.625,1.5
41690901263,3.4375,4.9375,1.125
41690923864,1.75,5.0625,1.0625
41690944886,1.4375,4.375,0.8125
41690961361,1.875,3.25,1.0625
41690983789,1.125,2.1875,1.1875
41691004924,0.1875,1.4375,1.1875
41691021394,-1.0625,0.625,0.9375
41691043896,-3,0.375,1.375
41691064955,-5.125,-0.1875,1.5
41691081377,-4.125,-0.75,1.1875
41691103791,-1.4375,-1.6875,0.5
41691126402,-0.125,-1.5,0.3125
41691141444,-1.4375,-0.6875,0.3125
41691163903,-2.75,0.25,0.3125
41691184936,-1.9375,0.75,0.0625
41691201346,-1,1.25,0.0625
41691223969,-1.1875,1.6875,0.5
41691244857,-1.375,2,0.9375
41691261408,-0.875,1.8125,0.5
41691283804,0.1875,1.0625,0.25
41691304893,-0.3125,0.5625,0.75
41691321343,-0.4375,-0.125,1.4375
41691343816,1.8125,-1.25,2.125
41691364888,-0.25,-0.9375,4.1875
41691381310,-4,-0.8125,4.6875
41691403784,-4.8125,-1,3
41691426287,-4,-1.375,1.6875
41691441305,-2.125,-1.75,1.375
41691463786,-0.9375,-1.375,1.4375
41691485536,-1.375,-1.0625,0.9375
41691500475,-0.8125,0.1875,0.9375
41691523005,1.8125,1.1875,1.25
41691545584,4.625,1.375,1.1875
41691560617,5,1.75,1.375
41691583075,3.1875,2.375,1.6875
41691605640,1.5625,3.0625,2.1875
41691622007,1.125,3.0625,1.9375
41691643085,2.9375,2.125,0.6875
41691665577,3.625,1.3125,0.875
41691682025,-0.5,2.0625,1.625
41691703056,-4.9375,4.1875,1.4375
41691725542,2.75,3.8125,0.8125
41691741951,14.25,3.25,0.625
41691762998,16,3.4375,1.5
41691785645,9.4375,5.75,2.1875
41691801952,3.25,6.5625,0.25
41691823151,3.875,4.375,-2.9375
41691845566,9.6875,1.5,-3.3125
41691861998,13.375,-0.4375,-1.8125
41691883106,11.375,-0.375,-1.75
41691905591,11.625,-1.5625,-3.375
41691921995,12.5625,-2.75,-4.0625
41691943129,11,-1.5,-4.25
41691966346,8.75,2.125,-3.6875
41691982103,8.875,5.1875,-4.125
41692003113,10.625,5,-5.8125
41692025622,10,3.375,-6.75
41692041970,6.375,1,-6.625
41692062995,1.375,1.4375,-6.6875
41692085577,2.4375,5.9375,-7
41692101979,6.6875,9.5,-6.375
41692123018,6.1875,12,-5.3125
41692145572,1.25,12.25,-3.0625
41692161947,-2.4375,12.75,-2.5
41692183020,-3.5,15,-2.875
41692205522,-5.0625,17,-2.3125
41692222030,-4.9375,15.6875,0.25
41692243067,-2,14.875,2.125
41692265606,4.0625,14.125,2.4375
41692282133,9,14.6875,1.625
41692303046,10.9375,16.4375,1.75
41692325620,10.9375,18.4375,1.9375
41692341395,8.8125,19.25,1.625
41692363112,6.5625,20.125,1.5
41692385501,3.25,20.8125,0.875
41692401368,0.25,21.75,0.4375
41692424479,0.125,22.125,-0.375
41692445578,3.125,21.25,-1
41692461353,3.75,21.125,-1
41692483091,1.5,22.25,-0.375
41692505523,1.6875,21.875,0.75
41692521347,2.125,22.3125,1.1875
41692543036,5.4375,22.1875,2.125
41692565563,7.6875,22,2.75
41692581370,6.6875,21.875,3.1875
41692604492,4.1875,21.3125,2.875
41692625581,4,19.625,3.375
41692641345,4,17.5625,4.5
41692664535,2.6875,14.5,5.75
41692685518,3.375,10.5625,6.1875
41692701385,3.6875,7.4375,7.25
41692724473,3.5625,4.375,8.0625
41692745541,4.875,1.6875,8.25
41692761379,4.0625,-0.25,9.0625
41692784542,2.125,-1.3125,9
41692805532,1.6875,-3,8.9375
41692821347,4.5,-5.0625,9.9375
41692844482,7.8125,-6.3125,10.4375
41692865510,10.8125,-7.3125,10.625
41692881355,11.875,-7.6875,10.8125
41692904518,11.9375,-7,10.3125
41692925556,8.375,-5.8125,10.25
41692941401,4.625,-5.125,9.9375
41692964505,2.9375,-3.5,8.5625
41692985551,4.4375,-2.1875,7.6875
41693001444,5.4375,-2.25,8.3125
41693024499,4.75,-3.0625,7.8125
41693045597,1,-4.125,7.125
41693061372,-5.1875,-4.1875,7.25
41693084502,-6.5,-2.8125,8.4375
41693105556,-1.8125,-1.125,7.9375
41693121348,3.8125,0.8125,7.25
41693144505,7.125,3.125,7.125
41693165563,7.75,5.3125,7.375
41693181355,5.625,7,7.75
41693204492,1.6875,8.1875,8.1875
41693225572,-3.5625,8.0625,7.625
41693249512,-6.875,5.9375,7
41693264509,-6.6875,3.25,5.9375
41693286986,-5.0625,1.0625,5.75
41693301387,-7.1875,0.0625,4.1875
41693323900,-10.3125,-0.25,1.875
41693345562,-12.875,-0.4375,1.0625
41693361380,-14.0625,-1.125,-0.0625
41693383878,-14.4375,-2,-0.8125
41693405594,-10.3125,-3.25,-0.375
41693421397,-3.9375,-4.875,0.4375
41693443841,-0.625,-3.6875,0.25
41693465576,1.125,-2.0625,-0.125
41693481368,1.0625,-1,-0.6875
41693503822,-0.125,-0.125,-0.5625
41693527013,-1.8125,0.625,-0.4375
41693541388,-3.125,0.1875,-0.6875
41693563883,-3,-0.6875,-0.875
41693587055,-1.4375,-1.625,-1.3125
41693601342,-0.1875,-1.375,-1.375
41693623875,-0.625,-0.6875,-1.375
41693647007,-1.625,0.5,-2
41693661388,-0.9375,1.4375,-3.3125
41693683819,0.8125,0.875,-4.375
41693707037,2,-0.375,-3.8125
41693721359,2.0625,-0.125,-2.375
41693743861,4.0625,0.875,-1.6875
41693767640,8.6875,0.6875,-0.8125
41693781375,10.875,0,-0.625
41693803830,10.875,1.3125,-2.3125
41693826977,9.3125,2.4375,-4.1875
41693841443,7.75,2.375,-5
41693863854,4.8125,2.25,-4.375
41693886999,3.0625,1.3125,-3.875
41693901468,3,0.3125,-3.3125
41693923881,6.3125,-1.125,-2.8125
41693946985,6.8125,-0.625,-1.5
41693961398,5.625,0.125,-1.4375
41693983908,5.25,0.9375,-1.5
41694007037,5,2.1875,-1.6875
41694028089,2.5625,2.6875,-2.75
41694043894,-0.125,2.3125,-3.125
41694067056,-0.5625,0.875,-2.75
41694088035,1.875,-0.3125,-2.625
41694103980,2.625,-0.875,-2.625
41694127126,0.6875,-0.625,-2.5625
41694148199,-2.0625,-1.0625,-1.9375
41694163882,-2,-1.4375,-1.25
41694187121,0.375,-1.5,-1.9375
41694208162,1.6875,-1.25,-2.75
41694223878,0.8125,-0.625,-2.875
41694247052,0.25,-0.625,-2.4375
41694268213,-1.3125,-0.3125,-2.375
41694283950,-2.125,-1,-2.375
41694306412,-0.3125,-2.625,-2.25
41694328235,5.3125,-2.125,-0.25
41694343914,5.875,0.4375,2.875
41694366413,2.25,-0.375,2.375
41694388173,4.3125,-5.6875,-1.75
41694403913,6.125,-8.3125,-4.0625
41694426448,-1.875,-5.6875,-3.125
41694449429,-14.5625,-2.125,-2.125
41694463960,-18.0625,-1,-3.6875
41694486470,-19.3125,0.5,-4.625
41694509612,-28.5,4.625,-1.125
41694523969,-41.9375,14.1875,0.6875
41694546430,-46.1875,23.4375,1.375
41694569493,-47.1875,27.875,1.3125
41694583849,-45.875,30.125,3.6875
41694606355,-47.8125,35,7.5625
41694629472,-57.0625,43.375,12.75
41694643991,-66.625,49.25,17.875
41694666493,-72.3125,52.8125,23
41694689582,-73.9375,53.0625,24.25
41694703884,-68.125,52.75,25.25
41694726377,-62.125,54.625,29.0625
41694749545,-63.875,60.5,32.625
41694778198,-71.6875,62.875,33.375
41694786491,-70.8125,61.375,35.125
41694809602,-57.4375,59.875,37.125
41694830653,-48.875,61,37
41694853191,-47,63.375,35
41694869513,-43.25,63,32.8125
41694890683,-33.0625,59.0625,30.6875
41694906363,-17.5,53.8125,29.0625
41694929529,-6.1875,50.9375,27.625
41694950693,-5.625,50,24.5625
41694966427,-12.4375,48.125,22.8125
41694989558,-16.8125,42.875,22.625
41695010683,-13.75,35.5,21.75
41695026491,-5.25,27.5625,20.9375
41695049620,1,19.25,20.25
41695070645,-0.8125,12.625,18.6875
41695086470,-7.5625,5.4375,15.625
41695109610,-13.4375,0.75,12.125
41695130597,-12.5625,-2.5,10.5
41695146412,-7.9375,-4.5625,9.9375
41695169553,-6.125,-5.4375,8.4375
41695190588,-5.875,-5.6875,4.1875
41695206376,-5.875,-5.8125,1
41695228863,-3.375,-3.5,-0.25
41695250654,1.125,0,-0.625
41695266474,2.625,3.6875,-0.875
41695288923,-1.6875,6,-1.125
41695302479,-6.375,8.375,-3.1875
41695325662,-0.125,9.8125,-5.25
41695340010,6.0625,10.3125,-3.25
41695362505,1.875,9.1875,-0.25
41695385706,-2.5625,6.4375,1
41695400060,-4.375,3.8125,2.1875
41695422572,-1.5,2.125,3
41695445630,-1.125,1.25,3.125
41695459939,-2.5,1.0625,3.1875
41695482479,-3.625,1.625,2.1875
41695505639,-3.3125,1,1.3125
41695519939,-0.1875,-0.4375,1.25
41695542409,2.5,-0.8125,1.4375
41695565646,-1.0625,0,1.125
41695579989,-5.625,1.4375,0.875
41695603914,-3.5625,1.1875,1.5625
41695625688,1.25,0.5,1.5625
41695641469,3.625,0.875,0.0625
41695662507,2.625,2,-0.6875
41695685746,-0.0625,3.5625,-0.5625
41695700085,-0.9375,4.5625,-0.1875
41695722494,-0.25,4.5625,-1.125
41695745678,0,2.75,-2.8125
41695759967,1.0625,0.0625,-3.25
41695782448,1.375,-1.125,-1.625
41695805585,-1.625,-0.875,-0.375
41695819916,-3.25,-1.1875,-0.5625
41695842557,-0.8125,-2,-1.875
41695865627,4.0625,-2.125,-2.3125
41695880046,6.6875,-1.5625,-2.5
41695902471,4.75,-0.5,-3.0625
41695925652,1.6875,0.25,-3.6875
41695940054,7.25,1.1875,-3.375
41695962581,25.25,4.125,-3.4375
41695985735,53.0625,10.1875,-5
41696000079,78.75,15.5,-10.6875
41696022559,86.0625,14.25,-16.75
41696045644,86.5625,2.5,-21.125
41696059927,95.625,-14.5625,-18.6875
41696082435,95.875,-33.3125,-12.125
41696112933,93.9375,-50.75,-4.9375
41696122827,99.3125,-62.75,-3.0625
41696150771,101.688,-72.5,-1.9375
41696165704,93.375,-78.1875,2.3125
41696180022,81,-79.9375,4.4375
41696202517,69.25,-78.3125,4.4375
41696225723,57.75,-71.4375,3.6875
41696240044,43.0625,-65.625,-2.3125
41696262541,35.8125,-62.5,-8.6875
41696285682,42,-58.0625,-8.6875
41696300015,42.875,-52.75,-7.6875
41696322531,34.0625,-49.0625,-7.4375
41696344974,27.125,-47,-6.6875
41696359945,27.1875,-44.6875,-3.125
41696382441,24.5,-43.0625,-1.625
41696404975,17.4375,-42.5,-3
41696420009,12.0625,-41.3125,-1
41696442523,7.125,-36.625,4.125
41696465077,-2.6875,-31.5625,9.5625
41696480048,-10.625,-27.125,10.5625
41696502418,-8.375,-24.75,9
41696533831,-5.1875,-17.5625,7.375
41696539994,-4,-9.4375,4.875
41696562535,3.8125,-0.5,2.8125
41696585067,10.625,5.4375,1.0625
41696599975,12.1875,4.1875,0.3125
41696622511,8,-1.25,2.75
41696644994,0,-8.25,6
41696659897,-4.5625,-13.375,8.5625
41696682440,-5.5625,-13.1875,9.125
41696704941,-3.875,-10.875,7.75
41696720025,-3.1875,-7.4375,4.0625
41696742633,-2.875,-3.875,1.25
41696765085,-3.125,-0.8125,-0.125
41696780031,-1,0.75,-0.75
41696802483,2.0625,0.625,-1.375
41696825038,2.375,-0.1875,-1.4375
41696840064,-0.875,-1.125,-0.5
41696862580,-4.9375,-2.75,0.125
41696884980,-7.0625,-3.4375,-1.3125
41696900086,-8.9375,-3.8125,-3.6875
41696922533,-10.25,-3.375,-4.3125
41696945009,-9.875,-2.6875,-3.75
41696959945,-9,-2.125,-2.5625
41696982462,-6.875,-2.375,-2.4375
41697004951,-5.3125,-1.8125,-2
41697019924,-5.9375,-0.1875,-0.625
41697042550,-5.4375,0.5625,0.375
41697065042,-2.6875,0.1875,0.125
41697080094,0.0625,-0.4375,-0.0625
41697102492,1.0625,-1,0.375
41697125072,-1.375,-1.5,0.375
41697141499,-8.625,-2.5625,0.875
41697162567,-13.4375,-3.875,1.0625
41697185091,-10.5625,-4.1875,0.75
41697201433,-5.875,-2.875,0.875
41697222498,-3.5625,-0.6875,0.5625
41697244984,-1.8125,0.375,-0.125
41697261447,1.1875,0.0625,-0.6875
41697282474,3.75,-0.75,0.25
41697305076,2.6875,-0.25,0.125
41697321530,2,0.25,-0.25
41697342599,0.9375,0.625,-0.1875
41697365125,0.875,0.3125,-0.4375
41697381600,-1.125,1.25,0
41697402466,-1.5625,1.75,-0.125
41697425028,1.125,0.875,-0.1875
41697441530,2.625,-0.1875,0.1875
41697462559,2,-0.125,0.6875
41697485025,0.5625,-0.6875,0.9375
41697501420,-0.5,-0.375,0.5625
41697522494,-0.125,-1,0.125
41697544969,0.125,-1.5,0.625
41697561423,0.0625,-1.125,0.5
41697582480,-0.125,-0.5625,0.25
41697605015,0.3125,0.375,-0.125
41697621439,0.125,1.25,-0.75
41697642591,1.25,1.3125,-1.625
41697665128,2.0625,0.625,-2.1875
41697681540,1.875,0,-2.125
41697702603,0.6875,-0.0625,-1.5625
41697725090,1.0625,0,-1.0625
41697741496,1.8125,0.5,-0.8125
41697762493,1.375,1.125,-1.6875
41697785040,1.3125,1,-1.875
41697801536,0.9375,0.75,-1.625
41697822459,-0.75,0.5,-1.25
41697844991,-1.625,-0.1875,-1.3125
41697861417,-0.625,-0.75,-1
41697882450,-0.9375,-0.625,-0.6875
41697904996,-1.875,-0.25,-1.125
41697921439,-1,-0.4375,-0.6875
41697942592,0.5,-0.1875,0.375
41697965126,-0.3125,0.4375,0.75
41697981537,0.125,0.375,0.125
41698002581,2,0.5625,-0.625
41698025147,1.5625,0.6875,-1.125
41698041520,1.1875,0.8125,-1.1875
41698064007,0.625,1.5625,-0.4375
41698085024,0.5,1.625,-0.375
41698101435,1.875,0.9375,-0.875
41698124029,2.5,1.0625,-0.4375
41698144968,1.4375,1.0625,0.3125
41698161490,-1,0.4375,0.625
41698183947,-1.1875,-1.125,0.875
41698205110,0.625,-2.25,1.75
41698221522,-1.25,-0.8125,2.75
41698244017,-5.4375,1.9375,2.3125
41698265044,-6.75,4.0625,1.5625
41698281550,-3.4375,3.625,1.875
41698304019,-0.1875,1.5625,2.5625
41698325101,0.625,-0.875,4.125
41698341524,-5.3125,-1.1875,6.1875
41698364017,-14.5625,-0.625,6.625
41698385077,-11,-3.375,4.875
41698401424,-0.125,-11,8.375
41698423948,5.3125,-14.4375,17.9375
41698445004,-2,-14.6875,19.25
41698467533,-1.0625,-20.625,9.25
41698483919,-10.375,-16.9375,-5.1875
41698505004,-26.375,-14.875,-21.75
41698521532,-27.0625,-13.25,-28.625
41698543987,-33.3125,-4.125,-37.5
41698565128,-50.5625,2.9375,-50.25
41698581468,-59.5,6.0625,-56.4375
41698604043,-54.0625,15.625,-53.8125
41698625111,-38.8125,22.375,-46.6875
41698641603,-33.125,24.6875,-37.5
41698664016,-36.75,19.75,-29.875
41698685082,-37.4375,10.375,-23.1875
41698701455,-36.5625,4.5625,-6.25
41698724057,-48.625,10.3125,13.3125
41698745091,-59.875,14.4375,21.5625
41698761483,-53.3125,9.5,23.6875
41698783944,-38.125,5.9375,25.8125
41698804993,-27.0625,5.5625,27.375
41698821451,-19.0625,2.9375,21.75
41698844107,6.625,0.125,15.125
41698865123,14,1.625,14.1875
41698881552,-11.3125,7.8125,14.625
41698904045,-34.5,10.3125,11.9375
41698925125,-21.75,7.625,7.1875
41698941567,13.25,2.8125,3.375
41698964052,20.4375,1.875,5.125
41698985141,-4.5625,3.5,8.5
41699001442,-15.375,5.0625,7.0625
41699024008,-1.375,5,1.875
41699046498,12.125,3.0625,-0.5625
41699061458,9.875,2.8125,1.6875
41699084008,0.9375,5.1875,5.75
41699106514,0.75,6.4375,5.4375
41699120747,4.3125,2.9375,1.9375
41699143282,7.5,-1.375,-0.1875
41699165680,6.1875,-4.125,0.6875
41699182238,3.875,-3.4375,1.875
41699203157,3.5,-3,0.4375
41699225823,-1.6875,-2.875,-1.1875
41699242199,-11.375,-2.6875,-1.8125
41699263251,-13,-3.5,-2.875
41699285763,-4.75,-2.375,-2.8125
41699302135,0.25,-0.4375,-3.4375
41699323248,-2.8125,1,-5.1875
41699345776,-9,-0.875,-5.125
41699362161,-10.75,-2.375,-3.375
41699383318,-4.75,-3.5,-3
41699405738,5.0625,-6,-3.125
41699422137,9.75,-7.625,-3.0625
41699443168,8,-7.3125,-2.5625
41699465705,1.0625,-4,-2
41699482216,-8.375,-1.0625,-1.5
41699503159,-12.4375,0.9375,-1.6875
41699525763,-6.125,0.3125,-1.625
41699542254,4.1875,-0.9375,-1.25
41699563261,6.6875,-1.1875,-0.4375
41699585811,0.75,-1.6875,1.5
41699602088,-6.6875,-2.125,3.4375
41699623242,-9,-3.625,4.625
41699645717,-4.5,-4.25,6.25
41699662172,1.9375,-3.9375,6.8125
41699683185,4.625,-2.625,5.25
41699705697,1.875,-0.6875,4
41699722109,-3.125,0.75,3.625
41699743285,-2.375,0.5,3.5
41699765803,4.3125,-1.25,2.3125
41699782120,10.375,-2.1875,0.8125
41699803233,9.0625,-2.75,0.375
41699825813,2.5625,-3.0625,-0.4375
41699842224,0.6875,-4.25,-1.875
41699863291,5.3125,-5.9375,-3.875
41699885739,12.0625,-7.0625,-6.75
41699902133,15.0625,-7.5625,-9.8125
41699923249,26.25,-12.875,-12.6875
41699945706,28.6875,-14.125,-7.4375
41699961468,19.9375,-14.625,1.875
41699983198,8.1875,-12.4375,11.9375
41700005726,16.8125,-15.625,20.5625
41700021508,59.0625,-26.75,38.875
41700050813,49.1875,-19.6875,70.375
41700065887,6.375,-8.5625,76.1875
41700081536,12.875,-13.1875,57.3125
41700103310,66.3125,-22.8125,48.9375
41700125741,96.125,-17.4375,59
41700141653,57,-6.8125,44.3125
41700164710,23.1875,26.5625,-12
41700185779,12.8125,38.125,-42.75
41700201547,22.9375,34.1875,-40.25
41700224672,42.875,16.4375,-27.5
41700245659,32.4375,-3.8125,-13.75
41700261475,-1,-14.8125,-1.25
41700284604,-34.125,-18.3125,5.625
41700305777,-47.8125,-16.9375,6.6875
41700329652,-44.8125,-14.1875,3.5625
41700344610,-31.6875,-10.875,-2.75
41700365792,-12.75,-9.6875,-5.6875
41700381635,1.5625,-10.1875,-5.125
41700404770,5,-10.1875,-3.125
41700425777,-0.1875,-6.375,-1.1875
41700441587,-7.3125,-1.5625,-0.25
41700464780,-8.8125,2.375,-1.5625
41700485759,-4.3125,3.6875,-4.1875
41700501492,5.6875,4,-5.125
41700524784,14.4375,3.8125,-4.6875
41700545849,16.625,3.3125,-3.9375
41700561558,11.625,2.875,-2.625
41700584654,4.3125,3.25,-1.0625
41700605721,-0.5625,3.9375,-0.4375
41700621453,-1.0625,4.25,-0.4375
41700644667,2.125,2.875,-0.6875
41700665717,5.8125,1.375,-0.6875
41700681508,4.375,0.6875,-0.125
41700704670,-1.4375,1.125,0.5625
41700725816,-5.5625,1.0625,0.625
41700741596,-6.0625,0.1875,0.1875
41700764716,-4.6875,-1.125,-1.125
41700785824,-4.375,-2.125,-1.5625
41700801560,-3.5625,-2.125,-0.8125
41700824749,-2.8125,-1.25,-0.5
41700845789,-3.3125,-0.3125,-0.5
41700861527,-1.9375,-0.375,-0.0625
41700884721,2.3125,-0.75,-0.8125
41700905836,7.5,-1.5625,-1
41700921507,8.125,-0.6875,-0.25
41700943994,3.9375,1.125,0.0625
41700967173,-0.0625,2.125,-1.0625
41700981471,1.1875,1.9375,-1.625
41701003991,4.125,1.625,-1.3125
41701025702,5.4375,1.1875,-1.1875
41701041468,3.875,0.125,-1.875
41701064036,1.8125,-0.3125,-2.0625
41701087166,-0.125,-0.625,-1.625
41701101496,-1.75,-1.125,-1.75
41701124090,-3,-1.125,-1.5
41701147265,-2.6875,-1.5625,-1.625
41701161548,-1.9375,-2.125,-1.125
41701184040,-1.125,-2.125,0.0625
41701207219,-1.375,-2,0.5
41701221616,-1.375,-1.4375,0.5
41701250831,-0.625,-0.625,0.4375
41701267210,0.625,-0.0625,0.6875
41701281523,2,0.4375,1.5625
41701304083,2.75,1.1875,2.0625
41701327186,3.3125,1.6875,1.5625
41701341554,2.375,2.125,1.25
41701364181,2.0625,1.6875,0.9375
41701387254,2.875,1.0625,0.875
41701401503,3.25,0.375,1
41701424087,1.4375,0.5,0.6875
41701447209,-0.25,1,-0.25
41701461531,0.375,1,-1
41701484147,2.25,0.25,-1
41701507227,2.9375,-0.5,-0.3125
41701528200,1.0625,-0.6875,0.1875
41701543998,-1.375,-0.4375,0.3125
41701567149,-0.5,-0.1875,0.1875
41701588209,1.75,0.3125,0.25
41701604038,1.0625,0.25,0.75
41701627189,-0.8125,-0.0625,0.75
41701648282,-1.9375,-0.3125,0.625
41701664024,-2.6875,-0.3125,0.5
41701687286,-2.0625,-0.125,0.4375
41701708312,-0.3125,0.1875,0.125
41701724089,2.3125,0.625,0.1875
41701747196,3.375,1.125,0.125
41701768312,3,1.1875,-0.25
41701784091,1.3125,1.4375,-0.5
41701807269,1.25,1.375,-0.5
41701828285,1.75,0.75,-0.75
41701844103,1.875,0.3125,-0.375
41701866480,1.5,0.75,-0.25
41701888323,1,1.1875,-0.5625
41701904043,0.875,1.3125,-0.6875
41701926622,0.875,1.0625,-0.875
41701948318,0.8125,1,-0.6875
41701964133,0.75,1.8125,-0.375
41701986618,0.8125,2.875,-0.4375
41702008375,0.6875,3.25,-0.625
41702024117,0.9375,3,-0.5
41702046612,1.0625,2.5625,0.875
41702069794,-0.3125,2.0625,1.875
41702084024,-4.1875,2.1875,1.9375
41702106627,-4.5625,1.875,0.0625
41702129772,-1.375,0.875,-1.375
41702144165,-0.8125,0.8125,-2.1875
41702166644,-0.625,1,-1.6875
41702189756,3.4375,-0.125,-1.9375
41702204050,2.875,2.3125,-4.3125
41702226534,1.375,3.1875,-9
41702249673,1.3125,4.3125,-12.0625
41702264013,-0.6875,7.5,-13.6875
41702286566,-4,9.1875,-17
41702309712,-4.9375,7.5,-20.9375
41702330754,-2.1875,5.375,-23.25
41702346538,0.1875,4.1875,-24.625
41702369720,-1.1875,3.4375,-26.8125
41702398370,-9.9375,3.1875,-28.5625
41702406616,-16,2.4375,-28.375
41702429732,-15.5,1.3125,-27.6875
41702450835,-9.5,0.75,-28.1875
41702466611,-6.5625,1.4375,-31.125
41702489693,-7.9375,2.5625,-34.75
41702510806,-6.8125,3.5,-37.6875
41702526718,-7.9375,4.1875,-41.25
41702549780,-15.75,4.8125,-47.5625
41702570875,-24.25,7.8125,-53
41702586617,-28.625,9.6875,-55.875
41702609755,-32.3125,5.125,-55.875
41702630860,-32.0625,0.375,-55.3125
41702646587,-27,5.25,-55.8125
41702669780,-31.4375,12.75,-55.1875
41702690809,-42.5,18.0625,-54.4375
41702706633,-44.4375,20.8125,-51.125
41702729788,-36.9375,21.5,-47.375
41702750810,-29.6875,25.4375,-42.4375
41702766654,-24.875,28.5,-37.625
41702789082,-21.5,25.9375,-30.625
41702810826,-16.0625,24.75,-22.4375
41702826561,-15.5625,28.5625,-18.125
41702849094,-15.75,30.3125,-18.4375
41702870851,-8.375,28.0625,-17.625
41702886658,1.375,25,-10.8125
41702909196,0.625,24.75,-4.4375
41702930829,-3.75,27.9375,-2.6875
41702945820,-6.5,25.9375,-2.1875
41702960117,-13.375,22.25,-1.9375
41702982567,-9.3125,20.125,1.9375
41703005771,5.5,20.9375,9.25
41703020080,17.625,20.1875,11.3125
41703042636,18.6875,20.1875,10.4375
41703065751,12.625,17.875,13.5
41703080112,12.6875,14.625,21.625
41703102634,16.625,13.3125,29.3125
41703125935,12.3125,14.8125,29.4375
41703140191,-0.75,13.75,24.875
41703162698,-8.1875,7.25,24.6875
41703185846,-0.375,2.4375,27.1875
41703200182,6.4375,-2.375,25.8125
41703222779,1.4375,-5.5625,22.875
41703245885,-3.5625,-6.5,21.75
41703260255,-3.5,-7.0625,21.625
41703284138,-1.25,-5.875,17.5
41703305863,-2.625,-3.0625,10.5
41703321607,-7.3125,0,0.9375
41703342717,-13.9375,-0.3125,-4.3125
41703365878,-2.3125,-4.0625,-2
41703380217,14.625,-7.9375,3.4375
41703402635,9.3125,-7.625,5.5625
41703425924,-12.3125,-4.125,6.5625
41703440253,-24.25,-2.4375,7.0625
41703462646,-21.875,-2.375,7
41703485929,-11.4375,-2.4375,6
41703500152,-3.125,-3.625,6.1875
41703522680,-3.625,-3.875,6.875
41703545847,-9.0625,-3.5625,6.5625
41703560172,-11.1875,-2.5,5.5625
41703582690,-9,-1.9375,4.625
41703605849,-6.625,-3.1875,5.625
41703628266,-9.1875,-4.125,7.6875
41703642740,-13.5625,-10.875,5.4375
41703665857,-19.5625,-11.6875,4.375
41703688443,-23.0625,-8.6875,3.8125
41703702669,-19.5,-5,3.1875
41703725766,-13.0625,-3.5625,2.8125
41703740162,-6,-2.25,2.1875
41703762621,-1.875,-1.6875,2.75
41703793958,-4.0625,-0.5625,2.8125
41703800114,-8.25,-0.25,3.125
41703822604,-5.75,-0.0625,2.75
41703845844,-1.875,-0.1875,3.25
41703860091,-0.875,0.875,2.6875
41703882624,0.375,0.625,1.25
41703905779,1.4375,0.5625,0.75
41703920169,0.1875,0.6875,0.4375
41703942720,0.0625,2.0625,0.125
41703965212,2.125,2.125,-0.1875
41703980237,2.9375,2.4375,-0.625
41704002579,3.8125,2.0625,-0.75
41704025128,3.25,0.875,-1.0625
41704040197,2.625,-0.375,-0.875
41704062651,0.25,-0.1875,-0.875
41704085190,-1.9375,0,-1.5625
41704100097,0,-0.125,-0.6875
41704122703,1.25,-0.1875,0
41704145200,1.4375,0,0.125
41704160256,0.9375,-0.1875,-0.25
41704182716,1.1875,-0.6875,0.375
41704206711,-0.375,-0.1875,1
41704220188,-3.6875,0.3125,0.5
41704250890,-1.375,0.1875,0.1875
41704265270,3.125,-0.75,0.5
41704280227,2.9375,0,0.5
41704304144,-1.25,0.625,0.1875
41704325294,-3.625,0.75,0.625
41704340119,-2.9375,0.8125,0.0625
41704362657,-0.125,0.875,-0.625
41704385242,2.6875,0.6875,-0.3125
41704400182,2.1875,0.4375,0
41704422772,-1.1875,0.3125,0
41704445214,-4.625,0.4375,0.1875
41704460173,-2.625,0.3125,-0.0625
41704482652,2.6875,-0.125,-0.25
41704505295,4.125,-0.25,-0.1875
41704520240,1.25,0.125,-0.1875
41704542740,-2.625,0.75,-0.125
41704565173,-2.4375,0.6875,-0.4375
41704580156,0.875,0.375,0.125
41704602622,2.1875,0.0625,-0.25
41704625206,0.5,0.5,-0.0625
41704640248,-1.25,0.6875,-0.0625
41704662719,-0.75,0.8125,0.0625
41704685142,0.6875,1,-0.1875
41704701596,0.6875,0.5625,-0.1875
41704722584,-0.0625,-0.0625,-0.3125
41704753392,-1.3125,0.6875,-0.5625
41704761666,-0.375,1,-0.625
41704782774,2,0.6875,-0.1875
41704805177,2.6875,0.1875,0.4375
41704821657,-0.125,0.9375,0.3125
41704842792,-0.125,1.5,-0.4375
41704865191,2.6875,1.3125,-0.25
41704881646,1.8125,1.25,-0.25
41704902630,-0.5,1,0.0625
41704925212,1.5625,0.375,0.1875
41704941715,4.9375,-0.0625,-0.5
41704970903,4.6875,-0.75,-1.3125
41704985195,1.0625,-1.0625,-1.6875
41705001586,-3.5,-0.1875,-2.125
41705022721,-3.25,0.25,-3.375
41705045262,5.4375,0.125,-2.8125
41705061673,18.25,-2.1875,-2.5625
41705082672,22,-1.9375,-4.125
41705105152,19.8125,-5.875,-4.1875
41705121606,16.625,-4.5,-5.625
41705142661,14.0625,-2.0625,-7.375
41705165137,9.3125,-0.0625,-7.5
41705181610,3.5625,1.4375,-6.875
41705202685,-1.8125,2.3125,-9.125
41705225166,-1.5625,1.625,-15.25
41705241698,0.0625,0,-19.75
41705262712,-0.625,0.5625,-24.125
41705285236,0.9375,0.3125,-28.875
41705301575,2.875,-1.4375,-33
41705322765,-2.375,-2.25,-37.125
41705345250,-9.3125,-3.1875,-42.4375
41705361713,-14.875,-3.8125,-48.8125
41705382686,-17.4375,-4.4375,-57.125
41705405229,-17.6875,-5.5625,-64
41705421699,-14.0625,-6.5,-69.25
41705442733,-10.375,-7.9375,-73.6875
41705465311,-7.625,-9.1875,-80.4375
41705481585,-11.875,-13.0625,-88.625
41705502767,-12.875,-14.5625,-94.5625
41705525302,-9.875,-14.9375,-96.3125
41705541671,-7.125,-13.875,-97.5
41705562703,-11.8125,-13.8125,-100.5
41705585249,-17.6875,-16.3125,-103.062
41705601640,-14.8125,-18.75,-103.312
41705622723,-7.25,-21.1875,-102.062
41705645242,-3,-22.9375,-102
41705661714,-0.25,-21,-99.375
41705684137,-2.6875,-16.8125,-97.25
41705705279,-6.8125,-15.4375,-96.8125
41705721659,-6.1875,-15.6875,-93.625
41705744108,1.25,-15.375,-89.375
41705765227,4.5,-14.5625,-84.4375
41705781657,2.6875,-13.375,-82.5625
41705804199,-0.4375,-13.625,-82
41705825235,-1.5625,-12.625,-78.25
41705841729,3.75,-15.4375,-75.25
41705864184,6.125,-17,-71.1875
41705885224,-0.3125,-16.375,-70.1875
41705901644,-11.875,-16.3125,-70.75
41705924140,-14.125,-18.3125,-68.375
41705945225,-6.875,-19.25,-62.1875
41705961662,-1.875,-18.125,-57.4375
41705984189,-6.5625,-16.125,-54.9375
41706005307,-15.8125,-13.25,-53.25
41706021650,-14.875,-13.6875,-48.375
41706044193,-11.3125,-13,-44.5625
41706065182,-10.25,-11.25,-41.125
41706081669,-13.75,-9.25,-39.875
41706111587,-18.75,-5.375,-42.0625
41706125388,-23.4375,-3.375,-40.125
41706147632,-10,-8.5,-37.875
41706164112,-23.8125,-7.625,-32.375
41706185229,-16,-14.8125,-28
41706201619,-8.125,-10.625,-29.625
41706224237,-22.1875,-5.375,-30.625
41706245226,-26.6875,-5.9375,-29.8125
41706261723,-22.0625,-7.9375,-26
41706284190,-15.25,-7.5,-19.4375
41706305132,-12,-6.875,-17.0625
41706321681,-16.75,-6.4375,-19.625
41706344161,-19.25,-7,-20.25
41706365164,-16.875,-6.625,-16.1875
41706381662,-17.6875,-5.3125,-11.6875
41706404172,-19.5625,-2.9375,-9.375
41706425283,-18.8125,-2.1875,-6.5
41706441644,-16.8125,-3.375,-1.3125
41706464163,-17.5,-3.9375,-1.9375
41706485350,-16.4375,-3.9375,-6.4375
41706501657,-15.25,-3.1875,-9.625
41706524233,-20.5,-1.4375,-10.4375
41706545226,-21.0625,-0.625,-11.3125
41706561732,-17.1875,-0.625,-10.6875
41706584154,-12.875,-0.625,-6.3125
41706606690,-15.75,1.25,-5.9375
41706621712,-18.1875,0,-7.75
41706644240,-17.1875,0.8125,-8.6875
41706666710,-15.625,1.125,-8.625
41706681643,-13.5625,-0.6875,-9.8125
41706704104,-14.3125,0.3125,-10.1875
41706726603,-13.8125,1.5625,-12.1875
41706741619,-13.1875,2.375,-12.25
41706763380,-14.875,2,-12.25
41706785836,-12.75,1.5625,-12.5
41706808323,-13.625,1.75,-15.1875
41706823406,-16.9375,2.125,-17
41706845825,-18,1.75,-16
41706868400,-14.5625,1,-15.9375
41706883423,-10.9375,1.4375,-14.6875
41706905955,-14.4375,3,-12.9375
41706928410,-16.6875,2.8125,-12.625
41706943480,-14.1875,1.375,-12.6875
41706965946,-11.8125,0.375,-11.4375
41706989886,-12.6875,-0.125,-9.875
41707003444,-13.625,0.4375,-10.125
41707025958,-11,0.9375,-9.75
41707042292,-8.75,1.9375,-8.5
41707070899,-8.8125,2,-6.625
41707085951,-9.3125,2.4375,-5.5
41707102428,-7.5,2.25,-4.4375
41707123440,-5.375,1.375,-2.9375
41707145885,-4.3125,1.125,-1.375
41707162313,-6.0625,1.375,-1.25
41707183507,-5.375,0.5625,-1.125
41707205938,-1.4375,0.9375,-0.9375
41707222450,-0.0625,1.625,0
41707243433,-1.625,1.0625,0.4375
41707265915,-2,1,-0.5625
41707282345,-0.125,0.8125,-1.3125
41707303442,1.375,1.6875,-0.5625
41707325896,1.5,0.0625,-0.75
41707342422,2.5625,0.0625,-0.75
41707363414,0,0.375,-0.125
41707385920,-2.375,0.875,1.0625
41707402352,-0.6875,0.25,1.4375
41707423419,1,-2.0625,-0.625
41707445853,1,-1.8125,-0.6875
41707462392,-3.4375,0.3125,0.125
41707483417,-4.1875,0.5,-0.125
41707505892,1.0625,-1.125,0.8125
41707521671,3.8125,-1.9375,1.1875
41707543418,1.75,-1.0625,1.5625
41707565901,-1.8125,0.375,1.9375
41707581613,-1.75,0.0625,1.625
41707603473,-0.5,-0.625,1
41707625870,3.125,-0.875,1.4375
41707641644,5.125,-0.375,2.25
41707663451,1.125,0.0625,2.0625
41707685892,-1.875,0.8125,1.125
41707701674,-2.4375,1,1.5
41707724812,-1.125,0.9375,2.8125
41707745925,0.5,-0.0625,4.6875
41707761664,1.0625,-1.75,6.0625
41707784858,2.375,-2.75,5.75
41707805880,3.75,-3,6.4375
41707821613,6.25,-2.25,7.9375
41707844846,6.9375,-2.375,7.0625
41707865917,5.75,-2.6875,7.125
41707881717,6.0625,-3.5625,7.9375
41707904820,9.0625,-4.625,8.6875
41707925892,11.875,-3.5625,9.125
41707941673,14.875,-3,9.5
41707964811,14.5625,-2.1875,10.3125
41707985904,14,-1.8125,11.4375
41708001680,13.375,-0.875,11.75
41708024825,14.125,0.0625,11.25
41708045877,17.3125,-0.875,10.0625
41708061695,16.5625,-1.5,9.1875
41708084799,17.8125,-0.4375,9.375
41708105817,16.5,3.75,10.875
41708121704,13.375,5.3125,10.375
41708144850,15.375,4.5,9.9375
41708165911,16,4.9375,12.4375
41708181636,10.9375,8.0625,16.8125
41708204813,7.8125,10.1875,18.9375
41708225867,12,8.375,20.25
41708241664,16.8125,7.3125,22.875
41708264855,13.3125,8.25,26.75
41708285893,8.6875,11.875,30.4375
41708308418,9.5625,14.875,33.625
41708324803,18,13.875,38.5
41708345887,25.125,12.5,45.75
41708361642,26.125,15.1875,54.375
41708384894,20.75,18.625,61.125
41708405886,15.0625,19.9375,65.125
41708421702,14,20.375,70.6875
41708444820,15.625,20.8125,78.875
41708465871,21.375,19.625,87.25
41708481688,27.9375,18.3125,90.6875
41708504164,32.1875,17.4375,90.6875
41708525878,31.625,18.5,93.8125
41708541641,25,21.0625,99.25
41708564230,21.6875,22.0625,101.75
41708585868,25.375,21.9375,102.875
41708609830,26.1875,22.5625,104.25
41708624149,20.9375,24.4375,105
41708645883,16.625,24.125,105.125
41708661690,18.5,22.3125,104.875
41708684142,26.375,20.3125,106.188
41708707374,25.25,19.4375,105.375
41708721752,18.9375,19.125,100.812
41708744209,18.6875,17,97.75
41708767354,24.5625,14.6875,96.9375
41708781685,24,14.1875,91.875
41708804156,14.25,13.9375,81.5
41708827357,10.9375,11.875,72.625
41708841657,16.8125,8.5,71.625
41708864220,21.5625,7.1875,72.75
41708887375,14.1875,6.875,67.9375
41708901678,1.5,8.625,61.3125
41708924189,-3.5,9.625,59
41708947366,0.8125,6.8125,59.875
41708968415,8.625,5.5625,59.1875
41708984153,11.3125,7,57.625
41709007352,9.0625,8.1875,56.25
41709028424,5.6875,9,55.875
41709044185,5,8.8125,54.3125
41709067390,8.75,6.625,53.5
41709088410,12.375,6.1875,52.6875
41709104153,11.0625,5.875,50.6875
41709127402,8.5,5.5625,49.375
41709148437,9,5.0625,48.125
41709164196,9.3125,3.8125,46.5625
41709187453,8.5,2.4375,45.0625
41709208525,4.875,1.875,42.5
41709224214,2.5,1.375,39.375
41709247386,4.625,-0.4375,37.3125
41709268449,11.875,-3.25,35.3125
41709284243,16.5,-2.9375,32
41709307411,14.9375,-1.5,26.125
41709328476,13.3125,-0.9375,20.5625
41709344243,9.125,2.625,11.3125
41709367441,-9.8125,7.375,-3.0625
41709388471,-23.4375,6.375,-8.0625
41709404212,-3.9375,5.0625,-5.0625
41709426695,17.3125,2.8125,0.875
41709448542,12.75,1.4375,5.5625
41709464292,0,2.375,11.1875
41709486756,-6,4.4375,10.5
41709508537,-15.625,7.625,4
41709524317,-21.375,8.375,0.125
41709546761,-5.625,7.125,1
41709568437,11.625,4.9375,1.75
41709584264,7.6875,3.875,0.4375
41709606755,-4.8125,6.5625,-0.625
41709629938,-13.625,7.8125,-1
41709644209,-16.75,8.75,-1.25
41709666775,-16.5,8.625,-0.9375
41709689904,-8.125,5,0.0625
41709704241,1.5625,2.125,-0.625
41709726753,-0.1875,2.5,-2.0625
41709749912,-4,3.625,-2.0625
41709764290,-4,1.8125,0.0625
41709786812,-3.4375,0.375,2.5625
41709809938,-7.0625,0.3125,2.9375
41709824219,-14.375,0.5625,1.375
41709846804,-13.375,0.625,0.125
41709869916,-4.6875,-2.25,0.125
41709884229,-2.75,-4.4375,1.375
41709906826,-9.6875,-3.75,1.3125
41709929976,-10.0625,-0.875,0.875
41709944267,-3.875,-0.5,0.6875
41709966822,0.9375,-1.0625,0.8125
41709996004,3.25,-1.3125,0.75
41710004297,6.25,-1.9375,1
41710026787,5.1875,-2.8125,1.5
41710049930,-2.75,-2.6875,1.375
41710064250,-12.3125,-2.0625,0.75
41710086718,-13.0625,-2.0625,0
41710109967,-6.5625,-3.0625,0.375
41710131032,-1.125,-2.5,0.375
41710146778,-0.625,-1.8125,-0.25
41710169994,-2.5,-0.875,-0.875
41710191000,-2.5,-0.375,-0.9375
41710206778,-2.75,0.0625,-0.625
41710229920,-3,0.5,-0.875
41710250957,-2.3125,0.8125,-1.1875
41710274950,-1.5,0.4375,-0.8125
41710289923,-0.5625,-0.1875,-0.5625
41710311013,0.0625,-1.0625,0.4375
41710326761,-0.75,-1.5625,0.625
41710349960,-2,-1.0625,0
41710371007,-2.25,-0.6875,-0.375
41710386815,-1.25,-0.1875,0.375
41710409280,-1.3125,0.0625,-0.0625
41710431021,-0.875,-0.125,-0.5625
41710446745,-0.875,-0.4375,-0.5
41710469209,-0.8125,-1.0625,-0.25
41710492459,-0.125,-1.625,0.125
41710506764,0.1875,-1.3125,0.3125
41710529287,-0.75,-0.9375,0
41710552478,-1.625,-1.3125,-0.3125
41710566801,-3.375,-2,-0.25
41710580385,-4.4375,-2.125,0.375
41710602841,-4.4375,-1.625,0.125
41710626008,-4.6875,-2.0625,-0.25
41710640353,-6.5625,-2.25,-0.1875
41710662881,-3.5625,-1.75,0.1875
41710685991,-1.3125,-1.8125,0.375
41710700388,-4.5,-1.75,-0.75
41710722838,-3.5,-4.375,0.4375
41710746046,4.3125,-5.1875,2.0625
41710760366,6.875,-5.5,1.25
41710782863,3.1875,-6,-2.5
41710805987,1.25,-7.5,-2.3125
41710820361,-0.75,-8.6875,-2.375
41710842895,8.1875,-11.375,-3.75
41710865967,11.4375,-9,-5
41710880286,11.5625,-6.625,-6.875
41710902885,8.125,-7.1875,-9.4375
41710926052,2.6875,-6.8125,-13.625
41710940326,-9.375,-3.375,-15.3125
41710964397,-20.375,2.125,-17.8125
41710986001,-22.1875,5,-22.25
41711001705,-13.9375,6.75,-27.4375
41711022858,-6.4375,8.5625,-32.25
41711045915,-5.9375,9.8125,-35.875
41711060239,-4.0625,10.5,-39.625
41711082766,-4.375,11.375,-43.5
41711105936,-6.5625,10.375,-47.3125
41711120290,-7.5,8.3125,-49.375
41711142840,-5.3125,7.0625,-51.3125
41711166616,-6,6.875,-53.3125
41711180342,-11.9375,7.625,-55.5625
41711202823,-18.25,7.1875,-58
41711225913,-18.25,6.4375,-60.3125
41711240296,-12.5,6.125,-61.125
41711262896,-6,5.25,-61.625
41711285956,-3.625,4.625,-63.75
41711300401,-4.375,4.0625,-66.875
41711322845,-6.1875,2.8125,-69.4375
41711346048,-6.1875,1.625,-68.8125
41711360336,-4.3125,-0.1875,-67
41711382851,-4.3125,-1.9375,-67.625
41711405998,-6.25,-4.0625,-69.6875
41711420368,-7.875,-5.375,-70.8125
41711442884,-6.5625,-8.3125,-70.5
41711466046,-2.125,-11.875,-69.875
41711480261,-0.75,-13.25,-70.25
41711502861,-1.75,-13.0625,-72
41711525300,-5.5,-14.75,-73.0625
41711540407,-8,-16.3125,-73.5
41711562888,-4.9375,-17.4375,-72.6875
41711585389,-2.625,-18.0625,-71.375
41711600396,-3.625,-17.25,-70
41711622874,-7.875,-16,-70.4375
41711645368,-6.25,-15.875,-71.4375
41711660302,-0.125,-16.6875,-71.3125
41711682898,0.25,-15.5,-69.875
41711705378,-5.125,-15.375,-70.25
41711720377,-7.4375,-14.25,-69.875
41711742836,-2,-14.1875,-67.125
41711765408,-0.4375,-14.4375,-64.5625
41711780364,-4.875,-13.6875,-66.25
41711802807,-12.9375,-13.375,-68.9375
41711825326,-10.875,-13.8125,-67.0625
41711840335,-5.0625,-14.875,-62
41711862813,-4.8125,-12.8125,-56.8125
41711886933,-13.5625,-16.8125,-53.1875
41711900354,-16.25,-7.0625,-57.625
41711922876,-17.5625,-18.875,-52.125
41711945385,0.5,-18.1875,-48.4375
41711960442,2.8125,-12.25,-47.4375
41711982848,-3.625,-11.25,-49.0625
41712005366,-13.9375,-15.125,-49.5
41712020387,-15.3125,-13.875,-44.5
41712042873,-11.5625,-14.0625,-41.0625
41712065316,-12.4375,-12.75,-36.1875
41712080389,-17.625,-12.25,-35.0625
41712102796,-20.625,-12.3125,-31.6875
41712125359,-18.1875,-11.875,-30.125
41712140358,-15.5625,-11.3125,-27.1875
41712162906,-12.5625,-10.75,-23.375
41712185392,-13.75,-10.625,-23.375
41712200377,-14.375,-9.625,-26.4375
41712222890,-13.3125,-8.125,-25.4375
41712245442,-10.3125,-6.375,-20.3125
41712261820,-7.5,-7.5,-16
41712282819,-11.6875,-6.375,-16.5
41712305362,-12.9375,-4.8125,-18.6875
41712321779,-12.625,-1.625,-16
41712342876,-12.375,-1.25,-11.125
41712365321,-11.0625,-2.8125,-10.1875
41712381750,-14.0625,-2.75,-10.125
41712402902,-15.0625,-0.875,-5.5
41712433486,-9.9375,2.5625,-2.5625
41712441811,-9.9375,3.5625,-2.6875
41712462865,-18.5,3.9375,-4.875
41712493597,-23.125,2.375,-6.1875
41712501728,-23.5,2.875,-7.6875
41712522889,-22.875,3.375,-12.5625
41712545357,-22.625,3.1875,-14.75
41712561839,-20.1875,2.1875,-16.125
41712582764,-18.4375,0.875,-17.4375
41712605420,-17.0625,-0.375,-17.5
41712621855,-17.9375,-2.125,-13.4375
41712642815,-20.625,-1.5625,-10.3125
41712665310,-25.4375,-0.0625,-9.4375
41712681886,-26.9375,-0.75,-9.25
41712702894,-23.125,-1.875,-7.5
41712725491,-22.125,-1.6875,-5.1875
41712742459,-22.125,-0.8125,-5.625
41712762889,-22.9375,-2,-6.0625
41712785339,-27.875,-0.375,-5.375
41712801765,-31.1875,-0.375,-4.8125
41712822914,-24.0625,-2.1875,-4.6875
41712845418,-16.5625,-1.75,-7.5
41712861799,-13.3125,-2.375,-10.9375
41712882865,-12.5,-2.3125,-12.375
41712905353,-13.75,-2.0625,-12.125
41712921835,-14.4375,-1.25,-10.1875
41712942954,-15.9375,-1.125,-8.0625
41712965468,-13.625,0.5,-6.9375
41712981812,-11.9375,0.5625,-5.6875
41713002934,-11,0.1875,-5.125
41713025493,-7.9375,-0.25,-4.875
41713049377,-4.625,0,-3.875
41713062827,-6.1875,1,-3.0625
41713085339,-5.125,0,-1.8125
41713101801,-1.375,-1.0625,-0.8125
41713122874,-1,-1.9375,-0.5
41713145397,-0.1875,-1,-0.75
41713161881,2.6875,-1.1875,-1.1875
41713182872,2.625,-0.9375,-0.375
41713205426,2.0625,-0.4375,0.8125
41713221854,3.25,-0.0625,0.125
41713244345,2.6875,-0.1875,0.1875
41713265399,1.875,0.875,1.8125
41713281864,1.0625,2.625,2.1875
41713304389,3.9375,0.5,0.9375
41713325503,5.5625,-1.375,0.9375
41713341771,5.125,-2.125,2.5625
41713364318,4.625,-1.75,3.875
41713385409,4.25,-2.4375,5.4375
41713401845,5.125,-3.25,5.75
41713424307,8.375,-4.625,6.5625
41713445385,10.75,-4.6875,8.125
41713461791,9.6875,-4.375,8.5
41713484373,8.1875,-4.8125,7.125
41713505409,9.25,-5.125,8.0625
41713521853,10.9375,-3.75,10.0625
41713544286,15.0625,-2.9375,13.625
41713565452,21.3125,-3.6875,19.3125
41713581808,32.25,-6.25,18.1875
41713604274,37.625,-9.25,14.5
41713625451,34,-8.8125,12.3125
41713641798,23.5,-5.625,11.1875
41713664463,14.25,-3.5625,8.375
41713685480,16.875,-3.9375,7.6875
41713701857,20.375,-1.5625,10.375
41713724380,19.75,2.375,12
41713745446,17.0625,2.6875,11.8125
41713761817,18.875,0.5625,13.375
41713784305,22.125,0.9375,17.75
41713805459,21.5625,5.9375,17.3125
41713827955,17,9.1875,14.9375
41713844398,14.5625,10.4375,11.125
41713866874,15.3125,8.375,10.8125
41713881912,12.5625,8.4375,14.5
41713904335,7.75,11.125,18.9375
41713925491,2.8125,11.5,19.5625
41713941878,6.5,9.625,20.6875
41713964378,14.5,8.0625,26.0625
41713985480,15.1875,10.1875,32.125
41714001857,19.75,12.8125,37.3125
41714024352,19.4375,17.25,41.5
41714045454,14.125,20.625,44.25
41714061867,8.625,22.9375,49.0625
41714084393,7,26.1875,55.125
41714105429,6.4375,28.875,60.875
41714121823,6.3125,29.625,63
41714144363,12.875,27,64.9375
41714167443,20.3125,24.25,70.6875
41714181837,26.25,23.125,79.375
41714204286,25.875,22.6875,86.625
41714226854,24,21.875,88.75
41714243360,29.5625,20.0625,90.6875
41714264328,31.9375,20.875,96.3125
41714293601,27.3125,23.25,98.875
41714301878,23.75,26.1875,97.25
41714324339,26.875,24.125,98.25
41714346812,27.875,21.25,102
41714363336,29.9375,19.875,106.438
41714384347,26.875,21.0625,109.375
41714406106,20.625,22.1875,110.188
41714428513,18,18.875,109
41714443637,15.375,15.875,105.75
41714467467,15.5625,14.3125,101.875
41714488479,20.375,14.125,102.062
41714503512,24.25,11.25,101.375
41714526004,23.0625,13.5,94.5
41714548487,18.5625,11.3125,84.75
41714563519,16.6875,8.5625,76.75
41714586034,24.1875,7.375,77.75
41714608498,26.25,10.4375,75.375
41714623490,13.1875,12.5,67.0625
41714646023,-2.5,11.75,58.0625
41714668562,-4,5.25,57.25
41714683474,7.625,2.5,58.3125
41714706164,14.8125,3.1875,56.875
41714728650,11.625,5.5625,51.0625
41714751033,2.0625,6.6875,44.125
41714766066,-3.9375,5.5,41
41714789976,3.6875,3.25,41.375
41714803583,12,2.375,41.4375
41714826107,10.625,2.9375,36
41714848488,4.1875,3.125,29.3125
41714863627,5.25,2.1875,27.0625
41714886070,10.3125,0.9375,28.4375
41714908580,11.375,1.125,28.4375
41714923590,6.1875,2.25,26.75
41714946094,1.125,1.9375,25.375
41714968631,0.9375,0.8125,25.25
41714991130,1.25,0.375,24.375
41715006143,-1.125,0.4375,22
41715028618,-4.875,0.9375,19.6875
41715043623,-4,0.625,20
41715066072,1.5625,-3.625,20.9375
41715088654,0.125,-5.25,19.4375
41715103623,0.9375,-3.6875,18.1875
41715126170,5.6875,-0.8125,17.8125
41715148525,7.75,3.0625,11.375
41715163632,2.5625,8.625,-0.6875
41715186118,-18.4375,4.75,-6.0625
41715208639,-16.0625,0.4375,-3.0625
41715223655,-0.625,-2.625,4
41715246100,2.25,-4.5625,5.5
41715261879,-9.25,-3.5625,3.8125
41715284974,-19.875,-4,1.25
41715306092,-22,-3.8125,2.4375
41715321929,-22.5,-4.0625,3.5
41715345062,-21.25,-5.25,3.9375
41715366095,-23.375,-6.375,4.4375
41715381848,-30.8125,-9.5,4.75
41715405004,-39,-12.125,4.375
41715426089,-44.75,-14.875,3.9375
41715441956,-42.0625,-18.0625,3.875
41715465104,-36.5625,-18.5,5.5
41715486174,-35.1875,-17,6.5625
41715501819,-39.5625,-17.3125,4.75
41715525070,-36.6875,-17.75,4.5625
41715546127,-33.25,-15.8125,5.625
41715561838,-32,-11.75,5.125
41715585098,-26.6875,-8.8125,3.5625
41715606168,-15.25,-5.4375,3.6875
41715621938,-4.5625,-2,3.375
41715645055,-4.4375,0.5,1.0625
41715673653,-5.0625,0.1875,-1.0625
41715681822,-3.375,-2.125,-1.5625
41715705080,-2.9375,-3.625,-1.5625
41715726139,-7.375,-4.6875,-2.5
41715741897,-12.8125,-4.6875,-2.8125
41715765063,-13.25,-4.6875,-2.0625
41715786068,-9.0625,-5.1875,-1.1875
41715801839,-5.0625,-3,0.75
41715825055,-0.375,-0.875,0.875
41715846163,4.4375,-0.4375,0.5625
41715870051,5.3125,-0.75,0.3125
41715885044,1.5625,-0.125,-0.4375
41715906088,0.375,0.4375,-1.25
41715921918,-0.5,0.3125,-1.6875
41715945034,-3.4375,0,-2.0625
41715966179,-6.3125,0.1875,-1.625
41715981793,-7.1875,-0.1875,-1.125
41716004993,-6.6875,-0.9375,-1.6875
41716026111,-3.875,-0.375,-1.75
41716041907,-0.6875,0.375,-1.3125
41716064447,1.25,-0.6875,-1.3125
41716086183,0.875,-0.25,-1.1875
41716101930,0.1875,0.625,-0.5
41716124488,0.5,1,-0.25
41716147565,3.1875,-0.0625,0.0625
41716161885,2.4375,0.5625,-0.75
41716184424,1.375,-0.1875,-1.0625
41716206107,4.1875,-1,-1.125
41716221823,6.75,0.6875,-0.9375
41716244358,5.625,2.75,-0.75
41716267510,5.625,2.5,-1.25
41716281832,3.1875,-0.5,-1.0625
41716304404,-2.0625,-1.25,-1.1875
41716327542,-4.25,0.4375,-1.5
41716341885,0.1875,1.1875,-1.875
41716364448,6.4375,1.125,-1
41716387575,2,0.625,-0.625
41716401909,-5.4375,1.4375,-0.8125
41716424417,-6.875,2.375,-0.625
41716447581,-1.9375,2.375,-0.6875
41716461969,4.375,0.8125,-0.9375
41716485830,1.625,0.1875,-1.25
41716507553,-6.125,0.0625,-1.6875
41716521881,-7,0.5625,-1.25
41716544507,-3.125,-0.8125,-0.875
41716567589,1.875,-2.4375,-0.875
41716581881,3.9375,-2.75,-0.875
41716604456,0.25,-1.0625,-0.375
41716635087,-2.8125,0.8125,-0.3125
41716641923,-1.0625,2,-0.5
41716664436,1.5,0.75,-0.125
41716687610,2.9375,-0.6875,-0.5
41716702398,2.625,-0.1875,-0.1875
41716724465,0.875,0.0625,-0.625
41716747562,-0.25,-1.5625,-2
41716768659,-1.375,-0.875,-1.25
41716784451,-1.375,0.625,0
41716807590,-3,1.8125,-0.0625
41716828685,-3.6875,1.9375,0.125
41716844477,-1.0625,1.4375,0.25
41716867525,1.1875,-0.0625,0.125
41716888644,0.3125,0,0.4375
41716912570,-0.4375,1.1875,1.5
41716927570,3.1875,1.5625,2.4375
41716948594,7.9375,2.3125,2.875
41716964448,9.5625,4.5625,1
41716987544,16.875,3.9375,-0.625
41717008704,22.1875,3.75,-1.5625
41717024423,20.0625,2.375,-3.875
41717048397,33.9375,-0.125,-4.625
41717068659,50.5625,-1.875,-10.0625
41717084494,51.3125,-6.6875,-15.625
41717106919,43.4375,-2.4375,-27.625
41717128667,21.5625,4.5625,-30.8125
41717144473,-6.875,5.9375,-25.875
41717166913,-18.6875,-0.3125,-22.5
41717190070,-13.4375,-7.3125,-22.5625
41717211235,-6.1875,-14.8125,-27.3125
41717226961,-8.3125,-20.5,-33.0625
41717250046,-16.0625,-24.1875,-31.5
41717264473,-12.875,-27.5,-26.75
41717286901,-11.125,-34.25,-24.375
41717310067,-18.5625,-42.125,-24.375
41717324440,-22.75,-48.9375,-20.9375
41717346977,-12.5,-51.375,-10.8125
41717370115,-2.25,-56.25,0.625
41717384447,-1.75,-61.75,6.6875
41717406939,-27.4375,-67.0625,7.5
41717430076,-53.875,-70.5,5.5625
41717444453,-59.625,-71.1875,4.8125
41717466858,-51.9375,-71.25,5.4375
41717490590,-46.1875,-72.8125,4.875
41717511218,-50.25,-73.25,3.3125
41717526902,-54.4375,-71.875,1.5
41717550088,-55.125,-71.1875,0.875
41717571079,-53.75,-71.9375,1.125
41717586900,-48.9375,-74.4375,0.25
41717610116,-43.25,-72.875,-0.4375
41717631156,-34.4375,-69.625,-1.6875
41717646973,-39.4375,-64.375,-1.8125
41717670126,-52.375,-55.5625,0.125
41717691196,-68.3125,-49.5,-1.6875
41717706943,-87.1875,-44.875,-5.75
41717730077,-103.188,-36,-6.25
41717751203,-122.75,-31,-8.25
41717766960,-134.188,-35.0625,-7.9375
41717790024,-95.6875,-46.5625,-6.625
41717811172,-27.375,-53.5625,-11.5625
41717826957,-2,-51.875,-14.9375
41717850105,-23.8125,-47.4375,-14.75
41717871200,-47,-45.1875,-13.8125
41717886973,-42.6875,-43.75,-12.375
41717910142,-26.6875,-42.1875,-14.0625
41717931134,-23.125,-41.1875,-15.4375
41717946969,-24.5,-39.25,-15.75
41717969442,-20.625,-36.625,-13.5
41717991130,-13,-30.6875,-8.5625
41718006932,-2.625,-18,-3.6875
41718029467,6.0625,-6.75,-0.625
41718051160,10.375,-0.375,1.25
41718066897,9.9375,1.8125,3.0625
41718089388,8.625,0.4375,2.3125
41718111198,7.125,-4.3125,-0.875
41718126936,6.875,-9.75,-2.0625
41718149462,-0.75,-11,-1.3125
41718178667,-5.5,-10.8125,-2.3125
41718186956,-2.9375,-12.125,-3.25
41718209471,-2.1875,-15.375,-3.875
41718222974,-2.5625,-16.1875,-3.25
41718246099,-7.125,-13.1875,-1.5625
41718260468,-9.375,-9.5625,-1.75
41718282996,-5.25,-7.8125,-3.375
41718306180,-2.125,-9.875,-3.5
41718320512,-6.5625,-11.125,-2.125
41718342995,-10,-9.625,-2.6875
41718366115,-8.5625,-6.9375,-3.875
41718380544,-6.6875,-6,-4.5
41718403055,-5.375,-6.25,-3.375
41718426186,-7.5,-5,-1.75
41718440560,-4.25,-3.3125,-1.5
41718463006,1,-1.375,-1.6875
41718486225,1.3125,-1.875,-2.75
41718500523,-1.9375,-3.375,-2.1875
41718522935,-3.3125,-2.9375,-1.25
41718546152,-0.125,-1.125,-0.75
41718560479,2.75,-0.25,-1.125
41718583024,2,-0.4375,-1.6875
41718606189,-2.125,-0.5625,-0.75
41718620498,-3.375,-0.25,-0.8125
41718642988,2.625,0.375,-0.6875
41718666208,6.0625,0.125,-0.4375
41718680561,2.375,-0.8125,-0.25
41718703071,-2.625,-0.5625,-0.1875
41718725919,-0.875,-0.375,0
41718740514,4.5,-0.0625,0.25
41718763027,4.5625,-0.25,0.125
41718786193,1,-1,0.125
41718800480,-1.4375,-1,0.3125
41718823064,0,-0.9375,0.0625
41718846175,2.5625,-0.875,-0.25
41718860527,3.125,-0.625,0.25
41718882972,0,-0.9375,0.5
41718906154,-0.5,-1,0.375
41718920544,1.625,-0.3125,0.1875
41718943075,1.75,-0.125,-0.0625
41718966248,-0.75,-0.4375,-0.625
41718980621,-2.125,-1,-0.3125
41719002962,-1.375,-0.8125,-0.3125
41719026112,-0.25,-0.375,-0.25
41719040457,0.5,-0.625,-0.4375
41719062990,0.6875,-1.125,-0.375
41719094317,-1.6875,-1,-0.4375
41719100582,-1.25,-0.5625,-0.5
41719123097,1.8125,0.375,-0.3125
41719145464,2.9375,0.375,0.0625
41719160489,2.125,0.1875,0.0625
41719183056,-0.625,0.0625,-0.0625
41719205495,0,0.0625,-0.375
41719220462,1.625,0.375,-0.5
41719242883,2.0625,0.375,-0.375
41719265464,1.5,0.0625,-0.125
41719281862,-1.4375,-0.4375,-0.1875
41719305823,-2.9375,-0.625,-0.4375
41719325458,-1.125,-0.4375,-0.25
41719340452,2,-0.75,-0.25
41719362982,2,-0.75,0
41719385480,-0.8125,-0.75,0.1875
41719400499,-3.25,-0.625,-0.125
41719422926,-1.0625,-0.375,-0.625
41719445511,2.9375,-0.875,-0.3125
41719460562,2.8125,-1.25,0.375
41719483073,0.75,-1.25,1.125
41719505546,0.0625,-0.8125,0.875
41719520555,0.3125,-0.125,0.1875
41719542975,1.375,0.0625,-0.375
41719565459,0.9375,-0.125,-0.25
41719580488,-1.125,-0.25,0.25
41719602972,-0.1875,-0.375,0.25
41719625559,2.125,-0.1875,0.25
41719640625,2.375,0.0625,0.25
41719662990,0.6875,-0.125,0.25
41719685504,-0.0625,-0.375,0.3125
41719700569,0.25,-0.25,0.6875
41719723007,1.375,-0.3125,0.125
41719745605,0.6875,-0.4375,-0.4375
41719760556,-1.3125,-0.5,-0.6875
41719782955,-1.875,-0.75,-0.375
41719805518,-0.0625,-1,0.0625
41719820573,1.375,-0.875,0.375
41719843087,0.6875,-0.625,0.4375
41719865523,-0.9375,-0.9375,-0.0625
41719881908,-1,-0.6875,-0.4375
41719903002,-0.3125,-0.5625,-0.125
41719925604,0.25,-0.375,0.125
41719941935,1.5625,-0.375,0.4375
41719963092,-0.3125,-0.5625,0.375
41719985537,-1.1875,-0.75,0.0625
41720001904,1.5625,-0.25,0.5625
41720022960,3.4375,0,1.0625
41720045469,0.75,0.125,0.8125
41720061950,-2.125,0,0.25
41720083048,-1.4375,0.125,-0.5
41720113685,1.4375,0.125,-0.375
41720122021,2.3125,-0.125,0.0625
41720143013,0.3125,-0.25,-0.0625
41720165569,-2.3125,-0.3125,-0.25
41720181986,-1.9375,-0.375,-0.6875
41720202975,0.8125,-0.3125,-0.3125
41720225538,1.0625,-0.3125,0.125
41720242032,0,-0.5625,0.375
41720263037,-0.125,-0.5,0.5625
41720285603,0.4375,-0.25,0.5
41720309461,0.6875,0.0625,0.1875
41720323035,1.1875,0,0.3125
41720345591,0.4375,-0.25,0.1875
41720361939,0.25,-0.9375,0.125
41720383098,-0.5,-1.5,-0.25
41720405478,-1,-2,-0.8125
41720421960,1.1875,-1.9375,-0.6875
41720443025,0.8125,-1.1875,0.25
41720465520,-1.4375,-0.75,0.5625
41720482044,-0.25,-0.4375,0.875
41720502940,0.75,-0.0625,0.625
41720525617,-0.375,0.1875,0.4375
41720542011,-0.625,-0.25,0.4375
41720563071,0.0625,-1,0.5625
41720585551,0.375,-1.75,0.625
41720601987,-0.6875,-2,0.5
41720623089,-0.75,-2,0.5
41720645557,-0.3125,-1.8125,0.9375
41720662024,-0.1875,-1.875,1.3125
41720683079,0.3125,-1.5625,1
41720705565,-0.9375,-1.0625,-0.3125
41720721993,-1.5,-0.6875,-0.8125
41720743077,0,-0.4375,-0.5
41720765587,1.5,-0.375,0.25
41720781953,2.375,-0.4375,0.625
41720804551,1.125,-0.25,-0.0625
41720825540,-0.9375,-0.1875,-0.8125
41720842029,0.0625,-0.25,-0.6875
41720864533,2,-0.4375,0.125
41720885628,1.25,-0.4375,0.5
41720901989,0.3125,-0.4375,0.3125
41720924547,2.8125,-0.1875,0.4375
41720945517,1.75,0.3125,0
41720961998,0.4375,1.375,-0.3125
41720984642,0.4375,1.5625,-0.0625
41721005604,1.5625,1.75,0.125
41721022652,3.3125,1.8125,0.375
41721044575,5.625,1,0.125
41721065601,2.125,0.6875,0.0625
41721082051,-1.5,0.0625,-0.125
41721104525,-0.625,-0.25,-0.875
41721125535,1.25,0.25,-0.5625
41721142055,1.25,0.5,-0.5625
41721164513,0.125,0.5625,0.125
41721185546,-0.4375,0.5625,-0.375
41721201942,-0.125,0.5,-0.125
41721224480,0.875,0.625,0.125
41721245538,1.3125,0.75,0.625
41721262085,1.4375,0.4375,0.75
41721284500,1.1875,-0.0625,0.4375
41721305608,0.8125,-0.25,0.0625
41721322012,0.5,-0.375,-0.375
41721344455,-1.3125,-0.375,-0.375
41721365622,-0.625,-0.5,-0.8125
41721382006,1.625,-0.625,-0.1875
41721404491,0.875,-0.25,-0.0625
41721425595,-1.0625,0.1875,-0.25
41721442011,-0.25,0.375,-0.25
41721464542,1.25,0.5625,-0.3125
41721485575,1.3125,0.4375,-0.3125
41721501977,-0.4375,0.3125,-0.0625
41721524528,-0.5625,0,-0.1875
41721547036,0.25,0,-0.0625
41721562053,-0.625,-0.0625,-0.3125
41721584472,-0.75,-0.375,-0.4375
41721605554,-0.875,-0.5,-0.125
41721628101,-0.375,-0.6875,0.0625
41721652011,0.0625,-0.6875,0.1875
41721665567,0.125,-0.3125,0.125
41721682046,0.6875,-0.625,-0.125
41721704519,-0.75,-0.6875,-0.3125
41721725565,-0.8125,-0.5625,-0.1875
41721742022,1.5,-0.4375,0.5625
41721764496,1.4375,-0.25,0.8125
41721787018,1.125,0.125,0.25
41721801962,0,0.125,-0.1875
41721824540,-1.25,-0.375,-0.3125
41721846975,-0.25,-0.5625,0.0625
41721862037,0.9375,-0.375,0.5
41721884429,0.8125,-0.25,0.4375
41721907000,0.5,-0.3125,0.25
41721928108,-0.25,-0.75,-0.0625
41721944525,-1.4375,-0.875,-0.0625
41721973137,-1.3125,-0.6875,0
41721983421,-0.1875,-0.5625,0.125
41722004538,-0.3125,-0.5625,0.125
41722027011,-0.875,-0.625,0
41722042042,-0.4375,-0.4375,0.25
41722063833,-0.3125,-0.25,0.3125
41722086228,0.375,-0.25,0.125
41722102025,0.0625,-0.25,0.375
41722123742,-0.5,-0.0625,0.5
41722146290,-0.0625,-0.375,0.125
41722168726,0.5,-0.25,0.1875
41722183756,0.625,-0.1875,0.1875
41722206240,0.9375,-0.25,0.0625
41722221976,0.0625,-0.125,-0.125
41722251238,-0.75,0.375,-0.1875
41722266262,0.1875,0.125,0.125
41722282020,1.5625,0.125,0.3125
41722303714,0.6875,-0.125,0.125
41722326255,-1.0625,-0.0625,0.125
41722342018,-0.4375,0,0.0625
41722363740,1.625,-0.0625,0.125
41722386219,1.5625,-0.1875,0.375
41722401929,-1,-0.4375,0.1875
41722431263,0.0625,-0.375,0.4375
41722446213,2.875,0.0625,0.875
41722468723,2.6875,0.625,0.6875
41722483668,0.25,0.6875,0.1875
41722506200,0.0625,0.3125,0.4375
41722521991,1.25,0.1875,0.375
41722543716,2,0.375,0.8125
41722566231,2,0.375,1.125
41722581972,2.4375,-0.125,1.3125
41722603729,1.0625,-0.25,0.8125
41722626199,-0.3125,-0.5,0.3125
41722641979,-0.3125,-0.375,0.625
41722663722,1.0625,-0.4375,0.4375
41722686183,0.875,-0.875,0.125
41722701946,-1.6875,-1.125,-0.125
41722723697,-2.0625,-1.1875,0
41722746200,-0.8125,-1.25,0.125
41722762002,0,-1.5625,0.375
41722783666,0.0625,-1.1875,0.5625
41722806155,0,-1.125,0.5
41722821933,-0.9375,-0.9375,0.3125
41722843718,0,-0.8125,0.3125
41722866177,1,-0.5625,0.3125
41722881961,0.5,-0.25,0.3125
41722905148,0.4375,-0.3125,0
41722926223,0.1875,-0.25,-0.0625
41722942012,0.125,-0.625,-0.1875
41722965124,-0.6875,-0.9375,0
41722986153,-0.8125,-1.25,0
41723001985,-1,-1.25,0.0625
41723025187,-0.25,-1.0625,0.125
41723046212,0.125,-1.125,0
41723061997,-0.625,-0.875,0
41723085108,-0.625,-0.6875,-0.0625
41723106203,-0.75,-0.3125,0.1875
41723121983,-0.375,-0.5,0.125
41723145155,0.8125,-0.5625,0.3125
41723166217,0.5625,-0.75,0
41723182024,-0.25,-0.875,0.0625
41723205180,-0.3125,-0.75,0.0625
41723226218,-0.0625,-0.9375,0.3125
41723241974,0.1875,-0.9375,0.375
41723265136,0,-1,0.1875
41723286264,-0.1875,-1.25,0
41723301977,-1.125,-1.625,0.6875
41723325156,0.375,-0.875,0.4375
41723353713,0.5,-0.625,-0.0625
41723361967,1.4375,-0.375,0.375
41723385875,2.125,-0.3125,0.5625
41723406259,0.9375,-0.5,0.125
41723422029,-0.25,-0.4375,-0.125
41723445145,-0.4375,0,0.125
41723466227,0.9375,0,0
41723481962,0.875,-0.125,-0.1875
41723505137,0,0.0625,-0.125
41723526197,-0.875,0.25,0
41723542030,-0.625,0.4375,-0.25
41723565153,1.125,0.375,0.1875
41723586190,2.3125,0.5625,0.375
41723601972,0.375,0.75,0.125
41723624473,-0.875,0.6875,-0.25
41723646204,0.3125,0.5625,-0.125
41723661974,1.25,0.5625,-0.375
41723684460,1.25,0.5,-0.1875
41723706217,-1.125,0.4375,0.0625
41723721949,-2.125,0.125,-0.5625
41723744442,0.125,0.125,-0.375
41723766217,1.5,-0.0625,0.0625
41723781994,-0.4375,0,-0.0625
41723804507,-1.375,-0.125,-0.3125
41723827670,-0.375,-0.125,-0.0625
41723842026,0.4375,0,-0.0625
41723864513,-0.375,0.125,-0.125
41723887687,-0.5,0.0625,-0.0625
41723901979,0.0625,-0.0625,0.1875
41723924478,-0.125,0,-0.25
41723947692,-0.875,0,-0.375
41723962016,-0.625,-0.1875,-0.375
41723984509,0.0625,-0.3125,-0.3125
41724007670,0.375,-0.4375,-0.25
41724021980,-0.625,-0.1875,-0.125
41724044479,-1.125,-0.0625,-0.125
41724067626,0.9375,0,-0.0625
41724082010,0.6875,-0.5,0.25
41724104498,0.8125,0,0.4375
41724127714,-0.125,0.625,0.125
41724142071,1.4375,1.0625,0.3125
41724164524,2.875,1.3125,-0.1875
41724187495,-1.375,1,-0.5625
41724202011,-1.1875,0.625,-0.4375
41724224565,0.875,0.25,-0.375
41724247697,1.125,0.125,-0.125
41724262092,1.25,0.0625,0.1875
41724284588,0.3125,0.1875,-0.3125
41724307713,0.5,0.375,-0.375
41724322094,1.4375,0.625,-0.125
41724344579,0.9375,0.625,0.3125
41724367778,0.5,0.6875,0.375
41724388856,0.3125,0.5625,0.25
41724404541,0.25,0.4375,-0.5
41724427694,0.4375,0.3125,0
41724448753,0.625,0.125,0.0625
41724464484,-0.4375,-0.125,-0.1875
41724487668,-0.5625,-0.1875,-0.1875
41724508777,0.4375,0,0
41724524632,0.3125,-0.1875,-0.0625
41724547719,-0.8125,-0.0625,-0.375
41724568813,-0.1875,-0.125,-0.25
41724584614,-0.1875,-0.0625,-0.5
41724607022,-1.1875,-0.25,-0.3125
41724628800,-0.125,-0.1875,0.125
41724644547,0.9375,0,0.125
41724667066,0,0.1875,-0.125
41724688740,-0.0625,0.125,0.1875
41724704566,0.625,0.125,0.125
41724727079,0.875,0.0625,0
41724748758,1.0625,-0.125,0.0625
41724764618,-0.25,-0.1875,0.625
41724787076,-0.5,-0.625,0.1875
41724810232,-1,0,0.125
41724824626,2.4375,0.0625,0.5
41724847052,2.5,0.125,0.5625
41724870291,-0.0625,0.4375,-0.125
41724884592,-0.1875,0.375,0.0625
41724907082,0.9375,0.25,-0.125
41724930210,0.4375,0.375,-0.4375
41724944603,-0.5,0.625,-0.5
41724967287,-0.0625,-0.125,-0.5625
41724990271,-0.8125,-0.625,-0.125
41725004610,-0.1875,-0.625,-0.125
41725027120,-0.6875,-0.1875,0.125
41725050307,-0.1875,-0.125,-0.375
41725064646,0,0,-0.5
41725087075,-0.5625,-0.0625,-0.5
41725110262,-1.5,-1.625,0.6875
41725124557,1.375,-0.5,1.0625
41725147064,0.625,-0.0625,-0.125
41725170284,0,0.5,0.0625
41725184571,1.25,0.375,-0.1875
41725207109,0.0625,0.5,-0.3125
41725230216,-1.1875,-0.375,-0.875
41725251294,-0.6875,-0.25,-0.1875
41725267054,0.875,-0.5625,-0.4375
41725290245,-0.3125,-0.25,-0.25
41725311977,-1.1875,0.125,0
41725327050,-0.25,0.1875,-0.0625
41725350232,0.75,0.125,-0.375
41725371321,0.25,0.25,0.1875
41725387087,-0.25,0,0.25
41725410259,-1.25,-0.25,0.125
41725431359,-1.0625,-0.375,-0.3125
41725447068,-1.0625,-0.4375,-0.125
41725470291,-0.625,-0.5625,-0.0625
41725491259,0.375,-0.5625,0.25
41725507151,0,-0.375,0.125
41725536267,-1.25,-0.25,-0.0625
41725551243,-1.5625,-0.1875,-0.25
41725567041,0.5625,-0.25,-0.125
41725589588,1.6875,-0.125,0.1875
41725611315,-0.0625,0,0.25
41725627093,-0.6875,0.125,0
41725649737,-0.0625,0.125,-0.1875
41725671220,0.5,0,0.25
41725687051,0.9375,-0.125,0.1875
41725709529,0.0625,-0.1875,0.0625
41725732685,-0.3125,-0.0625,0.0625
41725747023,0.1875,-0.0625,0
41725769536,0.3125,-0.1875,0.125
41725792670,-0.875,-0.125,0
41725806998,-0.9375,-0.25,-0.1875
41725829551,1.3125,-0.1875,0.125
41725852703,1.3125,-0.125,0.3125
41725867063,-0.875,0.0625,-0.125
41725880631,-1.625,0.25,-0.5
41725903146,0.0625,-0.125,-0.125
41725926408,1.1875,0,0.0625
41725940751,1.25,0.25,0.25
41725963229,1.125,0.3125,0.25
41725986370,0.125,0.5,-0.0625
41726000644,-2.1875,0.1875,-0.75
41726023171,-1,-0.0625,-0.375
41726046420,1.9375,-0.125,0.25
41726060628,0.5,-0.0625,-0.1875
41726083134,-2.125,-0.25,-0.5
41726106270,-1.4375,-0.125,-0.0625
41726120668,0.875,-0.3125,0.0625
41726143147,-0.0625,-0.3125,0
41726166354,-1.3125,-0.875,0.3125
41726180700,2.5625,-0.5,0.625
41726203105,2,-0.4375,0.125
41726226340,0.5,-0.25,-0.3125
41726240735,0.875,0,0.1875
41726263228,0.6875,-0.1875,-0.0625
41726286331,0.75,0,-0.125
41726300723,-0.125,0.1875,-0.0625
41726323133,-0.75,0.25,-0.125
41726346323,0.1875,0.1875,-0.3125
41726360651,0.8125,0.25,-0.0625
41726383202,0.1875,0.3125,0.125
41726406344,0.0625,0.1875,0.3125
41726420724,-0.5625,0.25,0.1875
41726443175,0.0625,0.25,0
41726466358,1.125,0.1875,-0.1875
41726480712,0.3125,0.4375,-0.1875
41726503142,0.1875,0.5,0
41726525791,0.25,0.0625,0.0625
41726540657,-0.3125,-0.125,-0.1875
41726563209,0.25,0.0625,-0.25
41726586290,-0.4375,0.1875,-0.375
41726600677,-1.25,0,-0.1875
41726623149,0.9375,0.125,0.1875
41726646466,2.0625,0.1875,0.625
41726660767,0.5625,0,-0.0625
41726683178,-1.75,-0.1875,-0.5
41726705710,-1.1875,-0.125,-0.3125
41726720658,0.8125,-0.125,0
41726743231,0.6875,-0.0625,0
41726765646,-1,-0.25,-0.375
41726788872,-1.4375,-0.375,-0.5
41726803126,-0.3125,-0.375,-0.3125
41726825710,0,-0.25,-0.125
41726840682,0.125,-0.3125,0.5625
41726863174,-1.0625,-0.625,0.0625
41726885765,-2.8125,0.25,-0.1875
41726900714,0.4375,0.8125,0.375
41726923193,2.875,1.1875,0.5
41726945653,2.375,1.125,0.1875
41726960729,0.3125,1.0625,-0.5625
41726983177,-1.0625,0.4375,-1.125
41727005712,0.0625,-0.6875,-0.5
41727020739,0.9375,-1.375,-0.1875
41727043165,-1.375,-1.1875,-0.125
41727065663,-1.3125,-0.375,-0.375
41727080746,-0.125,0.3125,-0.125
41727103135,0,0.1875,-0.1875
41727125762,0.125,-0.0625,0.0625
41727140697,-0.4375,-0.0625,0
41727163228,-0.4375,-0.125,0.3125
41727185743,0.3125,-0.25,0.25
41727200654,-1.25,-0.5625,0
41727223195,-1.1875,-0.8125,-0.3125
41727245726,1.25,-0.6875,-0.125
41727260685,-0.0625,-0.3125,0
41727283180,-1.1875,-0.125,-0.125
41727305687,-0.125,0,-0.125
41727320759,0.9375,0,0.125
41727343263,0.1875,0.0625,-0.125
41727365685,-1.1875,-0.0625,-0.1875
41727380679,-1.5,-0.3125,-0.125
41727403161,0.1875,-0.375,0.1875
41727425704,0.4375,-0.5625,0.25
41727442163,-1.0625,-0.25,0.3125
41727463280,-0.5,-0.5625,0.6875
41727485724,-1.125,-0.4375,0.25
41727502075,-2.3125,-0.75,0.0625
41727523229,-1.8125,-1.375,0.25
41727545786,-1.125,-2.125,0
41727562130,-2.125,-1.875,0.0625
41727583254,-2.5625,-1.625,0.9375
41727605636,-1.8125,-1.0625,1.625
41727622149,0.375,-0.6875,2
41727643175,1.75,0.0625,2.1875
41727665679,0.8125,1.3125,1.375
41727682142,1.6875,2.3125,0.75
41727703092,4.3125,2.75,1.3125
41727725755,7.875,2.375,2.8125
41727742176,10.875,2.5625,3.25
41727763196,8.4375,3.6875,2.875
41727785787,4,5.1875,1.8125
41727802085,5.875,7.5625,0.6875
41727823145,12.375,9.25,1.5625
41727845748,22.4375,12,4.0625
41727868202,32.8125,12.6875,6.75
41727883240,44.25,13.3125,9.1875
41727905716,53.5625,15.8125,11.875
41727928253,57.1875,19.75,12.6875
41727943253,56.3125,21.4375,12.625
41727965676,54.4375,21.75,11.5625
41727988187,52.625,22.5625,10.6875
41728003192,52.375,24.5,10
41728025738,54.5,27.1875,9.125
41728048209,56.375,31.0625,8.0625
41728063249,57.9375,33.75,8
41728085724,61.75,37.5,9.5625
41728108215,59.5,32.375,8.6875
41728123225,55.6875,26.8125,5.625
41728145649,47,25.5,6.6875
41728168247,36.8125,25.625,4.75
41728183183,31.125,25.25,4.1875
41728205738,28.0625,25.1875,3.6875
41728228273,29.875,25,3.6875
41728243214,36.1875,23.25,5.375
41728265778,40.8125,22.1875,6.3125
41728288244,35.0625,22.8125,3.4375
41728303177,24.6875,20.75,-0.5
41728325679,19.0625,21,-0.625
41728348216,20.375,27.875,1.25
41728364696,27.625,31.4375,1.25
41728385780,36.875,28.4375,-2.6875
41728408270,39.1875,29.3125,-2.8125
41728424627,44.3125,41.4375,2.875
41728445767,41.4375,54.8125,9.625
41728468264,31.25,58.4375,19.0625
41728484668,23.3125,60.4375,27.5
41728505775,16.75,63.9375,32.375
41728528205,4.125,71.875,33.6875
41728544682,6.4375,73.1875,36.3125
41728565661,27.3125,68.8125,39.1875
41728588267,22.8125,69.625,45
41728604620,-3.1875,71.25,42.875
41728625714,-18.125,58.4375,52.0625
41728648203,-19.0625,48.75,62.375
41728664712,-14.0625,44,61.6875
41728685742,-6.125,38.25,58
41728716991,-4.5625,35.4375,51
41728724783,-1.8125,33.625,40.1875
41728745731,2.5,30.25,35.5
41728768225,8.3125,22.4375,33.9375
41728784745,4,17.0625,31.0625
41728805727,-7,16.0625,28.3125
41728828306,-12.125,16.8125,25.8125
41728844651,-5.3125,14.375,20.9375
41728865776,10.6875,9.375,14.8125
41728888295,22.125,6.6875,11.4375
41728904595,21.3125,7.3125,8.5
41728925741,6.625,9.875,5.1875
41728948273,-9.0625,12,0.3125
41728964684,-9.25,10.6875,-4.125
41728985755,2.875,7.5625,-5.5
41729002147,14.125,4.0625,-6.25
41729024645,16.375,1.875,-7
41729045720,9.0625,2.875,-7.875
41729062185,-3.0625,3.8125,-12.3125
41729084623,-8.3125,0,-17.375
41729105798,-1.6875,-3.3125,-16.6875
41729122193,6.9375,-5.625,-14.875
41729144680,6.4375,-6.25,-13.1875
41729165768,-3.3125,-6.25,-9.0625
41729182152,-12.1875,-6.9375,-4.3125
41729204715,-6.6875,-9.375,3.4375
41729225771,8.75,-12,15.375
41729248195,19.4375,-10.8125,25.75
41729264675,12.4375,-6.8125,23.8125
41729285800,1.25,-4.4375,13.875
41729308251,-3.9375,-10.8125,3.25
41729324674,9.25,-11.875,-8.25
41729347176,6.9375,-9.3125,-14.3125
41729362114,2.4375,-8.25,-14.375
41729384673,2.1875,-9.5625,-14.25
41729407181,-1.25,-10.1875,-16.5625
41729428246,-5.375,-9.5,-19.5625
41729444668,1.375,-10.5,-18.0625
41729473250,18.9375,-17.25,-14.875
41729488249,36.5625,-25.3125,-13.875
41729504685,35.375,-31.0625,-17.1875
41729527263,20.375,-34.125,-21.1875
41729548242,2.875,-36.4375,-23
41729564680,-5.625,-36.8125,-23.25
41729587234,4.0625,-36.25,-23.875
41729608217,12.4375,-31.4375,-29.5625
41729624713,12.625,-25.9375,-35.1875
41729647233,11.75,-17.6875,-38
41729668315,17.875,-13.5,-39.4375
41729684642,24.6875,-13.375,-40.6875
41729706324,19.3125,-15.9375,-43.625
41729728979,2.4375,-18.9375,-45.25
41729743903,-11.875,-21.6875,-43
41729766444,-16.125,-25.1875,-40.25
41729788919,-10.3125,-27.3125,-37.5
41729803945,-4.375,-27.25,-33.125
41729826469,-3.75,-25.75,-27.5
41729848982,-10.625,-25.9375,-21.375
41729864018,-16.4375,-27.25,-15.75
41729886456,-15,-28.625,-10.3125
41729908903,-12.8125,-31.25,-4.5625
41729923843,-5.6875,-39.3125,1.125
41729946479,5.9375,-53.625,7.5
41729968910,11.5,-63.4375,16.625
41729983987,13.75,-79.75,15.75
41730006449,-3.5,-52.6875,4.125
41730028916,-52.9375,-27.25,-19.75
41730043943,-71.1875,-14.6875,-30.5
41730066501,-34.75,-27.375,-36.625
41730088916,18.1875,-43.8125,-41.125
41730111540,40.3125,-52.9375,-31.875
41730126476,19.125,-53.5,-17.5625
41730148993,-20.5,-48.625,-1.8125
41730163871,-60.1875,-36.4375,9.5625
41730186416,-80.75,-23.75,14.0625
41730208977,-74,-12.125,19.4375
41730223869,-49.3125,-9.375,22.25
41730246458,-28.75,-12.125,23.875
41730268948,-28,-15.4375,19.125
41730283997,-42.625,-19.625,13.5
41730306490,-52.4375,-18.3125,10.4375
41730328927,-45.375,-16.25,12.3125
41730343978,-35.0625,-16.0625,10.8125
41730366444,-30.5625,-16.1875,9.1875
41730389001,-31.0625,-16.875,13.125
41730403918,-36.8125,-12.5,16.3125
41730426500,-33.8125,-6.5,16.5
41730448906,-18.4375,-3.5625,11.375
41730465369,-2.9375,-4,13.4375
41730486471,3.6875,-1.9375,20.5625
41730508980,-1.0625,-1.625,24.6875
41730525468,-12,-2.75,23.4375
41730546437,-19.125,-5.4375,23.5
41730568931,-25,-8.875,30.75
41730585297,-23.875,-13.75,36.4375
41730606514,-22.375,-17.5,36.125
41730629034,-18.5625,-19.6875,32.4375
41730645443,-18.1875,-20.6875,33.1875
41730666477,-27.375,-18.4375,38.625
41730688934,-33.0625,-16.25,37.1875
41730705408,-34.9375,-18.875,34.9375
41730726439,-49.375,-21.75,40.375
41730748902,-60.875,-20.9375,45
41730765334,-57.875,-17,40.1875
41730786434,-44.1875,-16.1875,39.125
41730810332,-33.625,-17.25,46.875
41730825406,-25.9375,-13.6875,51.3125
41730846463,-31.75,-4.9375,43.5625
41730868944,-29.9375,-3.25,33.5625
41730885459,-29.6875,-17.875,27.3125
41730906482,-45.8125,-12.25,41.5
41730928920,-58.0625,-6,39.125
41730945326,-28.375,-1.5625,29.25
41730966463,-0.875,1.6875,34.0625
41730988971,-1.5625,6.1875,44.375
41731005392,-6.5625,3,33.1875
41731033945,-11.5,8.3125,26
41731048943,3,4.875,24.375
41731072929,8.75,2.25,33.4375
41731086449,6.375,3.5625,39.5625
41731108986,0.75,5.875,30.25
41731125399,1.25,1.375,19.5
41731146491,-9.25,-3.0625,18.5
41731168966,-24.6875,-1.75,17.3125
41731185491,-25.75,0.0625,10.6875
41731206460,-11.625,1.1875,4.9375
41731228907,8.3125,1.625,-2.9375
41731244790,32.375,-1.6875,-8.5
41731266489,45.0625,-10.25,1.0625
41731288965,16.875,-8.125,11.6875
41731304744,-0.5625,1.25,9.1875
41731326427,7.9375,4.6875,-0.625
41731348975,27.3125,2.375,-11.3125
41731364739,40.8125,-1.9375,-18.9375
41731386494,32,-3.875,-18.5625
41731408995,14.375,-3.8125,-15.8125
41731424749,11,-4.125,-6.3125
41731447925,3.375,-0.3125,4.875
41731468937,2.1875,2.6875,7.5
41731484708,5.5625,3.125,3.8125
41731507908,14.375,-0.25,-2.75
41731529018,23.8125,-3.8125,-6.125
41731544755,20,-4.375,-3.875
41731567905,4.75,-1.375,-2.8125
41731588926,-7.375,1,-4.25
41731604724,-6.3125,-0.625,-5.375
41731627824,-4.6875,-4.5625,-2.3125
41731642223,-10,-5.25,1.375
41731664761,-14.625,-5.6875,2.1875
41731687866,-15.875,-4.8125,-0.0625
41731702211,-12.0625,-3.25,0.9375
41731724688,-23.1875,-2.3125,3.5
41731747858,-24.625,-3.3125,2
41731768990,-19.1875,-3.125,-0.25
41731784755,-9.6875,-0.9375,-1.875
41731807883,0.8125,2.25,-0.5
41731828936,8.8125,3.6875,-1.125
41731844728,8.125,3.0625,1.1875
41731867904,6.4375,4.375,0.1875
41731882214,12.875,5.0625,-3.1875
41731904773,22.4375,3.5625,-3.875
41731927904,24.3125,2.25,-0.9375
41731956473,13.125,2.5,1.5625
41731964743,3.6875,3.5625,1.125
41731987892,2.5,2.8125,-0.5625
41732008992,4.6875,0.8125,-1
41732024705,1.75,-0.5625,0.0625
41732047932,-2.9375,-0.3125,-0.1875
41732068967,0.625,-3.25,-1.75
41732084719,3.75,-0.125,-4.0625
41732107202,4,0.125,-3.9375
41732128980,-0.25,-0.3125,-2.375
41732144752,-3.9375,-0.25,-1.25
41732167259,-5.1875,0.3125,-2.1875
41732188980,-0.625,0.25,-2.75
41732204772,5.625,0.125,-1.3125
41732227266,2.9375,0.1875,-0.1875
41732248974,-4.625,0.75,-0.625
41732264789,-5.9375,1.5,-1.875
41732287231,-2.1875,1.4375,-2.5
41732309002,0.5,0.125,-2.3125
41732324765,-3.1875,-0.25,-1.3125
41732347213,-7.3125,0.25,-0.9375
41732370438,-6.1875,0.5,-1.375
41732384704,-0.4375,-0.25,-1.6875
41732407170,1.3125,-0.875,-0.8125
41732430427,-3.9375,-1.0625,0.1875
41732444732,-8.0625,-0.875,0.4375
41732467220,-7.5,-0.25,0.125
41732490479,-2.4375,-0.3125,0.375
41732504688,-4,-0.625,0.25
41732527220,-9.25,-0.3125,-0.4375
41732550467,-8.8125,1,-1.125
41732564804,0.375,0.8125,-0.875
41732587241,7.8125,0.375,0.125
41732610400,6.1875,0.3125,0.125
41732624762,1.25,1.375,-0.75
41732647199,0.625,1.75,-0.8125
41732670469,3.875,1.4375,-0.8125
41732684795,4.875,0.6875,-1.25
41732707303,5.625,1.25,-2.375
41732730433,6.5625,2.3125,-3.3125
41732744716,8.9375,2.875,-4.4375
41732767260,12.625,2.375,-5.8125
41732790400,13.0625,4.9375,-8.75
41732811557,17.625,7.75,-15.25
41732827332,31.375,10.125,-20.875
41732850436,50.1875,12.9375,-27.4375
41732871524,74.9375,17.0625,-37.8125
41732887283,105.938,21.625,-47.375
41732910406,120.688,25.625,-53.5
41732931526,110.625,27.625,-59.125
41732947291,85.8125,28.375,-59.8125
41732970438,62.75,31.5625,-56.4375
41732991462,50.75,40.625,-53.375
41733007272,50.5625,50,-48.75
41733030360,49.1875,52.6875,-42.25
41733051481,43.9375,50.1875,-35.4375
41733067326,32.4375,47.125,-27.75
41733090395,21,46.5,-23.5625
41733111461,11.0625,42.4375,-15.125
41733127279,19.4375,39.8125,-3.4375
41733149757,33.8125,42.6875,7.6875
41733171499,41.4375,48.8125,17.5625
41733187229,45.3125,52.25,23.8125
41733209766,37.4375,53.6875,27.3125
41733231506,34.625,56.4375,34.4375
41733247270,24.6875,58.8125,42.625
41733269773,14.4375,63.3125,46.1875
41733292951,9.4375,65.4375,49.3125
41733314054,15.625,67,53.9375
41733329763,20.4375,69.875,56.1875
41733353024,18.6875,71.9375,52.8125
41733367221,11.625,72.875,49.875
41733389807,15.0625,74.3125,51.3125
41733412936,21.5,72.875,52.875
41733427361,20.1875,70.0625,51.5
41733449793,9.8125,64.875,47.9375
41733473020,3,58.5625,46.1875
41733487291,7.9375,50.125,47.625
41733509773,24.5,41.3125,50.875
41733523353,33.1875,34.0625,51.5
41733546461,33,29.5625,47.25
41733569012,25.375,26.6875,42
41733583338,17.25,23.0625,36.1875
41733605782,14.1875,20.4375,29.625
41733629004,18.6875,16.0625,23
41733643352,22.125,11,16.75
41733666474,13.5,7.625,12
41733689004,1.8125,5.5,6.75
41733703239,-2.6875,3.9375,2.1875
41733726526,-0.375,2.25,0.875
41733740823,5.3125,-0.75,1.3125
41733763347,5.6875,-4.125,2.125
41733786495,4.0625,-3.9375,3.125
41733800876,9.875,0.5,5.375
41733823322,9.6875,1.25,2.6875
41733846474,2.75,3.0625,-6.375
41733860807,-1.375,1.625,-13.8125
41733883388,4.5625,0.375,-13.0625
41733907131,11.75,-2.1875,-12.4375
41733920873,8.25,-7.0625,-15.375
41733943413,1.5625,-10.1875,-20.1875
41733966510,-4.5625,-16.5625,-25.5
41733989052,-6.0625,-22.5,-29.3125
41734003254,-6.3125,-27.625,-29.25
41734025812,-9,-35.4375,-33.75
41734049025,-17,-44.875,-44.25
41734063289,-24.75,-50.6875,-53.125
41734087262,-25,-52.5,-57.4375
41734109003,-20.75,-53.625,-60.9375
41734123353,-11.6875,-54.625,-63.3125
41734145817,-11.6875,-52.875,-61.625
41734177236,-15.25,-50.875,-61.4375
41734183358,-11,-52.6875,-63.5625
41734205789,-3.8125,-56.8125,-64
41734228986,-0.75,-60.5625,-61.5
41734243382,-0.5625,-64.9375,-58.3125
41734265784,0.3125,-69.625,-54.9375
41734288972,4.9375,-70.9375,-51.1875
41734311439,7.875,-66.375,-47.3125
41734325817,6.3125,-60.375,-40.3125
41734349024,5.625,-55.5625,-31.5625
41734364786,4,-52.3125,-26.5
41734385865,0.5625,-49.9375,-27.0625
41734408722,3,-47.9375,-26.125
41734423389,7.6875,-43.75,-22.0625
41734445748,8.0625,-39,-15.5625
41734469639,2.1875,-34,-11.6875
41734483326,-1.0625,-31.375,-12.75
41734505790,-2.25,-30.125,-13.625
41734528921,-5.3125,-28.5625,-9.9375
41734543369,-15.375,-27.5,-6.8125
41734565845,-25.875,-27.4375,-5.375
41734589008,-29.5625,-26.875,-5.0625
41734603310,-30.125,-19.75,-2.375
41734625858,-31.25,-15,2
41734648948,-29.1875,-11.5625,4.25
41734663239,-18,-12.125,4.5625
41734685824,-9.25,-13.1875,5.125
41734708963,-12.8125,-15.0625,2.6875
41734723417,-20.875,-15.1875,1.3125
41734745822,-26.0625,-12.8125,1.8125
41734768973,-24.875,-9.25,2.375
41734783247,-17.5,-5.8125,2.0625
41734805775,-8.1875,-3.4375,0.9375
41734828936,-0.9375,-2.75,0.5
41734843281,1.5,-2.4375,0.5625
41734865804,0.4375,-1.3125,0.875
41734880884,-1.625,0.625,0.875
41734903327,-3.8125,3.375,0.875
41734925935,-2.125,5.125,0.625
41734940844,2,5.5625,0.0625
41734963379,6.3125,4.25,-0.0625
41734985896,6.875,2.4375,0.25
41735002246,4.125,1.1875,0.625
41735023429,-0.375,0.8125,0.4375
41735045784,-3.875,0.375,-0.25
41735062282,-3.125,-0.6875,-0.875
41735083420,-0.1875,-1.875,-0.6875
41735105886,0.625,-2.125,-0.0625
41735122304,-1.125,-1.4375,0.0625
41735143345,-1.8125,-0.5625,0
41735165849,-1.125,0.25,-0.25
41735182357,0.4375,0.1875,-0.375
41735203358,1.6875,0,-0.1875
41735225903,1.25,0.1875,0.5
41735248274,-0.25,0.75,0.5625
41735263326,-0.875,1.1875,-0.1875
41735285862,-0.0625,1.375,-0.1875
41735302245,1.375,1.1875,0.0625
41735323428,1.875,0.8125,0
41735345893,1.125,0.5,0.0625
41735362276,-0.6875,0.3125,-0.125
41735383374,-1,0.3125,-0.4375
41735405832,-0.5625,0.25,-0.625
41735422221,-0.125,0.4375,-0.4375
41735443398,0.6875,0.375,-0.25
41735465893,0.3125,0.375,0.125
41735482281,-0.4375,0.6875,0.25
41735503360,-0.8125,0.6875,-0.0625
41735525884,-0.1875,0.375,-0.3125
41735542370,0.375,0.125,-0.25
41735563411,0,0.0625,-0.125
41735585954,-0.125,0.0625,-0.3125
41735602235,-0.5,0.1875,-0.1875
41735623403,-0.875,0.375,-0.125
41735645790,-0.125,0.625,-0.125
41735662321,0.6875,0.4375,-0.0625
41735683363,-0.125,0.375,-0.125
41735705843,-0.1875,0.125,-0.125
41735722302,0.1875,-0.25,-0.25
41735743414,0.0625,-0.125,0
41735765916,-0.4375,0.375,0
41735782316,2.0625,-2.625,-0.875
41735803418,4.1875,0.9375,0.6875
41735825878,2.75,0.5,0.4375
41735849849,2.625,-0.25,-0.5625
41735863426,-0.0625,0.5,-0.125
41735885888,-3.625,1.5,0.9375
41735902222,-2.9375,1,-0.1875
41735923475,-0.5625,0.75,-1
41735945794,1,0.5,-0.6875
41735962310,1.0625,0.25,-0.5
41735984870,-0.4375,0.3125,-0.5625
41736005881,-1.5,0.4375,-0.75
41736028417,-1.25,0.4375,-0.6875
41736044806,0.3125,0.25,-0.625
41736065887,0.75,0.25,-0.375
41736082316,0.4375,0.3125,-0.3125
41736104885,0.0625,0.3125,-0.3125
41736125919,-0.1875,0.1875,-0.25
41736142418,-0.1875,0.0625,0.0625
41736164816,-0.0625,-0.0625,0.1875
41736185836,-0.1875,-0.0625,-0.0625
41736202317,-0.125,-0.3125,-0.3125
41736224865,-0.6875,-0.125,-0.0625
41736245903,-0.6875,0.0625,0.0625
41736262404,-0.0625,-0.125,-0.125
41736284823,-0.4375,0.1875,0.1875
41736305900,1.1875,-0.5,-0.6875
41736322274,2.5625,0.75,-0.0625
41736344801,0.75,0.25,0.0625
41736365925,-0.1875,0.6875,-0.1875
41736382297,-0.375,0.75,0.1875
41736406348,-0.3125,0.25,0.4375
41736425923,0.125,-0.0625,0.4375
41736442320,-0.375,0,0.75
41736464844,-0.25,-0.0625,0.875
41736485798,-0.1875,-0.0625,0.8125
41736502276,-0.6875,0,0.75
41736524825,-0.5,-0.375,0.4375
41736545953,0.5625,-1,0.625
41736562331,-0.875,-0.625,1
41736584828,-2.125,0.0625,0.625
41736605912,-0.375,0.375,0.125
41736622399,1.9375,0.3125,-0.4375
41736644918,2.1875,0.625,-0.375
41736665901,1.625,1,-0.4375
41736682344,1.3125,1.375,-0.625
41736704821,1.625,0.9375,-0.9375
41736725854,1.8125,0.5,-1.0625
41736742349,1.5,0.1875,-1.25
41736764821,0.75,0,-0.9375
41736785978,-0.3125,0,-0.6875
41736802299,-0.4375,0,-0.5625
41736824852,0.3125,-0.5,-0.6875
41736845941,0.9375,-0.5625,-0.5625
41736862311,0.3125,-0.125,-0.5
41736884798,-0.0625,0.3125,-0.625
41736915537,-0.4375,0.75,-0.875
41736922306,0.5,0.5625,-0.9375
