myoTS,x,y,z
42406064131,-0.4375,-0.3125,0.25
42406079109,-0.25,-0.0625,0.5
42406100406,0.125,0.0625,0.125
42406124117,0.5,-0.0625,-0.5
42406139171,0.5,0.0625,-0.9375
42406160528,0.1875,-0.1875,-1.1875
42406199753,1.3125,-0.5,-1.125
42406201843,3,-0.875,-1.125
42406221884,3.625,-0.5625,-0.6875
42406244237,1.9375,0.1875,-0.0625
42406261941,-0.6875,0.875,0.3125
42406282025,-1.6875,0.8125,0.3125
42406318579,-0.8125,0.375,0.125
42406350527,0.8125,0,0.1875
42406351347,1.5,0,0.1875
42406362857,0.6875,0.125,0.3125
42406379301,1.125,0.0625,0.3125
42406401668,2.25,0.125,0.1875
42406422828,2.0625,0.1875,-0.25
42406439257,-0.0625,-0.0625,-0.3125
42406461839,-1.4375,-1.125,-0.25
42406482855,-1.6875,-1.6875,-0.25
42406499242,-1.75,-1.6875,-0.5
42406521743,-0.9375,-1.75,-0.5625
42406542784,0.0625,-1.5,-0.5
42406559263,-0.3125,-1.4375,-0.0625
42406581684,-0.125,-1.25,0.25
42406602739,-0.3125,-1.1875,0.25
42406626645,0.0625,-1.3125,0.0625
42406641772,0.875,-1.3125,0
42406662847,0.625,-1.1875,0.375
42406679317,-0.25,-1.3125,0.625
42406701670,-1.5,-1.75,0.25
42406722838,-1.3125,-1.875,-0.1875
42406739146,0.75,-1.8125,-0.1875
42406761689,1.0625,-1.125,-0.0625
42406782736,-0.25,-0.5,0.3125
42406799135,-1.8125,-0.375,0.0625
42406821642,-3.5,-0.25,-0.1875
42406842722,-2.5,-0.25,-0.25
42406859163,-0.125,-0.25,0
42406881686,1.3125,-0.1875,0.3125
42406902724,1.625,-0.375,0.125
42406919180,1.4375,-0.375,0.1875
42406941768,1.0625,-0.125,0.0625
42406964277,1.0625,0.1875,-0.375
42406979223,1.25,0.0625,-0.4375
42407001728,1.0625,-0.125,-0.375
42407024192,0.9375,-0.5625,-0.3125
42407039277,0.625,-0.5,-0.0625
42407061739,0.5,-0.25,-0.4375
42407084175,0.125,-0.0625,-0.5
42407099228,-0.0625,-0.1875,-0.0625
42407121727,-1.0625,-0.25,0.125
42407144311,-1.5,-0.1875,0.125
42407159220,-0.1875,-0.3125,0.125
42407180963,-0.375,-0.375,0.1875
42407203514,-1.1875,-0.25,0.3125
42407218389,-2.5625,-0.25,0.25
42407240926,-3.375,-0.625,0.125
42407263464,-2.6875,-0.625,-0.375
42407278467,-0.75,-0.1875,-0.125
42407300911,1,0.5,0.3125
42407323405,1.75,0.8125,0.125
42407339956,1.6875,0.4375,-0.25
42407368521,2.6875,-2.1875,0.25
42407383462,4.6875,-4.5625,1.4375
42407399876,1.875,-1.9375,1.125
42407421009,-0.625,0.8125,-0.9375
42407443523,-2.9375,1.9375,-2.25
42407459906,-1.875,1.4375,-1.375
42407480944,-2,-0.125,-0.3125
42407503454,-5.6875,-0.5,-0.5625
42407519849,-6.375,-0.5625,-0.6875
42407540970,-5.375,0.1875,-0.9375
42407563438,-3.8125,0.6875,-1.125
42407579855,-1.3125,0.5625,-0.125
42407600891,2.125,0.4375,0.8125
42407623434,3.1875,0.375,0.625
42407639889,2.8125,0.625,-0.0625
42407661048,1.5625,0.625,-0.1875
42407683522,1.6875,0.8125,-0.0625
42407699981,1.875,1.0625,0.0625
42407721000,2.125,1.5,0.5
42407743536,1.75,1.9375,0.875
42407759928,0.375,2.6875,0.8125
42407780901,-0.9375,3.1875,0.625
42407803541,0,2.625,0.25
42407819928,1.4375,1.0625,0.25
42407840999,1.625,-1.0625,0.375
42407863389,0.5625,-2.375,0.6875
42407879216,-0.1875,-2.25,0.5625
42407900903,-1.6875,-1.1875,-0.125
42407923455,-0.625,-0.1875,-0.1875
42407939213,0.8125,0.8125,0.375
42407961000,1.8125,0.75,1.25
42407983468,3.0625,0.125,1
42407999276,4.625,0.25,0.3125
42408020940,7.25,0,0.375
42408043474,11.125,-1.1875,1.875
42408059302,14.625,-1.5,3.0625
42408082430,19.5625,2.375,4.625
42408103458,25.0625,7.9375,2.5625
42408119268,22.5,11.625,0.3125
42408142376,25.1875,14.1875,2.3125
42408163410,33.3125,15.1875,4.1875
42408179201,44.5,17.8125,9.9375
42408202394,47.6875,19.75,10.5
42408223415,43.5625,24.25,9.875
42408239244,30.125,28.1875,10.3125
42408262474,13.3125,29.8125,11.5
42408283509,5.4375,31.8125,15.4375
42408299245,1.9375,36.25,13.5625
42408322427,10.25,40.6875,13.8125
42408343533,9.8125,41.75,19.9375
42408359898,2.4375,45.375,21.5625
42408382456,-7.3125,50.3125,22.3125
42408403509,-7.5625,54.5,26.75
42408427436,4.8125,55.6875,35.6875
42408442416,16.5,56.5,41.125
42408463496,15.75,54.875,43.4375
42408479224,21.8125,51.3125,45.4375
42408502385,30.4375,48.875,44.1875
42408523435,37.8125,46.625,38.375
42408539212,40.375,41.3125,33.375
42408562353,32,35.375,30.375
42408583594,20.9375,28.5625,32.4375
42408599302,3.6875,22.4375,33.8125
42408622475,-13.3125,15.75,31.5
42408643495,-11.8125,7.25,25.4375
42408659328,-2.6875,1.1875,21.875
42408682463,-3.875,-1.125,22.5625
42408703488,-9.875,-2.875,25.4375
42408719257,-17.375,-3.375,26.0625
42408742455,-12.75,-5,23.25
42408763538,-3.5,-8.3125,20.4375
42408779340,0.125,-8.4375,19.5
42408802525,-4.5625,-8.25,19.875
42408823502,-9.25,-8.4375,17.9375
42408839303,-8.4375,-9.625,14.8125
42408861816,-2.4375,-12.5625,14.125
42408883565,-3.5625,-13.3125,16.9375
42408899375,-11.75,-12.125,19.125
42408921712,-12.9375,-10.625,18.5625
42408943445,-6.25,-9.75,17.9375
42408959248,-0.8125,-9.6875,18.1875
42408981722,0.3125,-8.1875,14.625
42409003491,-1.375,-6.5,6.75
42409019304,-5.0625,-6.6875,-0.1875
42409041817,-2.5625,-8.4375,-4.125
42409064980,2.5625,-11.3125,-5.0625
42409079270,3.8125,-11.625,-5.125
42409101767,0.375,-8.375,-4.8125
42409124924,-0.75,-1.875,-3.5
42409139364,3.625,4.75,-2.3125
42409161768,12.125,8.625,-1.625
42409184990,20.1875,7.875,-2.6875
42409199218,23.4375,6.25,1.6875
42409221744,28.1875,2.3125,2.75
42409244856,21.0625,-0.6875,2.625
42409265958,5,-0.3125,1.6875
42409282394,-4.1875,0.6875,-0.8125
42409304984,-0.5,-0.5,-1.8125
42409326018,4.5625,-3.5,-1.25
42409350000,3.75,-6.125,-0.75
42409365049,0.3125,-8.125,1.625
42409379280,-3.25,-9.0625,4.1875
42409401786,-3.3125,-10.4375,4.5
42409424990,-2.5625,-11,1.875
42409439251,-4.0625,-8.9375,-0.5
42409461823,-6.5625,-5.4375,-0.25
42409485002,-4.8125,-3.4375,0.125
42409499342,-0.25,-3.375,0.3125
42409521742,3.9375,-2.6875,0.3125
42409544871,6.0625,-1,1.8125
42409565967,3.6875,0.625,2.1875
42409589905,2.5625,0.625,1.875
42409604955,3.3125,0.5625,1.1875
42409625786,0.8125,0.4375,1.3125
42409641863,-1,0.5625,1.375
42409664965,0.875,-0.125,1.5
42409686021,2.625,-1.0625,1.3125
42409701724,5.875,-2.125,1.1875
42409725105,8.125,-2.6875,2.9375
42409746107,4.5,-2.25,3.6875
42409761787,-3.6875,-1.125,2.1875
42409784357,-6.0625,-1.1875,-1.25
42409805999,-0.9375,-2.75,-3.125
42409821775,4.25,-3.1875,-2.3125
42409844267,6.6875,-1.875,0.3125
42409867400,4,0.0625,1.5625
42409881736,-0.5,-0.0625,0.3125
42409904269,-0.75,-1.6875,-0.9375
42409926018,1.75,-2.5625,-1
42409941869,-1,-0.8125,-1.8125
42409964303,-2.25,1.125,-2
42409987508,2.625,0.9375,-0.0625
42410001752,5.875,0.6875,1
42410024337,5.0625,0.375,0.375
42410047550,0.9375,0.0625,-1
42410061820,-0.5,-0.6875,-2
42410084392,0.5,-0.8125,-1.4375
42410107484,-1.25,-0.6875,-0.3125
42410121872,-3.125,-0.125,-0.4375
42410144290,-2.1875,0.4375,0.125
42410167483,-1,0.6875,0.5625
42410189932,-0.0625,0.25,1.0625
42410204255,0.6875,0.375,1.8125
42410227398,0.625,0.25,2.4375
42410241767,0.125,0.75,2.1875
42410272433,0.1875,1.3125,2
42410287426,0,1.4375,0.5
42410301746,2.5,2.125,-0.9375
42410324373,6.4375,2.3125,-1.25
42410347501,3.4375,2.875,0.125
42410361781,-0.3125,3.5,0.375
42410384324,3.4375,2.4375,0.5
42410407497,7.375,1.0625,0.875
42410422356,5.8125,0.4375,2.1875
42410444305,5.25,0.125,2.1875
42410467498,4.5,0.3125,1.25
42410488554,1.1875,0.3125,1.0625
42410504364,-0.375,0.25,1.75
42410527450,3,-0.5,2
42410548276,5.3125,-0.6875,2.125
42410564282,2.9375,-1.0625,1.375
42410587447,-1.125,-2.125,1.125
42410608489,-4.1875,-2,0.375
42410624345,-2.3125,-1.375,-1.875
42410647508,-4.125,-0.375,-3.0625
42410668551,-5.5625,0.125,-2.0625
42410684361,-3.3125,-0.1875,-1.125
42410707564,-0.9375,-1.125,-2.4375
42410728543,0.75,-0.5,-2.8125
42410744352,0.5,1.1875,-2.375
42410766779,-1,2.625,-2.1875
42410788601,0.4375,3.3125,-2.0625
42410804309,4.6875,3.5,-1.9375
42410826868,7.125,4.0625,-1.4375
42410848455,6.6875,5.375,-0.5625
42410864248,5.375,6.25,-0.6875
42410886757,6.6875,6.625,-1.75
42410908555,6.375,6.75,-2.4375
42410924365,3.1875,6,-2.625
42410946891,-6.75,3.6875,-3.3125
42410970029,-18.3125,1.1875,-6.5
42410984342,-29.5,-0.75,-9.1875
42411006863,-37.6875,-1.5,-9.1875
42411021840,-32.4375,-0.875,-6.25
42411043557,-17.1875,-1.1875,-4.3125
42411057872,-10.5,-2.3125,-2.5625
42411080500,-12.6875,-3.625,-2
42411103534,-17.9375,-4.3125,-1.375
42411117935,-18.0625,-5.5,-1.9375
42411140453,-13.9375,-5.875,-1
42411163556,-4.875,-5.5,-0.0625
42411177953,6.75,-4.625,1.6875
42411200490,13.875,-3.8125,3.0625
42411223605,12.4375,-2.75,3.4375
42411237963,6.25,-2,2.3125
42411260309,-1,-0.75,1.5625
42411283519,0.25,0.1875,1.375
42411297786,8.375,0.5,1.5
42411320354,14.375,0.5,1.75
42411343490,12.375,1,2.5
42411357866,8.9375,1.25,3
42411380364,10.0625,0.9375,3.3125
42411403483,13,0.5625,3.6875
42411417808,13.3125,0.0625,2.6875
42411440427,7.3125,0.6875,0.8125
42411463559,0.5625,1.5625,-0.9375
42411477971,-0.375,2.1875,-1.125
42411500483,5.5,2.0625,0.25
42411523650,10.75,1.625,2.1875
42411537948,11.1875,0.6875,1.9375
42411560390,9.75,-0.375,1.4375
42411583598,7.875,0,2.125
42411597913,4.625,1.25,2.9375
42411620452,4.25,1.75,2.625
42411643599,5.5,1.8125,1.625
42411657841,4.1875,1.4375,0
42411680402,1,1.25,0.0625
42411704928,-0.75,1.25,1.4375
42411717799,1.125,1.0625,3.1875
42411748490,5,0.5625,4.375
42411763538,7.875,0.6875,4.5
42411777856,8.5,1.0625,3.375
42411808573,7.875,1.1875,1.9375
42411823670,3.6875,0.5,0.125
42411837972,1,-0.125,-0.875
42411860488,0.125,0.1875,-0.5
42411882935,-0.3125,0.8125,0.3125
42411897943,0.25,0.875,0.375
42411920442,2.5625,-0.125,0.125
42411942881,5.0625,-1.1875,0.5625
42411957978,3.6875,-1,0.9375
42411980416,-0.625,0.0625,0.8125
42412002847,-2.375,1.3125,0.5
42412017838,-0.5625,1.1875,0
42412040380,1.875,0.3125,-0.1875
42412062845,3.25,-0.625,-0.0625
42412086067,0.5625,-0.75,0.5625
42412100500,-2.8125,-0.375,0.8125
42412125780,-2,-0.25,0.625
42412137909,0.125,-0.8125,0.625
42412168535,0.4375,-1.5625,0.8125
42412182921,-0.125,-1.9375,1.1875
42412197978,-1.625,-1.875,1.25
42412220428,-2.9375,-1.75,1.0625
42412242992,-2.4375,-1.8125,0.625
42412257845,-0.4375,-1.9375,0.375
42412280466,-0.0625,-1.9375,0.25
42412302929,-0.75,-1.625,-0.0625
42412317967,-1.375,-1.25,0.125
42412340411,-0.125,-1,0.125
42412364425,0.3125,-0.6875,-0.125
42412377996,0.625,-0.3125,-0.25
42412400412,1,-0.375,-0.4375
42412422878,0.6875,-0.4375,-0.1875
42412437877,0.0625,-0.4375,0.1875
42412460376,-0.3125,-0.5625,0
42412482856,-0.3125,-0.5625,0.25
42412497866,0.6875,-0.625,0.3125
42412520439,0.3125,-0.75,0.0625
42412542965,-0.375,-0.375,0.25
42412557969,-0.1875,-0.1875,0.25
42412580437,0.4375,-0.375,0.25
42412602976,0.5625,-0.375,0.25
42412617927,0.5,-0.1875,0.125
42412640449,0.3125,-0.0625,0.0625
42412662920,0.75,-0.3125,0.0625
42412679415,0.6875,-0.6875,0.1875
42412700472,-0.0625,-0.9375,-0.0625
42412722893,-0.5,-0.8125,-0.125
42412739296,-0.25,-0.5625,0
42412768670,0.3125,-0.4375,-0.4375
42412782843,0.625,-0.25,-0.4375
42412799460,0.9375,-0.1875,-0.0625
42412820466,0.6875,0.0625,-0.125
42412842964,0.125,0.1875,-0.25
42412859389,0.6875,-0.0625,-0.1875
42412880479,1.75,-0.5625,0.375
42412902915,1.375,-1.8125,2.1875
42412920809,4.75,-1.9375,1.875
42412940352,0.625,-0.125,0.3125
42412962946,-1.125,1.5,-0.25
42412979345,2.3125,1.1875,-0.1875
42413000358,4.125,1.125,-0.25
42413022875,0.6875,2.0625,-0.625
42413039355,-3.125,3.0625,-1
42413060509,-0.75,1.3125,-0.375
42413082992,5.5,-1.1875,0.0625
42413099435,3.625,-1.8125,-0.375
42413120381,-3.9375,-0.4375,-0.375
42413142969,-5.375,1,-0.6875
42413159434,0.25,0.5625,-1.1875
42413180461,4.4375,0.1875,-0.75
42413202961,3.0625,0.4375,-0.5
42413219366,0,0.6875,-0.5625
42413240475,-0.0625,0.25,-0.25
42413263010,0.5,0,-0.125
42413279401,0.5625,0.6875,0.25
42413300455,-0.875,1.4375,0
42413322865,-2.3125,1,-0.375
42413339346,1.6875,-0.875,0.125
42413360421,4.375,-1.1875,1.375
42413382858,0.875,-0.25,1
42413399415,-1.6875,0.625,-0.5
42413421857,-0.5625,0.25,-1.5625
42413442994,1.6875,-0.875,-1.3125
42413459440,2.375,-1.625,0.25
42413480452,-0.5625,-0.8125,1.75
42413502904,-2.375,0,1.25
42413519432,-0.625,-0.4375,-0.1875
42413540469,1.6875,-1.25,-0.4375
42413562969,2.4375,-1.625,0.0625
42413579451,1.375,-0.8125,0.25
42413601823,-0.375,0.3125,0.125
42413622945,0.5625,1,-0.375
42413639428,1.4375,0.9375,-0.5
42413661891,1,1.125,-0.8125
42413691153,0.5,0.875,-1.0625
42413699496,1.4375,0.9375,-0.3125
42413721904,2.3125,1.0625,0.3125
42413751064,1.8125,1.375,0.375
42413759348,1.25,1.3125,-0.25
42413781847,1.5625,0.75,-0.9375
42413802901,2.25,-0.0625,-0.625
42413819362,2.4375,0.1875,0.4375
42413841839,0.625,0.75,0.6875
42413862998,-0.5,0.75,-0.0625
42413879403,0.4375,0.0625,-0.1875
42413901851,2.375,-0.4375,0.3125
42413922980,1,-0.125,0.875
42413939402,-0.125,0.4375,0.4375
42413961962,1.6875,0.6875,0.5
42413982983,3.1875,1.5,0.25
42413999503,2.25,2.25,-0.0625
42414021886,3.0625,1.8125,-0.375
42414042937,4.9375,1.3125,0.625
42414059375,4.125,1.0625,0.875
42414081922,3.375,0.9375,0.25
42414102885,2.8125,1.125,-0.5
42414119418,2.0625,1.875,-0.375
42414141826,2.5625,1.9375,0.4375
42414162851,3.9375,2.1875,0.3125
42414179347,5.5625,2,0.4375
42414201799,10.25,1.75,1.25
42414222967,16.1875,1.375,1.8125
42414239457,16.1875,1.75,1.6875
42414261878,10.0625,2.75,1.8125
42414282905,4.1875,3.375,2.5
42414305519,1.3125,3.625,3.1875
42414321823,3.125,2.3125,3.0625
42414342947,6.75,1,2.9375
42414359454,7.1875,2.375,2.8125
42414381924,7.5625,4.4375,3
42414402999,8.75,5.5625,3.8125
42414419364,11,5.625,4.75
42414441874,12.875,4.0625,6.8125
42414462939,13.1875,5,6.25
42414479373,15,5.3125,3.8125
42414501953,13.1875,5.0625,3.0625
42414524502,14.125,3.1875,4.875
42414539485,13.75,2.8125,6.875
42414561867,13.4375,3.8125,6.5625
42414585853,10.75,4.5,6
42414599412,10.75,4.8125,5.5625
42414621909,13.1875,5,4.875
42414644426,16.625,4.625,2.375
42414659472,19.625,2.5,-1.375
42414681968,13.375,1.875,-3.4375
42414704428,2.375,-0.375,-6.3125
42414720865,-0.875,-1.8125,-8.1875
42414741885,1.5625,-0.875,-7.5
42414764401,3.75,0.75,-7.5
42414780863,5.5,1.1875,-5.25
42414801827,9.8125,-0.5,-2
42414824406,15.1875,-1.375,0.25
42414840902,14.3125,1.25,1.5
42414862573,8.6875,2.9375,1.1875
42414883550,3.8125,1.625,1.1875
42414906095,-0.0625,-0.3125,2.1875
42414921095,1,0.0625,3.1875
42414943557,3.8125,2.3125,5.375
42414966202,9.0625,2.5,7.5625
42414981126,9.9375,1.75,8.875
42415003674,7.0625,2.6875,9.625
42415026140,5.375,4.0625,9.9375
42415041176,3.1875,6.1875,10.3125
42415063716,-2.875,8.9375,12.4375
42415086112,-4.875,9,11.875
42415101116,-5.4375,8.625,11.875
42415123712,-5.1875,8.4375,11.125
42415146155,-1.875,8.9375,9.25
42415161158,1.125,10.875,7.25
42415183653,2.5625,12.6875,4.4375
42415206181,5.625,13.375,2
42415221202,11.125,11.625,0
42415243593,13.4375,9.1875,-1.75
42415266071,9.5625,8.3125,-3.875
42415281105,6.9375,8.125,-6.375
42415303554,8.5625,5.9375,-8.8125
42415326100,13.5625,2,-9.0625
42415341087,15.3125,-1.625,-8.25
42415363575,13.875,-3.8125,-7.5
42415386057,11.25,-5.4375,-7.6875
42415401057,8.9375,-6.9375,-7.8125
42415423596,4.875,-6.9375,-7.3125
42415446105,2.75,-6.6875,-6.8125
42415461105,3.5625,-6.4375,-6.3125
42415483634,5.4375,-5.875,-5.75
42415499392,7.3125,-5,-5.625
42415521125,8.6875,-3.75,-4.3125
42415543617,7.125,-1.8125,-2.3125
42415559407,3.875,-0.0625,-0.8125
42415581213,1.875,0.4375,-0.75
42415603577,0.75,0.4375,-0.5625
42415619376,0.3125,0.4375,0
42415641122,-1.4375,1.0625,1
42415663604,-3.0625,1.75,1.0625
42415679391,-2.4375,2.0625,0.25
42415702520,1.4375,2,-0.6875
42415723573,5.5,1.8125,-1.4375
42415739402,6.8125,2.625,-2.3125
42415762563,5.5,3.5,-2.3125
42415783607,4.6875,3.75,-2.3125
42415799388,4.125,3.125,-2.125
42415822553,2.5,2.5625,-1.6875
42415843595,0,1.75,-1.625
42415860007,0.125,0.4375,-2.125
42415882588,1.0625,-0.875,-1.875
42415903604,1.3125,-1.5,-0.9375
42415919411,-1.3125,-1.0625,0.25
42415942528,-3.25,-0.75,0.3125
42415971104,-2.0625,-1.125,-0.3125
42415979354,0.625,-1.375,-0.375
42416002570,1.25,-1.0625,0.0625
42416023615,-0.375,-0.0625,0.5
42416039379,-1.0625,0.25,0.5625
42416062573,-0.1875,-0.0625,0.5625
42416083605,-0.125,-0.125,0.875
42416106088,-1.4375,0.375,1.3125
42416122545,-3.375,0.75,1.1875
42416143652,-3.1875,0.5625,0.25
42416159441,0.5625,-0.75,-0.5625
42416182577,4.4375,-1.3125,-0.375
42416203607,1.3125,-0.1875,0.8125
42416219420,-2.5,0.8125,0.9375
42416242357,-1.375,0.4375,0.1875
42416263606,1.5625,-0.125,-0.75
42416279367,3.25,0.0625,-0.5625
42416302566,2.5,0.6875,-0.0625
42416323629,-0.6875,1.0625,0.25
42416339447,-1.375,0.6875,0.875
42416362545,0.375,-0.5,0.8125
42416383656,2.9375,-1.9375,0.8125
42416399459,2.3125,-2,1.375
42416421885,-1.1875,-1.9375,1.25
42416443611,-3.25,-2.75,0.3125
42416459354,1.75,-5.25,0
42416481918,4,-4.9375,1.125
42416505105,2.3125,-2.875,1.5625
42416519403,-0.625,-1.25,1.125
42416541892,2.125,-1.375,0.9375
42416563644,7.75,-3.125,1.9375
42416579381,11.625,-1.875,1.625
42416601937,12.25,0.5625,0.3125
42416625063,9.75,3.0625,-1.0625
42416639464,9.25,3.5625,-0.625
42416661933,11,3.25,0.1875
42416685070,9.25,3.4375,0.9375
42416699427,7.375,3.5625,0.5625
42416721882,6.5625,2.875,0.3125
42416745083,8.875,2.25,-0.1875
42416759411,10.4375,2,0.0625
42416781989,9,2.6875,0.25
42416805090,6.625,3,-0.5625
42416819418,6.5625,2.8125,-1
42416841952,8.1875,1.9375,-1.1875
42416865083,8.8125,1.8125,-1.75
42416879385,7.4375,3.0625,-2.0625
42416901855,7,3.1875,-2.25
42416925089,5.3125,2.75,-2.1875
42416939396,4.3125,2.1875,-1.8125
42416961926,5,4.5625,0.75
42416985066,-6.75,11.3125,2.625
42417006131,-14.5,17.8125,4.5625
42417030109,-15.625,23.125,5.4375
42417045086,-18,22.5625,8.5
42417066158,-23.4375,22.875,9.25
42417082377,-27.75,30.0625,11.75
42417105113,-30.125,40.0625,17.5625
42417126252,-35.3125,51.5625,23.875
42417141918,-42.4375,62.6875,29.625
42417165126,-46.625,72.9375,34.5
42417186176,-49.25,83.0625,38.9375
42417201913,-48.125,90.75,43.5625
42417225047,-47.5625,94.5,49.25
42417246173,-49.3125,96.8125,53.625
42417261922,-51.25,95.9375,56.3125
42417285066,-50.25,94.8125,54.5
42417306155,-49.5625,91.4375,51.4375
42417321961,-45.25,84.125,49.0625
42417345164,-35.9375,73,48.0625
42417366204,-27.625,62.25,42.0625
42417382045,-26.3125,54.875,32.625
42417404518,-37.1875,50.5,26.8125
42417426215,-46.625,44.6875,23.375
42417442013,-44.3125,37.5625,21.3125
42417464531,-36.625,29.25,17.25
42417486155,-26.8125,19.625,12.0625
42417501951,-19.1875,12.5,7.25
42417524398,-12.3125,7.875,3.75
42417547555,-9.0625,4.9375,4.875
42417561887,-11.75,0.5625,7.6875
42417584370,-6.4375,-4.6875,7.0625
42417607599,0.75,-7.25,3.6875
42417622008,2.75,-6.375,2.6875
42417644525,-0.875,-4,3.8125
42417667708,-3.875,-1.375,4
42417681961,-0.6875,-1.4375,3.5
42417704501,8.0625,-2.5625,2.875
42417727660,16.8125,-3.125,1.125
42417742016,17.6875,-2.4375,0.3125
42417764522,9.4375,-0.625,1.5625
42417787710,-1.25,1.4375,3.1875
42417801927,-5.25,1.9375,4.25
42417824433,-0.25,0.4375,3.1875
42417847560,8.6875,-2.5625,1.125
42417861874,11.375,-3.8125,-0.25
42417884508,5.5625,-3.375,-0.9375
42417915158,-3.75,-2.625,-0.3125
42417922023,-6.6875,-3.6875,-0.5
42417952720,-3.0625,-6.0625,-1.4375
42417967724,1.25,-7.375,-2.625
42417982006,1.875,-7.625,-3
42418004531,-3.4375,-7.25,-2.5625
42418027649,-4.5,-6.9375,-3.25
42418048733,1.75,-6.625,-4.1875
42418064429,8.625,-6.3125,-5.3125
42418087619,12.375,-5.6875,-6.4375
42418108644,17.6875,-4.8125,-7.125
42418124418,28.625,-3.5,-6.8125
42418147648,42.75,-3.5625,-7.25
42418168782,48,-4.6875,-6.5
42418191220,57.0625,-10.75,-10.75
42418207650,75.625,-14.0625,-14.25
42418228776,82,-13.6875,-15.125
42418244530,70.6875,-22,-23.5625
42418267707,63.75,-44.125,-31.875
42418288770,74.1875,-61.9375,-34
42418304513,82.125,-69.0625,-28.4375
42418327008,62.1875,-79,-24.1875
42418348655,28.1875,-89.875,-19.9375
42418364394,12.5,-91.0625,-18.5
42418386955,15,-82.125,-15.9375
42418408633,22.875,-71.0625,-14.1875
42418424506,31.625,-62.25,-15.625
42418447094,39.6875,-52.5,-16.5625
42418468766,49.8125,-40.9375,-14.5625
42418484537,54.125,-27.6875,-11
42418506980,52.1875,-19.3125,-11.0625
42418530224,52.625,-17.0625,-11.875
42418544643,43.4375,-16.4375,-11.125
42418566977,21.375,-17.4375,-4.25
42418590109,3.0625,-18.25,3.4375
42418604503,0.625,-20.8125,6.375
42418627052,15.0625,-27.375,7.875
42418650201,24,-29.25,9.5
42418664522,22.6875,-26.3125,11.4375
42418687065,13.9375,-22.0625,10.5
42418710212,3.5625,-18.0625,10.125
42418723759,-9.8125,-15.5625,11.5
42418746291,-18.75,-14.875,11.1875
42418760548,-19.75,-16.3125,11.8125
42418783794,-8.0625,-17.4375,9.75
42418806279,6.625,-18.5,7.3125
42418820535,11.1875,-19.8125,7.0625
42418843780,2.6875,-15.75,3.75
42418873573,-8.3125,-6.1875,-1.0625
42418883455,-6.4375,0.5625,-2.9375
42418903715,4.1875,1.1875,-2.375
42418918093,6.625,1.9375,0.4375
42418940577,1.5625,1.6875,3.375
42418963687,-3.1875,-1.375,4.125
42418978138,-3.9375,-4.125,4.0625
42419000567,-1,-3.375,3.875
42419024253,-2,-0.1875,1.9375
42419038100,-5.9375,1.6875,-0.0625
42419060557,-9.625,2.375,-1.625
42419083775,-9.6875,0.375,-1.9375
42419098036,-3.9375,-3.25,-1
42419120581,0.9375,-6.125,0
42419143742,1.25,-6,0.1875
42419158055,-3.25,-3.75,0.4375
42419180588,-5.5,-2.0625,-0.8125
42419203730,-5.9375,-1,-1
42419218087,-2.9375,-0.75,-1.1875
42419240632,-0.75,-0.9375,-0.5625
42419263764,-1.625,-1.8125,-0.375
42419278088,-1,-2.5625,-0.375
42419300555,2.125,-3.5625,0.25
42419323677,2.5625,-3.125,-0.375
42419338122,1.375,-1.9375,-0.625
42419360590,1.1875,-1.0625,-0.875
42419385201,3,-0.8125,-0.875
42419398133,3.9375,-0.6875,-0.875
42419420654,2.25,-1.6875,-1
42419443043,0.625,-2.9375,-0.25
42419458098,-0.875,-3,0.6875
42419480564,-2.625,-2.4375,1.0625
42419503048,-3.1875,-1.4375,0.25
42419518155,-2.5625,-1.1875,-0.625
42419540638,-2.625,-1.1875,0.0625
42419563108,-0.4375,-1.4375,0.375
42419579499,4.125,-1.625,-0.1875
42419600582,7.5,-1.4375,-0.25
42419623096,5,-1.0625,0.4375
42419638158,0.5,0,0.25
42419660622,1.0625,-0.0625,-0.0625
42419683092,2.3125,-0.5,0.75
42419698130,0.3125,-0.9375,1
42419720577,-2.125,-0.6875,0.5
42419743073,-0.9375,-0.1875,0.4375
42419758146,-0.1875,0.25,0.9375
42419780548,-2.125,0.75,0.625
42419803094,-3.375,0.75,-0.3125
42419818017,-0.25,-0.1875,-0.1875
42419840611,4,-0.9375,0.1875
42419863101,1.625,-0.125,0.3125
42419878152,-2,0.5625,-0.25
42419900578,-0.375,0.4375,-0.4375
42419923164,2.625,-0.4375,-0.125
42419938135,1.125,-0.5,0.25
42419960581,0.6875,0.4375,0.3125
42419983142,2,0.125,1.5
42419998137,3,0.375,1.0625
42420020661,3.5,2.125,1.4375
42420043078,5.75,3.5,1.5625
42420058168,5.6875,2.375,2.25
42420080601,2,1.5625,3.625
42420103133,-2.5625,0.625,4.8125
42420118133,-4.25,0.5,1.875
42420140689,-6.1875,1.5625,2.25
42420163129,-8.6875,2.75,2.6875
42420178125,-6.9375,2.4375,1.75
42420200561,-4.3125,3.125,3.5625
42420223112,-6.125,5.25,4.75
42420239576,-8.6875,8.0625,3.0625
42420260584,-11.625,12.125,3.5
42420283086,-17.125,18.1875,3.375
42420307702,-21.0625,22.5,0.75
42420320620,-21.5,25.0625,-3.9375
42420343019,-20.75,28.9375,-8.4375
42420366324,-22.5,35,-12.375
42420380597,-31,40.4375,-16.375
42420411223,-49.625,49.0625,-17.875
42420425557,-75.9375,58.125,-19.75
42420448822,-91.3125,64.4375,-27
42420463111,-90.625,65.625,-37.125
42420485638,-86.375,66.5,-40.3125
42420500628,-87.25,69.3125,-40.375
42420523084,-96.875,69.5625,-43.25
42420545640,-116.75,67.75,-42.875
42420560637,-134.625,64.875,-39.1875
42420583123,-141.938,59.5,-33.5
42420605661,-135.688,55.6875,-26.0625
42420620604,-119.625,51.9375,-22.375
42420643071,-97.1875,49,-15.1875
42420665523,-102.25,49.4375,1
42420680513,-114.125,47.375,8.625
42420703051,-106.062,42.25,6.6875
42420725480,-81.875,37.125,3.8125
42420740597,-69.5625,39.5625,6.5625
42420763066,-71.9375,43.4375,5.1875
42420785612,-61.6875,42.25,1.3125
42420800644,-48.875,38.9375,1.3125
42420823186,-41.4375,35.5625,-0.9375
42420845594,-34,31.8125,-6.625
42420860630,-27.5625,27.625,-9.75
42420883100,-25.6875,22.25,-7.0625
42420905620,-24.125,17.4375,-3.4375
42420920677,-22.625,12.3125,-4
42420943033,-19.75,7.1875,-3.1875
42420965563,-19.25,3.0625,-0.3125
42420980510,-17.0625,-0.0625,2.875
42421003138,-9.875,-2.5625,4.125
42421025641,-3.125,-3.6875,5.375
42421040641,-2.0625,-2.4375,5.875
42421063080,-8,-0.3125,6.8125
42421079554,-12.5625,1.0625,7.9375
42421100683,-8,0.1875,7.5625
42421123141,6.875,-0.875,4.9375
42421139581,18.125,0.0625,4.6875
42421162030,14.75,1.6875,5.6875
42421183164,3,3.375,6.0625
42421199554,-1.875,3.6875,5.5
42421221999,3.5,1.75,5.3125
42421243116,8,0.4375,5.8125
42421259498,6.375,-0.6875,5.5625
42421282020,1.3125,-0.5625,4.5625
42421303130,-0.875,-1.5,4.8125
42421319581,-1.8125,-3.75,5.6875
42421342054,0.375,-4.75,5.25
42421372701,4,-6.3125,4.75
42421379590,6.4375,-7.5625,4.1875
42421402032,2.5625,-7.6875,3.75
42421423105,-1.5625,-7.25,2.9375
42421439595,0.75,-7,2
42421462096,5.4375,-7.875,1.4375
42421483140,5.875,-9.25,0.8125
42421499562,5.0625,-9.25,0.375
42421522083,5.125,-9.3125,-0.4375
42421543103,5.875,-9.375,-1
42421559538,6.3125,-10.125,-1.4375
42421582089,1.5,-11.0625,-1.125
42421603159,-2.875,-12.125,-0.875
42421619585,-2.625,-11.9375,-0.75
42421642046,1.75,-10.9375,-0.625
42421663123,2.75,-8.5,-0.625
42421679554,1.0625,-6.375,-0.75
42421702048,0.1875,-4.6875,-0.3125
42421723093,-0.8125,-3.3125,-0.0625
42421740982,1.375,-3.875,-0.1875
42421762012,2.25,-4.1875,0.8125
42421783115,1.8125,-5.1875,1.625
42421799599,1.9375,-7.125,1.625
42421822088,3.5,-9.0625,1.3125
42421843073,5.75,-11.3125,1.5
42421859517,5.875,-15,2.125
42421882098,4.625,-19.3125,1.625
42421903178,11.5625,-23.0625,-0.4375
42421933859,25.75,-27.0625,-0.0625
42421942126,32.6875,-30.6875,2.25
42421963182,29.0625,-35.25,2.875
42421985711,29.8125,-41.6875,-0.5625
42422002042,37.875,-45,-4.3125
42422023148,53,-47.0625,-8
42422045678,65.8125,-52.4375,-3.1875
42422062110,67.5,-58.9375,4.625
42422083089,53.3125,-64.625,3.5625
42422105647,45.375,-67.6875,-7
42422122056,67.5625,-71.3125,-8.4375
42422144527,102.25,-69.9375,5.5625
42422165632,95.5,-65.125,15.3125
42422182044,57.1875,-61.5625,15.25
42422204506,45.8125,-61.25,1.75
42422225619,67.875,-59.6875,-2.125
42422242018,87.125,-52.0625,12.25
42422264543,70.6875,-45.6875,19
42422293733,53.0625,-42.3125,8.6875
42422302004,63,-39.0625,-3.375
42422324534,85.625,-34,2.8125
42422345673,71.125,-27.6875,22.3125
42422362059,50.9375,-23.125,29.75
42422384596,57.375,-24.625,22.625
42422405596,93.5625,-27.0625,15.9375
42422422034,112.938,-20.8125,18.9375
42422444510,92.25,-13.875,19.3125
42422465659,67.0625,-12.6875,11.1875
42422481980,63.25,-15,7.625
42422504649,58.8125,-13.3125,10.8125
42422525650,45.4375,-11.625,6.4375
42422542123,45.4375,-13.625,-3.0625
42422563808,54.25,-15.5625,-8.5625
42422586262,61.0625,-16.875,-10.25
42422601265,46,-14.8125,-6.5
42422623501,20.5,-13.5625,-5.6875
42422646256,14.125,-15.75,-7.6875
42422661229,10.75,-15.0625,-4.8125
42422683830,-19.75,5,-4.8125
42422706355,-23.625,15.125,-5.9375
42422721390,-2.4375,10.6875,-5.125
42422743836,19.375,4.3125,-6.125
42422766322,19.8125,2.25,-2.375
42422781322,13.125,0.25,0.875
42422805265,6.9375,-3.75,2.75
42422826267,-1.4375,-7.1875,4.375
42422841257,-8.25,-10.75,4.9375
42422863740,-8.875,-11.625,2
42422886240,-5.3125,-7.875,-0.1875
42422901017,-8.0625,0.6875,-2.5625
42422923704,-7.375,5.8125,-4.4375
42422946369,-3.3125,5.1875,-4.875
42422961330,2.4375,0.6875,-3.8125
42422983820,6.5,-3.125,-3.3125
42423006272,7.8125,-3,-0.5
42423021295,4.875,-0.125,-0.9375
42423043843,-2.25,3.8125,-3
42423066353,-6.8125,6.625,-4.375
42423081336,-5.5625,6.625,-4.125
42423103789,-3.125,3.9375,-3.25
42423126313,-0.875,-0.75,-1.9375
42423141223,-0.1875,-6.75,-1.5
42423165227,-3.3125,-11.9375,-1.3125
42423186285,-5.75,-14.25,-1.125
42423201262,-6.9375,-13.9375,-2.0625
42423223751,-12.5625,-12.875,-4.3125
42423246341,-18.75,-13.25,-5.5
42423262810,-20.1875,-13.8125,-4.875
42423283850,-15.4375,-13.6875,-4.125
42423306352,-6.375,-13.5625,-1.75
42423322814,-3.375,-10.875,0.5
42423343899,-4.5625,-7.25,0.625
42423366298,-3.375,-4.3125,2.875
42423382820,0,-2.625,2.9375
42423403826,3.3125,-1.3125,2.25
42423419585,6.375,0.75,2.3125
42423442784,8.9375,3.5625,2.375
42423463811,9.8125,6.3125,2
42423479521,11.875,9.5,3
42423502691,16.875,13.25,5.0625
42423523785,14.75,14.4375,4.4375
42423546220,3.375,10.4375,1.875
42423562722,-1.3125,4.5,2
42423583770,3.875,-0.125,1.25
42423606357,6.125,-3,-0.375
42423622784,3.0625,-3.5625,-0.9375
42423643920,-5.5625,-1.75,-1.4375
42423659573,-10.9375,0,-1.3125
42423682689,-6.75,0.9375,0
42423703862,-1.0625,1.6875,0.5625
42423727784,-0.9375,3.3125,0.5625
42423742778,-0.0625,4.3125,0.0625
42423763822,6.625,3.5625,-0.9375
42423786343,13.75,2.875,-0.1875
42423802761,11.1875,3.6875,1.6875
42423823778,9.3125,2.4375,1.25
42423846239,13.5625,1.6875,0.125
42423862704,22.875,0.1875,-1.6875
42423883802,22.125,0.5,-3.3125
42423906332,16.8125,7.375,-7.375
42423922724,13.625,23.4375,-17.375
42423943816,22.125,33.9375,-30.8125
42423966380,22.375,31.125,-40.25
42423982743,17.8125,26.5,-56.6875
42424003841,-6.25,25.625,-78.5625
42424026303,-31.875,28.9375,-87.875
42424042185,-48.625,32.4375,-89.1875
42424063881,-44.5625,34.3125,-90.375
42424086413,-47.3125,37.625,-89.5
42424102081,-44,41.4375,-87.875
42424123935,-33.4375,41.4375,-83.0625
42424146402,-20.125,42,-77.9375
42424162129,-23.9375,40.4375,-70.625
42424185286,-40.5625,40.6875,-66.5
42424206320,-51.625,42.375,-62.25
42424222115,-56.25,37.625,-54.8125
42424245303,-45.5,28.75,-43.125
42424266308,-32.625,23.5625,-20.1875
42424282065,-25.0625,17.0625,-2.75
42424305228,-23,20.3125,5.125
42424326240,-33,19.75,13.5
42424342043,-26.3125,20.0625,22.375
42424365200,0.125,14.25,26.875
42424386314,3.9375,10.3125,28.75
42424402051,5.875,10,21.0625
42424425909,8.8125,9.5,10.9375
42424446352,16.75,4.1875,7.5625
42424462157,20.1875,-1,11
42424492752,12.5,-3.1875,13.3125
42424506536,-0.0625,0.375,15.5
42424522132,0.1875,0.9375,15.4375
42424545328,11.0625,-4.1875,12.875
42424566400,20.5625,-9.75,13.625
42424582157,29.625,-10.75,16
42424606783,24.3125,-8.75,16.4375
42424626357,5.5625,-5.1875,14.9375
42424650295,-12.3125,-3.5,13.4375
42424665348,-26.375,-0.3125,10.375
42424686371,-23,0.625,5.875
42424710352,-7.875,2,6.1875
42424725316,6,-0.8125,6.125
42424746375,10.5,-1.3125,6.4375
42424762075,4.625,-4.875,9.3125
42424785299,-8.8125,-6.9375,10.625
42424806417,-30.3125,-8.4375,11.625
42424822199,-41.0625,-10.375,11.4375
42424845331,-38,-12.0625,13.9375
42424866385,-32.875,-11.5,14.125
42424882129,-26.75,-10.0625,8.5
42424905333,-18.625,-8,10.6875
42424927833,-5.3125,-4.875,10.75
42424942198,1.875,-3.625,9.6875
42424964626,0.4375,-3.8125,7.3125
42424986467,4.1875,-2.8125,8.0625
42425002076,7.8125,-4.3125,8.0625
42425024649,-1.8125,-4.625,6.5625
42425046421,-9.3125,-6.0625,5.25
42425062099,-9,-8.125,4.5625
42425084583,-10.1875,-7.9375,5.0625
42425106303,-11.9375,-4.9375,3.875
42425128803,-7.3125,-2.9375,2.125
42425144547,0.9375,-1.5,1.6875
42425167501,3.5625,-1.4375,1.625
42425182098,3.375,-0.9375,1
42425204558,2.75,-1.1875,0.8125
42425227780,0.625,-0.5,0.6875
42425242104,-2.5625,0.875,0.0625
42425264623,-2.4375,1.375,-0.375
42425287749,1.9375,1.1875,0.125
42425302055,2.875,1.3125,0.1875
42425324614,0.5625,1.25,-0.5
42425347824,0.4375,0.625,-1.4375
42425362210,0.3125,0.125,-0.625
42425384671,0.4375,-0.125,0.25
42425407867,-0.8125,0.5625,0.5
42425422182,-1.25,0.5625,0.375
42425444676,-0.5,0.4375,-0.4375
42425467835,1.3125,0,-0.375
42425488974,2.1875,-0.375,-0.1875
42425504710,-0.0625,-0.0625,-0.0625
42425527895,-2.3125,0.5625,-0.1875
42425542183,-1.5625,0.625,-0.4375
42425564731,-0.5,0.5,-0.5625
42425587779,-0.5625,0.875,-0.4375
42425602104,-1.75,1.3125,-0.25
42425632739,-1.25,0.9375,-0.3125
42425647765,-0.625,0.1875,-0.125
42425668801,-1.625,-0.3125,0.25
42425684559,-3.125,0.25,-0.3125
42425707830,-2.125,0.4375,-0.4375
42425728848,0.4375,-0.3125,0.0625
42425744588,0.3125,-0.375,0.0625
42425767782,-1.75,0.1875,-0.1875
42425788848,-0.8125,-2.375,-1.125
42425804588,4.5625,-7.125,-2.875
42425827786,4.5,-7.1875,-3.0625
42425848932,-2.0625,-4.8125,-2.25
42425864645,-7.5625,-3.625,-1.125
42425887186,-8.1875,-3.875,-0.625
42425908899,-5.25,-5.25,-2.3125
42425924674,6.1875,-9.375,-4
42425947188,27.875,-8.75,-0.25
42425968834,41.1875,-5.0625,-0.1875
42425984652,28.375,-8.625,-4.9375
42426007124,13.25,-6.125,-11
42426028827,5.3125,-3.5,-17.5
42426044740,4.875,-1.25,-20.125
42426067200,3.6875,3.375,-24.1875
42426090374,-11.9375,6.375,-30.875
42426104720,-29.6875,7.625,-40.0625
42426127203,-26.75,4.25,-51.375
42426150370,-20.0625,3.625,-65.0625
42426164711,-14.875,3.6875,-78.5625
42426187248,-12,3.1875,-87.5
42426210277,-12.0625,0.3125,-98.625
42426224723,-15.5625,-2.3125,-109.688
42426247218,-20.5625,-4,-117.312
42426270291,-26.375,-3.6875,-123.375
42426284660,-30.6875,-1.25,-127.938
42426307138,-28.5,-3.375,-130.5
42426330301,-30.3125,-7.3125,-131.75
42426344716,-30.9375,-7.6875,-130.75
42426367277,-30.625,-6.4375,-127.75
42426390319,-32.9375,-5.25,-124.938
42426403223,-34.875,-3.875,-122.5
42426426369,-31.875,-4.1875,-119.062
42426440724,-28.0625,-4.1875,-115.5
42426463276,-30.5625,-4.125,-112.438
42426486448,-32,-6.25,-107
42426500673,-27.4375,-8.9375,-98.1875
42426523251,-21.625,-9.9375,-91.375
42426554380,-27.75,-8.625,-91.375
42426562219,-35.4375,-7.625,-93.5625
42426583172,-30.3125,-11.1875,-90.5625
42426606515,-8.1875,-16.4375,-82.25
42426620788,-3.6875,-16.5625,-79.375
42426643227,-19.5625,-14,-83.5625
42426666510,-25.9375,-11.375,-83.1875
42426680776,-9.625,-11.9375,-77.75
42426703222,-5.8125,-7.4375,-78.25
42426726506,-14.9375,-7.125,-79.8125
42426740720,-13,-13.3125,-75
42426763233,-5.5,-6.875,-72.4375
42426786266,-5.5,-14.5625,-59
42426800721,-4.125,-4.375,-55.6875
42426823221,-12.6875,-6.3125,-48
42426846437,-6.4375,-11,-42.8125
42426860691,-5.0625,-11.3125,-39.5
42426883205,-5.5625,-5.6875,-38.25
42426906503,-5.5,-5.1875,-37.3125
42426920815,-7.1875,-4.4375,-32.125
42426943189,-9.875,-5.5,-25.1875
42426966455,-1.1875,-8.6875,-17.75
42426980729,-4.875,-6.4375,-21.25
42427003192,-13.375,-5.25,-22.875
42427026304,-20.6875,-2.1875,-20.75
42427048879,-20.625,-1.75,-16.5625
42427072100,-18.875,-1.1875,-11.375
42427086482,-15.625,0,-5.0625
42427100776,-23.3125,3.8125,-2.75
42427123302,-32,6.5625,-3.5
42427153667,-33.0625,7.4375,-5.8125
42427163648,-25.875,6.0625,-2.9375
42427183236,-26.9375,9.875,-4.0625
42427206491,-29.4375,10.75,-7.3125
42427220744,-29.625,11.375,-10.5625
42427243335,-29.9375,11.8125,-14
42427266399,-27.125,10.5625,-12.3125
42427280805,-25.8125,9.8125,-10.375
42427312022,-25.6875,9.375,-11.375
42427326508,-28.1875,9.25,-12.5
42427340688,-28.9375,9.125,-12
42427363197,-23.375,8.5625,-9.5
42427386448,-16.5625,8.125,-6
42427400730,-15.4375,7.75,-7.75
42427423282,-16.375,4.375,-10.0625
42427446462,-15.1875,3.625,-9.8125
42427460748,-16.5,4.125,-8.5625
42427483272,-17.75,4.625,-7.9375
42427506505,-12.9375,4.5,-7.5625
42427520682,-9.25,3,-7.5625
42427543310,-9.25,2.75,-5.3125
42427566450,-8.125,2.375,-3.3125
42427580837,-7.1875,1.9375,-2.375
42427603169,-5.9375,1.3125,-1.8125
42427626408,-1.8125,1.625,-0.8125
42427640755,0.0625,4.1875,0.375
42427663262,-2,5.625,1.0625
42427686489,-1,2.75,-1.1875
42427700751,0.3125,0.9375,-2.875
42427723292,2.1875,1.8125,-1.875
42427746412,0.75,3.9375,0.125
42427760818,-0.8125,4.3125,0.375
42427783322,2.4375,1.5625,0.625
42427806459,5.1875,-1.1875,1.875
42427820796,5.375,-2.25,2.9375
42427843210,4.1875,-1.3125,2.25
42427866494,2.9375,-0.5625,2.3125
42427880755,2,-1.0625,2.0625
42427904658,3.75,-1.75,2.125
42427926494,6.25,-2.5,3.125
42427940771,6.625,-2.625,3.625
42427963334,6.5625,-2.625,4.1875
42427987248,6.4375,-2.3125,5.5
42428000823,10.125,-2.875,7.75
42428023274,14.75,-2.125,8.375
42428045731,20.375,-2.625,9.4375
42428060763,26.8125,-4,9.6875
42428083309,32.6875,-7.0625,9.6875
42428105831,37.625,-9.8125,5.9375
42428120794,37.25,-12.0625,1.875
42428143246,27.6875,-10.5625,0.9375
42428165873,18.125,-7.5625,2.0625
42428180771,10.8125,-4.625,2.375
42428203300,8.6875,-2.5,2.3125
42428225795,10.6875,-1.125,3.8125
42428240726,13.6875,-0.25,8.625
42428263156,13.625,-0.3125,12.4375
42428285669,14.6875,-1.75,12.8125
42428300676,15.125,-1.9375,12.8125
42428323245,12.4375,-0.5625,13.875
42428345753,9.5625,1.8125,15.8125
42428360689,9.75,3,16
42428383207,10.375,2.625,19.0625
42428405713,10.875,3.6875,25.6875
42428420724,10.125,6.25,34.6875
42428443215,9.0625,8.75,42.9375
42428465696,13.75,9.5625,51.8125
42428480722,18.25,10.75,61.75
42428503285,21.6875,12.3125,73.4375
42428525840,27.875,14.4375,85.1875
42428540840,27.3125,16.75,93.625
42428563322,32.25,18.125,101.312
42428585734,43.6875,17,114.375
42428600715,51.25,19.1875,128.438
42428631489,52.625,22,135.375
42428645722,51.9375,21.5625,135.938
42428660868,51.5625,20.25,136.625
42428683302,51.625,20.25,144
42428705805,54.625,22.0625,151.062
42428720826,50.0625,23.8125,149.062
42428743315,35.875,19.875,141.562
42428765836,24.1875,10.4375,138.688
42428782265,32.25,1.625,143.938
42428803321,44.375,-1.75,149.875
42428825819,36.3125,-0.5,139.062
42428842168,10.125,-0.4375,124.625
42428863297,-0.5625,-3.9375,120
42428885816,15.875,-7.5,125.625
42428910468,33.1875,-6.875,123.375
42428923312,27.8125,-3.0625,106.438
42428945768,15.5,-1.4375,92.0625
42428962228,15.375,0.4375,87.75
42428983317,25.5,1.4375,85.875
42429013992,23.5625,3.3125,76.375
42429022232,8.4375,3.9375,63
42429051476,0.4375,3.1875,53.875
42429065764,2.875,1.8125,50
42429082286,9.375,1.5625,44.5625
42429103235,10,1.0625,38
42429125690,5.0625,0,32.4375
42429142174,-1.3125,-0.4375,30.625
42429163266,-3.375,1.75,29.9375
42429185736,-2.125,3.3125,29.0625
42429202147,1.375,3.5625,26.8125
42429223270,7.5625,3.5625,24.375
42429245793,11.3125,3.3125,22.375
42429262207,13.5625,1.375,20.5
42429283245,12.4375,1,19.9375
42429305771,9.25,0.25,19.75
42429322260,8.1875,0.625,16.0625
42429343301,4.5625,2.9375,9.6875
42429365830,-5.1875,7.125,0.1875
42429382237,-13.6875,7.875,-3.875
42429403240,-2.4375,6.625,-2.4375
42429425786,14.625,5.9375,2.8125
42429442349,15.9375,7,7.125
42429463279,11.375,8.8125,8.4375
42429485850,0.3125,10.75,6
42429502277,-2.125,11.6875,3.875
42429523353,4.4375,9.125,2.4375
42429545803,13.4375,6.625,2.4375
42429563708,11.0625,6.25,2.0625
42429583287,-1.0625,6.625,1
42429607260,-10.0625,6.875,1.625
42429622344,-12.1875,5.1875,1.6875
42429643278,-12.1875,3.125,1.3125
42429665818,-11.5,1.875,1.875
42429682174,-8.6875,0.875,2.4375
42429704733,-8.0625,0.3125,2.9375
42429733983,-11.5625,1.125,3.625
42429742211,-11.625,0.8125,2.8125
42429764735,-6.875,-0.625,2.5
42429785737,-2.75,-1.4375,2.5625
42429802189,-1.375,-1.3125,1.875
42429824696,-2.5,-1.3125,0.8125
42429845843,-3.6875,-1.9375,0.25
42429862188,-3.1875,-2.625,1.25
42429884771,-3,-2.625,2.0625
42429914061,-5.1875,-1.75,1.5
42429922189,-6.75,-0.875,0.4375
42429944854,-5.1875,-1.0625,-0.1875
42429974011,-2.25,-1.1875,0.0625
42429982272,-1.5,-0.6875,-0.3125
42430004720,-1.4375,-0.5625,-1.0625
42430025852,-2.0625,-0.875,-1.25
42430042200,-4.875,-0.75,-1.0625
42430064788,-5.125,-1.1875,-0.8125
42430085834,-4.5625,-1.5625,-0.5625
42430102190,-3.375,-1.9375,-0.375
42430124796,-3.1875,-1.5625,-0.3125
42430154091,-2.1875,-1.1875,-0.125
42430162299,-2.3125,-0.9375,0.375
42430184829,-2.0625,-0.375,0.3125
42430205860,-0.4375,-0.375,-0.125
42430222288,0.6875,-0.5,-0.3125
42430244737,0.1875,-0.3125,-0.1875
42430266412,-1.1875,0.125,-0.375
42430281404,-1.625,0.25,-0.5625
42430303882,-1.3125,-0.4375,-1.0625
42430326395,-1.1875,-0.625,-0.6875
42430342830,-1.5625,0,-0.3125
42430363955,-1.875,-0.125,-0.5
42430386437,-1,-0.4375,-0.125
42430401390,-0.125,-0.625,0.625
42430423992,0.1875,-0.875,1.1875
42430446427,0.5,-1.1875,1
42430461466,-0.25,-0.9375,0.5
42430485382,-0.9375,-0.875,0.1875
42430506408,-1.6875,-0.6875,0.25
42430521456,-1.25,-0.9375,0.125
42430543907,-1.5,-1.0625,0.0625
42430566872,-1.625,-1.1875,0.25
42430581440,-1.5625,-0.8125,0.25
42430603905,0.0625,-0.5,0.0625
42430626460,0.5,-0.1875,0
42430641404,0.25,0,0.0625
42430663929,0.0625,-0.0625,-0.3125
42430686476,-0.125,0,-0.0625
42430701410,-0.4375,-0.0625,0.0625
42430723970,-1,-0.375,-0.1875
42430746467,-0.6875,-0.5,0
42430761432,0.6875,-0.75,0.375
42430784024,3,-1.1875,0.625
42430806453,8.25,-3.0625,0.3125
42430821465,13.8125,-6.875,1.5
42430843957,16.625,-16.25,5.8125
42430866455,10.6875,-17.3125,8.3125
42430882852,14.75,-18.8125,4.75
42430903932,21.9375,-16.8125,-3
42430926417,39.25,-11.25,-9.8125
42430942913,39.1875,-8.4375,-12.375
42430971447,23.5,-8.3125,-17.25
42430986462,-1.9375,-7.4375,-25.625
42431002848,-23.6875,-3.8125,-35.1875
42431023941,-29.25,0.5625,-44.9375
42431046449,-21,0.875,-54.625
42431062891,-9.6875,-1.25,-66.4375
42431083969,-1.625,-3,-79.0625
42431106421,-2.5,-2.1875,-88.6875
42431122875,-11.625,-0.75,-97.5625
42431143940,-24.9375,1.375,-104.938
42431166434,-36.3125,2,-112.938
42431182864,-39.4375,2.875,-119.75
42431203973,-37,2.875,-124.438
42431226454,-33.625,2.75,-127
42431242916,-32.75,2.1875,-130.812
42431263935,-36.625,-0.6875,-132.812
42431286461,-38.25,-4.75,-131.312
42431302883,-36.125,-5.625,-129.438
42431323974,-35.75,-3.8125,-130.312
42431346465,-43.8125,-2.0625,-133.062
42431362885,-50.125,-2.8125,-131.438
42431383933,-43.125,-4.0625,-123.25
42431407908,-36.125,-4.875,-116.625
42431422877,-36.3125,-5.9375,-114.375
42431443966,-41.25,-4.8125,-114.562
42431466472,-41.6875,-3.5,-109.875
42431482864,-33.125,-3.875,-100
42431503951,-23.5,-4.3125,-94.125
42431527857,-27.0625,-3.6875,-93
42431542881,-36.6875,-3.9375,-90.6875
42431564146,-31.9375,-0.75,-85.25
42431586492,-31.5,-8.8125,-73.6875
42431602234,-13.375,-2.375,-72.5
42431623962,-24.0625,-0.25,-69.5
42431646472,-30.1875,-6.0625,-66.875
42431662242,-28.5625,-10.4375,-64.125
42431683936,-22.6875,-8.4375,-60.0625
42431706435,-20.5625,-8.625,-53.6875
42431722242,-19.1875,-10.5,-51.875
42431743969,-19.1875,-10.6875,-53.5625
42431766456,-17.125,-10.0625,-53.75
42431782216,-16.3125,-10.8125,-52.25
42431805361,-17.125,-12.1875,-48.75
42431826479,-17.125,-14,-46.875
42431842285,-18.75,-12.4375,-44.0625
42431865430,-20.8125,-9.6875,-38
42431886477,-20.375,-7.625,-33.375
42431902226,-16.5625,-8.625,-27.1875
42431925412,-15.6875,-7,-22.4375
42431946442,-16.375,-9.1875,-20.8125
42431962255,-19,-9.5,-17.5
42431985442,-22.0625,-7.6875,-12.875
42432006477,-27.125,-4.625,-10.5
42432022250,-27.625,-4.125,-9.375
42432045378,-19.75,-4.5625,-6.0625
42432067905,-12.1875,-5.125,-4.4375
42432082300,-9.125,-3.625,-7.9375
42432105433,-11.1875,-2.0625,-13.6875
42432126526,-16.0625,-2,-16.4375
42432142256,-16.8125,-3.9375,-18.6875
42432165451,-12.1875,-8.875,-19.375
42432186583,-12.5,-9.9375,-17.375
42432202252,-13.875,-8.125,-17.75
42432225451,-9.875,-9,-17.6875
42432246476,-11.5625,-7,-15.4375
42432262296,-10.5,-6.0625,-13
42432285447,-7.5,-4.4375,-10.75
42432306547,-12.5625,-6,-9.875
42432330446,-13.1875,-7.75,-9.625
42432345390,-11.1875,-7.5,-6.75
42432366530,-10.25,-5.875,-1.875
42432382262,-12.8125,-5.6875,0.375
42432405455,-8.75,-5.4375,1.0625
42432426578,-7.75,-4.1875,-0.8125
42432442289,-8.9375,-3.5625,0.5625
42432465472,-9.75,-2.75,0.3125
42432486525,-8.9375,-2.3125,-3.4375
42432502356,-7.5625,-2.375,-4.875
42432524879,-5.875,-0.5625,-3.875
42432546450,-3.125,-0.625,-2.8125
42432562341,-1.9375,-3,-2.3125
42432584799,-1.8125,-4.25,-2.4375
42432606549,-2.125,-2.375,-0.5
42432622341,-4.6875,1.3125,0.625
42432644890,-5.5625,3.75,-0.375
42432666498,0.25,0.5625,-2.6875
42432682345,3.4375,-1.3125,-3.3125
42432704861,-0.8125,0.1875,-1.1875
42432728019,-5.5625,1.375,-0.875
42432742322,-4.75,2.3125,-0.9375
42432764873,-0.5,2.6875,0.0625
42432788035,-0.0625,1.5625,-0.375
42432802315,0.25,0.75,-1.5
42432824820,-2.8125,2.375,-1.5
42432848031,-5.0625,3.5625,0.0625
42432862278,-2.4375,3.4375,-0.1875
42432884789,0.1875,1.125,-0.5625
42432907968,2.3125,0.1875,-0.25
42432922305,1.4375,-0.75,1.75
42432944833,-1.0625,-1.125,3.375
42432967978,0.3125,-1.875,3.75
42432982397,4,-3.3125,5.625
42433004768,5.8125,-3.375,5.9375
42433027988,5.5625,-3.0625,5.9375
42433042267,6.1875,-3.25,6.6875
42433064896,8.875,-4,8.125
42433087988,12.0625,-3.875,9.9375
42433102286,13.5625,-3.9375,11.3125
42433124853,15.6875,-3.3125,14
42433147978,17,-3.3125,15.75
42433168998,19.125,-4.75,17
42433184746,19.25,-6.5625,17.6875
42433208032,18.8125,-8.25,17.375
42433229023,22.4375,-8.125,17.75
42433244821,24.125,-5.3125,16.9375
42433267963,23.75,-2.9375,16.1875
42433289034,22.25,-1.125,17.5
42433304771,21,1.5,18.6875
42433327975,18.3125,6.1875,20.4375
42433349058,20,9.8125,21.5625
42433364811,21.3125,13,26.125
42433388004,17.375,18.3125,33
42433409055,13.375,27.3125,41.75
42433424781,17.5,33.3125,46.75
42433455501,24.3125,35.75,51.1875
42433469100,27.375,34,57.375
42433484814,29.8125,28.6875,65.375
42433507268,34.5,24.8125,73.3125
42433529049,36.625,21.625,76.8125
42433544855,37.4375,16.5,78.125
42433567306,42.625,11.8125,81.375
42433588997,38.6875,12.6875,87.75
42433604752,21.75,14.9375,90.9375
42433627242,19.125,7.625,91.375
42433650392,37.1875,-0.3125,93.8125
42433664771,48.75,-2.8125,98.4375
42433687389,43.25,-0.3125,101.188
42433710430,35.375,-2.8125,101.25
42433731509,35.25,-7.9375,104
42433747274,38.625,-9.875,110.312
42433770483,34.9375,-6.375,116.375
42433784737,27.0625,-6.4375,116.5
42433807271,27.25,-9.8125,116.375
42433830458,28.625,-13.5,119.812
42433844865,30.875,-11.6875,123.75
42433867269,25.8125,-5.5625,121.625
42433890464,18.875,-2,117.125
42433904864,21.4375,-0.875,116.062
42433927411,25.125,-3.1875,116.375
42433950539,33.875,-5.75,113.188
42433971548,37.6875,-4.125,107.25
42433987401,26.1875,2.9375,96.9375
42434010943,12.5625,5,88.3125
42434031563,17.5625,0.875,85.9375
42434055544,31.25,-4.3125,84.875
42434070539,31.5625,-3.3125,81.125
42434091569,20.5625,1.25,74.375
42434107391,9.125,0.75,65.75
42434120926,6.125,0.3125,62.9375
42434143420,8.75,-1.75,62.875
42434166476,13.9375,-3.1875,57.8125
42434180830,15.3125,-1.4375,47
42434203412,12.375,-0.3125,39.125
42434234827,9.875,-1.3125,37.25
42434240981,9.125,-1.3125,34.5625
42434263429,6.625,0.25,28.25
42434287074,6.1875,2.0625,21.5
42434300836,9.1875,1.3125,19.0625
42434323466,12.8125,-0.4375,19.125
42434346524,10.9375,-0.6875,19.25
42434360946,4.5625,1.4375,19
42434383450,-1.125,4.5,15.9375
42434406575,4.625,6.125,9.9375
42434420917,2.9375,4,4.1875
42434444110,1.625,1.6875,1.4375
42434466599,5.1875,1.6875,2.1875
42434480900,0.375,2.375,4.1875
42434503416,-3.1875,1.3125,7.5625
42434526616,-4.75,1.4375,10.0625
42434549058,-6.375,2.0625,12.1875
42434563378,-4.4375,1.375,13.8125
42434586583,-5.4375,2.9375,12.4375
42434600909,-10.5625,6.0625,5.9375
42434623492,-16.1875,4.6875,1.1875
42434646650,-10.9375,0.8125,1.125
42434660935,2.8125,-1.5,2.875
42434684918,3.3125,-1.3125,3.125
42434706658,-7.3125,-0.0625,2.125
42434720933,-16,-0.1875,0.5625
42434743447,-16.9375,-2.0625,-0.25
42434766630,-15.5625,-1.75,0.5
42434780967,-10.5,-0.8125,1
42434803455,-3.875,-0.5625,1.1875
42434826616,-0.375,0.4375,1.125
42434840920,-0.125,2.1875,-0.4375
42434863466,-2.3125,3.125,-1.375
42434886517,-0.5625,2.5,-1.5625
42434900833,2.6875,1.3125,-1.8125
42434923498,2.9375,0.3125,-1.8125
42434946665,0.25,0.5,-1.4375
42434960974,-3.1875,0.6875,-0.4375
42434983519,-4.8125,0.8125,-0.0625
42435006578,-3.5625,0.75,0.4375
42435020916,-0.3125,0.25,0.9375
42435043504,1.25,0.0625,0.5625
42435066630,0.75,0.0625,0.625
42435081005,-0.125,0.25,0.5625
42435103396,-1.125,0.3125,0.3125
42435126598,-0.9375,0.125,-0.125
42435140908,-0.375,-0.625,0
42435163473,0.125,0.0625,0.4375
42435186409,-0.375,0.4375,-0.375
42435200961,-0.5625,-0.75,-1.5625
42435223499,3.5625,-3.1875,-0.625
42435246656,6.4375,-1.75,-0.125
42435261003,6.125,-0.125,0.0625
42435283489,6.875,1.8125,0.4375
42435306660,8.3125,2.8125,1.3125
42435320863,8.3125,2.8125,1.0625
42435343481,7.75,2.9375,0.4375
42435366610,8.0625,3.5,-0.875
42435380922,7.1875,3.375,-2.1875
42435403442,7.4375,2.6875,-1.625
42435426654,7.6875,2.125,-0.4375
42435440952,2.75,1.0625,-0.125
42435463446,-3.1875,0.6875,-0.1875
42435486599,-5,1.375,0.625
42435500966,-4.375,1.125,0.6875
42435523530,-0.625,-0.3125,-0.3125
42435545924,2.1875,-0.25,-0.875
42435560995,2.625,0.3125,-0.5625
42435583439,2.4375,0.6875,0.0625
42435605905,1.1875,1,0.375
42435620981,-0.0625,0.5,0.25
42435643488,-0.0625,0.3125,0.375
42435667416,0.625,-0.125,0.375
42435680918,0.625,-0.1875,0.3125
42435703480,1.3125,-0.125,0.625
42435725972,1.1875,-0.125,0.75
42435740937,0.4375,0.1875,0.4375
42435763478,-0.375,0.6875,0.375
42435785934,0.625,0.875,0.4375
42435800922,2.875,1.4375,0.375
42435823479,3.9375,1.5,-0.0625
42435845911,3.3125,1.375,-0.0625
42435860955,2.6875,0.625,0.4375
42435883538,1.0625,0.3125,0.25
42435905934,0.5,-0.3125,-0.1875
42435920954,1.125,-0.75,0.25
42435943517,1.3125,-0.6875,0.875
42435965948,0.625,-1.125,0.6875
42435980946,0.8125,-1.8125,0.5
42436003498,0.25,-1.8125,0.25
42436025909,-0.4375,-0.4375,0.5625
42436040946,-0.9375,0.5,0.3125
42436063453,-0.75,0.625,-0.625
42436085859,-1.1875,0.5625,-0.4375
42436100893,0.4375,-0.5625,-0.5625
42436123376,1.75,-2.3125,-0.375
42436145822,3.6875,-4.4375,1.3125
42436160858,10.125,-5.3125,3.5
42436183409,29.875,-4.9375,3.5
42436205887,33.375,-9.9375,0.5625
42436220830,27.0625,-9.1875,-2.5
42436243394,7.25,-7.1875,-1.5625
42436265875,-13.9375,-9.6875,-7.1875
42436280869,-14.3125,-15.25,-12.8125
42436303385,-2,-18.3125,-13.75
42436325915,14.8125,-14.625,-21.375
42436342453,7.9375,-7,-33.125
42436363533,-7,-1.375,-45.375
42436385941,-15,2.25,-54.125
42436402364,-18.3125,2.5,-61.8125
42436423451,-15.25,-0.1875,-70.5625
42436445955,-11.9375,-1.0625,-78.75
42436462392,-14.375,0.875,-84.5
42436483456,-24.3125,3.875,-91
42436505983,-28.4375,4.375,-98.125
42436522442,-25.375,3.375,-106.312
42436543530,-21.9375,3.75,-114.625
42436565888,-24.8125,4.1875,-120.312
42436589943,-30.1875,2.9375,-125.25
42436603448,-34.8125,3.125,-127.375
42436626019,-35.8125,3,-129.5
42436642464,-38,2.8125,-131.375
42436663499,-38.375,2.375,-133.062
42436685942,-30.1875,0,-132.125
42436702385,-25.6875,-0.6875,-130.062
42436723468,-31.125,-0.4375,-129.625
42436746009,-36.75,0.6875,-129
42436762378,-38.1875,-0.1875,-125.062
42436783518,-36.5625,-2.5,-120.062
42436805965,-25.9375,-5.5625,-113.812
42436823686,-19.25,-6.1875,-108.188
42436843508,-23.5625,-3.0625,-107.125
42436865961,-27.0625,0.5,-108.25
42436882590,-25.9375,2.1875,-96.4375
42436903392,-6.375,3.25,-83.3125
42436925968,-1.3125,-10.5,-69.8125
42436942356,-6.5625,-3.5625,-70.375
42436963399,-25.3125,2.3125,-72.3125
42436986002,-22.9375,-0.1875,-67.75
42437002378,-17.5625,-5.125,-56.1875
42437023526,-14.125,-6.8125,-54
42437045938,-17.375,-8.125,-52.75
42437062390,-21,-6.25,-51.6875
42437083503,-26.875,-3.9375,-55.875
42437105999,-26.625,-4.9375,-53.25
42437122461,-23.875,-4.9375,-48.1875
42437143490,-22.125,-4.75,-40.375
42437166020,-28.875,-2.8125,-40.6875
42437182424,-33.5,-1.5625,-40.6875
42437203465,-31.5,-0.375,-36.8125
42437226005,-26.875,0.125,-30.3125
42437242446,-27.4375,-1.3125,-25.25
42437264852,-22.125,-3.125,-20.5625
42437285962,-22.9375,0.4375,-16.75
42437302392,-23,3.6875,-14.5625
42437324854,-14.125,2.25,-8.5
42437345948,-11.5,1.25,-6.3125
42437362394,-19.5,0.6875,-11.3125
42437384917,-25.5625,-0.4375,-14.25
42437406003,-24.375,-1.125,-15.75
42437422409,-21.375,-2,-16.125
42437444990,-21.9375,0.125,-18.0625
42437465940,-23.5,0.375,-18.9375
42437482425,-21.5,-1.375,-18.9375
42437504912,-14.125,-5.125,-16.5
42437525974,-9.25,-6.9375,-12.9375
42437542434,-10.1875,-5.6875,-12
42437564931,-16.9375,-4.25,-13.8125
42437585987,-15.0625,-4.9375,-14
42437602360,-11.3125,-6.75,-12.125
42437624930,-9.25,-5.5,-7.5
42437645947,-8.8125,-1.75,-2.0625
42437662372,-12.6875,0.625,-0.0625
42437684871,-11.1875,1,-0.75
42437705942,-9.1875,0.625,-0.375
42437722462,-8,1.9375,1.375
42437744929,-7.9375,1.375,0.5625
42437765910,-2.5625,-0.125,0.5625
42437782365,1.8125,-1.25,0.5
42437804881,0.25,-1.9375,0.6875
42437826055,0.8125,-2.6875,1.75
42437842386,1.625,-3.25,0.8125
42437864922,4.375,-3.1875,-0.25
42437885961,3.625,-2.5625,-0.1875
42437902432,2.4375,-2.625,0.5
42437924991,3.8125,-1.4375,2.5
42437945967,4.75,0.5625,5.125
42437962470,3.0625,2,5.4375
42437984284,2.1875,2.5,4.8125
42438006711,5.5625,1.5625,4.875
42438023110,10,1.125,7.0625
42438044176,11.625,3.1875,10.625
42438066618,13.25,4,11.375
42438081613,17,4,12
42438104176,16.9375,4.4375,13.8125
42438126620,18.5625,2.75,15.375
42438141698,23.5625,1.1875,16.125
42438164166,26.9375,1.25,15.875
42438186667,22.875,0.8125,18.0625
42438201663,18.875,1.5,20.5625
42438224172,19.6875,1.625,21.3125
42438246626,21.125,0.4375,23.5625
42438261670,21.1875,-1.4375,28.125
42438284137,21.8125,-2.75,32.1875
42438306720,24.75,-4.25,34.625
42438323095,27.6875,-4.875,37.1875
42438344185,27.0625,-2.4375,42.875
42438366711,26.3125,-0.75,48.625
42438381622,31.875,-2,52.5
42438404191,39.25,-4.25,57
42438426721,39.5,-3.625,62.0625
42438443054,31.375,-1.125,68.375
42438464184,23.5,-1.6875,73.8125
42438486648,24.4375,-4.375,78.4375
42438503063,31.1875,-6.4375,82.6875
42438524150,36.5,-5.875,87.9375
42438546711,34.3125,-5.25,93.5625
42438563018,27.5625,-6.6875,99.1875
42438584132,29.8125,-9.9375,102.938
42438606656,34.5,-9.5,107.125
42438623138,33.4375,-5.25,110.062
42438644208,29.4375,-2.1875,111.375
42438666689,30.0625,-3.5625,113.438
42438683104,34.1875,-5.125,116.875
42438704133,36.125,-3.3125,118.375
42438726675,33.25,-1.9375,117.5
42438743126,34.1875,-1.8125,115.938
42438771670,34.8125,-1.4375,114.875
42438786723,32.4375,-2.5625,114.5
42438803084,28.75,-4.75,111.375
42438824058,28.75,-7.0625,105.062
42438846590,27.3125,-7.6875,98.25
42438863026,22.5625,-3.6875,88.9375
42438884154,14.4375,-3.1875,79.3125
42438906688,16.1875,-7.5625,74.375
42438923102,26.9375,-9,71.4375
42438945537,32.1875,-6.5625,68.375
42438966787,22.25,-2,64.875
42438983156,11.4375,1.8125,63.125
42439004177,11.375,0.75,62
42439026714,8.625,0.5625,60.125
42439043131,6.9375,0.75,59.3125
42439064145,6.375,1.75,57.5
42439088173,6,0.6875,56.0625
42439103084,5.8125,-1.5625,55.125
42439124141,6.625,-4.5625,52.125
42439146617,9.3125,-7.25,47.125
42439162436,11.75,-6.9375,43.9375
42439184180,12.0625,-5.625,42.4375
42439206707,9.3125,-6.5,40.25
42439222522,7.3125,-8.375,36.1875
42439244159,-0.9375,-11.0625,32.75
42439266657,-10.9375,-14.875,31.8125
42439282524,-22.8125,-16.75,30.9375
42439304195,-41.3125,-16.4375,29.3125
42439326649,-55.3125,-12.9375,27.125
42439342504,-47.4375,-9.875,23.125
42439365647,-21.625,-9.5,19
42439386682,1.5,-9.0625,15.375
42439402400,21.5625,-3.4375,11.75
42439425590,20.3125,2,9.875
42439454181,9.5,4.25,6.625
42439462460,-8.5625,2.75,5.4375
42439485547,-27,-0.375,3.8125
42439506584,-25.1875,-2.75,3.8125
42439522400,-12.3125,-2.1875,3.5625
42439545546,-4.0625,-0.375,3.125
42439566639,-3.0625,-0.0625,3.3125
42439582404,-5.3125,-0.5625,3.25
42439605555,-11.9375,-0.1875,2.5
42439626621,-16.6875,-0.125,1.125
42439642367,-14.4375,-0.375,1.375
42439665535,-10.375,-0.9375,0.8125
42439686713,-9,-0.8125,0.25
42439702457,-7.9375,-1.1875,0
42439725646,-6.5625,-1.375,-0.1875
42439746712,-7.9375,-0.125,-0.6875
42439762497,-4.5,1.1875,-1.5625
42439785625,-1.0625,2.25,-0.5625
42439806692,0.75,2.25,0.4375
42439822502,0.8125,1.4375,0.625
42439845609,-1.75,0.125,-0.25
42439866673,-3.5625,-0.625,-1.6875
42439882967,0.4375,0.4375,-1.5
42439905639,4.75,1.3125,-1.5
42439926702,1.625,-0.0625,-1.0625
42439943933,-1.125,-0.125,-1.0625
42439965609,-0.4375,0.5625,-0.5
42439986767,0.375,0.5,-0.25
42440010568,3.25,0.6875,-0.9375
42440025696,3.875,0.8125,-1.75
42440046730,4.1875,0.5,-1.0625
42440062509,4.6875,-0.3125,-0.1875
42440085680,1.9375,1.4375,-0.125
42440114236,1.3125,3.3125,-0.75
42440122475,6.5,3.875,-1
42440144929,12.375,1.875,-0.4375
42440166684,11,-0.6875,-1.0625
42440182430,3.1875,-0.5625,-1.125
42440204989,-2.5,0.75,-0.375
42440226684,-3.3125,1,0.25
42440242525,-0.0625,0.4375,0.5625
42440264922,3.3125,-2.0625,-0.3125
42440288100,0.6875,-1.8125,-0.5
42440302448,-1.375,-0.3125,0.25
42440324904,-1,0,0.625
42440348118,-1.1875,0,0.5
42440362467,-0.1875,0.125,0.6875
42440384979,1,0.875,0.9375
42440408214,1.9375,1,1.0625
42440422488,0.0625,0.9375,0.375
42440444995,-4.5625,1.0625,-0.8125
42440468114,-2.6875,0.5625,-0.75
42440482462,2,-0.1875,0.6875
42440505008,3.625,-1,0.25
42440528169,0.125,-0.625,-0.75
42440542517,-1.125,0.25,-0.0625
42440564996,0.6875,0.6875,0.4375
42440588172,-0.125,0.6875,0.1875
42440602492,-0.6875,0.5,-0.625
42440624944,1.1875,0.125,-1.125
42440648205,2.5625,-0.625,-0.5
42440662565,0.75,0.375,-0.4375
42440685699,0.375,0.875,-0.5625
42440708213,0.9375,0.1875,-1.125
42440722444,1.5,-0.25,-1.375
42440745036,1.75,0.375,-0.8125
42440768179,1.875,1.0625,-0.25
42440782447,2.6875,1.5625,-0.25
42440805057,0.9375,1.3125,-0.6875
42440828135,0.625,1.375,-1.0625
42440849198,1.4375,1.5,-0.5625
42440865002,2.9375,1.5,0.125
42440888168,2.875,1.1875,-0.0625
42440909198,2.1875,0.5,-0.75
42440925032,1.1875,-0.125,-0.625
42440948207,0.5,-0.125,-0.125
42440969220,0,0,0
42440985014,-0.6875,1.0625,-0.6875
42441008115,0,1.3125,-0.4375
42441029304,2.25,1.5,-0.3125
42441045031,1.5625,-0.0625,-1.375
42441067532,3,-0.875,-1.6875
42441089266,4.5625,0.5,-1.0625
42441105039,4.5625,2,0.1875
42441127578,3.0625,1.125,0.4375
42441149232,0.5625,0.375,-0.375
42441165042,-0.1875,-0.1875,-1.3125
42441187575,0.25,-0.6875,-1.8125
42441209253,2.25,-0.0625,-1.4375
42441224931,3.5625,0.8125,-0.625
42441247409,3.125,3.25,-0.125
42441270544,5.9375,5.1875,-0.6875
42441284966,14.5625,4.25,-0.75
42441307552,18.3125,2.3125,-0.9375
42441330649,18.8125,2.3125,-1.5
42441351859,21.6875,2.875,-2.5625
42441367465,23.875,2.1875,-6.625
42441390671,26.5625,-0.3125,-12
42441404966,19.4375,-2.8125,-17
42441427505,7.875,-2.375,-21
42441450721,0.625,-1.375,-18.125
42441464979,-3,-4.625,-14.875
42441487489,-4.875,-10.25,-14
42441510630,-8.0625,-15.625,-13.5625
42441531736,-7.8125,-12.5625,-14.125
42441547577,-12.875,-9.9375,-12.75
42441570725,-19.125,-14,-9.875
42441591768,-23.5,-23.5,-11.125
42441607540,-16.8125,-30.9375,-10.125
42441630626,-6.5,-31.6875,-2.9375
42441651757,-4.125,-26.9375,2.25
42441667488,-14.5,-23.5,3.875
42441690734,-32.8125,-32.5,6.375
42441711746,-48.0625,-40.3125,11.625
42441727615,-60.4375,-43.75,17.375
42441750011,-68.3125,-49.5,16.6875
42441771763,-71.25,-57,10.375
42441787441,-76.5625,-55.75,4.3125
42441810703,-79.1875,-63.1875,4.375
42441823545,-69.0625,-69.3125,-1.3125
42441846718,-56.9375,-70.25,-11.3125
42441861104,-62.6875,-67.5625,-16.5
42441883531,-75.1875,-66.3125,-19
42441914904,-83.5625,-68.125,-19.5625
42441921134,-76.4375,-66.1875,-19.0625
42441943626,-55.25,-63.8125,-21.625
42441966741,-42.5,-60.6875,-23.875
42441981126,-39.625,-55.875,-25.0625
42442003571,-38,-52,-24.3125
42442026707,-33.75,-48,-22.4375
42442041052,-27.0625,-46.5625,-21.75
42442063662,-22.25,-45.625,-21.5625
42442086777,-25.375,-43.1875,-22.0625
42442101178,-27.375,-39.4375,-21.4375
42442123505,-24,-34.875,-18.625
42442146699,-17.3125,-28.9375,-16.1875
42442169214,-13.5,-23.75,-15.625
42442183624,-14.3125,-17.4375,-12.9375
42442206793,-13.875,-12.625,-9.6875
42442221130,-12.6875,-9.9375,-6.3125
42442243590,-9.875,-10,-4.1875
42442266742,-10.125,-14.25,-4.5625
42442281075,-11.6875,-19.5625,-4.9375
42442303557,-10.6875,-22.25,-5
42442335020,-9.625,-19.125,-6.375
42442341054,-12.25,-14.625,-7.125
42442373785,-11.875,-10.5625,-6.375
42442386735,-8.5,-7.25,-4.4375
42442401077,-6.8125,-6.4375,-4.1875
42442423650,-2.875,-5.5625,-4.6875
42442446758,-0.125,-4.375,-4.6875
42442461074,0.8125,-3,-3.9375
42442483566,0.8125,-2.25,-2.125
42442506757,3.6875,-2.625,-0.5625
42442521112,2.4375,-2.125,1.25
42442543551,-0.4375,-0.9375,2.375
42442566729,2.4375,-0.0625,1.375
42442581013,2.6875,-1.5625,-2.1875
42442603594,0.3125,-3.5625,-4.875
42442626764,-0.3125,-2.875,-3.8125
42442641060,0.125,-0.875,-1.9375
42442663594,-1.875,0.9375,-1.5625
42442686706,-2.25,-0.1875,-2.375
42442700987,1.0625,-3.4375,-1.875
42442723541,0.375,-4.8125,-1.125
42442746789,-3.25,-3.8125,-0.375
42442761126,-2.6875,-2.25,-0.25
42442783556,-0.5625,-1.625,-0.375
42442806740,0.75,-1.9375,0.5625
42442821137,0.625,-1.3125,1.5625
42442843618,0.375,-1.1875,1.1875
42442866559,1.75,-1.6875,0.8125
42442881125,0.625,-2.6875,0.25
42442903611,-0.5,-2.4375,-0.3125
42442926705,0.3125,-1.375,-0.75
42442941095,0.4375,-1,-0.4375
42442963667,0.25,-1.5,-0.875
42442986682,0.9375,-2.1875,-0.4375
42443001091,0.125,-1.4375,-0.5625
42443023715,-0.125,-1,-0.625
42443046792,0,-0.75,-0.5
42443061136,0.375,-1.375,-0.5
42443083648,-1.75,-2.125,-0.1875
42443106794,-4.9375,-2.3125,-0.4375
42443122587,-7.125,-1.9375,-1.3125
42443143600,-7.4375,-2.8125,-2.375
42443166078,-7.875,-3.375,-1.625
42443181084,-5.75,-4,-0.4375
42443211753,1.3125,-4.1875,0.1875
42443226081,4.5625,-4,0.25
42443241079,0.0625,-3.6875,0.0625
42443263550,-5.8125,-2.875,-0.5625
42443286119,-4.5625,-2.25,-0.875
42443301173,1,-1.9375,-0.75
42443323535,1.125,-1.5,0.1875
42443347557,-2.125,-1.1875,0.25
42443361108,-2.3125,-1.125,0.25
42443383601,-0.75,-1.1875,-0.5625
42443406113,1,-1.625,-0.8125
42443421095,0.6875,-1.1875,-0.375
42443443673,0.0625,-0.75,0.3125
42443466074,0.75,-0.3125,0.6875
42443481132,1.4375,-0.3125,0.3125
42443503643,1.375,-0.5,-0.5625
42443526147,0.9375,0.0625,-0.4375
42443541178,-0.0625,0.4375,-0.25
42443563626,1.3125,0.5,-0.1875
42443586160,1.0625,0.0625,-0.5
42443601146,1.125,0.0625,-0.0625
42443623599,1.1875,0.4375,0.25
42443646060,2.4375,0.5,0.25
42443661168,2.875,0.6875,0.25
42443683685,1.875,0.375,0
42443706143,2.4375,0.0625,0.25
42443721039,2.375,0.375,0.5
42443743643,0.8125,0.9375,0.4375
42443766150,0.8125,0.5,-0.25
42443781173,1.3125,-0.0625,-0.3125
42443803659,1.5,0,0.125
42443826206,0.75,0.125,0.5625
42443841074,0.3125,0.0625,0.4375
42443863651,-0.75,-0.0625,0.125
42443886108,0.125,-0.1875,-0.25
42443902506,1.5625,-0.5,-0.125
42443923660,1.875,-0.375,0.25
42443946162,0.8125,-0.25,0.3125
42443962475,-0.75,-0.0625,0
42443983650,-1.0625,-0.1875,-0.4375
42444006104,-0.5,-0.1875,-0.4375
42444022578,1.75,-0.5625,-0.0625
42444043617,1.875,-0.75,0.0625
42444066140,-0.5625,-0.25,-0.0625
42444082548,-3.5625,-0.875,0.125
42444103685,-4.1875,-0.5,0.9375
42444126197,-0.9375,-0.625,0.3125
42444142496,4.4375,-1.125,-0.25
42444163655,2.9375,-0.625,0.5
42444186119,-2.6875,-0.5,0.9375
42444202558,-1.875,-0.9375,0.4375
42444223647,3.375,-1.375,0.375
42444246081,2.9375,-0.875,0.375
42444269955,-2.625,-0.4375,1.0625
42444283522,-4.6875,-0.4375,1.0625
42444306043,-1.5,-0.125,0.75
42444322495,4.3125,0,0.375
42444343576,5.4375,0.375,0.625
42444366064,2.25,0.5625,0.4375
42444382496,0.875,0.75,0.1875
42444403566,-1.1875,2.1875,-0.6875
42444426090,-1.0625,3.6875,-2.75
42444442469,4.875,3.1875,-3.875
42444463551,7.25,0.75,-3.25
42444486055,-0.25,0,-0.5625
42444502477,-3.8125,0.8125,2.125
42444523684,1.25,1.3125,1.25
42444546106,6.9375,1.6875,-0.75
42444562536,5.25,1.625,-1.5625
42444583559,1.1875,1.4375,-1.125
42444606150,2.5625,1.375,0.4375
42444622602,4.1875,1.125,1.75
42444643716,3,0.5625,1.25
42444666128,0.8125,-0.5625,-0.5625
42444682654,0.25,-0.75,-1.1875
42444703593,1.125,-0.625,-0.3125
42444726144,1.375,-0.3125,0.9375
42444742543,1.0625,-0.1875,1.0625
42444763674,0.375,-0.125,0.3125
42444786183,-0.8125,0.3125,-0.5625
42444802606,0.9375,0.1875,-0.5625
42444823724,3.1875,0.3125,0.375
42444846221,2,0,0.25
42444862583,-0.0625,-0.1875,-0.1875
42444885002,0.0625,0,-0.25
42444906011,1.5625,0.1875,-0.5
42444922616,0.5625,0,-0.75
42444945096,-0.4375,-0.625,-0.25
42444966046,-1.25,-0.5625,0.0625
42444982593,0.4375,-0.4375,0.1875
42445005023,2.6875,-0.3125,0.5
42445026135,1.25,-0.5,0.0625
42445042657,-0.5,-1.5,-0.4375
42445065101,-0.8125,-1.9375,-0.1875
42445086128,-0.375,-1.5,0.875
42445102519,0.875,-1.0625,0.4375
42445125113,0.5625,-0.4375,-0.25
42445146146,1.1875,-0.3125,-0.9375
42445162597,0.4375,0,0.125
42445185096,-2,0.0625,2.25
42445206106,1.25,0.4375,3.8125
42445222551,4.1875,0.8125,3
42445245090,-1.125,0.9375,0.75
42445266113,-3.875,-2.8125,0.75
42445282538,-3.4375,-5.5625,2.0625
42445305040,-7.25,-5.75,2.375
42445326135,-7.75,-4.625,1.625
42445342505,-1.3125,-3.875,2.6875
42445365144,-2.0625,-3.6875,4.1875
42445386149,-3.9375,-3.8125,3.9375
42445402495,2,-4.25,2.9375
42445425101,4.375,-3.5,1.8125
42445446128,2.4375,-1.6875,1.25
42445462540,1.6875,-0.25,2.0625
42445485093,4.4375,0,1.3125
42445506109,7.4375,-1.0625,0.125
42445522535,4.625,-1.875,-0.375
42445545059,-0.0625,-2,-0.8125
42445566084,-0.6875,-2.125,-1.125
42445582593,0.75,-3.25,-1.6875
42445605007,-0.0625,-3.625,-1.3125
42445626084,-2.25,-2.1875,-1.0625
42445642559,-2.3125,-1.4375,-1.5
42445664240,-0.6875,-1.3125,-1.8125
42445686752,1,-1.6875,-1.6875
42445703166,1.875,-2.25,-1
42445724295,1.1875,-1.8125,0.125
42445746780,0.0625,-1.375,0.875
42445761769,0.9375,-1.5,1.3125
42445784278,0.5625,-1.9375,1.4375
42445806786,-0.625,-2.5625,1.3125
42445822021,-2.25,-2.75,1
42445844278,-4.0625,-1.375,0
42445866795,-4.8125,-0.4375,-0.9375
42445881782,-1.5625,-0.25,-0.5625
42445904316,1.75,-0.9375,0.4375
42445926755,2.4375,-1,1.1875
42445941757,1.8125,0.375,0.75
42445964252,0.3125,2.25,-0.1875
42445986751,1.9375,2.3125,-1.125
42446003196,4.875,1.125,-0.5625
42446024312,4.9375,1.125,0.1875
42446046809,3.25,1.875,0.1875
42446063219,2.0625,3.5625,0
42446084261,2.4375,4.125,-1.4375
42446106784,4.75,3,-1.875
42446123176,4.1875,1.125,-0.8125
42446144288,0.25,0.0625,0.5
42446166807,-3,-0.9375,1.4375
42446183234,-3.875,-2.375,1.25
42446204282,-2.3125,-2.9375,1.0625
42446226767,-0.125,-3.25,0.875
42446243191,-1.0625,-3,1.5
42446264264,-2.75,-1.875,2.0625
42446286829,-1,-1.25,1.8125
42446303239,2.875,-1.25,1.625
42446324263,3.6875,-0.5625,1.9375
42446346787,0.625,0.25,2.375
42446363226,-1.5,0.25,2.1875
42446384545,2.5625,-0.9375,1.4375
42446406758,8.8125,-1.3125,1.8125
42446423263,8.4375,-0.375,3.375
42446444271,4,0.8125,4.375
42446466754,0.5,-0.6875,3
42446483224,2.5,-2.9375,2
42446504270,3,-3.125,1.25
42446526752,-0.5625,-2.25,1.0625
42446543193,-5,-1.8125,1
42446564303,-6.5625,-2.5,0.9375
42446586773,-3.4375,-4.3125,0.3125
42446603213,-0.9375,-5.1875,0.75
42446625729,-1.6875,-4.5,1.5
42446646832,-2.8125,-3.6875,1.1875
42446663228,-2.75,-3.875,0.75
42446684275,-2.25,-3.875,1.1875
42446706780,-0.625,-3.25,1.9375
42446722535,0.6875,-2.3125,2.375
42446744298,1.5,-1.75,2.5625
42446766772,1.75,-1.75,2
42446782531,0.1875,-1.75,0.75
42446804279,0.0625,-1.125,1
42446826778,0.75,-0.5625,1.375
42446842519,1.75,-0.6875,1.875
42446864285,2.0625,-0.625,2.125
42446886836,2.6875,-0.5,1.625
42446902585,2.875,-1,1.1875
42446924256,0.375,-0.6875,1
42446946808,-3.625,-0.1875,0.375
42446962559,-1.25,-0.125,1.1875
42446985744,4,-0.875,1.75
42447006766,3.4375,-1.5625,1.6875
42447022545,0.375,-2.0625,1.625
42447053232,-1.375,-1.375,1.8125
42447066823,0.75,-1.5,1.5
42447082609,1.25,-2.8125,0.6875
42447105785,-1.9375,-4.25,0.375
42447134380,-6.125,-4.75,0.375
42447142623,-5,-4.8125,0.375
42447165823,-2.375,-4.875,0.1875
42447186873,-4,-4.875,0.0625
42447202603,-5.5,-4.5625,-0.25
42447225803,-4.25,-3.3125,0
42447246812,-1.3125,-1.875,-0.0625
42447262659,0.375,-1.1875,-0.3125
42447285778,0,-0.1875,-0.375
42447306796,-0.5625,0.875,0
42447322690,2,1.4375,0.3125
42447345752,4.125,1.6875,0.625
42447366863,3.0625,1.375,0.1875
42447382610,0.4375,1.125,-0.125
42447405796,-0.0625,1.25,-0.1875
42447426769,1.75,0.75,0.1875
42447442587,3.4375,0.125,0.4375
42447465877,1.875,-0.125,0.125
42447486871,-1.375,-0.0625,0.125
42447502609,-1.75,0.1875,0
42447525823,1.25,0.125,-0.25
42447546799,2.9375,-0.1875,-0.0625
42447562631,1.8125,-0.0625,0.375
42447585754,-0.5,0.1875,0.125
42447606879,-0.5625,0.25,-0.3125
42447622678,0.5625,0,-0.5
42447645779,0.625,0,-0.6875
42447666848,-0.375,-0.3125,-0.3125
42447690849,-1.8125,-0.375,0
42447705183,-1.3125,-0.5,-0.1875
42447726974,-1,-1,-0.8125
42447742716,-1.8125,-1,-0.625
42447765188,-1,-1,-0.1875
42447786887,0.4375,-1.1875,-0.375
42447802632,-0.9375,-1.1875,-0.1875
42447825168,-2.625,-1.25,-0.3125
42447846877,-2.6875,-1.375,-1.0625
42447862622,0.25,-1.3125,-1.375
42447885199,-0.5625,-0.9375,-1
42447908313,-3.375,-0.625,-0.25
42447922583,-2.8125,-0.625,-0.1875
42447945192,0.8125,-0.4375,-0.125
42447968340,1.8125,-0.25,-0.3125
42447982687,-0.0625,0.1875,0.25
42448005163,-1.875,0.25,0.8125
42448028274,-1.625,-0.1875,0.875
42448042689,0.25,-0.625,0.4375
42448065142,1.3125,-0.4375,0.25
42448088297,0.5625,0.0625,0.1875
42448102602,0.375,0.375,0.1875
42448125162,0.3125,0.625,0.1875
42448148323,1.25,0.5,-0.4375
42448162668,1,0.375,-0.5
42448185149,1.625,-0.25,0.3125
42448208756,2.75,-0.125,1
42448222683,1.5625,0.3125,-0.0625
42448245196,-1.125,0.875,-1.6875
42448268335,-0.5,0.8125,-2.4375
42448282587,2.3125,0.625,-1.9375
42448305172,3.125,-0.125,-0.25
42448328282,5.625,-0.625,2.0625
42448342626,6.25,-0.125,2.3125
42448365130,2.1875,1.0625,0.25
42448388324,1.3125,2.1875,-1.625
42448409349,2.0625,1.625,-1.375
42448425163,2.375,1.1875,-0.3125
42448448306,3.3125,0.3125,1
42448469348,2.375,-0.0625,1.0625
42448485188,-1,0.25,-0.3125
42448508351,-2.5625,0.0625,-1.375
42448529421,-0.8125,-0.4375,-1.0625
42448545193,0.8125,-0.5,-0.125
42448568358,1.0625,-0.3125,0.25
42448589508,0.0625,0.3125,-0.125
42448605175,-1.25,1.1875,-1.0625
42448627640,-0.75,1.625,-1.3125
42448649460,1.25,1.375,-0.5
42448665183,1.5625,0.9375,0
42448687652,1.4375,0.625,0.375
42448709432,-0.3125,0.625,-0.0625
42448725178,-0.4375,0.75,-0.5
42448747690,1.1875,0.4375,-0.5
42448769446,1.9375,0,-0.375
42448785145,0.75,-0.5,0
42448807724,-1.25,-0.375,0.1875
42448830816,-1.125,-0.375,0.0625
42448845210,0.375,-0.375,-0.1875
42448867768,0.1875,-0.3125,-0.4375
42448890796,-1.3125,-0.3125,-0.5625
42448905231,-1.0625,-0.25,-0.4375
42448927629,0.1875,-0.3125,0
42448950846,1.1875,-0.25,0.1875
42448965178,0.75,-0.125,0.125
42448995823,-1,0,-0.5625
42449010848,-0.5625,0,-0.5
42449025149,1.5,-0.375,0.1875
42449047648,1.625,-2,0.875
42449070885,2.375,-2.25,1.875
42449085225,0.5,-0.875,2.25
42449107715,-2.6875,0.25,0.5
42449130796,0.125,0.625,-0.875
42449145129,3.1875,0.8125,-0.4375
42449167664,1.25,1.8125,-1.0625
42449190888,0.25,2.5625,-2
42449205198,3.125,0.9375,-1.5
42449227702,3,-1.375,-1
42449250843,-4.5,-1.0625,0.3125
42449265124,-5.8125,0.125,0.25
42449287617,3.1875,-0.25,-0.6875
42449310829,7.375,-0.3125,-0.5625
42449331884,0.8125,-0.125,-0.5625
42449347693,-3.375,0.125,0
42449370834,-1.5625,0.0625,0.4375
42449391893,0.375,-0.4375,0.125
42449407709,0,-0.6875,0.0625
42449430886,-0.4375,-0.6875,0.1875
42449451929,-0.5,-0.3125,0.6875
42449467714,-0.25,0.125,0.4375
42449490800,0.75,0.1875,0.125
42449511859,0.75,0.125,-0.1875
42449526822,-0.125,-0.25,-0.4375
42449541166,-0.9375,-0.5625,-0.1875
42449563768,-1.375,-0.875,-0.1875
42449586927,-0.9375,-1.1875,-0.125
42449601244,-1,-1.1875,-0.3125
42449623796,-1.3125,-1.0625,-0.625
42449646870,-1,-0.6875,-0.25
42449661248,0.125,-0.1875,0
42449683776,0.6875,0.125,0.1875
42449706957,0.375,0.4375,-0.125
42449721236,-0.1875,0.5625,0
42449743772,-0.1875,0.25,-0.25
42449766966,0.625,-0.0625,0.0625
42449781214,0.375,-0.1875,0.1875
42449803732,-0.0625,-0.25,0.0625
42449826924,0.0625,-0.5625,-0.0625
42449841203,-1.4375,-1.8125,1.1875
42449863691,0.6875,-1.3125,1.6875
42449886901,-0.6875,-1.0625,1.5
42449901180,-2.9375,-0.75,0.625
42449923708,-1.9375,-0.25,0.75
42449946964,0.375,0.125,1.125
42449961285,2.625,0.1875,0.8125
42449983833,4.4375,-0.125,0.8125
42450006922,1.625,-0.625,0.9375
42450021271,-2.0625,-0.3125,0.9375
42450045216,-0.6875,-0.875,0.25
42450066945,0.5,-0.6875,0.0625
42450081278,0.5,-0.4375,0.1875
42450105232,0.4375,-0.1875,0.1875
42450126962,1.5,0.125,0.0625
42450141251,0.5625,0.9375,-0.4375
42450163803,-1.4375,2.25,-2.1875
42450186935,-2.75,3.0625,-3.9375
42450201331,-1.1875,2.0625,-4.125
42450223791,3.3125,-0.9375,-1.3125
42450246978,4.875,-3.3125,0.625
42450261290,-4.6875,-1.75,1.6875
42450283721,-6.6875,-0.0625,0.25
42450306914,2.5625,-0.3125,-1.3125
42450321231,6.6875,-0.1875,-1.0625
42450343740,1.75,0.4375,-0.0625
42450366955,-2.5625,0.5,0.25
42450381248,-2.8125,0.375,0.3125
42450403758,0.25,-0.5625,0.125
42450426895,2.3125,-0.75,0.1875
42450441298,2.0625,-0.5,0.4375
42450463840,0.0625,0.0625,0.375
42450486948,-1.3125,0.4375,0.375
42450501273,1.1875,0.0625,0.1875
42450523762,1.9375,-0.375,0.0625
42450546151,0.8125,-0.1875,0.25
42450561265,0.9375,-0.3125,0.5
42450583835,0.75,-0.1875,0.5
42450606879,0.375,-0.3125,0.3125
42450621265,0.125,-0.125,0.1875
42450643918,0.125,-0.0625,-0.0625
42450666953,0.8125,-0.125,0.1875
42450681225,0.375,-0.3125,0.3125
42450703765,-0.375,-0.25,0.1875
42450726237,-0.875,-0.0625,-0.125
42450741168,-0.625,-0.0625,-0.1875
42450763654,0.75,-0.375,0
42450786154,0.5,-0.5,0
42450801141,-0.8125,-0.625,-0.25
42450823714,-1.375,-0.5,-0.0625
42450846228,-0.125,-0.3125,0.1875
42450861243,1.125,-0.0625,0
42450883704,1,-0.1875,-0.25
42450906189,-0.25,-0.0625,-0.1875
42450921254,-1.4375,0.1875,-0.0625
42450943699,-0.5,0.25,-0.0625
42450967669,1.3125,-0.0625,-0.125
42450981236,0.6875,-0.375,-0.25
42451003795,-1.4375,-0.4375,-0.25
42451026316,-1.8125,-0.375,0.125
42451041236,-0.3125,-0.375,0.125
42451063746,0.6875,-0.5,-0.125
42451086275,0.25,-0.4375,-0.0625
42451101224,-0.3125,-0.25,0
42451123790,0.125,0,0
42451146202,0.375,0,0
42451161295,0,-0.0625,-0.1875
42451183818,1,-0.4375,0
42451206334,0.9375,-0.625,0.5625
42451229490,0.375,-0.375,0.8125
42451243763,-1.0625,0.3125,0.4375
42451266292,0.625,1.0625,-0.1875
42451284179,3.625,1.4375,-0.9375
42451303813,2.5625,0.4375,-1.0625
42451326323,-1.5,-0.1875,-0.125
42451341215,-3.3125,-0.25,0.125
42451363821,-0.5,-0.6875,-0.4375
42451386316,2.8125,-0.5,-0.375
42451401334,1.3125,-0.5,-0.5625
42451423871,-1.625,-0.4375,-0.5625
42451446242,-1.8125,0,0
42451461263,0.375,-0.125,0.0625
42451483745,1.25,-0.0625,0.25
42451506315,0.375,0,0.1875
42451522767,-1.125,-0.125,0.1875
42451543713,-0.5625,-0.0625,0.125
42451566343,0.75,-0.1875,0.125
42451582705,1.1875,-0.125,0.1875
42451603740,-0.1875,-0.25,-0.1875
42451626261,-0.5625,-0.375,-0.3125
42451642790,0.0625,-0.375,0
42451663770,0.125,-0.1875,0.125
42451686237,0.1875,-0.3125,-0.1875
42451702767,-0.4375,-0.1875,-0.25
42451723770,-0.0625,-0.125,-0.0625
42451746313,0.375,-0.1875,0.1875
42451770273,0.375,-0.1875,0.1875
42451783826,0.375,-0.0625,0.0625
42451806287,1.5625,0,0
42451822660,0.5625,0,0.0625
42451843789,-1.5625,0.0625,-0.25
42451866247,-1.125,-0.0625,-0.3125
42451882759,0.25,-0.3125,-0.125
42451903819,0.625,-0.5,0.125
42451926346,0.0625,-0.3125,0.25
42451950214,-1.0625,-0.4375,-0.0625
42451963804,-1.125,-0.375,-0.0625
42451986339,0.625,-0.1875,0.1875
42452002675,1.1875,-0.125,0.1875
42452023811,-0.4375,-0.125,0
42452046257,-0.875,-0.125,0
42452062766,0.1875,-0.1875,-0.0625
42452083836,0.1875,-0.3125,0
42452106245,-0.5,-0.625,-0.1875
42452122731,-0.5625,-0.625,-0.0625
42452143877,-0.125,-0.5625,-0.0625
42452166320,-0.6875,-0.375,-0.0625
42452184206,-0.625,-0.125,-0.1875
42452203774,1,-0.0625,-0.0625
42452226317,0.875,-0.25,0.125
42452242726,-0.9375,-0.375,0.1875
42452263778,-1.0625,-0.3125,0.25
42452286316,1.1875,-0.4375,0.0625
42452302718,1.125,-0.5,0.0625
42452326684,-0.75,-0.0625,0.125
42452346277,-0.6875,-0.0625,0.0625
42452368813,0.0625,-0.1875,0.0625
42452383805,0.25,-0.125,0.25
42452406265,0.5,-0.25,0.25
42452422699,-0.1875,-0.1875,0.1875
42452445210,-1.125,-0.125,0.125
42452466322,-0.25,-0.25,0
42452482753,0.1875,-0.125,0.125
42452505276,0.1875,-0.1875,-0.0625
42452526328,-0.375,-0.3125,-0.0625
42452542742,-0.8125,-0.25,-0.1875
42452565284,-0.125,0.125,-0.25
42452586361,0.5,0.1875,-0.125
42452602646,0.125,0.125,-0.25
42452625297,-0.8125,0,-0.0625
42452646360,-1.1875,0.0625,-0.1875
42452662793,-0.25,-0.0625,0
42452685284,0.6875,-0.3125,0.25
42452706335,-0.5,-0.3125,0
42452722765,-2.125,-0.6875,-0.375
42452745302,-1.625,-0.6875,-0.125
42452766305,0.3125,-0.8125,0.125
42452782794,1.4375,-0.6875,0.25
42452805233,-1.1875,-0.25,0.1875
42452826260,-3.125,-0.0625,-0.1875
42452842717,-1.3125,-0.1875,-0.3125
42452865299,0.125,-0.3125,-0.25
42452886323,-0.25,-0.3125,0.25
42452908774,-2.0625,-0.375,-0.1875
42452925251,-2.9375,-0.25,-0.375
42452946340,-0.5625,-0.125,-0.125
42452962757,2.25,0.125,0.25
42452985317,1.1875,0.4375,0.3125
42453006311,-1.0625,0.4375,-0.0625
42453022772,-1.3125,0.3125,-0.375
42453045226,0.75,0.0625,-0.3125
42453066321,0.8125,0.0625,-0.125
42453082731,0.8125,0.125,-0.25
42453105212,0.5,0.4375,0
42453126329,-0.6875,1,-0.6875
42453142763,-0.5,1.6875,-1.4375
42453165210,0.8125,2,-1.125
42453186389,2.75,2.8125,-0.375
42453202683,5.875,3.0625,-1.125
42453225190,5.5,3.5625,-1.1875
42453246388,3.75,4.5,-1
42453262725,6.1875,4.8125,-0.6875
42453285296,11.5625,4.75,0.0625
42453306400,11.625,4.75,0.6875
42453322743,7.875,3.8125,0.9375
42453345236,1.5,2.9375,1.1875
42453367014,-0.625,2,2
42453383441,2.625,0.8125,2.875
42453404454,6.5625,-0.4375,3.875
42453435156,6.1875,-0.9375,5
42453442002,1.25,-0.5,4.4375
42453464607,-1.6875,0.4375,2.4375
42453486969,0.4375,1.375,2.125
42453501972,4.9375,2.375,2.875
42453524524,10,2.8125,3.5625
42453546973,10.5,2.875,3.4375
42453563408,7.0625,3,2.5
42453584493,3.0625,3,1.625
42453606964,2.25,3,1.0625
42453623465,3.3125,3.1875,1.5625
42453644492,5.8125,2.75,1.6875
42453666984,5.125,1.5625,1.75
42453683450,0.25,0.8125,1.625
42453704476,-2.375,1.0625,2.1875
42453726957,-0.5625,2,3.125
42453743443,0.5625,2.8125,4.25
42453764506,2.25,2.75,4.25
42453787009,4.3125,1.8125,3.9375
42453803405,2.75,1.375,4.125
42453824442,2.4375,0.75,3.875
42453846940,2.25,0.1875,4.5625
42453863459,1.875,-0.875,5.1875
42453884544,1.25,-2.375,5.875
42453906995,-1.6875,-3.1875,6.5
42453923468,-4,-3.4375,6.6875
42453944512,-3.3125,-3.5,6.875
42453966987,-1.875,-3.5625,7.125
42453989507,-0.3125,-3.5,6.125
42454004503,1.125,-2.875,4.6875
42454027015,0.5,-1.5625,3.1875
42454043451,-0.75,-0.4375,2.375
42454064463,0.625,-0.4375,1.8125
42454087055,2.6875,-0.8125,1.6875
42454103411,2.6875,-0.8125,1.375
42454124498,1.125,-0.4375,1.25
42454147005,-0.5625,-0.25,0.6875
42454163498,0.3125,-0.4375,0.625
42454184571,0.875,-0.875,0.3125
42454207083,1.3125,-0.625,-0.125
42454223449,0.5625,-0.3125,-0.5
42454244557,-2.75,0.3125,-0.875
42454267042,-2.25,0.125,-1.875
42454283431,1.75,-0.1875,-1.25
42454305911,3.1875,0.5,0.4375
42454326994,2.25,1.0625,0.75
42454342780,1.3125,0.75,0.625
42454364553,-0.0625,0.6875,0.375
42454386958,-0.4375,0.75,-0.125
42454402720,1.625,0.625,0.125
42454424504,2.8125,0.8125,0.75
42454447059,2.25,0.75,0.5
42454462789,2,0.625,-0.8125
42454484481,0.625,0.75,-1.5625
42454507004,-0.3125,1.1875,-1.5625
42454522775,1,1.125,-1.25
42454546000,2.875,0.8125,-0.6875
42454566997,1.9375,0.875,-0.25
42454582833,-0.4375,0.9375,-0.3125
42454605950,-1.4375,0.875,-0.0625
42454627056,-0.6875,0.3125,0.4375
42454642767,0.75,-0.375,0.8125
42454666060,0.75,-1.1875,0.8125
42454687068,-0.9375,-1.5,0.375
42454702774,-1.625,-1.625,0.0625
42454725998,-0.9375,-1.1875,0.5625
42454746996,-0.875,-0.6875,0.375
42454762788,-0.25,-0.625,0.0625
42454785958,-0.6875,-0.6875,-0.25
42454807051,-0.625,-0.4375,-0.125
42454822828,0.625,0.1875,-0.25
42454845953,1.625,0.6875,-0.8125
42454867036,2.625,0.25,-1.3125
42454882789,1.375,-0.125,-0.8125
42454905906,-0.25,-0.3125,-0.9375
42454927075,-1.3125,-0.125,-1.0625
42454942812,-1.625,0.25,-1.0625
42454966040,-1.0625,0.625,-0.25
42454987020,1.375,1.1875,0.375
42455002718,2.8125,2.25,1.1875
42455026040,2.0625,3.125,0.8125
42455046977,1.9375,3.5,0.125
42455062815,2.25,3.25,0.0625
42455085963,2.6875,2.3125,0.4375
42455107026,2.75,0.625,0.6875
42455122774,1.25,-0.6875,0.25
42455145960,-1.125,-1.875,-0.5
42455166968,-2.5625,-2.8125,-1
42455182790,-3.25,-3.4375,-0.875
42455206016,-3.4375,-3.75,-0.9375
42455227018,-3.4375,-3.1875,-0.6875
42455242850,-3.25,-1.6875,-0.625
42455265258,-1.5625,-0.3125,-1.0625
42455287094,0.3125,0.5625,-0.5625
42455302737,1.25,1.5,-0.0625
42455325348,1.9375,2.1875,0.25
42455347000,2.1875,2.625,0.5625
42455362765,2.3125,2.625,0.4375
42455385301,2.5,2.125,0.5625
42455406999,1.9375,1.5625,0.5
42455422892,1.0625,0.875,0.25
42455445359,0.375,0.25,-0.0625
42455468495,-0.0625,-0.125,-0.4375
42455482849,-0.1875,-0.375,-0.5
42455505285,-1.0625,-0.5,-0.5
42455528473,-1.1875,-0.6875,-0.5
42455542785,-0.5,-0.6875,-0.1875
42455565308,-0.25,-0.25,0.0625
42455588594,0.1875,0.125,-0.3125
42455602795,0,0.25,-0.5625
42455625309,-0.625,0.5625,-0.3125
42455648193,-0.125,0.375,-0.0625
42455662832,0.5,0.0625,0
42455685321,-0.125,-0.0625,-0.1875
42455708415,-1.0625,-0.0625,-0.4375
42455722769,-0.4375,-0.0625,-0.125
42455745289,-0.0625,0.125,0.375
42455768565,-0.3125,0.375,0.25
42455782783,0.4375,0.625,0
42455805364,0.875,0.375,0.0625
42455828502,0.0625,0.5,0.25
42455842815,0,0.4375,0.1875
42455865322,0.8125,0.1875,-0.0625
42455888540,1.25,-0.0625,-0.1875
42455902764,0.5625,0.0625,0.125
42455933414,-1.375,0.1875,0.75
42455948388,-1.625,-0.125,0.8125
42455969548,-0.875,-0.4375,0.875
42455985275,0.0625,-0.6875,0.875
42456008495,0.25,-1,1.0625
42456029566,-0.8125,-1.1875,0.9375
42456045384,-1.8125,-1.375,0.6875
42456068475,-0.9375,-1.625,0.3125
42456089507,-1,-1.8125,0.25
42456105333,-0.75,-1.9375,0.5
42456128527,-1.5,-1.4375,0.875
42456149580,-1.4375,-1.1875,0.875
42456165341,-0.5625,-0.75,0.6875
42456188503,0.6875,-0.5,0.8125
42456209566,1.1875,-0.375,1.25
42456225319,1.125,-0.25,1.1875
42456247885,0.25,0.0625,0.75
42456269500,1.5,0.3125,0.1875
42456293456,1.1875,0.5,0.375
42456307767,1.25,1.375,0.25
42456329526,3.1875,2.1875,-0.25
42456345361,5,2.4375,-0.5
42456367836,3.6875,3.1875,0.4375
42456389526,3.125,3.75,0.25
42456405305,5.5625,3.4375,-0.6875
42456427778,5.8125,3.375,-0.75
42456451042,3.3125,3,-0.9375
42456465312,2.4375,1.875,-0.4375
42456487865,1.875,0.6875,-0.25
42456511030,0.75,-0.125,-0.25
42456525308,-0.875,-1,-0.875
42456547843,-0.875,-1.9375,-0.9375
42456570970,-1.0625,-2.5625,-0.3125
42456585389,-2.1875,-2.25,0.25
42456607851,-1.6875,-2,0
42456631035,-1.25,-1.4375,-0.5
42456645339,-1.25,-0.75,-0.6875
42456667849,-0.5,-0.0625,-0.0625
42456690958,0.9375,0.375,0.4375
42456705334,1.5,1.125,0.6875
42456727887,2.6875,1.4375,0.5625
42456750939,2.6875,1.8125,0.25
42456765299,1.5,1.9375,0.375
42456787784,1.4375,1.5625,0.875
42456810923,2.3125,0.8125,1.1875
42456825246,2.4375,0,1.25
42456847801,1.125,-0.0625,1.3125
42456870922,-0.8125,0,1.0625
42456885334,-0.6875,-0.3125,0.5
42456907810,0.125,-0.6875,0.4375
42456930944,0.25,-0.875,0.4375
42456952017,-0.4375,-0.875,0.4375
42456967826,-1.1875,-0.5,0.5
42456991008,-0.75,-0.125,0.25
42457012007,0.8125,0,-0.125
42457027775,1.1875,0.125,-0.25
42457050272,1.1875,0.3125,-0.3125
42457072012,1.5625,0.5,0.125
42457087800,1.375,1.0625,0.375
42457110958,1.5625,1.25,0.3125
42457131985,1.5625,1.125,0.0625
42457147804,2.3125,0.9375,-0.8125
42457178429,2.1875,1.0625,-0.5
42457192004,0.125,1.375,0
42457207796,0.3125,0.9375,0.25
42457221416,1.875,0.0625,-0.5
42457243932,1.0625,-0.125,-0.8125
42457267506,-0.3125,0.0625,-0.5625
42457281397,-0.25,-0.0625,0.1875
42457303930,1,-0.4375,0
42457327022,1.3125,-0.75,-0.6875
42457341402,0.5,-0.8125,-1.1875
42457363846,-1,-0.4375,-1.0625
42457387128,-1.3125,-0.25,-0.3125
42457401482,-0.125,0.4375,0.25
42457423912,3.4375,0.5625,-0.1875
42457447094,4.4375,0.875,-0.8125
42457461517,2.6875,1.5625,-0.875
42457483918,0.5625,2.4375,-0.25
42457507111,0.25,2.75,0
42457521406,2.6875,2.25,-0.0625
42457543902,3.6875,1.5625,-0.125
42457567160,0.8125,1.25,-0.0625
42457581319,-1.8125,0.875,0.125
42457603895,-0.9375,0.25,0.125
42457627036,2.1875,-0.5625,-0.25
42457641455,2.375,-0.8125,-0.0625
42457663912,-0.9375,-0.4375,-0.1875
42457687061,-2.3125,-0.125,-0.6875
42457701500,-0.1875,-0.1875,-0.75
42457725257,1.375,0.0625,-0.25
42457747145,1.6875,0.375,0.4375
42457761481,1.625,0.3125,0.25
42457783944,1.0625,0.25,0.1875
42457807045,0.1875,0.1875,0.3125
42457821444,0.5,0.1875,0.125
42457843899,0,0.25,-0.3125
42457875287,-0.625,-0.0625,-0.5
42457881436,-0.5625,-0.375,-0.1875
42457903896,-0.375,-0.25,-0.25
42457927050,-0.75,0.4375,-0.5625
42457941394,-0.1875,0.9375,-1
42457963938,1,0.625,-0.6875
42457987091,0.875,0.3125,-0.25
42458001511,0.4375,0.375,-0.125
42458023981,0.8125,0.6875,-0.5625
42458047115,0.4375,0.4375,-0.75
42458061462,-0.25,0.3125,-0.5
42458083938,0.4375,0.3125,-0.375
42458107059,0.1875,0.5625,-0.5
42458121387,0,0.6875,-0.4375
42458143926,0.375,0.4375,-0.3125
42458167153,0.9375,0.375,-0.125
42458181491,-0.25,0.375,-0.25
42458203966,-0.5625,0.3125,-0.3125
42458226897,0.1875,-0.1875,-0.0625
42458241476,-0.5625,-0.25,0.375
42458263902,-0.8125,-0.5,0.5625
42458286461,0.125,-0.5625,0.125
42458301375,0.4375,-0.4375,-0.125
42458323903,-0.5,-0.25,0
42458346476,-0.1875,-0.125,0.0625
42458361491,1.125,-0.1875,0.3125
42458383978,0.8125,-0.0625,0
42458406451,0.75,-0.0625,-0.375
42458421519,0,-0.125,-0.1875
42458443906,-1.375,-0.125,0.3125
42458466512,0,-0.3125,0.5
42458481447,1.1875,-0.6875,0.3125
42458503989,-0.6875,-0.75,-0.1875
42458526482,-3.125,-0.3125,-0.125
42458541493,-2.375,-1,-0.25
42458563897,-1.6875,-1.0625,-0.3125
42458586480,-2.1875,-1,-0.4375
42458601486,-2.375,-0.875,-0.3125
42458623978,-2.25,-0.6875,-0.8125
42458647961,-1.8125,-0.25,-0.4375
42458661514,-0.125,0.1875,0
42458683946,1.375,0.4375,0.1875
42458706454,1.5,1.125,0.0625
42458721519,1.5625,1.5625,-0.375
42458743942,1.3125,1.4375,-0.25
42458766441,1.6875,1.125,-0.1875
42458781416,1.1875,0.75,0.3125
42458803973,0.625,0.625,0.375
42458826439,-0.1875,0.5625,-0.3125
42458841445,-0.4375,0.25,-0.75
42458863925,-0.25,0.1875,-0.5625
42458886506,0.8125,-0.0625,-0.0625
42458901412,0.8125,0.125,0
42458924005,0.5,0.125,-0.1875
42458946414,0.4375,-0.125,-0.25
42458961497,1,-0.25,-0.1875
42458983909,1.1875,-0.375,-0.25
42459006400,0.125,-0.0625,-0.3125
42459021445,1.0625,-0.1875,-0.125
42459043939,1.5625,-0.25,0.375
42459066411,0.625,-0.3125,0.5
42459082877,-0.5,-0.125,-0.0625
42459103909,-0.375,-0.125,-0.3125
42459126429,-0.25,-0.125,0
42459142884,-1.375,-0.125,0.3125
42459163952,-1.125,0.3125,-0.4375
42459186465,-0.3125,0.4375,-1.25
42459202825,-0.625,0.625,-1.3125
42459223953,-0.5625,0.6875,-0.875
42459246437,0.0625,0.75,-0.3125
42459264323,0.9375,0.1875,-0.375
42459283942,-0.0625,-0.625,0.0625
42459306385,-1.4375,-0.875,0.3125
42459322931,-1.0625,-0.6875,0.75
42459343892,-1.1875,-0.125,0.5625
42459366537,-1,-0.0625,-0.0625
42459382940,0.0625,-0.1875,-0.3125
42459403969,-1,0.1875,-0.125
42459426482,-1.1875,0.125,-0.25
42459442940,-0.1875,0,0.0625
42459463877,0.9375,-0.1875,-0.1875
42459486513,1.5,-0.4375,-0.3125
42459502868,1.0625,-0.25,0
42459524003,-0.5625,0,-0.3125
42459546462,0.1875,-0.0625,-0.625
42459562852,0.125,0.1875,0.0625
42459585419,-0.75,0.8125,0.9375
42459606493,0.5,1.0625,1.375
42459622874,1.125,1.375,1.625
42459643995,1.6875,1.3125,0.875
42459666498,0.625,1.125,0
42459682910,1.625,0.5,-0.4375
42459703908,1.9375,-0.25,-0.125
42459734621,1.5,-0.6875,0
42459742885,0.625,-0.8125,-0.625
42459763978,-0.375,-0.625,-1.3125
42459786457,-1.3125,-0.375,-1
42459802867,-1.8125,0.0625,-0.5625
42459823932,-0.0625,0.3125,0
42459846499,1.625,0.8125,0.375
42459863055,0.8125,1.5,0.0625
42459883921,-0.9375,1.6875,-0.3125
42459906382,0.0625,1.375,-0.125
42459922793,1.625,0.5,0.5625
42459943896,1.3125,-0.0625,1
42459966402,-0.625,-0.5625,0.5
42459982836,-1.6875,-1.125,0
42460005376,-1.375,-1.5,0.125
42460026377,-1.5,-1.4375,0.625
42460042822,-0.8125,-1.25,0.375
42460065342,-0.4375,-1,0
42460086425,-0.4375,-0.625,-0.0625
42460102851,-0.6875,-0.125,0.0625
42460125406,-0.9375,0,0.125
42460146463,0.0625,-0.0625,0.125
42460162938,0.625,-0.4375,-0.375
42460185454,-0.875,-0.75,-0.5
42460206570,-3.25,-0.1875,-0.9375
42460222907,-2.6875,-0.6875,-1.375
42460245472,-3.5625,-1.8125,-1.9375
42460266414,-5.75,-3.75,-1.5625
42460282841,-8.5625,-4.5625,-0.625
42460305455,-8.8125,-4.5625,-1.4375
42460326463,-9.6875,-5.125,-3.25
42460342965,-11.6875,-5.5625,-3.6875
42460365435,-12.5,-5.9375,-2.8125
42460386532,-13.125,-5.0625,-2.5625
42460402866,-14.4375,-4.625,-4.4375
42460425353,-14.625,-5.5625,-4.9375
42460446429,-16.875,-5.875,-5
42460462883,-20.0625,-5.8125,-5.125
42460486827,-17.0625,-6.6875,-5.9375
42460506404,-13.9375,-6.625,-6.875
42460522857,-12.8125,-6.5625,-7.375
42460545366,-14,-6.125,-7.6875
42460566431,-11.0625,-5.4375,-7.8125
42460588899,-6.9375,-3.25,-6.875
42460605396,-3.875,-0.625,-5.5
42460626400,0.875,-0.4375,-4.75
42460648869,2.5625,-1.375,-4.75
42460665376,0.25,-0.1875,-4.8125
42460686452,0,2.625,-4.8125
42460702850,1.5625,4.125,-4
42460725359,2.6875,2.875,-2.4375
42460746422,3.1875,-0.1875,-0.3125
42460762919,0.4375,-0.5,0.5625
42460785382,-0.8125,0.625,-0.0625
42460806406,1.5625,1.125,-0.75
42460822850,3.0625,-0.3125,-1.125
42460845347,0.5625,0.125,-0.75
42460866462,-1.4375,1.75,-1.0625
42460882868,0.6875,2.4375,-1.6875
42460905405,4.125,2.4375,-1.25
42460927894,7.375,2.75,-0.25
42460942882,11.625,3.5625,1.375
42460971464,14.875,5.3125,2.625
42460987849,15.3125,7.5,3.0625
42461004385,16.875,8.625,3.5625
42461025488,22.1875,10.125,4.8125
42461047855,28.1875,11.6875,6.4375
42461069546,36.0625,13.375,7.6875
42461084577,43.375,13.8125,7.625
42461107059,42.6875,14.6875,7.9375
42461129547,36.0625,16.1875,6.875
42461144533,31.75,16.75,4.6875
42461167061,33.5,17.125,4.3125
42461189617,38.8125,16.5625,4.875
42461204602,41.75,13.375,5.5625
42461227096,37.0625,9.8125,5
42461249561,27.125,7.6875,4.9375
42461264588,12.5625,7.25,3.625
42461287071,-0.5625,6.625,0.875
42461309619,-3.1875,3.875,-0.375
42461324592,2.875,0.625,0
42461347110,7.375,-1.0625,2.125
42461363565,6.25,-1.3125,3
42461384613,0.1875,0,3.375
42461407128,-4.25,0.9375,3.25
42461423535,-2.6875,-0.1875,2.6875
42461444565,2.5,-1.625,2.125
42461467093,3.5,-1.5,1.75
42461483582,-2.9375,0.25,1.9375
42461512141,-6.5625,1.0625,1.6875
42461527139,-3.5625,0.125,1.5625
42461543526,3.0625,-1.0625,1.625
42461564602,3.6875,-0.75,1.875
42461587102,-0.6875,0.625,2
42461603587,-3.875,1.9375,2.375
42461624644,-2.0625,2.125,2.125
42461647120,2.1875,1.625,1.4375
42461663537,4,1.4375,1.0625
42461684614,0.4375,2.125,1.5625
42461707084,-1.8125,2.5,2.1875
42461723506,1,1.75,2.125
42461744682,4.5,0.9375,1.625
42461767116,3.75,0,0.75
42461783587,-0.625,-0.9375,0.1875
42461804610,-5.0625,-1.6875,0.3125
42461827057,-5,-2.5,0
42461843527,-1,-3.1875,0
42461864636,0.5,-3.1875,-0.1875
42461887175,-1.3125,-2.5,-0.375
42461902900,-1.9375,-1.625,-0.8125
42461924633,-0.75,-0.625,-1
42461947102,-0.375,0.0625,-1.25
42461962898,0.6875,0.75,-1.4375
42461986040,0.8125,1.1875,-1.125
42462007086,1.3125,1.5625,-0.875
42462022883,2.6875,1.125,-0.4375
42462044661,1.1875,1,0.1875
42462067092,-1.25,0.625,0.0625
42462082937,-1.875,0.125,-0.4375
42462106071,-1.1875,-0.25,-0.4375
42462127128,-0.625,-0.4375,-0.3125
42462142973,-0.5625,-0.4375,-0.0625
42462166078,0.1875,-0.5,0
42462187147,-0.1875,-0.4375,-0.1875
42462202854,-1.125,0,-0.375
42462226058,-0.4375,0.125,-0.6875
42462247233,1.4375,0.3125,-0.1875
42462262907,1.75,0.4375,0.4375
42462286122,0.6875,0.75,0.4375
42462314700,0.5,0.25,-0.125
42462322962,0,0,-0.125
42462346119,-0.3125,-0.1875,-0.125
42462367235,0.6875,-0.375,0.125
42462382990,1,-0.3125,0.375
