timestamp,x,y,z
11151692937,5.3125,-2.625,0.625
11151717024,8.9375,-3.75,-1.625
11151736474,5.0625,-2.9375,-1.4375
11151760411,-1.875,-1.8125,-0.3125
11151775421,-6.3125,-2.3125,-0.375
11151796468,-5.125,-3.375,-1.6875
11151812905,-4.25,-3.3125,-1.0625
11151835426,-3.4375,-2.4375,-0.375
11151856462,-2.875,-1.625,0.375
11151873006,-1.1875,-1.1875,1.25
11151895515,0.6875,-1.375,2
11151916602,0.9375,-1.125,3.5625
11151932938,-0.9375,-0.25,3.75
11151955424,-0.25,0.375,1.5625
11151976638,2.25,-0.4375,-0.625
11151992919,2.375,-1,-0.5
11152015467,-0.5625,-0.9375,1.4375
11152039403,-2.25,-1,2.625
11152052930,-2.875,-1.25,1.9375
11152075465,-0.8125,-1.5,0
11152096528,1.75,-1,-0.75
11152112973,1.9375,-1,-0.25
11152135416,-0.625,-1.0625,0.75
11152156491,-3.375,-1,0.875
11152172953,-2.875,-0.875,1.1875
11152195482,0.3125,-0.375,0.5
11152216589,1.6875,-0.5,0.125
11152232978,0.5,-0.6875,1.125
11152255455,-1.1875,-0.375,1.6875
11152278026,-1.8125,-0.5,2
11152292971,-1.1875,-0.4375,1.75
11152315463,0.125,0.5,0.625
11152338047,1,0.625,-0.25
11152353022,3.5625,-0.375,-0.4375
11152374704,-0.375,-0.375,0.1875
11152397253,-3.125,-0.3125,0.5625
11152413605,-1.75,-0.125,0.5625
11152434696,0.8125,-0.0625,-0.1875
11152457154,1.9375,-0.125,-0.625
11152473584,0.6875,-0.375,0
11152494790,-1.3125,-0.3125,0.625
11152517264,-1.9375,-0.0625,0.8125
11152533650,-0.5,-0.25,0.5625
11152562271,0.625,-0.1875,0
11152577239,0.375,-0.25,0.1875
11152594149,-0.125,-0.375,0.625
11152614778,-0.625,0,0.6875
11152637289,0,0.0625,0.25
11152653682,0.3125,-0.1875,0.125
11152674674,0.0625,-0.3125,-0.125
11152697164,-0.1875,-0.1875,0.5
11152713592,-0.1875,0,0.5
11152734650,-0.75,0.3125,0.25
11152757194,-1.875,0.125,0.125
11152773633,-1.8125,-0.0625,0.0625
11152794734,-0.4375,-0.4375,-0.0625
11152817267,1.1875,-0.5,-0.0625
11152833688,0.5625,-0.125,0.0625
11152854799,-0.1875,0.125,0.1875
11152877299,-0.0625,0.1875,0.25
11152893742,0.0625,0.125,0.25
11152914795,0.3125,0.125,0.1875
11152937253,0.6875,-0.1875,0.0625
11152953695,0.25,-0.375,-0.125
11152974701,-0.75,-0.1875,0.125
11152997138,-0.9375,-0.25,0.375
11153013650,-0.125,-0.1875,0.5625
11153042728,0.5625,-0.0625,0.0625
11153057190,1.125,0,0
11153073577,0.125,-0.1875,0.1875
11153094805,-0.1875,-0.3125,0.1875
11153117295,0,-0.25,0.0625
11153133685,0.4375,-0.3125,-0.3125
11153154760,0.125,-0.75,-0.25
11153184743,-0.375,-0.875,-0.125
11153193684,-0.4375,-0.9375,-0.25
11153214794,-1.9375,-0.625,0.1875
11153237294,-1.8125,-0.5625,0.625
11153253687,-0.4375,-0.375,0.3125
11153274668,1.3125,-0.5625,-0.4375
11153297216,1.4375,-0.625,-0.25
11153312937,-0.25,-0.375,0.5
11153334670,0.125,-0.125,0.5625
11153357205,0.6875,-0.125,-0.0625
11153373032,0.5625,-0.1875,-0.25
11153396187,-0.625,-0.0625,0
11153417301,-0.8125,0,0.25
11153433025,-0.0625,-0.0625,0.125
11153456183,0.375,-0.1875,0
11153477222,0.3125,-0.0625,0.1875
11153493470,-0.375,-0.0625,0.375
11153516183,0.4375,-0.0625,0.125
11153537281,0.6875,-0.3125,-0.1875
11153553005,-0.75,-0.3125,0.25
11153576141,-1.375,-0.4375,0.3125
11153598612,-0.6875,-0.5,0.4375
11153612997,-0.3125,-0.5,0.4375
11153636135,0.25,-0.3125,0
11153657205,1.5,-0.3125,-0.0625
11153672951,1.4375,-0.3125,0.1875
11153696217,0.375,-0.125,0.25
11153717273,0.375,-0.3125,0.25
11153733033,0,-0.4375,0.3125
11153756224,-0.0625,-0.25,0.1875
11153777305,-0.4375,-0.125,0.25
11153793069,0.1875,-0.1875,0.3125
11153816154,0.375,-0.1875,0
11153837250,-0.375,-0.25,0.25
11153853012,-0.8125,-0.1875,0.75
11153876160,-0.8125,-0.125,0.6875
11153897311,-0.9375,0.0625,0.375
11153913027,-0.625,0.0625,0.25
11153936145,0,-0.0625,0.4375
11153957268,0.6875,-0.25,0.4375
11153981171,0.6875,-0.375,0.0625
11153996210,0.5,-0.1875,0.25
11154017222,0.4375,0.0625,0
11154033098,0.6875,-0.0625,-0.0625
11154056207,0.4375,-0.5,-0.125
11154077274,0,-0.3125,0.125
11154093010,-0.1875,-0.1875,0.0625
11154116269,0.25,-0.125,0.0625
11154138738,0.125,-0.1875,0.0625
11154153543,0.5,-0.0625,-0.25
11154176234,0.5,0.1875,-0.0625
11154197304,-0.125,0.25,0.1875
11154213035,-0.5,-0.125,0
11154236179,-0.25,-0.5,0
11154257227,-0.5,-0.1875,-0.0625
11154272993,-0.3125,-0.3125,0.125
11154295488,0.125,-0.4375,0.4375
11154318632,0.75,-0.4375,0.1875
11154332975,1.375,-0.4375,0.125
11154355517,0.6875,-0.375,0.0625
11154378631,-0.25,-0.25,0.25
11154393020,-0.875,-0.125,0.375
11154415552,-0.3125,-0.3125,0.1875
11154438723,0.375,-0.1875,-0.0625
11154453090,-0.875,-0.1875,0
11154475518,-0.875,0,0.25
11154498655,1,0.0625,-0.1875
11154513102,3.125,-0.1875,-0.875
11154535673,3.25,-0.375,-0.125
11154558680,-0.0625,-0.125,1.125
11154573032,-2.0625,0.375,0.875
11154595528,-1.6875,0.5,0.5625
11154618671,-0.4375,-0.1875,0.25
11154633010,0.5,-0.25,0.0625
11154655531,0.1875,0.5,0.3125
11154678656,-0.5,1.25,-0.125
11154692989,-0.8125,1.1875,-0.1875
11154715504,0.125,0.3125,-0.375
11154738763,0.8125,-0.625,0
11154753053,-0.125,-1,0.5
11154775732,0.0625,-0.625,0.0625
11154798697,1.1875,-0.3125,0.3125
11154819750,1.6875,-0.0625,-0.1875
11154835519,1,0.6875,-0.1875
11154858677,0.3125,0.75,0.4375
11154881230,-1.3125,0.6875,0.6875
11154895558,-1.9375,0.0625,1.0625
11154918708,-1.625,-0.375,0.25
11154939785,-1.0625,-0.25,0
11154955521,-1.0625,0,0.875
11154978635,-0.625,0.3125,0.5625
11154999833,1.5625,0.1875,-0.1875
11155015499,0.9375,0.5,-0.5625
11155039132,-0.875,0.25,0
11155059759,-0.6875,0.25,0.5
11155083467,0.5,0.375,-0.3125
11155098701,1.0625,0.375,-0.75
11155119786,1.5625,-0.6875,-0.4375
11155135546,0.3125,-0.25,0.25
11155158694,-0.8125,0.25,0.875
11155179859,-1.0625,0.5625,0.3125
11155195702,0.125,0.375,-0.25
11155218049,1.5625,-0.25,-0.5
11155241217,2.4375,-0.8125,-0.4375
11155255535,1.625,-1.125,-0.0625
11155277997,-0.0625,-0.8125,0.1875
11155301787,-0.75,-0.0625,0.1875
11155315584,-0.3125,0.3125,0.3125
11155338076,1.3125,-0.1875,0.25
11155367325,1.25,0.0625,0.0625
11155375592,0.5,0.1875,-0.1875
11155398079,-0.5625,0.3125,0.375
11155421212,-0.8125,0.25,0.625
11155435527,0.5,0.3125,0.4375
11155458014,1.1875,-0.0625,0.5
11155481300,0.0625,-0.0625,0.625
11155495601,-0.6875,0.125,0.375
11155518048,-0.125,0.125,0.125
11155541210,0.375,-0.125,0.5
11155555591,1,-0.0625,0.3125
11155578107,1.5625,-0.1875,-0.0625
11155601209,0.5625,0,0
11155615698,-0.375,0.25,0.375
11155646159,-0.5625,0.375,0.75
11155661140,0,0.5625,0.5
11155675618,1.6875,0.1875,0.0625
11155698069,1.5,0,-0.0625
11155721247,0.125,0.125,0.25
11155742317,-1.125,0.0625,0.5625
11155758038,-0.5,0.0625,0.25
11155781223,0.5625,-0.125,-0.125
11155802343,1,0,-0.125
11155818101,0,0.0625,0.125
11155841199,-0.25,-0.125,0.4375
11155862339,0.0625,-0.125,0.25
11155884864,0.1875,-0.4375,0.3125
11155901226,0.6875,-0.1875,0.375
11155922319,0.625,0,0.0625
11155938063,0.1875,-0.125,0.4375
11155961261,0.25,-0.25,0.0625
11155982042,0.4375,-0.25,0.125
11155998089,-1.25,0,0.4375
11156021289,-2.125,-0.1875,0.5
11156042264,-0.125,-0.5625,0.25
11156058058,2.0625,-0.5,0
11156081208,1.9375,-0.125,0
11156094551,0.25,0,0.3125
11156117311,-0.9375,0,0.5
11156131662,-1.125,0,0.5625
11156154127,-0.1875,-0.0625,0.25
11156177365,1,-0.0625,0
11156191561,0.9375,-0.1875,0.125
11156214186,-0.25,0.125,0.3125
11156237328,-0.625,0.125,0.4375
11156251658,0.875,0.0625,0.375
11156274179,1.0625,-0.125,0.3125
11156297318,-0.3125,0,0.375
11156311704,-0.6875,-0.125,0.375
11156334197,-0.125,-0.1875,0.375
11156357421,1,-0.125,0.5625
11156371681,1.625,0,0.125
11156394169,1.625,0,-0.125
11156417360,1.0625,-0.0625,-0.0625
11156431716,-0.25,0.0625,0.3125
11156454195,-0.6875,-0.0625,0.5
11156477685,-0.4375,-0.125,0.4375
11156491620,0.4375,-0.0625,0.25
11156514091,0.8125,0,0
11156537266,0.5625,-0.25,0
11156551662,0.125,0.125,0.3125
11156574067,-0.3125,0.0625,0.4375
11156597273,0.375,0.0625,0.1875
11156611623,0.6875,-0.1875,-0.0625
11156634060,-0.0625,-0.4375,0.25
11156658712,0.1875,-0.5625,0.25
11156671709,1.875,-1,-0.6875
11156694190,4,-1,-1
11156717382,3.25,-0.875,-0.75
11156731659,1.375,-0.5,-0.1875
11156763017,0.75,-0.3125,0.1875
11156777325,0.25,-0.3125,0.5
11156791636,0.0625,0.0625,0.3125
11156823032,0,-0.125,0
11156837374,0.625,0,0.1875
11156851749,0.0625,0.1875,0.3125
11156874196,-0.75,0.3125,0.4375
11156897335,-1.625,0.1875,0.4375
11156911708,-1.1875,-0.125,0.3125
11156934155,0.1875,-0.375,0.25
11156957380,1,-0.25,0.0625
11156971744,1.0625,0,0.0625
11156994163,0.125,0,0.3125
11157017353,-0.8125,-0.125,0.375
11157033130,-0.75,-0.3125,0.25
11157054224,-0.0625,-0.25,0
11157077257,0.5,-0.25,0.375
11157091599,-0.5625,0,0.3125
11157114162,-0.25,-0.0625,0.0625
11157136611,2.125,-0.0625,-0.125
11157151604,1.8125,-0.0625,-0.1875
11157174084,-0.0625,0.25,0.1875
11157196718,-0.875,0.125,0.5625
11157211712,-0.4375,-0.125,0.625
11157234235,0.25,-0.25,0.25
11157256748,0.5625,-0.125,0.1875
11157271714,0.75,-0.0625,-0.1875
11157294208,1.0625,-0.125,-0.125
11157316745,0.8125,-0.0625,-0.0625
11157331730,0.3125,0,0.375
11157354249,-0.1875,0,0.4375
11157378122,-0.125,0.0625,0.0625
11157391650,-0.0625,0.125,0.0625
11157414225,0,-0.0625,0
11157436682,0.5,-0.125,0
11157451613,0.75,0,0
11157474145,0.5625,-0.375,0
11157496656,-0.125,-0.3125,0.125
11157511654,-1.375,0.25,0.375
11157534082,-1.4375,0,0.3125
11157556723,1.4375,-0.0625,0.0625
11157571661,1.5625,-0.0625,0.0625
11157594146,-0.5,0.0625,0.5625
11157616720,-0.9375,0,0.5625
11157631777,-0.8125,0,0.375
11157654206,-0.6875,0.0625,0.4375
11157676709,-0.3125,0,0.5
11157691644,0.6875,-0.125,0.0625
11157714252,0.6875,0,0
11157736684,0.25,0.0625,0.125
11157751671,-0.9375,0.1875,0.375
11157774206,-0.875,0.125,0.25
11157796718,-0.25,-0.1875,0
11157811723,0.75,-0.5,-0.3125
11157834161,1.0625,-0.5625,-0.0625
11157856731,0.4375,-0.4375,0.25
11157871717,0.5,-0.1875,0.1875
11157894192,1.5625,-0.125,0.0625
11157916676,1.1875,-0.3125,0.3125
11157933051,-0.5625,-0.125,0.3125
11157954161,-1.5,-0.1875,0.5625
11157976646,-0.75,-0.125,0.625
11157991634,0.9375,-0.0625,0.125
11158014161,0.75,-0.1875,0.125
11158036669,-0.375,-0.25,0.3125
11158051726,-1,-0.0625,0.625
11158074242,-0.4375,-0.0625,0.4375
11158096652,0.1875,-0.0625,0.125
11158113168,0.1875,-0.125,0.125
11158134222,0.375,-0.125,0.3125
11158156729,0.375,-0.25,0.4375
11158173127,0.625,-0.0625,0
11158194198,0.625,-0.0625,0.125
11158216688,0.3125,0,0.4375
11158233158,0.3125,-0.0625,0.3125
11158254128,0.8125,-0.125,0.0625
11158276659,0.8125,0,-0.1875
11158293096,0.25,0.0625,0.3125
11158314121,0.3125,0,0.4375
11158336752,0.625,-0.1875,0.1875
11158353192,0.375,-0.0625,0.0625
11158374190,-0.125,0,0.1875
11158396691,0,0.1875,0.4375
11158413078,0.375,0.125,0.25
11158434151,0.625,-0.3125,0.125
11158456620,0,-0.3125,0.1875
11158473085,-0.6875,-0.0625,0.4375
11158494158,0.0625,-0.0625,0.25
11158516657,1,-0.25,0.1875
11158533090,1.125,-0.3125,0.1875
11158554151,0.875,-0.3125,0.0625
11158576648,0.375,-0.1875,0.125
11158594587,0.0625,0.0625,0.0625
11158614152,-0.25,-0.125,0.4375
11158636610,-0.75,-0.0625,0.4375
11158653081,-0.6875,-0.3125,0.25
11158674151,0.25,-0.3125,-0.25
11158696703,2.0625,-0.5,-0.1875
11158713099,1.6875,-0.4375,0.25
11158734172,0.4375,-0.1875,0.3125
11158756659,-0.0625,-0.0625,0.3125
11158773121,-0.0625,-0.0625,0.3125
11158794211,-0.25,-0.125,0.1875
11158816673,-0.5625,-0.1875,0.375
11158833067,-0.125,-0.125,0.375
11158854143,0.0625,0.0625,0.25
11158876619,0.25,-0.125,0.3125
11158893068,0.125,0,0.4375
11158914156,-0.0625,0.1875,0.5625
11158936670,-0.9375,0.0625,0.3125
11158953083,-0.375,-0.125,0.4375
11158975618,0.0625,-0.125,0.1875
11158996625,0.5,0,0.0625
11159013063,0.5,-0.0625,0.375
11159035595,0.375,0,0.3125
11159056615,-0.1875,-0.125,0.375
11159073071,-0.125,-0.0625,0.375
11159095599,0.25,0.0625,0.375
11159118144,0.5,-0.0625,0.3125
11159133067,0.125,-0.125,0.25
11159155613,-0.25,0,0.375
11159176689,-0.125,0,0.3125
11159193080,0.375,0,0.4375
11159215639,0.375,-0.0625,0.1875
11159236673,-0.125,0.0625,0.25
11159253146,-0.5625,0.125,0.3125
11159275612,-0.0625,-0.0625,0.4375
11159296671,0.4375,0,0.25
11159313146,1.0625,0,-0.0625
11159335597,0.5,-0.1875,0.25
11159356648,-0.375,0.0625,0.25
11159373090,-0.75,0,0.4375
11159395594,-0.5,0,0.375
11159416665,-0.1875,-0.0625,0.25
11159433095,0,-0.25,0.0625
11159455605,0.875,-0.25,0.125
11159476658,1.0625,-0.1875,0.25
11159493096,0.625,0.1875,0.3125
11159515618,0.8125,0.0625,0.1875
11159536665,0.5,-0.125,0.125
11159553086,-0.4375,-0.25,0.3125
11159575631,-0.9375,-0.0625,0.5
11159596691,-0.125,0.125,0.4375
11159613070,0.8125,0.0625,0.125
11159635602,1,0,0.125
11159656689,0.5,-0.0625,0.1875
11159673069,-0.4375,0.0625,0.5
11159695614,-1.1875,0,0.625
11159716673,-0.375,-0.0625,0.4375
11159740594,0.8125,-0.125,0.125
11159755614,0.9375,-0.0625,0.125
11159776667,0.5,-0.125,0.1875
11159793122,0.1875,-0.1875,0.25
11159814858,-0.25,-0.1875,0.3125
11159837346,-0.625,-0.1875,0.3125
11159852325,0.1875,-0.0625,0.375
11159874814,0.5,0.0625,0.0625
11159897373,0.5,0.125,-0.1875
11159912344,-0.25,0.5625,-0.6875
11159934839,-2.25,1.25,0.125
11159957332,-5.625,3.125,0.5
11159972337,-3.0625,4.1875,-0.625
11159994817,5.75,5.4375,-3.25
11160017309,7.0625,5.5,-2.25
11160033781,-0.25,3.375,0.75
11160054784,-8.5,1.5,1.4375
11160077359,-5.1875,0.125,2.6875
11160093786,10.6875,2.0625,4.25
11160114911,21.875,2.5,2.3125
11160137439,21.5,2.9375,-0.1875
11160154330,10.8125,-0.1875,-0.25
11160174894,3.75,0.5625,-0.1875
11160197396,7.5625,1.625,2
11160213860,0.0625,1.625,-1.6875
11160234966,-6.6875,-0.9375,-3.25
11160257483,-8.5,-2.75,-3.5625
11160273861,-2.6875,-3.875,-4.9375
11160294934,0.8125,-4.125,-1.125
11160317390,1.75,-5.75,5.8125
11160333831,5.5,-0.9375,12.75
11160354734,14.4375,7.75,18.125
11160377545,20.625,15.75,23
11160393844,25,18.1875,34.3125
11160414936,28.1875,15.625,52.1875
11160437442,51.625,16.375,70.1875
11160453846,68.125,31.3125,70.125
11160474953,61.875,38.25,76.1875
11160497440,44.8125,34.1875,77.5625
11160513852,23.6875,27.625,64.9375
11160536352,1.8125,22.4375,43.5625
11160557423,-18.75,16.375,36.9375
11160573855,-38.125,5.3125,40.5
11160594942,-45.875,-1.9375,41.4375
11160617476,-45.1875,-0.3125,33.0625
11160641348,-38.5625,2.4375,23.875
11160654967,-37.25,0.3125,20.125
11160677393,-38.8125,-2.9375,31.3125
11160693819,-38.625,0.875,44.0625
11160715026,-33.75,6.625,42.25
11160737370,-21.0625,6.125,36.9375
11160753828,-10.3125,-1,37.1875
11160774929,-7.4375,-8.125,40
11160797440,-6.6875,-8.75,35.125
11160813825,-8.5625,-6.375,28.4375
11160834952,-13.5,-6.5625,27.6875
11160857499,-16.625,-11.625,28.9375
11160873901,-13.125,-17.9375,25.375
11160894964,-5.25,-16.5625,19.25
11160917413,-2,-9,14.25
11160933172,-6,-4.4375,12.25
11160956329,-17.625,-6.0625,15.375
11160977371,-29.125,-11.875,22.3125
11160993147,-25,-18.375,30.375
11161016369,-9.25,-20.0625,29.625
11161037492,2.75,-16.8125,22.8125
11161053181,1.6875,-12.8125,18.4375
11161076359,-6.5,-11,19.75
11161097405,-12.5625,-8.25,21.1875
11161113198,-7,-5.875,18.3125
11161136311,-1.125,-4.625,13.3125
11161164951,0.5625,-3.9375,10.75
11161173221,5.5,-4.75,7.625
11161196300,11.8125,-4.25,3.3125
11161217397,8.8125,-0.375,-5.625
11161233255,4.375,5,-13.6875
11161256369,3.3125,9.9375,-19.375
11161277444,4.1875,13.9375,-20.1875
11161293233,6.0625,16.4375,-19.5625
11161316351,12,19.1875,-19.8125
11161337458,19.1875,20.1875,-22.875
11161353213,22.6875,21.9375,-24.5
11161376309,21.9375,23.6875,-23.4375
11161397507,25.8125,16.5625,-22.75
11161413189,28.5625,14.25,-19.5625
11161436356,32.125,13.5625,-19.8125
11161457454,36.9375,9.875,-30.5
11161473660,40.5625,1.5625,-30.125
11161496400,29.4375,-12.875,-33.8125
11161517481,-6.9375,-20.125,-33.3125
11161533189,-28,-18.3125,-33.875
11161556378,-30.125,-20.4375,-34.5
11161577460,-24.5,-35.0625,-20.625
11161593207,-22.1875,-48.0625,-12.9375
11161616363,-19.375,-44.3125,-19.875
11161637529,-19.8125,-32.25,-31.0625
11161653212,-24.25,-31.0625,-21.8125
11161676087,-30.0625,-36.9375,-1.5625
11161697457,-21.125,-37.5,4.875
11161713245,-6.5625,-28.8125,-5.25
11161736396,-0.4375,-26.125,-10.4375
11161758889,-0.875,-35.4375,1.125
11161773223,2.375,-46.125,17
11161796411,10.625,-49.5,20.5
11161817429,23.875,-50.125,11.75
11161833237,32.75,-48.4375,4.5625
11161855667,27.4375,-42.625,1.125
11161877460,7.6875,-38.1875,-10.25
11161893234,-18.125,-34.3125,-23.5625
11161915710,-43,-26.75,-19.5
11161938900,-62.1875,-22.625,-13.3125
11161953232,-80.6875,-28.0625,-18.125
11161975658,-73.0625,-29.1875,-20.625
11161998876,-34.875,-25.5,-14.8125
11162013176,-3.25,-0.875,-14.5
11162035683,-9.75,12.8125,-17.9375
11162058857,-39,9.9375,-4.4375
11162073257,-59.1875,2.5,13.875
11162096271,-39.8125,-4.25,16.4375
11162118883,-5.875,-0.1875,8.625
11162133183,15,10.75,4.5625
11162155650,19.375,24,11.0625
11162178784,9.375,33.0625,-2.1875
11162193217,-6.875,41.4375,-24.8125
11162215738,-28,51.5,-33.375
11162238835,-34.5,59.9375,-24.5
11162259935,-21.125,57.3125,-10.875
11162275649,6.625,43.875,-9.8125
11162306423,47,26,-9.5625
11162319940,60.75,10.875,-11.4375
11162335753,56.25,3.8125,-1.875
11162358865,57.9375,11.875,11.625
11162379950,72.8125,13.5,0.125
11162395724,75.625,3.125,-5.875
11162418849,69.625,-7.375,-8.125
11162439903,78.1875,-21.4375,-6.1875
11162455690,88.0625,-36.75,-3.625
11162478869,90,-40.25,-1.9375
11162499880,90.6875,-24.375,0.6875
11162515653,76.0625,1.8125,5.8125
11162538874,60.875,21.5,0.9375
11162559855,73,32,-3.9375
11162583865,89.4375,34.5,1.9375
11162598901,81.75,32.5625,9.5
11162619950,68.5,32.875,13.8125
11162635682,68.125,33.9375,13.25
11162658886,82.25,26.375,13.875
11162679993,87.125,9.9375,17.9375
11162695754,91.875,-2.1875,25.25
11162718903,91.5,-4.3125,18.5
11162739879,84.6875,-1.8125,9.9375
11162755627,76.375,-1,7.1875
11162778780,68.5625,-4.3125,4.5
11162799963,59.1875,-14.75,-0.1875
11162815733,52.25,-30,6.5
11162838191,53.5,-47.5625,26.875
11162861364,50.75,-57.0625,43.625
11162875747,44.5,-51.9375,29.25
11162898239,51.25,-42.375,25.4375
11162927463,49.6875,-28.9375,26.6875
11162935724,28.25,-7.6875,23.5625
11162958183,-3.375,12.125,25.875
11162981387,-38.125,18.8125,27.25
11162995746,-63.5625,15.6875,28.875
11163018255,-71.1875,7.375,22.5
11163041316,-64.4375,-3,14.6875
11163062411,-47.875,-8.875,6
11163078141,-31.1875,-13.5,1.375
11163101360,-20.875,-18.75,-4.1875
11163115724,-24.9375,-21.6875,-8.8125
11163138636,-36.625,-22.8125,-7.0625
11163161317,-53.625,-23.75,1.6875
11163175689,-80.9375,-21.5625,5
11163198248,-93.875,-23,7.3125
11163221426,-77,-29.8125,11.4375
11163242474,-39.8125,-40.6875,14.375
11163258295,-6.875,-48.5,17.8125
11163281459,9.375,-56.625,24.4375
11163302496,13,-60.8125,35.3125
11163318253,10.1875,-55.875,49.4375
11163341361,1.75,-44.5625,50.125
11163362536,-0.75,-31.0625,42.4375
11163378279,5.0625,-26.5625,37.6875
11163401304,12.6875,-26.625,37.1875
11163422455,18.75,-24.1875,36.125
11163438211,23.75,-21.9375,34.6875
11163461363,23.5,-24.4375,35.75
11163482499,18.1875,-34.3125,42.75
11163498274,12.3125,-47.6875,51.9375
11163521428,6.9375,-57.125,58.625
11163534335,1.125,-60.8125,66.125
11163557498,-4.625,-66.5625,70.75
11163571815,-6.375,-84.3125,75.4375
11163594240,10.3125,-105.188,82.875
11163617157,31.75,-114.625,81.25
11163631736,46.5625,-113.5,76.6875
11163654295,50.3125,-114.25,75
11163677410,64.5625,-116.125,76.25
11163693161,75.9375,-118.562,71.25
11163714332,76.8125,-116.125,65.4375
11163737509,72.6875,-111.5,64.5
11163751836,61.875,-103.25,59.625
11163774369,46.625,-93.0625,51.5
11163797439,32.125,-83.6875,45.375
11163811759,16.9375,-72.9375,37.875
11163835717,-0.25,-60.5,30.875
11163865703,-11.375,-50.25,25.125
11163871879,-18.5,-43.125,21.1875
11163894278,-13.75,-31.625,15.75
11163917471,-5.9375,-22.8125,13.6875
11163931778,6.75,-17.0625,12.1875
11163954214,21.375,-10.75,11.5
11163977376,35.25,-7.8125,12.6875
11163991762,42,-6.0625,14.0625
11164014348,41,-4.6875,13.8125
11164037510,37.375,-4.625,11.8125
11164051810,33.8125,-4.6875,9.5625
11164083113,26.5625,-5.875,7.625
11164097497,13,-7.5625,5.5625
11164111837,-0.625,-7.875,3.3125
11164143058,-8.875,-6.5625,1.25
11164157535,-12.25,-4.5625,-1.5
11164171824,-11.0625,-1.25,-5.125
11164194263,-8.5,2.6875,-8.375
11164217402,-9.6875,7.3125,-11.125
11164231778,-14.6875,12.625,-13.6875
11164254269,-18.9375,16.5625,-14.9375
11164277399,-20.625,18.9375,-15.9375
11164291747,-19.6875,20.375,-16.6875
11164314274,-18.625,21.25,-16.875
11164337412,-19.3125,22.5,-17.0625
11164351810,-21.0625,22.4375,-16.1875
11164374355,-21.75,20.9375,-14.6875
11164397537,-20.9375,18.5,-12.125
11164411852,-19,15.9375,-9.125
11164434373,-16.5,13.625,-6.5
11164457518,-12.375,11.625,-4.375
11164471858,-6.6875,8.8125,-2.3125
11164494348,-2.25,5.5625,-0.4375
11164517496,-1.625,2.875,1.4375
11164531829,-3.125,1.0625,2.375
11164554374,-3.5,-1,3.0625
11164577518,-1.6875,-3,3.0625
11164591838,0.5,-5.375,3.75
11164614375,1.4375,-8.0625,4.75
11164637520,-0.8125,-10.875,6.1875
11164651823,-2.8125,-13.375,7.1875
11164674326,-1.125,-15.0625,6.9375
11164697537,3.5625,-16.0625,5.625
11164711798,8.4375,-16.1875,3.3125
11164734316,10.1875,-14.6875,0.625
11164757502,7.3125,-12.9375,-0.8125
11164771887,1.0625,-11.625,-1.25
11164794276,-5.25,-10.5625,-1.25
11164816933,-7.375,-10.125,-0.6875
11164831935,-5.4375,-9.625,0.0625
11164854301,-1.1875,-8.9375,0.6875
11164876788,4.5,-8.0625,1.3125
11164891840,8.75,-7.375,1.75
11164914325,9.25,-6.1875,1.375
11164936760,6,-5.125,0.9375
11164951788,1.375,-3.9375,0.1875
11164974243,-2.9375,-2.5625,-0.5625
11164996766,-4.6875,-0.5,-1.5
11165011759,-4.4375,1.9375,-2.5
11165034341,-2.75,3.8125,-2.6875
11165056953,-1.6875,5.1875,-2.375
11165071893,-1.75,5.6875,-1.5625
11165094320,-1.375,6.0625,-1
11165116828,0.0625,6.25,-0.8125
11165131848,1.0625,5.9375,-0.9375
11165154356,0.75,5.125,-0.9375
11165176767,-1,4.625,-0.75
11165191878,-2.8125,4.1875,-0.75
11165214334,-2.9375,4,-0.8125
11165236772,-2.25,3.8125,-0.5
11165262833,-2.3125,2.3125,0.4375
11165274257,-2.9375,0.8125,1.625
11165296781,-2.4375,-0.0625,2.125
11165311804,0.4375,-0.3125,2.375
11165334276,2.875,-0.75,2.75
11165356834,2.75,-0.75,2.8125
11165371877,0.75,-0.6875,2.75
11165394416,-0.1875,-0.6875,2.625
11165416867,0.375,-1,2.0625
11165431860,1.4375,-1.375,1.3125
11165454387,1.8125,-2.1875,0.6875
11165476808,1.0625,-2.75,0.1875
11165491852,0.6875,-3,-0.625
11165514324,1,-3.125,-0.875
11165536868,0.625,-3.25,-0.8125
11165551863,0.375,-3.375,-0.8125
11165574254,1.5625,-3.375,-0.625
11165596812,3.1875,-3.25,-0.625
11165611829,3.5625,-3.1875,-0.625
11165634359,2.5,-3.25,-0.125
11165656866,0.5,-3.25,0.375
11165673355,-0.9375,-2.9375,0.625
11165694349,-0.375,-2.625,1.1875
11165716871,1.1875,-2,1.5
11165733313,2.0625,-1.5,1.8125
11165754366,1.125,-1,1.9375
11165776775,-1,-0.5625,2
11165793279,-2.3125,-0.25,1.8125
11165814357,-2.0625,0.0625,1.5625
11165836826,-1.4375,0.375,1.125
11165853333,-1.5,1.0625,0.75
11165882463,-1.5,2.3125,0
11165896772,-1.5,3.0625,-0.6875
11165914684,-1,3.8125,-1.25
11165934320,0.1875,4.375,-1.5625
11165956858,1,3.6875,-1.25
11165973355,1,2.375,-0.375
11165994333,0.125,1.4375,0.375
11166016850,0.4375,0,1
11166033331,1.6875,-0.9375,1.4375
11166054359,1.5,-1.0625,1.3125
11166076807,0.5,-1.3125,1.4375
11166093284,-1.3125,-1.125,1.375
11166114381,-1.9375,-1,1.5625
11166136902,-0.9375,-0.875,1.5
11166153318,0.4375,-0.9375,1.875
11166174371,1,-0.3125,1.75
11166196823,1.4375,-0.125,1.3125
11166213274,1.25,-0.6875,1.375
11166234402,0.1875,-0.75,1.0625
11166256905,-0.625,-0.5,0.375
11166273319,0,-0.0625,-0.125
11166294331,0.9375,0.5,-0.375
11166316866,0.8125,0.9375,-0.25
11166333272,0.5,1.1875,0
11166354326,1,1,0.125
11166376839,2.5,0.5,0.3125
11166393262,3.9375,-0.0625,0.4375
11166414380,3.875,-0.625,0.9375
11166436793,2.4375,-1.0625,1.1875
11166453256,0.5,-1.75,1.4375
11166474315,0.3125,-2.375,1.6875
11166496846,1.5,-2.75,1.5625
11166513359,3.125,-2.75,1.4375
11166534474,3.125,-2.875,1.6875
11166556936,1.9375,-2.75,1.875
11166573322,2.5,-2.8125,1.75
11166595823,3.625,-2.5,1.75
11166616917,4.4375,-1.875,1.875
11166633289,3.25,-1.9375,2.125
11166655786,2,-1.9375,2.6875
11166676865,1.5625,-1.125,2.8125
11166693236,2.9375,-0.4375,2.625
11166715911,4.1875,0.125,2.25
11166736840,3.3125,0.6875,1.9375
11166753284,1.625,1.1875,1.5625
11166775773,0.4375,1.375,1.125
11166796930,-0.0625,1.5625,0.75
11166813329,0.1875,1.25,0.75
11166835821,0.5625,1,0.9375
11166856932,0.6875,1.25,0.8125
11166873364,1.0625,0.9375,0.875
11166895802,0.75,0.3125,1.1875
11166918314,0.8125,-0.5,1.1875
11166933362,2.0625,-1.125,0.8125
11166955854,2.5625,-1.6875,0.3125
11166976862,1.4375,-2.125,0.125
11166993269,-0.875,-2.375,0.0625
11167021825,-2,-2.5,0.1875
11167036810,-0.4375,-2.375,0.25
11167053263,2.375,-2.4375,0.4375
11167075778,3.5,-2.5625,0.375
11167096896,2.4375,-2.375,0.3125
11167113690,1.5625,-1.9375,0.125
11167135832,1.4375,-1.5,-0.1875
11167156943,1.125,-1.4375,-0.125
11167173340,0.4375,-1.25,0.125
11167197282,0.125,-0.8125,0.0625
11167216981,0.3125,-0.6875,0.375
11167233349,1.125,-0.4375,0.6875
11167255792,1.625,-0.4375,0.6875
11167277491,0.8125,-0.0625,0.375
11167299961,-0.1875,0.9375,0.4375
11167315035,-1.3125,0.5625,0.6875
11167337438,-1.6875,-0.0625,1.125
11167352490,-0.5,0,1.1875
11167374974,2.1875,0.125,0.8125
11167397632,3,0.125,0.25
11167414050,0.6875,0.5625,0.0625
11167435081,-2,0.875,0.125
11167457626,-1.875,0.9375,0.125
11167473979,0.5625,1.125,-0.1875
11167495104,2.8125,0.875,-0.4375
11167517653,2.4375,0.5,-0.5
11167532583,0.0625,0.75,-0.6875
11167555066,-0.8125,1.0625,-1
11167577569,0.375,0.75,-1.0625
11167592572,1.625,0.3125,-0.75
11167615061,1.625,0,-0.75
11167637463,1,-0.125,-1.125
11167653970,0.3125,-0.375,-1.1875
11167675024,-0.25,-0.375,-1.25
11167697475,-0.3125,-0.4375,-1.4375
11167713906,0.5625,-0.375,-1.0625
11167735187,1.0625,-0.5,-0.6875
11167757626,1.3125,-0.625,-0.25
11167773949,1.375,-0.5625,-0.1875
11167795072,1.75,-0.4375,-0.3125
11167817531,2.0625,-0.0625,-0.25
11167833917,1.75,0.125,0
11167855030,0.8125,0.5,0.25
11167877533,1.5625,0.875,0.25
11167893959,2.375,0.625,-0.0625
11167915010,3.1875,1.3125,0.3125
11167937576,2.5625,1.4375,0.125
11167953994,6.1875,1.9375,0.1875
11167974935,11.875,2.4375,-0.25
11167997477,9.3125,5.9375,-2.875
11168013962,4.8125,10.5625,-2.75
11168035146,-1.8125,15.0625,-1.9375
11168057569,-6.375,18.6875,-0.3125
11168074034,-3.6875,22.25,1.5625
11168095050,-0.5625,27.5,2.5
11168117560,-0.6875,35,1.375
11168134456,-2.4375,44.0625,-0.5
11168155063,-2.5,51.9375,-2.8125
11168177540,-3.25,56.625,-5.125
11168194002,-3.125,59.75,-10.0625
11168215091,-0.25,71.8125,-14.125
11168239059,3.125,96.5,-20.4375
11168254052,-2.5,118.75,-26.125
11168275134,-16.5625,135.75,-27.1875
11168305112,-23.5,151.875,-26.75
11168313943,-23,168.375,-30.9375
11168335054,-26,183.812,-32.6875
11168357519,-31.6875,193,-31.3125
11168374024,-34.625,202.062,-24.25
11168395025,-39.5625,211,-22.75
11168417505,-40.0625,212.562,-25.6875
11168434046,-33.3125,210,-26.5
11168455134,-25.5,211.25,-19.625
11168478992,-31.875,215.5,-16.375
11168493366,-40.1875,214.312,-16.5625
11168515042,-35.375,203.438,-20.5
11168537488,-18.4375,194.062,-17.0625
11168553430,-17.6875,188.5,-14.4375
11168576438,-40.25,181.312,-12.9375
11168597615,-61.375,170,-4.625
11168613386,-56.8125,154.375,-2.5
11168636534,-34.25,139.938,-5.125
11168657603,-16.25,133.438,-5
11168673393,-15.5625,130.5,-4.25
11168696541,-26.625,122.25,-1.75
11168717642,-32.8125,110.312,-0.0625
11168733425,-28.1875,96.625,-4.5625
11168756567,-21.8125,83.875,-8.375
11168777552,-11.5625,71.25,-10.6875
11168793319,1.75,58.875,-14.5
11168816509,13.125,51.125,-18.0625
11168837609,16.3125,45.0625,-14.6875
11168853307,10.1875,36.625,-10.0625
11168876522,0.6875,27,-6.0625
11168897620,-1.6875,19,-4.4375
11168913290,4.625,13.625,-3.3125
11168936451,7.1875,11.1875,-2.375
11168957321,1,8.375,-0.4375
11168973287,-9,2.625,1.9375
11168996547,-13.1875,-1.625,2.75
11169017583,-2,-4.5,-0.1875
11169033334,13.5625,-6.6875,-2.6875
11169056525,18.375,-7.5625,-2.125
11169077564,10.5625,-6.625,0
11169093334,-5.0625,-5.875,1.375
11169116562,-15.125,-5.4375,3
11169137621,-13.5625,-7,3.9375
11169153363,-8.4375,-7,3.5625
11169176589,-4.6875,-6.75,3.5625
11169197653,-1.5,-5.75,2.875
11169213362,0.9375,-4.9375,2.8125
11169236542,-0.3125,-5.1875,2.625
11169257580,-3.25,-5.8125,2.625
11169273410,-5.6875,-5.6875,4.3125
11169296583,-2.5625,-5.5625,4.8125
11169317683,3.4375,-5.625,4.625
11169333375,5,-6.5,3
11169356518,3.75,-5.25,1.9375
11169377529,-1.125,-3.625,1.9375
11169393289,-7.9375,-3.125,1.8125
11169416523,-12.5,-3.625,0.625
11169437596,-11.25,-4.8125,-1.625
11169453406,-6.0625,-3.5625,-2.3125
11169475873,-2.625,-0.1875,-3.75
11169497657,-3.625,2.8125,-6.375
11169513349,-8.5,3.6875,-6.0625
11169535833,-11.875,2.125,-4.75
11169559079,-11.1875,0.375,-2.9375
11169573441,-6.3125,-1.0625,-3
11169595825,0.875,-2.875,-4.125
11169619020,3.5,-4.9375,-3.875
11169633377,1.6875,-6.75,-2.4375
11169662605,0,-6.5,-0.8125
11169679104,-2.5,-5.0625,-1.25
11169693385,-4.8125,-3.3125,-2.0625
11169715912,-5.8125,-2.875,-1.4375
11169739022,-4.8125,-2.625,-0.75
11169753398,-3.3125,-2.9375,-0.6875
11169775901,-3.4375,-4.4375,-2
11169799474,-2.9375,-5.6875,-2.75
11169813385,0.875,-5.375,-2.25
11169835869,2.5,-3.4375,0.25
11169859073,-0.6875,-2.4375,0.375
11169873401,-4.0625,-1.75,0.75
11169895851,-3,-2.1875,2.25
11169919029,1.625,-3.25,2.5625
11169933457,5.4375,-3.1875,2.1875
11169955955,5.375,-1.8125,0.5
11169979027,2.5625,-1.375,-1.0625
11169993373,-0.0625,-3.625,-0.6875
11170015861,-1.625,-6.9375,-0.375
11170039026,-1.125,-9.25,-1.125
11170060084,1.0625,-10.9375,-2.9375
11170091553,4.375,-13.25,-3.3125
11170106524,5.9375,-16.25,-2.4375
11170120085,6.625,-19.5,-1.5
11170135894,6.9375,-23.5625,-1.1875
11170159071,7.4375,-29.0625,-0.8125
11170180071,7.5625,-36.3125,-0.75
11170195844,9.625,-44.3125,-0.6875
11170219021,15.875,-53.375,-1.375
11170239875,21.125,-62.625,-0.5625
11170255815,22.875,-69.75,4.5
11170278960,23.375,-72.4375,10.5
11170300160,23.0625,-76.3125,12.0625
11170315834,23.875,-82.9375,15.75
11170339065,27.5,-94.625,21.8125
11170361474,32.375,-110.125,18.3125
11170375841,35.6875,-121.062,18.1875
11170398378,34.6875,-129.938,22.875
11170420110,27.625,-144.188,26.625
11170435912,15.25,-162.875,34.5
11170458435,9.4375,-182.312,31.125
11170481596,18.6875,-201.5,15.25
11170495876,36.25,-219.062,5.25
11170518399,49.6875,-228.062,19.5625
11170541533,47.125,-224.688,38.75
11170555876,29.3125,-218.062,50.8125
11170578416,23.875,-212.75,52.5
11170601565,12.0625,-207.438,44.0625
11170615893,7.4375,-212.188,35.375
11170638344,12.375,-224.062,30.4375
11170661576,7.625,-230,27.75
11170675862,8.4375,-222.625,33.5625
11170698363,30,-203.125,45.8125
11170721596,63.5625,-189.125,50.375
11170735836,81.125,-172.875,51.6875
11170758338,79.8125,-153.312,55.1875
11170781498,75.625,-133.375,52.6875
11170802542,74.4375,-117.188,40.0625
11170818328,73.4375,-92.4375,24.9375
11170841589,67.625,-69.0625,17.9375
11170862726,55,-50,11.875
11170878400,31.625,-34.5,7.1875
11170907675,3.4375,-23.5,2.625
11170922662,-14.6875,-13.3125,-1.9375
11170938430,-17.625,-4.8125,-5.9375
11170961532,-13.75,1.8125,-10.25
11170982656,-8.8125,4.625,-11.5
11170998376,-6.1875,6.1875,-12
11171011906,-2.375,5.875,-12.25
11171034507,6.875,5.3125,-13.9375
11171057679,15.75,4.6875,-14.3125
11171071940,19.5,5.125,-14.9375
11171094455,14.1875,4.6875,-15.8125
11171117762,2.4375,4.1875,-16.0625
11171132016,-11.25,5.5625,-15.875
11171154528,-23,8.4375,-16.625
11171177671,-27.625,11.5,-17.125
11171191945,-25,13.9375,-18.125
11171214494,-19.8125,16.0625,-17.9375
11171237743,-16.625,18.6875,-17.125
11171252006,-16.8125,21.375,-16.125
11171274478,-16.9375,23.125,-14.8125
11171297618,-15.125,24.3125,-13.4375
11171311928,-12.4375,24.8125,-11.75
11171334454,-10.25,23.875,-9.75
11171357619,-7.9375,21.375,-7.75
11171371933,-4.875,18.625,-6.5
11171394435,-1.6875,15.6875,-4.9375
11171417659,-0.375,12.4375,-2.625
11171431953,-2.9375,9.4375,-0.625
11171454430,-7.125,6.625,1.375
11171477618,-8.4375,3.4375,3.6875
11171491876,-7.0625,0.25,5.75
11171514493,-4,-2.0625,7.1875
11171537673,-1.25,-3.9375,8
11171552008,0.5625,-5.5,8.625
11171574558,1.25,-7.3125,9.25
11171597699,1.125,-8,8.8125
11171611978,0.125,-8.5,7.6875
11171634484,-1.4375,-8.8125,6.4375
11171657758,-3.5,-8.25,4.75
11171672045,-6,-6.625,3.1875
11171694489,-7.25,-5.9375,2.75
11171717738,-6.9375,-4.8125,2.75
11171731936,-6.5625,-2.75,2.5
11171754497,-3.125,-0.625,2.25
11171777594,0.8125,0.1875,3
11171791976,1.9375,-0.375,3.6875
11171817367,0.9375,0.125,3.75
11171837731,1.8125,1.25,2.5625
11171852049,5.3125,1.9375,1
11171874521,8.4375,1.8125,0.125
11171897657,8.875,1.5,-0.5625
11171913377,6.1875,0.6875,-1.3125
11171934451,1.25,-1.5625,-1.4375
11171957628,-2.625,-1.5,-1.6875
11171971886,-2.5625,-1.5625,-2.3125
11171994423,-1.25,-0.1875,-2.8125
11172018091,-0.25,2.1875,-3.125
11172031923,0.3125,4.5,-3.4375
11172054443,1,5.75,-3.3125
11172077688,2.5,7.3125,-3.9375
11172091919,9.9375,10.1875,-5.0625
11172114487,17.8125,13.4375,-7.75
11172137660,19.875,15.9375,-9.5625
11172152009,15,16.8125,-10.4375
11172174462,5.9375,17,-11
11172197605,-3.375,15.375,-11.25
11172211935,-9.4375,12.25,-10.4375
11172234502,-11.5,8.8125,-9.0625
11172257743,-11.1875,5.1875,-7.625
11172272046,-7.9375,1.9375,-5.625
11172295914,-5.5625,2.6875,-5
11172317714,0.1875,7,-6.4375
11172332026,5.4375,11.125,-7.625
11172354561,3.5625,15.6875,-8.4375
11172377602,-0.375,19.625,-8.875
11172392002,-2.5625,22.4375,-9
11172414559,-2.0625,23.4375,-8.75
11172438455,1.6875,21.875,-8.125
11172452026,4.875,18.25,-7.125
11172474505,5.5625,14.8125,-5.4375
11172497044,4.875,10.9375,-3.375
11172511911,-0.0625,9.25,-4.625
11172534506,8.1875,1.875,-2.25
11172557017,12,3.1875,-7.3125
11172572003,4.5,-2.8125,0.6875
11172594464,-4.625,-2.75,-0.6875
11172616954,-8.1875,-4.8125,-1.25
11172631968,-13.5,-3.125,-0.8125
11172654454,-12.5625,-5.375,-2.875
11172676962,-4.125,-5.9375,-1.125
11172691922,8.8125,-8.6875,1.75
11172714471,30.0625,-23.3125,4.8125
11172745812,17.25,-17.75,-6.3125
11172752039,5.25,-6.0625,1.1875
11172774453,10.125,-2.5625,8.8125
11172797032,4.8125,-0.75,-1.125
11172811919,-13.8125,-12.75,-1
11172834565,-18.0625,-20.9375,-4.875
11172857085,-10.25,-1.6875,0.75
11172871957,-10.1875,-7.1875,-3.1875
11172894443,-14.875,-3.5625,-5.3125
11172916998,-29.3125,9.1875,7.125
11172932032,-5.75,-3,5.3125
11172954593,0.0625,-7.9375,-1.875
11172977040,-1.5,-4.875,9.875
11172991981,-14.375,11.5,2.4375
11173022729,-33.1875,30.25,-5.625
11173037028,-18.4375,6.0625,-8.4375
11173052031,-7.375,13.125,-4.375
11173074514,-3.5625,14.875,-10.1875
11173096995,-1.125,7.6875,-9.8125
11173111945,-6.4375,8.75,-9.1875
11173134513,-20.8125,19,-10.8125
11173157088,-30.5625,20.75,-6.3125
11173172064,-22.5625,26.25,-6.4375
11173194469,-6.75,26.875,-1.5
11173216951,8.8125,22.8125,1.1875
11173233501,4.125,13.875,12.3125
11173254538,-0.5625,16.5625,7.1875
11173276998,2.4375,18,2.9375
11173293356,9,25,-0.3125
11173314420,14.3125,38.5625,-4.4375
11173336990,17.8125,42.1875,-9.4375
11173353403,47.0625,32.875,-26.4375
11173374460,34.8125,28.875,-19.75
11173396946,15.125,28.6875,-9.0625
11173413412,-0.3125,25.5625,-3
11173434450,-13.875,26.5625,-4.9375
11173456991,-12.75,28,-2.5625
11173473439,0.1875,25.25,-9.8125
11173494499,-1.8125,20.5625,-12.125
11173517018,-7.625,25.25,-15.3125
11173533410,-12.0625,26.125,-11.1875
11173554520,-18.3125,26.875,-9.4375
11173576970,-11.0625,21.6875,-7.1875
11173593450,2,16.5,-5.875
11173614526,10.625,12.5,-6.5
11173636972,14.5625,7.875,-8
11173653450,10,1.25,-8.8125
11173674453,19.8125,4.25,-3.6875
11173697004,26.75,5.5,-0.5625
11173713432,34.4375,2.25,-3.4375
11173734501,26.5,-3.125,-0.5625
11173756993,15.125,-7.625,9.75
11173773405,1,-14.75,19.0625
11173794502,-15.6875,-21.6875,22.75
11173817005,-27.125,-15.4375,12.4375
11173833427,-24.6875,-16.25,13.8125
11173862670,-4.375,-19.875,15.125
11173877022,17.75,-24.5625,12
11173893402,25.125,-28.4375,8.9375
11173914524,15.9375,-24.1875,6.8125
11173936957,6.375,-20.25,8
11173959455,-2.75,-23.5625,9.5625
11173974495,-9.4375,-25.5625,12.1875
11173997035,-8.0625,-26.875,12.25
11174013410,-1.4375,-21.875,7.1875
11174034502,0.5,-20.6875,3.875
11174057036,-1.0625,-21.9375,5.5625
11174073424,3.1875,-21.375,5.5
11174095940,9.9375,-13.1875,2.125
11174116934,11.75,-3.25,-0.0625
11174133396,8.1875,1.375,-1.75
11174154441,2.0625,8.375,-3.5
11174176978,-2.5625,15.125,-5.3125
11174193416,-3.6875,21.9375,-6.4375
11174215903,4.125,37,-8.1875
11174238438,12.625,56.625,-12.8125
11174253415,13.125,72.6875,-18.875
11174275902,5.75,89.5625,-23
11174296968,-4.75,107.688,-25.5
11174313424,-9.625,127.688,-27.9375
11174335934,-6.25,148.375,-29.1875
11174356936,2.0625,162.75,-33.375
11174373419,10,176.938,-41
11174395891,1.8125,193.25,-45.1875
11174417013,-35.9375,208.5,-45.375
11174433424,-27.75,219,-46.9375
11174455901,-2.8125,216.125,-49
11174485170,2.25,216.312,-50.125
11174493459,-18.75,203.062,-41.0625
11174517416,-45.8125,206.625,-35.9375
11174536967,-63.5,194.125,-41.625
11174553423,-53.4375,179.688,-32.125
11174575899,-41.6875,164.375,-29.5625
11174597086,-29.625,146.438,-28.125
11174613409,-21.9375,130.562,-25.4375
11174635952,-24.25,117.312,-22
11174657024,-28.6875,105.75,-20.75
11174673420,-28.4375,94,-16.5625
11174695986,-21.5625,83.3125,-11.3125
11174717003,-17.5,73,-10.6875
11174732690,-15.5,62.625,-12.1875
11174755173,-9.4375,53.1875,-13.1875
11174777708,0.5,46,-11.5
11174794096,3.9375,41.25,-5.9375
11174815157,-2.25,36.5625,-5.875
11174837620,-9,30.3125,-4.3125
11174860186,5.5,27.125,8.625
11174875159,26.875,17.4375,-1.0625
11174897709,30.875,7.8125,-5.5
11174912621,19.875,-2.5625,-5.375
11174935213,8.5,-3.5,-9
11174957695,-2.4375,-17.0625,-14.375
11174972657,-6.8125,-16.625,-5.125
11174995192,-10.4375,-13.625,-5.0625
11175017721,-22.25,-15.75,-6.1875
11175032717,-26.625,-12.5,-1.625
11175055214,-17.125,-13.125,-6.875
11175077692,-4.625,-10.0625,-9.9375
11175092732,9.4375,-8.9375,-7.4375
11175115247,15.5625,-9.8125,0.25
11175139177,25.5625,-14.375,4
11175152689,16.375,-14.0625,-5.125
11175175086,23.0625,-19.5,4.0625
11175197689,9.375,-19.125,8.875
11175212635,-22.0625,-5.1875,18.75
11175234920,-40.25,-1,9.3125
11175257673,-12.625,4.9375,22.875
11175274070,-13.3125,-7.25,-19.5625
11175295222,8.9375,-5.9375,-8.875
11175317705,13.25,-3.25,11.625
11175334118,-4.125,-13.0625,-9
11175355189,1.125,-17.3125,-4.8125
11175377702,15.4375,-13.5,-5.1875
11175394145,9.0625,-6.0625,2.25
11175415259,0.625,-4.6875,-1.5
11175437796,8,-3.375,3.5625
11175454163,7.5,-1.3125,-10.625
11175475233,11.5625,-5.6875,-11.75
11175497709,20.0625,-8.875,-0.1875
11175521661,25.5,-9.6875,2
11175535694,15.0625,-8.625,8.5
11175557765,-0.3125,-5.625,17.8125
11175574235,-7.5625,-5.3125,9.5625
11175595184,-6.375,1.9375,3.875
11175617810,-0.5625,5.125,2
11175634170,0.9375,5.4375,-6.625
11175655208,2.8125,0.375,-16.6875
11175677693,8.9375,-0.75,-29.375
11175694140,4.9375,5.5,-18.75
11175715261,-9.0625,6.25,-2.1875
11175737738,-16.5625,6.875,10.25
11175754166,-16.8125,10.6875,5.3125
11175775249,-8.875,10.5,-1.75
11175797748,-1.25,11.6875,1.75
11175814136,0.5625,2.6875,-3.3125
11175835337,-7.625,0.3125,-8.5
11175857805,-9.875,-3.3125,-5
11175874188,-3.9375,-3.375,-2.625
11175910916,0.9375,-0.875,-1.9375
11175917805,9.4375,-1.5625,-3.4375
11175934240,14.75,-3.6875,-3.3125
11175955259,16.3125,-4.9375,-3.625
11175977698,16.4375,-8.4375,-5.25
11175994159,17.25,-8.75,-2.8125
11176016654,17,-2.125,-3.1875
11176037792,13.3125,0.5,-1.6875
11176053542,7.625,8.25,-3.5
11176075270,11.5625,-1.625,-7.9375
11176097743,6.5,-1.375,-5.8125
11176113517,6.0625,-3.5,-3.4375
11176135173,5.125,-0.875,-1.8125
11176157750,-1.4375,0.3125,9.3125
11176173513,-9.0625,-0.125,22.3125
11176196641,-8.375,-4.5,12.4375
11176219144,-5.875,0.5,9.25
11176233528,10.875,3.3125,-2.75
11176256716,16.125,-1.3125,-7.5
11176277701,10.125,-0.875,6.6875
11176293517,8.75,-4.5,10.375
11176324111,0.875,-6.5625,6.5
11176337773,0.0625,-4.3125,3.25
11176353485,-1.75,-0.75,1.875
11176376708,-1.75,2.6875,-2.0625
11176397749,-2.25,6.9375,-3.125
11176413529,-7.9375,5.5625,6.75
11176436725,-10.25,3.5,15
11176459218,-6.9375,0.3125,10.3125
11176473580,-5.8125,-3.4375,5
11176496670,-3.25,-5.625,-5.375
11176534138,-1.6875,0.625,-10.5625
11176536487,-0.9375,4.375,-3.8125
11176556713,0.875,2.5,1.3125
11176577654,2.625,0.5,1.75
11176593423,3.9375,-3.4375,-0.125
11176616636,3.0625,-9.0625,-4.9375
11176637689,2,-6,-6.625
11176653468,1.25,-0.8125,-10
11176676612,2,1.4375,-12.5
11176697698,-3.9375,3.8125,-0.9375
11176713432,-20.375,4.75,2.25
11176736663,-20,9.4375,-1.125
11176757715,-6.0625,6.25,-4.5625
11176773477,6.0625,2.6875,-3.25
11176796678,9.5,-4.125,4
11176817810,7.25,7.125,-2.5625
11176841668,4.375,8.75,3.5
11176856670,7.625,4.125,7.9375
11176877725,16.875,-7.6875,0.5625
11176893536,12,-5,-2.3125
11176916710,6.6875,-7.5,-5.6875
11176937796,-1.1875,-3.875,-6.1875
11176953551,-3.9375,4.75,-0.75
11176976783,2.0625,0.625,2.75
11176997786,5.375,-6.4375,-0.8125
11177013515,4,-8.625,-3.9375
11177036062,-2.875,-5.5,-6.1875
11177057849,-10.1875,-3.3125,-1.875
11177080249,-19.625,0.3125,0.9375
11177096045,-21.875,0.9375,1.3125
11177119244,-17.125,1.75,0.8125
11177133521,-10.0625,1.5,-1.375
11177156048,-4.625,1.4375,-4.375
11177179154,-5.5,2.875,-2.6875
11177193542,-3.1875,2.5,-1.9375
11177216036,0.25,2.25,0.9375
11177239217,2.1875,0.4375,2.6875
11177253529,1.8125,-0.6875,3.0625
11177276024,-1.9375,-0.0625,3.9375
11177299192,-9.25,-1,1.375
11177313590,-8,-2.75,0.375
11177336037,-3.875,-1,0
11177359223,-1.4375,1,1.6875
11177373539,-2.125,0.8125,2.8125
11177396007,-4.6875,-2.125,1.4375
11177419202,-4.1875,-2.1875,0.1875
11177433501,-3.0625,-2.625,1.4375
11177456107,-1.1875,-7.5625,1.0625
11177479191,0.75,-15.375,2.8125
11177500270,-3.0625,-18.5,11.75
11177516051,-22.125,-21.875,17.25
11177539202,-30.6875,-24.1875,5.6875
11177567816,-13.1875,-31.8125,0.625
11177576128,0.5625,-39.3125,1.1875
11177599250,15.8125,-46.5625,1.25
11177620235,19.6875,-55.0625,-0.25
11177636057,13.875,-62.125,2.6875
11177659193,8.875,-68.8125,6.5
11177680261,5.625,-77.4375,6.625
11177695996,3.6875,-83.9375,5
11177719258,0.25,-92.1875,5.625
11177740328,-1.6875,-103.688,12.625
11177756154,2.75,-118.5,20.125
11177779224,12.5,-129.688,21
11177800270,17,-132.312,19.5
11177816061,10.1875,-134.812,20.25
11177838986,-3.375,-146.812,24.5
11177860319,-5.5625,-163.688,30.4375
11177876116,5,-172.688,37.5
11177899211,14.875,-169.812,37.1875
11177920305,15.875,-164.562,36.4375
11177936091,12.4375,-172.188,40.3125
11177958576,20.5,-183.625,49.9375
11177980330,38.875,-184.938,58.4375
11177996011,40.6875,-167.375,46.5625
11178019041,40.3125,-147.25,38.375
11178040294,40.3125,-130.25,40.875
11178056058,24.4375,-114.875,38.125
11178078512,21.875,-99.5625,33
11178101722,39.0625,-88.5,32
11178116112,57.75,-80.5,30.9375
11178138611,67.1875,-73.625,28.6875
11178161688,64.6875,-70.125,26.4375
11178184275,54.625,-68.9375,25.375
11178198625,41.8125,-69.25,24.875
11178221750,30,-71.9375,24.375
11178244194,21.3125,-76.625,25.625
11178266740,19.9375,-76.5,27.9375
11178281748,26.375,-73,29.9375
11178296000,34.0625,-71.3125,29.3125
11178318570,36.5625,-68.5625,28.0625
11178341727,39.5625,-65,27.5
11178362842,41.5625,-60.1875,25.3125
11178378591,39.4375,-52.8125,22.4375
11178401678,33,-45.9375,19.5
11178422831,21.625,-39.4375,16.75
11178438510,9.125,-32.25,13.3125
11178461668,1,-25.875,8.9375
11178474627,-2.6875,-19.625,4.6875
11178497724,-4.5625,-12.9375,1.3125
11178512059,-7.9375,-7.0625,-1.1875
11178534638,-12.4375,-2.25,-3.0625
11178557805,-15,2.9375,-4.875
11178572132,-14.375,7.4375,-6.375
11178595290,-11.6875,11.0625,-7.375
11178609651,-9.8125,13.375,-8.0625
11178632109,-8.875,14.625,-8.5
11178655369,-9.625,15.3125,-8.5
11178678241,-10.8125,15.3125,-8
11178692230,-12.1875,15.9375,-8
11178714738,-13.375,16.0625,-7.9375
11178737801,-13,15.375,-7.875
11178752180,-12.625,14.3125,-7.375
11178774673,-12.625,12.125,-6.5625
11178797857,-12.875,10,-5.6875
11178812113,-13.625,8.125,-4.5625
11178834689,-13.4375,6.25,-3.75
11178852518,-12.25,4.3125,-3
11178872187,-11.625,2.4375,-2.125
11178895254,-11.375,0.75,-1.625
11178909727,-10.5,-0.625,-1.25
11178932179,-8.8125,-1.625,-0.9375
11178956755,-7.125,-2.8125,-0.5
11178969745,-6.125,-3.875,-0.0625
11178992177,-5.5625,-4.5625,0.375
11179015107,-5.125,-4.75,0.375
11179029622,-4.875,-5.125,0.4375
11179052199,-4.625,-5.0625,0.5625
11179074752,-4.25,-5.5625,0.8125
11179089677,-4.3125,-5.75,1.0625
11179112188,-5,-6.0625,1.125
11179134630,-5.5,-5.8125,1.4375
11179149695,-5.3125,-4.875,1.8125
11179172117,-2.5625,-2.5,1.125
11179196037,0.5,-0.8125,0.9375
11179209719,1.125,0.1875,1.25
11179232195,0.4375,0.5,1.75
11179254669,0.5625,-0.125,2.375
11179269747,0.25,-0.375,2.625
11179292127,0.75,-0.8125,2.625
11179314641,1.125,-1.4375,2.75
11179329621,-0.1875,-1.4375,2.6875
11179352103,-2.125,-1,2.8125
11179374743,-1.9375,0,2.375
11179389776,0.0625,0.1875,2.1875
11179412133,1.9375,0.4375,2.1875
11179434751,2.5625,0.5625,1.875
11179449699,2.625,0.3125,1.8125
11179472163,1.625,-0.125,1.5
11179494721,0.5625,-0.5,1.125
11179512626,0.5,-0.9375,0.6875
11179532224,0.5,-0.6875,0.125
11179554719,0.4375,-0.5,-0.5
11179577816,0.625,-0.3125,-0.75
11179592178,0.125,-0.375,-0.5
11179614729,-0.75,-0.375,-0.1875
11179629686,-1,-0.25,0.25
11179652149,0.4375,0,0.4375
11179674734,1.375,0.1875,0.625
11179689703,0.5,0.75,0.5625
11179712116,-0.9375,1.5,0.3125
11179734716,-2.0625,2,0.0625
11179750209,-2.75,2.25,-0.375
11179772150,-2.6875,2.25,-0.4375
11179794657,-2.0625,2,-0.25
11179809720,-1.375,1.9375,0
11179832071,-0.6875,1.875,0.0625
11179854703,-0.25,1.125,0.25
11179871101,0.1875,0.625,0.1875
11179892211,0.625,0.125,-0.1875
11179914726,0.875,-0.4375,-0.6875
11179931074,0.375,-0.375,-1.25
11179952208,-0.9375,0,-1.5
11179974647,-1.3125,-0.75,-1.25
11179991163,-0.4375,-1.25,-1
11180012097,1.8125,-1.4375,-0.875
11180034695,2.875,-1.4375,-0.9375
11180051124,1.5625,-1.375,-0.875
11180072153,-0.4375,-0.875,-0.875
11180094672,-1.6875,0.25,-1.25
11180111120,-0.5,0.625,-1.0625
11180132225,0.5,0.5,-0.625
11180154694,0.75,0.8125,-0.1875
11180171096,1.125,1.25,-0.125
11180192161,2.4375,0.75,0.1875
11180214733,4.0625,0.3125,0.375
11180238679,4.8125,0,0.1875
11180252211,3.4375,0.375,-0.6875
11180274684,2.6875,0.8125,-0.8125
11180291124,1.375,2.9375,-2.25
11180314994,-1.4375,4.9375,-4
11180342907,-4.9375,9.5625,-7.5
11180351124,-7.5,15.125,-8.8125
11180372183,-7.625,20.875,-11.5
11180394667,-8.75,28.6875,-14.9375
11180417154,-8.375,41.5,-19.1875
11180432191,-11.4375,55.4375,-24.1875
11180454731,-15.4375,66.1875,-28.875
11180477106,-23.625,75.75,-32.0625
11180492200,-31.375,88.5625,-36.375
11180524273,-36.0625,102.812,-40.875
11180537260,-39.625,116.625,-44.9375
11180552235,-39.9375,127.562,-49.1875
11180574773,-38.75,136.75,-53.1875
11180597160,-43.5625,146.688,-57.875
11180612114,-56,154.562,-60.4375
11180634706,-69.25,158.938,-57.75
11180657227,-76.5,162.312,-54.0625
11180672201,-77.3125,164.75,-55.25
11180694733,-75.625,166.875,-56.875
11180717212,-76.125,165.812,-54.1875
11180732195,-74.625,164.312,-45.0625
11180754756,-63.5,159.75,-41
11180777218,-42.75,151.875,-43.125
11180793638,-25.1875,144.375,-45.375
11180814712,-26.125,138.75,-45.1875
11180837157,-40.3125,131.812,-41.1875
11180853710,-47.25,121.625,-36.6875
11180874743,-39.3125,109.5,-32.5625
11180898677,-32.1875,99.1875,-30.0625
11180913599,-31.75,90.5625,-25
11180937662,-26.4375,80.8125,-20.4375
11180957155,-10.9375,68.9375,-19.6875
11180973584,1.0625,60.3125,-19.4375
11180994599,-3.125,53.75,-17
11181017119,-17.3125,47.5625,-11.9375
11181033584,-27.5625,41.8125,-9
11181054616,-27.6875,35.8125,-8.75
11181077185,-23.1875,30.3125,-7.1875
11181093605,-17.125,24.4375,-6.0625
11181114642,-11,21.125,-6.5
11181137181,-9.875,20.6875,-8.875
11181153642,-15.1875,18.6875,-11.25
11181177618,-17.75,15.0625,-10.1875
11181197192,-14.6875,13.5,-8.4375
11181213598,-10.4375,14.25,-9.0625
11181242823,-6.375,13.6875,-9.9375
11181257145,-2.75,10.75,-9.375
11181273679,-1.375,8,-9.125
11181294720,-0.875,7.1875,-8
11181311102,-3.6875,5.9375,-5.875
11181333661,-9.1875,5.3125,-8.1875
11181354788,-6.375,2.9375,-7.1875
11181371192,-6.9375,1.625,-7.9375
11181393653,-5,-0.3125,-6.625
11181414704,-6.125,-2.5,-0.6875
11181431194,-1.75,-4.4375,0.3125
11181453671,-2.9375,-2.375,-0.5
11181474690,-1.875,-2,-0.875
11181491131,-1.375,-2.1875,0.1875
11181513624,-1.5625,-1.5,1.75
11181534741,-3.375,-0.375,3.1875
11181552626,-4.625,-0.1875,4.25
11181573683,-2.4375,-0.0625,3.5
11181594700,0.75,0.875,1.875
11181611100,1.625,0.375,1.3125
11181633647,1.5625,-1.3125,2.4375
11181654688,1.4375,-2.4375,3
11181671085,0.125,-1.9375,1.9375
11181693604,-1.1875,-0.8125,1.75
11181714627,-2.875,-1,1.9375
11181732656,-2.75,-1.875,3.125
11181753637,1.0625,-3.4375,3.0625
11181776159,3.0625,-2.875,1.1875
11181791117,1.625,-3.3125,0.3125
11181813667,-7.375,-3.5625,-0.6875
11181836152,-25.5,-0.5625,-0.5
11181857226,-36.1875,0.875,2.875
11181873659,-29.625,0.125,3.5625
11181896101,-11.1875,-1.0625,2.5
11181917150,5.125,-0.8125,1.5
11181933706,11.25,-0.75,-0.6875
11181956193,6.125,0.5625,-0.6875
11181972648,-5.4375,0.0625,0.9375
11181993694,-7.1875,-0.6875,3.8125
11182016190,-11.625,-0.0625,-0.25
11182032651,-5.25,-0.5625,1.125
11182053701,13.1875,-2.6875,0.75
11182077656,37.125,-4.6875,2.75
11182098697,43.5625,-5.4375,-2.125
11182113631,32,-4.4375,-3.375
11182136171,9.25,-1.875,-1.125
11182157198,-9.875,0.625,0.4375
11182181165,-16.125,0.875,1.9375
11182196084,-9.4375,-0.3125,1.75
11182212614,3.6875,-1.375,1
11182232965,13.5625,-2.1875,0.3125
11182255358,12.0625,-1.75,0.125
11182277676,3.375,-0.8125,0.5625
11182292896,-3.375,-0.1875,0.8125
11182315404,-3.4375,-0.25,1
11182337887,0.25,-1,0.3125
11182360351,3.5,-1.4375,-0.4375
11182375450,4.4375,-1.125,-0.4375
11182397913,1.375,-1.4375,-0.1875
11182412796,-2.3125,-1.625,1.1875
11182435431,-3.25,-1.3125,1.4375
11182466042,-1.125,-1,0.6875
11182472902,1.4375,-1.3125,0
11182495436,2.9375,-2.1875,0.25
11182517910,-11.5,-1.625,-2
11182532871,-16,-3.0625,-3.375
11182562821,-26.4375,-2.3125,-0.75
11182577910,-25.375,-1.25,0.625
11182592895,-14.6875,-1.375,1.3125
11182615407,2.5625,-2.8125,0.3125
11182637939,15.875,-3.625,-2
11182652903,21,-2.875,-2.0625
11182675407,16.8125,-2.125,-0.9375
11182697888,5.875,-2.1875,-0.5625
11182712860,3.5625,-1.625,2.5
11182735391,13.1875,-1.3125,1.25
11182757972,13.5,-2.5,-2.3125
11182772863,8,-2.625,-0.0625
11182795387,0.5625,-2.125,1.0625
11182811190,-3.75,-2.125,1.8125
11182834331,-3.3125,-2.5,1.75
11182855383,1.375,-3.625,0.25
11182871211,5.875,-4.875,-1
11182894272,6.625,-5.3125,-0.625
11182915348,3.75,-5.3125,0.125
11182931165,1.4375,-5.75,0
11182954342,0.75,-6.75,0.5
11182975189,2.6875,-7.5,1.25
11182991201,4.5625,-7.8125,0.8125
11183014308,5.5625,-6.875,0.75
11183035455,4.5625,-6.1875,1.125
11183051168,2.375,-6.6875,1.5625
11183090008,3.1875,-7.4375,1.9375
11183095387,5.0625,-6.6875,1.1875
11183111237,3.3125,-4.8125,0.1875
11183134350,-0.25,-3.5625,0.375
11183155470,-1.75,-3,0.8125
11183171168,0.5,-2.5,1.25
11183194322,2.5,-1.3125,-0.1875
11183215420,2.3125,-0.5,-0.5625
11183231208,-0.0625,-0.1875,-0.0625
11183254398,-1.5625,-0.1875,0.875
11183275381,-2.0625,-0.125,1
11183291208,-0.5,-0.1875,0.75
11183314308,2.125,-0.5625,1.1875
11183335421,2.125,-1.1875,1.6875
11183351221,0.0625,-2.25,1.75
11183374375,-1.1875,-3.9375,2
11183395372,0.875,-5.6875,2.125
11183411165,2.6875,-5.5,1.625
11183434350,1.4375,-4.4375,0.9375
11183455444,-1.3125,-3.9375,1.375
11183471167,-1.3125,-3.625,2.125
11183494346,1.25,-2.75,1.9375
11183515486,3.5625,-1.8125,1.5625
11183531187,4,-1.875,2
11183554379,4.6875,-3.25,2.1875
11183575390,5.4375,-5.3125,1.9375
11183597846,5.75,-8.9375,2.625
11183614363,7.6875,-13.25,4.5625
11183635465,10.6875,-17.375,5.4375
11183657919,15.6875,-20.9375,5.6875
11183673685,16.0625,-23.375,7
11183695448,12,-24.4375,8.5
11183717968,8.625,-24.375,7.5625
11183733686,7.125,-23,6.0625
11183756847,5.1875,-21.5625,6.5
11183777922,3.375,-19.5625,7.3125
11183793679,1.75,-17.6875,5.8125
11183816807,1.625,-16.75,4.125
11183837995,23.5,-13,7.5
11183853691,19.6875,-16.3125,6.875
11183876848,27.9375,-19.5625,5.1875
11183897886,36.875,-21.5,6.4375
11183913625,34.3125,-22.875,4.3125
11183936813,25.1875,-22.5625,6.5625
11183957979,9.25,-22.125,5.375
11183973728,-44.4375,-15.3125,7
11183996856,-32.625,-23.375,12.25
11184017961,-8.1875,-28.75,13.5
11184033711,20.875,-33.3125,12.875
11184056892,45.1875,-38.375,16.25
11184077955,52.5,-41.5625,21.3125
11184093727,48.1875,-41.4375,24.9375
11184116649,33.8125,-40.8125,24
11184145394,15.5625,-40.5625,23.625
11184153672,8.875,-42.6875,24.6875
11184176806,13.6875,-46.3125,22.125
11184197931,23.875,-48.5625,19.6875
11184213736,27.9375,-48.9375,20.1875
11184236813,22.3125,-46.75,18.5
11184257976,13.5,-44.1875,20.4375
11184273693,9.3125,-42,23.9375
11184296823,13.1875,-40.1875,22.8125
11184317940,22.875,-39.5625,22.6875
11184333768,27.4375,-39.1875,24.1875
11184356850,27.6875,-39.625,25
11184377812,26.0625,-41.3125,24.4375
11184401613,21.625,-46.875,23.3125
11184416811,18.5,-55.0625,26.5625
11184437839,19.125,-61.3125,29.0625
11184453603,20.875,-65.5625,28.8125
11184476786,19.5,-68.75,28.6875
11184497673,14.375,-73.0625,29.1875
11184513636,10.5,-75,31.875
11184536759,9.5,-73.5625,31.375
11184557926,12.125,-72.75,29.8125
11184573704,20.5,-73.3125,30.375
11184596143,26.4375,-72.125,31.25
11184617897,29.75,-69.4375,33
11184633638,28.3125,-64.5,30.125
11184656162,32.25,-61.375,27.75
11184679299,36.25,-59.625,26.5
11184693652,31.5,-57.375,25.625
11184716188,23.4375,-57.5,25.125
11184739446,18.125,-60.625,24.75
11184753752,15.5625,-69.25,26.875
11184784349,18.75,-78,31.125
11184799358,24.1875,-81.8125,33.9375
11184813678,28.875,-80.25,31.0625
11184836226,29.6875,-77,31.75
11184859363,31.75,-78.125,33.8125
11184880428,36.875,-79.8125,36.25
11184896191,40.9375,-80.5625,37.375
11184919357,45.875,-78.875,34.75
11184933669,43.3125,-71.6875,30.9375
11184956257,27.5625,-64.1875,27.75
11184979350,7.75,-57.5,25.375
11185000419,-3.0625,-50.5625,23.0625
11185016134,0.1875,-44.4375,20.3125
11185039166,9.8125,-39.25,16.375
11185060374,16.5625,-34.75,13.5
11185076186,15.8125,-30.375,11.75
11185099334,9,-27.6875,10.9375
11185120491,3,-26.125,10
11185136254,1.875,-24.4375,9.0625
11185159380,9,-22.1875,8.5
11185180395,17.25,-21.0625,7.625
11185196165,18.1875,-21.0625,7
11185219330,13.4375,-20.1875,6.75
11185240480,9.25,-18.9375,6.25
11185256162,6.625,-17,5.75
11185279380,6.5,-15,4.8125
11185300416,7.3125,-13.125,4.1875
11185316187,6.3125,-10.875,3.875
11185339298,3.5625,-8.125,3.6875
11185360411,2.625,-5.6875,3.0625
11185376243,2.8125,-3.875,2.4375
11185399421,3.1875,-2.8125,2.625
11185421314,0.75,-1.125,2.375
11185444463,-2.9375,1.0625,1.6875
11185459368,-3.5,2.5625,1.1875
11185480417,-2.3125,3.875,0.8125
11185496188,-1.4375,4.1875,0.5625
11185519404,-2.5,4.5625,0.1875
11185540508,-3.6875,4.375,-0.375
11185556233,-3.9375,4,-0.6875
11185578667,-2.0625,3.0625,-0.9375
11185600450,-1.875,2.0625,-1.125
11185616699,-3.625,1.125,-1.25
11185638748,-4.6875,0.4375,-1.25
11185660513,-4.4375,-0.0625,-1.8125
11185676253,-4,-0.875,-2.4375
11185698730,-6.4375,-1.4375,-2.875
11185721845,-11.1875,-2.25,-2.625
11185736278,-14.1875,-2.5,-2.5
11185758769,-14.8125,-2.25,-2.0625
11185781883,-12.375,-1.6875,-1.75
11185796206,-9.875,-1.5625,-1.1875
11185818760,-7.25,-1.5625,-0.75
11185841899,-4.9375,-1,-0.6875
11185856228,-3,0,-1.25
11185878701,-5.0625,0.5625,-1.875
11185901863,-10.6875,0.5625,-2
11185916234,-16.25,1,-1.625
11185938682,-17.4375,1.125,-1.375
11185952361,-11.1875,1.125,-0.25
11185975484,-1.4375,1.0625,1.0625
11185989853,5.5625,1.375,1.9375
11186012290,7.3125,1.4375,2
11186035527,3.75,1.5625,1.6875
11186049734,-0.5625,1.5,1.0625
11186072269,-2.4375,1.5,0.875
11186095462,-0.125,1.1875,0.9375
11186109847,2.875,0.5625,1.0625
11186132303,3.1875,0.3125,1.4375
11186154916,2.25,0.3125,1.5
11186172650,0.3125,0.3125,1.25
11186192338,-1.375,0.25,1
11186215461,-0.5625,0.125,1.125
11186229770,1.4375,0,1.1875
11186252333,2.0625,-0.125,1.0625
11186275522,1.875,-0.25,0.9375
11186289833,0.8125,-0.25,0.9375
11186312270,-0.5625,-0.5625,0.9375
11186335219,-0.875,-0.75,1.0625
11186349850,-0.3125,-0.625,1.0625
11186372330,1.0625,-0.875,1.125
11186395436,1.0625,-0.1875,1
11186409851,0.4375,0.3125,0.5625
11186432232,-0.6875,0.9375,0.3125
11186455532,-1.3125,1.875,-0.0625
11186469796,-1.3125,2.4375,-0.25
11186492295,-0.25,1.875,0.1875
11186515512,0.375,1.875,0.5625
11186529780,0.3125,2.5,0
11186552356,0.375,2.8125,-0.125
11186575440,-2.0625,3.0625,0
11186589794,-6.375,4.625,-1.125
11186612261,-4.625,7.9375,-2.875
11186634814,0.1875,12.3125,-5.6875
11186657807,-0.5,17.9375,-9.1875
11186672322,-3.625,27.125,-12.6875
11186694869,0.3125,38,-14.375
11186717753,13.375,50.6875,-18.125
11186732321,25.6875,58.1875,-22.5
11186754884,21.25,67.625,-27.4375
11186777962,-0.625,79.5,-33.9375
11186792340,-25.25,93.4375,-40.875
11186814795,-44.5625,104.75,-45.375
11186837945,-53.4375,112.688,-46.1875
11186852290,-53.3125,117.438,-47.8125
11186874848,-49.1875,120.938,-50.125
11186898440,-47.0625,124,-51.375
11186912312,-48.1875,126,-52.1875
11186934828,-51.25,127.375,-51.625
11186958036,-56.75,128.75,-52.75
11186972316,-67,128.25,-55.625
11187003670,-70.8125,126.125,-52.9375
11187018017,-61.0625,121.875,-45.25
11187032407,-43.6875,119.312,-37.5
11187054758,-30.125,119,-34.875
11187077964,-31.375,115.5,-40.1875
11187092360,-37.25,109.688,-41.5
11187114827,-40.375,104.625,-37.125
11187138034,-45.6875,102.25,-30.9375
11187152362,-49.625,101.312,-27.6875
11187174824,-45.75,97.5,-26.5
11187197936,-33.75,90.8125,-26.9375
11187212316,-23.875,84.375,-27.375
11187234775,-21.625,78.4375,-27.0625
11187258056,-20.1875,73.6875,-23.9375
11187272389,-18.375,69.1875,-20.6875
11187294794,-20.0625,66.3125,-18.9375
11187318105,-20.875,62.75,-17.875
11187332298,-17.125,57.9375,-16.75
11187354866,-13,53.125,-16.625
11187378026,-10.4375,49.75,-15.875
11187392345,-10.5625,45.5,-14.875
11187414847,-12,41.1875,-12.8125
11187437360,-13.6875,37.5,-13
11187453773,-18.0625,34.375,-17.25
11187474886,-22.375,29.9375,-19
11187497985,-23.8125,23.8125,-16.3125
11187512410,-20.6875,18.5625,-14.25
11187534831,-12.3125,13.8125,-14
11187558752,-4.125,9.75,-14.625
11187572317,-0.25,6.1875,-14.75
11187594836,-0.8125,3.9375,-13.9375
11187617316,-4.6875,2.4375,-12.25
11187632378,-8.6875,1.125,-11.125
11187654912,-9.0625,0.5,-9
11187671237,-4.4375,-1,-7.25
11187692396,-0.0625,-1.5625,-8.25
11187714750,0.75,-2.375,-8.0625
11187731276,-1.8125,-3.25,-5.0625
11187752298,-3.5,-3.875,-1.625
11187774819,-1.5625,-3.625,-1.125
11187798735,1.875,-3.375,-0.75
11187820541,3.375,-3.625,0.0625
11187834835,2.4375,-3.625,-0.25
11187851287,0.75,-1.625,-0.5
11187872313,-0.3125,-0.875,-0.375
11187894950,-0.0625,-0.875,1.0625
11187911280,1.125,-0.625,1.3125
11187932295,1.875,0.375,-0.6875
11187954837,0.625,0.1875,-1.9375
11187971258,-0.1875,-0.6875,-0.625
11187992353,0.3125,-1.6875,0.6875
11188014839,2.25,-2.0625,0.25
11188031323,3.5,-2.375,-0.9375
11188052374,3.75,-2.6875,-0.125
11188074920,2.375,-3.625,0
11188091354,0.6875,-1.875,1
11188115216,1.5,-4.1875,-2.75
11188134873,-3.625,-4.3125,0.6875
11188151309,-0.8125,-4.6875,1.5625
11188172356,6.0625,-3.625,1.8125
11188194879,5.75,-4.4375,-1.625
11188211288,2.9375,-3.1875,0.1875
11188232365,-0.6875,-1.5625,1.625
11188254885,-2.625,-0.625,1.9375
11188271296,-0.5625,0.3125,1.75
11188292407,2.875,0.375,0.5625
11188314901,5.1875,0.125,1.0625
11188331213,4.625,0.25,1.6875
11188352272,3.1875,1.375,0.5
11188374931,1.5,2.375,-0.5625
11188392651,0.1875,2.125,-0.625
11188413785,-0.125,1.125,-0.375
11188434786,1.0625,0.6875,-0.9375
11188451248,2.8125,0.6875,-2
11188473688,2.0625,0.75,-2.0625
11188494854,0.4375,0.1875,-0.875
11188511187,-0.4375,-0.0625,-1.3125
11188533729,-0.0625,0.5625,-3.125
11188554813,-0.5625,0.75,-3.3125
11188571182,-1.625,0.5625,-1.6875
11188593769,-0.5625,0.875,-1.1875
11188614789,1.5,1.4375,-1.75
11188631244,2,1.9375,-1.3125
11188655231,-0.375,1.9375,-0.6875
11188674794,-2.25,1.375,-0.3125
11188691225,-1.375,0.875,-0.4375
11188713724,-0.625,0.875,-0.875
11188734784,-1.75,1.375,-0.625
11188751213,-3.125,0.8125,-0.5625
11188773767,-2.25,0.1875,-0.75
11188794845,0.375,0.0625,-1.4375
11188811233,1.6875,0.875,-2.25
11188833723,0.625,1.6875,-2.5
11188854812,-1.4375,1.9375,-1.9375
11188871221,-1.8125,1.625,-1.4375
11188893773,0.1875,1.1875,-1.4375
11188917719,1.625,1.1875,-2.125
11188931245,1.25,1.5,-2.3125
11188953715,-1,1.3125,-1.6875
11188974793,-1.8125,1,-0.1875
11188991244,-0.9375,1.0625,-0.25
11189021275,0.9375,1.5,-1
11189034805,1.75,1.25,-1
11189051215,0.5,0.5625,-0.625
11189073714,0.4375,-0.6875,-0.9375
11189094836,1.6875,-1.1875,-1.0625
11189118730,1.8125,-0.9375,-1.8125
11189133784,0.9375,-0.3125,-2.5625
11189154794,-0.125,-0.5625,-1.75
11189171265,-1,-0.9375,-0.375
11189193772,0.25,-0.6875,-0.125
11189222944,2.5625,-0.5625,-1.3125
11189231255,2.625,-0.125,-0.75
11189253731,1,-0.5,1
11189274763,0.8125,-0.625,2.0625
11189292673,0.8125,-0.625,1.375
11189313797,0.6875,-0.4375,0.5625
11189336264,1.3125,-0.125,1
11189351260,0.875,0.3125,1.5
11189373747,-0.375,1.5,1.25
11189396238,-0.8125,2,0.9375
11189411244,6.6875,2.375,2.5
11189433741,-6.125,-1,-2.75
11189456252,-31.125,-0.125,-0.5
11189477286,-40.25,0.4375,5.8125
11189499830,-8.75,1.3125,8.6875
11189516267,18.0625,-2.75,-1.125
11189540215,24.4375,-6.125,-2.6875
11189553724,34.875,-3.875,1.5625
11189576270,20.625,-0.9375,-2.25
11189597333,0.1875,0.6875,0.3125
11189613759,-12.375,2.25,3.6875
11189636212,-8.4375,1.3125,3
11189657345,3.25,0.9375,0.9375
11189673753,9.8125,0.375,0.9375
11189696267,7.75,0.1875,0.75
11189718019,2.375,1.0625,1.75
11189733026,-3.0625,1.5,1.9375
11189755560,-4.125,1.5,1.4375
11189779434,-0.75,0.5625,0.375
11189793007,2.625,-0.3125,0.4375
11189815481,3.1875,-0.625,0.5625
11189846197,1.9375,-0.3125,0.1875
11189853030,-0.875,-0.5,0.5625
11189875544,-1.5625,-1,1.25
11189897972,0.4375,-1,0.3125
11189913028,2.9375,-0.6875,-1.375
11189935513,3.375,-0.875,-1.125
11189958001,1.75,-0.4375,-0.0625
11189973012,0.4375,0.375,-0.0625
11189995517,0.625,0.75,-0.6875
11190018016,1.9375,0.75,-0.25
11190033021,2,0.875,0.3125
11190055540,0.875,1.3125,0.4375
11190078070,0.3125,1.875,-0.375
11190093080,1.0625,2.375,-0.375
11190115588,1.875,2.1875,0.25
11190138044,1.1875,2.0625,0.5625
11190153111,0.5,1.625,0.625
11190175569,1,0.6875,0.25
11190197996,1.6875,-0.1875,0.875
11190212990,2.1875,-1.3125,1.125
11190235596,2.9375,-1.4375,0.25
11190258812,3.875,-1.3125,-0.1875
11190273026,2.25,-1.125,-0.0625
11190295589,0,-0.9375,0.5
11190311304,-0.5625,-0.625,0.6875
11190334443,1.8125,-0.375,0.5625
11190355579,4.75,-0.375,0.75
11190371285,5.3125,-0.1875,1.375
11190394518,2.6875,0.1875,1.6875
11190415608,0.75,0.4375,1.1875
11190431297,1.6875,0.375,1.375
11190454486,3.8125,0.3125,1.625
11190475582,4.0625,-0.4375,1.375
11190491287,3.8125,-1.25,0.6875
11190514456,3.4375,-2.1875,-0.5
11190535575,3.3125,-2.3125,-1.0625
11190551375,2.5625,-2.25,-0.8125
11190574440,1.25,-2.1875,-0.4375
11190595564,1.625,-2,-0.625
11190611845,3.0625,-1.25,-1
11190634526,4.125,-0.4375,-0.875
11190655571,4.5,0.1875,0.125
11190678082,4.5,0.8125,0.5625
11190702002,4.625,1.9375,0.1875
11190715602,4.125,1.875,-0.5625
11190731281,3.8125,1.4375,-0.3125
11190754563,3.3125,0.9375,-1
11190775580,3.625,0.8125,-1.5
11190791372,3.75,0.75,-1.75
11190814465,3.625,1.25,-1.3125
11190835607,3.125,1.5625,-0.75
11190851346,2.5,1.3125,0
11190874504,2.125,1,1
11190895584,2.6875,0.8125,1.875
11190911369,3.3125,1.0625,2.25
11190934448,3.1875,1.625,2.0625
11190963092,2.5,1.625,1.375
11190971370,1.75,1.5625,0.4375
11190994423,1.8125,1.125,0.1875
11191015504,3.8125,1.5,0.4375
11191031334,7.0625,0.3125,-0.4375
11191054302,5.1875,-1.75,-0.625
11191075629,-2.75,-0.75,0.625
11191091371,-8.875,1.875,3
11191114451,-5.5625,-0.1875,1.5
11191135532,7.9375,-2.25,1
11191151349,19.0625,-3.625,-0.5
11191174502,22.5,-4.4375,-1.8125
11191195672,15.1875,-0.25,-0.25
11191218087,-2.875,1.625,-0.5625
11191233857,-25,2.625,1.625
11191255572,-29.9375,4.1875,3.4375
11191278086,-11.75,2.875,0.375
11191293883,8.125,0.5625,-1.4375
11191315630,14.75,-1,-2.6875
11191338033,8.1875,-0.5,-2.125
11191353847,-2.75,0.875,-0.6875
11191376995,-8.5625,1.6875,-0.375
11191391360,-5.125,1.625,-0.9375
11191413809,2.3125,0.375,-2.125
11191443040,5.8125,-0.5625,-3.25
11191451303,4.4375,-1,-3.4375
11191473856,-0.0625,-1.3125,-3
11191496944,-3.4375,-1.3125,-2.5
11191511836,-2.875,-1.6875,-2.875
11191533852,-0.25,-1.75,-3.4375
11191557021,2.0625,-2.4375,-3.8125
11191571380,1.625,-3.625,-3.5625
11191602054,0.1875,-4.1875,-2.625
11191617006,-0.125,-4.5625,-3.0625
11191639478,2.3125,-4.375,-3.3125
11191653837,4.8125,-4.5,-2.9375
11191677002,5.8125,-5.5625,-2.625
11191691296,6.625,-7.75,-3.5625
11191722076,8.0625,-11.0625,-4.3125
11191737018,9.9375,-15,-5.8125
11191758076,9.875,-19.5625,-8.5
11191773810,15.25,-27.625,-10.9375
11191796948,17.625,-41.9375,-11.4375
11191818181,22.6875,-54.9375,-9.125
11191833902,23.5625,-65,-12.8125
11191857020,21.375,-69.875,-16.75
11191878122,16.5625,-73.375,-17
11191893870,10.625,-77.25,-17.125
11191917040,9.75,-82.25,-17.9375
11191938215,17.25,-89.5625,-17.875
11191953871,23.8125,-98.5,-18.375
11191977019,26.125,-105.562,-20.9375
11191999481,25.9375,-112.5,-25.3125
11192013768,22.5625,-115.875,-22.875
11192037004,17.375,-117,-16.25
11192058124,16.9375,-119.5,-8.3125
11192073875,23,-122.562,-2.25
11192097018,36.8125,-124.625,5.3125
11192118105,44.5625,-124.5,13.1875
11192133808,41.75,-120.125,15
11192156953,33.1875,-114.25,11.5625
11192178118,24.8125,-108.062,9.4375
11192193865,18.125,-96.5,12.875
11192216412,16.6875,-81.625,16
11192239514,16.0625,-68.5625,17.5625
11192253904,15,-55.4375,18.9375
11192276344,13.9375,-41.6875,23.625
11192298001,15.5,-29.5625,29.125
11192313808,22.6875,-17.375,33.1875
11192336360,31.9375,-7.25,34.3125
11192359492,33.375,1.4375,31.6875
11192373868,23,10.5,29.0625
11192396397,5.875,18.875,26.75
11192419574,-7.8125,24.8125,23.0625
11192433882,-15.5,27.625,18.4375
11192456347,-16.875,28.375,16
11192479493,-14.4375,28.25,15.1875
11192493839,-11.125,27.3125,14.375
11192516421,-11.75,25.5,12.75
11192539589,-16.875,24.9375,10.375
11192553880,-18.5,25.1875,10.1875
11192576401,-14.25,23,9.4375
11192599481,-7.125,19.8125,5.375
11192620597,-2.625,17.5625,-1.25
11192636411,-3.75,16.4375,-4.8125
11192659591,-7.25,14.25,-4.375
11192680583,-9.5625,8.0625,-3.3125
11192696404,-10.125,0.125,-3.25
11192719533,-10.6875,-10.25,-5.0625
11192740429,-9.75,-19.1875,-4.1875
11192756421,-0.8125,-25.8125,-2.8125
11192779549,11.8125,-31.0625,-5.0625
11192800586,16.75,-39.0625,-10.375
11192816427,11.8125,-44.5625,-15
11192839528,7,-42.1875,-19.125
11192860618,3.25,-38.625,-23.875
11192876381,1.375,-36.9375,-25.0625
11192899569,-1.8125,-38.25,-23.5
11192920600,-5.5625,-37.75,-21.8125
11192936361,-6.375,-29.5625,-25.4375
11192959562,-2.125,-12.875,-27
11192980608,-1.3125,5.75,-27
11193012010,-14.5,16.5,-29.25
11193019553,-34,23.8125,-25.9375
11193040652,-40.3125,31,-18.375
11193056426,-32.125,38.6875,-12.1875
11193079520,-17.8125,43.8125,-8.625
11193108026,-8.5625,50.9375,-6.5
11193116281,-13.5,55.5,-7.6875
11193138815,-27.4375,54.5,-0.875
11193160709,-37.875,51.375,11.125
11193176344,-39.0625,48.125,17.6875
11193198838,-26.75,41.6875,9.6875
11193220595,-7.6875,39.875,4.3125
11193236394,2.5625,42.4375,-0.75
11193258942,-3.5,46.25,0.4375
11193281982,-20.5,50.125,3.0625
11193296355,-29.625,49.5,4.3125
11193318926,-26.0625,44.0625,6.5
11193342009,-11.4375,39.0625,5.25
11193356391,5.5,40.875,0.4375
11193385621,12.875,48.25,-6.4375
11193402027,7.5,56.5625,-11.875
11193416341,-8.6875,61.0625,-13.25
11193438828,-26.625,62.5625,-12.9375
11193452485,-34.5,61.75,-12.75
11193475638,-32.8125,60.3125,-12
11193498133,-36.6875,59.875,-19.0625
11193512450,-46.25,55.1875,-32.625
11193535711,-50.5625,51.4375,-34.6875
11193558173,-52,53.8125,-30.75
11193572524,-41.3125,54.1875,-30.9375
11193595619,-22.9375,56.875,-33.6875
11193618167,-15.9375,58.375,-36.625
11193632508,-28.3125,58.4375,-32
11193663707,-45.375,57.4375,-23.1875
11193678139,-57.1875,58.0625,-18.875
11193692482,-53.8125,56.1875,-16.9375
11193715635,-41.5625,50.875,-14.5
11193738149,-33.375,46.25,-13.75
11193752479,-31.375,41.5625,-14.625
11193775616,-30.125,37.625,-17.0625
11193798064,-21.25,41.875,-18.5
11193812416,-14.125,42.625,-20.875
11193834946,-9.4375,40.375,25.4375
11193858200,-42.3125,20.1875,4.1875
11193872490,-85.9375,48.875,-30.5625
11193903862,-95.4375,70,-29.25
11193918119,-72.875,52.125,-8.5
11193941202,-9.5625,29.875,7.8125
11193954979,67,16.875,13.9375
11193978086,96.5625,20.3125,17.5
11193992418,81.25,26.25,14.9375
11194014933,45.3125,24.0625,8.4375
11194038228,13.8125,19,13.0625
11194052447,-2,11.25,16.5625
11194074984,-14.6875,3.6875,18.25
11194098058,-25.1875,-2.1875,23
11194112422,-48.625,-2.0625,24.375
11194135055,-38.0625,-18.25,-6
11194158188,55.375,-14.9375,-31.9375
11194172512,124.625,-25.1875,-35.1875
11194195046,124.25,-29.8125,-33.4375
11194218151,104.25,-20.5,-27.1875
11194232454,102.75,-7.6875,-25
11194254945,95.5625,1.0625,-17.375
11194278113,42.75,3.375,-22.1875
11194292408,-69.75,12.125,-6.625
11194314873,-168.062,16.5625,-9.125
11194338224,-209.562,20.5,-9.9375
11194352508,-188.125,14.8125,-22.5625
11194375047,-120.125,6.25,-31.9375
11194398075,-54.4375,1.6875,-39.625
11194412452,-26.1875,-5,-43.5625
11194435016,-27.375,-7.0625,-36.875
11194458141,-46.0625,-5.4375,-31.5625
11194472546,-68.375,-5.3125,-29.625
11194494964,-77.9375,-7.1875,-26.4375
11194518153,-70.75,-7.125,-17.8125
11194532501,-51.5625,-6,-6.5
11194555041,-32.8125,-6.375,-1.875
11194578148,-21.375,-8.1875,0.5625
11194592538,-14.0625,-7.125,3.625
11194614892,-10.5625,-3.4375,3.5
11194638229,-5.625,0.5625,3.9375
11194652501,0.25,4.8125,5.625
11194674970,5.125,6.6875,4
11194690001,11.8125,7.25,-0.8125
11194712548,11.0625,4.9375,-5.3125
11194735018,7,1.3125,-6.3125
11194749966,0.625,-0.1875,-6.375
11194772441,-5.5625,0,-10.25
11194794947,-6.875,-0.4375,-14.0625
11194809960,-5.25,-0.9375,-12.625
11194840758,-5.1875,-3.4375,-6.5
11194854921,-5.5,-4.5,-2.5625
11194870060,-4.9375,-4.5,-1.6875
11194892568,-1.625,-6.375,1
11194915007,0.9375,-6.6875,4.125
11194930003,2.375,-6.9375,4.25
11194952515,1.875,-6.4375,3.5625
11194974962,1.75,-7.375,5
11194990028,0.875,-8.1875,3.25
11195012481,2.6875,-8.75,-0.1875
11195034905,6.6875,-10.3125,-1.625
11195052838,9.3125,-11.1875,-1.5625
11195072549,7.125,-12.4375,-2.9375
11195095062,6.625,-12.4375,-4.75
11195111411,7.0625,-12.5625,-6.5
11195132475,8.125,-12.0625,-8.125
11195155039,7.625,-9.75,-9.0625
11195171409,4.375,-7,-9.5
11195192445,0.8125,-4.625,-10.5625
11195214944,-3.5,-2.75,-10.3125
11195231389,-4,-1.875,-9.5625
11195252574,-0.8125,-1.3125,-9.5
11195275033,3.25,-1.875,-9.4375
11195297439,6.8125,-4.75,-5.5625
11195312567,1.3125,-3.375,-3.5625
11195335004,0.5625,-1.625,-0.0625
11195351341,16.875,-4.625,3.0625
11195372484,31.875,-8.25,1.9375
11195395031,32.625,-9.4375,-0.1875
11195417555,27.5,-10.25,-0.8125
11195432457,22.875,-9.6875,-4.125
11195455036,21.8125,-8.25,-7.3125
