myoTS,x,y,z
492126103471,-0.125,1.3125,-0.5
492126118449,0.625,1.125,-0.5625
492126142091,0.9375,0.875,-0.0625
492126163432,-0.0625,0.6875,0.125
492126178443,-0.75,0.6875,-0.1875
492126232819,-0.25,0.4375,-0.5625
492126234915,0.4375,0.25,-0.4375
492126241098,0.3125,0.1875,0
492126249888,0.1875,0.1875,0.1875
492126270546,0.5,0.1875,0.1875
492126292791,0.75,0.125,0.25
492126314231,0.3125,0.25,0.125
492126358320,-0.8125,0.3125,-0.125
492126367866,-0.375,0.0625,-0.1875
492126373962,0.25,-0.375,-0.0625
492126388975,-0.1875,0,-0.1875
492126411513,-0.375,0.3125,-0.375
492126425824,-0.125,0.0625,-0.5
492126448361,-0.375,0.0625,-0.25
492126470885,-0.9375,-0.4375,0
492126485850,-1.9375,-0.0625,0.125
492126508360,0.25,0.625,-0.0625
492126530841,-0.625,1.625,-0.4375
492126545820,-1.1875,0.9375,-0.5
492126568270,-1.3125,0.5625,-0.125
492126590924,-0.8125,0.3125,-0.125
492126605837,-1.1875,0.125,0
492126628348,-1.0625,-0.3125,-0.0625
492126650847,0.125,-0.875,-0.25
492126665831,-1,-0.875,-0.25
492126688261,-1.1875,-0.5,-0.1875
492126710827,-0.5625,-0.1875,0
492126725852,-0.25,0.25,0.125
492126748291,-0.0625,0.4375,0.3125
492126779551,-0.1875,0.4375,0.1875
492126785899,-0.9375,0.3125,0.25
492126816435,-1.25,0,0.0625
492126830781,-0.1875,-0.25,-0.0625
492126853249,0.375,0.125,-0.1875
492126868215,0.625,0.25,-0.1875
492126890744,0.5,0.375,-0.0625
492126913327,0.3125,0,-0.0625
492126928276,0.0625,0,0
492126950768,0.25,0.4375,0.0625
492126965910,0.25,0.125,0.0625
492126988393,0.375,0,0.25
492127010848,0.375,-0.4375,0.1875
492127025810,0.625,-0.9375,0.4375
492127048294,0.5625,-1.0625,0.5625
492127070803,0.25,-1.1875,0.5625
492127085813,0.5625,-0.6875,0.5625
492127108287,0.125,-0.1875,0.375
492127130813,-0.0625,-0.125,0.5
492127145807,0.0625,-0.4375,0.6875
492127168279,1,-0.5625,0.625
492127190730,1.375,0.125,0.375
492127213215,1.4375,0.6875,0.125
492127228229,0.25,-0.25,0.375
492127250733,0.5,-0.6875,0.5
492127265815,2.125,-2,1
492127289729,3.5,-2.375,1.375
492127310876,4,-2.625,1.75
492127325733,6.6875,-1.6875,2.5
492127349808,7.3125,-0.625,2
492127370885,8.8125,-1,2.875
492127393369,8.5,-2.875,2.1875
492127409779,6.6875,-3.375,2.5
492127430796,7.125,-2.5,1.125
492127453344,9.0625,-1.1875,1.0625
492127469724,7.875,0,1.0625
492127490766,6.4375,-0.8125,1.625
492127513370,5.1875,-0.1875,1.8125
492127531212,5.375,2.5,2.3125
492127550846,6.9375,5.125,1.25
492127573328,8.9375,5.9375,1.5
492127591195,7.4375,4.625,1
492127610864,8.25,6.0625,0.75
492127633252,15.5625,7.3125,-0.5625
492127651178,23.3125,7.6875,1.1875
492127670793,23,10.8125,2.125
492127693333,26.625,15.9375,1.3125
492127711274,29.125,20,0.1875
492127730806,25,24,0.0625
492127753342,19.5625,25.875,0.6875
492127771298,12.375,26.25,1.625
492127790837,9.0625,27.3125,3.25
492127813330,10.1875,27.9375,3.5625
492127831219,14.875,28.3125,2.5625
492127850924,20.5,28.875,3.75
492127873350,25.5625,29.25,5
492127891205,31.0625,29,6.3125
492127910798,37.5,28.9375,7.5625
492127933270,43.6875,28.125,9.75
492127951161,47.75,30.25,10.625
492127970787,48.5,32.125,11.375
492127993285,44.4375,33.6875,13
492128011195,37.875,35.5,15.5
492128030866,34.1875,37.875,16.0625
492128053387,30.0625,40.25,17.375
492128071235,26.1875,41.0625,18.3125
492128090819,25.5625,41.3125,19.5
492128120870,28.375,40.9375,22
492128131234,31.4375,40.125,22.5
492128152279,28.9375,39.0625,20.3125
492128173353,22.3125,37.6875,17.5
492128191213,15.875,36.375,17.0625
492128212270,12.75,36.0625,17.25
492128233409,8.125,36.4375,17.3125
492128251274,3,35.4375,16.375
492128272264,4.6875,33.3125,13.75
492128293381,9.9375,32.6875,10.375
492128311255,13.6875,34.75,10.1875
492128332242,16,37.25,11.6875
492128353391,17.0625,39.625,13.125
492128371249,15.125,41.8125,12.625
492128398274,12.25,42.1875,13.0625
492128413272,11.125,42,16.9375
492128431225,16.8125,39.4375,20.875
492128453676,20.9375,33.8125,21.125
492128473289,25.625,26.375,22.4375
492128491159,30.1875,20.5625,25.0625
492128513701,27.9375,18.875,26.875
492128533260,26.1875,22.9375,23.625
492128551264,27.1875,28.0625,17.875
492128573735,28.3125,30.1875,11.5625
492128593285,22.25,31.125,0.75
492128611203,7.8125,31.875,-12.4375
492128633735,-8.6875,33.25,-19.4375
492128653334,-13.5,33.6875,-18.0625
492128670387,-3.8125,37.9375,-16.5625
492128693775,8.25,44.5625,-16.75
492128713990,14.0625,52.8125,-14.6875
492128730453,12.375,62.75,-11.8125
492128752894,10.125,69.0625,-5.0625
492128773985,12,71.125,-3.4375
492128790480,22.6875,70.5625,2.1875
492128812922,38.375,69.5,8.5625
492128833968,47.0625,67.25,17.25
492128850446,43.5,61.9375,24.6875
492128872920,44.375,52.875,21.6875
492128894002,45.8125,43.6875,23.625
492128909800,31.5,37.125,23.625
492128932896,5.3125,31.125,25.3125
492128953937,-15.75,24.0625,26.5625
492128970363,-16.125,15.875,31.5625
492128992909,-10.9375,10.0625,33.375
492129013928,-11.375,3.375,30.625
492129031050,-15.3125,-4.0625,28.5
492129052923,-18.875,-12.875,25.625
492129073985,-11.0625,-16.8125,23.0625
492129090419,-8.5,-17.1875,21.125
492129112896,-13.5625,-16.875,18.75
492129134041,-18.3125,-16.9375,15.8125
492129150434,-8.875,-18.9375,14.8125
492129172956,-3.1875,-18.5625,15.5
492129193925,-7.375,-16.0625,16.3125
492129209794,-0.1875,-13.625,16.25
492129233444,11,-14.0625,17
492129261435,15.5625,-16.1875,19.4375
492129269758,23.3125,-17.9375,22.6875
492129292930,26.1875,-17,23.3125
492129313968,32.875,-12.4375,19.375
492129329785,33.125,-3.9375,13.0625
492129352936,26.3125,1.875,7.0625
492129375404,22.875,1.8125,3.25
492129389754,19.5625,-2,4.0625
492129412919,9.25,-3.3125,6.75
492129435428,-1.4375,-2.125,9.9375
492129449775,-3.0625,-0.5,10.6875
492129472980,2,0.5625,7.5
492129495525,6.25,1.25,2.5625
492129510414,4.125,0.375,-0.6875
492129532907,-2,0.125,-0.6875
492129555439,-6.625,0.4375,-0.125
492129569838,-8.375,-0.6875,-0.5625
492129592916,-8.5625,-1.375,-0.875
492129615418,-12.5625,-1,-0.0625
492129629789,-13.0625,-0.125,0.75
492129652943,-8.0625,0.5625,-0.125
492129675409,-2.875,1.1875,-0.8125
492129689806,-0.875,1.875,-0.625
492129712918,-1.75,2.3125,-1.125
492129735398,-8.0625,1.5625,-2.875
492129749753,-12.5,-0.125,-3.6875
492129772964,-13.5,-2.25,-4.0625
492129795429,-12.9375,-2.875,-4
492129809805,-11.375,-2.5,-3
492129832925,-6.875,-1.9375,-2.25
492129855448,-3.6875,-0.75,-1.625
492129876468,-1.4375,0.5625,-1.5
492129892916,1.875,1.4375,-1.5625
492129915499,6.625,1.625,-1.6875
492129937050,8.0625,1.4375,-0.5625
492129952943,5.25,1.1875,-0.4375
492129975444,0.625,0.8125,-0.5625
492129996515,-2.0625,0.1875,-1
492130012955,-2.875,-0.1875,-1.25
492130035413,-3,0.125,-1
492130056236,-3.6875,0.625,-1.4375
492130072894,-2.1875,1.3125,-2.5625
492130095430,-2.25,1.375,-2.5625
492130116508,-1.125,0.875,-1.8125
492130133373,1.75,0,-0.875
492130155447,4.5625,-0.375,0.3125
492130176504,2.5625,-0.125,1.8125
492130192928,-1.5625,0.5,2
492130215444,-1.5,0.375,0.5
492130244044,0.9375,0.0625,-0.75
492130252933,1.5,0.0625,-1.375
492130275488,0.8125,0.5625,-1.1875
492130296942,0.25,0.375,-1.1875
492130312915,1.25,0.1875,-1.1875
492130335198,1.5,0.1875,-1
492130358023,1.8125,0.1875,-0.4375
492130372918,0.75,0.5625,0.25
492130395452,-1.9375,0.75,0.6875
492130417978,-2.5625,0.25,0.0625
492130432981,-1.8125,-0.5,-0.125
492130455505,-0.6875,-0.875,0.25
492130478003,-0.4375,-0.4375,0.1875
492130492271,0.8125,-0.25,0
492130515556,3.3125,-0.375,-0.125
492130538103,5.375,-0.5625,0.625
492130552292,3.75,-0.125,0.8125
492130575478,2.0625,-0.25,0.125
492130598041,0.75,-0.3125,0.25
492130612332,-1.5,-0.5,0.4375
492130635452,-2.8125,-1.25,0.3125
492130657979,-1.625,-2.3125,0.1875
492130672304,0.75,-2.5,0.0625
492130695445,0.0625,-1.875,0.1875
492130717941,-2.75,-0.5625,0.9375
492130732301,-3.25,0,0.875
492130755459,-0.75,-0.0625,0.4375
492130777914,0,-0.375,0.8125
492130792266,-0.375,-0.25,1.5
492130815424,-0.5,0.125,1.8125
492130837948,-0.25,0.125,1.1875
492130859030,1.4375,0.0625,0.6875
492130875509,0.8125,0.3125,0.9375
492130898003,-1.375,0.875,1.0625
492130919068,-2.25,1,0.625
492130935547,-1.5625,0.875,0.3125
492130958066,0.125,0.9375,0.1875
492130979114,0.375,1,0.4375
492130995455,0.25,1,0.8125
492131018043,0.375,0.875,1.125
492131039141,1.25,0.75,0.5625
492131055593,1.5,0.375,0.1875
492131078031,0.0625,0.0625,0.25
492131099107,-1.3125,-0.125,0.5
492131115498,-1.1875,-0.3125,0.5
492131137988,0.1875,-0.4375,0.6875
492131159072,1.3125,-0.25,0.5
492131175538,1.6875,-0.25,0.25
492131197980,1.5,-0.25,0.625
492131219110,1.25,0.1875,0.875
492131235542,0.8125,0.5,0.875
492131257912,0.5,0.9375,0.375
492131280476,1.8125,0.5625,-0.125
492131295545,2.0625,0.3125,0
492131318019,1.0625,0.1875,0.5
492131340474,1,0.0625,0.25
492131355500,1.3125,-0.1875,0
492131378090,1.8125,-0.4375,0
492131406558,1.5625,-0.25,0.4375
492131415489,0.5625,-0.125,0.9375
492131437943,-0.4375,0,0.8125
492131460494,-0.3125,-0.0625,0.375
492131474899,1.25,-0.25,-0.1875
492131498035,0.5,0,-0.5625
492131520594,0.4375,0.8125,-0.8125
492131534902,-0.4375,1.3125,-0.375
492131558049,-0.1875,1.375,-0.125
492131580482,1.75,0.5625,0.1875
492131594870,3.25,-0.0625,0.4375
492131617996,1.5625,-0.5,0.9375
492131640579,-0.625,-0.1875,1.1875
492131654810,-1.4375,0,1.125
492131678061,-0.9375,0.125,0.6875
492131700449,-0.1875,0.125,0.1875
492131714836,-0.75,0.25,0.5
492131738036,-1.5625,0.0625,0.8125
492131760565,-1.875,0,0.5625
492131781547,-1.6875,-0.25,-0.0625
492131798008,-0.625,-0.4375,-0.4375
492131820553,-1.375,-0.4375,-0.0625
492131841633,-1.875,-0.0625,0.125
492131858016,-1.0625,-0.25,-0.0625
492131880543,0.1875,-0.3125,0.25
492131901567,0.1875,-0.4375,0.5625
492131918056,-0.75,-0.125,0.875
492131940569,-1.3125,0.0625,0.625
492131961568,-0.5,0.0625,-0.125
492131978081,-0.25,0,-0.5
492132000585,-0.375,-0.0625,-0.5
492132021618,-0.8125,-0.1875,-0.625
492132038055,-0.4375,-0.125,-0.9375
492132060497,-0.625,0.0625,-1
492132082995,-1.75,0.1875,-0.8125
492132098053,-1.4375,0.25,-0.75
492132120577,-1.125,0.0625,-0.4375
492132141676,-1.0625,0.25,-0.375
492132158010,-0.6875,0.3125,-0.5
492132180582,-0.0625,0.125,-0.4375
492132201520,0,0.1875,-0.125
492132218079,-0.75,0.25,-0.0625
492132240533,-0.5625,0.125,0.25
492132262973,0.375,-0.25,0.0625
492132284132,0.25,-0.3125,-0.125
492132300502,-0.5,-0.0625,-0.375
492132322976,-0.5625,0.1875,-0.6875
492132338067,-1.5625,0.3125,-0.6875
492132360563,-1.6875,0.3125,-0.4375
492132383061,-0.9375,0.25,-0.375
492132397321,-1,0.125,-0.375
492132420543,-0.8125,0.0625,-0.3125
492132443120,0.6875,0.125,-0.125
492132457401,0.625,0.375,-0.0625
492132480516,-1.0625,0.9375,-0.375
492132503058,-1.9375,1,-1
492132517378,-0.75,0.625,-1.25
492132540543,0.5625,0.3125,-1
492132563123,1.1875,0.0625,-0.6875
492132577381,0.9375,-0.0625,-0.5
492132608088,0.6875,-0.0625,-0.5
492132623020,0.25,-0.3125,-0.125
492132637346,-0.4375,-0.125,0.4375
492132660510,-1.3125,0.0625,0.625
492132683136,-1.5,0.1875,0.25
492132697406,-0.9375,0.1875,0.1875
492132720487,-1.1875,0.1875,0.1875
492132743103,-0.625,0,-0.0625
492132764095,-0.75,-0.1875,0
492132780574,-0.75,-0.25,-0.25
492132803073,-0.6875,-0.25,-0.3125
492132824134,-0.8125,-0.125,-0.4375
492132840607,-0.3125,0.0625,-0.375
492132863028,-0.25,0.25,-0.4375
492132884162,-0.375,0.25,-0.3125
492132900554,-0.3125,0.125,-0.1875
492132922976,-0.0625,0.125,-0.25
492132944155,0.75,-0.0625,-0.375
492132960524,0.125,-0.0625,-0.6875
492132983110,0.0625,-0.6875,-1.3125
492133005558,4.25,-2.4375,-1
492133020560,7,-3.3125,-0.0625
492133043037,9.25,-3,0.6875
492133064040,11.625,-2.125,-1.625
492133080532,18.4375,-0.3125,-2.6875
492133102993,29.6875,-0.9375,-1.25
492133124070,39.9375,-1.375,-1.25
492133139869,43,0.125,-3.625
492133162999,42.6875,5.375,-9.1875
492133185623,36.5,12.625,-10.25
492133200006,19.3125,20.125,-10.625
492133223083,-2.5,30.3125,-12.25
492133245528,-23.375,44.125,-17.1875
492133259987,-51.8125,59.4375,-21.5
492133283040,-84.25,72.6875,-24.125
492133305489,-84.875,83.9375,-24.75
492133326729,-66.1875,92.3125,-21.6875
492133343128,-39.875,102.875,-20.1875
492133365549,-20.125,113.062,-19.9375
492133394106,-20.1875,121.438,-16.5625
492133402972,-28.6875,128.125,-10.75
492133425538,-32.5625,135.688,-6.1875
492133446584,-28.4375,144.438,-3.6875
492133462986,-23.9375,151.312,-1.0625
492133485979,-26.0625,155.625,1.0625
492133514054,-27.6875,158.5,2.5
492133522996,-24.625,158.25,2.625
492133545520,-17.25,157.312,4.375
492133566593,-9.3125,153.5,2.375
492133582990,-10.4375,151.562,-1.375
492133605483,-12.5625,141.125,-7.9375
492133626602,-20.5,140.375,-8.9375
492133643045,-28,132.625,2.4375
492133672031,-42.625,129.5,8.4375
492133686593,-47.625,117,10.1875
492133703033,-50.0625,110.812,12.875
492133725533,-44.5625,103,16.25
492133746569,-36.8125,96.375,18.875
492133763043,-34.75,89,20.375
492133785466,-34.4375,80.25,21.875
492133806576,-29.25,70.8125,24.125
492133823024,-31.9375,61.875,26.5
492133845512,-32.5625,51.5625,29.0625
492133866587,-23.8125,41.5,27.875
492133883085,-22.5,32.3125,25
492133905498,-28.9375,28.25,22.1875
492133926601,-28.9375,24.8125,19.75
492133942427,-24,18.875,18.1875
492133965469,-18.25,14.625,17.0625
492133986598,-12.5,12.75,14.5
492134002394,-11.4375,12,11.375
492134009898,-10.4375,9.4375,7.1875
492134030950,-5.25,5.6875,3.5625
492134053433,2.875,2.875,0.75
492134069900,5.9375,1.5625,-2.9375
492134090941,3.125,-1.1875,-6.25
492134113387,-1,-4.0625,-8.375
492134135945,-4.625,-6.9375,-10.125
492134150940,-5.8125,-9.8125,-11.8125
492134173412,-4.0625,-12.75,-13.8125
492134188440,-2.25,-14.875,-14.5
492134210932,0.375,-16,-15.375
492134233415,7,-17.375,-18.375
492134249914,15.0625,-20.8125,-23.625
492134270936,18.4375,-25,-27
492134293442,17.9375,-28.375,-28.8125
492134309894,14.3125,-33,-29.375
492134330945,10.8125,-37.875,-28.3125
492134353376,8,-43.8125,-26.9375
492134369919,4.0625,-53.4375,-28
492134390907,1.4375,-64.8125,-28.125
492134413486,3.125,-69.6875,-27
492134437427,6.6875,-70.625,-25.875
492134450978,4.8125,-71.625,-24.3125
492134473477,-1,-78.4375,-23.0625
492134489920,-3.4375,-84.0625,-24.5
492134510970,11.4375,-86,-25.5625
492134533458,31.875,-87.625,-23.25
492134549905,35.9375,-93.9375,-16.5625
492134570959,25.4375,-103.375,-10.5625
492134596804,20.625,-107.75,-11.125
492134609905,33.4375,-105.562,-14.625
492134630941,45.6875,-106.312,-11.75
492134653442,39.875,-112.125,-5.6875
492134669930,20.25,-113.375,-3.125
492134690935,17.375,-109.375,-7.75
492134713479,34.75,-107.438,-10.6875
492134729895,43.5625,-109.812,-7.75
492134750946,39.625,-115.062,0
492134773450,27.8125,-118.375,-0.1875
492134789908,32.0625,-118.188,-4.5625
492134810949,48.125,-117.312,-3.5
492134833449,45.75,-117.312,5.375
492134849918,27.0625,-120,12.25
492134870919,7.3125,-124.125,12
492134893432,7.1875,-124.562,11.8125
492134909893,19.1875,-118.438,17.3125
492134930938,22.25,-110.125,25.1875
492134953447,13.9375,-103.312,27.8125
492134969902,10.5,-96.375,23.3125
492134990956,17.8125,-85.8125,19.5
492135013451,16.25,-77.6875,17.125
492135029907,2.125,-73.3125,17.8125
492135050937,-5.75,-62.625,17.25
492135073382,-5.9375,-47.875,14.625
492135091338,-9.875,-33.75,11
492135110983,-14.9375,-23.4375,11.5
492135133447,-15.5,-16.0625,15.25
492135151352,-12.0625,-12.5625,15.4375
492135170926,-13.3125,-10.6875,17.3125
492135193476,-16.25,-10.125,20
492135211340,-15.625,-10.625,23.0625
492135231039,-8.25,-12.5625,25.4375
492135253537,-3,-14.75,27.0625
492135271386,-2.375,-11.4375,25.9375
492135291042,-5.6875,-4,22.75
492135313502,-9,5.375,18.5
492135338926,-9.9375,11.5,14.4375
492135358546,-1.8125,13.0625,8.625
492135380950,2,10.6875,0.875
492135391395,1.4375,6.375,-2.5625
492135410979,1.6875,2.5,-0.125
492135433533,-1.125,-2.625,0.9375
492135451343,-2.3125,-5.3125,1.375
492135471026,0.6875,-4.8125,0.75
492135493494,-1.4375,-2.9375,1.4375
492135511416,-7.6875,-0.75,1.5625
492135531052,-7.5625,0.8125,0.625
492135553433,-3.125,1.625,-0.625
492135571341,-1.1875,1.75,-0.875
492135592432,-1.625,1.875,-0.75
492135616363,-1.125,0.8125,-1.1875
492135631396,-0.9375,-0.1875,-0.9375
492135651035,-1.6875,-0.4375,-0.0625
492135673594,-2.75,-0.3125,0.5625
492135691427,-2.625,0.125,0.5
492135712492,-1.4375,0.375,0.125
492135733480,0.625,0.5625,-0.125
492135751380,2.375,0.75,-0.125
492135772486,1.6875,1.375,0.125
492135793521,0,1.5,-0.125
492135811405,0.1875,0.75,-0.5625
492135832511,1.125,0.0625,-0.375
492135853514,2.25,-0.625,-0.125
492135871413,1.25,-0.375,0.625
492135892467,-0.0625,0.4375,0.9375
492135913509,-0.375,0.875,0.5625
492135931377,0.25,0.875,-0.125
492135952518,1.4375,0.625,-0.125
492135973411,0.9375,0.875,0.3125
492135991373,-1.375,1,0.375
492136018440,-0.6875,0.625,-0.3125
492136033428,1.375,0.125,-0.6875
492136051395,1.4375,0.0625,-0.25
492136073900,0.375,0.25,0.5
492136093596,-0.0625,0.125,0.5
492136111471,0.125,-0.125,0.125
492136133944,1.3125,-0.4375,0.1875
492136153527,1.625,-0.375,0.0625
492136171436,1,-0.125,-0.125
492136193953,0.1875,-0.125,-0.375
492136216430,1.1875,-1.125,-0.75
492136231480,3.5,-2.0625,-0.5625
492136253907,4.6875,-1.875,-0.125
492136273471,3.75,-0.75,0.125
492136291398,1.5625,0.0625,-0.1875
492136313949,1.8125,-0.1875,-0.9375
492136333518,3.375,-0.875,-0.9375
492136351435,2.5625,-0.6875,-0.1875
492136373890,-0.0625,-0.1875,-0.125
492136393419,0.0625,-0.0625,-0.75
492136411396,1.25,0.0625,-0.875
492136433907,0.3125,0.1875,-0.5625
492136453506,-1.0625,0.1875,-0.125
492136471367,-1,0,-0.0625
492136493898,-0.5,-0.25,-0.0625
492136513475,0.5,-0.3125,-0.375
492136531497,0.0625,0.125,0.125
492136553140,-0.9375,0.6875,0.375
492136574125,-1.875,0.875,0
492136590680,-2.5,0.875,-0.4375
492136613203,-2.375,0.875,-0.625
492136634279,-2.375,1,-0.5625
492136650610,-3.25,1.4375,-0.5625
492136673120,-2.5,1.5625,-0.8125
492136694262,-1.9375,1.8125,-0.9375
492136710726,-2.4375,1.6875,-0.375
492136733136,-2.9375,1.5,-0.25
492136754221,-2.125,1.125,-0.125
492136771144,-1,0.9375,0.125
492136793140,-2.5,1.25,0.3125
492136814262,-2.75,0.8125,0
492136830694,-0.0625,0.125,-0.25
492136853152,1.125,-0.375,-0.0625
492136874138,-0.1875,0,0.3125
492136890537,-1.25,0.25,0.25
492136913081,-1.5,0,0.25
492136941665,-0.4375,-0.1875,0.1875
492136950557,-0.1875,0.375,0.6875
492136973108,-1,1.6875,0.5625
492136995569,-1.4375,2.6875,0.5
492137010545,-3.1875,3.4375,1
492137033175,-5.1875,3.1875,1.25
492137055677,-5,1.9375,1.0625
492137070638,-2.0625,0.3125,0.5
492137093108,0.5,-0.6875,0.125
492137115661,1.0625,-0.25,0.1875
492137130008,-0.4375,0.5625,0.4375
492137153188,-1.1875,0.9375,-0.125
492137175644,-1.75,1,-0.625
492137189971,-1.6875,0.8125,-0.5
492137213194,-1.875,1,-0.1875
492137235634,-3.0625,1.3125,0.0625
492137249990,-3.5625,1.125,-0.125
492137279226,-2.25,0.25,-0.3125
492137295683,0.125,-0.625,-0.1875
492137309949,1.25,-0.9375,0.25
492137333178,0.75,-0.875,0.1875
492137355616,0.3125,-0.375,-0.25
492137369950,-0.625,0.0625,-0.375
492137393113,-2.125,0.3125,-0.125
492137415572,-2.75,0.1875,0.3125
492137429916,-1.8125,-0.0625,0
492137453083,-1.3125,-0.125,-0.125
492137475601,-0.625,-0.375,-0.125
492137496746,0.375,-0.5,0
492137513067,0.75,-0.5,0.0625
492137535603,-0.125,-0.125,0.375
492137556792,-1,0.0625,-0.125
492137573198,-0.9375,0.0625,-0.5
492137595630,-1.125,0,-0.5
492137616792,-0.5625,-0.25,-0.5
492137633179,0.75,-0.4375,-0.125
492137655657,-0.375,-0.25,0.6875
492137676739,-1.375,-0.0625,0.375
492137693175,-0.8125,-0.125,-0.0625
492137715643,0.375,0.0625,-0.0625
492137736729,0.25,0.3125,0.3125
492137753131,-0.375,0.5625,0.5
492137775605,-0.0625,0.5,0.125
492137796700,0.125,0.125,-0.25
492137813097,0.8125,-0.1875,-0.4375
492137835641,0.8125,-0.1875,0
492137864171,-0.625,0,0.5625
492137873184,-0.4375,0.1875,0.3125
492137895673,0.75,-0.0625,0.1875
492137918241,1.25,-0.0625,0.3125
492137933196,-0.6875,-0.0625,0.375
492137955710,-1.1875,0.0625,0.1875
492137978197,0.375,0.3125,0.0625
492137993146,2.0625,1.5625,0.5
492138015684,1.8125,2.9375,1.5625
492138038199,0.6875,3.5625,2.5625
492138053098,-3.5625,3.75,3.8125
492138075612,-4.4375,4.1875,3.9375
492138098064,-2.3125,4.75,3.6875
492138112423,-1.75,4.8125,3.9375
492138135640,-3,4.4375,3.75
492138158120,-3.5,3.5625,3.1875
492138172418,-2.75,1.4375,0.8125
492138195691,0.875,-0.5625,-0.75
492138218203,2.5,-1.5,-1.125
492138232452,-0.3125,-1,-0.5
492138255698,-1.125,-0.5625,-0.8125
492138278184,0.5,-1.0625,-1.375
492138292504,1.5,-1.4375,-1.1875
492138315586,-0.75,-1.3125,-0.125
492138338183,-1.75,-1.125,-0.1875
492138352578,-0.625,-1.25,-0.875
492138375689,0.9375,-1.375,-1.25
492138398130,1.25,-1.25,-0.625
492138419148,-0.125,-0.5,-0.1875
492138435574,0.375,-0.5625,-0.375
492138458184,0.8125,-0.5,-0.375
492138479136,0.25,-0.25,-0.375
492138495717,-0.625,-0.0625,-0.125
492138518216,-0.4375,-0.125,-0.0625
492138539194,-0.0625,-0.125,0.0625
492138555674,-0.375,-0.125,0.25
492138578227,-1.4375,-0.25,0.625
492138599272,-1.75,-0.5625,0.4375
492138615420,-0.875,-0.75,0
492138638115,-0.4375,-0.3125,-0.125
492138659011,-0.625,0.25,-0.125
492138675666,-0.25,0.25,-0.125
492138698128,0.25,0.0625,-0.0625
492138719300,0.75,-0.3125,-0.125
492138735712,0.0625,-0.1875,0.125
492138758089,-0.25,-0.125,-0.0625
492138779313,-0.4375,-0.375,-0.125
492138795793,1.625,-1.1875,-0.1875
492138818224,2.5,-1.625,0.25
492138839308,2.375,-2.1875,0.375
492138855710,3.75,-2.9375,0.0625
492138878236,4.0625,-3.375,-0.125
492138900644,1.9375,-3.1875,0.125
492138915066,0.0625,-2.5625,-0.125
492138938302,1.0625,-2.3125,-1
492138960647,4.3125,-1.9375,-1.3125
492138975674,3.1875,-0.5625,-0.6875
492138998122,0.125,0,-0.6875
492139020610,1,-0.5,-1.0625
492139034915,3.6875,-1.5,-0.9375
492139058192,4.4375,-1.625,-0.5
492139080626,2.6875,-0.6875,-0.3125
492139094949,1.1875,0,-0.3125
492139118173,-0.0625,0.3125,-0.5
492139140709,-1.0625,0.4375,-0.1875
492139155061,-2,0.375,-0.0625
492139178253,-1.5,0.25,0.125
492139200790,0,0.125,0.3125
492139215057,0.6875,-0.0625,0.1875
492139238210,0.1875,-0.125,-0.25
492139268193,-0.1875,-0.625,-0.1875
492139275109,0.3125,-1.375,0.625
492139298183,3.8125,-2.5,1.25
492139320598,6.0625,-2.9375,1.4375
492139335012,6.625,-3,1.375
492139358253,6.125,-4.125,0.625
492139380735,9.4375,-6.125,0.0625
492139401686,14.9375,-7.875,-0.125
492139418190,16.0625,-8.5625,-0.1875
492139440668,14.125,-9,-1.6875
492139461687,14.625,-12.375,-4.125
492139478124,23.3125,-18,-5.5625
492139501088,24.9375,-18.1875,-4.9375
492139521704,15.8125,-18.375,-12.9375
492139538156,8.875,-19.4375,-29.5
492139560707,-12.3125,-19.25,-49.375
492139581867,-70.25,-23.5,-62
492139597545,-127.25,-34.5,-67.8125
492139620746,-130.562,-48.9375,-78.25
492139641764,-86.5,-59.375,-92.9375
492139657489,-47.125,-67.5,-103.375
492139680718,-39.375,-74.8125,-106.875
492139701764,-40.5,-79.0625,-113.375
492139717556,-42.3125,-79.375,-111.062
492139740754,-53.1875,-72.4375,-108.625
492139761856,-88.8125,-68.125,-106
492139777984,-125.125,-63.25,-107.375
492139800618,-125.812,-58.5625,-101.062
492139823149,-100.312,-52.25,-90.5
492139837472,-88.125,-44.125,-82.875
492139860656,-91.0625,-41.375,-78.4375
492139883180,-96.3125,-44.0625,-74.75
492139897597,-101.812,-47.375,-68.5625
492139920753,-113.938,-48.0625,-59.3125
492139943223,-128.625,-45.5625,-50.625
492139964339,-143.062,-41.375,-47.1875
492139980687,-162.812,-37.1875,-50.6875
492140003186,-174.25,-32.125,-52
492140024199,-175.375,-26.75,-47.4375
492140040677,-164.688,-25.6875,-40.5625
492140063192,-151.938,-26.125,-32.9375
492140084223,-140.438,-23.9375,-24.625
492140100621,-137.438,-19.8125,-14.4375
492140123153,-137.062,-6.9375,-3.9375
492140144216,-124.062,8.6875,4.875
492140160657,-99.3125,15.9375,12.8125
492140183120,-81.5625,15.1875,17.3125
492140204360,-92.25,10.625,19.125
492140220758,-105.312,9.75,20.625
492140243161,-96.9375,12.1875,25.5
492140264243,-81.1875,13.625,33.4375
492140280708,-73.5,15.1875,38.75
492140303201,-73.5,23.8125,43.75
492140331819,-66.25,33.6875,50.625
492140340701,-55.5,41.625,55.3125
492140363152,-50.1875,48.6875,58
492140384253,-41.875,56.75,63.5625
492140400667,-27.8125,62.5625,70.5625
492140423165,-21.0625,65.375,75.6875
492140444260,-18.0625,67.9375,81.1875
492140466710,-13.8125,69.1875,86.6875
492140483151,-6.8125,69.1875,89.125
492140504287,-0.6875,68.9375,91.875
492140520786,-0.5625,69.4375,97.375
492140543200,-6.3125,68.875,103.188
492140564251,-6.1875,66.8125,107.438
492140580069,1.25,63.6875,111.75
492140603159,8.1875,57.125,114.562
492140624284,13,50.4375,116
492140640100,16.5,44.875,116.75
492140663187,17.4375,39.75,119
492140685729,16.3125,34.6875,121.438
492140700108,15.6875,29.625,121.812
492140723201,20.25,25.0625,121.562
492140744372,31.125,19.9375,121.438
492140759998,34.75,14.5,124
492140783142,40.5,-0.1875,125.25
492140805652,32.125,-3.75,124.812
492140819975,59.3125,-4.875,118.562
492140843138,48.75,-3.4375,114.125
492140865676,34.1875,-8.0625,112.625
492140880047,45.3125,-23.1875,111.562
492140903196,50.0625,-19.0625,107.375
492140933243,46,-23.1875,103.875
492140946806,43.125,-23.1875,96.8125
492140963223,52.5625,-24,88.9375
492140985745,53.4375,-27.75,88
492141006842,38.625,-32.25,85.3125
492141023237,35.3125,-32.625,74.125
492141045701,49.9375,-33.875,63
492141066864,43.6875,-38.9375,63
492141083255,19.6875,-48.875,60.625
492141105738,10.9375,-50.1875,51.0625
492141126705,21.4375,-50.5,38.3125
492141143256,24.3125,-56.4375,31.125
492141166169,3.6875,-70.3125,25.3125
492141186567,-13.75,-81,16.3125
492141203270,-3.375,-76.25,0.875
492141225648,24.25,-65.5625,-10.5
492141246831,22.6875,-61.5625,-13.0625
492141263346,3.25,-68.1875,-18.4375
492141285699,0.4375,-72.9375,-34
492141306788,8.8125,-75.4375,-44.1875
492141323148,19.1875,-77.5,-44
492141345673,26.125,-77.875,-44.6875
492141366865,27.6875,-78.5625,-57.375
492141383152,20.75,-80.875,-59.875
492141405723,15.6875,-86.5,-50.75
492141426735,25,-90.5625,-48.1875
492141443191,48.375,-93.8125,-56
492141465708,70.375,-96.6875,-57
492141486737,83.5,-101.938,-53.1875
492141503258,78.875,-105.625,-45.9375
492141525480,60,-107.875,-49.3125
492141546823,51.3125,-106.562,-55.875
492141569299,32.625,-102.25,-54.8125
492141585754,17.4375,-101.25,-57.8125
492141606870,16.5625,-103.688,-67.5625
492141622624,21.8125,-101.75,-72.75
492141645728,22.625,-97.0625,-72.875
492141666812,18.8125,-96.0625,-76.8125
492141682539,15.4375,-92.4375,-82.5
492141705660,17.25,-84.6875,-85.75
492141728279,8.375,-71.375,-84.75
492141742570,-11.9375,-63.3125,-84.5
492141765700,-23.4375,-58,-86.4375
492141788283,-25.8125,-54.8125,-89.0625
492141802575,-31.625,-53.5625,-85.1875
492141825751,-39.4375,-52.5625,-79.625
492141848232,-44.875,-51.625,-74.5
492141870007,-48.6875,-50.6875,-70.625
492141871558,-62.25,-49.5,-67.5625
492141891141,-89.9375,-46.5625,-62.625
492141913708,-106.938,-40.625,-60.1875
492141931553,-100.062,-29.375,-61.1875
492141951184,-87,-18.1875,-62.5
492141973696,-90.4375,-14.875,-62.25
492141991528,-117.562,-7.5,-57
492142011120,-127,5.75,-50.6875
492142041096,-121,16,-44.125
492142051563,-118.875,18.625,-37.25
492142071188,-126.25,20.8125,-28.25
492142093605,-128.625,26.1875,-17.75
492142119073,-114.25,32.6875,-10.1875
492142131057,-100.562,36.0625,-6.875
492142153640,-98,35.875,-2.75
492142171532,-103.938,33.375,8.5625
492142191165,-106.625,35.75,20.4375
492142213664,-105.312,38.875,28.875
492142231541,-106.062,39.1875,35.0625
492142251154,-111.688,36.5,42.875
492142275114,-115.875,32.5625,50.875
492142291575,-120.75,29.5625,56.9375
492142311203,-123.875,28.3125,60.625
492142333690,-121.125,27.75,62.375
492142351540,-115.812,31,69.8125
492142371227,-100.438,38.375,81.1875
492142393555,-73.125,50.5625,88.4375
492142411464,-43.375,58.3125,88.4375
492142431135,-26.5625,63.8125,86.1875
492142453580,-17.625,68.5625,85.8125
492142471510,-13.3125,73.25,89.1875
492142491120,-13.5,74.625,91.625
492142513556,-9.5,72.4375,90.375
492142531512,2.5,69.5625,88.625
492142551162,10.875,66.1875,89.5625
492142573669,13,64.125,92.1875
492142599007,5.4375,60.125,93.6875
492142611167,-11.875,51.1875,94.375
492142633675,-36.125,39.6875,101.625
492142656153,-66.0625,25.1875,116.188
492142672422,-77,12.9375,125.875
492142693725,-61.0625,2.1875,125.562
492142711594,-30.25,-6.9375,119.875
492142731118,-9.4375,-7.5625,110.25
492142753702,-31.125,-19.5625,109.25
492142776136,-13.9375,-19.6875,100.812
492142791213,4.8125,-12.25,89.75
492142813711,32.0625,-6.25,83.0625
492142836161,56.625,-0.0625,77.6875
492142851199,49.25,0.375,74.9375
492142873688,45.625,1.625,72.8125
492142891540,61.375,-1.3125,68.4375
492142911101,73.0625,-11.8125,69.6875
492142933604,66.25,-19,71.875
492142951551,71.625,-15.9375,65.6875
492142971235,90.6875,-17.625,53.3125
492142993619,86.5,-30.9375,48.125
492143011517,65.0625,-40.5,50.5
492143038666,55.6875,-34.5625,43.375
492143053692,62.75,-30,30.1875
492143071547,66.75,-38.125,20
492143091170,56.3125,-50.625,17.5625
492143113746,39,-57.375,13.1875
492143131565,39.5625,-61.4375,5
492143152599,47.9375,-56.25,-13.8125
492143173671,36.3125,-43.1875,-28.375
492143191985,4,-53.0625,-47.25
492143211124,4.5625,-51.4375,-48.4375
492143233703,22.5,-47.9375,-43.5
492143251619,31.5625,-50.125,-39.125
492143272641,33.4375,-55.8125,-24.5625
492143293581,47.625,-62.125,-15.75
492143313003,87.75,-62.625,-8
492143332546,116.875,-57,-2.0625
492143353690,108.5,-54.3125,3.625
492143371613,93.3125,-58.0625,12.75
492143394133,99.5,-52.8125,16.5
492143413707,111.688,-46.5625,8.6875
492143436101,101.875,-50.5,1.1875
492143452627,67.9375,-62.625,3.25
492143473674,57.75,-72.3125,7.4375
492143496188,63.8125,-72.0625,7.8125
492143512601,57.125,-69.75,7.375
492143533672,35.8125,-71.8125,9.1875
492143556114,29.9375,-74.6875,7.9375
492143574004,41.9375,-72.25,5.5
492143593656,45.5625,-69.375,8.5625
492143616211,34.375,-64.25,17
492143634126,23.5,-58.6875,16
492143653736,22.9375,-57.875,10.4375
492143676124,26.1875,-59.3125,10.375
492143694003,30.5,-56.625,12.4375
492143713757,40.5625,-48.9375,7.125
492143736252,37.5625,-42.75,-7.4375
492143754088,9.0625,-41.6875,-18.125
492143773790,-13.75,-38.75,-18.8125
492143796210,-15.125,-32.25,-20.9375
492143814115,-11.0625,-27.625,-17.5625
492143833793,-5,-25.75,-15
492143856269,-8.3125,-23.6875,-10.3125
492143874098,-21.0625,-20.125,-8.875
492143893662,-41.5625,-15.125,-7.1875
492143916252,-40.125,-11.5625,-2.25
492143934111,-28.4375,-7.5,7.5
492143953689,-10.4375,-4.125,9.0625
492143976161,6.25,-0.875,9.125
492143994074,20.0625,2.9375,11.25
492144013836,27.875,6.8125,14.625
492144036155,25.4375,7.75,14.3125
492144054018,24.875,5.9375,9.4375
492144073632,35.875,8.6875,2.9375
492144096108,47.1875,11.5,-2.125
492144114070,50.125,10.4375,-4.6875
492144133776,41.8125,7.4375,-3.5625
492144156247,34.9375,4.1875,-2.5625
492144174107,30.75,2.125,-0.6875
492144193674,27,0.0625,-0.9375
492144216126,22.0625,-5.125,-3.0625
492144234066,15.5625,-12.75,-3.875
492144255184,10.625,-15.6875,-2.125
492144276297,9.9375,-13.9375,-2.8125
492144294090,9.875,-11.0625,-5.3125
492144315126,6.8125,-6.625,-5.875
492144331584,-2.1875,-1.625,-2.25
492144354059,-9.3125,2.375,1.0625
492144375091,-10,6.25,0.5
492144391543,-7.625,8.8125,0.375
492144413194,-9.5625,11.3125,3.25
492144434337,-11.8125,13.5625,4.9375
492144450751,-10.9375,12.8125,2.75
492144473291,-6.25,6.4375,-0.25
492144495796,-1.8125,0.125,0.0625
492144510760,0.0625,-2.625,1.625
492144533321,2.125,-3.25,0.6875
492144555820,4.75,-3.25,-1
492144570821,7.375,-2.5625,-1.75
492144593358,9.125,-0.75,-2.4375
492144623306,6.25,1.0625,-2
492144630838,-0.1875,2.75,-0.625
492144653282,-3.5,3.8125,-0.75
492144675746,-3.5,3.1875,-1.625
492144690102,-2.0625,2.25,-2.0625
492144713269,0.5625,1.0625,-2.5
492144735820,2.5,0.1875,-2
492144750132,2.5625,-0.125,-0.125
492144773292,2.75,-0.0625,1
492144795857,2.8125,0.1875,0.75
492144810204,3.5,0.6875,0.3125
492144833336,0.5625,1.0625,1.0625
492144855864,-1.6875,1.6875,1.875
492144870139,0.75,2.0625,1.75
492144893329,2.5,2.4375,1.4375
492144915838,1.4375,3.1875,1
492144930201,-2.4375,3.4375,1
492144953315,-3.8125,2.4375,1.5
492144976246,-2.625,1.4375,1.125
492144990205,-0.625,0.6875,-0.0625
492145013261,1,0.1875,-1.1875
492145035770,1.5,-0.25,-1.4375
492145056911,2.25,-0.1875,-1.1875
492145073261,3.25,-0.625,-0.875
492145095739,2.125,-0.75,-0.125
492145116898,-1.25,0.1875,-0.125
492145139462,-2.125,0.8125,-0.1875
492145155756,-1.5625,0.4375,-0.5625
492145176830,0.3125,0.1875,-1.0625
492145193247,0.9375,0,-1.0625
492145215767,0.25,0.125,0
492145236823,-0.125,0.3125,0.125
492145253235,0.3125,0.375,-0.5625
492145275565,0,0.625,-0.75
492145296808,-1.5625,0.875,-0.25
492145320858,-2.625,1.125,-0.1875
492145335861,-1.8125,1.125,-0.625
492145356916,-0.375,0.875,-0.8125
492145373271,-0.1875,0.8125,-0.5
492145395890,-0.875,0.5625,-0.375
492145416876,-1.25,0.4375,-0.375
492145433272,-0.75,0.25,-0.6875
492145455773,-0.625,0.25,-0.6875
492145478327,-0.6875,0.1875,-0.375
492145493332,-1,0.25,0
492145515856,-0.6875,0.125,0.0625
492145545816,-0.25,0.1875,-0.125
492145553330,0.1875,0.1875,-0.3125
492145575828,-1.1875,0.3125,0
492145598345,-2.3125,0.375,0.0625
492145613260,-2,0.375,-0.0625
492145635827,-1.1875,0.125,-0.5625
492145658244,-0.1875,-0.1875,-0.5625
492145672620,-0.25,-0.125,-0.1875
492145695793,-1.1875,0,0.0625
492145718249,-1.625,0.0625,-0.1875
492145732584,-0.875,0.0625,-0.4375
492145755795,-0.375,0.125,-0.375
492145778316,-1,0,0
492145792685,-1.1875,0.125,0.3125
492145815743,-0.6875,0.1875,0
492145838358,0.125,0.0625,-0.3125
492145859479,-0.375,0.0625,-0.125
492145875788,-1.25,0.3125,0.0625
492145898335,-1.875,0.5625,-0.0625
492145912717,-1.3125,0.4375,-0.25
492145935885,-0.625,0.3125,-0.4375
492145958343,-0.4375,0.1875,-0.375
492145979370,-0.3125,0,-0.125
492145995784,-0.4375,-0.0625,0.125
492146018274,-0.8125,-0.0625,0.0625
492146039281,-0.5625,-0.0625,-0.3125
492146055737,0.9375,-0.0625,-0.625
492146078378,0.9375,-0.1875,-0.125
492146099412,-0.375,0.0625,0.4375
492146115830,-0.6875,0.125,0.375
492146138444,-0.5,0.125,-0.0625
492146159432,-0.375,0.1875,-0.1875
492146175837,-1.1875,0.3125,0
492146198300,-1.4375,0.3125,0.1875
492146219418,-1.625,0.3125,0.3125
492146235984,-1.375,0.25,0.25
492146258306,-1.375,0.125,0.1875
492146279332,-0.8125,-0.0625,0.125
492146295900,-1.25,-0.25,0.4375
492146318280,-2.1875,-0.3125,0.8125
492146339318,-1.3125,-0.375,0.75
492146355777,-0.25,-0.3125,0.3125
492146378411,-0.375,-0.25,0.0625
492146399433,-1.125,0.125,0.1875
492146415867,-1.3125,0.3125,-0.125
492146438316,-0.4375,0.375,-0.625
492146468307,1.25,0.3125,-0.9375
492146475769,2.375,0.125,-0.6875
492146498401,1.75,0.125,0
492146520836,0,0.25,0.375
492146535834,-1.125,0.375,0.0625
492146558370,-1.1875,0.3125,-0.125
492146580794,-0.9375,0.125,-0.125
492146595243,-0.5,-0.125,-0.0625
492146618325,0,-0.1875,-0.125
492146640863,0.6875,-0.125,-0.3125
492146655185,-0.375,-0.1875,-0.125
492146678267,-1.3125,-0.125,0
492146700905,-0.6875,-0.125,-0.3125
492146715213,-0.5,-0.125,-0.125
492146738273,-0.875,-0.0625,0
492146760787,-1,-0.25,0.25
492146775131,-0.8125,-0.125,0
492146798290,-0.1875,-0.125,-0.1875
492146820849,-0.625,0.0625,0.1875
492146835156,-0.5,0.125,0.3125
492146858359,0.0625,0.25,-0.0625
492146880824,0.9375,0.125,-0.125
492146895185,0.4375,0.125,-0.125
492146918369,0.0625,0.1875,-0.125
492146940880,0.5,0.25,-0.3125
492146961915,0.625,0.1875,-0.1875
492146978426,0.0625,0.3125,-0.125
492147000868,-0.4375,0.3125,0
492147021904,-0.4375,0.3125,0
492147038350,-0.3125,0.3125,-0.1875
492147060845,-0.0625,0.1875,-0.125
492147081877,-0.9375,-0.25,0.375
492147098404,-0.8125,-0.5,0.125
492147120894,0,-0.875,-0.125
492147142039,0.25,-1.5,-0.0625
492147158378,-0.3125,-1.875,0.4375
492147180875,-0.5,-1.625,0.5
492147201838,-0.4375,-1.125,0.125
492147218436,0.125,-0.5,-0.4375
492147240819,0.75,0.375,-0.5625
492147261859,0.125,0.625,-0.3125
492147278262,-0.125,0.5,0
492147300802,-0.875,0.3125,0.4375
492147321842,-0.5,-0.0625,0.1875
492147338298,0.4375,-0.125,0
492147360865,0.5625,0.125,-0.0625
492147383424,0.8125,0.25,-0.25
492147398373,0.5625,0.375,-0.4375
492147420871,-1,0.6875,-0.0625
492147443354,-1.1875,0.5625,-0.0625
492147458377,-0.1875,0.3125,-0.3125
492147480923,0,0.125,0.125
492147503351,-0.6875,0.25,0.4375
492147518389,-0.5,0.375,0.125
492147540840,0.25,0.3125,-0.1875
492147563374,0.25,0.0625,-0.125
492147577734,-0.5625,0,0.1875
492147600825,-1.4375,0.1875,0.4375
492147623353,-0.125,0.1875,-0.1875
492147637749,0.6875,0,-0.3125
492147661003,0.1875,0,0
492147683451,-0.125,0,0.125
492147697745,-0.25,0.0625,0.25
492147720800,0.5625,-0.125,0.5
492147743366,0.5,-0.1875,2
492147757648,-4.75,-0.4375,5.0625
492147780876,-8.3125,-1.125,5.375
492147803324,-2.8125,-2.3125,3.5
492147817724,2.5625,-3.1875,1.9375
492147840906,2.75,-2.5625,1.8125
492147863381,1.6875,-1.3125,2.0625
492147877745,-0.4375,-0.1875,1.5625
492147900887,-3.5625,0.625,0.9375
492147923315,-4.125,0.4375,0.0625
492147944397,-2.625,-0.0625,-0.1875
492147960874,-0.6875,-0.125,0.0625
492147983425,0.5,0.3125,0.125
492148004479,2.0625,0.75,-0.5625
492148020892,3.6875,0.9375,-1.1875
492148043425,0.3125,0.9375,-0.375
492148064459,-3.375,0.5625,0.3125
492148080913,-1.9375,0.0625,0.3125
492148103299,0.3125,-0.5,-0.125
492148124519,2.3125,-0.375,-0.3125
492148148340,2.625,0.0625,0.25
492148163389,1.1875,0.3125,1.25
492148184531,0.4375,0.4375,0.9375
492148200947,-1.5625,0.375,0.5625
492148223325,-2.6875,0.375,0.5
492148244335,-2.5625,0.375,0.125
492148260793,-1.3125,0,0.125
492148283351,-0.3125,-0.0625,0.375
492148304364,-0.375,-0.0625,0
492148320791,-0.4375,-0.1875,-0.25
492148343351,-0.4375,0,0.0625
492148365867,-1.375,0.25,0.3125
492148381267,-1.9375,0.3125,0.625
492148403093,-1.0625,0.3125,1.0625
492148425919,0.3125,0.125,0.75
492148440809,0.6875,0.0625,0.25
492148463374,1,0.1875,-0.125
492148485811,-0.0625,0.375,-0.125
492148500164,-2.5,0.6875,0.4375
492148523293,-3.1875,0.4375,0.0625
492148545851,-2.4375,-0.0625,-0.625
492148560179,-0.5625,-0.5,-0.8125
492148583319,-0.3125,-0.375,-0.125
492148605909,-0.1875,-0.0625,0.0625
492148620202,0.8125,0,-0.125
492148643352,1.3125,-0.1875,-0.4375
492148665802,0.9375,-0.8125,-0.1875
492148680224,2.375,-1.5,0.5625
492148703362,1.4375,-1.75,1.625
492148725837,1.75,-2.1875,1.5625
492148740166,3.4375,-2.125,0.9375
492148763396,4,-1.6875,0.1875
492148785878,3.5,-1,0.1875
492148800153,1.875,-0.4375,0.8125
492148823318,-0.375,0.125,1.25
492148845912,-0.0625,-0.25,0.0625
492148866978,5.1875,-3.6875,-0.125
492148883335,12.5625,-8.25,3.1875
492148905916,17.6875,-11.8125,6.6875
492148926919,19.5625,-14.125,6.75
492148943359,23.6875,-14.25,6.1875
492148965834,27.3125,-14.5625,5.875
492148986959,32.1875,-18.3125,4.9375
492149003368,36.375,-19.625,3.8125
492149025837,27.4375,-20.1875,5.375
492149046968,12.4375,-21.5625,6.6875
492149063296,4,-26.4375,5.8125
492149085929,3.375,-31.375,1.25
492149106960,-11.625,-32.375,-3
492149122658,-42.375,-31.625,-5.6875
492149145848,-63.3125,-33.125,-8.3125
492149166971,-71.5,-35.8125,-11.875
492149182702,-71.875,-36.75,-16.4375
492149205895,-68.1875,-32.625,-25.875
492149226938,-70.8125,-30.625,-35.75
492149242721,-85.4375,-29.375,-42.125
492149265903,-99.125,-23.75,-45
492149288349,-109.75,-14.625,-46
492149302668,-119.25,-4.9375,-50.0625
492149325842,-124.688,2.625,-55.8125
492149348377,-118.625,8.4375,-60.3125
492149362704,-111.562,16.4375,-65
492149385891,-107.312,25.4375,-69.875
492149408397,-103.062,34.125,-72.6875
492149429466,-101.375,42.875,-75.0625
492149445966,-101.062,53.9375,-78.625
492149468316,-105.875,63.3125,-81.1875
492149489382,-110,69.3125,-81.3125
492149505893,-106.75,73.9375,-81.4375
492149528363,-92.9375,77,-79.625
492149549427,-78.9375,83.125,-79.6875
492149565984,-69.6875,87.1875,-82.8125
492149588370,-63.5625,89.6875,-87
492149609433,-60.1875,91.6875,-90.25
492149625951,-60.25,91.5,-89.6875
492149648398,-66.4375,91.4375,-87.1875
492149669457,-71.0625,90.875,-86.3125
492149685919,-64.5625,87.75,-87.6875
492149708346,-55.6875,81,-89.1875
492149729441,-49.3125,75.3125,-89.375
492149747199,-46.5,72.25,-89.125
492149751282,-44.5,69.375,-87.5625
492149773770,-40.125,67.8125,-86.625
492149796251,-37.875,64.8125,-84.5
492149811446,-41.75,63.875,-82.75
492149833791,-23.375,74.4375,-88.5625
492149856266,-38.4375,77.75,-86.3125
492149871228,-38.6875,75.875,-84.0625
492149893761,-32.6875,73.9375,-80.75
492149916250,-21.5,78,-82.9375
492149931256,-17.875,79.8125,-86.0625
492149953737,-19.0625,72.5625,-83.8125
492149976276,-24.3125,66.4375,-74.4375
492149991257,-26.75,62.6875,-68.6875
492150013734,-26.25,55.8125,-64.5625
492150045122,-23.5,46.8125,-60.3125
492150051284,-22.375,34.875,-55.625
492150073751,-22,27,-49.125
492150096263,-21.375,22.625,-41.25
492150112729,-25.875,19.8125,-36
492150133790,-27.5625,16.875,-30.9375
492150156279,-21.25,13.5,-21.3125
492150171275,-15.4375,9.8125,-10.1875
492150193744,-13.0625,8.25,-2
492150216371,-9.5625,6.8125,0.9375
492150231350,-2.875,5.5,6.6875
492150253877,1.625,6,14.375
492150271641,4.3125,6.6875,16.625
492150291386,3,5.9375,16.875
492150321309,-0.25,3.6875,20.8125
492150336322,-0.8125,0.5,25.8125
492150351415,2.0625,-2.375,28.125
492150373883,6.875,-4.6875,31.5
492150396369,8.0625,-6.75,35.4375
492150411307,10.75,-10.4375,39.125
492150433855,16.375,-15.25,42.5
492150456336,20.9375,-20.6875,48.5
492150472823,19.25,-26.0625,53.4375
492150493769,17.5,-30.3125,56.5
492150516327,17.375,-33.3125,63.125
492150531334,17.3125,-36.25,69.625
492150553822,21.5625,-38.9375,74.9375
492150576288,29.375,-44.8125,78
492150591373,26.625,-54.5,82.125
492150613868,23,-60.625,87.25
492150636383,28.375,-64.875,92.4375
492150651265,28.75,-73.875,97.75
492150673794,28.5,-84.75,98.625
492150696369,33.75,-92.375,99.3125
492150718774,37.1875,-95.3125,102.375
492150733924,37.0625,-98.1875,105.5
492150756367,32.375,-102.625,103.438
492150771384,25.125,-106.312,100.375
492150793882,28.75,-107.125,102.562
492150816348,32.375,-106.25,106.125
492150832774,36.375,-107.25,103.875
492150853891,44.1875,-109.188,100.125
492150877741,49.625,-112.875,98.125
492150892752,45.9375,-113.812,95.3125
492150913753,48.3125,-101.25,95.25
492150936257,61.25,-82.5625,90.8125
492150952717,77.25,-72.6875,84.8125
492150973774,77.9375,-71.0625,82.1875
492150996278,73.3125,-66.0625,85.125
492151012746,82,-45.625,80.1875
492151033771,114.125,-29.75,66.875
492151056229,127.812,-21.1875,63.5
492151072702,111.5,-20.75,71
492151093801,79.0625,-20.1875,78
492151116322,57.0625,-21,72.75
492151132708,67.25,-19.5,68.5
492151153870,88.4375,-12.625,77.6875
492151176322,96.875,-5.5,85.6875
492151194228,77.125,-8.625,79.6875
492151213848,61.5625,-24.1875,57.6875
492151236325,65.0625,-32.3125,49
492151254209,73.375,-31.375,60.0625
492151273822,68.25,-13.8125,63.75
492151296406,60.5625,2.875,49.0625
492151314234,55.625,5.5,28.3125
492151333894,54.75,5.3125,17.625
492151356395,55.375,8,17.375
492151374195,49.375,9.125,23
492151393811,36.75,12.1875,21.75
492151416338,23.3125,15.25,20.3125
492151434636,11.25,16,16.6875
492151453838,-3.5,17.125,11
492151476311,-19.9375,10.6875,15.4375
492151494231,-25.6875,6.875,19.625
492151513851,-22.5625,3.3125,19.125
492151536322,-12.5625,-0.625,14.6875
492151554214,-3.6875,-6.375,5.0625
492151573877,2.3125,-10.875,-0.4375
492151596410,6.25,-9.5,-1.3125
492151614242,5.4375,-5.9375,-0.0625
492151641411,9.125,-2.3125,2.625
492151651760,15.375,-1.9375,1.75
492151674314,18.1875,-2,0.6875
492151693918,16.3125,-2.1875,-2.3125
492151711683,17.6875,-2.6875,-5
492151734212,11.8125,-5.375,-8
492151755245,3.1875,-8.6875,-14.0625
492151776286,-6.125,-11.3125,-24.625
492151794230,-22.1875,-10.25,-29.875
492151815225,-43.5625,-6.8125,-31.625
492151836259,-73.5625,-1.4375,-40.25
492151854232,-97.4375,2.1875,-45.75
492151875253,-94.5625,5.0625,-56.125
492151896292,-68.3125,4.125,-67.8125
492151914250,-40.875,10.9375,-74.4375
492151935388,-36.3125,23.875,-83.0625
492151956338,-44.5625,30.9375,-85.4375
492151974192,-55.4375,34.125,-93.6875
492151995373,-63.5625,39.125,-102.688
492152016331,-72.375,46.1875,-111.875
492152034282,-80.5625,48.125,-122.812
492152055294,-83,46.6875,-129.438
492152076354,-87.5625,49.375,-130.562
492152094229,-100.75,55.0625,-131.125
492152115389,-115.938,62.5,-133.062
492152136390,-125.188,67.1875,-135.25
492152154307,-125.062,71.875,-134
492152176756,-120.75,79.625,-132.875
492152196400,-110.625,88.4375,-133.25
492152214287,-94.6875,95.25,-131
492152236694,-87.3125,97.6875,-128.125
492152256392,-87.9375,95.5,-126.938
492152273401,-84.9375,85.75,-123.938
492152296924,-83.3125,80.3125,-122.125
492152316975,-88.75,89.875,-127.688
492152333455,-111.625,82.625,-118.625
492152356041,-125.812,76.8125,-110.938
492152377004,-124.812,69.4375,-109.938
492152393456,-123.062,66.9375,-102.25
492152416005,-102.375,54.375,-94.0625
492152437079,-76.125,44.5625,-89.625
492152453465,-49.625,36.6875,-87.0625
492152475992,-27.1875,31.5,-79.875
492152496957,-22.8125,28.875,-70.5
492152513434,-35.9375,26.4375,-71.6875
492152542017,-39.25,22.1875,-72.1875
492152564562,-40.0625,18.25,-57.9375
492152573534,-49.0625,21.9375,-45.4375
492152596022,-51.25,24.8125,-48.75
492152617082,-45.5,21.375,-49.4375
492152633515,-36.5625,17.0625,-38.9375
492152655788,-25.8125,17.25,-29.25
492152676956,-15.6875,21,-28.8125
492152693433,-10.1875,22.875,-32
492152716012,-10.75,21.3125,-25.5625
492152737076,-11.75,19.3125,-13.8125
492152753454,-9.5625,20,-8.5
492152775966,-4.9375,19.9375,-11.6875
492152797006,-1.4375,16.6875,-8.1875
492152820925,1.5,11,1.1875
492152835908,4,5.375,11
492152857020,4.4375,1.9375,14.6875
492152873416,3.25,-1.6875,15.5625
492152895903,4,-7.3125,22.125
492152916991,9.75,-12.75,32.9375
492152932722,15.5625,-16.25,42.8125
492152956010,16.5625,-17.5625,46.75
492152977063,14.5625,-19.125,48.375
492152992765,14.75,-21.875,53.125
492153016109,17.4375,-24.8125,60.25
492153037062,21.5625,-26.5,66.625
492153052836,20.3125,-28.625,63.875
492153076016,22.75,-31.5,60
492153098504,22.1875,-32,61.5
492153112822,20.3125,-29.0625,63.8125
492153136007,20.6875,-24.9375,61.0625
492153158438,20.6875,-25.5,55.6875
492153172919,24.1875,-28.3125,54.3125
492153196025,29.125,-29.0625,53.375
492153225987,37.6875,-28.625,51.5625
492153239511,44.5,-28.875,51.625
492153256005,43.9375,-30.3125,54.1875
492153278498,51.75,-39.5,57.5625
492153299548,39.625,-44.25,64.875
492153315943,32.5,-49.25,66.1875
492153338469,51.125,-54.6875,70.125
492153359558,60.25,-65.125,78
492153375970,46.625,-78.0625,75.4375
492153398607,42.1875,-85.25,78.6875
492153421055,45.0625,-83.4375,87
492153435935,45.6875,-79,90.0625
492153458445,40.5625,-82.125,82.9375
492153479486,38.375,-95.375,82.0625
492153496016,57.375,-101.875,91.125
492153518519,89.75,-96.3125,95.375
492153539597,106.75,-87.9375,88.75
492153556054,103.938,-84.25,84.625
492153578506,82.0625,-80.0625,93.625
492153599546,54.3125,-71.6875,103.875
492153615969,52.375,-63.3125,103.312
492153638452,61.3125,-59.8125,98
492153659496,53.5,-65.625,96.5625
492153675981,53.125,-64.125,98.625
492153698521,78.3125,-46.9375,97.75
492153719580,99.625,-31.3125,90
492153736010,99.75,-27.875,83.375
492153758546,95.0625,-30.25,83.3125
492153779502,105,-25.75,81.75
492153795940,104.375,-15.3125,71.5625
492153818514,92.8125,-11.25,61.6875
492153839613,87.8125,-11.625,61
492153855335,80.6875,-9.1875,65
492153878497,60.6875,-8.875,59.625
492153899546,52.0625,-13.6875,47.5
492153915394,61.8125,-12.875,45.8125
492153938473,62,-7.875,51.875
492153959629,40.625,-3.3125,50.0625
492153975377,31.25,-6.25,39.25
492153998543,36,-8.875,33.9375
492154020948,34.125,-7.875,34.6875
492154035407,30.875,0.4375,35.9375
492154058550,26,5.875,31.375
492154081092,23.5,7.125,22.4375
492154095295,22.25,8.25,16.75
492154118529,17.9375,10.3125,18.4375
492154148485,9.25,12.25,18.125
492154162019,7.375,12.4375,19.4375
492154178427,6.6875,10.1875,16.125
492154207013,9.75,7,17.625
492154222022,12.5,4.8125,19.8125
492154238443,10.5,0.375,17.125
492154260956,6.0625,-3.625,14.0625
492154282021,2.0625,-7.5625,12.625
492154298513,0.3125,-7.25,10.25
492154320940,-4.5,-3.125,4.625
492154335290,-14.6875,0.875,-1
492154358434,-21.3125,2.4375,-0.6875
492154380945,-14.1875,2.25,-0.75
492154402009,-3.625,1.125,0.375
492154418554,5,0.4375,1.6875
492154441066,4.625,0.375,2.1875
492154455384,0.75,0.125,1.0625
492154478523,0,-0.6875,0
492154507102,0,-1.75,-0.9375
492154522038,-1,-2.3125,-0.8125
492154538487,-0.75,-1.125,0.5625
492154560990,-2.6875,-0.25,1.6875
492154582085,-3.625,0,1.1875
492154598546,-1.0625,0,1.3125
492154621088,1.375,-0.4375,1.4375
492154642133,-0.5,-0.3125,1.625
492154658521,-1.75,-1.25,0.875
492154680953,-0.625,-2.6875,0.4375
492154702105,2.25,-2.9375,1.1875
492154718525,4.75,-2.875,1.6875
492154741060,4.0625,-2.4375,1.8125
492154762111,1.5,-1.5625,1.3125
492154778503,-0.25,-1.1875,0.75
492154808475,0.75,-0.875,0.0625
492154822100,1.25,0.0625,0
492154838557,0,0.3125,0.1875
492154861077,0.125,-0.25,0.4375
492154882116,2.5,-1.375,0.6875
492154898542,6.6875,-1.8125,0.625
492154921076,11,-1.4375,1.625
492154942100,5.1875,0.1875,4.625
492154958559,1.5,2.6875,5.5625
492154981053,7.125,5,-0.125
492155003546,8.3125,6.5625,-10.6875
492155017833,25.625,6.625,-28.3125
492155041018,48.5,10.25,-61
492155063594,37.875,17.3125,-73.3125
492155084611,-6.0625,23.4375,-81.125
492155100969,-57.9375,27.5625,-100.062
492155123527,-82.875,32.75,-107.375
492155144606,-81,32.125,-112.562
492155161069,-77.25,32.1875,-126.5
492155183544,-64.9375,33.125,-123.062
492155197133,-57.6875,37.6875,-129.5
492155212889,-61.0625,39.125,-136
492155236039,-70.375,40.25,-139.625
492155257173,-79.5,43.8125,-140.5
492155272871,-84.1875,49.75,-140.75
492155303525,-85.9375,56.125,-141.75
492155324575,-92.0625,60.8125,-142.688
492155341008,-100.375,64,-140.812
492155363569,-100.312,68.8125,-135.625
492155384579,-94.8125,77.5625,-128.812
492155401061,-89.1875,81.25,-125.375
492155423502,-78.125,77.125,-124.375
492155444609,-66.75,69.3125,-120.562
492155462291,-50.875,68.25,-122.062
492155483524,-33.875,60,-115.812
492155504622,-32.5,63.8125,-113.5
492155521118,-42.6875,63.3125,-111.812
492155543536,-63.1875,55.4375,-102.688
492155564638,-63.3125,47,-98.9375
492155581508,-71.5,44.25,-92
492155603535,-72,40.0625,-87.4375
492155624618,-61.4375,34.125,-82.9375
492155641591,-47.5625,28.1875,-76.8125
492155663522,-43,21.875,-74.75
492155684546,-40.4375,16.1875,-74.3125
492155701004,-38.6875,13.75,-72.9375
492155723566,-38.0625,13.6875,-70.625
492155744557,-39.3125,15.5625,-70.25
492155760350,-39.875,17.5625,-70.9375
492155783492,-39.6875,17.125,-71.875
492155804648,-39.625,15.75,-69.8125
492155820459,-38.0625,14.1875,-66.3125
492155843528,-35.9375,8.6875,-68.5
492155864598,-30.6875,-0.25,-70.75
492155880394,-18.4375,-7.25,-65
492155903543,-4.0625,-8.0625,-54.625
492155926099,2.6875,-5.8125,-49.25
492155940408,-3.5625,-4.5,-47.25
492155963511,-11.625,-4.3125,-38.875
492155986123,-22.75,-2.3125,-24.0625
492156000351,-29.5625,0.4375,-17.1875
492156023517,-24.125,1.75,-18.0625
492156046001,-11.625,0.625,-12.625
492156067079,-1.8125,-0.625,-3.625
492156083919,3.875,0.25,-0.0625
492156105992,5.4375,0.8125,2.9375
492156120344,4.5,-1.0625,7.9375
492156143475,5.0625,-3.125,16.375
492156166001,5.25,-4.3125,22.0625
492156187176,6.125,-5.375,23.25
492156203590,5.9375,-7.0625,25.3125
492156226014,3.8125,-9.4375,28.8125
492156247154,2.375,-11.75,31.625
492156263583,4,-13.6875,32.5625
492156286084,6.9375,-15.125,34.25
492156307094,7,-16.875,33.75
492156323616,8.4375,-19.9375,32.5
492156346079,9,-22.875,36.1875
492156367093,7.75,-25.5625,41.375
492156383584,9.5625,-26.4375,45.3125
492156406073,13.5,-26.5,49.3125
492156427136,17.375,-25.75,54.3125
492156443601,22.625,-24.125,58.875
492156466090,24.1875,-22.8125,60.375
492156487186,25.875,-22.125,63.0625
492156503508,29.25,-22,67.5625
492156526028,37.875,-20.75,72.8125
492156547145,56.3125,-15.625,77.125
492156563570,66.6875,-2.5625,80.0625
492156586061,74.5,16.3125,80.75
492156607049,97.8125,27.6875,83.875
492156622866,97.4375,28.625,82.875
492156646074,86.0625,12.25,81.9375
492156667132,75.1875,-1.625,87.1875
492156682970,69.9375,-0.3125,93.1875
492156706487,75,7.375,90.25
492156727136,72.9375,6.0625,90.5
492156742893,54.5,-12.3125,98.8125
492156766060,30.75,-36.1875,105.312
492156787172,35.5,-51.0625,109.312
492156802943,62.5,-56.1875,112.875
492156826062,70.875,-59,113.562
492156847135,49,-70.1875,109.688
492156862879,24.4375,-87,110.062
492156886027,28.25,-94.625,119
492156908529,43.6875,-80.9375,122.062
492156922986,52.25,-58.5625,114.625
492156946099,46.4375,-45.1875,106.875
492156968563,43.3125,-50.875,103.062
492156982934,46.625,-62.125,109.312
492157006045,58.25,-64,113.062
492157028542,80.75,-56,104.125
492157049670,93.25,-46.5,92.75
492157066106,83.625,-47.375,92.5
492157088538,50.75,-55.6875,96.1875
492157109677,28.8125,-63.9375,85.9375
492157126129,42.875,-60.875,71.625
492157148548,50.8125,-51.3125,64.75
492157169643,29.875,-46.5625,65.8125
492157186124,3.375,-51,63.3125
492157208622,12.625,-58.75,51.8125
492157229607,47.25,-55.6875,50.1875
492157246012,51.8125,-37.625,55.625
492157268641,27.875,-17.4375,56.1875
492157289621,0.375,-4.9375,47.4375
492157306052,-12.875,-6.0625,40.1875
492157328602,-6,-9.9375,40.5
492157349659,-11.625,-9.6875,28.8125
492157366126,-30.625,-13.4375,29.4375
492157388602,-33.0625,-16.0625,32.75
492157409714,-23.5625,-19.75,25.375
492157432180,-13.8125,-21.3125,17.5
492157448547,-10.75,-15.4375,11.125
492157469675,-7.25,-10.3125,3.1875
492157485411,-1.1875,-8.125,0.6875
492157508582,0.6875,-6.75,-1.3125
492157529555,10.3125,-6.5,-2.0625
492157545422,19.0625,-7.375,-0.25
492157568602,18.5,-7,0.0625
492157589641,9.125,-3.5,-0.125
492157605392,-5.375,1.3125,1.5
492157612922,-15.0625,4,1.8125
492157634007,-19.375,4.75,-0.125
492157656495,-17.8125,4.25,-1
492157671507,-14.0625,3.9375,-2
492157693954,-9.75,4.625,-2.625
492157716464,-6.125,5.3125,-2.1875
492157731544,-4.3125,4.9375,0.25
492157754013,0.1875,3.0625,1.625
492157776426,4.0625,0.375,1.6875
492157791481,6.625,-1.4375,0.875
492157814019,7.1875,-1.9375,0.4375
492157836515,6.3125,-1.5,0.625
492157851522,3.5,0.0625,1.0625
492157874039,1.4375,1.1875,0.375
492157896571,0.625,1.75,-1.1875
492157911471,0.5625,2.125,-2.1875
492157934069,1.75,2.0625,-2.375
492157956568,1.6875,2.0625,-1.5
492157971596,2.1875,1.875,-0.875
492157993987,2.6875,1.3125,-0.375
492158016523,3.75,0.75,-0.75
492158031524,4.6875,0.3125,-1.1875
492158053995,4.625,0,-1.25
492158076490,1.5625,0.0625,-0.5
492158091473,1.5,-0.0625,-0.625
492158114043,2.6875,-0.25,-1.0625
492158136448,3.375,-0.4375,-0.9375
492158151549,5.375,-0.9375,-0.6875
492158174032,7.375,-1.375,-0.1875
492158196513,6.75,-1.4375,0.0625
492158211559,5.375,-0.5625,-0.5
492158234032,2.625,0.4375,-1.375
492158256520,-0.125,1.625,-1.4375
492158271491,-3.625,2.5,-0.5625
492158293959,-4.8125,2.625,0.3125
492158316545,-5.125,2.4375,1.125
492158331509,-4.9375,1.5625,1.125
492158354146,-2.5,0.3125,0.875
492158376507,1.375,-0.75,-0.25
492158391504,2.625,-1.125,-0.375
492158414051,2.1875,-0.8125,-0.25
492158436565,1.125,-0.25,-0.25
492158452948,0.25,0.25,-0.0625
492158473961,0.125,0.5,0.25
492158496537,-0.625,0.8125,0.6875
492158512905,-2.5,1.3125,0.4375
492158533918,-2.25,1.0625,-0.4375
492158556462,-1.875,0.5625,-0.8125
492158572888,-0.9375,0.3125,-0.4375
492158593974,2.25,-0.75,0.3125
492158616465,1.25,-1,2.1875
492158632896,-0.4375,-1.1875,2.25
492158654010,-0.8125,-1.3125,1.3125
492158676468,-1.0625,-0.8125,-0.125
492158694349,1.9375,-0.375,-0.6875
492158714086,2.875,-0.1875,0.0625
492158736525,-1.4375,0.125,1.3125
492158752928,-2.6875,-0.5625,1.1875
492158774067,-2.125,-1.1875,0.375
492158796533,-3.125,-1,-0.0625
492158814446,-2.1875,-1.125,0.25
492158833948,-2.5,-1.375,1.0625
492158856555,-2.75,-1.875,2
492158874415,-3.6875,-3,2.0625
492158894033,-5.625,-4.1875,2.5
492158916574,-9.9375,-4,2.6875
492158934376,-8.5625,-7.125,2.625
492158954044,0.5625,-14.125,4.3125
492158976559,1.5625,-16.1875,4.875
492158994363,-2.9375,-14.6875,4.8125
492159013994,-7.6875,-12.6875,2.4375
492159036520,-9.0625,-8.625,2.875
492159054469,-12.75,-4.125,4.125
492159074049,-18.1875,0.6875,4.125
492159096576,-19.6875,5.5625,1.75
492159114422,-18.8125,9.125,-0.6875
492159134040,-20.3125,11,-1.75
492159156614,-18.8125,10.6875,-2.3125
492159174459,-11.875,7.375,-3
492159194048,-2,3.4375,-3.25
492159216510,1.5625,1,-2.625
492159234414,-2.5625,1.75,-2.5
492159253962,-9.125,2.6875,-3.75
492159276540,-13.5625,1.6875,-5.375
492159294435,-12.1875,0.6875,-5.5625
492159314021,-9.5625,1.125,-6.0625
492159336569,-15.1875,2.125,-7.75
492159354428,-21.8125,3.5625,-9.875
492159375444,-23.625,2.9375,-10.5
492159396431,-19.875,3,-9.5
492159414348,-17.75,3.1875,-8.3125
492159435515,-18.125,6.3125,-7.625
492159456534,-15.5,6.375,-6.625
492159480387,-9.875,3.3125,-5.625
492159495486,-4.875,0.6875,-3.8125
492159516518,-6.4375,0.0625,-2.0625
492159534408,-18.6875,2.0625,-2.1875
492159555505,-23.8125,0.6875,-4.25
492159576491,-19.4375,-1.875,-6.5
492159594394,-14,-3.0625,-6.5
492159615472,-9.375,-2.25,-5.0625
492159636598,-7.8125,-1.125,-2
492159654436,-2.375,-1,-0.125
492159675453,2.8125,0.25,1
492159696485,1.625,1.375,-0.125
492159714412,-5.125,2.4375,-0.5
492159736984,-8.4375,1.9375,-2.625
492159756532,-8.5,0.375,-4.375
492159774421,-3.625,-0.5,-4.0625
492159796927,1.9375,-0.8125,-2.5625
492159816572,1.9375,-0.8125,-0.1875
492159834413,1.9375,0.0625,1.1875
492159856938,3.1875,0.8125,0.9375
492159876569,5.5625,0.6875,-0.25
492159894440,4.125,0.375,-0.25
492159916945,2.625,0.75,-0.1875
492159936572,-0.375,1,-0.3125
492159954404,-1.3125,1.125,-1.1875
492159976162,0,1,-1.9375
492159996563,-0.5625,0.6875,-1.3125
492160014404,-0.625,-0.4375,-0.5
492160036903,1.125,-1.375,0.5
492160059424,3.25,-1.6875,0.4375
492160081932,3.6875,-1.625,0.625
492160096940,3,-1.6875,0.875
492160116506,1.625,-1.125,1.0625
492160134422,0.25,0,0.5
492160156934,-2.0625,0.625,0.1875
492160177190,-2.375,0.75,0.5
492160193676,-1.25,0.0625,0.875
492160216186,-0.1875,-0.5,1.1875
492160237244,0.125,-1.5625,1.1875
492160253594,0.4375,-1.8125,1.0625
492160276150,0.3125,-1.5625,0.3125
492160314202,0.6875,-1.125,-0.125
492160316601,0.25,-0.375,-0.125
492160336175,-0.9375,0.1875,-0.25
492160357143,-0.8125,0.3125,-0.125
492160373423,0.4375,0.1875,0.0625
492160396143,-0.4375,0,0.0625
492160417173,-1.625,0.125,0.1875
492160433681,-1.25,0.125,0.3125
492160456112,0.6875,0.125,0
492160477264,1.375,0.125,0
492160493616,0.5,0,0
492160516169,-0.4375,-0.0625,0.125
492160537181,-0.9375,0.0625,0.125
492160553716,-0.25,0,-0.125
492160576082,0.625,-0.6875,-0.3125
492160597205,0.875,-0.6875,-0.5625
492160613671,0.375,-0.3125,-0.4375
492160636195,-1.0625,0.125,-0.125
492160657283,-1.875,-0.25,-0.125
492160673677,-1.9375,-0.6875,0
492160696276,-2.3125,-1.0625,0.125
492160718564,-0.25,-0.5625,-0.1875
492160732967,-0.8125,0.0625,0.0625
492160756120,-0.5,-0.4375,0
492160778644,-0.3125,-0.6875,0.25
492160793672,-0.75,-0.6875,0.3125
492160816220,0,-0.5625,0.3125
492160838657,1.125,-0.1875,-0.0625
492160853007,1.0625,-0.1875,-0.0625
492160876161,0.5,-0.25,0.0625
492160906155,-0.0625,-0.375,0.125
492160912997,-0.4375,-0.1875,0.4375
492160936107,0.1875,-0.0625,0.4375
492160958705,1.125,0.25,0.375
492160973032,1,0.25,0.625
492160996256,2.375,0.0625,0.5625
492161018672,3.8125,-0.125,0.1875
492161032977,3,0.0625,0
492161056206,2.375,0.3125,-0.125
492161078653,2.5,0.4375,0.125
492161093007,2.9375,0.3125,0
492161116197,0.3125,0.3125,0.125
492161138437,-1,0.4375,-0.4375
492161153072,-0.375,0.75,0.0625
492161176099,1.875,0.4375,-0.0625
492161198576,1.9375,0.6875,-0.3125
492161219739,0.3125,1,-0.25
492161236176,0.25,0.6875,-0.0625
492161264679,-0.0625,0.4375,0
492161279738,0.6875,0.9375,-0.25
492161296186,0.625,0.4375,-0.125
492161318654,0.9375,-0.0625,0.125
492161339750,0.5,0.125,-0.375
492161356160,0.375,0.4375,-0.4375
492161378611,0.1875,0.5,-0.0625
492161399804,-0.4375,0.4375,-0.125
492161415912,0.8125,0.25,-0.25
492161438657,0.875,-0.0625,-0.1875
492161459768,0.4375,0.1875,-0.0625
492161476159,-0.875,0.25,0.0625
492161498701,-0.5,0.0625,0
492161519750,0.5,0.1875,-0.125
492161536184,0.5,0.125,0
492161558611,0.125,0.1875,-0.0625
492161579688,0.125,0.25,0.125
492161596191,0,0,-0.0625
492161618648,0.0625,0.1875,0.1875
492161641241,-0.3125,0,0.1875
492161656205,0.125,0.0625,0.125
492161678605,0.5625,0.25,-0.0625
492161701577,0.1875,0.375,-0.125
492161716139,0.625,0.3125,-0.25
492161746196,0.5,0.3125,0.0625
492161761141,-0.0625,0.25,0.0625
492161775555,0.625,0.3125,0.25
492161798653,0.875,0.0625,0.1875
492161828630,0.875,0.125,-0.0625
492161835537,0.875,-0.0625,0.0625
492161858724,0.625,-0.0625,0.25
492161881170,0.1875,-0.1875,0.1875
492161895513,0.6875,-0.0625,0.1875
492161918655,0.5,-0.0625,-0.125
492161941252,0.0625,0.125,-0.1875
492161955479,-0.25,0.5625,-0.25
492161979208,-0.0625,0.5625,0.125
492162001121,1.4375,0.375,0.375
492162015586,1.5625,-0.5,-0.0625
492162038698,1.5625,-0.25,-0.3125
492162061243,1.1875,0.125,-0.125
492162075502,0.8125,0,0.375
492162098719,-0.625,0.5,0
492162121158,-0.125,0.3125,0
492162142261,1.25,0.25,0.1875
492162158696,0.875,0.3125,0.25
492162188777,0.3125,0.3125,0.125
492162209765,0.125,0.3125,-0.125
492162218728,0.625,0.0625,-0.125
492162241221,1.4375,-0.25,-0.125
492162262264,1.8125,-0.25,0
492162278753,1.1875,-0.1875,0.1875
492162301626,-0.3125,0.1875,0.0625
492162322312,-1.1875,0.5,-0.125
492162338673,-0.25,0.5,-0.3125
492162361202,0.625,0,-0.3125
492162382264,0.1875,0,-0.0625
492162398655,-0.625,0.0625,-0.125
492162421238,-0.5,0,-0.125
492162442240,0.125,0,0
492162458648,0.1875,0.0625,-0.125
492162481211,-0.4375,0.125,-0.125
492162502264,-0.75,0.125,-0.125
492162518729,-0.875,0.25,-0.1875
492162541188,-0.5625,0.3125,-0.25
492162563643,-0.125,0.3125,-0.4375
492162578705,0.1875,0.1875,-0.375
492162601273,-0.25,0.375,-0.125
492162623683,-0.8125,0.375,-0.3125
492162638725,-0.125,0.4375,-0.1875
492162661255,0.3125,0.125,-0.1875
492162683676,0.5,-0.0625,-0.125
492162698679,0.8125,0.0625,-0.0625
492162721129,0.5,0.375,-0.1875
492162743604,-0.8125,0.5625,-0.3125
492162764707,-1.25,0.375,0
492162781154,-0.75,0.25,-0.125
492162809670,0.0625,0.25,-0.25
492162817975,0,0.25,-0.125
492162841138,-0.9375,0.375,-0.25
492162863650,-1.375,0.25,-0.25
492162878008,-0.5,0.125,-0.125
492162901166,0.125,0,-0.1875
492162923621,-0.0625,0.25,0
492162938044,-0.875,0.5,-0.1875
492162961159,-0.6875,0.3125,-0.375
492162983731,-0.5,0.3125,-0.25
492162998078,-1.375,0.625,0
492163021190,-0.875,0.8125,-0.5
492163043714,-1.8125,0.75,-0.125
492163064796,0.1875,0,0
492163081047,1.125,-0.3125,-0.1875
492163111235,1.0625,-0.125,-0.4375
492163124823,1,0.4375,-0.125
492163141237,0.8125,0.5,-0.1875
492163163711,0.5,0.375,-0.25
492163184770,-0.625,0.0625,-0.1875
492163201162,-1.25,0.125,-0.1875
492163223719,-2,0.125,0.0625
492163244825,-0.6875,0.3125,-0.0625
492163261219,-0.25,0.0625,0
492163283806,-0.5,-0.1875,-0.125
492163304713,-0.4375,0,-0.125
492163321182,-0.375,-0.0625,-0.0625
492163343827,-0.5,-0.0625,-0.0625
492163364814,-0.375,0,-0.1875
492163381214,-0.75,0.1875,-0.125
492163403627,0,0.1875,-0.1875
492163424737,-0.25,0,-0.25
492163441195,-0.625,0.3125,-0.1875
492163463631,-1,0.3125,-0.125
492163484711,-0.5625,0.0625,-0.125
492163501222,-0.0625,-0.0625,0.0625
492163523649,-0.125,-0.25,0
492163546187,-0.4375,-0.1875,0.0625
492163567292,0.25,-0.0625,0
492163583670,0.25,0.0625,-0.125
492163606149,-0.125,0.125,-0.1875
492163621173,-0.5,0,0
492163643678,-0.875,-0.0625,0.0625
492163666152,-0.5,0.25,0.0625
492163680515,-0.375,0.0625,-0.125
492163703664,-0.125,0.0625,-0.1875
492163726148,-0.125,0,-0.0625
492163740493,-0.3125,0.0625,0.125
492163764089,-1,0.1875,0
492163786208,-0.3125,0.0625,-0.125
492163800525,0.3125,0,-0.125
492163823680,0.0625,0,-0.1875
492163846150,0.375,0.0625,-0.1875
492163860520,0.375,0.125,-0.125
492163883680,-0.4375,0.3125,-0.125
492163906180,-0.125,0.3125,-0.125
492163920464,-0.4375,0.125,0.0625
492163943703,-0.125,0.1875,0
492163966167,0.5,0.0625,-0.25
492163980545,2,-0.25,-0.3125
492164003646,0.0625,-0.125,0.3125
492164026175,-0.875,0.25,-0.1875
492164047259,-0.4375,0.25,-0.5625
492164063661,0.25,-0.0625,-0.375
492164086214,0.375,-0.375,0
492164107281,-0.5625,-0.5625,0.25
492164123704,-0.75,-0.1875,0.1875
492164146143,0.1875,0,-0.1875
492164167284,1.4375,0.1875,-0.6875
492164183677,1.875,0.375,-0.75
492164206142,0.1875,0.8125,-0.4375
492164227219,0.375,0.75,-0.8125
492164243701,2.6875,0.3125,-0.6875
492164266142,3.25,-0.0625,-0.125
492164287230,3.0625,0.1875,-0.125
492164303643,3.875,0.5,-0.625
492164326166,0.125,0.625,-0.0625
492164347254,-3.4375,-0.375,0.3125
492164363684,-4.75,-1.6875,0.5625
492164386199,-3.8125,-2.0625,0.375
492164407263,-2.875,-2,0.8125
492164423701,-2.3125,-3.0625,1.0625
492164446158,-7.375,-5,0.375
492164476147,-9.5,-6.875,-0.375
492164483660,-8.6875,-7.375,-1.1875
492164506204,-11.9375,-6.5,-2.1875
492164528604,-13.9375,-5.8125,-1.8125
492164543640,-11.75,-5.3125,-0.75
492164566223,-8.375,-5.3125,0.5
492164588640,-6.4375,-4.625,0.5
492164602995,-6.6875,-3.25,0.25
492164626149,-5.6875,-1.25,0.25
492164648697,-5.1875,0.4375,-0.875
492164663023,-6.125,1.0625,-0.75
492164692214,-5.0625,1.0625,-0.75
492164708642,-2,0.1875,-0.4375
492164723062,3.1875,-1.3125,-0.4375
492164746208,4.875,-1.375,-0.25
492164768712,5.625,-0.6875,-0.6875
492164783026,7.125,-0.3125,-0.125
492164806243,7.4375,-0.0625,0.125
492164828700,5.5,1.1875,-0.25
492164843001,4.1875,2.5,-0.8125
492164866174,-0.1875,3.1875,-1.4375
492164888715,-0.9375,3.9375,-1
492164903044,2.875,3.0625,-0.1875
492164926186,1.125,1.25,-0.1875
492164948694,-2.1875,1.25,-0.4375
492164969786,-0.875,0.875,-0.6875
492164986242,0.0625,0.5,-0.5625
492165008643,-0.3125,0.5625,-0.375
492165029772,-0.625,0.9375,-0.0625
492165046216,0.5625,0.75,0.0625
492165068754,2.25,0.1875,0
492165089751,2.5,0.1875,-0.1875
492165106139,1.3125,0.375,-0.4375
492165128705,0.4375,0.6875,-0.5
492165149807,1.4375,1,-0.375
492165166253,2.0625,1.5,-0.3125
492165188832,1,2.125,-0.4375
492165209849,3,1.125,-0.3125
492165226249,2.25,-0.3125,-0.5625
492165248702,1.375,-1.3125,-0.8125
492165269850,1.125,-1.25,-1.25
492165286288,0.625,-0.6875,-1
492165308721,1.625,-0.375,-0.5
492165329751,2.125,-0.5,0.5
492165346243,2,-0.5625,0.375
492165368732,1.4375,-0.3125,-0.0625
492165389849,1.1875,0.375,-0.375
492165406270,1.25,0.75,-0.4375
492165428779,1.1875,1.1875,-0.125
492165451221,0.5,1.625,-0.1875
492165466285,0.9375,1.375,-0.375
492165471699,1.1875,0.6875,-0.1875
492165494173,0.875,0.1875,0.4375
492165516772,1.125,-0.3125,0.625
492165531652,3.8125,-0.9375,0.375
492165554237,3.5625,-1,0.875
492165576658,3,-0.75,1.375
492165591656,2.8125,-0.25,1.75
492165617063,2,-0.125,0.9375
492165636617,1.75,-0.5,0.4375
492165651682,1.125,-0.8125,0.1875
492165674203,1.3125,-0.75,0.0625
492165696614,2.4375,-0.5625,-0.1875
492165711672,3.8125,-0.75,-0.375
492165734100,3.625,-0.8125,-0.5
492165756706,1.75,-0.9375,-0.4375
492165771679,0.5,-1,0
492165794182,0.4375,-0.875,0.5
492165816684,0.875,-0.4375,0.5625
492165831645,1.625,-0.0625,0.6875
492165854230,2,0.5,0.5
492165876701,2.125,1,0.6875
492165891636,1.375,1.6875,1.0625
492165914224,1.1875,1.75,0.75
492165936669,1.8125,1.3125,0.25
492165951742,2.1875,0.5625,0.0625
492165974164,2.6875,0.125,0
492165996683,3.375,-0.0625,-0.0625
492166013079,3.75,-0.1875,-0.3125
492166034246,1.5,0.0625,-0.5
492166056722,-1.1875,0.125,-0.5
492166073124,-1.875,0.3125,-0.125
492166094192,-0.25,0.3125,-0.3125
492166116626,0.75,0.4375,-0.3125
492166133142,0.25,0.625,-0.25
492166154133,-0.625,0.875,0.1875
492166184875,-0.8125,0.8125,0.4375
492166193123,-0.125,0.625,0.3125
492166214231,0.125,0.5625,-0.0625
492166236687,-0.8125,0.25,-0.375
492166253198,-0.625,0.0625,-0.5
492166274236,0.375,-0.0625,-0.375
492166296672,1.125,0,-0.5625
492166313127,0.0625,0.25,-0.375
492166334170,-0.6875,0.375,-0.125
492166356666,-1.1875,0.625,-0.125
492166374553,-0.625,0.375,-0.6875
492166394113,-0.125,0.375,-0.6875
492166416667,-0.75,0.4375,-0.6875
492166434650,-1.125,0.4375,-0.3125
492166454162,-0.5625,0.25,-0.125
492166478148,0.25,-0.25,-0.25
492166494566,0.375,-0.1875,0
492166514216,-0.3125,0.1875,0.125
492166536649,-1,0.125,-0.0625
492166554546,0.0625,0.0625,-0.3125
492166574189,0.75,0.0625,-0.3125
492166596634,0.625,-0.125,-0.25
492166614612,-0.1875,-0.5625,-0.3125
492166634185,-0.375,-0.8125,-0.0625
492166656710,-0.125,-0.375,-0.125
492166674551,-0.25,-0.25,-0.1875
492166695625,-0.5,-0.3125,0.1875
492166716667,-0.625,-0.25,0.25
492166734580,-1.25,0.0625,0.125
492166754071,-0.4375,-0.0625,-0.125
492166776580,0.1875,-0.25,-0.1875
492166794553,0,-0.3125,-0.1875
492166814179,-0.5,-0.25,0.125
492166836596,-1.25,-0.3125,0.3125
492166854533,-0.8125,-0.25,0.125
492166874127,0.25,-0.1875,-0.0625
492166896660,0.625,0.25,-0.375
492166914575,0.125,0.5625,-0.1875
492166934203,-0.6875,0.5,0
492166956694,-0.25,0.25,-0.125
492166975058,0.375,0,0
492166995675,0.9375,-0.0625,0
492167019542,1.0625,-0.0625,0.125
492167034596,0.875,-0.0625,0.125
