myot,x,y,z
150344672388,0.5,0.5625,-19.25,1464788133
150344679868,-2.0625,3.375,-17.6875,1464788133
150344702403,-2.9375,5.5,-14.125,1464788133
150344724848,-5.5625,6.3125,-11.875,1464788133
150344739891,-6.9375,6.5625,-9.875,1464788133
150344762479,-6.5,6.1875,-9.1875,1464788133
150344792406,-4.5625,5.8125,-8.5625,1464788133
150344799855,-4.125,5.5625,-7.75,1464788133
150344822478,-1.6875,5.8125,-6.4375,1464788133
150344844935,-1.3125,6.0625,-4.5,1464788133
150344859870,-2.5625,5.75,-3.5625,1464788133
150344883594,0.75,5.25,-0.75,1464788133
150344904905,6.125,3.5625,0.3125,1464788133
150344919930,8.6875,2.125,-0.6875,1464788133
150344942495,5.1875,1.625,-1.6875,1464788133
150344964957,1.375,1.1875,-1.6875,1464788133
150344979971,0.25,0.5625,-2.125,1464788133
150345002399,2.125,0.125,-2,1464788133
150345024913,0.625,-0.25,-1.875,1464788133
150345039907,-1,-0.75,-2.1875,1464788133
150345062429,-0.3125,-1,-1.875,1464788133
150345077368,-1.0625,-1.625,-1.9375,1464788133
150345099929,-0.75,-1.6875,-1.3125,1464788133
150345122395,-1.125,-1.625,-1.125,1464788133
150345137466,-2.125,-1.6875,-0.6875,1464788133
150345159904,-2.5,-1.3125,-0.1875,1464788133
150345182376,-2.6875,-1,0.375,1464788133
150345197451,-1,-0.6875,1.375,1464788133
150345219959,-1.875,-0.625,1.75,1464788133
150345242433,-1.4375,-0.625,2.25,1464788133
150345257333,-1,-0.6875,2.5,1464788133
150345279897,-1,-0.6875,3,1464788133
150345302333,-0.875,-0.625,3,1464788134
150345317411,-0.625,-0.625,3.375,1464788134
150345339851,-0.1875,-0.8125,3.4375,1464788134
150345362414,0.0625,-0.8125,3.6875,1464788134
150345377450,-0.375,-0.8125,3.375,1464788134
150345399930,-0.6875,-0.8125,3.4375,1464788134
150345422370,0.0625,-0.5625,3,1464788134
150345437411,-1.375,-0.1875,3.75,1464788134
150345459959,-2.5625,0.6875,4.5,1464788134
150345482331,-1.0625,1.4375,5,1464788134
150345497381,-1.0625,1.8125,5.5625,1464788134
150345519869,-2,1.75,5.1875,1464788134
150345542354,-0.625,1.875,5.25,1464788134
150345557443,-0.4375,1.8125,5.875,1464788134
150345579997,-1.375,1.5,5.875,1464788134
150345602438,-0.5,1.125,5.9375,1464788134
150345617408,-0.75,0.9375,5.5,1464788134
150345639992,-0.6875,0.5625,6,1464788134
150345662401,0.0625,0,5.875,1464788134
150345677414,-0.4375,-1.125,5.75,1464788134
150345699958,1.5625,-1.4375,5.4375,1464788134
150345722468,1.75,-3.625,5,1464788134
150345737482,4.8125,-4.6875,2.5,1464788134
150345759970,3.5,-6.1875,1.9375,1464788134
150345782369,2.6875,-7.375,0.3125,1464788134
150345797495,4.375,-8,0.375,1464788134
150345819965,4.4375,-8.4375,-0.125,1464788134
150345842463,4.3125,-7.8125,0.25,1464788134
150345857372,4.0625,-7,0.875,1464788134
150345879857,3.4375,-5.5,1.5625,1464788134
150345902439,3.5,-4.1875,1.9375,1464788134
150345917434,3.3125,-2.8125,2.3125,1464788134
150345939904,2.625,-1.875,3.375,1464788134
150345962418,1.875,-1.375,3.3125,1464788134
150345977433,2.875,-1.1875,3.125,1464788134
150345999931,2.4375,-0.9375,3.3125,1464788134
150346022416,1.625,-0.8125,3.0625,1464788134
150346037435,2.5,-0.5,3.0625,1464788134
150346059836,1.625,-0.375,3.125,1464788134
150346082422,1.25,-0.1875,2.75,1464788134
150346097483,1.8125,0.25,2.9375,1464788134
150346119968,0.5,0.5625,2.9375,1464788134
150346142443,0.5,1.0625,2.9375,1464788134
150346157511,0.625,1.875,3.0625,1464788134
150346179896,-1.125,2.9375,3.6875,1464788134
150346202453,-1.6875,3.5625,4,1464788134
150346217449,-0.9375,4.125,4.375,1464788134
150346239936,-1.5,4.4375,4.0625,1464788134
150346262473,-1,4.4375,4.1875,1464788134
150346277489,-0.9375,5.125,4.8125,1464788134
150346299894,-2.5,5.125,4.5625,1464788135
150346322451,-1.375,4.875,4.25,1464788135
150346337439,-1.3125,4.5625,3.8125,1464788135
150346359935,-0.75,3.875,3.3125,1464788135
150346382362,-0.5,3.4375,3.125,1464788135
150346397464,-1,2.5,2.375,1464788135
150346419939,0.0625,1.9375,1.9375,1464788135
150346442383,0.25,1.3125,1.75,1464788135
150346457407,-0.125,0.625,1.4375,1464788135
150346479921,-0.3125,0,0.625,1464788135
150346502451,1,-0.25,0.6875,1464788135
150346517432,0.1875,-0.375,0.5,1464788135
150346540046,0.125,-0.1875,0.4375,1464788135
150346562424,0.25,-0.0625,0.5625,1464788135
150346577376,0.3125,0,0.625,1464788135
150346599925,0.125,0,0.625,1464788135
150346622468,0,-0.125,0.4375,1464788135
150346637477,0.3125,-0.375,0.3125,1464788135
150346660007,0.4375,-0.3125,0.125,1464788135
150346682493,0.0625,-0.4375,0.125,1464788135
150346697470,0.1875,-0.4375,-0.125,1464788135
150346719982,0.4375,-0.5625,0,1464788135
150346742451,0.375,-0.625,-0.125,1464788135
150346757417,0.5,-0.5625,-0.0625,1464788135
150346780012,0.1875,-0.4375,0.125,1464788135
150346802373,0.375,-0.3125,0.0625,1464788135
150346817418,0.3125,-0.1875,0,1464788135
150346839971,0.125,-0.25,0,1464788135
150346862460,0.25,-0.25,0.0625,1464788135
150346877468,0.1875,-0.3125,0,1464788135
150346900019,0.0625,-0.3125,-0.0625,1464788135
150346922500,0.1875,-0.1875,-0.1875,1464788135
150346937403,0.375,-0.25,0.125,1464788135
150346959983,0.0625,-0.3125,0.125,1464788135
150346982455,0.375,-0.25,-0.0625,1464788135
150346997463,0.375,-0.5,-0.3125,1464788135
150347019983,0.5,-0.6875,-0.1875,1464788135
150347042510,0.5,-0.625,-0.375,1464788135
150347057405,0.5,-0.625,-0.25,1464788135
150347080035,0.125,-0.75,-0.4375,1464788135
150347102482,0.625,-0.8125,-0.5,1464788135
150347124975,0.5625,-0.625,-0.375,1464788135
150347139980,0.25,-0.75,-0.375,1464788135
150347162451,0.625,-0.6875,-0.5,1464788135
150347177461,0.75,-0.9375,-0.5625,1464788135
150347207502,0.875,-0.5625,-0.5,1464788135
150347222498,0.6875,-0.5,0,1464788135
150347237487,0.5,-0.125,0.125,1464788135
150347259884,0.25,0.375,0.5,1464788135
150347282522,-0.3125,0.625,0.75,1464788135
150347297519,0.375,0.625,0.75,1464788136
150347319992,0.8125,0.5625,0.75,1464788136
150347342411,-0.625,0.25,0.625,1464788136
150347357440,0.375,0.1875,0.4375,1464788136
150347380485,0.125,0.1875,0.5,1464788136
150347402477,-0.125,0.1875,0.625,1464788136
150347424903,-0.5625,0.25,0.6875,1464788136
150347439981,-0.25,0.0625,0.5625,1464788136
150347462475,-0.3125,-0.1875,0.5625,1464788136
150347477456,-0.0625,-0.3125,0.5,1464788136
150347499977,0.0625,-0.5,0.5,1464788136
150347522586,0,-0.625,0.25,1464788136
150347537480,-0.3125,-1,0.0625,1464788136
150347559979,-0.1875,-1.125,-0.0625,1464788136
150347582451,0.0625,-1.4375,-0.0625,1464788136
150347597439,-0.25,-1.875,0,1464788136
150347619957,0.375,-2.25,-0.8125,1464788136
150347642430,1,-2,-0.625,1464788136
150347657495,-0.1875,-2.3125,-0.5,1464788136
150347679921,0.5,-2.4375,-0.875,1464788136
150347702482,1.6875,-2.6875,-0.875,1464788136
150347717505,0.75,-2.625,-1.1875,1464788136
150347740007,1.0625,-2.25,-1,1464788136
150347762551,0.9375,-2.3125,-1.125,1464788136
150347777463,1.125,-2.5625,-1.125,1464788136
150347800471,0.9375,-2.625,-1.5,1464788136
150347822485,1.5625,-2.75,-1.0625,1464788136
150347837387,1.0625,-2.5,-1.3125,1464788136
150347859951,1.0625,-2.6875,-1.625,1464788136
150347882422,1.1875,-2.25,-1.375,1464788136
150347897460,0.9375,-1.875,-0.875,1464788136
150347920019,0.3125,-1.75,-0.875,1464788136
150347942460,0.9375,-1.6875,-1.0625,1464788136
150347957467,1.375,-1.625,-1.0625,1464788136
150347980044,0.8125,-1.5,-0.9375,1464788136
150348002492,1.125,-1.1875,-0.5625,1464788136
150348024942,0.5,-1.1875,-0.9375,1464788136
150348040000,0.5,-1.5625,-0.875,1464788136
150348062493,1.125,-1.625,-0.9375,1464788136
150348077368,0.875,-1.5625,-0.9375,1464788136
150348100007,1.625,-1.5,-0.5625,1464788136
150348122481,1.5625,-1.4375,-0.5625,1464788136
150348137458,3.875,-1.25,0,1464788136
150348159947,5.625,-1.3125,-0.625,1464788136
150348182486,4.1875,-1.625,-0.375,1464788136
150348197513,5.1875,-1.875,-1.375,1464788136
150348220056,2.875,-1.9375,-1.25,1464788136
150348242397,1.1875,-2.1875,-1.5,1464788136
150348272395,2.125,-1.9375,-1.4375,1464788136
150348279930,0.625,-1.6875,-1.3125,1464788136
150348302978,0.8125,-0.875,-0.75,1464788137
150348332454,-0.0625,0,-0.375,1464788137
150348339953,-0.5,0.625,0.125,1464788137
150348378229,-0.9375,1.1875,0.25,1464788137
150348379025,-1.4375,1.5625,0.4375,1464788137
150348399929,-2.0625,1.625,0.3125,1464788137
150348422502,-2.25,1.8125,0.375,1464788137
150348437430,-2.375,2.125,0.6875,1464788137
150348459948,-2.875,2.125,0.6875,1464788137
150348482469,-2.8125,2.375,0.9375,1464788137
150348497413,-2.625,2.625,1.0625,1464788137
150348519975,-2.5625,2.5,1.5625,1464788137
150348542542,-2.3125,2.375,1.3125,1464788137
150348557516,-1.5,2,1.3125,1464788137
150348579921,-1.4375,1.8125,1.1875,1464788137
150348602451,-1.5,1.75,1.125,1464788137
150348617502,-1.125,1.9375,1,1464788137
150348639985,-1.5,1.75,1.125,1464788137
150348662418,-0.9375,1.6875,1,1464788137
150348677547,-0.75,1.4375,0.875,1464788137
150348699965,-0.375,1.25,0.875,1464788137
150348730069,0.0625,1.1875,0.8125,1464788137
150348737520,0.3125,1,0.875,1464788137
150348759969,0.25,0.6875,0.8125,1464788137
150348782426,0.5,0.5,0.5625,1464788137
150348797417,0.8125,0.5625,0.6875,1464788137
150348820853,0.5,0.4375,0.75,1464788137
150348849966,0.875,0.5,0.6875,1464788137
150348857458,0.5,0.4375,0.75,1464788137
150348880086,0.625,0.4375,0.75,1464788137
150348902485,0.6875,0.4375,0.75,1464788137
150348917492,0.5,0.375,0.6875,1464788137
150348939965,0.5625,0.3125,0.625,1464788137
150348962427,0.25,0.3125,0.6875,1464788137
150348977533,0.375,0.5,0.75,1464788137
150349000043,0.25,0.5,0.8125,1464788137
150349022540,0.0625,0.5,0.75,1464788137
150349037480,-0.1875,0.5625,0.75,1464788137
150349060076,0.125,0.5,0.625,1464788137
150349082506,0,0.375,0.8125,1464788137
150349097516,-0.0625,0.25,0.5,1464788137
150349127466,0.1875,0.25,0.6875,1464788137
150349142508,-0.0625,0.0625,0.4375,1464788137
150349157444,0.1875,0.25,0.5,1464788137
150349179985,0.1875,0.125,0.5625,1464788137
150349202545,-0.1875,0,0.5,1464788137
150349217570,0.125,0.25,0.3125,1464788137
150349240061,-0.125,0.1875,0.625,1464788137
150349262531,0.0625,0.125,0.5,1464788137
150349277510,0.0625,0.1875,0.5,1464788137
150349299988,-0.5,0.125,0.3125,1464788138
150349322456,-0.1875,0.125,0.25,1464788138
150349337513,-0.3125,0.125,0.25,1464788138
150349360095,-0.1875,0.125,0.1875,1464788138
150349382520,0,-0.0625,0.25,1464788138
150349397509,-0.125,0.0625,0.1875,1464788138
150349420042,-0.1875,0.0625,0.0625,1464788138
150349442525,-0.125,0.25,0.1875,1464788138
150349457515,-0.25,0.1875,0.3125,1464788138
150349479980,-0.1875,0.3125,0.375,1464788138
150349502440,-0.3125,0.3125,0.375,1464788138
150349517484,-0.0625,0.25,0.4375,1464788138
150349540034,-0.0625,0.25,0.375,1464788138
150349562489,0.25,0,0.4375,1464788138
150349577484,-0.0625,0,0.25,1464788138
150349600033,0.25,0.0625,0.1875,1464788138
150349622533,0.5,0,0.375,1464788138
150349637567,0.125,0.125,0.5,1464788138
150349659967,0.5,0.0625,0.5625,1464788138
150349682986,0.3125,0.125,0.5625,1464788138
150349697574,0.3125,0.0625,0.5,1464788138
150349720010,0.625,-0.0625,0.375,1464788138
150349742546,0.375,-0.0625,0.3125,1464788138
150349757548,0.5625,0,0.25,1464788138
150349780055,0.3125,0.0625,0.3125,1464788138
150349802567,0.5,0,0.3125,1464788138
150349817530,0.5,-0.0625,0.3125,1464788138
150349840479,0,0,0.3125,1464788138
150349862531,0.5,-0.125,0.25,1464788138
150349877519,0.375,0.125,0.375,1464788138
150349899927,0.1875,0.0625,0.4375,1464788138
150349922532,0.375,0.125,0.4375,1464788138
150349937500,0.125,0.125,0.375,1464788138
150349960055,-0.1875,0.375,0.625,1464788138
150349982562,-0.0625,0.5625,0.6875,1464788138
150349997527,-0.1875,0.625,0.8125,1464788138
150350020406,-0.4375,0.875,0.8125,1464788138
150350042513,-0.375,1.1875,1.25,1464788138
150350057585,-0.4375,1.375,1.5,1464788138
150350080105,-1,1.5,1.8125,1464788138
150350102551,-0.9375,1.1875,1.25,1464788138
150350117421,-0.3125,0.5,1.0625,1464788138
150350140035,0,-0.0625,0.8125,1464788138
150350162427,0,-0.375,0.5,1464788138
150350177446,0.25,-0.5,0.5625,1464788138
150350200029,0.25,-0.5,0.3125,1464788138
150350222526,0.3125,-0.5,0.375,1464788138
150350237524,0.5,-0.625,0.4375,1464788138
150350260025,0.4375,-0.6875,0.3125,1464788138
150350282507,0.6875,-0.5625,0.3125,1464788138
150350297458,0.375,-0.5,0.125,1464788139
150350320112,0.3125,-0.4375,0.25,1464788139
150350342503,0.625,-0.25,0.375,1464788139
150350357456,0.25,-0.125,0.5,1464788139
150350380104,0.3125,-0.1875,0.375,1464788139
150350402560,0.5,-0.1875,0.4375,1464788139
150350417551,0.4375,-0.3125,0.4375,1464788139
150350440095,0.25,-0.3125,0.375,1464788139
150350462561,0.5625,-0.1875,0.4375,1464788139
150350477546,0.4375,-0.3125,0.4375,1464788139
150350500034,0.6875,-0.375,0.5,1464788139
150350522508,0.625,-0.4375,0.25,1464788139
150350537499,0.875,-0.3125,0.4375,1464788139
150350560011,0.8125,-0.25,0.5,1464788139
150350582587,0.5,-0.1875,0.5,1464788139
150350597535,0.5,0,0.5625,1464788139
150350620059,0.4375,-0.125,0.5625,1464788139
150350642533,0.4375,-0.0625,0.5,1464788139
150350657442,0.3125,-0.1875,0.625,1464788139
150350680055,0.3125,-0.1875,0.4375,1464788139
150350702569,0.125,-0.1875,0.5,1464788139
150350725036,0.1875,-0.125,0.4375,1464788139
150350740001,0.1875,0.0625,0.5625,1464788139
150350762563,0.125,0.0625,0.4375,1464788139
150350785582,-0.0625,0.125,0.5,1464788139
150350800118,0,0.25,0.5625,1464788139
150350822529,0,0.25,0.625,1464788139
150350845010,-0.25,0.3125,0.8125,1464788139
150350860077,-0.1875,0.4375,0.9375,1464788139
150350882578,-0.125,0.4375,0.8125,1464788139
150350905062,-0.1875,0.3125,0.6875,1464788139
150350920052,-0.5,0,0.8125,1464788139
150350949990,-0.25,-0.4375,0.5625,1464788139
150350964952,0.3125,-0.5625,0.3125,1464788139
150350980043,0.5625,-0.75,0.125,1464788139
150351002483,0.4375,-0.5625,0.25,1464788139
150351025051,0,-0.5,0.25,1464788139
150351040003,0.1875,-0.5625,0.1875,1464788139
150351070026,0.8125,-0.625,0.125,1464788139
150351085077,0.3125,-0.6875,0,1464788139
150351100513,0.5,-0.75,-0.125,1464788139
150351122546,0.375,-0.6875,-0.125,1464788139
150351144994,0.25,-0.5625,-0.25,1464788139
150351159977,0.4375,-0.4375,0,1464788139
150351182529,0.25,-0.4375,-0.125,1464788139
150351204993,0.3125,-0.375,-0.1875,1464788139
150351220023,0.4375,-0.375,-0.0625,1464788139
150351242511,0.3125,-0.25,0,1464788139
150351265028,0.1875,-0.1875,0.25,1464788139
150351280093,0.25,-0.1875,0.25,1464788139
150351302583,0.4375,-0.3125,0.25,1464788140
150351325090,0.25,-0.5,0.1875,1464788140
150351340030,0.3125,-0.5625,0.1875,1464788140
150351362574,0.375,-0.75,-0.0625,1464788140
150351385057,0.375,-0.8125,-0.125,1464788140
150351400059,0.5625,-0.6875,0.0625,1464788140
150351422552,0.5,-0.6875,0.125,1464788140
150351445045,0.5625,-0.4375,0.0625,1464788140
150351460085,0.25,-0.25,0.375,1464788140
150351482550,0.1875,-0.0625,0.4375,1464788140
150351504995,-0.1875,-0.0625,0.5625,1464788140
150351520026,-0.0625,-0.0625,0.5625,1464788140
150351542500,0.3125,-0.25,0.625,1464788140
150351565058,0.3125,-0.25,0.4375,1464788140
150351580009,0.4375,-0.25,0.5625,1464788140
150351602479,0.4375,-0.3125,0.625,1464788140
150351625456,0.5,-0.3125,0.75,1464788140
150351647496,0.5,-0.3125,0.8125,1464788140
150351662502,0.5,-0.1875,0.8125,1464788140
150351685025,0.375,-0.1875,0.9375,1464788140
150351707495,0.3125,-0.125,0.875,1464788140
150351722501,0.125,-0.125,1,1464788140
150351745007,0.0625,-0.0625,1.0625,1464788140
150351767514,0.125,-0.1875,0.875,1464788140
150351782952,0.375,-0.25,0.6875,1464788140
150351805025,0.3125,-0.3125,0.6875,1464788140
150351827484,0.5,-0.1875,0.8125,1464788140
150351842512,0.375,-0.0625,0.8125,1464788140
150351865016,0.0625,0,0.625,1464788140
150351887524,0.3125,0,0.75,1464788140
150351902471,0.3125,-0.1875,0.8125,1464788140
150351925048,0.4375,-0.125,0.75,1464788140
150351947510,0.4375,-0.1875,0.75,1464788140
150351962486,0.0625,-0.0625,0.5,1464788140
150351985046,0.3125,-0.125,0.5625,1464788140
150352007532,0.125,-0.0625,0.5625,1464788140
150352022533,0.1875,-0.125,0.5625,1464788140
150352045038,0.1875,-0.0625,0.5,1464788140
150352067514,0.25,-0.125,0.5,1464788140
150352082518,0.3125,-0.0625,0.5625,1464788140
150352105041,0,0.0625,0.5,1464788140
150352127537,0.25,0.125,0.5625,1464788140
150352142515,0.25,0.0625,0.375,1464788140
150352165080,0.25,0.125,0.3125,1464788140
150352187532,0.0625,0.3125,0.5,1464788140
150352202510,0.0625,0.1875,0.4375,1464788140
150352217481,0.4375,0.125,0.5625,1464788140
150352240079,0.125,0.125,0.4375,1464788140
150352262549,-0.1875,0.0625,0.5,1464788140
150352277523,0.125,-0.125,0.4375,1464788140
150352299978,0.4375,-0.1875,0.3125,1464788141
150352322550,-0.125,-0.125,0.0625,1464788141
150352337491,0.375,-0.0625,0.375,1464788141
150352360015,0.25,0,0.375,1464788141
150352382584,0.4375,0.0625,0.5,1464788141
150352397487,0.375,-0.0625,0.25,1464788141
150352419989,0.125,-0.125,0,1464788141
150352442512,0.4375,-0.25,0.125,1464788141
150352457555,0.5,-0.25,0,1464788141
150352480043,0.375,-0.25,-0.125,1464788141
150352502518,0.3125,-0.3125,-0.1875,1464788141
150352517531,0.375,-0.3125,-0.1875,1464788141
150352540024,0.25,-0.125,-0.1875,1464788141
150352562548,0.1875,-0.125,0.0625,1464788141
150352577541,0.3125,0.0625,0.1875,1464788141
150352600021,0.1875,0.1875,0.125,1464788141
150352622578,0.25,0.0625,0.125,1464788141
150352637539,-0.0625,0.0625,0,1464788141
150352660011,0.125,0.0625,0.0625,1464788141
150352682573,0.1875,-0.125,0,1464788141
150352697498,0.0625,-0.25,-0.1875,1464788141
150352720052,0.125,-0.375,-0.25,1464788141
150352742581,0.0625,-0.5,-0.1875,1464788141
150352757568,0.375,-0.4375,-0.25,1464788141
150352780038,0.3125,-0.4375,-0.375,1464788141
150352802658,0.3125,-0.3125,0.0625,1464788141
150352817636,0.0625,-0.1875,-0.0625,1464788141
150352840104,0.3125,-0.1875,-0.0625,1464788141
150352862659,0,-0.25,-0.0625,1464788141
150352877564,0.3125,-0.375,-0.125,1464788141
150352900077,0.4375,-0.4375,-0.125,1464788141
150352922556,0.125,-0.5,-0.1875,1464788141
150352937598,0.5,-0.375,0,1464788141
150352960105,0.4375,-0.3125,0.125,1464788141
150352982582,0.125,-0.1875,0,1464788141
150352997641,0.1875,-0.0625,0.1875,1464788141
150353020165,0.1875,-0.25,0.25,1464788141
150353042539,0.25,-0.125,0.125,1464788141
150353057532,0.3125,-0.1875,0.25,1464788141
150353080063,-0.125,-0.3125,0.125,1464788141
150353102514,0.25,-0.375,0,1464788141
150353117524,0.375,-0.625,-0.1875,1464788141
150353140083,0.3125,-0.6875,-0.125,1464788141
150353170087,-0.0625,-0.875,-0.1875,1464788141
150353177526,0.5625,-0.9375,-0.25,1464788141
150353200096,0.5,-1,-0.25,1464788141
150353222541,0.125,-1,-0.0625,1464788141
150353237527,0.5,-1.25,-0.3125,1464788141
150353260182,0.4375,-1.25,-0.375,1464788141
150353290090,0.3125,-1.25,-0.3125,1464788141
150353297656,0.75,-1.4375,-0.375,1464788142
150353320089,0.6875,-1.3125,-0.3125,1464788142
150353342613,0.25,-1.1875,-0.25,1464788142
150353357553,0.875,-1.125,-0.375,1464788142
150353380084,0.5,-1.1875,-0.4375,1464788142
150353402557,0.6875,-1,-0.5625,1464788142
150353417553,0.4375,-0.875,-0.1875,1464788142
150353440091,0.75,-0.75,-0.25,1464788142
150353462592,0.5625,-0.75,-0.125,1464788142
150353477627,0.375,-0.5625,-0.0625,1464788142
150353500040,0.5,-0.4375,0,1464788142
150353522623,0.3125,-0.375,-0.0625,1464788142
150353537606,0.5,-0.3125,0,1464788142
150353567582,0.375,-0.1875,0,1464788142
150353582568,0.25,-0.0625,0.0625,1464788142
150353597563,0.3125,0,0.1875,1464788142
150353620107,0.375,0,0.125,1464788142
150353642644,0.1875,0.125,0.125,1464788142
150353657565,0.1875,0.25,0.3125,1464788142
150353680117,0.125,0.3125,0.4375,1464788142
150353702530,0.0625,0.3125,0.375,1464788142
150353717728,0.25,0.4375,0.3125,1464788142
150353740075,-0.0625,0.25,0.375,1464788142
150353762652,0.125,0.125,0.3125,1464788142
150353777604,-0.0625,0.1875,0.3125,1464788142
150353800064,-0.125,0.0625,0.4375,1464788142
150353822559,0.0625,-0.125,0.25,1464788142
150353837665,0.1875,-0.1875,0.1875,1464788142
150353860115,0.3125,-0.25,0.125,1464788142
150353882626,0,-0.1875,0.125,1464788142
150353897552,0.375,-0.1875,0.25,1464788142
150353920076,0.25,-0.1875,0.3125,1464788142
150353942617,0.4375,-0.1875,0.375,1464788142
150353965125,0.0625,-0.0625,0.4375,1464788142
150353980188,0,0,0.5,1464788142
150354003112,0.125,0.0625,0.375,1464788142
150354017622,0.0625,-0.25,0.25,1464788142
150354040154,0.0625,-0.375,0.125,1464788142
150354062629,0.0625,-0.4375,0.0625,1464788142
150354077610,0.1875,-0.625,0.0625,1464788142
150354100098,0.0625,-0.4375,0.0625,1464788142
150354123096,0.3125,-0.4375,0.0625,1464788142
150354137621,0.125,-0.4375,0.125,1464788142
150354160152,0.375,-0.3125,0.1875,1464788142
150354182635,0.3125,-0.375,0.0625,1464788142
150354197674,0.5,-0.4375,-0.0625,1464788142
150354220083,0.5,-0.375,0.0625,1464788142
150354242572,0.25,-0.5,0,1464788142
150354257685,0.5625,-0.375,0.125,1464788142
150354280043,0.3125,-0.375,0.1875,1464788142
150354302597,0.375,-0.4375,0.1875,1464788143
150354318071,0.25,-0.25,0.25,1464788143
150354340048,0.1875,-0.125,0.1875,1464788143
150354362624,0.5,-0.125,0.25,1464788143
150354377666,0.25,-0.3125,0.25,1464788143
150354400123,0.5,-0.4375,0.25,1464788143
150354422631,0.5,-0.5,0.125,1464788143
150354437626,0.1875,-0.5,0,1464788143
150354467573,0.4375,-0.5,0,1464788143
150354482530,0.25,-0.4375,0,1464788143
150354497688,0.375,-0.5625,0,1464788143
150354520104,0.25,-0.5625,0,1464788143
150354542585,0.3125,-0.5625,0,1464788143
150354557544,0.375,-0.5,0.125,1464788143
150354580183,0.3125,-0.6875,0.1875,1464788143
150354602600,0.0625,-0.75,0.1875,1464788143
150354617650,0.3125,-0.5625,0.0625,1464788143
150354640060,0.125,-0.625,0.125,1464788143
150354662597,0.5,-0.625,0.1875,1464788143
150354677603,0.4375,-0.5625,0.1875,1464788143
150354700123,0.3125,-0.5625,0.125,1464788143
150354722560,0.25,-0.625,0.3125,1464788143
150354737639,-0.1875,-0.6875,0.1875,1464788143
150354760223,0.25,-0.8125,0.0625,1464788143
150354782572,0.4375,-0.9375,0,1464788143
150354797562,0.25,-0.9375,0.0625,1464788143
150354820153,0.375,-0.875,0.125,1464788143
150354842632,0,-0.8125,0.1875,1464788143
150354857665,0.1875,-0.6875,0.0625,1464788143
150354880080,0.5,-0.75,0,1464788143
150354902636,0.3125,-0.625,0.1875,1464788143
150354917543,0.5,-0.5,0.25,1464788143
150354940090,0.3125,-0.375,0.1875,1464788143
150354962591,0.25,-0.125,0.375,1464788143
150354977674,0.3125,-0.125,0.5,1464788143
150355000218,0.1875,-0.0625,0.4375,1464788143
150355022610,0.3125,-0.125,0.625,1464788143
150355037641,0.3125,-0.125,0.4375,1464788143
150355060186,0.3125,-0.125,0.5,1464788143
150355082642,0.4375,-0.1875,0.5625,1464788143
150355097638,0.5,-0.125,0.4375,1464788143
150355120163,0.5,-0.1875,0.5625,1464788143
150355142674,0.375,-0.1875,0.5625,1464788143
150355157692,0.4375,0,0.6875,1464788143
150355180056,0.1875,-0.0625,0.625,1464788143
150355202669,0.4375,-0.1875,0.5,1464788143
150355217557,0.25,-0.25,0.5,1464788143
150355240107,0.5,-0.25,0.4375,1464788143
150355262575,0.3125,-0.3125,0.375,1464788143
150355277607,0.375,-0.5,0.25,1464788143
150355300097,0.25,-0.5,0.1875,1464788144
150355322656,0.25,-0.4375,0,1464788144
150355337710,0.4375,-0.3125,0.125,1464788144
150355360125,0.3125,-0.1875,-0.0625,1464788144
150355390056,0.4375,-0.3125,-0.1875,1464788144
150355397575,0.4375,-0.3125,-0.0625,1464788144
150355420055,0.375,-0.3125,-0.125,1464788144
150355442704,0.3125,-0.25,-0.125,1464788144
150355457662,0.375,-0.1875,-0.25,1464788144
150355480124,-0.0625,0.0625,-0.0625,1464788144
150355510185,-0.0625,0,-0.0625,1464788144
150355517624,0.4375,0,-0.0625,1464788144
150355540109,-0.0625,0.125,-0.0625,1464788144
150355562620,0.125,0.125,-0.0625,1464788144
150355577696,0.1875,0,-0.0625,1464788144
150355600164,0.125,0.0625,-0.0625,1464788144
150355622661,0.0625,0.125,0.0625,1464788144
150355637698,0.125,0.25,0,1464788144
150355660097,0.125,0.4375,0.1875,1464788144
150355682648,-0.125,0.5,0.1875,1464788144
150355697733,0.0625,0.4375,0.125,1464788144
150355720164,-0.1875,0.375,-0.0625,1464788144
150355742706,0,0.1875,0.0625,1464788144
150355757705,0.0625,0,0.0625,1464788144
150355780182,0.4375,-0.125,0,1464788144
150355802632,0.375,-0.1875,-0.0625,1464788144
150355817738,0.3125,0.0625,-0.0625,1464788144
150355840178,0.25,-0.125,-0.0625,1464788144
150355862575,0.375,-0.125,-0.1875,1464788144
150355877688,0.1875,-0.0625,0,1464788144
150355900185,0.1875,-0.25,-0.125,1464788144
150355922648,0.4375,-0.3125,-0.125,1464788144
150355937639,0.375,-0.3125,0,1464788144
150355960078,0.1875,-0.375,0,1464788144
150355982629,0.25,-0.625,0,1464788144
150355997651,0.375,-0.6875,-0.125,1464788144
150356020198,0.6875,-1,-0.0625,1464788144
150356042665,0.5625,-1.0625,-0.25,1464788144
150356057672,0.625,-0.875,-0.25,1464788144
150356080101,0.5,-0.75,0.0625,1464788144
150356102578,0.4375,-0.625,0.1875,1464788144
150356117633,0.4375,-0.5625,0.125,1464788144
150356140155,0.5,-0.8125,0.1875,1464788144
150356162620,0.5,-0.8125,0.1875,1464788144
150356177622,0.625,-0.75,0.0625,1464788144
150356200180,0.5,-0.6875,0.25,1464788144
150356222651,0.0625,-0.8125,0.25,1464788144
150356237662,0.625,-0.5625,0.375,1464788144
150356260157,0.25,-0.3125,0.8125,1464788144
150356282624,0,0.25,1.1875,1464788144
150356297606,-0.4375,0.9375,1.625,1464788145
150356320137,-0.5625,1.5,2.75,1464788145
