myot,x,y,z
84595004635,-0.625,-0.25,-0.4375
84595025973,-0.625,0.1875,0.0625
84595040968,-0.6875,0.5625,0.375
84595065852,0.1875,0.5,0.125
84595085948,1.0625,0.1875,-0.25
84595100995,0.9375,-0.25,-0.3125
84595140317,-0.1875,-0.375,-0.125
84595155166,-1,-0.0625,-0.1875
84595162427,-0.375,0.25,-0.3125
84595184619,0.25,0.375,-0.25
84595206677,0.625,0.3125,0.0625
84595222535,0.1875,0.25,0.25
84595258970,0.0625,0,0.375
84595267768,1.375,0.1875,0.125
84595282278,1.875,0.1875,-0.125
84595303265,1.5625,0.375,0.0625
84595326425,1.5625,0.0625,0.625
84595342235,0.8125,-0.5,0.8125
84595363298,-0.25,-0.5,0.5
84595387959,-1.1875,0.0625,0
84595402224,-1.875,0.625,-0.625
84595431450,-1.25,0.5625,-1.0625
84595446470,-0.3125,0.25,-0.5625
84595462265,0,-0.0625,0
84595483310,-0.0625,0,0
84595506456,0,0.0625,-0.125
84595522225,0.4375,-0.1875,0
84595543307,1.125,-0.9375,0.3125
84595565710,1.1875,-1,0.125
84595582229,0.4375,-0.875,-0.125
84595603243,-0.25,-0.1875,-0.25
84595625770,-0.75,0.3125,-0.25
84595642223,-0.4375,0.3125,-0.375
84595663277,0.25,0.125,-0.3125
84595685741,-0.0625,-0.125,-0.25
84595702235,-0.125,0.125,0.25
84595723278,-0.375,0.4375,0.3125
84595745751,-0.1875,0.4375,0.375
84595762229,-0.375,0.4375,-0.0625
84595783259,-1.0625,0.375,-0.0625
84595805769,-1.5,0.25,-0.125
84595822219,-0.5,0,-0.125
84595843289,0.125,-0.375,-0.25
84595865835,-0.0625,-0.375,0
84595882231,-0.75,-0.375,0.375
84595904749,-0.5625,-0.75,0.8125
84595925820,-1.125,-0.125,0.6875
84595942217,-0.5625,-0.125,1.3125
84595964739,-0.125,0.875,2.125
84595985796,1.25,1.5,3.3125
84596002218,1,3.5,3.875
84596024751,0.25,5.875,2.875
84596045785,0.9375,6.9375,1.375
84596062253,1.5625,7.0625,-0.1875
84596084701,0.1875,6.375,-0.6875
84596105799,-5.3125,3.8125,-1
84596122258,-14.125,1.75,-1.125
84596144728,-13.0625,0.5625,0
84596165773,-11.25,-0.1875,-3.1875
84596182203,-9.1875,0.0625,-6.3125
84596205379,-9.375,1.5,-7.25
84596225787,-10.4375,4.375,-6.9375
84596242240,-11.125,5.9375,-8.3125
84596264660,-9.625,6.8125,-9
84596285782,-8,7.125,-9.0625
84596302216,-4.0625,5.125,-11.375
84596324760,-9.4375,8.125,-14.8125
84596345800,-13.0625,9.125,-15.125
84596362289,-8.0625,9.375,-15.9375
84596384755,-1.4375,9,-15.625
84596405798,-0.25,9.8125,-15.375
84596422262,-4.0625,8.5625,-13.875
84596444745,-3.6875,9.9375,-12.5625
84596465775,-1.6875,9.4375,-11.5
84596482220,-1.3125,6.25,-11.875
84596504725,-8.75,6.625,-9.875
84596525801,-9.5625,13.4375,-14.375
84596543654,-2.0625,13.5625,-16.8125
84596564705,1.6875,12.4375,-17
84596585851,0.75,14.1875,-14.875
84596602220,3.4375,12,-12.75
84596624756,3.25,10.3125,-12
84596645798,3.3125,9.3125,-10.6875
84596668368,2.875,8.625,-11.125
84596684786,3.5,7.25,-12.1875
84596705764,1.3125,7.4375,-12.3125
84596722238,1.875,7.5625,-12.25
84596744704,2.375,8.0625,-11.5625
84596765832,4.8125,9.125,-10.75
84596782253,6.4375,9.125,-9.875
84596804783,7.6875,9.5,-8.75
84596825850,8.25,11.875,-8.25
84596842235,12.625,15.125,-8.625
84596864787,19,16.4375,-10.625
84596887257,22.3125,18.125,-12.0625
84596902256,23.875,18.6875,-13.6875
84596924773,24.375,17.1875,-15.25
84596947234,23.75,17,-13.25
84596962264,20.0625,18.6875,-10.75
84596984738,18.25,18.6875,-8.875
84597007234,21.625,15.375,-7.4375
84597023698,24.375,13.6875,-5.625
84597044730,27.9375,13.875,-5.5625
84597066418,26.5625,14.9375,-5.4375
84597088968,23.0625,15.9375,-4.1875
84597103935,23.8125,14.5,-3.25
84597126522,30.1875,12.375,-3.1875
84597148958,33.9375,8.5,-5.6875
84597163985,26.0625,7.0625,-8.0625
84597186549,12.1875,7.3125,-8.3125
84597208993,2.125,6.1875,-6.125
84597224011,-0.25,4.6875,-2.875
84597246460,2.5,3,-0.9375
84597262954,1.8125,2.375,-0.8125
84597283951,0.5,1.0625,-1.125
84597306451,-0.4375,0,0.0625
84597322994,-4.6875,-0.125,2.5
84597344047,-7,-1.8125,5.3125
84597366519,-5.1875,-4.125,8.9375
84597382941,2.125,-6.5625,11.875
84597403939,10.3125,-10.1875,12.9375
84597426468,7.0625,-10.625,12.3125
84597442948,-2.6875,-9.1875,11
84597463983,-10.0625,-8.125,9.25
84597486474,-12.25,-8.1875,7.4375
84597502946,-8.5625,-6.8125,5.375
84597523960,-4.9375,-4.5625,2.125
84597546462,-3.625,-2.4375,0.6875
84597562921,-6.1875,-2.125,2.0625
84597583939,-6.125,-3.6875,2.75
84597606465,-9,-1.8125,4.8125
84597622922,-6.1875,-0.125,5.625
84597644415,-3.5,-0.6875,4.875
84597666459,-3.125,-2.75,3.75
84597682928,-4.625,-3.5,2.75
84597703941,-4.875,-2.125,1.0625
84597726462,-0.875,-0.4375,-0.9375
84597742928,6.1875,0.125,-2.375
84597763955,7.875,0.625,-3.0625
84597786487,4.875,2,-2.9375
84597802291,0.75,2.6875,-2.25
84597823986,0,3.125,-1.625
84597846492,1.6875,2.8125,-1.0625
84597862256,3.9375,2.0625,-1.25
84597883977,5.9375,1.3125,-1.9375
84597906474,6.875,0,-2.25
84597928960,6.1875,-1.25,-1.9375
84597943963,4.1875,-1.1875,-1.5
84597966465,1.5625,-1.25,-1.8125
84597982246,-0.75,-1.375,-2.0625
84598005414,-1.0625,-0.75,-0.9375
84598026438,-1.25,-0.375,0.4375
84598042298,0.1875,-0.125,1.0625
84598065435,1.25,-0.25,0.875
84598086469,1.3125,-0.25,0.1875
84598102283,0.5625,0.125,-0.125
84598125402,-0.625,0.375,-0.0625
84598146462,-1.625,0,0
84598169015,-1.625,0.25,0.125
84598185439,-0.4375,0.4375,0
84598206457,0.3125,0.5625,0.3125
84598222291,1.5,0.5,0.25
84598246094,0.1875,0.9375,0.0625
84598266447,-1.375,0.9375,-0.125
84598282219,-1.125,0.8125,-0.1875
84598305452,0.75,1,0.0625
84598326522,2,0.5,-0.0625
84598342283,4.4375,-0.1875,-0.25
84598365431,3.25,-0.8125,0.125
84598386475,1.75,-0.6875,0.6875
84598402247,1.9375,0.25,1.1875
84598426052,5,2.1875,1.5
84598446487,10.1875,3.5,1.5625
84598462275,15.6875,5,-1
84598485935,16.8125,7.875,-2.9375
84598506466,15.75,9.625,-4.5
84598522291,13.625,9.3125,-5.25
84598545413,10.625,7.6875,-5
84598566502,7.125,7.3125,-2.9375
84598582284,4.3125,5.9375,-2.1875
84598605443,1.75,3.1875,-0.8125
84598626464,0.625,0.9375,0.5625
84598642254,-1.1875,1.4375,1.1875
84598665403,-3.3125,2.8125,1.1875
84598686440,-3.375,3.5625,0.25
84598702345,-1.625,3.25,0.1875
84598724809,-0.75,2.6875,1.8125
84598746487,-0.4375,1.5,4.6875
84598762298,0.5625,-2.375,6.4375
84598784821,1.25,-6.25,6.6875
84598806484,-2.3125,-8.9375,4.8125
84598822287,-7.8125,-9.125,3
84598844783,-7,-8.125,0.625
84598867186,-0.5625,-6.4375,-0.4375
84598882287,5,-4.5625,-1.3125
84598904804,6.4375,-2.1875,-2.0625
84598927959,4.625,0.3125,-1.875
84598942248,3,1.1875,-1.6875
84598964811,1.125,2,-0.9375
84598993997,2.25,2.0625,-0.1875
84599002324,2.5,2.0625,0.9375
84599024785,2.3125,1.0625,0.8125
84599047946,0.0625,0.375,0.625
84599062267,-2.875,-0.3125,0
84599084755,-4.5,-1.1875,0.125
84599107926,-3.75,-2.8125,1.125
84599122271,-3,-3.4375,2.1875
84599144817,-0.9375,-3.625,3
84599167957,-0.1875,-3.375,2.375
84599182282,-2,-2.6875,0.4375
84599204820,-5,-2.9375,-0.75
84599227934,-6.875,-0.375,-0.8125
84599242251,-3,2.5,0.9375
84599271546,2.75,2.9375,0.25
84599287951,4.9375,2.9375,-0.4375
84599302338,4.125,2.625,-1.375
84599324820,1.3125,2.0625,-1.1875
84599347934,-1.5,1.125,-0.4375
84599362269,-2.1875,-0.375,0.3125
84599384818,-1.8125,-1.5625,0.5
84599407978,-1.4375,-1.0625,-0.0625
84599428998,-1.0625,-0.3125,-0.25
84599444794,-0.5625,0.375,-0.6875
84599467982,-0.6875,1,-0.625
84599489014,-0.75,1,-0.5625
84599504776,-1.4375,0.5,-0.5625
84599527977,-2.625,0.4375,-0.5625
84599549030,-3.4375,0.6875,-0.375
84599564846,-4.75,0.375,0
84599588024,-7.125,-0.3125,0.875
84599609010,-9.8125,-0.5,2
84599624821,-10.4375,-0.875,2.25
84599647932,-10.4375,-1.4375,2.125
84599669034,-8.5625,-2.0625,2.0625
84599684831,-6.625,-0.9375,2.0625
84599707346,-5.0625,0.4375,1.875
84599729017,-2.4375,0.9375,0.9375
84599744819,0.3125,1.1875,0.25
84599767321,1.8125,1.375,-0.75
84599789085,1,2.0625,-1.0625
84599804785,-0.375,2,-0.875
84599827297,-0.75,1.25,-0.125
84599849021,0.3125,0.375,0.1875
84599872962,-0.25,0,0
84599887336,0.0625,-0.25,-0.625
84599910494,0.25,-0.3125,-0.75
84599924853,0.1875,-0.75,-0.25
84599947311,0.25,-0.625,-0.0625
84599970452,0,-1.75,-0.25
84599984783,0.25,-1.6875,-0.125
84600007333,0.25,0.3125,0
84600030550,2.1875,1.8125,-0.4375
84600044852,4.5625,1.3125,-1.125
84600067321,4.3125,2.8125,-1.6875
84600090523,4.875,4.0625,-2.0625
84600104799,4.125,3.8125,-2.4375
84600127293,2.3125,2.4375,-1.5
84600150508,1.0625,0.9375,-0.8125
84600164830,0.3125,0.375,0.3125
84600187321,0.0625,0.0625,0.625
84600210462,0.5,-0.25,0.4375
84600224820,1.5625,0,-0.4375
84600247290,1.9375,0.9375,-1.0625
84600270434,1.75,1.1875,-1.25
84600292982,1.3125,1.3125,-0.9375
84600307332,1,1,-0.5625
84600330469,1.3125,0.5625,-0.375
84600344793,0.9375,0.0625,-0.4375
84600367344,0.125,0,-0.125
84600390503,-0.25,-0.0625,0.0625
84600411638,-0.4375,-0.1875,-0.375
84600427837,0.5,-0.375,-0.5
84600450470,1.375,-0.375,-0.375
84600471566,0.5625,-0.1875,0
84600487327,-0.3125,0.0625,0.125
84600510501,-0.25,0.125,0.25
84600531524,0.0625,0.5625,0.0625
84600547330,0.25,1.25,0
84600570467,0.4375,0.8125,-0.625
84600591614,0.625,0.875,-0.8125
84600607303,0.8125,0.875,-1
84600637991,0.75,1.125,-0.5
84600652989,0.1875,0.75,-0.25
84600667341,-0.1875,0.125,-0.3125
84600689838,-0.5,0.25,-0.125
84600711535,-0.5,0.625,0
84600727313,-0.0625,0.5625,0
84600749819,1.125,0.1875,-0.3125
84600771554,1.375,0.0625,-0.625
84600787343,0.0625,0.5625,-0.625
84600809799,-0.125,0.5,-0.3125
84600833007,0.5,0.0625,-0.1875
84600847357,0.75,-0.25,-0.0625
84600869834,-0.1875,-0.5,-0.25
84600893040,-0.875,-0.5625,-0.125
84600906569,-2.875,-1.5625,1.125
84600920911,-1.75,-1.3125,1.75
84600943407,-1.0625,-2.1875,0.6875
84600966576,-2,-1.5,0.8125
84600982350,-2.4375,-0.9375,0.25
84601003369,-1.25,-0.5625,-0.125
84601026595,-0.5625,-0.0625,-0.375
84601040882,-0.25,0.25,-0.4375
84601063396,-0.1875,0.125,-0.375
84601086555,-0.125,-0.1875,-0.0625
84601100935,-0.125,-0.4375,0.0625
84601123329,-0.125,-0.3125,-0.125
84601146581,-0.9375,-0.0625,-0.3125
84601160855,-0.5625,-0.0625,-0.125
84601183409,-0.4375,-0.375,-0.125
84601206572,-0.25,-0.5,0
84601220886,-0.375,-0.375,-0.125
84601243389,-0.4375,-0.5625,-0.0625
84601266544,0.25,-1.25,0.0625
84601280920,0.0625,-0.9375,0.25
84601303382,-0.4375,-0.75,0.5
84601326639,-0.625,-0.75,0.375
84601340985,-0.25,-0.4375,0.375
84601363396,0.5625,-0.5,0.6875
84601386557,-0.0625,-0.0625,0.25
84601400965,-1.0625,0.1875,0.1875
84601423346,-0.6875,0.125,0.4375
84601446598,-0.1875,-0.5,0.6875
84601460853,-0.5,-0.8125,0.5
84601483385,-1.875,-0.5625,0.3125
84601506602,-1.25,-0.375,-0.125
84601520892,-0.375,0,-0.4375
84601543419,0.3125,0.3125,-0.25
84601568009,-0.1875,0.6875,0.125
84601580882,-0.0625,0.5,0.125
84601603419,0.5625,0.875,-0.0625
84601626571,0.4375,1.125,-0.3125
84601640867,1.125,2.75,-0.5
84601663376,2.3125,3.6875,-0.5625
84601686588,3.6875,1.9375,-0.4375
84601701119,3.125,-0.125,0.75
84601724858,1.4375,-1.125,1.875
84601745957,-1.125,-1.9375,2.625
84601760969,-1.8125,-2.375,2.75
84601783444,-1.125,-1.9375,3
84601805904,-1.1875,-0.875,2.6875
84601820905,-0.625,-0.3125,2.1875
84601843384,-0.8125,0.125,1.3125
84601865989,-1.4375,0,0.125
84601881024,-0.75,-0.5,-1.125
84601903472,-1.3125,-0.875,-0.9375
84601925944,-1.4375,-1.125,-0.6875
84601940883,-2.375,-1.0625,-0.25
84601963429,-2.625,-0.8125,0
84601985973,-1.625,-0.9375,-0.0625
84602000963,-0.8125,-0.8125,-0.4375
84602023388,-1,-0.5,-0.0625
84602045905,-0.1875,0,0.375
84602060957,0.9375,1.0625,0.4375
84602091552,3.5625,1.1875,0.3125
84602105930,5.0625,-0.5,0.5625
84602120965,1.75,-1.6875,-0.0625
84602143451,-2.125,-2.25,-0.4375
84602165980,-2.3125,-2.8125,-0.5
84602180960,-0.625,-2.25,0.0625
84602203461,1.8125,-0.9375,0
84602225936,3.4375,-0.375,-0.1875
84602240997,1.375,-0.375,-0.625
84602263410,-0.875,-0.625,-1.0625
84602286020,-2.0625,-0.625,-0.875
84602300907,-1.25,-0.5625,-0.1875
84602324938,-0.8125,-0.1875,0.0625
84602345933,0.375,0.8125,-0.1875
84602360860,0.8125,2.0625,-0.4375
84602383407,1.5,2,-0.5
84602405985,0.25,1.625,-0.5625
84602420987,-0.25,1.3125,-0.5
84602443448,1.125,2.0625,0.6875
84602465880,4.875,2.5,0.9375
84602480955,7.75,3,0.3125
84602503402,5.375,3.625,-1.125
84602525956,2.0625,4.5,-2.375
84602542435,2.6875,4.75,-2.5625
84602563474,5.125,6.1875,-1.25
84602585875,7.8125,6.4375,0.625
84602602377,10.125,5.75,2
84602623382,7.5,5.4375,2.9375
84602647368,3.8125,4.4375,3.8125
84602662377,2,3.5,3.75
84602683453,1.75,3.4375,5
84602705978,3,2.375,6.125
84602722375,1.9375,1,7.375
84602743486,-1.1875,-0.25,7
84602765981,-4.5625,-1.1875,6.4375
84602782358,-6.8125,-3.4375,5.8125
84602803394,-8.375,-4.1875,7.1875
84602825995,-7.5625,-4.3125,9.75
84602842358,-7.8125,-6.5,11.6875
84602871345,-8.4375,-9.75,12.625
84602885944,-8.875,-12.0625,10.875
84602902356,-12.875,-12.5,8.9375
84602923435,-18.6875,-10.9375,7.375
84602945962,-24.8125,-8.0625,6.4375
84602962394,-27.6875,-6.5,7.1875
84602983399,-26.3125,-7.0625,6.8125
84603006028,-19.4375,-7,6.125
84603022415,-15.4375,-3.4375,6.3125
84603043446,-7.625,-2.75,6.3125
84603065956,11.375,-4.625,6.875
84603082402,28.5625,-2.8125,7.0625
84603103456,30.6875,2.3125,6.5
84603125961,25.25,7.5625,6.25
84603142377,26.75,13.3125,6.6875
84603163399,28.375,19.375,6.75
84603185935,37.3125,26.9375,8.5625
84603203827,49.9375,35.1875,7.5
84603223484,57.75,40.5625,7.875
84603245948,64.125,40.375,16.0625
84603262380,67.75,38.5625,15.625
84603283404,72.75,37,22.8125
84603305936,53.0625,37.9375,13.9375
84603328439,84.5,35.25,33.75
84603343441,28.1875,24.375,-20.25
84603365991,53.625,52.25,59.6875
84603382396,35.3125,26.1875,11.3125
84603403472,31.875,22.5625,33.4375
84603425944,1.5,31.0625,23.75
84603442356,-20.625,38.75,18.1875
84603464926,-9.5,45.1875,21.5
84603485934,6.5625,49.375,20.0625
84603502373,18.8125,54.1875,23.8125
84603524969,16.875,61.4375,21.9375
84603545991,12.625,71.25,19.5625
84603569952,11.1875,80,19.0625
84603584969,11.625,82.9375,20.5
84603605986,14.1875,85.1875,21.125
84603622395,18.6875,91.4375,19.125
84603644947,19.5625,97.6875,16.125
84603665965,16.4375,102.062,14.25
84603682502,15.25,101.25,13.4375
84603691067,15.25,101.25,13.4375
84603692636,18.8125,54.1875,23.8125
84603698621,16.875,61.4375,21.9375
84603704998,13.375,99.5,13.3125
84603725948,7.6875,98.75,12.875
84603742408,4.5,103.75,12.25
84603764951,3.9375,106.5,12
84603785984,8.4375,103.375,13.375
84603802359,14,97.6875,14.125
84603824941,16.5625,88.6875,14.5
84603845949,16.75,83,13.3125
84603862369,8.375,73.6875,10.4375
84603884952,-10.125,68.875,4.0625
84603905954,-33.75,60.25,5.8125
84603922356,-33.3125,47.75,10
84603944932,-7.5625,35.875,11.625
84603965931,13.6875,28.5,9
84603988458,18.6875,26.8125,7.375
84604004934,19.75,29.6875,9
84604025950,20.0625,32.8125,10.1875
84604048469,20.4375,32.375,11.8125
84604064958,28.25,28.5,10.875
84604085966,41.1875,26.5625,10.875
84604108484,41.9375,27.5,13.25
84604124988,32.125,26.75,15.1875
84604145966,26.375,23.25,16.6875
84604168438,22.0625,15.5,18.5
84604184931,15.5,3.375,20.125
84604205960,9.375,-6.1875,21.875
84604228441,11.5625,-11.875,20.5
84604244939,12.5,-14.5,19.375
84604265941,10.6875,-14.3125,20.0625
84604288461,10.6875,-12.375,21.4375
84604305551,12.125,-11.875,23.375
84604325939,16.625,-11.625,22.625
84604348475,17.8125,-13.0625,18.875
84604364973,14.25,-14.0625,15.3125
84604385957,5.375,-10.375,8.375
84604408465,4.6875,-6.625,-6.625
84604424947,15.625,-5.625,-13.4375
84604447414,25.75,-15.0625,-15.6875
84604468423,24.9375,-17,-23.1875
84604484954,16.3125,-13.1875,-26
84604507399,8.1875,-10.375,-27.75
84604528445,6.5625,-10.75,-22.1875
84604544929,10.125,-14.6875,-15.125
84604567399,11.9375,-18.9375,-7.8125
84604588489,6.3125,-24.125,1
84604604950,-2.5,-23.8125,9.5
84604627409,1.875,-20.5,14.875
84604648490,2.125,-16.125,21.3125
84604664947,10.6875,-17.625,32.125
84604687417,27.4375,-19.6875,39.8125
84604708473,38,-15.875,49
84604724941,47.8125,-11.5,59.3125
84604746629,38.8125,-14.625,75.9375
84604769160,36.1875,4.75,58.75
84604784102,-9.4375,18.1875,-0.6875
84604806602,-78.75,17.1875,-40.125
84604829099,-58.1875,5.1875,-41.4375
84604844111,34.8125,-8.8125,-13.4375
84604866595,72.0625,-16.375,15.625
84604889087,33.25,-12.6875,23
84604904113,-26.125,-6.375,14.3125
84604926617,-44.8125,0.625,1.25
84604949136,-18.3125,5.5,5.3125
84604964133,25.6875,7.875,13.0625
84604986682,44.6875,5.75,12.25
84605009136,27.3125,5.75,10.625
84605024210,-0.875,6.375,9.4375
84605046619,-18.1875,4.125,6.4375
84605069156,-19,0.4375,3.4375
84605084812,-11.9375,-5.0625,1.25
84605106661,-5.9375,-8.75,-1.4375
84605122415,-5.25,-9,-4.0625
84605145585,-8.9375,-6.5,-7.9375
84605166648,-15.3125,-5.4375,-14
84605189217,-7.9375,-3.4375,-15.6875
84605204110,-0.125,-3.375,-11.5
84605226605,-1.1875,-3.75,-5.625
84605249161,-1.75,-3.75,0.9375
84605264092,2.375,-2,4.1875
84605286676,3.3125,0.6875,4.75
84605302453,1.3125,1.75,4.125
84605324224,2.625,0.0625,3.9375
84605346724,6.9375,-1.4375,4.3125
84605362971,5.25,-1.0625,5.1875
84605384186,0.125,-0.4375,4.8125
84605406641,-1.25,0.0625,3
84605422476,0.1875,0,0.875
84605443971,1.875,-1.3125,0.1875
84605466664,1.8125,-1.875,1.8125
84605482462,0.9375,-0.9375,2.8125
84605504591,0.4375,-0.1875,1.5625
84605526620,-0.5,0.25,0.6875
84605542467,0.1875,-0.0625,0
84605565627,1.1875,-0.75,0.4375
84605586668,0.625,-1.25,0.375
84605602452,-0.125,-0.8125,-0.6875
84605625614,-1.25,-0.1875,-1.25
84605654236,0.1875,0.6875,-0.5625
84605662451,2.5625,0.75,0.5
84605685628,3.5625,0.3125,0.5625
84605706704,1.9375,0.0625,0
84605722494,-1.375,-0.5625,-0.75
84605745611,-2.9375,-0.9375,-0.25
84605766745,-2.5625,-0.6875,0.4375
84605782424,-1.3125,-0.4375,-0.1875
84605805641,-2,0.25,-1.9375
84605826667,-0.125,0.75,-2
84605842451,2.0625,1.3125,-1.625
84605865609,2.9375,1.625,-0.75
84605886673,2.8125,1.5625,-0.4375
84605902442,1.875,1.25,-1
84605931683,0.9375,0.4375,-0.9375
84605946629,0.625,0.0625,-0.4375
84605962428,-0.1875,0.4375,-0.0625
84605985614,-2.1875,1.125,-0.0625
84606006682,-2.6875,0,-0.5625
84606022446,-0.25,-0.9375,-0.6875
84606045603,0.4375,-0.75,-0.4375
84606066642,-0.25,-0.4375,-0.25
84606082416,-0.1875,0.4375,0.0625
84606105556,1.5,1.3125,0.1875
84606126641,4.125,1.375,-0.4375
84606142454,4.5625,1.1875,-0.4375
84606165603,5.6875,0.4375,-0.5625
84606186674,7.625,0.375,-0.5
84606202426,7.25,1.0625,-0.125
84606225576,9.0625,-3.6875,2.125
84606246716,8.0625,-9.375,0.1875
84606262472,6,-14.3125,-4.375
84606285623,-1.5,-13.25,-6.5625
84606306655,-12.25,-10.0625,-7.0625
84606322441,-10.875,-4.25,-6.4375
84606344981,0.625,-1.5625,-8.8125
84606366679,8.4375,-1.125,-9.875
84606382418,2.625,-3.3125,-8.375
84606404955,-3.9375,-5.875,-10.9375
84606435610,-3.25,-9.8125,-15.375
84606449141,4.9375,-12.9375,-15.75
84606464926,8.875,-10.5,-9.5
84606488584,2.3125,-5.375,-4.125
84606509150,-4.5625,-1.8125,-5.3125
84606525576,-3.1875,-3.75,-8.25
84606548200,3.3125,-8.1875,-7.125
84606562494,10.125,-6.5,-2.5
84606584972,11.0625,-2.9375,3.9375
84606608127,6.3125,-0.625,6.0625
84606622465,5.625,-0.75,3.9375
84606644944,10.125,-2.5625,1.8125
84606668117,17.8125,-4,1.875
84606689183,21.5,-3,2.9375
84606704949,16.5625,-0.9375,4.125
84606728129,6.3125,-0.375,4.375
84606749174,4.125,-1.875,3.3125
84606764972,7.875,-3.875,3.3125
84606788094,13.125,-3.125,3.3125
84606802490,13.8125,-1,2.875
84606824965,10.4375,-0.1875,1.75
84606848120,9.4375,-0.75,0.875
84606862474,7.5,-2.4375,3.25
84606884941,8.875,-4.4375,4.75
84606908096,13.75,-5,3.8125
84606922421,13.4375,-5.75,2.375
84606944975,7.5625,-6.375,2.625
84606968147,5.5625,-7.5,3.875
84606982457,10.1875,-6.875,4.25
84607004938,11.375,-5.8125,2.625
84607028108,10.5625,-4.9375,1.25
84607049122,13.3125,-5.75,2.125
84607064978,16.8125,-4.875,4.75
84607088139,18.5625,-4.625,5.875
84607109183,19.4375,-5.875,5
84607125627,17.625,-7.4375,4.625
84607148133,17.3125,-6.3125,5.1875
84607169189,15.9375,-3.625,6
84607184948,14.8125,-3.125,6.9375
84607208146,14.875,-3.9375,7.375
84607229268,14.375,-4.125,6.5
84607244978,11.5625,-3.8125,6.25
84607267480,9.875,-2.3125,6.6875
84607289170,9.9375,-2.3125,6.25
84607305607,12.9375,-3.3125,5.375
84607327463,16,-5.75,5.8125
84607349156,14.375,-8,6.8125
84607365435,12.6875,-8.6875,6.8125
84607387425,12.375,-8.25,6.625
84607409243,13.1875,-5.75,7.5625
84607424960,14.875,-2.375,7.3125
84607447448,15.3125,-0.75,6.625
84607470640,13.75,-1.25,4.9375
84607484999,11.5,-2.75,3.5
84607507482,11.6875,-4.5625,2.4375
84607530647,10.25,-5.75,2.0625
84607544992,11.1875,-3.9375,3.1875
84607567473,7.875,-3,1.3125
84607590618,6.5,-1.75,0.4375
84607604988,5,-0.4375,1
84607627474,4.875,1.125,2.125
84607650620,5.25,1.6875,3.4375
84607664950,6.6875,1.125,3
84607687459,11.375,-0.125,1.4375
84607710666,12.3125,-1.5,1.0625
84607725012,9.375,-1.125,1.125
84607747502,8.25,-1.8125,2.1875
84607770645,9.375,-2.0625,3.5
84607784986,9.4375,-1.0625,5.3125
84607807464,11.5,-0.625,6.625
84607830630,16.8125,-4.125,4.5625
84607844976,17.4375,-0.4375,7.875
84607867542,17.375,-1.4375,7.1875
84607890682,20.4375,-3.25,6
84607913128,25.0625,-4.5,5.75
84607927452,28,-4.625,3.625
84607950608,23,-3.5,1.5
84607973132,12.125,-1.25,1.25
84607987461,3,0.4375,0.6875
84608010644,-5.5,-4.9375,-3.25
84608031667,-9.625,0.4375,-3.125
84608047491,-15.375,-0.0625,-3.6875
84608070716,-19,-0.0625,-4.5
84608091735,-18.8125,0.625,-5.25
84608107477,-14.625,0,-5.6875
84608136662,-7.3125,-1.5,-5.5
84608153112,-0.5,-3.125,-5.4375
84608167515,0.625,-2.75,-4.8125
84608190007,-0.75,-0.6875,-3.125
84608211679,-2.9375,0.625,-1.5625
84608227503,-3.375,0.875,-0.125
84608249995,-1.3125,0.125,0.9375
84608271631,1.4375,-0.5,1.625
84608287530,1.75,0.375,1.625
84608318158,-0.375,1.8125,0.5
84608331707,-0.75,1.4375,-0.375
84608347512,1.75,-0.1875,-0.875
84608369956,3.4375,-1.5,-1.3125
84608393122,3.4375,-1.5625,-1.5
84608407488,1.375,-0.625,-0.75
84608430013,-1.125,-0.1875,-0.3125
84608453156,-1.6875,-0.4375,0.5625
84608467494,-1.125,-0.5625,0.5625
84608490014,0.0625,-0.5,0.25
84608513179,1.625,-0.8125,0.0625
84608527477,1.375,-0.5,-0.5
84608550002,0.4375,-0.1875,-1
84608563504,-0.875,0.1875,-1
84608586711,-2.125,0.25,-0.5625
84608601032,-1.3125,0.0625,-0.5
84608623550,0.625,-0.5625,-0.875
84608646723,1.4375,-0.5625,-1
84608661083,0.8125,0.0625,-0.375
84608683586,-0.75,0.5625,0.4375
84608706710,-1,0.25,0.6875
84608729170,-0.3125,-0.4375,1
84608752323,0.5625,-0.375,1.1875
84608766721,0.0625,0.5625,0.75
84608781056,-0.25,1,0
84608803527,0.25,0.6875,-1.625
84608826723,-0.125,0.4375,-2.375
84608841034,-0.75,0.25,-2.375
84608863575,-0.6875,0.125,-2.125
84608886690,-0.6875,0.25,-1.4375
84608901089,-0.8125,0.4375,-0.6875
84608932373,-1.6875,0.9375,-0.1875
84608946738,-2.625,1.125,0.125
84608961076,-2.3125,0.3125,-0.1875
84608985006,-1.8125,0.0625,-0.5625
84609006679,0,-0.3125,0.3125
84609022484,1.25,-0.4375,1.5
84609052388,1.8125,0.0625,1.75
84609066764,1.5,0.3125,0.875
84609081099,0.25,0.1875,-0.3125
84609128471,-0.1875,-0.25,-0.875
84609134846,-0.0625,-0.25,-1.125
84609141017,1,-0.5,-1.375
84609163547,1,0.125,-1.75
84609186778,1.0625,0.5625,-1.25
84609201073,2.3125,0.4375,0
84609223535,2.125,0.3125,0.8125
84609246726,1.4375,-0.25,0.8125
84609262515,2.0625,-0.8125,0.8125
84609284993,1.1875,-0.375,0.875
84609306059,0.75,0.1875,0.9375
84609322556,0.75,0.1875,0.75
84609351779,1.4375,0,0.3125
84609366081,2.75,-0.25,-0.0625
84609381058,2.5,-0.1875,-0.1875
84609404972,1.5625,-0.125,-0.4375
84609426033,0.625,0.3125,-0.3125
84609441055,0.0625,0.375,-0.125
84609463532,0.125,0,0
84609486031,0.625,-0.25,-0.125
84609501081,0.4375,-0.1875,-0.125
84609531752,-0.375,0.1875,0
84609546093,-1.625,0.4375,0.4375
84609561052,-2.25,0.5625,0.75
84609583551,-2.3125,0.5625,0.75
84609606097,-1.5625,0.1875,0.25
84609621069,-0.625,0.125,-0.0625
84609643572,-0.625,0.3125,-0.4375
84609666031,-1.125,0.4375,-0.5
84609681006,-1,0.4375,-0.625
84609711714,-0.3125,0.25,-0.6875
84609726044,-0.0625,-0.125,-0.375
84609741049,-0.0625,0,-0.25
84609763590,-0.8125,0.4375,-0.3125
84609786108,-1.6875,0.75,-0.25
84609801031,-1.625,0.75,-0.125
84609823562,-1.5,0.5625,0.25
84609846061,-2.375,0.4375,0.5
84609863972,-2.5625,0.625,0.6875
84609883587,-2.375,1,0.4375
84609906079,-1.9375,0.9375,-0.1875
84609921117,-0.875,0.8125,-0.3125
84609943565,-1.625,0.75,-0.875
84609966004,-2.875,0.5625,-0.9375
84609981035,-4.5,1.25,-0.3125
84610003544,-6.9375,2.625,0.75
84610027512,-8.375,4.25,2.1875
84610041064,-10.6875,6.0625,3.5
84610063555,-11,8.6875,5.625
84610086115,-12.125,10.8125,7.125
84610102491,-10.9375,11.8125,6.5625
84610131805,-9.9375,11,2.875
84610146133,-9.25,8.625,-1.9375
84610163969,-7.875,6.375,-6.625
84610183593,-8.8125,5.5,-9.75
84610206042,-12.5,3.875,-11.9375
84610229250,-18.0625,3.875,-13.25
84610243604,-21.125,1.125,-16.0625
84610266118,-25.25,1.4375,-16
84610288606,-26.3125,2.0625,-14.6875
84610303536,-20.5625,1.0625,-14.25
84610327484,-15.1875,2.1875,-15.5625
84610348564,-16.375,3.0625,-15.9375
84610363530,-17.5,4.125,-14.75
84610386105,-18,3.1875,-13.4375
84610408599,-17.5625,3.375,-15.9375
84610423615,-15.375,5.25,-11.0625
84610446157,-17.5625,3.75,-15.375
84610468624,-14.4375,4.6875,-16.875
84610483580,-12.875,3.4375,-17
84610506059,-10.5,4.3125,-14.1875
84610528612,-18.9375,4.75,-13.875
84610543614,-23.125,14.25,-2.4375
84610566102,-30.8125,21,1.125
84610588570,-36.25,11,-11.875
84610603553,-30.6875,7.8125,-17.3125
84610626107,-23.25,6.6875,-15.1875
84610648617,-25.375,7.8125,-10.5625
84610663619,-30.625,8.1875,-13
84610686107,-33.375,8.0625,-9.8125
84610708632,-31.4375,10.6875,-12.8125
84610723543,-30.8125,12.5,-13.5
84610746065,-34.125,11.125,-10.8125
84610768584,-31.125,8.375,-8.125
84610783573,-16.3125,2.6875,-3.4375
84610806087,2.3125,-3.125,0.3125
84610828591,10.5625,-5.75,5.875
84610843577,8.5625,-4.9375,10.625
84610866081,5.5625,-4.875,14.375
84610882541,6.8125,-7.6875,16.25
84610903615,13.1875,-11.6875,14.5
84610926075,22.0625,-14.4375,9.5
84610948649,29.375,-16,1.125
84610971820,32,-14.375,-1.3125
84610986154,28.25,-12.25,-0.5
84611008644,21.25,-9.8125,2.6875
84611023564,16,-8.4375,7.125
84611046070,14.3125,-6.625,10
84611068618,13.8125,-5.3125,11.5
84611085106,15.6875,-4.6875,12.3125
84611106100,16.625,-3.1875,14.125
84611128559,13.5625,-1.75,16.6875
84611145035,11.3125,-1.6875,17.9375
84611166061,13.8125,-2.5625,17.25
84611188583,13.875,-4.125,16.4375
84611206501,11.5625,-4.25,16.0625
84611226115,7.6875,-6.25,15.8125
84611250010,3.5625,-9.8125,15.875
84611265054,-2.75,-14.9375,15.625
84611286063,-6.5625,-15.8125,15.9375
84611308581,-8.6875,-15.8125,15.3125
84611325027,-6.875,-15.0625,18
84611346115,-4.4375,-15.25,19.625
84611368616,-3.8125,-15.5,20.4375
84611385065,-3.125,-14.3125,19.5625
84611406168,-3.8125,-12.5625,19.625
84611428628,-3.3125,-11.5,18.875
84611445076,-0.625,-11,17.0625
84611466091,1.5625,-10.375,14.375
84611488629,3.5,-10.75,11.8125
84611505112,3.6875,-11.0625,10.125
84611526150,2.0625,-8.75,9
84611542543,1.4375,-5.875,7.625
84611565703,3.6875,-3.9375,6.375
84611594249,7.0625,-4.1875,4.8125
84611602551,5.5,-3.9375,5
84611625049,2.3125,-3.0625,6.5625
84611646160,2.625,-2.0625,6.625
84611662541,4.875,-2,5.25
84611685083,4.9375,-3,3.875
84611706141,3.1875,-4.0625,2.625
84611722532,1.9375,-4.9375,2.25
84611745702,0.4375,-5.75,2.4375
84611766103,1.125,-5.8125,2.125
84611782622,2.1875,-4.1875,1.3125
84611805055,2.5,-3.0625,0.125
84611826151,4.125,-2.625,-0.4375
84611842571,4.9375,-1.8125,-0.125
84611865068,3.875,-1.4375,0.25
84611886141,4.3125,-1.625,-0.625
84611902553,4.25,-2.1875,-1.0625
84611925065,3.25,-1.5625,-0.875
84611946100,2.6875,-0.875,-1
84611962576,3.6875,-0.75,-0.5625
84611985025,4.25,0,-0.1875
84612007554,4.625,-1.0625,0.125
84612022570,5.1875,-2.125,0.75
84612045049,5.5,-1.5,1.375
84612067638,5.4375,-0.3125,2.125
84612084092,4.125,0.25,2.0625
84612105087,2.4375,-0.5,2.25
84612127563,1.0625,-1.5625,2.1875
84612142576,-1.75,-1.875,0.9375
84612165101,-3.5625,-1.375,-1
84612187610,-2.9375,-0.0625,-2.375
84612204025,-3.0625,0.75,-2.3125
84612225062,-2.0625,1.25,-2.625
84612247596,0.25,1.3125,-3
84612264064,2.3125,0.375,-3.125
84612285055,4.0625,-1.1875,-2.5625
84612307551,4.375,-2.5,-1.625
84612324040,3.25,-1.8125,-1.3125
84612345033,2.1875,-0.5,-2.0625
84612367579,2.1875,0.9375,-3.125
84612384059,1.375,2.0625,-4.1875
84612404286,-0.3125,2.6875,-4.5
84612426788,-0.75,2.1875,-3.625
84612449280,0.625,1.5,-2.8125
84612464276,3.5,1.1875,-1.8125
84612486791,4.6875,1.3125,-1.1875
84612509260,3.625,1.4375,-0.6875
84612524275,2.1875,1.3125,-0.75
84612546749,1.75,1,-0.75
84612569270,0.9375,0,-0.5
84612591799,1.375,-1.375,-0.4375
84612606748,1.375,-1.8125,-0.9375
84612629322,1.875,-1.625,-0.6875
84612644291,1.8125,-0.75,-0.5625
84612666811,2.0625,-0.375,-0.75
84612689315,1.75,-1.4375,-0.6875
84612704320,0.625,-2.4375,-0.1875
84612726811,-0.8125,-1.6875,0.5625
84612749299,-0.25,-0.5625,0.0625
84612764310,1.0625,-0.1875,-0.5625
84612786831,1.3125,-1.0625,-0.625
84612809277,0.9375,-2,-0.4375
84612824299,0.375,-2.25,0.1875
84612846791,0.8125,-2.1875,-0.1875
84612869284,1.625,-2.4375,-0.5
84612884276,2.0625,-2.3125,-0.4375
84612914288,1.6875,-1.5,-0.1875
84612929345,0.625,-0.75,0.125
84612944555,1.125,-1.3125,-0.125
84612966787,1.5,-1.5625,-0.25
84612989268,1.375,-1.1875,-0.25
84613004285,1.5,-0.3125,-0.25
84613026776,1.25,0,-0.375
84613042572,1.8125,0.25,-0.4375
84613064285,1.5625,-0.1875,-0.75
84613086766,1.6875,-1.1875,-1.3125
84613102608,2.25,-1.25,-1.4375
84613125758,1.3125,-0.25,-1.125
84613146820,0.4375,0.4375,-1.125
84613162580,-0.3125,0,-1.25
84613193202,-0.6875,-0.6875,-1.3125
84613206765,-0.875,-0.5,-1.1875
84613222557,-1.3125,0.25,-1.1875
84613245767,-1.1875,0.5625,-1.375
84613266807,-0.25,0.8125,-1.5625
84613282601,0.75,0.3125,-1.375
84613305747,-0.6875,0.25,-1.0625
84613326771,-0.9375,0.25,-1
84613342562,-0.9375,0.25,-0.9375
84613365708,-0.75,0.8125,-1.0625
84613386815,-0.8125,0.8125,-0.8125
84613402624,-0.25,-0.0625,-0.4375
84613425747,0.4375,-1.0625,-0.25
84613446779,2.4375,-1.375,-0.4375
84613462588,4.0625,-1.625,-0.625
84613485704,3.8125,-1.625,-0.5625
84613506822,2.1875,-1.3125,-0.5
84613522615,0.25,-1.4375,-0.8125
84613545754,0.1875,-1.625,-1.3125
84613566804,2.1875,-2.1875,-1.375
84613582603,1.3125,-0.9375,-1.125
84613605760,1,-0.125,-0.875
84613626816,1.1875,-0.1875,-0.5
84613642621,1.375,-0.0625,-0.125
84613665767,2.3125,-0.3125,0.6875
84613686806,3.5625,-0.25,1.125
84613703076,2.6875,-0.375,1.5625
84613725755,4.9375,-0.125,1.4375
84613746786,4.9375,-0.5,0.9375
84613762620,5.8125,-0.9375,0.4375
84613786419,5.0625,-1.1875,1
84613806811,4.9375,-0.625,1.4375
84613822586,5.3125,0.1875,1.5625
84613845732,6.8125,0.8125,1.9375
84613868287,8,0.125,2.25
84613882604,9.4375,-0.9375,3.25
84613905084,9.9375,-1.3125,4.6875
84613926791,10.3125,-2.6875,5
84613942615,10.4375,-2.875,3.9375
84613965736,8.1875,-2.25,3.5
84613986784,6.1875,-1.875,4.5625
84614002587,6.4375,-1.625,5.25
84614025138,7.5625,-0.75,6.0625
84614046773,7.75,0.375,6.5625
84614062650,7.8125,1.6875,7.9375
84614085118,8.5625,2.25,7.3125
84614115748,9.1875,0.4375,6.0625
84614122585,9.75,-3.125,5.6875
84614145088,11.75,-5.75,4.9375
84614168237,12.3125,-4.5625,5.125
84614182636,10.125,-3.4375,5.5
84614205141,9.625,-4.25,6.125
84614228294,7.875,-4.25,4.5625
84614242616,7.875,-3.5,5.875
84614265094,8.0625,-1.9375,4.125
84614288267,5.5,-0.5,5
84614302590,7.5625,-1.125,7.5625
84614325130,9.125,-4.6875,7.6875
84614348308,8.8125,-7,6.125
84614362609,5.25,-7.0625,4.75
84614385107,5,-5.5,4.8125
84614408261,4.625,-5.375,3.6875
84614422597,5.3125,-6.125,3.5
84614445139,6,-6.25,2.875
84614468295,4.25,-5.875,3.0625
84614482608,3.1875,-5.125,3.625
84614505138,2.5,-4.6875,4.75
84614528268,3,-3.75,6
84614542606,0.125,-3.8125,5.6875
84614565124,-2.0625,-4.1875,4.4375
84614588298,-1.375,-2.6875,4.9375
84614609362,-0.6875,-1.0625,4.1875
84614625134,-0.25,2.875,4.75
84614648272,1.6875,4.625,3.1875
84614669318,-0.1875,4.125,0.4375
84614685115,1.4375,3,0.8125
84614708231,-0.4375,2,1.625
84614729412,-1.125,0.625,2.3125
84614745136,-0.125,1.5625,3.125
84614768297,0.3125,2.375,3.3125
84614789325,-0.5,1.9375,2.8125
84614805126,1.0625,2.875,3.8125
84614827588,-0.5,1.125,2.8125
84614849340,1,0.75,2.8125
84614865110,-0.8125,0.1875,2.625
84614887666,0.375,-0.4375,2.5625
84614909394,-0.0625,-0.4375,2.1875
84614925159,0.0625,-1.25,2.0625
84614947657,-0.5,-1.8125,1.8125
84614969343,-1.625,-1.625,1.5625
84614985136,-1.375,-1.1875,1.375
84615007634,-0.1875,-1.5,1.3125
84615038328,-1.0625,-1.25,1.5625
84615045126,-1.8125,-0.625,1.5625
84615067666,-1.6875,-0.0625,1.375
84615090834,-1.5,-0.0625,0.625
84615105132,-0.0625,0,0.625
84615127644,1.375,-0.1875,0.5625
84615150800,0.9375,-0.375,0.375
84615165118,0.125,-0.5625,0.375
84615187618,-0.25,-0.4375,0.3125
84615210814,-1.125,-0.5625,0.75
84615225153,-0.625,-1.125,0.625
84615247629,-1,-1.5625,0.4375
84615270793,-0.9375,-1,0.125
84615285107,-1.125,0.3125,-0.3125
84615307623,-0.5,0.375,-0.6875
84615330758,0.3125,-0.3125,-1
84615345160,0.5,-0.5,-0.9375
84615367660,0.0625,-0.125,-0.9375
84615390799,0.75,0.0625,-1.125
84615413271,1.8125,0.25,-1.3125
84615428254,0.8125,1.375,-1.1875
84615450809,0.3125,2,-1.0625
84615465140,0.9375,1.375,-0.6875
84615487659,1.5625,-0.4375,0
84615510790,0.6875,-1.625,0
84615531803,-0.625,-1.5,-0.875
84615547613,-1.0625,-0.4375,-1.4375
84615570822,-0.9375,0.8125,-1
84615591846,-1.5,1.25,-1.5
84615607650,-1,0.3125,-1.875
84615630799,0.75,-0.1875,-1.4375
84615653266,0.75,-0.0625,-1.625
84615667679,-0.4375,0.875,-1.5
84615690825,-0.625,1.8125,-1.3125
84615711857,-0.0625,2.4375,-1
84615727636,0.25,2.25,-0.625
84615750850,-0.3125,1.4375,-0.4375
84615771845,-1.0625,1.3125,0.1875
84615787684,-0.3125,1.3125,0.1875
84615810158,-0.6875,1.8125,-0.375
84615831904,-0.8125,1.4375,-1.25
84615847653,-0.25,0.5,-1.6875
84615870186,0,-0.1875,-1.4375
84615891893,-0.0625,-0.3125,-1.25
84615907666,-0.375,0.375,-1.0625
84615930131,-0.8125,0.625,-0.6875
84615951934,-0.5625,0,-0.125
84615968146,-0.125,-0.6875,0.3125
84615996846,1.0625,-1.125,0.625
84616013298,1.375,-0.4375,1
84616027614,0.625,-0.1875,0.875
84616050168,1.0625,-0.75,0.5625
84616073332,1.6875,-1.5625,0.5
84616087664,2.0625,-1.5,0.5
84616110145,1.4375,-1.375,0.0625
84616133294,1.5625,-1.75,-0.4375
84616147658,0.6875,-2.125,-0.625
84616170184,-0.0625,-1.875,-0.4375
84616193337,-0.25,-1.3125,-0.4375
84616207665,0,-1,-0.75
84616230621,0.3125,-0.5625,-0.5
84616243724,0.375,-0.375,0
84616266870,0.25,-0.5625,0.125
84616281237,1,-1.4375,-0.375
84616303728,1.8125,-1.9375,0.3125
84616326892,2.1875,-1.25,0.0625
84616341191,1.625,-0.6875,-0.1875
84616363680,1.75,-0.5,-0.125
84616386876,1.6875,-0.4375,0.5
84616409407,1.75,-0.6875,1.0625
84616423743,1.0625,-0.1875,0.6875
84616446900,0.1875,0.75,0.1875
84616469381,0,0.6875,0
84616483704,-0.0625,0.375,-0.4375
84616506917,-0.25,-0.1875,-0.5
84616522689,-0.3125,-0.0625,-0.9375
84616543778,-1.0625,0.375,-0.75
84616566885,-1.25,1.1875,-1.1875
84616581208,-2.0625,1.25,-1.625
84616603762,-2.8125,1.625,-1.5625
84616626891,-3.125,1.625,-1.1875
84616641195,-2.875,1.5625,-1
84616663708,-2.3125,1.5,-1.25
84616686213,-2.875,1.375,-1.375
84616701184,-3.625,1.75,-1.25
84616723713,-3.125,2.0625,-1.125
84616746868,-0.1875,2.5,-1.25
84616761206,2.25,0.75,-1
84616783732,1.25,-0.4375,0
84616806891,0.8125,-0.375,1
84616821226,-0.3125,0.625,1.375
84616843699,-0.4375,1.25,0.6875
84616866865,-1.125,1.375,-0.375
84616881221,-0.9375,0.3125,-1.1875
84616903752,-1.1875,-0.4375,-1.875
84616926231,-1.5,-0.4375,-2.1875
84616941238,-0.375,-0.25,-2.25
84616963756,0.875,-0.875,-2.1875
84616986239,1.6875,-2,-1.25
84617001238,2.625,-2.625,-0.5
84617023706,1.1875,-0.8125,0.25
84617046224,-0.625,1.125,0.25
84617061236,-1.875,0.875,-1.1875
84617083741,-3.3125,-0.5625,-3.125
84617106186,-5.1875,-0.9375,-3.875
84617121219,-8.5,0.375,-3.625
84617143702,-9.4375,1.125,-3.9375
84617166250,-9.5625,1.6875,-3.5
84617181236,-7.75,1.5,-1.875
84617203745,-5.5625,1.6875,0.375
84617226210,-1.6875,2.125,1.875
84617241208,2.25,2.0625,1.8125
84617263712,1.125,1.625,1.9375
84617286244,0.1875,0.8125,2
84617301242,-0.5625,1.25,2.4375
84617323684,-2.5,1.8125,2.5625
84617346233,-2.25,1.8125,2.125
84617361225,-1.8125,1.25,1.75
84617391887,-2.0625,1,1.5625
84617406232,-2.125,0.5625,1.125
84617421233,-1.6875,0.125,0.1875
84617443776,-1.5625,-0.5,-0.25
84617466293,-1,-0.5,-0.125
84617481221,-1.1875,0.875,0.6875
84617503703,-1.8125,2,1.25
84617526238,-1.6875,2.125,1.25
84617541246,-1.6875,1.75,1.0625
84617563770,-1.625,1.9375,1.25
84617586228,-1.3125,2.125,1.4375
84617601268,-0.9375,3.125,2.3125
84617631850,-0.25,3.1875,3.3125
84617646210,1.125,2.0625,3.25
84617664140,0.5625,1.375,3
84617683731,-1.75,1.25,2.6875
84617706268,-2.875,2.25,2.4375
84617722733,-3.25,2.6875,2.125
84617743806,-3.25,2.25,1.5625
84617766265,-2.9375,1.5625,0.9375
84617782652,-3.375,0.875,0.3125
84617803733,-4.1875,1.0625,0.0625
84617826254,-4,1.6875,-0.0625
84617844179,-3.5,1.9375,0.125
84617865177,-1.5,1.75,-0.125
84617886238,-1,1,-0.0625
84617910201,-2.3125,0.5625,-0.125
84617923735,-2.4375,0.0625,-0.125
84617946238,-2,0.6875,0.375
84617962755,-1.3125,1.1875,-0.0625
84617983733,-0.4375,1.25,-0.4375
84618006253,-0.8125,0.875,-0.375
84618022679,-2.125,0.6875,0.1875
84618043842,-2.0625,0.375,0.625
84618066251,-2.25,0.3125,0.75
84618082659,-1.9375,0.625,0.6875
84618103682,-1.875,1,0.4375
84618126211,-2.1875,0.875,0.625
84618144124,-2.125,0.5,0.4375
84618163763,-1.9375,-0.375,0.4375
84618186203,-1.875,-0.125,0.625
84618202686,-1.125,-0.1875,0.625
84618231960,-1,0.0625,0.4375
84618246259,-0.6875,0.5,0.1875
84618262673,-1.1875,0.6875,-0.1875
84618283789,-0.875,0.5625,-0.5625
84618306262,-0.25,0.5625,-0.5
84618322730,-0.625,0.625,-0.4375
84618343713,-0.3125,0.6875,-0.4375
84618366270,-0.375,0.75,-0.625
84618382706,0.0625,0.6875,-0.8125
84618411919,0.375,1,-0.5
84618426241,0.0625,1,-0.5
84618442694,-0.125,0.5625,0.0625
84618463735,-0.5625,0.25,0.3125
84618486279,-1.75,-0.25,0.9375
84618502718,-1.9375,-0.5,1.3125
84618523776,-2.125,-0.5,1.375
84618546260,-2.375,-0.375,1.375
84618562721,-2.625,0,1
84618583783,-1.625,-0.0625,0.1875
84618606331,-0.6875,-0.4375,-0.3125
84618622673,-0.3125,-0.625,-0.375
84618645190,-0.0625,-0.625,-0.25
84618666257,0.125,-0.3125,-0.25
84618682702,-0.25,-0.0625,-0.1875
84618705198,-0.25,0.375,0
84618726223,-0.8125,0.375,0.25
84618744171,-0.1875,0,0.375
84618766638,0.5625,-0.3125,0.6875
84618786314,0.25,-0.375,0.75
84618802725,0.25,-0.375,0.1875
84618825286,0.5,0.4375,-0.3125
84618846286,0.0625,0.6875,0
84618862668,0.75,0.4375,0.125
84618885208,0.4375,-0.1875,0
84618906280,0.5,-0.4375,-0.25
84618930242,0.6875,-0.0625,-0.375
84618945221,0.9375,0.375,-0.25
84618966291,0.875,0.0625,0
84618982725,0.9375,-0.4375,0.125
84619005199,0.0625,-0.75,0.0625
84619026321,0.125,-0.625,0.125
84619042753,0.1875,-0.125,0
84619065258,0.125,0.375,-0.0625
84619094466,-0.25,0.375,-0.25
84619102762,-0.25,0.8125,-0.5
84619125260,0.25,0.5,-0.5625
84619146290,0.4375,0.25,-0.375
84619162752,0.5,-0.375,-0.0625
84619185247,0.75,-0.5,-0.0625
84619206239,0.0625,-0.4375,-0.0625
84619222777,0.1875,-0.25,-0.25
84619245216,-0.0625,-0.3125,-0.4375
84619274405,0.75,-0.125,-0.4375
84619282716,0.8125,0.375,-0.5625
84619305213,0.4375,0.5,-0.5
84619326279,0.6875,0.125,-0.25
84619344195,0.1875,-0.3125,-0.0625
84619365249,-0.0625,-0.75,0.25
84619386267,-0.875,-1.1875,0.1875
84619402754,-0.75,-0.8125,0
84619425204,-1.0625,-0.3125,-0.125
84619446254,-0.8125,0.0625,-0.4375
84619462761,-0.25,0.5,-0.5
84619485234,0.3125,0.375,-0.875
84619506268,1.25,-0.0625,-0.8125
84619528731,1,-0.3125,-0.6875
84619545201,0.3125,-0.4375,-0.5
84619567727,-0.25,-0.0625,-0.375
84619582693,-0.25,0.375,-0.4375
84619605213,-0.25,0.5625,-0.4375
84619627682,-0.5,0.5,-0.3125
84619642762,0,0.5,0.1875
84619665204,0.0625,0.4375,-0.0625
84619687708,-0.3125,0.375,-0.0625
84619702649,-0.125,0.0625,0.0625
84619725180,-0.0625,0.0625,-0.25
84619747735,-0.4375,0.4375,-0.375
84619764202,0.25,0.25,-0.6875
84619785230,0.125,0.125,-0.625
84619807748,-0.0625,0,-0.5
84619824197,0.4375,0.3125,-0.5
84619845974,-0.25,0.6875,-0.25
84619867689,-0.625,0.875,0
84619884237,-0.4375,0.625,-0.125
84619905256,-0.3125,0.6875,-0.125
84619927732,-0.3125,0.375,-0.25
84619944205,-0.3125,-0.0625,-0.375
84619965220,-0.625,-0.0625,-0.5
84619987709,-0.4375,0.0625,-0.5
84620004185,0.25,0.25,-0.6875
84620025940,-0.25,0.0625,-0.5
84620047733,-1,0,-0.8125
84620068796,-1.0625,0.125,-1.0625
84620084485,-1.0625,0.4375,-1.125
84620106975,-1.25,0.4375,-1.5
84620129472,-1.5625,0.6875,-1.875
84620144442,-1.8125,0.75,-1.9375
84620166962,-2.5625,1.25,-2.75
84620197653,-1.9375,2.1875,-3.6875
84620204440,-3,2.5,-4.625
84620226927,-3.5625,2.875,-5.5
84620249498,-4.3125,3.3125,-5.875
84620264447,-5,3.6875,-6.125
84620286976,-6.125,4.5,-6.0625
84620309482,-6.375,4.6875,-6.5
84620324544,-5.3125,4.1875,-7.875
84620346972,-5.6875,4.375,-8.6875
84620369453,-8.375,4.75,-8.25
84620384477,-9.5,5.125,-8.8125
84620408403,-9.375,5.4375,-9.6875
84620429497,-10.1875,6.125,-10.5
84620445108,-10.6875,7.25,-10.875
84620467008,-9.125,7.75,-9.375
84620489467,-2.25,8.1875,-9.5
84620504469,2,8.25,-11.5625
84620527046,-2.6875,10.875,-10.3125
84620549461,-8.1875,13.375,-8.125
84620564487,-12.6875,14.8125,-4.3125
84620587022,-13.9375,13.8125,-3.5
84620609485,-11.875,11.4375,-3.875
84620625156,-11.9375,10.9375,-4.5
84620646969,-17.0625,13,-3.8125
84620669491,-19.9375,14.4375,-4.3125
84620684473,-19.1875,13.8125,-5.3125
84620707014,-15.9375,14.875,-8.8125
84620729431,-13.5,16.125,-13.75
84620745959,-8.8125,17.25,-18.375
84620766982,-3.5625,17.625,-22.3125
84620789512,1.3125,17.9375,-23.875
84620805993,11.4375,16.9375,-26.1875
84620826988,9.6875,18.3125,-32.4375
84620849469,-9.75,17.6875,-34.8125
84620865645,-25.0625,9.0625,-38.8125
84620887006,-27.8125,3.25,-29.875
84620917018,-26.875,7.25,-18.9375
84620925980,-28.6875,11.375,-12.75
84620947008,-23.6875,15.1875,-10
84620969489,-13.4375,17.5625,-7.1875
84620985927,-7.625,20.4375,-4.5625
84621007000,-11.125,23.6875,-9.3125
84621029453,-18.5625,21.25,-9.75
84621045956,-20.9375,15.75,-8.0625
84621066964,-22.75,12.1875,-3.8125
84621089490,-26.625,10.875,1.75
84621105953,-31.625,13.5,3.875
84621126992,-33.4375,14.9375,3.1875
84621149463,-18.625,9.875,-9.375
84621165958,-5.8125,6.1875,-23.75
84621188180,0.625,5.4375,-21.6875
84621209446,2.5625,3.625,-13.6875
84621226559,3.9375,2.6875,3.3125
84621247009,3.6875,3.25,16.75
84621269521,2.375,2.9375,20.875
84621285963,4.125,1.625,19.125
84621306977,3.3125,-1.9375,15.5625
84621329454,0.5,-7.125,15.1875
84621345953,0.6875,-10.125,16.9375
84621366982,4.625,-11.0625,17.4375
84621389494,0.875,-11,15.5
84621405987,-2.75,-6.1875,7.625
84621426987,-7.75,-0.3125,-0.25
84621449469,-10.625,1.6875,-4.5
84621465267,-7.375,2,-4.75
84621486956,-2,0.25,-4.8125
84621509457,-0.5625,-1.5,-4.125
84621525281,0.6875,-2.6875,-0.5625
84621546966,-0.375,-3.125,3.1875
84621562781,-3.0625,-1.875,3.3125
84621585296,2.1875,-2.125,2.9375
84621607005,-3.875,-4.5,6.25
84621622840,-1.5,-8.375,7.1875
84621645248,3.5625,-5.6875,9.125
84621668447,3.6875,-4.6875,3.125
84621689456,6.625,-8.5625,-1.3125
84621705267,7.375,-12.9375,3.5625
84621728433,3.8125,-14.25,2.875
84621749561,3.6875,-10.6875,3.5625
84621765301,0,-5.75,4.4375
84621797373,-1.5625,-9.125,0.1875
84621811520,5.1875,-11.625,0.0625
84621812295,5.1875,-11.625,0.0625
84621817559,-1.5,-8.375,7.1875
84621825353,20.6875,-13.375,-5.75
84621848428,10.875,-7.625,-10.375
84621869508,-11.3125,-5.4375,-17.1875
84621885308,-30.1875,-5,-29.6875
84621908452,-55.5625,-2.9375,-44.8125
84621929475,-64.375,-0.25,-58.9375
84621945282,-62.3125,1.25,-78.4375
84621968420,-69.1875,2.8125,-95.125
84621989474,-86.125,6.75,-106.5
84622005309,-99.75,12.1875,-115.625
84622028460,-110.75,20.3125,-120.938
84622049516,-116.938,28.5,-129.062
84622065931,-118.625,39.25,-135.75
84622089936,-126.375,47.5,-137.062
84622109461,-130.625,52.6875,-138.688
84622125297,-130.188,57.875,-138.438
84622148484,-138.438,65.875,-134.75
84622169528,-157.188,75.125,-132.188
84622185280,-170.5,80.4375,-125.688
84622208430,-166.875,80.0625,-117.625
84622229522,-157.062,81.375,-109.938
84622245259,-148.688,88.3125,-104.5
84622268412,-145.875,99.125,-99.4375
84622289555,-149.125,111.125,-90.8125
84622305293,-148.875,115.25,-82.875
84622328442,-133.625,113.312,-70.5
84622349491,-109.438,111.938,-65.0625
84622365280,-79.6875,109.875,-65.4375
84622388637,-65.9375,107.688,-62.0625
84622409493,-75.4375,105.062,-55.875
84622425341,-83.375,96.6875,-48.875
84622447804,-82.9375,90.9375,-43.4375
84622469548,-56.25,80.75,-44.125
84622488090,-56.75,63.5625,-37.5625
84622507780,-46.5,56.3125,-33.6875
84622529553,-35.0625,50.875,-36.5
84622545950,-26.1875,44.25,-35.375
84622567768,-19.375,47.625,-37.3125
84622590933,-12.1875,45.0625,-39.0625
84622605315,-7.375,43.8125,-39.6875
84622627824,-1.1875,30.3125,-26.9375
84622650971,-0.375,21.3125,-22.6875
84622665940,1.1875,10.875,-15.875
84622687766,2.3125,5.4375,-11.3125
84622710939,3.375,-5.0625,-2.125
84622725282,-7.125,-8.8125,0.6875
84622747831,-5.8125,-10.9375,4.1875
84622770976,-7.9375,-12.0625,6.75
84622785291,-4.4375,-13.3125,15.5625
84622807861,-8.4375,-15.375,19.8125
84622830972,5.4375,-12.125,16.875
84622853451,4.0625,-16.3125,18.9375
84622867824,2.3125,-7.125,14.5
84622890969,-0.375,-8.75,10.5
84622911998,-0.375,-8.125,9.6875
84622927837,-0.625,-9.6875,8.375
84622950939,3.0625,-9.9375,4.9375
84622965262,3.125,-8.9375,2.1875
84622987809,-0.5625,-7.8125,2.25
84623010992,-2.25,-9.5,4.25
84623025318,3.0625,-11.1875,4.625
84623047839,6.4375,-10.9375,4.75
84623071009,5.4375,-8.9375,3.625
84623092019,4,-7.25,3.4375
84623107830,6.5,-6.8125,3.9375
84623130986,7.625,-7,5.1875
84623152038,8.5,-7.125,7
84623167818,14.5,-7.375,8.25
84623190982,23.3125,-9.3125,10
84623212008,30.6875,-15,12.8125
84623227783,26,-21.875,19.4375
84623251018,24,-29.6875,23.25
84623272122,30.75,-38.4375,25.9375
84623287805,42.125,-45.25,32
84623310977,43.625,-53.125,38.3125
84623333447,38.1875,-59.5625,48.375
84623347837,42.5625,-60.3125,57.875
84623370315,63.1875,-56.1875,62.125
84623392065,81.0625,-53.5,64.3125
84623407833,82.625,-55.375,72
84623430368,89.375,-55.1875,78.8125
84623452033,98.6875,-53.9375,79.625
84623467832,98.0625,-57.375,80.6875
84623490333,83.875,-66.875,85.8125
84623513480,78.625,-67.9375,85.5625
84623527776,72.625,-67.5625,82.4375
84623550284,62.6875,-71.5625,83.75
84623573491,64,-75.5,91.75
84623587838,55.6875,-75.9375,101.188
84623610325,52.8125,-83.875,107.812
84623640954,72.375,-93.0625,111.625
84623647805,94.1875,-91.75,115.312
84623670305,110.062,-77.1875,113.062
84623693459,104.062,-60.625,105.062
84623707854,84.875,-54.0625,106.188
84623737039,84.6875,-55.9375,108.438
84623753480,109.688,-55.375,101.812
84623767856,126.812,-45.0625,86.9375
84623790301,123.312,-34.625,80.0625
84623813455,120.688,-26.6875,77.4375
84623834527,126.75,-19.625,68.375
84623850367,126.688,-15.375,64.4375
84623873538,117.875,-12.8125,63.6875
84623894524,109.75,-12.5,61.6875
84623910333,110.438,-11.4375,56.125
84623923910,114.5,-10.9375,52.5625
84623946416,106.812,-7.8125,53.9375
84623970007,80.4375,-9.5,53.4375
84623983866,49.75,-17.875,58.625
84624006366,36.125,-27.375,65.9375
84624029614,30.6875,-39.0625,71.3125
84624052696,19.3125,-46.8125,75
84624066346,5.625,-42.5625,75.25
84624089565,3,-37.125,72.5
84624103876,15.8125,-23.875,38.3125
84624126384,-25.8125,-19.75,-1.3125
84624149557,-72.3125,-19.4375,-19.1875
84624163838,-29.875,-8.8125,-21.125
84624186389,33.5625,5.0625,-10.875
84624209626,41.25,11.25,2.5
84624223933,15.8125,9.1875,9.1875
84624246857,-6.5,4.875,7.375
84624269542,-16.625,2.9375,-0.0625
84624292714,-12.25,0.125,-5.9375
84624306378,0.5625,-4.125,-5.3125
84624329643,12.5625,-7.0625,-1
84624343873,11.4375,-2.1875,2.1875
84624367101,4.5,3.8125,-0.4375
84624389544,0.1875,5.75,-5.0625
84624403909,3.625,4.75,-7.5625
84624427058,9.3125,2.5,-7.6875
84624449549,10.3125,1.625,-5.75
84624463918,4.5625,2.9375,-3.0625
84624486411,-0.5,3.125,-1.625
84624509583,-1.5625,1.8125,-0.0625
84624524018,-0.0625,0.5,0.8125
84624546361,0.3125,0.3125,0.3125
84624569576,0.25,0.625,0
84624583859,1.3125,0.6875,0.0625
84624606459,1.6875,0.25,0.25
84624629690,1.25,0.3125,1.375
84624643955,0.8125,0.625,1.3125
84624666349,1.3125,0.5625,0.125
84624689577,0.5625,-0.1875,-1.1875
84624703921,1.5625,-1.125,-1.5
84624726376,1.75,-1.0625,-1.0625
84624749521,-0.1875,-0.25,-2.125
84624763836,0.1875,1.125,-2.9375
84624786420,1.125,1.25,-3.0625
84624809587,0.4375,0.75,-1.75
84624823956,-0.25,1,-1.75
84624847834,0.75,1.1875,-1.4375
84624869547,1.1875,1.0625,-1.125
84624892011,-0.5,1.0625,-0.25
84624906373,-2.6875,0.75,0.5625
84624929508,-2.3125,0.5625,0.125
84624943882,0.1875,0.4375,-0.6875
84624966394,0.875,0.1875,-0.625
84624989533,0.25,0.0625,0.125
84625003904,-1.1875,0.1875,-0.125
84625026410,-2.0625,0.375,-0.5625
84625073169,-0.25,0.3125,-0.9375
84625081681,0.875,-0.25,-0.125
84625086416,0.1875,-0.4375,0.4375
84625117528,-1.625,-0.25,0.6875
84625125326,-2.5625,0.4375,0.6875
84625146432,-1.6875,1.0625,0.875
84625169566,-0.9375,1.6875,0.75
84625183990,0,1.75,-0.125
84625206472,0.625,1.0625,-0.0625
84625229573,0.25,0.4375,-0.1875
84625252066,-0.75,0.625,-0.125
84625266447,-1.875,0.75,-0.0625
84625289625,-1.25,0.4375,0.25
84625303976,0.1875,0.8125,0.375
84625326451,-0.375,1.25,0.1875
84625357795,0.1875,1.4375,-0.3125
84625364004,0.9375,1.375,-0.3125
84625386424,0.75,0.875,-0.1875
84625408995,0.125,0.75,0
84625423984,-0.25,0.375,-0.4375
84625446427,0.1875,0.3125,-0.5
84625468864,-0.0625,0.375,-0.1875
84625483957,-1,0.625,-0.125
84625506404,-1.125,0.4375,0.375
84625528906,0.125,1.375,0.8125
84625543887,0.4375,1.5625,1.125
84625566489,-0.5625,1.25,0.4375
84625589019,0.25,0.8125,-0.5
84625603862,1.4375,0.3125,-1
84625626455,1.75,1.0625,-0.5625
84625648871,2.3125,3.125,-0.0625
84625663991,4.625,6.3125,-0.4375
84625686437,6.6875,7.75,-0.875
84625709002,9.5625,7.375,-0.625
84625723925,11.625,6.4375,1.3125
84625746399,11.9375,5.9375,4.5625
84625768916,5.5,8.75,7.3125
84625783983,3.25,10,4.5625
84625806443,7.25,8.25,2.1875
84625828968,10.75,5.5,2.375
84625843873,8.5625,2.375,2.4375
84625866371,3.0625,-0.9375,1.1875
84625889053,-1.1875,-2.75,-0.0625
84625903971,-2.75,-3.0625,-0.5625
84625926459,-1.8125,-3.9375,-1.375
84625948920,2.875,-4.8125,-1.875
84625963903,8.8125,-5.625,-0.5
84625986430,5.375,-6.3125,-1.6875
84626008941,-1.8125,-5.8125,-7.125
84626024024,-5.5625,-3.5,-11.4375
84626046420,-5.25,-2.25,-11.5625
84626068996,-11.5625,1.75,-11.4375
84626083958,-22.9375,7.375,-20.3125
84626106472,-34.0625,23,-39.75
84626128997,-45.625,34.0625,-57.625
84626143954,-56.1875,38.3125,-73.5625
84626166429,-64.5625,42.125,-92.125
84626188985,-74.5625,45.0625,-112.375
84626205381,-79.3125,45.25,-130.25
84626226475,-97.1875,48.0625,-139.562
84626248865,-132.75,49.75,-142.812
84626265385,-155.875,51.5,-146.875
84626286412,-169.5,51.75,-148
84626308975,-179.938,53.8125,-146.25
84626325450,-184.75,57.9375,-143.375
84626346433,-188.438,63.375,-136.875
84626368973,-187.125,71.5,-129.625
84626385356,-180,78.0625,-120.438
84626406505,-167.938,82.75,-109.75
84626428968,-154.5,84.5,-101.562
84626446822,-147.812,85.125,-90.6875
84626466380,-139.562,89.1875,-82.25
84626488971,-133.062,93.125,-77.25
84626512888,-131.5,94.25,-72.5625
84626526435,-125,92.375,-68.1875
84626548941,-113.375,91.6875,-63.875
84626565425,-104.562,91.8125,-62.0625
84626586420,-93.4375,95.5625,-65.3125
84626609122,-72.9375,99.6875,-64.625
84626625430,-67.4375,88,-60.6875
84626646415,-42.25,86.5625,-59.8125
84626668970,-26.75,82.3125,-54.375
84626686065,-4.3125,75.1875,-50.1875
84626706482,5.625,63.4375,-47
84626728978,17.875,62.6875,-43.6875
84626754344,10.375,54.625,-37.375
84626774556,2.875,46.6875,-32.4375
84626788984,0.625,36.9375,-26.125
84626805406,4.75,26.25,-18.4375
84626826407,10.25,15.625,-11.625
84626848933,13.9375,1.6875,-4.0625
84626865375,12.5625,-10.375,2.25
84626886431,7.875,-17.0625,5.9375
84626909009,3,-22.9375,7.25
84626925385,3.9375,-27.8125,10.0625
84626954584,7,-35.25,17.3125
84626968957,6.6875,-40.1875,22.75
84626985426,4.875,-40.3125,25.125
84627006492,5.5,-39.8125,28.375
84627028966,17.4375,-40.75,30.1875
84627045407,35.5,-43,32.9375
84627066438,54.8125,-44.875,37.3125
84627089011,73.4375,-46.5,40.3125
84627105999,82.125,-49.6875,40.5625
84627126496,79.6875,-57.1875,39.3125
84627148979,75.3125,-68.1875,45.5625
84627165350,77.125,-76.875,55.9375
84627187983,77.0625,-85,60.5
84627209004,78.5,-94.625,61.8125
84627225394,81.8125,-105.25,70.625
84627247930,90.625,-106.875,82.75
84627268971,90.625,-102.5,91.1875
84627286091,87.4375,-102.375,94.8125
84627307947,84.75,-109,100.625
84627328979,98.875,-113.625,107.5
84627345444,111.688,-103.812,109.812
84627367970,116.75,-92.125,104.438
84627388972,113.938,-82.25,99.875
84627405383,102.812,-78.5625,100.938
84627427932,97.1875,-77.625,100.375
84627448966,106.25,-70.4375,95.3125
84627465406,106.438,-61.25,88.8125
84627487929,105.062,-53.4375,84.6875
84627509011,104,-51.5,84.375
84627525401,95.8125,-48.0625,88.1875
84627547956,83.9375,-39.375,87.125
84627568956,77.5,-33.25,79.6875
84627585396,78,-33.1875,76.1875
84627607973,76.5,-33,77.75
84627628962,76.0625,-29.0625,76.125
84627645376,73.9375,-21.9375,66.1875
84627667957,75.5,-19.0625,56.9375
84627697128,77.4375,-14.875,54.75
84627705421,78.25,-2.8125,56.1875
84627727942,67.3125,7.4375,44.5625
84627748944,73.625,10.75,32.1875
84627764623,93.875,10.9375,31.75
84627787122,102.438,7.25,31.0625
84627809663,90.875,6.4375,31.5
84627824663,66.875,-0.125,30.5625
84627847143,54.4375,-17.0625,33.875
84627877832,45.9375,-28.375,35.875
84627884576,30.125,-30.4375,19.9375
84627907165,-0.8125,-25.0625,-10.875
84627929618,-23.5625,-6.4375,-11.75
84627944621,-13.4375,7.9375,-3.625
84627967179,0.125,14.5,3.4375
84627989668,-0.6875,18.3125,6.9375
84628004656,1,10.3125,-0.4375
84628027106,-9.5625,4.1875,-5.25
84628049620,0.3125,14.625,12.5
84628064637,-3.8125,6.875,3.625
84628087140,-8.375,-5.25,-9.625
84628109648,-2.875,0,0.4375
84628124360,-5.0625,0.5625,0.125
84628147148,-7.6875,1.375,-1.5
84628169656,-7.625,2.5625,-3.125
84628184673,-7.8125,0.75,-5.0625
84628207105,-6.5,-0.375,-5.25
84628229613,-2.625,-0.8125,-4.25
84628246099,0.125,0.375,-4.0625
84628267069,-1.9375,1.3125,-3.0625
84628289611,-6.3125,1.625,-1.6875
84628306153,-6.5,1.4375,0.25
84628327182,-2.625,2.0625,1.5625
84628349594,0.0625,2.5,0.625
84628366084,-0.125,1.375,0.5625
84628387111,-0.25,0.8125,1.1875
84628411078,-1.875,-0.75,1.1875
84628426041,-0.1875,-0.5,0.5625
84628447117,0.8125,-1.25,-0.125
84628469626,-1.5,-2.4375,-0.375
84628486051,-1.5625,-3.25,-0.5625
84628507147,-0.3125,-3.125,-0.875
84628529622,-0.25,-2.0625,-0.875
84628546070,-1.375,-0.5,-0.75
84628567168,-2.3125,0.3125,-0.5
84628589612,-1.375,0.8125,-0.25
84628606054,0.375,1,-0.1875
84628627104,0.9375,0.5,-0.25
84628649663,0.375,0.375,0.375
84628666092,-1.125,-0.0625,0.75
84628688558,-0.25,-0.5,0.4375
84628709612,1.5625,-0.5,0.25
84628726680,1.6875,-0.1875,-0.3125
84628747138,-0.9375,0.25,-0.3125
84628769645,-1.75,0.125,-0.3125
84628786070,-0.1875,-0.375,-0.0625
84628807152,-0.125,-0.3125,-0.1875
84628829588,-0.4375,0.125,-0.0625
84628846030,-0.9375,0.4375,-0.125
84628867142,-0.1875,0.0625,-0.25
84628889672,1.1875,-0.125,-0.3125
84628906079,1.75,0,-0.125
84628927141,0.0625,-0.3125,0.125
84628949645,-0.75,-0.4375,0.1875
84628966070,0.3125,-0.4375,0
84628987181,1.25,-0.25,-0.3125
84629009670,0.625,0.25,-0.125
84629026075,-0.4375,0.1875,0.375
84629047123,-0.5625,-0.1875,0.6875
84629069626,0,0,0.125
84629085433,0.6875,0,-0.5625
84629107165,1.1875,-0.1875,-0.4375
84629129603,2,0.1875,-0.5
84629145373,2,0.1875,-0.375
84629167125,0.1875,-0.4375,-0.3125
84629189632,-0.0625,-0.1875,-0.0625
84629205439,0.0625,-0.8125,0.25
84629228579,0.125,-0.625,0.4375
84629249648,-0.5625,-0.5,0.3125
84629265407,-1.0625,-0.375,-0.25
84629288555,-0.5,0,-0.4375
84629311079,-0.3125,0.3125,-0.1875
84629326086,-0.875,0.25,0.1875
84629348583,-0.9375,-0.125,-0.1875
84629369641,-0.5625,-0.3125,-0.0625
84629385408,-0.625,-0.4375,-0.125
84629408557,-0.75,-0.25,0.125
84629429664,0.0625,-0.5625,0.75
84629445424,-0.5,0,0.9375
84629476057,-0.8125,0.4375,-0.0625
84629489646,0.3125,0.8125,-0.625
84629519672,1.375,0.4375,-0.8125
84629528552,1.0625,0.0625,-0.4375
84629549614,0.5,0.1875,-0.125
84629565463,0.8125,0.5,0
84629588609,0.0625,0.4375,0.0625
84629609635,-0.375,0.25,0
84629625426,0,0.25,0.1875
84629648580,0.3125,-0.125,0.5625
84629669642,-0.5,-0.125,0.5625
84629685428,0,0.0625,0
84629708632,0.1875,-0.0625,-0.4375
84629729660,0.125,0.125,-0.4375
84629745447,0.375,0.1875,-0.1875
84629768655,0.5625,0.125,0.3125
84629789435,0.125,0.125,0.3125
84629805461,-0.0625,0.125,0.1875
84629828588,-0.3125,0.4375,0.1875
84629849607,-1.6875,0.25,-1.8125
84629865453,2.5625,-0.25,0
84629889082,2.0625,0.625,0.4375
84629909672,-1.625,1.25,-0.375
84629925428,0.5,1.5,-0.3125
84629948575,4.5625,0.0625,0.6875
84629969666,3.375,-0.375,0.3125
84629985445,-0.5,-0.125,0.0625
84630007964,-1.4375,-0.0625,0.125
84630029627,-1,0.1875,0.1875
84630045473,-0.75,0.1875,0
84630067976,-0.1875,0.125,-0.4375
84630089685,-0.25,-0.375,-0.1875
84630105471,-0.9375,-1.25,0.0625
84630127929,-1.8125,-1.75,0.0625
84630149658,-1.3125,-2,0.375
84630165445,-0.5,-2.0625,-0.25
84630187942,-0.125,-0.8125,0.0625
84630211562,-0.125,0.6875,-0.125
84630225408,0.8125,1.0625,-0.1875
84630247951,2.125,0.4375,0.125
84630271151,3.5,0,0.25
84630285470,3.125,-0.25,0.3125
84630307926,2.3125,-0.3125,0.6875
84630331082,5.25,-0.4375,1.8125
84630345430,4.625,1.0625,2.3125
84630367959,-1.625,1.6875,1.1875
84630390946,-4.75,1.4375,0.875
84630405421,0.4375,0.125,2.375
84630427950,4.9375,-1.25,5.4375
84630451165,0.25,-2.375,6
84630465454,0.375,-1.3125,1.1875
84630487960,7.5,-1.9375,-0.875
84630511112,8.4375,-0.3125,2.8125
84630525436,-2.875,3.125,4.5
84630547930,-7.4375,4.6875,-2.1875
84630571146,-3.25,4.4375,-8.8125
84630585450,1.5625,-0.6875,-8.875
84630607975,-44.125,-16.1875,-17.6875
84630632551,-62.5625,-22.6875,-21.8125
84630652181,-55.5625,-19.5,-29
84630667983,-47.3125,-17.5625,-29.5
84630691164,-48.25,-9.9375,-25.125
84630712176,-50.125,-4.5625,-35.0625
84630727953,-52.1875,8.375,-50.875
84630751108,-59.25,19.25,-63.1875
84630772171,-69.875,24.9375,-76.5
84630788018,-79.6875,30.1875,-94.75
84630811169,-88.1875,34.375,-111.312
84630832233,-105.688,38.4375,-120
84630847981,-122.562,40.625,-127.875
84630871131,-142.125,42.3125,-132.625
84630892175,-162.438,45.9375,-136.25
84630907929,-177.125,49.0625,-133.938
84630930510,-188.75,53.0625,-128.625
84630953632,-196.25,58.875,-126.562
84630967989,-201.688,64.5625,-126.25
84630990470,-202.062,69.5625,-122.812
84631012193,-193,77.375,-114.375
84631027989,-178.75,82,-106.375
84631050458,-169.5,81.3125,-104
84631072216,-176.625,65.5625,-103.812
84631088003,-192.062,52.375,-95.5
84631110466,-196.125,46.5625,-73.375
84631133594,-182.562,53.75,-52.9375
84631148037,-154.062,63.5,-46.25
84631170502,-128,71.5625,-53.0625
84631193660,-112,85.8125,-55.5625
84631207982,-84.8125,98.8125,-54
84631230969,-39.9375,108.625,-56
84631253607,2.125,114.312,-65.5
84631267979,22.9375,115.5,-72.625
84631290467,32.0625,121.938,-75.9375
84631321363,28.75,119.812,-70.5625
84631329341,-1.8125,103.125,-58.4375
84631350431,11.4375,86.25,-46.0625
84631373704,20.9375,66.9375,-32.3125
84631394712,24.0625,44.5,-16.25
84631410477,13.9375,26.8125,-2.75
84631433656,9.375,14.6875,10.625
84631462251,5.9375,-1.125,18.625
84631470449,8.3125,-18.5,23.75
84631493610,3.8125,-26.5,30.625
84631514728,-5.4375,-29.625,35.4375
84631530492,-5.25,-32.8125,37.1875
84631553647,5.5,-35.1875,40.75
84631574681,18.6875,-37.5,41.75
84631590513,17.4375,-39.625,42.25
84631604041,14.625,-38.375,43.8125
84631626518,19.25,-38.5,46.3125
84631649678,24.25,-41.1875,49.75
84631664035,25.4375,-46.4375,54.75
84631686534,33.4375,-50,58.625
84631709753,47.4375,-50.375,59.0625
84631732889,53.875,-48.375,61.875
84631746598,55.3125,-49,67.1875
84631769682,73.3125,-53.6875,72.375
84631784051,117.125,-53.625,74.625
84631806584,144.25,-49.125,72.1875
84631829719,135.75,-47.5,72.125
84631844033,115.5,-47.75,81.3125
84631866533,112.438,-51,91.75
84631889724,106.812,-49.75,96.125
84631904048,98.625,-54.875,93.125
84631926562,98.5625,-67.5,101.688
84631949695,106.438,-73.8125,111.938
84631964023,101.312,-75.6875,117.188
84631986554,90.75,-80.5,117.938
84632009714,76,-83.5,122.875
84632024090,66.4375,-83.625,128.125
84632046537,62.1875,-86,124.625
84632069717,61.9375,-93.3125,117.438
84632084004,68.25,-97.75,114.062
84632106576,74.9375,-97.0625,116.312
84632129734,73.4375,-89.5,114.312
84632144064,71,-84.1875,105.125
84632166509,70.8125,-79.3125,93.0625
84632189692,72.375,-69.6875,86.0625
84632204053,69.125,-53.75,74.125
84632226583,67.625,-40.25,59.75
84632249709,71,-31.625,52.125
84632264099,74.125,-23.4375,47.875
84632286569,87.25,-12.0625,40.75
84632309776,97.375,-2.3125,35.1875
84632324088,100.312,7.9375,35.5
84632346521,106.938,25.3125,26.5625
84632369752,106.938,32.4375,21.125
84632384071,95.0625,21.875,19.0625
84632406532,83.6875,21.125,21.875
84632429733,68.125,19,31.5625
84632444015,61.8125,2.3125,39.5625
84632466516,56.4375,-20.6875,50.125
84632489708,44.5625,-36.9375,58.5
84632504063,30.375,-32.375,50.625
84632526576,-2.4375,-23.25,26.625
84632549791,-70.3125,-20.6875,5.5
84632564079,-91.8125,-22.3125,-8.25
84632586568,-39.25,-14.875,-1.3125
84632609798,14.125,-5.5625,4.5
84632624134,27.4375,2.5625,7.8125
84632646511,7.5625,5.25,4
84632669735,-18,6.3125,-4.125
84632684039,-23.125,7.1875,-5.625
84632706533,-9.875,5.75,-2.125
84632729722,1.0625,6.625,-0.4375
84632752248,4.125,12.125,-0.125
84632766556,6.8125,16,-3
84632789748,6.25,16.5625,-6.8125
84632804063,10.5625,17.1875,-8.125
84632826551,18.125,19.1875,-9.4375
84632849729,21.0625,21.0625,-10.875
84632864068,15.375,19.4375,-9.875
84632886561,8,14.9375,-7.8125
84632909793,1,12.3125,1.25
84632924063,1.6875,9.0625,0.5625
84632946533,1.9375,6.625,0
84632969720,0.9375,3.0625,1.875
84632984057,1,1.875,2.1875
84633006571,1.625,2.5625,1.1875
84633029108,0.8125,4.875,-0.125
84633044059,0.0625,5.625,-0.875
84633066557,-0.25,4.3125,-0.875
84633089095,0,2.3125,-1
84633104070,0.25,0.625,-0.8125
84633126623,0.75,-0.3125,-0.4375
84633149093,-1.125,-0.6875,-0.375
84633172240,-3.875,-1.625,-0.75
84633186551,-4.5,-2.8125,-1.0625
84633209073,-3.0625,-2.9375,-0.5625
84633224109,-1.25,-1.3125,-0.25
84633246573,-2.3125,0.125,-0.25
84633269109,-3.4375,0.5625,-0.125
84633284072,0.0625,0.5,0.875
84633306573,2.75,0.25,2.125
84633329067,2.25,-0.75,1.875
84633344113,2.125,-0.875,1.375
84633366541,1.875,-0.4375,0.375
84633389119,0.5625,-0.1875,-0.125
84633404038,0.25,-0.625,-0.0625
84633426562,-0.1875,-0.5625,0.25
84633449106,-2.125,-0.8125,-0.125
84633464154,-1.8125,-1.375,-0.5
84633486590,-0.125,-1.25,-0.4375
84633509151,0.375,-0.75,0.0625
84633524061,0.0625,0.25,0.25
84633546588,0.375,1.25,0.0625
84633569067,0.375,0.625,0.5
84633584077,-0.25,-0.4375,0.625
84633606617,-1.25,-0.75,0.5625
84633629109,-1.375,-0.3125,-0.5625
84633644087,-2.3125,0.8125,-2.3125
84633674788,-2,0.8125,-2.25
84633689116,-0.75,0.3125,-1.25
84633704066,-0.8125,-0.25,-0.0625
84633726614,-1.0625,-0.5,0.6875
84633749129,-1.6875,-0.75,0.25
84633772289,-1.5,-1.125,0.0625
84633786604,-0.8125,-1.5,0.4375
84633809115,-0.3125,-1.6875,0.9375
84633825500,-1,-2.3125,1.25
84633846557,-0.8125,-2.125,0.5625
84633869090,0.0625,-2.0625,-0.0625
84633885532,2.5,-1.0625,-0.4375
84633906617,3.5,0,-0.25
84633929058,1.6875,0.875,0.5
84633947620,0.5625,1,0.25
84633966558,0.3125,0.25,0.4375
84633989145,0.875,-0.5,0.4375
84634007019,0.5,-0.625,0.5
84634026605,-0.5625,-0.1875,0.3125
84634049099,-1.125,0.0625,0.125
84634065561,-0.5,0.3125,-0.25
84634086609,-0.125,0.4375,-1.125
84634109088,1,0.5625,-1.4375
84634127061,1.25,0.625,-1.1875
84634146593,-0.625,0.125,-0.6875
84634169068,-0.625,-0.75,-0.375
84634185560,0.4375,-1,0.6875
84634206612,0.5625,-0.5,0.75
84634237242,0.25,-0.125,0.0625
84634245544,-1.3125,0,0
84634266631,-0.125,-0.5625,-0.5
84634289087,2,-1.4375,-0.0625
84634305532,1.5625,-1.5625,0.1875
84634326604,0.125,-0.875,-0.3125
84634349117,0.1875,-0.5,-0.125
84634371608,1,-0.4375,0.5
84634386625,2,-0.4375,0.5625
84634409109,1.0625,-0.5,0.625
84634425521,0.4375,-0.8125,0.9375
84634446595,0.25,-0.875,1.125
84634469064,-0.375,-0.5625,0.75
84634485572,0.375,-0.0625,-0.1875
84634516170,1.125,-0.25,-0.5
84634529097,0.4375,-0.625,-0.125
84634545547,0.8125,-0.25,0.375
84634566549,1.875,-0.3125,0.6875
84634589123,1.625,-0.3125,0.5
84634605532,1.5625,-0.875,0.375
84634634722,2.8125,-0.6875,0.5
84634649052,2.375,0.1875,0.6875
84634665544,2,0.5,0.625
84634686578,3.0625,-0.125,0.75
84634709116,2.75,0.25,1.5
84634725563,-0.1875,-0.25,1.75
84634748088,-0.6875,-0.625,0.1875
84634769092,0.125,0.25,0.625
84634785581,0.6875,1.1875,-0.0625
84634808020,1,1.4375,-0.75
84634829140,1.25,0.625,-0.5
84634845530,1.3125,-0.25,-0.5
84634868085,0.4375,-1.125,-0.625
84634889149,0.0625,-1.3125,-0.875
84634905523,0.375,-0.6875,-0.75
84634928038,0.5625,-0.375,-0.4375
84634949142,0.125,0.625,-0.1875
84634965533,-0.25,0.4375,-0.0625
84634988070,-0.5625,-0.25,-0.0625
84635009139,-0.5625,-0.6875,0.3125
84635025502,-1.0625,-0.375,-0.0625
84635048071,-2.0625,-0.0625,-0.75
84635069112,-3.5625,-0.1875,-1
84635085572,-4.875,-1.0625,-0.4375
84635108047,-4.625,-0.0625,0.5625
84635129084,-1.25,1,1
84635145577,5.125,2.125,0.125
84635168071,8.3125,0.875,0.75
84635189118,8.5,0.125,0.75
84635205547,3.875,-1.1875,1.8125
84635228064,6.875,-5,4.75
84635249086,11.375,-11.5625,10
84635265562,11.375,-22.0625,12.1875
84635288035,-15.875,-31.8125,3.1875
84635309149,-111.375,-29.25,-4.375
84635325538,-119.062,-6.5,-15.6875
84635348054,-131.625,-5.75,-20.5
84635377298,-128.25,1.875,-35.0625
84635386243,-116.062,18.9375,-60.4375
84635408083,-118.188,38.5625,-86.25
84635429124,-119.312,54,-107.688
84635444810,-118.938,64.8125,-118.688
84635467256,-128.562,73.25,-125
84635489779,-137.938,79,-131
84635504784,-139.562,81.375,-136.375
84635527306,-140.125,81.6875,-137.75
84635557999,-139.938,82.4375,-139.5
84635564773,-140.938,81.5,-139.375
84635587302,-152.562,82.8125,-137.5
84635609796,-163.438,87.5625,-137.062
84635626249,-160.875,96.375,-136.375
84635647246,-155.75,103.812,-130.875
84635669781,-160.5,108.375,-126.062
84635686265,-153.625,103.438,-118.75
84635707276,-139.438,94.5,-108.375
84635729763,-125,93.1875,-103
84635744785,-118.625,94.375,-99.375
84635767281,-117.125,97.75,-94
84635789816,-106.625,99.4375,-90.125
84635804802,-92,100.75,-91.3125
84635827276,-73,103.875,-96.8125
84635849781,-61.6875,107.938,-98.3125
84635866193,-52.4375,121.938,-103.312
84635887525,-38.3125,117.875,-103.5
84635909785,-44.0625,119,-103.188
84635926230,-32.5625,108.812,-103
84635947330,-21.5625,97.75,-96.9375
84635969812,-7.8125,80.3125,-82.5
84635986975,-5.0625,80,-67.875
84636007329,-3.625,65.6875,-54.5625
84636029763,-0.6875,51.25,-40.5625
84636046224,6.375,35.5625,-22.375
84636067256,9.4375,21,-4.9375
84636089823,8.25,7.9375,11.625
84636106247,14.6875,-7.1875,27.875
84636127347,18.75,-24.6875,44.25
84636149785,17.875,-36.4375,55.375
84636166234,14.1875,-43.5,64.0625
84636187259,13.8125,-51.625,71.375
84636209844,13.5625,-58.5625,72.6875
84636226650,13.625,-66.125,74.5625
84636247279,8.75,-73.375,80.375
84636269796,-2.6875,-80.375,90.125
84636286281,-4.0625,-90.8125,98.5
84636307267,7.75,-95.6875,104.625
84636329773,22.125,-99.3125,105.562
84636346204,29.75,-101.938,105.875
84636367346,24.75,-103.188,105.75
84636389790,19.4375,-107.25,101.562
84636406238,30.875,-108.125,97.125
84636427292,67.25,-99.75,95
84636449769,94.25,-94.0625,96.25
84636466202,82.75,-87.375,90.5625
84636487344,66.6875,-91.1875,84.4375
84636509809,77.6875,-81.875,87.3125
84636526226,108.75,-72.1875,88.875
84636547311,143.812,-66.6875,83.8125
84636569797,147.375,-66.9375,79.625
84636586226,135.875,-68.25,86.25
84636607334,134.875,-66.3125,99.125
84636629864,138.688,-68.125,105.625
84636645599,142.75,-69.6875,111.438
84636667291,135.688,-69.1875,116.75
84636689850,112.875,-67.5,119.625
84636705586,92.25,-67.75,115.875
84636727349,88.6875,-70.6875,108.812
84636749816,88.1875,-69.625,106.812
84636765632,83.625,-67.6875,101.875
84636787286,71.5,-75.8125,98.8125
84636809816,79.6875,-74.5625,95.0625
84636825571,84.5,-66.125,91.75
84636848739,73.5,-60.0625,87.0625
84636869831,67.875,-56.25,72.875
84636885610,75.125,-46,65.125
84636908773,76.5,-55.4375,56.75
84636929800,60.8125,-66.625,49.4375
84636945606,55.4375,-58.4375,29.0625
84636968715,40.4375,-41.625,27.0625
84636991322,-38.1875,-39.125,-14.625
84637013752,-159.625,-40.0625,-5.8125
84637028732,-229.25,-33.25,14.9375
84637049834,-115.188,-25.625,31.75
84637065618,11.8125,-20.6875,19.1875
84637088792,14.5,-12.625,30.8125
84637109831,43.625,0.0625,9.5625
84637125604,114.562,19.25,6.4375
84637156307,134.688,3.9375,24.8125
84637169826,127.25,5.4375,15.5
84637186289,57.0625,14.9375,36.5625
84637208780,31.1875,23.125,7.5625
84637229823,30.9375,14.6875,-7.9375
84637245588,10.1875,8.5625,-12.75
84637268762,-10.6875,5.6875,-12.5
84637289796,-19.6875,5.3125,-7.75
84637305617,-28.0625,4.8125,-1.375
84637334813,-33.0625,4.5625,0.4375
84637349891,-31.875,3,-1.5625
84637365636,-24.25,0.625,-3.5625
84637388789,-18.0625,-0.4375,-2.5
84637409866,-14.3125,-0.625,-1.0625
84637425609,-9.6875,0.4375,-0.6875
84637448785,-2.75,1.375,-0.625
84637469809,3.25,2.375,-0.625
84637485636,8.6875,2.625,-0.375
84637508812,9,1.9375,-0.5
84637529829,6.25,1.6875,-1.3125
84637545572,3.125,0.875,-1.0625
84637568083,-0.25,1.3125,-0.9375
84637589855,-3.0625,1.625,-0.375
84637613757,-4.4375,1.125,-0.5
84637628158,-5.25,0.9375,-1.3125
84637649810,-5,0.5625,-1.3125
84637665631,-4.75,0.125,-0.75
84637688140,-5.9375,-0.1875,-0.5
84637711296,-6.75,-0.125,-1.0625
84637725608,-6.0625,-0.25,-1.0625
84637748077,-5.375,-0.125,-0.375
84637771239,-3.5,0.125,-0.125
84637785577,-1.5,0.375,-0.125
84637808165,1.6875,0.0625,0.0625
84637831304,3.4375,-0.75,-0.125
84637845634,1.75,-0.6875,-0.0625
84637868084,-0.4375,-0.5,-0.0625
84637891281,-1.8125,0.125,-0.6875
84637913811,-2.8125,0.1875,-0.9375
84637928126,-2.875,0.3125,-1.1875
84637951261,-1.5,-0.0625,-1.125
84637965672,-0.75,0.5,-0.5625
84637988107,-1.0625,0.8125,-0.5625
84638011261,-1.0625,0.5,-0.1875
84638025647,-0.375,-0.25,0.125
84638048119,-1.0625,-0.3125,0.4375
84638078761,-2.1875,0.1875,0.8125
84638085605,-1.5,0.375,0.5625
84638108138,-0.8125,1,-0.1875
84638131234,-0.125,1.5,-0.375
84638145657,-0.3125,1.3125,-0.0625
84638168116,-0.75,0.75,0.4375
84638191314,-0.9375,-0.1875,0.4375
84638206257,-1.3125,-0.3125,0.25
84638228071,-0.8125,-0.5,0.1875
84638251240,-0.6875,-0.4375,0.1875
84638272366,-0.875,-0.4375,0.5625
84638288156,-0.9375,-0.3125,0.4375
84638311285,-1.4375,-0.3125,0.375
84638332357,-1.75,-0.125,0.1875
84638348102,-1.4375,-0.125,-0.1875
84638371264,-0.8125,-0.1875,-0.1875
84638392162,-0.4375,-0.375,-0.0625
84638408128,-0.25,-0.5,0
84638431276,0.0625,-0.5625,0.125
84638452378,0.125,-0.5,0.0625
84638468156,1.0625,-0.5,-0.25
84638491293,1.875,-0.6875,-0.0625
84638512358,1.1875,-0.1875,0
84638528134,-0.3125,1.5,0.1875
84638550620,-0.625,1.8125,0.6875
84638572380,-0.375,1.625,0.9375
84638588104,-0.0625,0.5,1.125
84638610608,-1.8125,0.0625,0.875
84638632311,-2.875,0.4375,-0.0625
84638648097,-2.8125,-0.25,-0.8125
84638678847,-1.9375,-0.4375,-1.375
84638692386,-0.25,-0.0625,-0.8125
84638708175,0.3125,0.5625,-0.125
84638730630,0.25,1,0.0625
84638753754,0.3125,0.625,-0.125
84638768123,0.3125,-0.3125,-0.4375
84638790595,-0.5,-0.375,-0.0625
84638813836,-1.9375,-0.125,1
84638828184,-1.5625,0.375,1.4375
84638850637,-0.6875,0.75,1.125
84638873808,0.4375,1.125,0.5
84638888099,1.4375,0.8125,0
84638910625,1.1875,0.5,0
84638933788,0.375,0.5,0.25
84638948186,0.5,0.375,0
84638970645,0.5625,-0.0625,-0.25
84639001262,0.75,-0.125,0.0625
84639008129,0.25,-0.1875,0.625
84639030664,-0.1875,-0.25,0.5
84639053785,-0.4375,-0.0625,0.125
84639068163,-0.5625,-0.1875,-0.25
84639090678,-0.625,0.125,-0.125
84639113811,-0.625,0.3125,0.0625
84639128142,-0.3125,0,-0.25
84639150625,0.125,-0.125,-0.4375
84639173824,-0.1875,-0.125,-0.375
84639188099,-0.4375,0,0.125
84639210687,-0.375,-0.125,0.125
84639233832,-0.25,-0.125,-0.0625
84639254857,-0.1875,-0.0625,-0.375
84639270632,-0.3125,-0.25,-0.3125
84639284201,-0.1875,-0.375,0.125
84639306691,0,-0.125,0.25
84639329887,-0.375,-0.1875,-0.25
84639344205,0.0625,-0.5625,-0.6875
84639366736,-0.0625,-0.4375,-0.375
84639389834,0.75,-0.5625,-0.8125
84639413017,2.4375,-0.625,-1.1875
84639426749,3.1875,-0.5,-1.5
84639449863,2.6875,-0.4375,-1.375
84639464196,1.25,-0.25,-0.4375
84639486651,-0.5625,0.25,0.125
84639510316,-1.5,0.1875,-0.125
84639524217,-1.375,-0.25,-0.4375
84639546728,-0.625,-0.4375,-0.1875
84639569844,-0.6875,0,0.25
84639584205,-0.5,0.1875,0.1875
84639606726,-0.125,0.25,-0.0625
84639629889,0.375,-0.0625,-0.1875
84639644239,1,-0.125,-0.625
84639666714,2.1875,-0.5,-1.9375
84639689890,8.9375,-2.5,-2.875
84639704274,23.25,-4.6875,1.625
84639726737,22.5625,-4.375,4.4375
84639749943,12.3125,-1.875,4.6875
84639764293,13.5625,0.0625,3.5
84639786694,24.625,-2.375,1
84639809934,41.375,-3.25,0.5625
84639832431,51.9375,-0.3125,-1.25
84639846656,75.6875,1.8125,-7.75
84639869885,98.25,5.625,-20.3125
84639884155,72.875,6.75,-38.625
84639906720,11.5625,6.375,-39.375
84639929890,-54.3125,10.875,-46.5
84639944228,-78.375,13.625,-56.8125
84639966721,-76.4375,16.75,-72
84639989889,-60,20.9375,-86.5625
84640012340,-61.6875,26.8125,-99.875
84640026683,-81.125,33.875,-113
84640049873,-97.3125,42.5625,-122
84640064206,-107.812,51.8125,-128.438
84640086720,-114.812,61.125,-134.875
84640109906,-114.562,67.875,-139.75
84640124220,-111.75,73.0625,-143.438
84640146716,-108.875,75.25,-146.938
84640169867,-109.75,74.5625,-145.625
84640184247,-118.188,78.75,-135.75
84640206749,-123.75,82.1875,-125.875
84640229931,-122.188,85.3125,-120.062
84640244262,-114.938,91.6875,-114.062
84640266694,-106.188,99.4375,-106.562
84640289893,-93.25,102.75,-100.25
84640304195,-81.6875,103.688,-98.75
84640326758,-64.4375,106.188,-100.938
84640349930,-30.625,108.688,-93.625
84640364186,-14.8125,100.688,-77.8125
84640386728,-32.9375,93.8125,-73.625
84640409955,-49.9375,89.3125,-73.0625
84640432363,-44.3125,94.0625,-70.5
84640446962,-16.8125,90.9375,-68.125
84640469927,-12.375,72.875,-65.4375
84640484186,-10.75,71.75,-69.8125
84640506713,-17.9375,70.75,-73.875
84640529904,-15.9375,70.25,-79
84640544231,-12.75,64.5625,-82.375
84640566811,-11.75,51.125,-83.625
84640598080,-17.6875,40.25,-80.5625
84640604261,-21.0625,28,-74.3125
84640626747,-19.25,16.375,-64.25
84640649258,-25,6.9375,-50.375
84640664232,-30.8125,1.625,-36.5625
84640686715,-26.375,-0.125,-25.5625
84640709235,-17.125,-1.8125,-15.0625
84640724256,-9.5625,-3.625,-6.25
84640746738,-4.25,-6.25,0.75
84640769241,1.6875,-7.6875,10
84640784210,10.0625,-12.4375,19.8125
84640806682,12.25,-17,30.1875
84640829248,9.4375,-21.5,40.0625
84640844238,6.6875,-28,48.6875
84640866738,9.875,-33.875,56
84640889254,19.9375,-39.1875,61.5625
84640904202,31.3125,-43.6875,66.6875
84640926710,37.5,-50.6875,73.5
84640949250,36.375,-60.1875,79.8125
84640964221,33.375,-70.3125,84.3125
84640986735,37.9375,-76.125,89.0625
84641009255,41.875,-80.125,90.375
84641024249,37.25,-83.875,90.875
84641046666,43.0625,-87.6875,93
84641069240,61.125,-87.25,94.75
84641084162,81.125,-82.1875,93.875
84641108207,83.1875,-79,89.75
84641129198,72.125,-83.4375,88.625
84641144267,82.125,-93.5625,94.5
84641166735,106,-99,103.062
84641189276,121.5,-89.25,100.25
84641204240,127.875,-76.0625,93.6875
84641226744,115.812,-68.5625,98.4375
84641250658,101.188,-75.1875,103.688
84641264230,99.0625,-80.8125,113.5
84641286775,94.25,-72.4375,120.438
84641309286,104.25,-59.0625,120.25
84641324247,119.812,-53.625,128.625
84641354908,121.812,-61.6875,140.438
84641369262,109.688,-68.25,143.688
84641385650,87.125,-58.4375,139.75
84641406711,69.75,-51.5625,139.375
84641429213,70.375,-44,135.938
84641445669,72.625,-35.25,123.375
84641466743,73.5625,-23.9375,96.25
84641489362,81.1875,-8.5625,70.625
84641505650,89.875,3.375,62.625
84641526717,82.0625,8.625,61.8125
84641549218,59.8125,8.625,63.3125
84641565655,46.5,4.6875,66.8125
84641586727,52.9375,-0.1875,52.375
84641609278,41.5625,-1,1.125
84641625716,-29.8125,0.4375,-36.0625
84641646762,-45,-0.8125,-46
84641669235,7.9375,4.25,-28.25
84641685716,53.375,7.625,-10.875
84641706775,47.25,7.0625,-4
84641729252,-1.4375,5.125,-3.625
84641745716,-34.8125,-3.5,-15.5625
84641766757,-19.5625,-9.0625,-22.9375
84641789287,17.125,-13,-19.3125
84641807215,34.0625,-13.8125,-13.875
84641826753,24.875,-11.125,-10.5
84641849266,6.0625,-7.9375,-11.125
84641865714,-3.4375,-7.5,-13.6875
84641886782,-6.0625,-4.1875,-13.875
84641909273,-10.25,-1.6875,-13.4375
84641925677,-6.0625,-7.6875,-12.9375
84641946711,13.0625,-15.625,-14.5625
84641969234,22.5625,-21.5,-12.5625
84641985682,11.3125,-22.1875,-11.875
84642006745,-6.3125,-19.6875,-10.8125
84642029226,-9.125,-16.4375,-6.25
84642046331,-1.875,-15.875,0.5
84642066761,10.1875,-15.8125,3.5625
84642089263,17.4375,-14.75,8.6875
84642105705,17,-12.375,11.875
84642126777,16,-11.5,13.5625
84642149283,18.0625,-12.375,14.9375
84642165705,18.375,-8.125,18.3125
84642186794,12.4375,-4.125,23.375
84642209281,5.75,-3.3125,24.9375
84642226345,8.25,-5.5625,23.3125
84642246702,12.0625,-9.625,23.125
84642277504,12.125,-13.1875,24.875
84642285654,8,-15.625,27.875
84642316383,1.1875,-16,27.6875
84642329271,0.125,-11.0625,28.5
84642345702,1.4375,-4.0625,24.4375
84642368215,1.8125,-4.625,24.9375
84642389295,8.125,-7.1875,23.625
84642405716,14.3125,-8.0625,22.5
84642428248,12.5625,-8.75,23.8125
84642449237,7.25,-7.1875,24.5
84642465713,2,-6.375,25.75
84642488188,0.4375,-8.0625,27.0625
84642509291,8.5625,-14.3125,28.8125
84642525696,28.1875,-13.5625,28.625
84642548201,24.1875,-5.5625,24.875
84642569289,17.375,-2.1875,23.8125
84642585687,19.5,-2.125,25.9375
84642608299,23.1875,-3.8125,28.75
84642629261,18.1875,-1.8125,27.9375
84642646425,9.5,0,26.625
84642668209,8.6875,-3.0625,25.9375
84642689291,14,-10.3125,26.375
84642705706,19.9375,-19.0625,22.375
84642728225,13.875,-21.1875,16.375
84642749286,3.625,-15.875,11.4375
84642765745,10.0625,-13.5625,10.375
84642789648,18.125,-14.625,9.5625
84642809320,8.75,-19.75,5.625
84642825712,0.75,-20.5625,4.75
84642848197,3.6875,-16.9375,8.1875
84642869283,2,-16.375,10.1875
84642885688,-0.9375,-15.625,9.75
84642908257,-4.3125,-14.375,6.5
84642929319,-4.6875,-14.75,2.1875
84642945760,-8,-18.8125,-2.125
84642968232,-6.9375,-27.125,-5.1875
84642989294,-15.875,-35.3125,-10
84643005730,-22.1875,-39.75,-14.375
84643028264,-21.25,-39.375,-21.0625
84643049273,-23.25,-36.5,-23.3125
84643065758,-29.75,-36.1875,-25.9375
84643088203,-38.5625,-38.125,-27.5625
84643109290,-44.25,-39.5,-31.8125
84643124984,-48.5625,-40.75,-35.6875
84643147472,-45.1875,-42.8125,-42
84643169991,-48.375,-46.75,-47.6875
84643184933,-49.375,-54.75,-54.125
84643207419,-53.0625,-63.75,-57.75
84643238166,-55.6875,-72.875,-55.9375
84643244978,-55.375,-84.5,-52.8125
84643267514,-68.5,-94.25,-43.1875
84643289995,-70.375,-117.312,-36.6875
84643304979,-78.0625,-132.938,-31
84643327488,-89.3125,-139.312,-32.1875
84643349974,-92.75,-140.875,-39.1875
84643365052,-98,-141,-42.4375
84643387455,-102.062,-136.188,-34.875
84643410008,-102.938,-127.375,-24.5
84643425010,-104.562,-116.062,-20.1875
84643447463,-103.312,-105.062,-17.5625
84643469982,-94.125,-93,-12.625
84643486364,-83.4375,-78.625,-3.875
84643507473,-73.125,-63.5625,1.8125
84643529974,-67.125,-49.375,3
84643546405,-49.8125,-37,-2.4375
84643567457,-37.375,-21.1875,4.6875
84643589972,-28.375,-12,10
84643606359,-18.25,-6.125,10.5625
84643627467,-18.125,1,12.5625
84643649997,-33.625,4.8125,14.125
84643672466,-43.0625,7,12.5
84643687412,-42.5625,8.25,19.0625
84643709738,-42.125,6.5,29.5
84643726385,-54.0625,10.6875,23.75
84643747499,-57.0625,10.8125,15.9375
84643769959,-44.375,8.5625,10.5
84643786379,-29.5625,5.1875,6.9375
84643807490,-17.8125,3.4375,0.5625
84643829992,-26.0625,9.5,-4
84643846381,-22.3125,12.0625,-8.0625
84643867470,-10.75,8.4375,-6.375
84643890022,-0.625,3.5625,-5.75
84643906414,-4.6875,4.9375,-6.1875
84643927510,-3.375,6.8125,-6.125
84643951362,1.75,4.6875,-4.375
84643966444,4.4375,1.3125,-2.8125
84643987461,-2.0625,0.625,-2.6875
84644009999,-3.8125,0.8125,-1.5625
84644026404,-0.625,-0.75,0.3125
84644047466,4.9375,-4.375,0.375
84644069959,7.375,-6.4375,-1.8125
84644086416,1.25,-4.125,-4.5
84644108126,-5.125,-1.625,-6.3125
84644129995,-1.9375,-2.75,-5
84644146403,0.6875,-4.25,-4.25
84644167448,-0.5625,-2.8125,-4.6875
84644189975,-5.5,-0.75,-3.375
84644205720,-5.3125,-1.3125,-0.9375
84644227487,-2,-3.5625,0.75
84644249989,-1.8125,-4.25,2.375
84644266384,-2.9375,-3,2.125
84644287442,0.875,-2.875,4.0625
84644310022,3.6875,-3.375,5.5
84644325770,5.75,-4.3125,6.5
84644347508,2.1875,-3.0625,6.5
84644369988,-1.25,0.125,5
84644385793,-3.9375,2,4.4375
84644408964,-4.1875,2.0625,4.375
84644429961,-5.5,1.1875,4.5625
84644445725,-8.5,0.375,5.1875
84644468948,-8.125,-1.375,4.9375
84644489996,-6.125,-3.875,5.1875
84644505797,-3.8125,-5.875,5.4375
84644528928,-6.4375,-5.8125,5.1875
84644549960,-2.6875,-5.3125,4.5625
84644565726,1.8125,-5.3125,4.625
84644588936,1.0625,-2.75,3
84644609961,-3.625,0.75,2.125
84644625778,-2.9375,1.25,2.1875
84644648925,3.625,-2.6875,2.8125
84644669958,0.375,-4.0625,3.9375
84644685797,-7.6875,-3.25,1.9375
84644708933,-12,-3.5,2.25
84644729956,-6.625,-7,2.75
84644745721,-3.5,-9.5,3.3125
84644768942,-4.75,-9.25,1.625
84644789966,-9.4375,-8.25,2
84644805750,-5.5,-8,2.5
84644828923,-0.25,-8.5,2.375
84644849951,-2.875,-6.25,0.375
84644866365,-6.5625,-3.125,-1.625
84644888939,-5.75,-2.0625,-1.9375
84644909988,-1.8125,-3.1875,-0.625
84644925776,0,-5,0.875
84644948949,-3.5,-3.4375,-0.375
84644969962,-5.1875,-3,-1.0625
84644985746,-1.25,-4.0625,-1
84645008931,2.625,-3.75,-1.125
84645029978,2.1875,-1.875,-1.5625
84645045769,-3.6875,0.8125,-1.5625
84645068959,-4.1875,2.3125,-2.1875
84645089967,-0.375,1.5,-1.1875
84645105744,2.3125,1.0625,0.1875
84645128933,2.25,0.8125,0.8125
84645149966,-0.3125,-0.75,1.125
84645165756,0.5,-3,2.1875
84645188304,-0.3125,-4.9375,2.875
84645209981,-1.6875,-6.0625,3.0625
84645225778,-5.375,-7,4.5
84645248264,-4.5625,-8.8125,7.3125
84645270006,-3.4375,-11.3125,8.5
84645285787,-6.1875,-11.9375,7.1875
84645308272,-9.5625,-12.3125,5.625
84645338982,-11.125,-11.25,3.8125
84645345734,-6.875,-11.5,1.1875
84645368303,-7,-10.0625,-1.5
84645391440,-6.5,-7.5625,-4.6875
84645405803,-5.125,-5.0625,-6.0625
84645428281,-2.75,-3,-5.125
84645451408,-2.6875,-1.0625,-3.6875
84645465744,-2.3125,0.625,-3.25
84645488258,1.0625,1.9375,-3.0625
84645511448,3.25,3.0625,-2.4375
84645525793,5.0625,3.875,-2.375
84645548268,1.875,5.5,-2.75
84645571488,1.625,5.25,-2.5625
84645593941,3,4.25,-1.3125
84645614977,2.0625,2.5625,1.6875
84645631429,0.4375,0.375,3.8125
84645645759,-1.3125,-2.8125,4.5625
84645668255,-2.875,-6.3125,3.25
84645691411,-3.375,-6.1875,2.25
84645705737,-1.75,-8.9375,1.75
84645728289,-2.1875,-11.1875,0.4375
84645751438,-1.9375,-11.4375,-1.125
84645765753,-4.1875,-8.875,-3.375
84645788267,-5.8125,-4.8125,-5.625
84645811405,-4.5,-1.25,-5.75
84645832455,-1.9375,1.6875,-5.75
84645848287,-0.9375,4.75,-5.625
84645871446,-0.3125,7.0625,-4.875
84645892515,1.125,8.125,-4.0625
84645908267,4.0625,8.625,-2.75
84645931408,5.1875,8,-2.0625
84645952457,3.0625,6.5625,-1.5625
84645968231,1.3125,4.3125,-0.6875
84645991452,-0.125,1.9375,0.8125
84646012509,-0.5,-0.8125,2.1875
84646028303,-0.0625,-4.1875,3.125
84646051449,0.3125,-6.375,3.4375
84646073947,0.5625,-7.6875,3
84646088331,-0.8125,-7.625,2.5
84646110790,-2,-6.875,2.125
84646132512,-2.125,-5.6875,1.75
84646148282,-0.9375,-4.125,1.3125
84646170799,-0.125,-2.25,0.5625
84646192516,0.5625,-0.8125,0.1875
84646216433,0.0625,0.75,0.1875
84646230770,0.1875,1.375,0.125
84646252490,0.5,1.3125,0.25
84646268262,-0.3125,1.25,0.125
84646290746,0.1875,1.0625,0.125
84646313967,0.6875,0.375,0.6875
84646328296,1.1875,-0.5625,0.5625
84646350783,0.875,-1,-0.0625
84646373991,0.6875,-1.1875,-0.0625
84646388280,-0.5625,-1.0625,-0.0625
84646410747,-0.9375,-0.8125,0.125
84646433962,-0.1875,-0.375,0.625
84646448325,1.25,-0.4375,0.8125
84646470802,-0.9375,-0.625,1.5625
84646493941,-1.25,-1.3125,1.625
84646508295,0.5625,-1.625,0.9375
84646530764,0.125,-1.375,1.4375
84646553948,-0.9375,-0.8125,1.375
84646568317,-2.1875,1.125,1.3125
84646590806,-1.25,2.6875,0.1875
84646613956,-0.25,4,-1
84646628284,0.375,4.0625,-1.3125
84646650792,0.375,3,-1.375
84646681532,-0.1875,1.1875,-0.5
84646688261,0.0625,-0.75,0.1875
84646710854,-1,-1.75,0.75
84646734018,-1.75,-2.25,1.625
84646748305,-1.8125,-2.5,2.375
84646770828,-1.5,-2.9375,2.4375
84646794655,-1.25,-3.125,1.625
84646814971,-0.5,-3.125,0.6875
84646830844,-0.8125,-2.75,0.375
84646854002,-0.25,-2.3125,0.875
84646875043,-0.5625,-1.75,0.8125
84646890803,-0.4375,-1.3125,0.5
84646913954,-0.5,-0.75,-0.125
84646935020,-0.625,-0.5625,-0.1875
84646950012,-1.0625,-0.8125,0.375
84646964353,-1.125,-1.0625,1.4375
84646986825,-3.125,-0.625,2.1875
84647010135,-1.875,-0.875,2.3125
84647025837,1.3125,-1.1875,2.3125
84647046928,2.3125,0.25,2.4375
84647070093,1,2.25,1.8125
84647092521,1.75,4.0625,-0.25
84647106891,3.5625,5.75,-2.5625
84647130046,1.8125,6.125,-2.8125
84647144411,0.25,5.5,-3.4375
84647166868,0,4.75,-3.375
84647190092,0.1875,3.375,-2
84647204360,0.375,2.125,-0.875
84647226888,0.9375,0,-0.375
84647250061,0.6875,-1.25,-0.5625
84647264371,-0.25,-1.9375,-1.0625
84647286862,-1,-2.1875,-0.5625
84647310038,-0.375,-2.5625,0.3125
84647324416,1,-3.0625,0.8125
84647346866,2.125,-3.3125,0.3125
84647370022,1.1875,-2.9375,-0.4375
84647384389,-0.3125,-2.3125,-1.125
84647406890,-1.1875,-1.6875,-0.75
84647430113,-0.25,-1.3125,-0.25
84647444403,-0.125,-1.1875,0
84647466853,-0.25,-0.8125,0.125
84647490066,-0.375,-0.8125,0.125
84647504342,0.25,-1.25,0.125
84647526884,0.625,-2.125,0.1875
84647550070,0.375,-2.6875,0.375
84647564411,0,-3.3125,0.375
84647586848,-1.25,-3.6875,0.3125
84647610092,-2.125,-3.5625,0.3125
84647624397,-1.6875,-3.0625,0.5625
84647646905,-0.9375,-2.125,1.0625
84647670055,0.1875,-1.4375,1.0625
84647684377,0.375,-0.8125,0.875
84647706862,0.5625,-0.5,0.625
84647730040,0.6875,0,0.8125
84647744392,0.75,-0.1875,1.0625
84647766891,0.25,-0.5,0.9375
84647790055,0.1875,-0.875,1.25
84647804376,0.1875,-1.375,1.1875
84647827001,-0.4375,-1.625,0.9375
84647850095,-0.25,-2.125,0.75
84647864394,-0.5625,-2.0625,1.0625
84647886890,-0.6875,-1.9375,0.9375
84647910069,-0.1875,-1.75,1.125
84647924411,0.4375,-1.3125,1.3125
84647946873,0.8125,-0.8125,1.5
84647970064,0.25,-0.3125,1
84647984432,0.375,-0.5,0.5
84648006896,0.5625,-1.3125,0.4375
84648030056,0.4375,-1.0625,0.0625
84648044488,0.125,-1.0625,0.1875
84648066901,-0.0625,-1,0
84648090018,-0.0625,-1.375,-0.1875
84648112602,0.3125,-1.6875,-0.3125
84648127049,0.8125,-2,-0.125
84648149823,0.375,-2,0.25
84648164356,-0.375,-1.75,0.3125
84648186896,0.25,-2,0.375
84648209459,1.875,-2.0625,0.125
84648224410,2.9375,-1.8125,-0.1875
84648246858,1.8125,-1.0625,-0.4375
84648269390,0.375,-0.0625,0.0625
84648292567,0.5,0.0625,0.375
84648306874,0.75,-0.125,0.3125
84648329414,0.4375,-0.0625,-0.75
84648344409,-0.25,-0.0625,-1.5
84648366887,-0.375,0.25,-1.375
84648389366,0.125,0.1875,-1
84648404379,-0.0625,0.0625,-0.5
84648426879,0,0,-0.1875
84648449408,0,-0.125,0.375
84648464392,-0.0625,-0.25,0.5
84648486942,0.25,-0.5,0.1875
84648509359,0.4375,-0.6875,-0.0625
84648524355,0.75,-0.5625,-0.3125
84648546974,0.125,-0.5,-0.5
84648569378,0.0625,0,-0.5625
84648584449,0.75,0,-0.3125
84648606963,0.6875,0.25,-0.25
84648629404,-0.0625,0.4375,-0.4375
84648644419,-0.375,0.3125,-0.3125
84648666890,-0.1875,0.125,-0.0625
84648689402,-0.25,0.0625,0.25
84648712609,0,0.125,0
84648727038,0.0625,-0.25,-0.3125
84648749439,-0.3125,-0.25,-0.1875
84648764377,-0.6875,0.0625,0
84648786908,-0.25,0.0625,0.25
84648809433,0.3125,-0.125,0.1875
84648824445,0.375,-0.1875,0.0625
84648847016,-0.1875,-0.0625,0.25
84648869355,-0.25,0.0625,0.375
84648884365,-0.0625,0,0.0625
84648906898,0,0.0625,-0.375
84648929446,0.25,-0.3125,-0.375
84648947363,0.25,-0.25,-0.125
84648966893,-0.5,-0.0625,0.25
84648989436,-0.5625,-0.5,0.5
84649005930,2.0625,-2.125,1.6875
84649035159,2.9375,-1,1.5
84649049392,4.875,-2.875,0.875
84649065812,4.0625,-2.3125,-1.0625
84649086881,0.625,-1.0625,-2
84649109399,-1.6875,-0.375,-0.9375
84649125856,-1.875,-0.25,-0.0625
84649146894,-0.25,-0.875,0.6875
84649169400,0.3125,-1,0.75
84649185937,0.5625,-0.5,0.5625
84649206976,0.5625,-0.375,0.5625
84649229442,-0.6875,0,0.625
84649245887,-1.5625,0.3125,0.5
84649266895,-1.75,0.4375,0.4375
84649289448,-0.25,0.4375,0.5625
84649305935,1.3125,0.5,0.0625
84649327001,0.8125,1,-1.4375
84649349450,-0.0625,1.5,-1.625
84649365834,-0.625,1.6875,-1.875
84649386944,-0.5,1.875,-2
84649409435,0,1.625,-1.1875
84649425850,-0.5625,1.6875,-0.5
84649446971,-0.1875,1.1875,0.1875
84649469376,-0.1875,0.875,0.375
84649485849,0.5625,0.3125,0.3125
84649506906,1.8125,-0.375,-0.1875
84649529406,1.5625,-0.5,-0.8125
84649545895,0.25,-0.4375,-1.25
84649566859,-0.3125,-0.3125,-1.1875
84649589408,-0.5625,-0.375,-0.5625
84649605864,-1.0625,-0.125,-0.1875
84649626981,-1.0625,0.25,0.4375
84649649442,-0.1875,0.125,0.625
84649665959,0.4375,-0.0625,0.375
84649686957,0.5,-0.4375,0.125
84649709464,0.1875,-0.5,0.125
84649725855,0.3125,-0.75,0
84649747001,0.0625,-1.0625,-0.125
84649769383,-0.5,-1,0
84649785831,-0.5625,-0.5,0.0625
84649806898,-1.4375,-1.25,1.1875
84649829453,-1.75,-1.75,2
84649845867,1.375,-3,1.5625
84649866920,1.75,-2.0625,1.3125
84649889390,0,0.625,0.6875
84649905834,-1.3125,3.5,0.4375
84649928362,-0.25,5,-0.5
84649949453,1.8125,5.5,-1.25
84649965985,1.6875,4.8125,-1.25
84649988408,0.8125,3.5,-0.6875
84650009412,0.5625,1.5625,-0.3125
84650025958,0.3125,-0.625,0.125
84650055869,-0.5625,-1.9375,0.9375
84650069384,-1.6875,-2.9375,1.75
84650085933,-2.6875,-3.1875,1.75
84650108389,-2,-3.3125,1.375
84650129413,-0.6875,-3.125,0.875
84650145895,0.1875,-2.5,0.625
84650168381,0.3125,-1.375,0.375
84650192377,0.0625,-0.25,-0.3125
84650205836,0.875,0.625,-0.4375
84650228394,1.5625,1.6875,-1.5625
84650249497,0.1875,2.375,-1.5
84650265958,1.4375,2.1875,-1.125
84650288388,0.5625,2,-1.875
84650309449,0.25,1.25,-1.5625
84650325953,-0.5625,1.125,-1.25
84650348359,-0.6875,0.6875,-0.8125
84650377560,-1,0.125,-0.375
84650385927,-0.9375,-0.375,0.125
84650408354,0.1875,-1.1875,0.1875
84650429441,0.875,-1.4375,-0.125
84650445959,0.9375,-1.5,-0.625
84650469930,0.5,-0.9375,-1.375
84650489450,-0.3125,-0.8125,-1.3125
84650506535,-1.25,-0.0625,-1.0625
84650528381,-1.6875,0.375,-0.1875
84650549401,-1.5625,0.6875,0.4375
84650565995,0.25,0.1875,0.6875
84650588365,1.5625,0,-0.125
84650609425,1.4375,-0.25,-0.5
84650625946,1.0625,-0.25,-0.5
84650648406,-0.625,0.125,-0.5
84650669429,-1.3125,0.4375,-0.6875
84650685936,-0.25,-0.25,-0.5625
84650708369,0.125,-0.375,-0.8125
84650729393,1.0625,-0.625,-0.4375
84650745980,-0.25,-0.6875,-0.3125
84650768365,-1.0625,-0.625,0
84650790120,-0.6875,-1.0625,0.4375
84650805089,0.0625,-0.9375,0.5625
84650827573,-0.125,-0.9375,0.4375
84650850090,-0.5,-0.625,0.0625
84650865076,-0.75,-0.5,-0.125
84650887645,-0.25,-0.5625,0.125
84650910152,0.1875,-0.25,0.1875
84650932660,-0.25,-0.1875,0.0625
84650947649,-0.125,-0.25,0.3125
84650970126,-0.5625,-0.125,0.4375
84650985110,-0.25,0.125,0.5
84651007612,0.875,0.25,0.375
84651030126,1,0.6875,0.125
84651046558,1.1875,1.0625,0.0625
84651067601,-0.6875,2.0625,1.125
84651090059,-3.4375,3.6875,2
84651107155,-4.125,4.5625,2
84651127629,-5.125,5.5625,1.1875
84651150150,-2.9375,5.375,-0.1875
84651166520,2.6875,4.25,-1.375
84651187589,6.6875,3.5625,-2.75
84651210152,4.8125,4.375,-4.4375
84651226525,4.3125,4.4375,-5.0625
84651247628,6.0625,3.6875,-4.125
84651270747,7.25,2.8125,-3
84651286558,4.75,2.6875,-2.8125
84651307614,2.9375,2.75,-2.625
84651330116,3.8125,1.75,-2
84651346558,5.1875,0.8125,-1.375
84651367587,3.9375,0.875,-1.5
84651390114,-0.125,1.6875,-1.875
84651406568,-2,1.5,-1.5
84651427632,-0.8125,0.6875,-0.0625
84651450091,-1.75,0.75,1.0625
84651466544,-5.6875,1.375,1.0625
84651487615,-6.25,0.4375,1.9375
84651510184,-3.8125,-1.4375,3.375
84651527225,-2.25,-2.3125,4.1875
84651547648,-3.0625,-2.125,4.75
84651570134,-3.8125,-2.1875,4.4375
84651586545,-2.5625,-2.8125,3.9375
84651607603,-1.4375,-3.125,3.375
84651630136,-0.375,-3.25,3.0625
84651646610,-0.1875,-3.25,3.625
84651667655,-0.1875,-3.3125,4.3125
84651690135,-1.1875,-2.9375,4.6875
84651706567,-1.125,-3.0625,4.5
84651727584,-0.25,-3.0625,4.125
84651750094,0,-2.875,3.625
84651766558,-0.3125,-2.1875,2.4375
84651787648,-1.5625,-1.4375,1.6875
84651810143,-2.125,-0.875,1.875
84651825973,-2.25,-0.6875,2.625
84651847628,-0.4375,-1.0625,3.3125
84651870114,1.3125,-1.1875,3.1875
84651885931,2.3125,-1.3125,1.875
84651907617,1.25,-1,0.25
84651930155,0.8125,-0.9375,-0.5
84651945996,1.8125,-1.375,-0.375
84651969028,3,-1.875,0.0625
84651997671,1.5,-1.875,0.625
84652005979,0.375,-2.125,0.75
84652029088,-0.25,-1.9375,0.6875
84652050154,0.1875,-1.375,0.25
84652065971,-0.5,0.0625,-0.6875
84652089054,-1.875,1.5625,-1.8125
84652110209,-1.5625,2.375,-2.5
84652125954,0.5,2.1875,-2.6875
84652149086,2.75,1.8125,-2.4375
84652170094,3.375,1.9375,-1.75
84652185946,2.0625,1.875,-1.4375
84652209030,-0.25,2,-1.3125
84652230109,-0.375,1.3125,-1.25
84652245969,0,0.4375,-0.6875
84652269105,0.625,-0.25,-0.5
84652290149,-0.125,-0.6875,-0.4375
84652305949,-0.6875,-0.9375,-0.25
84652329078,0.125,-1.5,0
84652350107,1.0625,-2.0625,0.1875
84652365952,-0.0625,-1.8125,-0.125
84652389098,-1.6875,-1.1875,-0.3125
84652410167,-1.25,-1.375,0.0625
84652425942,0.875,-2.0625,0.3125
84652449112,1.75,-2,-0.25
84652470125,0.8125,-1.5,-0.4375
84652485931,0.3125,-1.25,-0.5625
84652509053,1.375,-1.25,0.125
84652530211,0.625,-0.6875,1.0625
84652554082,-1.25,0.1875,1.375
84652569046,-1.8125,0.5,1.5625
84652590181,-0.5,-0.0625,2
84652605958,0.125,-0.125,2.125
84652629113,0.1875,-0.125,2.5
84652650120,0.3125,0.1875,2.3125
84652665980,0.4375,0.25,1.625
84652689125,0.6875,0.4375,0.625
84652710137,-0.125,0.875,-0.4375
84652726577,-1,1,-0.6875
84652748432,-0.5625,0.3125,-0.9375
84652770163,0.1875,-0.25,-0.5
84652785935,0.625,-0.5625,-0.0625
84652808455,-0.25,-0.25,0.3125
84652830168,-0.9375,-0.25,0.375
84652845958,-1.125,-0.0625,0.25
84652876555,-0.6875,-0.0625,0.375
84652890122,0.4375,-0.1875,-0.125
84652905973,1.125,-0.3125,-0.4375
84652928445,0.5,0.125,-0.5625
84652951597,-0.625,0.8125,-0.5625
84652965984,-0.25,0.6875,-0.1875
84652988401,0.5,0.4375,0.125
84653011591,0.5625,0.375,0.25
84653025962,-0.3125,0.625,0.0625
84653048390,-0.875,0.875,-0.25
84653071626,-0.3125,0.375,-0.75
84653085990,1,-0.125,-0.875
84653108961,1.875,-0.3125,-0.9375
84653131601,0.625,0.25,-0.75
84653146584,-1.125,0.5625,-0.4375
84653168463,-1.3125,0.625,-0.375
84653191559,0.4375,-0.1875,-0.25
84653205954,1.4375,-0.125,-0.6875
84653228455,1.375,-0.125,-1.0625
84653251587,0.5,0.5,-1
84653266580,-0.0625,1.0625,-0.8125
84653288451,-0.0625,1.375,-0.6875
84653311550,-0.3125,1.3125,-0.5625
84653326602,-1.125,1.5,-0.375
84653348428,-0.8125,1.125,-0.1875
84653371575,0.3125,0.1875,-0.1875
84653385919,0.5,-0.0625,-0.3125
84653408432,-0.25,0.25,-0.3125
84653431576,-1,0.5625,-0.5625
84653452667,-0.625,0.375,-0.625
84653468488,-0.125,0.375,-0.625
84653491608,0.0625,0.5,-0.5625
84653512456,-0.625,0.4375,-0.5
84653528452,-0.375,0.3125,-0.4375
84653551619,-0.0625,0.125,-0.375
84653572657,0.6875,0.0625,-0.125
84653588421,0.9375,-0.1875,-0.3125
84653611605,0.4375,-0.1875,-0.1875
84653632796,0.25,0,-0.3125
84653648474,0.25,0.0625,-0.1875
84653670932,0.25,-0.1875,-0.1875
84653692692,0.75,-0.5,-0.0625
84653708423,0.4375,-0.5,-0.25
84653730917,0.0625,-0.4375,-0.375
84653754083,0.25,-0.375,-0.4375
84653768463,0.0625,0,-0.3125
84653790919,0.125,-0.1875,-0.125
84653812637,0.25,-0.25,-0.3125
84653828407,-0.0625,-0.1875,-0.1875
84653850945,-0.25,0.125,-0.25
84653874141,-0.4375,0.25,0.125
84653888444,0.125,-0.0625,-0.0625
84653910933,-0.4375,0.5,-0.4375
84653940162,-0.3125,0.6875,-0.5
84653948483,-0.25,0.625,-0.1875
84653970930,-0.0625,0.25,-0.1875
84653994104,0.375,-0.125,-0.25
84654008447,0.375,0.0625,-0.1875
84654030953,-0.0625,-0.0625,0.4375
84654054084,-0.125,-0.25,0.8125
84654068464,0.5,-1.0625,0.6875
84654090963,0.5625,-2.0625,0.0625
84654114153,-1.5625,-2.1875,-0.4375
84654128488,-1.875,-3,-0.375
84654150980,0.625,-3.25,0.375
84654174077,3,-3.5625,1.625
84654196685,2.3125,-2.75,2.125
84654210982,-1.1875,-1.25,1.3125
84654234098,-4.8125,0.5625,0.125
84654248456,-5,1.75,-1.0625
84654270963,-2.25,1.875,-1.0625
84654294108,0.3125,1.5,-1
84654308429,1.125,1.375,-0.75
84654330976,0.375,1.9375,-1.0625
84654354120,0.25,2.4375,-1.625
84654375175,0.4375,2.6875,-2.1875
84654390934,0.8125,2.6875,-2.375
84654414102,0.6875,2,-2
84654435922,0.8125,1,-0.6875
84654450986,1.4375,0.4375,0.25
84654474134,1.3125,0,0.125
84654495252,-0.25,0.375,-1.1875
84654510994,-0.8125,0.375,-2.625
84654533957,0.375,0.25,-2.6875
84654555173,1.25,-0.0625,-2.4375
84654570959,-0.375,0.375,-2.9375
84654594109,-0.8125,0.5,-4.1875
84654615165,0.6875,0,-5.0625
84654630669,2.125,-0.25,-5.4375
84654644488,2.125,-0.1875,-5.3125
84654666958,1.3125,-0.125,-5.5625
84654690135,1.5625,-0.125,-5.5625
84654704472,2.25,-0.125,-5.5625
84654727028,3.25,-0.5,-5.0625
84654750219,4.5,-1.25,-4.1875
84654764549,6.1875,-2.25,-3.375
84654786979,4.5625,-2.5,-2.9375
84654818405,0.125,-2.125,-3.25
84654824546,-0.5625,-1.6875,-3.625
84654847023,0.125,-1.3125,-3.75
84654870168,1.0625,-0.375,-4.3125
84654884548,0.125,0.9375,-4.9375
84654907043,-1.8125,2.6875,-5.5625
84654930222,-0.9375,3.6875,-5.25
84654952708,0.25,4.0625,-4.25
84654967031,0.6875,4.3125,-3.0625
84654990188,0.125,3.4375,-2.6875
84655004544,-0.375,2.375,-2
84655027073,0.125,1.1875,-1.3125
84655050293,1.875,-0.125,-0.125
84655064581,2.75,-1.25,0.5625
84655086978,1.75,-2.125,0.6875
84655110253,-0.4375,-1.875,0.75
84655124486,-0.9375,-1.5,1.125
84655147040,-0.0625,-1,1.6875
84655170190,0.3125,-0.4375,2
84655184579,0.3125,-0.125,1.9375
84655207010,0,0,1.9375
84655230208,-0.0625,0.125,1.75
84655244532,0.4375,-0.0625,1.5625
84655267074,0.4375,-0.6875,1.3125
84655290190,-0.625,-1.0625,1.5
84655304529,-0.625,-1.25,2.0625
84655327089,0.0625,-1.625,2.375
84655350252,0.3125,-1.875,2.1875
84655372689,-0.25,-1.75,1.625
84655387010,-1.25,-1.4375,1.375
84655410252,-0.9375,-1,1.3125
84655424484,0.875,-1.1875,1.5
84655447052,1.375,-1.1875,1.3125
84655470220,0.4375,-0.8125,0.8125
84655484549,-3.5625,-1.4375,1
84655507020,-1.8125,-1.75,2.375
84655530173,0.0625,-2.375,3.5625
84655552713,1.6875,-3.375,4
84655567024,0.5,-2.875,2.125
84655590189,-0.0625,-2.25,1.1875
84655604527,0.1875,-1.125,0.1875
84655627074,0.3125,-0.5625,-0.3125
84655650133,0.625,-0.125,-0.625
84655664542,0.5,-0.0625,-0.4375
84655687030,-0.25,0.4375,0.0625
84655710225,-0.125,0.4375,0.375
84655724531,-0.4375,0.3125,0.625
84655747088,-0.5,0.375,0.625
84655769523,-0.25,0.25,0.6875
84655784502,-0.5625,0.375,0.4375
84655807035,0.3125,0.1875,0.0625
84655829565,0.75,-0.125,0
84655844606,0.375,-0.3125,0
84655867067,0.75,-0.375,-0.1875
84655889524,1.0625,-0.5625,0
84655904515,0.6875,-0.6875,-0.125
84655927078,0.5,-0.375,-0.125
84655949556,0.875,-0.3125,-0.25
84655972766,0.5625,-0.3125,-0.4375
84655987059,0.375,-0.0625,-0.5625
84656009584,0.625,-0.25,-0.375
84656024525,0.75,-0.3125,-0.5
84656047081,-0.375,-0.125,-0.875
84656069473,-0.3125,-0.0625,-0.8125
84656084508,0.0625,-0.125,-0.625
84656107052,0.375,-0.0625,-0.75
84656129657,-0.0625,0.1875,-0.5
84656144589,-0.25,0.625,-0.1875
84656167048,0.1875,0.625,-0.1875
84656189541,0.6875,0.875,-0.4375
84656207428,0.8125,1.25,-1.375
84656227096,-0.9375,2.25,-2.625
84656249510,-2.0625,3.0625,-4.0625
84656264562,0,2.5625,-4.25
84656287039,0.9375,1.6875,-3.25
84656309534,0,1.5625,-2.5625
84656324544,0.4375,1.5,-1.4375
84656347041,0.5,1.9375,-0.9375
84656369579,1.375,2.25,-1
84656384565,1.5625,2.75,-1.375
84656407063,1.0625,3.0625,-1.375
84656429593,1.125,2.5625,-0.875
84656444566,1.3125,1.875,-0.375
84656467042,0.0625,1.1875,0
84656489545,-0.4375,0.1875,0.1875
84656504545,0,-0.875,0.0625
84656527074,-0.25,-1.1875,0.125
84656549567,-1.5,-1,0
84656572689,-1.75,-0.8125,0.1875
84656587085,-1.625,-0.625,0.5
84656609546,-0.625,-0.5,0.6875
84656626020,0.75,-0.625,1
84656647100,1.5,-0.25,0.875
84656669576,0.9375,-0.3125,1
84656686031,0.0625,-0.75,1.0625
84656715239,-1.8125,0.25,1.125
84656729574,0.125,-0.625,1.75
84656746022,0.25,-0.4375,0.9375
84656767088,0,-0.0625,0.3125
84656789582,0.4375,0.5625,0
84656805968,0.3125,0.4375,-0.125
84656827125,-0.375,0.625,-0.25
84656849605,-0.25,0.0625,0.5
84656866028,-0.0625,-0.375,0.75
84656887025,-0.25,-0.625,0.6875
84656909579,-0.875,-0.4375,0.6875
84656926021,-0.4375,-0.5,0.5
84656947046,-1.125,-0.5625,0.125
84656969603,-0.8125,-0.625,-0.0625
84656986050,-0.1875,-0.5625,-0.25
84657007070,0.6875,-0.8125,-0.5625
84657029566,0.875,-0.5625,-0.4375
84657046065,1.375,0,-0.5625
84657067037,0.8125,0.5625,-1.3125
84657089588,-0.5,1.6875,-2.3125
84657105985,0.5625,1.9375,-2.3125
84657127103,2.375,0.75,-2
84657149582,1.75,0.25,-1.4375
84657166658,0.5,-0.125,-0.5
84657187009,-0.5625,-0.375,0.1875
84657209548,-0.4375,-0.5625,0.3125
84657226013,-0.1875,-0.6875,0.5
84657247064,-0.375,-0.625,0.3125
84657269560,-0.4375,-0.625,-0.0625
84657286069,-0.375,-0.5,-0.3125
84657307075,0.3125,-0.5,-0.4375
84657329587,0.75,-0.3125,-0.25
84657346031,0.125,0,-0.3125
84657367076,-1.625,0.625,-0.625
84657389598,-1.375,0.875,-0.75
84657406001,-0.25,0.75,-0.375
84657427110,0.875,0.25,-0.375
84657449557,1,0.0625,-0.3125
84657466043,0.125,0.375,-0.25
84657488471,0.25,0.25,-0.1875
84657509589,0.3125,0.4375,0
84657525973,0.875,0.75,-0.25
84657548479,0.375,1,-0.9375
84657569608,0.125,1.4375,-0.9375
84657586675,1.25,1.5,-0.5
84657608477,0.5625,1.8125,-0.4375
84657637769,0.9375,1.4375,-0.375
84657646038,0.4375,1.5625,-0.3125
84657668472,0.8125,0.9375,0.0625
84657689601,0.3125,0.1875,0
84657705987,-0.125,-0.3125,-0.3125
84657728533,-0.3125,-1,-0.375
84657749627,-0.5625,-1,-0.4375
84657766673,-0.25,-1.375,-0.25
84657788536,0,-1.25,0.0625
84657809589,-0.125,-0.9375,0.25
84657826032,0.375,-0.875,0.5
84657848531,0.1875,-0.3125,0.125
84657869604,0.1875,0.1875,-0.5
84657886107,0.3125,0.5625,-0.4375
84657908594,0.4375,0.625,-0.5625
84657929571,0.3125,0.5625,-0.5
84657946073,-0.125,0.625,-0.6875
84657968502,-0.25,0.5,-0.375
84657989560,0.6875,-0.3125,0.0625
84658006028,1.0625,-0.625,0.125
84658028553,0.75,-0.75,0.125
84658049590,0.3125,-0.375,0.25
84658066059,0.5625,-0.125,0.25
84658088532,0.0625,0.25,-0.1875
84658109694,-0.8125,0.875,-0.4375
84658125998,-0.5,0.75,-0.25
84658150040,0.3125,0.375,0.0625
84658169594,0.375,0,-0.0625
84658186053,-0.0625,-0.125,0
84658208526,-0.875,0,-0.125
84658229623,-1.125,0.0625,-0.25
84658246052,-0.5625,0.125,-0.125
84658268544,0.125,0.1875,0.1875
84658289616,-0.375,0.1875,0
84658306105,0.5625,0.3125,0.25
84658328496,1.125,0.125,0.0625
84658349548,1.3125,0,-0.0625
84658366003,0.0625,0.3125,-0.375
84658388526,-0.4375,0.1875,-0.0625
84658410999,-0.4375,-0.0625,0.25
84658426042,0.5625,-0.75,0.25
84658448533,0.9375,-1.3125,-0.1875
84658470300,0.125,-1,-0.4375
84658485229,-0.625,-0.8125,-0.5625
84658507763,-0.5,-0.4375,-0.4375
84658530292,-0.1875,-0.3125,-0.0625
84658545357,-0.375,0.0625,0.1875
84658567766,-0.6875,0.375,0.125
84658590274,-0.25,0.5625,-0.4375
84658606695,-0.25,0.8125,-1.125
84658627795,0.0625,1.1875,-1.125
84658650244,0.5625,0.8125,-0.5
84658666679,0.8125,0.375,-0.0625
84658687770,0.0625,0.25,0.1875
84658710295,-0.8125,0,0.25
84658726699,-0.5,-0.375,0.0625
84658747780,0.5625,-0.8125,0.0625
84658770248,1.1875,-0.875,-0.0625
84658792757,0.8125,-0.625,-0.3125
84658807745,0.1875,-0.1875,-0.4375
84658830323,-0.5,0.375,-0.6875
84658846709,0,0.4375,-0.875
84658867769,1.3125,0.1875,-0.75
84658890264,1.5625,-0.0625,-0.6875
84658906725,0.75,0.0625,-0.4375
84658927856,-0.1875,0.4375,-0.3125
84658950256,0.1875,0.1875,0.125
84658966657,1,-0.125,0.125
84658987761,0.375,-0.1875,0
84659010313,0.0625,-0.25,-0.0625
84659026730,-0.4375,-0.3125,-0.125
84659047870,-0.375,-0.375,0
84659071680,-0.125,-0.375,-0.0625
84659086745,-0.5,-0.1875,-0.0625
84659107793,-0.875,0.1875,-0.3125
84659130287,-0.625,0.4375,-0.0625
84659146761,-0.25,0.3125,0.125
84659167764,0,0.3125,0.25
84659191748,0.4375,0.0625,0.375
84659206734,0.375,0.1875,0.6875
84659227784,0.3125,0,0.625
84659250281,-0.1875,0.375,0.5
84659266700,-0.75,0.375,0.3125
84659287709,-1,0.6875,0.375
84659310310,-0.625,0.75,0.8125
84659326757,0.3125,0.4375,1.3125
84659347840,1.125,-0.125,0.4375
84659370255,1.4375,-0.1875,-0.0625
84659386700,0.8125,-0.3125,-0.375
84659407765,1.6875,-0.6875,-0.3125
84659430267,0.5,-0.5625,-0.4375
84659446032,0,-0.9375,0.0625
84659467756,0.375,-1.125,0.375
84659491777,0.5625,-1.125,0
84659506066,0.4375,-1,-0.0625
84659527856,-0.25,-0.5,-0.0625
84659550315,-0.5625,-0.25,0.0625
84659566096,-0.25,0,0.4375
84659589240,0.1875,0.125,0.625
84659610309,0.75,0,0.5625
84659626071,0.5625,0.375,0
84659649202,0,0.75,-0.5625
84659670322,-0.3125,0.9375,-0.4375
84659686108,0.1875,1.0625,-0.4375
84659709229,-0.5,0.875,-0.3125
84659730297,0.375,0.5625,0.4375
84659746025,1.625,0.0625,0.3125
84659769232,2.3125,-0.5,0.3125
84659790321,2.125,-0.625,-0.375
84659806737,1.1875,-0.5,-0.8125
84659829288,0.1875,-0.1875,-0.8125
84659850304,0.6875,-0.25,-0.5625
84659866062,0.5625,-0.1875,-0.4375
84659889207,0.0625,0.0625,-0.25
84659910285,-1,0.625,-0.25
84659926073,-0.75,0.5,-0.3125
84659949232,-0.125,0.3125,-0.1875
84659970273,0.5625,0.1875,-0.125
84659986700,-0.125,0.625,-0.375
84660009221,-0.1875,0.5625,-0.4375
84660030278,0.3125,0.625,-0.4375
84660046080,0.875,0.4375,-0.375
84660069276,0.375,0.5,-0.3125
84660090298,0.3125,0.25,-0.25
84660106072,0.125,0.1875,0
84660129203,0.4375,0,0.0625
84660150248,0.625,-0.0625,-0.25
84660166053,0.375,-0.125,-0.375
84660189283,0.125,0.0625,-0.3125
84660210344,0.3125,0.125,0.125
84660226080,0.125,0.125,0.25
84660249227,0,0.0625,-0.0625
84660270271,-0.125,0.3125,-0.4375
84660286055,-0.3125,0.375,-0.4375
84660308531,0.125,0.375,-0.25
84660331777,0.1875,0.25,0.0625
84660346083,-0.0625,0.375,0
84660368573,-0.3125,0.25,-0.25
84660390315,-0.0625,0.125,-0.0625
84660406779,0.1875,-0.0625,0
84660428559,0.125,0.0625,-0.125
84660450273,-0.4375,0.125,-0.25
84660466075,-0.25,0.25,-0.3125
84660488564,0.125,0.125,-0.5
84660511701,0.4375,0.0625,-0.625
84660526058,0.125,0.25,-0.375
84660548599,-0.375,0.1875,-0.4375
84660572413,0.1875,0,-0.25
84660586086,0.75,-0.5,0
84660608607,0.875,-0.5,-0.375
84660631727,0.6875,-0.4375,-0.375
84660646524,-0.25,0.25,-0.3125
84660668607,0.375,0.25,0
84660691770,0.375,0.1875,0.1875
84660706117,-1,-0.25,0.9375
84660728576,-1.75,0,0.25
84660751741,-0.6875,-1,0.375
84660766062,-0.875,-0.875,0.625
84660788565,-0.9375,-0.875,0.75
84660811755,-1.75,-0.375,0.9375
84660826119,-2,-0.25,0.8125
84660848606,-1.25,-0.25,0.5
84660871747,0.1875,-0.5,0.5625
84660886073,1.625,-0.125,0.375
84660908560,1.375,0.125,-0.375
84660931705,-0.4375,1.125,-0.875
84660946111,-0.75,1.1875,-0.75
84660968607,0.3125,0.75,-0.3125
84660991775,0.375,0.3125,-0.4375
84661012776,0,0.0625,-0.625
84661028577,-0.1875,-0.375,-0.375
84661051709,-0.5625,-0.5,0
84661072851,-0.375,-0.5625,0.125
84661088619,-0.4375,-0.5,0.3125
84661111765,-0.4375,-0.375,0.0625
84661132813,-0.1875,-0.25,-0.125
84661155312,-0.375,0.1875,-0.25
84661171741,0.375,0.3125,-0.3125
84661192793,0.375,0.25,-0.375
84661208569,-0.1875,0.6875,-0.375
84661231761,-0.375,0.5,-0.0625
84661252818,-0.125,0.4375,-0.0625
84661268575,0.125,0,-0.1875
84661291099,0.5,-0.25,-0.3125
84661312813,0.3125,-0.375,-0.5
84661328577,-0.0625,-0.3125,-0.3125
84661351073,-0.625,-0.125,-0.1875
84661372816,-0.8125,-0.0625,0
84661388589,0.5,-0.5,0.125
84661411079,1.375,-0.8125,0
84661434226,0.625,-0.5625,0
84661448610,-0.25,-0.125,0.0625
84661477825,0,0.0625,0.375
84661494252,0.375,-0.3125,0.125
84661508594,0.375,-0.3125,0
84661531071,-0.4375,-0.25,0
84661554244,-0.875,-0.0625,-0.0625
84661568633,-0.5625,-0.4375,0.1875
84661591122,0.1875,-0.4375,0.1875
84661614260,-0.4375,-0.375,0.125
84661628596,-0.6875,-0.1875,0.125
84661651076,-0.6875,-0.1875,0.125
84661674256,-1.5,-0.0625,0.4375
84661688588,-1.25,-0.0625,0.3125
84661711134,0.875,-0.625,0.25
84661734282,0,-0.125,0
84661748604,0.4375,-0.375,0.125
84661771092,0.125,0.0625,0.3125
84661794254,0.25,0,0.375
84661808584,-0.25,-0.125,0.4375
84661831127,-0.3125,-0.75,0.625
84661854297,-0.3125,-1.6875,0.75
84661868611,-0.375,-2.4375,0.625
84661891123,-1.125,-2.875,0.8125
84661914250,-1.375,-2.875,1
84661928581,-1.625,-2.625,1
84661951087,-1.5,-2.0625,0.8125
84661974293,-0.6875,-1.5625,0.5625
84661995365,0.0625,-1,0.25
84662011108,0.0625,-0.25,-0.1875
84662034732,0.125,0.6875,-0.5625
84662055308,0.0625,1.25,-0.75
84662071083,0.1875,1.5625,-0.5
84662094274,0.3125,1.375,-0.1875
84662115356,0.125,1.1875,0
84662131113,0.375,0.625,0.125
84662154260,0.5625,0.125,0.0625
84662175316,0.4375,-0.5,0
84662191088,-0.1875,-0.4375,-0.1875
84662213584,-0.5625,-0.4375,-0.375
84662235319,-0.75,-0.5,-0.4375
84662251081,0.25,-0.5,-0.25
84662273658,0.3125,-0.5,0.1875
84662295314,0.1875,-0.25,0.375
84662310354,-0.4375,0.1875,0.5
84662324642,-0.1875,0.1875,0.25
84662347156,0.6875,0.125,0
84662370307,0.625,0.0625,-0.25
84662384642,0,0.125,-0.25
84662407175,-1,0.1875,-0.25
84662430313,-1.0625,-0.125,0.125
84662444678,-0.1875,-0.625,0.375
84662467185,-0.25,-0.5,0.4375
84662490397,-0.5,-0.5,0.1875
84662504696,-0.625,-0.4375,0.0625
84662527217,-0.1875,-0.3125,0
84662550371,0,-0.25,0.1875
84662564760,0.3125,-0.3125,0.125
84662587190,0.3125,-0.3125,0.0625
84662610405,0.375,-0.25,0.125
84662624680,0.25,-0.1875,0.3125
84662647209,0.25,-0.25,0.3125
84662670360,0.1875,-0.3125,0.0625
84662684672,-0.1875,-0.375,-0.1875
84662716749,-0.1875,-0.3125,0
84662730351,0,-0.5,-0.0625
84662744699,0,-0.4375,0.125
84662767187,-0.5,-0.375,0.375
84662790396,-0.375,-0.1875,0.5625
84662804678,0.125,-0.3125,0.5
84662827209,-0.3125,-0.1875,0.3125
84662850337,-0.375,-0.125,0.125
84662864684,-0.0625,-0.1875,0
84662887213,0.375,-0.0625,-0.1875
84662910398,-0.0625,0.0625,-0.1875
84662924718,-0.5,0.0625,0
84662947182,-0.75,0.0625,0.0625
84662970500,-0.625,-0.1875,0.4375
84662984661,-0.8125,-0.25,0.625
84663007207,-0.25,-0.5,0.5
84663030393,0.375,-0.5625,0.125
84663044709,0.375,-0.5,-0.375
84663067193,-0.6875,-0.125,-0.5
84663090346,-1.1875,0.3125,-0.3125
84663104658,-0.75,0.25,0.0625
84663127241,0,-0.0625,0
84663150341,1.1875,-0.375,-0.0625
84663164762,1.1875,-0.6875,-0.1875
84663187218,0.0625,-0.125,-0.1875
84663210370,-0.4375,0.1875,0.1875
84663224693,0.1875,-0.125,0.25
84663247234,0.6875,-0.1875,-0.1875
84663270411,-0.1875,-0.0625,-0.5
84663284709,-0.625,0.1875,-0.4375
84663308665,-1,-0.1875,0.375
84663329687,0.125,-0.6875,1
84663344785,0.0625,-1.1875,0.8125
84663375373,-1.1875,-1.25,1.0625
84663389708,-1.6875,-1.1875,1.0625
84663404703,-1.1875,-1.375,0.6875
84663427158,-0.3125,-1.6875,0.3125
84663449658,0.3125,-1.5,0
84663464669,0,-1,0.0625
84663487200,-0.125,-0.1875,-0.0625
84663509741,0.4375,-0.125,0.25
84663524744,0.5625,0.0625,0.4375
84663547243,0.1875,0.3125,0.25
84663569729,0.25,0.3125,0.125
84663584702,0.125,-0.0625,-0.1875
84663607220,0.0625,-0.5,-0.125
84663629779,-0.0625,-0.6875,0.0625
84663652927,0.125,-0.875,0.375
84663667234,0,-0.875,0.5625
84663689677,-0.0625,-0.875,0.4375
84663704667,-0.25,-0.75,0.25
84663727183,-0.375,-0.3125,0.125
84663749711,-0.375,-0.1875,0.0625
84663764729,-0.0625,0.0625,0
84663787248,0,0,-0.1875
84663809690,0.0625,0.1875,0
84663832844,0.25,0.125,0
84663847229,0.125,0,-0.125
84663869704,-0.3125,-0.0625,-0.0625
84663884728,-0.1875,-0.1875,0.1875
84663907226,0,-0.5,0.375
84663929750,0.0625,-0.5,0.25
84663944716,0.0625,-0.625,-0.125
84663975403,-0.1875,-0.5,-0.625
84663989680,-0.1875,-0.25,-0.5
84664004656,0.3125,-0.3125,-0.125
84664027221,0.0625,-0.125,-0.1875
84664049749,-0.0625,-0.125,-0.3125
84664064695,0.6875,-0.3125,0
84664087207,1.3125,-0.5,-0.0625
84664109686,1.25,-0.5,-0.125
84664126126,0.3125,-0.1875,-0.25
84664147274,0.25,0.0625,-0.25
84664169705,0.75,-0.0625,-0.125
84664186202,0.75,-0.0625,-0.125
84664207239,-0.1875,0,-0.0625
84664229759,-0.875,0,0.125
84664246810,-0.625,-0.125,0.375
84664267181,0.0625,-0.5625,0.375
84664289725,0.0625,-0.375,0.0625
84664306168,-0.75,-0.1875,-0.125
84664327204,-0.9375,0.25,-0.0625
84664349696,0.1875,0,0.125
84664366175,0.3125,-0.25,-0.1875
84664387211,0.25,-0.0625,-0.0625
84664409734,-0.125,-0.0625,0.0625
84664426807,0.25,0.1875,0.25
84664447245,0.0625,0.0625,0
84664469723,0.0625,0.125,-0.125
84664486180,-0.3125,-0.125,-0.125
84664507190,-0.0625,-0.25,0
84664529743,0.6875,-0.4375,0.1875
84664546191,0.4375,-0.375,0.125
84664567192,-0.25,0.0625,0
84664589691,-0.3125,0,-0.1875
84664606175,-0.375,0.1875,-0.3125
84664627246,-0.1875,0.25,-0.1875
84664649684,-0.3125,0.375,-0.3125
84664666143,0.1875,1,-0.375
84664687207,0.6875,1.375,-0.75
84664709725,0.5625,1.875,-1.25
84664726191,1.125,1.875,-1.0625
84664747237,1,1.6875,-1.5625
84664769713,0.5,1.5625,-1.0625
84664786138,-0.375,1.4375,-0.25
84664807237,-0.125,0.6875,0.0625
84664829731,0.25,-0.3125,0.3125
84664846178,0,-0.6875,-0.25
84664867203,-0.6875,-0.9375,-0.5625
84664889735,-0.0625,-0.8125,-0.3125
84664906150,0.4375,-0.75,-0.25
84664927247,0.1875,-0.375,-0.6875
84664949710,0.1875,-0.0625,-0.5625
84664966176,0.5,0.3125,-0.125
84664987252,0.0625,0.5625,0.1875
84665009721,-0.0625,0.8125,0.125
84665026187,0.5,0.75,0.0625
84665048653,0.4375,0.5,-0.25
84665069742,0.25,0.4375,-0.375
84665086172,0.3125,0.3125,-0.125
84665108678,0.0625,0.0625,-0.0625
84665129733,-0.6875,-0.0625,-0.25
84665146149,-0.6875,-0.125,-0.1875
84665168716,-0.6875,0.25,0
84665189708,-0.75,0.375,0.25
84665206148,0,0.3125,0.375
84665228705,0,0.1875,0.125
84665249766,0.3125,0.1875,-0.0625
84665266179,0.125,0,-0.125
84665288703,0.0625,-0.0625,-0.0625
84665317952,-0.3125,-0.0625,-0.0625
84665326244,-0.375,-0.125,0.125
84665348707,-0.3125,-0.25,0.3125
84665369686,-0.625,-0.3125,0.125
84665386174,-0.375,-0.25,0.125
84665408660,-0.0625,-0.3125,-0.125
84665429719,-0.125,-0.0625,0
84665446154,-0.1875,0.0625,-0.0625
84665468673,-0.0625,0.4375,-0.125
84665489710,-0.125,0.375,0
84665506151,0.5,0.125,-0.125
84665528678,0.375,0.1875,-0.25
84665549830,-0.5,0.5,-0.375
84665566148,-0.5,0.4375,-0.3125
84665596212,0.0625,0.3125,-0.3125
84665609817,0.5625,0.125,-0.5
84665626177,0.3125,0.0625,-0.5
84665648659,-0.0625,0.125,-0.1875
84665669758,0.125,-0.0625,0.1875
84665686205,0.3125,-0.25,0.25
84665708678,0,-0.25,-0.1875
84665729789,-0.1875,-0.25,-0.375
84665746230,0,-0.125,-0.3125
84665768705,-0.4375,0.1875,-0.375
84665789735,-1.25,-0.125,-0.3125
84665806174,2.25,-0.875,0.25
84665830127,0.625,-0.5,-0.375
84665849735,0.25,-0.375,0.0625
84665866157,0.8125,-0.0625,-0.25
84665888713,0.375,0.5625,-0.6875
84665909793,0.75,0.5625,-0.25
84665926176,0.3125,1,0.125
84665948700,-0.5,1.0625,0.3125
84665969764,-0.3125,0.625,0.4375
84665986213,-0.25,0.0625,0.4375
84666008623,-0.6875,-0.125,0.0625
84666031211,-0.5625,-0.3125,0.0625
84666046950,-1.125,-0.3125,-0.125
84666068737,-1.0625,-0.1875,-0.3125
84666091215,-0.375,-0.1875,-0.125
84666106224,-0.0625,-0.25,-0.0625
84666128675,0.3125,-0.0625,0.1875
84666151206,0,0.1875,0.375
84666166194,-0.25,0.3125,0.4375
84666187923,-0.3125,0.125,0.125
84666210388,-0.0625,0.0625,0
84666226835,0.8125,-0.125,-0.1875
84666247994,0.5625,-0.1875,-0.4375
84666270431,-0.3125,-0.125,-0.375
84666286945,-0.375,-0.25,0.0625
84666307965,0.375,-0.4375,0.375
84666330440,0.1875,-0.3125,0.1875
84666346882,-0.0625,-0.1875,-0.125
84666367985,-0.3125,0,-0.1875
84666390451,-0.1875,0.125,-0.125
84666406924,0.0625,0.25,0.0625
84666428000,0.375,0.1875,-0.0625
84666450487,-0.0625,0.1875,-0.375
84666474396,-0.1875,0.1875,-0.5
84666487858,-0.125,0.0625,-0.3125
84666510434,0.1875,-0.1875,0.125
84666526957,0.25,-0.1875,0.1875
84666547959,-0.1875,-0.3125,0.1875
84666570391,-0.5625,0.0625,0
84666586873,-0.1875,0.1875,-0.0625
84666607927,0.25,0.4375,-0.5625
84666630457,-0.3125,0.625,-0.875
84666647555,-0.375,0.75,-0.6875
84666668063,-0.25,0.625,-0.0625
84666690442,-0.375,0.4375,0.0625
84666706923,0.1875,0,0.25
84666727987,0.8125,-0.375,0
84666751954,0.5625,-0.4375,-0.4375
84666766874,0,-0.25,-0.5
84666787960,-0.3125,0,-0.3125
84666810435,-0.3125,0.125,0.125
84666826833,-0.0625,0.0625,0.375
84666848019,-0.125,-0.0625,-0.0625
84666870525,-0.1875,0.0625,-0.1875
84666886947,-0.4375,0.0625,-0.0625
84666907989,0.0625,0.125,0.125
84666930468,0.375,-0.125,0.25
84666946200,-0.0625,-0.125,0
84666968725,-1.125,0.0625,-0.125
84666990413,-0.625,-0.0625,0
84667006189,0,-0.1875,0.3125
84667028026,0.5,-0.5,0.5
84667050452,0.0625,-0.1875,0.1875
84667066253,-0.1875,0.0625,0.125
84667087964,0.3125,0.0625,0.125
84667110524,0.5,0,0.25
84667126282,0.125,0.3125,0.0625
84667149406,0,0.25,0
84667170466,0.0625,0,-0.0625
84667186237,-0.5,-0.0625,0.0625
84667209350,0,-0.3125,0.25
84667230411,0.5,-0.5,0.3125
84667246232,0.3125,-0.5,-0.0625
84667269379,-0.6875,-0.3125,-0.125
84667290457,-0.8125,-0.25,-0.125
84667306202,-0.125,-0.1875,0.125
84667329408,0.5625,-0.25,-0.125
84667350393,0.375,-0.0625,-0.1875
84667366253,-0.1875,0.1875,-0.1875
84667389402,-0.375,0.5625,-0.25
84667410448,0.1875,0.25,-0.3125
84667426216,-0.3125,0.25,-0.3125
84667449399,-0.375,-0.1875,0.125
84667470431,-1.5,-0.25,0.5625
84667486260,-0.625,-0.5,0.9375
84667509409,0,-1.125,0.375
84667530470,-0.125,-0.75,0.0625
84667546226,-0.125,-0.5,0.0625
84667569389,-0.3125,-0.1875,-0.1875
84667590461,-0.4375,0.0625,-0.25
84667606198,-0.4375,0.25,-0.5625
84667629378,0.25,0.4375,-0.5625
84667650473,0.9375,0.25,-0.375
84667674395,2,0.125,0.1875
84667689398,1.0625,0.25,0
84667710464,-0.8125,0.6875,0.125
84667726249,-0.875,0.5625,0.625
84667749419,0.5,-0.0625,0.8125
84667770497,0.5625,-0.1875,0.25
84667786288,0.5,-0.5625,-0.1875
84667809374,-0.25,-0.4375,-0.4375
84667830436,-0.8125,-0.0625,-0.5625
84667846273,0.1875,-0.375,0
84667869397,-0.1875,-0.1875,0.25
84667890477,-0.6875,-0.25,0.25
84667906233,-1,-0.0625,0.1875
84667928699,-0.75,-0.125,0
84667950444,0.375,-0.375,-0.0625
84667966251,0.5625,-0.3125,-0.1875
84667988749,0.8125,-0.375,-0.3125
84668010456,0.1875,-0.25,-0.5
84668026205,-0.375,0,-0.3125
84668048768,0.25,-0.25,0.125
84668071927,0.0625,-0.375,0.0625
84668086275,-0.125,-0.5625,-0.1875
84668108732,-0.5,-0.5625,-0.0625
84668137987,-0.25,-0.5625,0.4375
84668146239,0.25,-0.625,0.9375
84668168761,0.3125,-0.5625,0.875
84668191938,0.0625,-0.5,0.5
84668206248,-0.375,-0.0625,0.5
84668228701,-0.1875,0.1875,1.3125
84668251940,0.375,0.5625,2.0625
84668266913,1.75,0.125,2.1875
84668288742,1.875,0.125,1.25
84668311932,1.4375,0.4375,0.0625
84668326244,2.0625,0.75,-0.25
84668348707,0.9375,0.5625,-0.5
84668371942,0.875,-0.25,0
84668386251,-0.125,-0.625,0
84668408766,-0.8125,-0.9375,0.125
84668431967,-0.5,-1.1875,0.4375
84668446271,0.4375,-1.3125,0.4375
84668468759,0.75,-1.4375,0.5
84668491938,-0.125,-0.8125,0.0625
84668506203,-1,-0.1875,-0.0625
84668528748,-0.1875,-0.0625,-0.25
84668551951,0.8125,-0.25,-0.625
84668572969,1.25,-0.1875,-0.8125
84668588778,1.5625,-0.1875,-0.4375
84668611944,1,0,0.125
84668632991,0.3125,-0.0625,0.5
84668649192,-0.0625,0,0.4375
84668671921,-1.1875,-0.375,0.375
84668694444,-1.5,-0.1875,0.1875
84668708762,-0.25,-0.5625,0.5
84668731932,0.5,-0.625,0.8125
84668753070,0.4375,-0.6875,0.75
84668768774,-1.8125,-0.8125,1.0625
84668791957,-2.0625,-0.375,0.375
84668812999,-0.875,-0.8125,0.125
84668828738,-0.625,-0.6875,0.0625
84668851233,0.6875,-0.6875,-0.25
84668872967,0.6875,0.125,-0.0625
84668888743,0.875,0.75,0.0625
84668911202,0.625,1.375,-0.25
84668932998,0.25,1.6875,-0.375
84668948747,1.5,1.1875,-0.375
84668971243,1.375,0.75,-0.3125
84668992988,0.4375,0.1875,-0.25
84669008820,0.0625,-0.625,0
84669031234,-0.9375,-0.9375,0
84669054430,-1.625,-1.1875,0
84669068794,-1.4375,-1,0
84669091284,-0.6875,-0.875,0.125
84669114453,-0.125,-0.3125,0.125
84669128811,0.625,-0.0625,0.1875
84669151276,0.625,0.375,-0.0625
84669174410,0.375,0.75,-0.3125
84669188754,0.375,1.0625,-0.5
84669211243,0.625,0.5625,-0.8125
84669234434,0.875,0.5,-0.8125
84669248773,0.3125,0.1875,-0.6875
84669271264,-0.5625,0,-0.8125
84669294398,-1.25,-0.0625,-0.75
84669308754,-0.75,0,-0.3125
84669331219,0.1875,-0.375,-0.125
84669354429,1.25,-0.6875,-0.125
84669368819,1.0625,-0.5,-0.1875
84669391291,0.875,0.125,-0.1875
84669414455,0.25,0.75,-0.25
84669428760,0.25,0.9375,-0.375
84669451278,0.375,0.6875,-0.75
84669474410,-0.0625,0.75,-0.5
84669488734,-0.9375,0.75,-0.25
84669511275,-0.8125,0.4375,-0.0625
84669534430,0,-0.125,0
84669555482,-0.1875,-0.25,-0.125
84669571246,-1.0625,0.1875,-0.375
84669594417,-0.6875,0.1875,-0.1875
