myot,x,y,z
284876800696,-11.875,8.125,5.75
284876821902,-11.8125,3.25,1.9375
284876844494,-17.75,0,-1.3125
284876859479,-15.625,-1.0625,0.4375
284876874492,-5.6875,-1.125,3.375
284876897042,0.4375,-1.9375,3.125
284876919596,5.5,-4.75,0.9375
284876967688,8.875,-9.375,-0.8125
284876969839,10.875,-11.8125,-1
284876983477,10.3125,-10.875,-0.3125
284876998402,9.125,-9.625,-1.875
284877020887,7.0625,-8.75,-4.9375
284877042117,9.875,-6.1875,-7.25
284877063088,22.1875,-3.625,-5.4375
284877091849,33.4375,-3.5625,-2.9375
284877102687,36.3125,-4.6875,0.3125
284877122521,37.125,-5.375,0.5
284877136877,29.1875,-4.5,-2.5
284877160097,21.1875,-2,-6.6875
284877182442,21.0625,0.1875,-8.5625
284877196856,17.4375,2.3125,-8.5
284877220074,1.625,3.9375,-11.3125
284877242557,-22.0625,6.6875,-15.3125
284877256904,-29.1875,3,-16.3125
284877279989,-11.25,2.8125,-10.5
284877302505,6.3125,7.0625,-0.75
284877316827,3.1875,8.3125,4.9375
284877340017,-13.8125,5.5625,5.25
284877362489,-21.3125,5.125,2.8125
284877376868,-13.5,7.4375,0.875
284877400139,-3,7.625,3.5
284877422534,8.375,6.625,7.125
284877436842,7.4375,5.3125,7.75
284877459417,6.9375,3.75,6
284877475804,14.5625,6.25,9.625
284877496851,50.5,11.875,20
284877519357,83.1875,8.5625,33.5
284877542484,74.5,1.3125,35
284877556805,42.375,-8.5,29.0625
284877579276,30.6875,-10.75,22.75
284877603966,24.5,-13.3125,17.8125
284877616835,33.75,-15.0625,23
284877639326,55.5,-16.125,30.8125
284877662462,41.875,-19.375,30.625
284877678267,13,-24.375,23.9375
284877699292,21.5,-26.875,14.1875
284877724523,33.125,-27.5625,5.4375
284877736777,27.875,-25,2.8125
284877759312,6.8125,-21.75,3.0625
284877782544,-5.1875,-17.125,0.9375
284877798356,-4.6875,-12.875,-4
284877819368,-8.375,-10.1875,-8.375
284877843995,-15.6875,-6.25,-8.5625
284877858284,-18.3125,-1,-7.0625
284877879417,-16.9375,2.375,-5.9375
284877902586,-19.5,4.0625,-5.75
284877918345,-28.125,5.0625,-7.375
284877939416,-41.3125,8.4375,-9.5625
284877962492,-51.5,11.8125,-11.375
284877978298,-52.25,15,-13.125
284877999261,-48.1875,15.25,-13.75
284878022435,-42.3125,13.375,-12.875
284878044971,-43.5,5.375,-6.9375
284878059276,-43.875,-2.6875,2.1875
284878081813,-40.125,-7.5625,11
284878098242,-26.6875,-5.9375,16.5
284878119336,-17.0625,2.5625,23.3125
284878141823,-9.3125,10.875,27.875
284878158285,-7.8125,13.3125,27.75
284878179281,-5.5625,17,29.5625
284878201818,-7.4375,22.25,33.5625
284878218861,-7.0625,26.9375,39.875
284878239343,-4.5,30.9375,44.3125
284878261784,-7.5625,28.875,47.3125
284878278225,-9.8125,26.75,51.8125
284878299294,-6.625,28.125,58.6875
284878321796,0.3125,28.375,64.9375
284878339024,0.3125,27.3125,70.8125
284878359292,-3.1875,25.4375,74.8125
284878381815,-8.875,21.75,80.5625
284878399691,-10.125,15.0625,87.9375
284878419319,-3.375,8.8125,94.4375
284878441807,0.8125,3.25,96.25
284878458273,0.5625,-1.25,96.1875
284878479264,3.75,-2.5625,98.5
284878509983,8.6875,-0.75,101.5
284878518247,8.4375,-3.875,104
284878539324,5.1875,-3.375,102.5
284878561817,6.4375,4.25,100.5
284878578241,10.8125,8.25,96.3125
284878599320,0.4375,7.875,90
284878621780,0.25,5.1875,88
284878638308,0.25,1.9375,87.1875
284878659328,2.25,0.5625,82.25
284878681821,6.875,2,75.5
284878698278,8.4375,3.75,70.5
284878720743,14.5,0.9375,66.6875
284878741837,16,-6.1875,63.75
284878758300,9.6875,-10.0625,58.9375
284878780793,11.1875,-8.9375,52.8125
284878801811,8.125,-14.0625,50.125
284878824302,2.4375,-21.375,46
284878840772,-5.9375,-25.875,37.875
284878861821,-13.125,-29.0625,27.5
284878878279,-15.25,-31.3125,19.5
284878900804,-7.625,-31.6875,14.3125
284878921832,-13.125,-29.6875,9.75
284878938293,-17.3125,-27.5625,6.0625
284878960771,-15.125,-27.5,4.0625
284878981823,-15.5625,-28.75,1.5625
284878998301,-12.5,-27.5625,-1.625
284879019978,-13.3125,-21.9375,-5.3125
284879042476,-8.75,-14.6875,-8.9375
284879057494,-4.8125,-11.1875,-10.375
284879080024,-7.125,-9.9375,-12.3125
284879102446,-5.875,-6.1875,-13.6875
284879117485,-7.25,-2.8125,-12.5625
284879140024,-2.5,-0.375,-10.875
284879155686,0.9375,-0.5625,-8.625
284879177474,2.4375,-3,-7.5
284879199994,5.1875,-4.0625,-6.25
284879230665,4.6875,-3.5625,-5.0625
284879237496,1.5,-2.5625,-3.6875
284879259999,4.5,-1.8125,-2.6875
284879275748,4.5625,-0.75,-3
284879297481,0.75,-1,-1.75
284879320040,1,-0.4375,1.9375
284879343984,-0.25,1.75,2.375
284879357446,3.25,2.3125,1.6875
284879380007,0.4375,0.9375,2.4375
284879395803,1,0.4375,2.8125
284879417499,1.5625,-0.375,3.625
284879440018,2.9375,-0.6875,3.25
284879455780,2.6875,-1.4375,1.8125
284879477497,2.875,-2.0625,0.5625
284879500020,4.5,-1.125,0
284879515777,5.3125,1.8125,1.5
284879544995,4.8125,2.6875,2.5
284879559991,4.5625,2.125,0.5
284879576428,5.9375,1.4375,-2.375
284879597497,5.5625,0.25,-5.8125
284879620028,0.6875,-2.3125,-6.6875
284879643980,-0.25,-4.25,-4.1875
284879657504,-1.1875,-4.5625,-2.1875
284879680023,-3,-3.25,-2.25
284879695774,-2.0625,-2.75,-3
284879718981,-3.4375,-3.1875,-3.75
284879740012,-5.625,-1,-2.5
284879755745,-4.5,0.625,0.3125
284879778973,-4.125,1.5625,2.0625
284879800029,-3.0625,1.625,1.9375
284879823971,-3.125,0.6875,0.875
284879838996,-2.5,0.5625,0.125
284879860044,-2.3125,0.875,0.1875
284879875799,-1.6875,1,0
284879898970,0,0.5625,-0.1875
284879920022,0.6875,-0.375,-0.875
284879935746,0.75,-1,-0.8125
284879958989,1.6875,-0.9375,-0.9375
284879981479,1.9375,-0.4375,-0.6875
284879995770,0.4375,-0.125,-0.5
284880018966,-0.3125,0,-0.375
284880040040,-1.125,-0.0625,-0.1875
284880062547,0.0625,-0.125,-0.3125
284880078964,1,-0.5625,-0.75
284880100017,0.3125,-1.0625,-0.5
284880115801,0,-0.75,-0.25
284880145017,0.4375,0.0625,-0.4375
284880160018,0.5,0.4375,-0.625
284880175766,0.8125,0.875,-0.75
284880198978,0.0625,0.5625,-0.875
284880220060,0.5,0.5,-0.625
284880235811,0.625,0.4375,0.1875
284880258979,1.0625,0.0625,0.3125
284880280023,0.5625,-0.375,-0.25
284880295772,0.0625,-0.5,-1.1875
284880318998,-0.375,-0.5,-1.3125
284880340055,1.6875,0.125,-1.5625
284880355747,1.1875,0.0625,-2.3125
284880378971,1.4375,-0.25,-2.4375
284880400059,1.8125,0.1875,-2.875
284880415802,1.8125,2.5,-4.375
284880438974,3.75,8.5625,-8.0625
284880460031,5.3125,12.5625,-13.9375
284880482549,7,16.8125,-19.6875
284880499068,10.5,21,-25.9375
284880520041,13.3125,20.1875,-31.3125
284880542568,19.625,23.5625,-34.3125
284880559049,30.125,33.25,-28.4375
284880580037,39.875,44.1875,-20.3125
284880602567,43.6875,50.1875,-17.875
284880618356,46,54.0625,-21.375
284880640075,47.1875,55.375,-26.4375
284880664503,47.4375,56.0625,-30.625
284880678342,50.125,55.25,-35.5
284880701486,49.25,52.4375,-40.1875
284880722633,46.875,48.125,-48.5625
284880738429,45,42.9375,-58.625
284880761520,27.4375,39,-65.5
284880782512,28.1875,40.8125,-69.25
284880798326,32.375,38.625,-75.5625
284880821527,23.75,29.125,-88.0625
284880842561,14.625,20.8125,-97.0625
284880858842,15.375,18.625,-93.9375
284880881558,27.375,20,-87.4375
284880902590,12.1875,17,-85.5625
284880918383,-15.125,13.5,-87
284880949061,-5.5,10.625,-80
284880962602,2.5625,11.5,-65.5
284880978354,8.3125,15.8125,-52.875
284881001270,0.875,16.6875,-48.75
284881022612,-5.25,13.8125,-47.8125
284881038402,1.5,14,-40.75
284881061503,1.375,17.875,-34.375
284881082622,-2.5,20.75,-33.125
284881098848,-2.75,19,-32.5625
284881121452,5.5625,15.9375,-28.5625
284881142582,5.8125,16.75,-20.25
284881158430,8.0625,20,-9.75
284881181552,19.4375,19.4375,-1.125
284881210100,31,14.5625,6.25
284881226490,36.1875,10.75,8.75
284881241589,35.9375,5.75,7.25
284881262621,30.4375,-1.375,2.3125
284881278309,26.25,-8.9375,-4.375
284881301508,24.625,-15.125,-13.5
284881324036,24.75,-17.5,-20.125
284881338370,20.125,-14.8125,-23.6875
284881361570,15.75,-10.9375,-27.0625
284881382595,12.8125,-11.75,-31.5625
284881398380,-4.9375,-12.625,-33.0625
284881421488,-15.875,-10.1875,-32
284881442602,-15.4375,-5.25,-31
284881458385,-18.25,1.4375,-26.3125
284881487613,-15.625,5.5,-20.375
284881502605,-13.5,7.375,-12.8125
284881518445,-12.5,6.125,-7.25
284881541562,-7.8125,3.5,-5.125
284881564007,-7.3125,-0.0625,-5.125
284881578401,-9.375,-1.5625,-4.0625
284881600914,-8.8125,-3.625,-4.5
284881624054,-9.875,-6.625,-8.5
284881638383,-17.625,-9,-9.9375
284881660844,-22.5625,-9,-6.9375
284881684026,-21.5625,-5.625,-3.0625
284881698430,-15.5625,-1.5625,-0.0625
284881720908,-13.8125,-0.3125,1.8125
284881743986,-9.875,-1.6875,1.3125
284881766497,-7.625,-4.8125,-1.25
284881780874,9.25,-0.25,1.1875
284881803987,2.875,1.0625,4.25
284881818354,-9,2.3125,1.4375
284881840816,-5.75,1.625,-2.625
284881864021,-9.75,0,-5.8125
284881892645,-20.3125,-1.625,-12
284881907642,-2.375,-1.6875,-3.8125
284881931573,-0.25,-0.6875,-3.6875
284881945116,-3.6875,-0.625,-4.3125
284881960867,5.75,-1.5625,-7
284881984055,15,-1,-7.6875
284881998382,9.1875,2.9375,-6.75
284882020884,-2,8.125,-5.25
284882044091,-5.75,10.25,-4.3125
284882058429,-0.875,10.5625,-5.9375
284882080873,-2.375,10.8125,-8.375
284882104056,-11,12.25,-7.875
284882125086,-14.875,16.1875,-2.75
284882140847,-15.5,18.9375,3.375
284882164093,-7.25,17.5625,7.5625
284882185166,-0.0625,13.5625,7.8125
284882208984,5.75,12.6875,4.3125
284882223992,0.8125,12,-0.4375
284882245133,-3,9.375,-6.3125
284882260894,-11.8125,4.1875,-14.0625
284882284044,-24.75,1.1875,-15.9375
284882305112,-20.1875,-0.8125,-8.5625
284882320909,-12.3125,-3.5625,1.25
284882344006,-11.0625,-3.9375,7.9375
284882365123,-2.5625,-4.875,12.125
284882380940,7.8125,-4.875,14.625
284882404048,3.6875,-5.0625,12.125
284882425108,-5.25,-6.0625,8.5625
284882441527,-11.8125,-10.3125,10.25
284882464020,-10.875,-13.6875,14.3125
284882485158,-10.125,-15.8125,15.6875
284882500937,-13.1875,-17,20.6875
284882523435,-16.9375,-27.9375,33.125
284882545156,18.625,-33.5625,43.625
284882561381,14.625,-27.4375,48.375
284882583385,14.75,-21.75,46.0625
284882606582,4.8125,-25.6875,52.375
284882628402,-15.0625,-34.6875,61.4375
284882634474,-21.875,-42.6875,64.4375
284882656992,-4.875,-53.75,62.875
284882680087,20.1875,-64.5,63.4375
284882694440,30.875,-71.375,66.125
284882725819,31.625,-73.625,67.875
284882740098,22.3125,-72.5,67.9375
284882754365,15.25,-70.125,64.625
284882776974,15.6875,-69.9375,61.5625
284882800117,17.625,-69.8125,58.9375
284882814430,15.1875,-68.875,57
284882836907,9.5,-64.6875,56.625
284882860117,7.1875,-58,54.8125
284882875936,5.75,-52.5625,51.625
284882896960,4.3125,-49.5,47.25
284882920092,2.875,-46.5625,40.25
284882942601,3,-41.1875,32.375
284882956976,-4.125,-39.3125,28.25
284882980145,-13.25,-38.375,23.3125
284882994433,-20.4375,-39,13.1875
284883016971,-21.875,-36.1875,4.3125
284883040106,-30.6875,-29,2.75
284883054481,-44.8125,-20.25,1.9375
284883076978,-59.375,-15.25,-5.5625
284883100144,-68.5625,-13.125,-11.5
284883114458,-71.375,-10.875,-7.75
284883136980,-73.8125,-9.6875,-2.5625
284883160154,-84,-10.5625,0.25
284883174497,-63.3125,-8.4375,9.25
284883196988,-34.8125,-15.5625,20.625
284883228248,-17,-29.75,27.4375
284883234432,6.5,-40.5,26.75
284883257042,38.625,-47.125,27.1875
284883280144,54.8125,-49.5625,27.1875
284883294485,45.625,-54.375,29.25
284883316985,50.75,-56.8125,28
284883340137,57.5,-55.9375,23.875
284883354495,49.25,-51.0625,19.8125
284883376959,46.3125,-44.25,19.3125
284883400144,47.5,-40.3125,20.6875
284883414471,42.1875,-36.25,15.125
284883437029,16.0625,-29.625,8.6875
284883460125,11.5,-22,4.75
284883474496,13.75,-17.375,4.9375
284883497022,6.4375,-18.4375,3.5625
284883519424,3.5625,-19,2.375
284883534512,0.875,-15.625,5.25
284883556987,-1.375,-11.5,7
284883579527,2.5,-7.4375,7.5
284883594493,11.5625,-2.5625,5.8125
284883616945,9.125,0.625,5.625
284883639483,6.25,5.8125,6.625
284883654411,9.6875,-0.25,4.9375
284883677011,12.6875,-3.75,2.9375
284883699462,13.8125,1.75,4.125
284883714485,13.25,9.6875,4.5625
284883737063,0.625,13.0625,5.625
284883759549,-11.625,13.5,3.875
284883774459,-27.9375,15.8125,-1.8125
284883796957,-52.375,18.3125,-5.1875
284883819481,-68.1875,22.4375,-2.25
284883834484,-69.4375,27.3125,5.125
284883856990,-59.375,29.9375,8.875
284883879516,-46.75,27.625,12.6875
284883894513,-31.5625,23.1875,15.875
284883916967,-25.5,19.125,16.4375
284883939485,-20.875,15.5,14.5625
284883954483,-15.4375,13.875,13.6875
284883977108,-7.3125,12.75,14.8125
284883999539,-1.5625,8.125,12.3125
284884014445,-5.5625,2.5,8.5
284884036967,-3.0625,-0.125,5.125
284884059485,-2.3125,-1.25,2.6875
284884074540,-1.875,-1.9375,0.9375
284884097114,-1.125,-3.0625,-0.375
284884119375,0.0625,-3.5,-0.8125
284884134466,0.5,-3.3125,-1.3125
284884156999,0.5,-3.125,-2.3125
284884179486,-1.1875,-2.5,-2.375
284884194509,-1.8125,-2.5625,-2.3125
284884217006,-1,-3.4375,-3
284884239391,1.6875,-4.125,-3.375
284884262690,3.125,-3.125,-3.875
284884277006,2.0625,-1.625,-4.125
284884299521,-2.25,-1.375,-4.3125
284884315909,-4.5,-1.3125,-3.8125
284884337044,-2.6875,-1.125,-3.5
284884359475,-0.625,-0.3125,-2.375
284884374464,0,0.8125,-0.9375
284884397015,-0.4375,1.25,0.1875
284884419459,-2.625,0.3125,0.5
284884435969,-1.1875,-0.5,0
284884457081,0.75,-0.4375,-0.125
284884479564,1.3125,-0.25,0.125
284884495903,2.375,-0.5625,-0.1875
284884517059,1.6875,-0.9375,-0.3125
284884539493,0.875,-0.9375,-0.4375
284884555969,1,-0.75,-0.125
284884577004,1.75,-0.8125,-0.3125
284884599492,3,-1.375,-1
284884615979,3.625,-1.8125,-1.25
284884637033,3.875,-2.125,-1.125
284884659563,2,-2.25,-1.4375
284884676066,1.3125,-1.6875,-1.375
284884697113,1.9375,-0.9375,-1.0625
284884719507,2.0625,-0.5,-1
284884735901,0.1875,0,-0.625
284884757118,0.8125,0.625,0.1875
284884779540,-0.3125,0.5625,0.5625
284884795913,-0.9375,0.125,0.8125
284884818440,0.0625,0.1875,0.9375
284884839438,0.75,-0.0625,0.9375
284884855973,0.75,0,0.9375
284884876988,0.875,0.1875,1
284884899489,-1.5,0,0.625
284884916082,-1.1875,-0.1875,0.375
284884937024,-0.125,-0.0625,0.125
284884959513,-0.3125,-0.0625,-0.0625
284884983428,-0.8125,-0.0625,-0.25
284884998519,-1.125,0.3125,-0.0625
284885019486,-1.875,0.0625,0.0625
284885035943,-1.4375,-0.375,0.0625
284885056991,0.75,-0.3125,-0.0625
284885079536,0.75,-0.5,0.1875
284885095975,0.1875,-0.6875,0.0625
284885117062,0.1875,-0.5,-0.0625
284885139493,0.5,-0.5,-0.1875
284885155960,0.5,-0.5625,-0.4375
284885176978,-0.125,-0.4375,-0.4375
284885199563,-0.6875,-0.3125,-0.5625
284885215991,-0.5625,-0.25,-0.4375
284885237054,0.1875,-0.1875,-0.0625
284885259564,0.4375,-0.625,-0.125
284885276064,1.1875,-1.0625,-0.25
284885297063,2.3125,-1.4375,-0.5625
284885319515,2.5625,-2.0625,-1
284885335913,3.125,-2.0625,-1.5625
284885358455,2.75,-1.9375,-1.8125
284885379540,1.4375,-1.875,-1.6875
284885395909,0.8125,-1.3125,-1.25
284885418461,0.125,-0.8125,-0.375
284885447734,-0.3125,0.125,0.4375
284885456060,-0.625,0.75,1.125
284885478438,0.3125,0.9375,1.5
284885499551,-1.3125,0.6875,1.6875
284885516014,-0.375,-0.0625,1.125
284885538430,0.8125,-0.5,0.8125
284885559552,0.75,-0.875,0.4375
284885576012,1.875,-1.375,-0.125
284885598439,3.8125,-2.125,-0.6875
284885619478,3.875,-2.3125,-1.125
284885635927,3.125,-1.9375,-1.4375
284885658524,3.5,-1.5625,-1.1875
284885679585,3.875,-1.3125,-1.1875
284885695948,2.9375,-1,-0.8125
284885718453,2.8125,-0.3125,-0.75
284885739555,1.5625,0.25,-0.5625
284885756008,0.75,0.25,-0.25
284885778503,1.8125,0.625,-0.0625
284885799574,0.5,0.625,-0.125
284885816080,-0.3125,0.4375,-0.4375
284885838512,0.4375,0.4375,-0.1875
284885859477,0.375,0.25,0.1875
284885876054,0.375,0.0625,-0.0625
284885898463,0.8125,-0.1875,-0.125
284885919544,1.25,-0.3125,-0.3125
284885936018,0.125,-0.6875,-0.375
284885958441,0.375,-0.6875,-0.4375
284885979515,1,-0.4375,-0.4375
284885996057,0.5625,-0.4375,-0.0625
284886018411,-0.3125,-0.3125,0.1875
284886039556,-0.375,-0.1875,0.4375
284886056007,-0.125,-0.1875,0.5625
284886078483,-0.5625,-0.125,0.1875
284886099518,0.3125,-0.375,0
284886116055,0.1875,-0.5625,-0.125
284886138428,0.25,-0.6875,-0.0625
284886159593,0.25,-0.625,0.1875
284886176057,1.25,-0.4375,0.5625
284886198494,2.8125,0.1875,1.375
284886220235,2.5625,0.375,1.875
284886235140,0.375,0.125,1.3125
284886257694,0.625,-0.125,0.6875
284886281657,1.1875,-0.5,0.5
284886295209,1.3125,-0.75,0.0625
284886317697,0.6875,-0.875,0
284886340184,0.75,-0.625,-0.1875
284886355230,0.75,-0.625,0
284886377713,0,-1.0625,0.0625
284886400186,0.875,-0.875,0.0625
284886416589,1.125,-0.4375,0.1875
284886437750,1,-0.3125,0.25
284886460208,0.5,0.0625,0.25
284886476433,2.0625,-0.1875,0.5
284886497770,3.75,-0.5625,-0.1875
284886520259,2.5625,-1,-0.8125
284886536653,2.3125,-1.3125,-0.6875
284886557684,2.0625,-1.5,-0.875
284886580184,2.1875,-1.8125,-0.9375
284886596661,3,-1.5625,-0.6875
284886617715,1.8125,-1,-0.4375
284886640251,-0.4375,-1,-0.4375
284886656653,-2.75,-1.5625,-1.8125
284886677740,-2.5,-1.875,-2.5625
284886700132,-0.375,-1.8125,-2.625
284886716610,-0.3125,-2.125,-2.125
284886737715,1.4375,-2.125,-1.75
284886760167,2.3125,-1.75,-1.5
284886776720,1.9375,-1.25,-1.1875
284886797751,0.5625,-0.6875,-0.25
284886820196,-0.75,0,-0.0625
284886836617,-0.875,0.3125,0.125
284886857691,0.1875,0.5625,0.6875
284886880253,-0.3125,0.6875,1.375
284886896688,0.1875,0.375,1.0625
284886925191,0.0625,0,0.5
284886940224,-1.0625,-0.6875,0.25
284886956574,-0.3125,-0.75,0.1875
284886977724,1.8125,-0.625,0.3125
284887000280,1.125,-0.3125,0.6875
284887016682,-0.5625,0.9375,0.375
284887037715,-2.875,4.625,0.875
284887060202,-6.0625,5.5625,1.125
284887076688,-2.0625,4,0.125
284887097723,1.25,4.5625,-0.0625
284887120163,-2.125,3.25,-0.6875
284887136703,-0.5,1.375,-0.625
284887157748,5.625,-1.875,-0.75
284887180228,8.8125,-2.6875,-1.0625
284887196647,5.4375,-2.375,-1
284887217721,3.5,-1,-0.875
284887240156,3.9375,-1.3125,-0.625
284887256035,4.6875,-2.125,0
284887279172,3.875,-1.75,-0.625
284887300243,-1.25,-1.3125,-2.5
284887316059,-1.1875,-0.8125,-3.375
284887339159,2.6875,-1.9375,-4
284887360210,3.5,-2.4375,-4.625
284887376065,0.9375,-2.0625,-4.3125
284887399152,0.0625,-2.125,-3.6875
284887427716,2.3125,-2.4375,-3.125
284887435995,5.4375,-2.6875,-2.8125
284887459173,2.9375,-1.3125,-2.6875
284887481721,-2.4375,-0.8125,-2.6875
284887496092,-1.4375,-0.625,-2.4375
284887519107,0.375,-0.625,-2.1875
284887540219,3.625,1.375,-0.5
284887556086,-0.75,3.625,1.5
284887579210,-12.125,1.625,0.5625
284887600248,-18.8125,-2.5,-1.3125
284887616020,-3.0625,-6,-2.4375
284887639233,32.4375,-18.6875,-1.3125
284887660211,-5.125,-133.125,12.8125
284887676087,94.1875,-28.625,125.5
284887699143,158.125,59.125,167.562
284887720233,336.438,175.312,270.875
284887736123,575.938,382.625,338.875
284887759212,191.25,504.312,282.875
284887780270,137.812,538.75,276.625
284887796084,21.125,544.5,231.375
284887819256,45.1875,456.5,217.5
284887840205,95.5625,318.562,198.562
284887856055,87.4375,156.438,166.438
284887879212,111.438,18.625,144.312
284887900235,78.375,-65.5,99.3125
284887916049,21.1875,-108.25,52.875
284887946651,-24.4375,-134.438,0.3125
284887960211,-79.9375,-170.5,-79.9375
284887976022,-149.125,-216.062,-188.812
284887999205,-241.875,-263.875,-280.875
284888020245,-229.438,-298.75,-337.5
284888036054,-196.25,-341.125,-392.188
284888059181,-275.812,-360.188,-379.5
284888080256,-234.375,-230.062,-305.375
284888096057,-10.875,-180.438,-168.562
284888125312,-41.9375,-140.062,-87.8125
284888140212,-112.625,-120.062,-67.4375
284888156037,-46.1875,-98.875,-67.8125
284888179210,-12.625,-79.3125,-78.9375
284888200273,-43.5,-66.6875,-67.375
284888216062,-46.125,-58.4375,-39.75
284888238485,-31.75,-43.75,-20.125
284888260250,-5.0625,-23.625,-17.5625
284888276050,3.5625,-12.1875,-19.6875
284888298505,-6.375,-6.1875,-15.6875
284888320160,-16.5,-5.375,-13.6875
284888335966,-27.5,-4.9375,-13.9375
284888358538,-15.125,-1.6875,-17.4375
284888381791,-1.4375,2.6875,-15.3125
284888396050,-0.875,8.4375,-1.5
284888418575,0.5625,8.5625,0
284888441706,-16.5,3.4375,-6.375
284888456063,-18.1875,0.625,-11.125
284888478489,-0.6875,-1.125,-10.1875
284888501658,6.25,-1.1875,-6.0625
284888516053,7.125,-0.75,-4.4375
284888538509,-0.125,1,-5.0625
284888561657,-1.625,5.125,-3.625
284888576005,-1.6875,7.75,-2.1875
284888598497,-6,7.25,-1.1875
284888621677,-7.125,5.1875,-0.25
284888636097,-7.625,4.6875,-0.4375
284888658506,-4.375,6.375,-0.6875
284888681637,2.125,9,0.25
284888704181,0.3125,8.4375,0.1875
284888718578,-5.9375,5.875,-0.1875
284888741688,-9.5625,2.4375,-1.5625
284888756083,-8.1875,0.4375,-1.1875
284888778531,-2.5625,1.125,-1
284888801720,-2.75,2.6875,-1.6875
284888816052,-4.75,2,-1.6875
284888838529,-5.0625,0.25,-3
284888867806,-2,-0.9375,-4.75
284888882746,-0.125,-2.125,-5
284888898548,1.8125,-1,-2.875
284888921690,4.4375,1.5625,-0.0625
284888942759,0.625,1.4375,2
284888958554,-2.125,2.125,4.375
284888981711,0.0625,3.375,7.625
284889002799,-2.6875,4.1875,9.5625
284889018563,-6.375,2.6875,7.5625
284889041769,-5.5625,0.375,4.8125
284889062710,-0.3125,-1.6875,1.1875
284889078521,1.8125,-2.75,-1.5625
284889101672,2,-3.75,-2.125
284889122769,1.8125,-4.75,-1.6875
284889138524,3.5625,-5.375,-1.125
284889161081,6.4375,-5.4375,-0.4375
284889182767,8,-2.75,1.25
284889198580,5.875,0.1875,2.625
284889221042,0.75,1.5625,2.9375
284889242818,-1.875,1.625,2.625
284889258584,-0.5625,2.5625,2.3125
284889281042,-0.9375,3.3125,1.4375
284889302880,-3,3.0625,0.625
284889318596,-2.4375,2.375,0.5625
284889341054,-3.9375,1.75,0.4375
284889364214,-3.75,0.875,0.125
284889378608,-1.125,0.125,0.5
284889401014,1.8125,-1.0625,0.625
284889424252,2.4375,-2.0625,0.5625
284889438563,2.6875,-2.4375,0.8125
284889461092,3.125,-1.9375,1.1875
284889484240,2.375,-1.4375,1.6875
284889498513,1.3125,-1.6875,1.25
284889520986,1.5625,-1.75,0.6875
284889544162,1.3125,-1.5625,0.3125
284889558600,0.0625,-1.0625,0.375
284889581042,0.6875,-0.375,0.25
284889604045,0.875,-0.1875,0.125
284889618583,-0.125,-0.3125,0
284889641046,-0.3125,-0.25,-0.0625
284889664236,0.5625,-0.3125,-0.0625
284889678581,0.625,-0.3125,0
284889701005,1,-0.5,-0.125
284889724163,0.3125,-0.9375,-0.125
284889738596,0.625,-1.25,-0.3125
284889761031,1.125,-1.0625,-0.1875
284889784201,0.75,-1,0
284889805270,1.75,-1.125,-0.5625
284889820217,1.3125,-1,-0.3125
284889834620,1.25,-0.8125,0
284889857159,0.375,-0.75,-0.0625
284889880248,0.8125,-0.5625,0.125
284889894547,0.875,-0.125,0.375
284889925973,-0.6875,0.0625,0.4375
284889940292,-0.0625,0,-0.125
284889954620,0.5,-0.1875,-0.125
284889977648,0.375,-0.375,0.25
284890000250,-0.25,-0.375,0.375
284890014586,0.25,-0.8125,-0.0625
284890037058,1.5,-1,-0.1875
284890068495,1.125,-0.75,0.4375
284890082792,0.4375,-0.1875,0.875
284890097111,-0.3125,0,0.75
284890120199,-0.9375,-0.0625,0.3125
284890134609,-0.375,-0.1875,0.375
284890157142,-0.25,0,0.625
284890180203,-0.3125,-0.1875,0.3125
284890194610,0.0625,-0.25,0.125
284890217107,0.875,-0.1875,0.125
284890240266,-0.3125,-0.3125,0.0625
284890254667,-0.875,-0.5,0.125
284890277080,0.75,-0.5,0.4375
284890300197,0.875,-0.3125,0.25
284890314621,0.125,-0.25,0.1875
284890337142,-0.125,-0.25,0.3125
284890360119,-0.5625,-0.3125,0.375
284890374620,0.3125,-0.375,0.1875
284890397126,0.9375,-0.375,0.0625
284890420336,0,-0.4375,0.375
284890434652,-1,-0.25,0.5
284890457084,-1.5,-0.3125,0.4375
284890480283,-0.75,-0.5625,-0.25
284890494538,1.3125,0,0.0625
284890517107,1.1875,0.375,0.875
284890540320,-1.1875,-0.125,0.8125
284890554652,-0.1875,-0.75,0
284890577137,1.1875,-0.9375,-0.1875
284890600335,1.5625,-0.5,0.1875
284890614624,1.25,-0.4375,0.5625
284890645971,1,-0.25,0.625
284890660298,-0.125,-0.3125,0.625
284890674606,-0.0625,0,0.5
284890697141,1.125,0.3125,1
284890720236,0.1875,-0.1875,0.625
284890734618,-1.25,-0.5625,0.4375
284890757096,0.625,-0.3125,0.375
284890780295,0.8125,-0.25,0.25
284890794686,0.0625,-0.4375,0.125
284890817176,-0.6875,-0.25,0.5
284890840360,0.5,-0.0625,0.625
284890854692,-0.375,-0.1875,0.375
284890877136,0.375,-0.3125,0.0625
284890900289,0.5,-0.5,0.0625
284890914654,0,-0.6875,0.1875
284890937172,-0.375,-0.625,0
284890960323,0.8125,0,0.5
284890974636,-0.0625,0,0.5
284890997107,-1.0625,-0.4375,0
284891020403,0.0625,-0.6875,0
284891034651,0.75,-0.3125,0.25
284891057163,0.125,-0.125,0.4375
284891088492,-0.6875,-0.125,0.625
284891094692,-0.4375,-0.1875,0.375
284891117207,-0.3125,-0.25,0.25
284891140337,0.0625,-0.1875,0.4375
284891154671,0.125,-0.4375,0.375
284891177200,-0.6875,-0.625,0.3125
284891199646,0.5,-0.4375,0.3125
284891217546,0.625,-0.125,0.4375
284891237152,-0.625,-0.4375,0.1875
284891259607,0.0625,-0.4375,0.3125
284891274687,0.5,-0.625,0.3125
284891297138,-0.125,-0.75,0.1875
284891328446,0.625,-0.5625,0.25
284891334552,0.125,-0.4375,0.3125
284891357080,0.3125,-0.375,0.0625
284891379587,0.75,-0.125,0.125
284891394658,1,-0.1875,0.1875
284891417197,-0.0625,-0.0625,0.3125
284891439588,-0.375,-0.375,0.4375
284891454586,0.5,-0.75,0.1875
284891478537,0.5625,-0.75,0.0625
284891499634,0.75,-0.5625,0.1875
284891514632,0.75,-0.4375,0.25
284891537184,0.75,-0.3125,0.1875
284891559726,0.75,-0.25,0.0625
284891574688,0.0625,-0.5,-0.125
284891597146,0.125,-0.25,0.125
284891619666,0.6875,-0.125,-0.0625
284891634635,0.375,-0.1875,0.125
284891657162,0.0625,-0.5,-0.0625
284891679624,0.0625,-0.5,0
284891694576,0.875,-0.125,0.125
284891717147,-0.125,-0.25,0.0625
284891739674,0.6875,-0.3125,0.0625
284891754729,0.4375,-0.4375,0.0625
284891777192,0.1875,-0.5,0
284891799696,0.5,-0.3125,0
284891814597,0.3125,-0.0625,0.25
284891837143,0.125,-0.1875,-0.1875
284891860428,-0.1875,-0.5625,-0.375
284891874573,0.5,-0.625,-0.25
284891897069,0.5,-0.1875,0
284891921057,0.4375,0,0.1875
284891934571,0.3125,-0.1875,0
284891957120,-0.125,-0.1875,-0.0625
284891979586,0.1875,-0.125,0.125
284891996065,0.1875,-0.0625,0.0625
284892017099,1.125,-0.1875,0
284892039562,0.3125,-0.5,-0.25
284892056038,0.4375,-0.75,-0.1875
284892077076,0.6875,-0.625,-0.0625
284892099620,1.0625,-0.375,0.0625
284892116021,0.5625,-0.25,0.1875
284892137053,0.3125,-0.25,0
284892159609,0.5625,-0.0625,0.125
284892176133,0.4375,-0.125,0.25
284892200035,0.125,-0.5,0.1875
284892219684,0.5625,-0.875,-0.125
284892236094,0.875,-0.75,-0.0625
284892257166,0.9375,-0.4375,-0.0625
284892279624,0.4375,-0.5,-0.0625
284892296049,0.5625,-0.5,0.0625
284892317176,0.625,-0.5,0.0625
284892339602,0.25,-0.3125,0
284892356098,0.1875,-0.25,0.1875
284892377177,0.0625,-0.1875,0.125
284892399649,-0.375,-0.375,0
284892416061,0.0625,-0.5,-0.3125
284892437092,-0.25,-0.5,-0.1875
284892453586,-0.0625,-0.375,0.0625
284892476110,-0.5,-1.125,-0.5
284892497187,0,-2,-1.25
284892519722,1.3125,-2.8125,-1.4375
284892536143,2.0625,-3.125,-1.4375
284892557240,2,-3.875,-1.375
284892573604,2.1875,-5.25,-2.8125
284892596117,3.125,-6.5,-3.875
284892617184,6.125,-7.3125,-4.5
284892633603,7.625,-7.4375,-4.6875
284892663585,7.875,-8.375,-6.375
284892677164,9.4375,-9.125,-8.1875
284892693614,10.625,-8.8125,-8.125
284892717567,12.875,-10.375,-10.5
284892737116,12.6875,-9.3125,-11.875
284892759601,13.9375,-9.125,-12.9375
284892776101,17.75,-9.5625,-13.5
284892797167,20.5,-10,-14.125
284892827816,20.3125,-10,-14.5
284892836136,10.1875,-11.5,-11
284892865370,-1.75,-9.6875,-9.25
284892879709,-5.875,-2.9375,-9.8125
284892896042,-9.4375,-2.4375,-6.4375
284892917144,2.25,13.8125,5.625
284892939640,4.1875,18.6875,31.125
284892956079,32,24.9375,34.9375
284892978536,31.0625,25.0625,43.1875
284892999661,30.6875,27.1875,46.1875
284893016076,32.375,29.6875,48.8125
284893038549,34.5625,34,48.5625
284893059651,29.375,35.1875,41.25
284893076065,19.5,38.5625,30.625
284893098580,4,42.875,22.75
284893119676,3,47.125,14.8125
284893136065,-1.25,45.8125,3.875
284893158585,-8.1875,40.875,-7.5625
284893179608,-9,37.5,-17.375
284893196070,-2.4375,36.3125,-24
284893218584,1,33.125,-30
284893239640,-4.8125,30.3125,-39.6875
284893256074,-14.9375,30.375,-48.875
284893278573,-11.4375,33.0625,-52.6875
284893299611,-3.375,32,-53.5
284893316044,-5.6875,30.25,-58.125
284893338597,-11.5,27.375,-62.625
284893359661,-14.5,28.125,-67.1875
284893383615,-21.8125,32.0625,-68.5625
284893398557,-29.9375,35.25,-68.375
284893421723,-28.1875,43.125,-68.3125
284893435312,-24.9375,50.125,-69.25
284893457815,-24.6875,50.875,-67.375
284893480288,-27,49.6875,-68.4375
284893495323,-29.625,47.8125,-70.5
284893517793,-31.5,42.5625,-74.5625
284893540071,-32.25,38.0625,-76.25
284893555285,-37.4375,33.5625,-76.8125
284893577797,-31.125,31.5,-74.875
284893600306,-27.625,25.8125,-73.6875
284893615309,-14.5,24.6875,-76.75
284893637778,-18.875,20.9375,-74.5
284893660274,-24.3125,16.375,-68.0625
284893675301,-22.8125,12.5,-61.1875
284893697803,-27.8125,12.375,-56.25
284893720322,-35.875,12.875,-58
284893735266,-41.5625,6.625,-63.3125
284893757817,-25.5,0.125,-64.1875
284893780346,-12.3125,-10.1875,-66.75
284893795345,-19.25,-22.625,-75.375
284893817821,-25.3125,-32.0625,-89.875
284893840311,-30.625,-40.6875,-97.1875
284893855338,-71.625,-12.1875,-66.5
284893877832,-17.25,54.625,-1.3125
284893900321,19.4375,57.1875,13.125
284893915324,-30.75,16.6875,9.375
284893937800,-10.875,-10.8125,1.875
284893960311,7.9375,-12.0625,-11.125
284893976734,1.6875,-1.3125,-14.8125
284893997797,6.1875,5.875,-13.9375
284894013569,-0.8125,6.9375,-15.75
284894035283,-8.875,7.75,-15.375
284894057838,-8.625,11.3125,-13.75
284894080342,-12.0625,14.8125,-13.0625
284894096784,-17.3125,13.375,-13.5
284894117811,-13.625,9.3125,-13.3125
284894140311,-6.8125,8.6875,-11.0625
284894156747,-3.5625,9.5,-8.375
284894177804,-5.75,9.1875,-7.625
284894200331,-8.9375,8.375,-8.25
284894216752,-8.875,8.875,-8.5625
284894237864,-7.125,11.1875,-7.4375
284894253598,-7.6875,12.6875,-5.375
284894276753,-10.1875,10.5,-3.3125
284894297833,-7.3125,5,-2.625
284894313628,-3.5,1.25,-2.8125
284894337448,-1.9375,0.5,-3.25
284894357842,-1.8125,1.125,-2.875
284894373592,-2.25,0.875,-2.1875
284894396753,-2.25,-0.5625,-2
284894417817,-2.0625,-1.5,-1.875
284894433579,-2.5,-2.125,-1.4375
284894456801,-2.1875,-1.25,0
284894478266,-2.125,-0.1875,1.5
284894493649,-3,-0.375,2
284894516772,-3,-1,2.1875
284894537820,-2.8125,-0.875,2.9375
284894561759,-2.5,-0.375,3.6875
284894576802,-2.1875,-0.3125,3.5625
284894597849,-0.8125,-0.5,3.375
284894613599,-0.4375,-0.5625,2.875
284894637230,-1.3125,-0.25,2.0625
284894657850,-1.8125,0.5,1.625
284894673597,-1.25,1.375,1
284894696774,-1.3125,1.1875,0.5625
284894718271,-0.6875,0.6875,0.4375
284894733626,0,0.4375,0.125
284894756814,0.125,0.8125,-0.25
284894777818,0.375,0.8125,-1.125
284894793632,0.6875,-0.125,-2.0625
284894816771,2.1875,-0.75,-2.4375
284894837850,2.5,-1,-1.5
284894861780,2.5625,-1.125,-0.9375
284894876120,2.75,-1,-0.875
284894897822,2.75,-0.9375,-0.9375
284894913625,2.375,-1.1875,-0.75
284894936117,1.625,-1.0625,-0.125
284894958263,1.25,-0.6875,0.5625
284894975093,1.6875,-0.125,0.5
284894996125,1.875,0.3125,0.25
284895019671,1.5,0.75,-0.0625
284895033616,0.8125,0.75,0.375
284895056094,-0.625,0.125,0.625
284895085331,-0.9375,0.3125,0.5
284895093627,-0.0625,0.6875,0.125
284895116118,0.5,1.1875,-0.125
284895139273,0.3125,0.8125,0.0625
284895153612,0.25,0.125,0.3125
284895176828,0.0625,-0.125,0.625
284895206750,0.3125,0.125,0.3125
284895213604,0.5625,0.25,0
284895236106,0.5625,0.125,-0.0625
284895259999,1.0625,-0.125,0.125
284895273595,0.625,-0.25,0.1875
284895296147,0.125,-0.1875,0.125
284895319293,0.6875,0.125,0.1875
284895333651,1.125,0.25,0.3125
284895356137,0.375,0,0.5625
284895379303,-0.1875,-0.125,0.8125
284895393591,0.0625,0.125,1
284895416079,0.5,0.1875,1.1875
284895439391,0.0625,-0.1875,1.0625
284895453658,-0.375,-0.5625,0.75
284895476688,-1,-0.25,0.8125
284895499325,-0.3125,0.1875,0.625
284895520436,0.3125,0.125,0.5
284895536140,0.625,-0.125,0.4375
284895559344,0,-0.125,0.25
284895580415,-0.1875,-0.0625,0.25
284895596263,-0.0625,0.25,0.375
284895619362,-0.25,0.3125,0.375
284895641839,0.0625,-0.0625,0.5
284895656241,1,-0.6875,0.8125
284895679394,1.0625,-1.0625,1
284895700422,0.9375,-1,0.75
284895716180,0.1875,-1,0.8125
284895739312,0.5,-1.1875,0.9375
284895761796,1.4375,-1.1875,1.125
284895776216,1.0625,-1,1.3125
284895805398,-0.0625,-0.875,1.3125
284895827953,-0.875,-0.8125,1.5625
284895836218,-1.3125,-0.9375,2.25
284895858684,-1.25,-0.75,2.5
284895880387,-1.5625,-0.625,2.5625
284895896181,-1.4375,-0.875,2.125
284895918609,-0.5,-1,1.875
284895940346,-0.5625,-1,1.5
284895956129,-0.875,-1,1.0625
284895978688,-1,-1.1875,0.6875
284896001878,-0.1875,-1.5625,0.8125
284896016255,-0.875,-2.4375,1.25
284896038656,-3.5,-3.6875,2.0625
284896061851,-4.625,-4.4375,2.5625
284896076146,-1,-3.875,2.3125
284896098720,2,-3.875,1.875
284896121852,0.875,-4.5625,2.875
284896136229,-1,-5.875,4.875
284896158703,-0.3125,-6.3125,5.8125
284896181851,1.375,-5.375,6.8125
284896196667,2.875,-4.5,8.3125
284896218592,1.5625,-4.5625,9.625
284896241912,1,-4.5625,7.8125
284896256237,-3.9375,-1.25,4.5625
284896278732,-11.75,-2.1875,0.75
284896301871,-12.75,-7.0625,-3.4375
284896322817,-18.1875,-15.5625,-5.5625
284896338717,-15,-23,-4.4375
284896361803,-10.375,-29.75,0.3125
284896390413,-3.75,-27.8125,9.75
284896398735,11.0625,-17.625,24.0625
284896429321,20.75,-20,29.8125
284896442914,10.25,-30.375,26.6875
284896458702,7.1875,-34.875,23.625
284896481876,8.125,-31.75,20.75
284896502936,6.0625,-30.125,20.5625
284896518728,5.5625,-32.9375,20.8125
284896549355,1.875,-39.125,17.375
284896562917,-0.1875,-38.8125,13.4375
284896578703,5.4375,-31.75,9.375
284896601791,10.625,-24.375,4.3125
284896622914,6.375,-19.5,0.25
284896639194,-3.375,-12.0625,-3.0625
284896661857,-9.3125,-5.125,-4.5
284896682907,-0.625,-2,-4.0625
284896698669,5.4375,-3.125,-3.1875
284896721203,10.625,-6.6875,-3.5625
284896742906,10.6875,-7.6875,-5
284896765407,10,-9.625,-5.5
284896781172,13,-11.5,-6.1875
284896810517,12.125,-13.75,-5.5625
284896818618,17.25,-15.8125,-2.125
284896841251,14.5625,-17.5625,2.75
284896862928,10,-20.5625,8.625
284896878726,15.1875,-16.875,13.0625
284896901183,20.3125,-8.125,11.5
284896924346,25.0625,0.1875,4
284896938691,19.0625,4,-1.6875
284896961217,15.25,7.4375,-7.5625
284896984358,11.125,9.9375,-19.5
284896998713,4.5,14.8125,-24.625
284897028620,0.75,21.875,-23
284897034819,-12.4375,24.5,-29
284897057915,-21,26.5625,-31.875
284897080497,-9.375,29.5,-35.125
284897094805,-12.5625,22.4375,-41.1875
284897117960,-13.875,9,-52.375
284897140411,-10.25,2.0625,-63.75
284897154689,-15,-5.6875,-70.375
284897177864,-16.9375,-8.625,-78.875
284897200427,-8.0625,-14.25,-89.5625
284897214784,-15.3125,-22.9375,-101.25
284897237881,-23.0625,-34,-113.188
284897260485,-24.25,-45.375,-119.062
284897274793,-26.875,-54.5,-119.625
284897297887,-22.125,-60.3125,-123.938
284897320477,-4.6875,-70,-132.688
284897334796,3.4375,-85.4375,-132.5
284897357994,8.8125,-99.75,-120
284897380457,25.8125,-113,-102.875
284897394823,15.3125,-123.625,-72.0625
284897417935,23.125,-116.812,-53.1875
284897440430,28,-105.625,-53.0625
284897454814,14,-91,-65.3125
284897477939,-20.75,-80.3125,-69.25
284897500462,-37.8125,-74.375,-70.375
284897514748,-37.5625,-83.625,-72.25
284897546151,-33.375,-102.562,-76.9375
284897560438,-36,-112.188,-77
284897574737,-38.3125,-93.5625,-71.0625
284897598020,-33.0625,-90.25,-51.1875
284897620483,-51.5625,-93.5,-9.4375
284897634783,-45.625,-68.9375,12
284897657933,-3.1875,-31,8.375
284897680472,-9.875,-14.5625,-22
284897711114,-75.8125,-32.75,-27.25
284897717920,-66.1875,-44,-14.8125
284897740472,-39.5,-30.875,0.8125
284897762911,23.9375,-31.5,-4.5625
284897777327,14.125,-31.5,-28.9375
284897800396,-15,-23.25,-31.875
284897814788,15.3125,-25.8125,-22.875
284897837295,23.5,-27.75,-14.5625
284897860426,-9.5,-18.25,-22.625
284897874769,-3.625,-15,-40.8125
284897897310,20.625,-7.8125,-45.6875
284897921136,6.8125,-6.3125,-42.375
284897934784,-29.25,1.75,-29.6875
284897957332,-38.375,12,-18.625
284897980468,-30.1875,20.9375,-10
284897994786,-20.75,33.25,-3.1875
284898026160,-9.875,41.375,2.1875
284898040490,-10.875,42.25,13.5
284898054801,-5.3125,38.625,27.0625
284898077293,11.9375,35.4375,36.875
284898100496,19.9375,38.125,47
284898114810,20.125,38,51.9375
284898137360,14.375,39.5,59.5625
284898160460,42.9375,41.625,63.375
284898174827,41.4375,40.25,61.75
284898197312,40.9375,24.8125,50.875
284898220433,38.6875,10.3125,38.9375
284898234798,52.9375,5.25,30.6875
284898257285,61.1875,9.4375,32.625
284898280434,39.375,24.375,44.8125
284898294783,20.5,45,65.6875
284898317260,35.5625,69.75,76.8125
284898340495,42.4375,78.25,73.6875
284898354831,49.3125,56.5,63.75
284898378706,34.1875,49.9375,61.625
284898400498,27.375,45.9375,45.0625
284898414810,20.1875,45.6875,20.25
284898437317,32.5,47.3125,-2.75
284898460434,33.8125,50.625,-21.6875
284898482951,29.375,53.4375,-34.0625
284898497331,17.625,50.1875,-37.1875
284898528693,-7.375,40.6875,-32.1875
284898534768,-22.0625,34.8125,-17.8125
284898558795,-7.5,37.8125,-5.3125
284898580458,0.6875,40.75,-2.9375
284898594793,-6.125,34.4375,-2.8125
284898625442,-3.5,28.875,-3.1875
284898640432,3.375,28.9375,-3.5
284898654784,-5.1875,25.1875,-1.25
284898677313,-11.875,23.5,1.875
284898700457,-2.75,23,2.75
284898714814,5.0625,23.3125,1.125
284898738749,6.1875,25.0625,-1.6875
284898760519,6.5,25.75,-5
284898774747,6.875,22.625,-8.125
284898797286,14.9375,20.4375,-7.5625
284898819795,23.9375,19.4375,-2.8125
284898834828,21.8125,17.5625,2
284898857311,17.5,15.8125,5.1875
284898879719,12.8125,13.3125,9.75
284898894854,19.6875,6.5625,12.125
284898917294,29.8125,3.6875,14.0625
284898939817,30.6875,5.875,15.1875
284898954886,21.5625,9.4375,15.9375
284898977391,19.9375,9.5625,17.9375
284898999832,18.125,0.9375,30
284899014763,15.875,2.625,41.125
284899045511,13.25,6.8125,43.0625
284899059793,13.8125,14.625,41.1875
284899074825,6.25,25.3125,41
284899097288,-11.6875,30.4375,38.5
284899119843,-39.5,33.6875,37.6875
284899134867,-66,31.6875,48.375
284899157317,-76.625,34.4375,59.4375
284899179829,-60.1875,39.9375,58.375
284899194814,-23.1875,49,54.875
284899217354,7,50.3125,59.3125
284899239821,31.125,54.375,69.75
284899254881,48.8125,59.9375,80.75
284899277351,60.8125,61.4375,92.1875
284899299803,60.8125,69.0625,106.438
284899314833,28.3125,88.8125,128.875
284899337302,27.375,98.6875,141.375
284899359855,47.25,102.312,162.562
284899374837,56.9375,115.375,187.25
284899397329,74.75,137.312,206.625
284899419781,99.25,154.125,216.25
284899434841,121.562,164.312,222.688
284899457335,131.312,174.938,231.812
284899479835,127.438,181.25,244.625
284899494833,144.562,189.438,253.562
284899517333,157.875,192.625,255.062
284899533776,168.688,196.312,254.562
284899554813,199.875,199.5,252.188
284899577365,226,195.5,240.125
284899593730,215.75,185,225.562
284899616271,196.812,173.562,211.375
284899637454,194.812,172.438,195.688
284899661219,198.688,170.812,182.062
284899676273,196,167.125,176.312
284899697312,183.812,163,169.938
284899713729,170.188,160.25,157.562
284899736323,164.438,157.812,144.812
284899765483,149,149.938,133.5
284899773706,130.625,134.812,126.125
284899803738,86.0625,121.438,114.562
284899817371,69.875,112.188,100.875
284899833754,102.75,87.25,100.875
284899856308,110.688,59.5,106.438
284899880207,68.25,43,100.5
284899901213,58.6875,27.625,99.875
284899916272,93.875,2.0625,106
284899937316,82.3125,-15.25,101.312
284899959870,35.6875,-20.875,94.4375
284899983776,49.0625,6.6875,79.1875
284900000224,59.375,34.1875,62.5625
284900013738,45.3125,29,71.3125
284900042413,62.5,39.8125,91.6875
284900057359,14.3125,28.875,47.375
284900073777,6.125,8,15.1875
284900097726,16.8125,11.3125,8.3125
284900117286,13.1875,5.625,14
284900133808,-2.5,9.4375,18.9375
284900156258,-13.3125,-3.5,30.125
284900177369,-3.5,-17.5625,35.8125
284900193782,-3.5,-24.4375,22.8125
284900216296,-20.1875,-36.375,2.625
284900237358,-36.375,-38.625,1.875
284900261251,-35.25,-36.875,-0.5625
284900282341,-44.125,-42.375,-8.5625
284900297368,-35.375,-41.9375,-8.875
284900313781,-38.4375,-45.8125,-8.5
284900337696,-59.4375,-60,8.9375
284900360258,-54.75,-62.625,32
284900373797,-35,-49.4375,47.1875
284900396334,-18.125,-24.9375,45.375
284900417371,-24.0625,-0.9375,27.9375
284900433806,-18.125,2.1875,16.125
284900456348,-12.625,-12.75,22.9375
284900477371,-12.75,-23.5625,30.125
284900493785,-19.625,-34.5625,31.0625
284900516304,-21.375,-37.25,26.3125
284900540265,-9.875,-28.1875,21.125
284900553787,3.8125,-12.875,16.5
284900576239,16.125,-6.3125,17.3125
284900600227,23.125,-10.75,23.75
284900613836,24.6875,-14.375,28.3125
284900636231,27.625,-16.0625,32.25
284900658108,32.25,-17.25,32.1875
284900680541,38.5,-15.5625,27.375
284900695581,42.8125,-12.75,21
284900718063,46.0625,-10.75,14.9375
284900740503,48.9375,-9.9375,9.375
284900763062,51.4375,-10.75,5.3125
284900778017,55.8125,-13.25,6.75
284900801983,62.1875,-15.5,11.75
284900815526,66.875,-16.6875,14.5625
284900838115,67.6875,-19.5,17.25
284900861919,67.3125,-22.9375,18.875
284900875486,68,-25.4375,17.5625
284900897986,68.5,-27.0625,14.5625
284900928680,68.875,-28.875,12.375
284900935537,61.375,-27.375,9.25
284900958059,60.875,-24.75,6.3125
284900980545,65.875,-23,3.75
284900995510,63.75,-20.75,3.625
284901018061,64.5,-17.0625,3.4375
284901040514,65.6875,-12.375,2.5625
284901055490,66.75,-8.4375,0
284901079438,64.6875,-3.5625,-3.6875
284901100564,65.5,0.0625,-4.875
284901115546,61.625,3.25,0.9375
284901138121,60.125,8.0625,3.5
284901161925,60.5,12.75,3.875
284901175465,54.75,17.1875,4.5625
284901198064,51.6875,19.4375,6.6875
284901220518,47.375,18.875,8.125
284901235561,44,18,8.625
284901265597,39.5,16.25,9
284901280410,37,12.1875,10.75
284901295545,31.5625,7.3125,12
284901317919,32.3125,3.25,10.625
284901340537,28.4375,2.4375,5.375
284901355408,18.1875,3.5625,0.8125
284901379428,16.125,3.625,1.6875
284901400509,18.5625,4.625,8.0625
284901431206,18.75,6.75,11.3125
284901437949,16,9.625,10.375
284901468682,15.875,13.125,14.5625
284901475267,14.6875,9.9375,17.0625
284901498063,11.3125,9.0625,18.8125
284901520513,11.1875,8.8125,14.9375
284901535537,10.6875,10.5625,10.75
284901558061,6.25,10.3125,11.6875
284901580563,7.875,9.0625,15.125
284901597002,8.125,5.875,14.9375
284901618093,7.125,5,11
284901633806,11.75,4.9375,9
284901663105,12,2.8125,7.8125
284901678091,12.0625,-0.75,6.875
284901693803,8.3125,-4.1875,7.5625
284901731920,10.625,-5.5,7.8125
284901754271,11.9375,-3.125,6.75
284901761793,8.4375,-2.125,4.3125
284901777012,6.3125,-2.1875,2.125
284901798085,6.3125,-2.4375,2.3125
284901813755,6.0625,-3.25,2.5625
284901837064,5.4375,-4.4375,1.0625
284901858063,5.875,-6.125,-0.875
284901873770,4.6875,-7.1875,-1.125
284901897064,6.4375,-7.25,-0.9375
284901918131,7.5,-6,-1.25
284901933852,7.0625,-3.6875,-1.5
284901957023,5.9375,-2,-1.3125
284901978094,5.8125,-1,-0.8125
284901993764,5.25,0.5,-0.1875
284902016723,4.375,1.6875,0.25
284902038109,1.5,1.5625,0.25
284902053860,0.25,0.8125,0.5
284902077004,0.9375,0.9375,1.625
284902099438,0,1.4375,1.25
284902113805,-1.375,1.9375,0.375
284902136961,-1.3125,1.8125,2.25
284902158058,-2.5,2.25,3.6875
284902173821,-4.1875,2.6875,2
284902197010,-3.5,2.375,0.6875
284902218058,-5.375,1.375,2.5625
284902233836,-7.3125,0.5625,4.4375
284902264464,-9.375,0.1875,4.125
284902278071,-10.25,-0.375,2.875
284902293867,-11.625,-0.625,2.75
284902317057,-15,-0.375,2.8125
284902338063,-18.1875,0.6875,1.9375
284902353834,-22.0625,2.1875,-0.25
284902377058,-25.9375,3.5625,-2
284902398092,-29.375,4.375,-3.125
284902413860,-31.4375,6.0625,-3.3125
284902436356,-33.5,7.25,-2.875
284902457851,-33.875,8.1875,-4.6875
284902473844,-38.125,10.75,-6.125
284902496344,-41.4375,11.75,-5.9375
284902518059,-44.125,8.8125,-4.0625
284902533799,-37.625,4.25,-1.875
284902556354,-33.6875,4.1875,0
284902578057,-35.625,6.25,-0.0625
284902593831,-42.375,9.6875,-1.4375
284902616355,-44.625,11,-1.375
284902647026,-41.25,13.875,-1.375
284902660589,-39.625,19.1875,-3.25
284902676290,-44.5625,25.875,-5.875
284902699528,-50.4375,31.4375,-10.5
284902727841,-47.5,34.3125,-17.5625
284902737800,-45.25,34.75,-24.625
284902759456,-45.125,36.25,-30.875
284902780551,-48.3125,43.5625,-36.25
284902796341,-48.125,53.4375,-47.5625
284902819437,-33.75,62.3125,-61.875
284902840566,-28.5,66.4375,-80.9375
284902856359,-44.625,77.3125,-105.125
284902879480,-67,95,-130.25
284902902018,-70.5625,107.688,-146.5
284902932055,-54,106.438,-151.75
284902947020,-54.875,96.625,-159.812
284902960523,-68.4375,84.875,-175.688
284902983059,-76.3125,70.5,-189
284902999533,-72.125,48.75,-192.875
284903020359,-70.0625,18.3125,-191.125
284903036329,-78.9375,-10.5625,-191.625
284903059518,-87.4375,-32.625,-198
284903096888,-90.5,-53.9375,-204.625
284903099283,-91.9375,-80.75,-203.875
284903119489,-99.5,-111.188,-202.188
284903140610,-106.125,-134.938,-201.562
284903156378,-123.188,-147.938,-197.125
284903179502,-145.562,-157.062,-190.312
284903200578,-146.25,-166.938,-188.688
284903216334,-127.312,-172.938,-182.625
284903247057,-130.438,-171.875,-171.25
284903268041,-146.875,-161.875,-167.5
284903276316,-147.125,-160.375,-170
284903299500,-146,-159.875,-169.438
284903320536,-160.625,-152.438,-160.125
284903336414,-163.125,-142.375,-150.5
284903358889,-145.375,-136.562,-142.812
284903380587,-144,-137.75,-132.5
284903396379,-161.375,-140,-127.562
284903418802,-158.688,-137.125,-128.438
284903440591,-133.5,-128.312,-127.188
284903456344,-117.25,-126.938,-127.188
284903478810,-115.875,-138.25,-126.5
284903500606,-113.375,-147.312,-121.438
284903516378,-110,-145.938,-117.938
284903538845,-93.9375,-123.938,-116.562
284903562061,-66.375,-106.562,-108.875
284903576372,-46.3125,-101.25,-96.625
284903598831,-42.6875,-109.438,-85.625
284903622051,-46.6875,-116.5,-76.5
284903636332,-41.0625,-111.375,-68.625
284903658871,-20.75,-101.312,-62.1875
284903682056,9.125,-94.875,-60.375
284903703017,15.0625,-94.875,-57.875
284903718797,10.625,-93.625,-46.9375
284903742052,2.75,-84.6875,-31.0625
284903763017,-10.6875,-73.3125,-20.75
284903778815,-12.5625,-62.625,-18.5
284903809310,-0.375,-54.4375,-16.375
284903823054,15.0625,-50.4375,-14.5625
284903838831,21.25,-47.0625,-12.8125
284903862019,26.25,-44.75,-6.5625
284903883132,33.3125,-41.5,4.5625
284903898885,42.3125,-30.6875,18.4375
284903922040,50.375,-22.5,25.5625
284903943111,33.625,-20.8125,25.375
284903958865,13.3125,-20.625,19.9375
284903982055,9.3125,-19.0625,12.6875
284904003059,14.625,-15.9375,6.6875
284904018858,15.375,-11.75,5.0625
284904042060,13.6875,-7.9375,6.0625
284904063090,10.8125,-5.5,7.25
284904078848,5,-5.125,7.4375
284904102014,-4.6875,-6.875,7.8125
284904123072,-5.1875,-7,8.875
284904139460,-5.6875,-6,9.9375
284904162142,-6.4375,-4.8125,9.75
284904183089,-4,-3.6875,8.125
284904198886,-1.6875,-2.9375,6.1875
284904222027,-0.375,-2.0625,4.25
284904234950,0.25,-0.4375,2.8125
284904258094,0.75,1.375,2.5625
284904272450,2.375,2,1.5625
284904294974,2.4375,1.9375,0.125
284904318064,1.25,1.25,-1.125
284904332451,0.875,0.375,-1.8125
284904354946,0.0625,-0.125,-1.0625
284904378036,0.1875,-0.25,0.75
284904392416,1,-0.875,1.625
284904414899,1.3125,-1.3125,1.25
284904438127,2.125,-1.625,0.75
284904452451,2.1875,-0.875,0.3125
284904483739,1.375,0.25,-0.1875
284904498099,2.3125,0.625,-0.25
284904512470,1.9375,0.125,-0.0625
284904534921,1.0625,-0.75,-0.125
284904558145,0.5,-1.3125,0.375
284904572461,0.3125,-1.4375,1.25
284904594953,-0.125,-1.5625,1.125
284904618164,-0.1875,-1.25,0.75
284904632487,0.1875,-1,1
284904654963,-0.9375,-1.3125,1.25
284904678094,-0.375,0.75,1.3125
284904692462,-0.5,2.5625,1.1875
284904714913,-1.9375,2.25,2.125
284904738083,-4.125,0.4375,3.5625
284904752497,-9.875,-0.125,7.125
284904774973,-8.6875,2.875,12
284904798556,-0.375,7.5,17.4375
284904813915,7.625,12.875,23.5
284904834942,6.8125,15.625,31.875
284904858104,10.75,15.6875,40.1875
284904872477,7.125,14,51.25
284904894938,5.375,12.6875,61.75
284904918133,6.5625,12.8125,71
284904932441,7.1875,12.75,78.3125
284904963799,7.1875,11.625,86.25
284904978144,11.5,12.1875,93.3125
284904992433,18.1875,13.8125,99.5625
284905014891,22.25,14.8125,103.5
284905038044,25,16.625,105.438
284905052451,25.875,17.5,105.188
284905074978,21.375,16.875,103.375
284905106164,16.6875,15.1875,103
284905112440,18.6875,14.8125,102.5
284905160088,17.4375,13.25,98.6875
284905162490,15.9375,11.375,93
284905172411,17.1875,9.9375,86.625
284905194922,14.6875,6.875,78.4375
284905218137,15.6875,0.1875,71.25
284905232457,13.375,-4,68.4375
284905256323,11.75,-4.125,61.125
284905278071,10.375,-6.625,51.375
284905292472,21.6875,-5.375,45.6875
284905314855,18.4375,-2.9375,38.3125
284905346119,6.9375,-3.1875,28.0625
284905360639,1.8125,-5.9375,23.75
284905374985,1.6875,-7.625,20.25
284905397840,-1.4375,-6.8125,16.375
284905412472,-3.5625,-5.5,10.375
284905434957,-3,-6.1875,6.3125
284905457374,-9.8125,-5.625,5.6875
284905472467,-5.25,-2.625,4.9375
284905494883,0.75,0.875,2.8125
284905517500,-0.8125,-0.3125,-2.8125
284905532448,-4.375,-5.375,-6.1875
284905554972,-7.1875,-7.375,-6.9375
284905577464,-6.125,-6.5625,-6.9375
284905592531,-6.125,-4,-4.875
284905614998,-0.6875,-0.5625,-3.75
284905637503,4.375,2.9375,-3.875
284905652361,1.625,4.75,-5.125
284905674987,0.4375,4.9375,-4.25
284905697482,0.375,3.0625,-2.0625
284905712466,0.9375,1.5,-1.125
284905734920,2.125,-0.1875,-0.5
284905757427,1.4375,-1.6875,-0.1875
284905772439,1.1875,-3.5,0
284905794984,0.6875,-5.25,0.6875
284905817437,0.5,-6.5625,1.1875
284905832496,-1,-7.9375,1.875
284905854939,0.3125,-6.75,2.125
284905877396,0.0625,-5.6875,1.625
284905892465,-0.4375,-4,1.25
284905914952,-0.125,-2.3125,1.5625
284905937434,-0.3125,-1,2.5625
284905952468,0.9375,0.4375,3.625
284905974917,2.25,0.375,3.5625
284905997466,2.5,-0.75,3.625
284906012514,2.9375,-1.8125,3.8125
284906035010,1.6875,-3.375,3.4375
284906057472,-1.3125,-5.4375,3.5
284906072524,-0.625,-5.5,3.0625
284906094962,0.5,-4.75,1.625
284906117455,0.1875,-4.6875,-0.0625
284906132486,-1.625,-3.5,-1.25
284906154923,-2.125,-2.3125,-1.25
284906186316,-1.375,-1.8125,-0.25
284906192438,-2.0625,-2.0625,-0.0625
284906214904,-3.25,-4.0625,-0.625
284906237470,-0.9375,-4.9375,-0.4375
284906253940,-2.875,-3.5,-0.375
284906274961,-1,-2.125,-0.3125
284906297502,2.3125,-1.375,-0.5
284906315401,2.1875,-2.0625,-0.6875
284906334991,-1.0625,-1.375,-1.3125
284906357440,-2,-2.125,-0.625
284906373877,-1.6875,-2.6875,-0.4375
284906394905,-1.4375,-3.125,-0.75
284906417512,-0.875,-2.625,-1.1875
284906433976,-0.5625,-1.9375,-1.0625
284906454954,1.0625,-1.25,-1.0625
284906477470,1.1875,-1,-0.8125
284906493888,0.875,-1.875,-0.5
284906515042,0.625,-2.5,0.0625
284906537521,-0.0625,-2.1875,0.125
284906553962,-0.25,-2.25,0.25
284906574976,-0.375,-2.5625,0.5
284906597553,-0.6875,-2.125,0.5
284906613833,0.375,-1.625,0.5625
284906635077,1.5,-1.3125,0.9375
284906657434,2,-1.25,0.9375
284906673939,1.75,-1.125,0.6875
284906695004,1.0625,-0.625,0.3125
284906717426,0.5625,-0.3125,-0.5
284906739997,0.8125,0.0625,-0.125
284906754987,1,0.1875,0.0625
284906777536,0.125,-0.1875,0.125
284906793864,0.625,-0.3125,0.0625
284906817861,1.0625,-0.125,0.25
284906837410,0.125,0.875,0.9375
284906853933,2,1.625,0.875
284906874992,0.1875,0.0625,-0.6875
284906905671,5.1875,-1.125,-2.3125
284906913973,3.125,-3.375,-1.5625
284906935007,1.5625,-4.9375,-0.6875
284906957492,-1.75,-5.3125,1.5
284906981457,-2.9375,-3.625,2.6875
284906995022,-2.3125,-0.3125,3.4375
284907017582,1.4375,2.3125,0.9375
284907033935,3.5,2.625,-2.375
284907055046,3.1875,0.9375,-5.0625
284907077465,-3.6875,-3.125,-7.375
284907093945,-12.3125,-4.4375,-8.8125
284907115012,-20.9375,-6.4375,-11.0625
284907137437,-21.8125,-4,-9.5625
284907153937,-15.5625,0.3125,-7.0625
284907184573,-5.25,5.6875,-3.3125
284907197430,0.3125,8.3125,-0.4375
284907213894,1,7.5625,0.25
284907236402,2.375,4.875,-0.125
284907257512,0.5625,0,-0.9375
284907273949,-1.4375,-1.9375,-2.125
284907296449,-0.125,-2.0625,-2.1875
284907317505,0.875,-0.8125,-1.625
284907333928,1.3125,1.125,-0.6875
284907356367,1.6875,2,0
284907377469,1.625,2.8125,0.5
284907393893,1.4375,2.6875,0.375
284907416441,0.8125,1.9375,0.375
284907437551,0.5,1.4375,0.625
284907453983,0.625,1.0625,0.75
284907476430,0.4375,0.3125,0.875
284907497608,0.1875,-0.0625,0.875
284907513880,0.5,-0.0625,0.75
284907536469,0.1875,-0.25,0.4375
284907557528,0.125,-0.3125,0
284907575434,0.125,-0.3125,-0.25
284907596455,0.375,-0.4375,0
284907617530,0,-0.125,0.5
284907633958,-0.1875,0.4375,0.3125
284907656426,0.25,0.9375,-0.25
284907677507,-0.1875,1,-0.5
284907699959,0.0625,0.625,-0.125
284907716456,0.9375,0.25,0.1875
284907737487,0.625,-0.0625,0.5625
284907753923,0.375,0.0625,0.5
284907776405,-0.0625,0.4375,0
284907797503,-0.4375,0.4375,-0.5625
284907815357,0.5625,0.375,-0.125
284907836424,0.5,0,-0.25
284907857520,0.3125,-0.375,-0.5
284907873079,-0.25,-0.6875,-0.625
284907895656,-0.3125,-0.4375,-0.5
284907918204,-0.75,-0.375,-0.1875
284907933219,0.375,0.3125,0.25
284907955756,0.125,0.3125,0.1875
284907978137,-0.1875,-0.0625,-0.625
284908000672,0.0625,-0.8125,-0.6875
284908017016,1.5,-0.9375,0.1875
284908038082,1.6875,-0.8125,1.125
284908053069,1.1875,-0.1875,0.9375
284908075591,-0.0625,-0.25,0
284908098120,0.375,0.0625,-0.5625
284908113118,0.6875,0,-0.375
284908135567,0.0625,-0.5,-0.1875
284908158145,0.5,-0.625,0
284908173058,0.5,-0.4375,0.25
284908195652,0.8125,-0.25,0.1875
284908218154,1.125,-0.25,-0.125
284908233154,1.0625,-0.3125,-0.25
284908255685,1.125,-0.3125,0
284908278104,0.8125,-0.375,0.1875
284908294542,1.125,-0.0625,0.25
284908315622,0,-0.25,0.0625
284908338081,0.0625,-0.5625,0
284908354522,-0.25,-0.375,0.0625
284908375654,0.25,-0.25,0.4375
284908405609,0.3125,-0.3125,0.4375
284908414553,0.125,-0.5625,0.375
284908435607,0.3125,-0.4375,0
284908458120,0.25,-0.3125,0.1875
284908474349,0.625,-0.3125,0.125
284908495613,0.0625,-0.625,0
284908518079,-0.0625,-0.5625,-0.125
284908534560,-0.3125,-0.3125,0
284908555658,0.0625,0.0625,0.3125
284908578119,0.0625,-0.25,0.125
284908594595,0.625,-0.1875,0.25
284908615649,0.25,-0.0625,0.1875
284908638121,0,0.1875,0.1875
284908654522,0.25,0.3125,0.4375
284908675644,0.5625,0,-0.0625
284908698163,0.5625,-0.375,-0.8125
284908714599,1,-0.5,-0.6875
284908735600,0.5625,-0.5,-0.1875
284908758148,0.5,-0.375,0.1875
284908774516,1.1875,-0.5,0
284908795668,0.5625,-0.25,-0.5625
284908818173,0.75,0,-0.5
284908834613,0.8125,0.125,0
284908855604,0.4375,0.3125,0.375
284908878104,-0.0625,-0.0625,0.0625
284908894575,0.25,-0.1875,0
284908915673,0.25,-0.25,0.25
284908938141,0.5,-0.4375,0
284908962063,0.1875,-0.75,-0.125
284908975660,0.5,-0.5625,-0.1875
284908998078,1,-0.375,0.25
284909014544,1.125,-0.25,0.5
284909035670,0.875,-0.25,0.5
284909058165,0.875,0.125,0.0625
284909074012,0.5,0.3125,0.0625
284909103142,0.1875,0.625,0.1875
284909118146,0.5,0.625,-0.0625
284909133968,0.25,0.3125,-0.375
284909155648,0.3125,-0.125,-0.6875
284909178153,0.375,-0.25,-0.3125
284909193962,0.875,0,0.0625
284909215626,0.3125,0.3125,0.25
284909238122,0.25,0.5,0.3125
284909253980,0.6875,0.625,0.1875
284909277047,0.9375,0.0625,-0.0625
284909298172,0.3125,-0.3125,-0.125
284909314001,0.1875,1.5625,-0.6875
284909337079,0,3.8125,-0.75
284909358131,2.9375,8.25,-1.4375
284909373980,6.625,18.1875,-5.5
284909404592,4,26.125,-10.1875
284909418132,9.375,34.1875,-10.125
284909433968,22.0625,47.6875,-12.5
284909457096,22.25,57.5625,-15.25
284909478159,18.625,60.125,-19.0625
284909493984,24.6875,60.5625,-28.875
284909517523,27.1875,62.5,-42.5625
284909537913,20.6875,66.6875,-57.1875
284909553998,20.4375,69.0625,-68.625
284909584621,31.1875,64.875,-78.4375
284909598176,33.25,53.5625,-88.875
284909613976,17.375,41.0625,-95.5625
284909644663,4.125,34.0625,-91.3125
284909658155,19.0625,33.6875,-87.0625
284909673975,27.9375,27.125,-84.75
284909697063,18.25,18.5,-85.5
284909718091,6.875,11.9375,-80.1875
284909733982,0.4375,7.125,-74.75
284909757131,-5.25,5.125,-70.625
284909778181,-3.9375,5.375,-68
284909794009,3.125,8.75,-65.375
284909817081,4.6875,9.3125,-59.25
284909838146,1.3125,6.5,-53.8125
284909853977,-13.125,6.375,-49.5625
284909877137,-15.125,5.4375,-43.375
284909898171,-2.5625,4.75,-36.5625
284909914002,3.3125,3.6875,-31.5625
284909937122,-2.5,3.4375,-26.75
284909958156,-2.0625,3.5625,-23.5625
284909973969,1.4375,2.375,-23.5
284909996462,0.9375,-0.3125,-25.3125
284910018178,-1.75,-5.3125,-23.25
284910034371,0.5625,-8.4375,-21.4375
284910056468,-4,-8.5,-19.3125
284910085693,2.0625,-6.75,-16.3125
284910093975,11.5,-4.625,-9.9375
284910116459,12.5,-3.5625,-3.3125
284910138177,8.375,-5.8125,1.625
284910153997,6.5,-6.4375,4.25
284910176444,7,-5.125,4.3125
284910200062,8.875,-3.5625,2.8125
284910213980,3.875,-3.1875,3.125
284910236477,6.375,-3.5,3.8125
284910259624,8.6875,-1.625,3.9375
284910273979,6.75,1.625,2.5625
284910296422,5.4375,3,1.9375
284910319574,4.25,1.8125,1.625
284910334023,1.9375,0.5,1
284910356424,1.8125,-0.875,1.1875
284910379624,-2.125,-2.625,1.5625
284910393972,3.4375,-3.25,3.5
284910416458,8.0625,-3.8125,5.25
284910439603,7.9375,-6.0625,6.875
284910453982,8.3125,-8.4375,7.8125
284910476464,5.9375,-9.0625,8
284910499738,2.3125,-8,6.9375
284910513980,3.625,-6.625,5.75
284910536437,2.9375,-4.875,4.5
284910559617,1.3125,-3.6875,4.0625
284910573966,-2.8125,-2.5625,3.8125
284910596469,-0.75,-1.125,1.0625
284910619575,3.125,1.875,0
284910634042,-2.1875,5.5,-1.25
284910656533,-2.0625,4.25,-0.75
284910679640,-0.875,1.8125,1.25
284910700678,0.75,2.6875,1.375
284910716481,2.5,3.75,-0.25
284910739666,2.3125,2.125,-1.875
284910760706,-1,1.8125,-3.5
284910776561,-4.375,1.3125,-3.5
284910799675,-1.8125,0.5,-0.5625
284910820774,2,0.8125,1.9375
284910836442,0.5,0.6875,2
284910867184,-0.9375,0,1.875
284910880710,-1.625,-1.9375,1.3125
284910896522,-1.3125,-3.4375,0
284910919748,-0.75,-3.5,-0.9375
284910940737,-2.0625,-2.5625,-0.875
284910956492,-2.3125,-2.0625,-0.5
284910979068,-1.375,-1.4375,0.1875
284911000765,0.3125,-0.4375,1.0625
284911017072,-0.875,-0.3125,1.625
284911039078,-2.125,-0.1875,2.1875
284911060671,0.125,0,2.875
284911076516,-0.1875,-1.25,2.25
284911099075,0.25,-2.375,1.5625
284911122169,2.375,-2.625,1.75
284911136554,4,-1.625,0.9375
284911159115,0.0625,-0.9375,0.375
284911182148,0.75,0.3125,0.125
284911196487,0.625,0.125,0.3125
284911219001,0.125,1.0625,-0.4375
284911242103,-1.6875,1,-0.8125
284911256473,-1.8125,0.125,-0.6875
284911278965,-0.4375,0,-0.0625
284911302115,0.25,0.125,0.5625
284911316533,1.6875,-0.5,1.25
284911339010,2.3125,-0.375,1.1875
284911362100,1.5,-0.0625,0.8125
284911376576,1.9375,0.5,0.9375
284911399015,2.1875,1.125,1.5625
284911422108,2.3125,1,2.25
284911436528,2.3125,1.375,2.3125
284911459513,1.6875,1.375,1.5
284911482112,-0.875,0,0.75
284911495639,-2.5625,0,1.1875
284911518189,-0.0625,0.125,1.5625
284911534011,-0.125,-0.1875,0.3125
284911555663,0.125,-0.8125,-0.0625
284911578865,-0.6875,-0.6875,1.3125
284911592614,-5.0625,-1,3.5625
284911615778,-10.9375,-5.5,8.8125
284911638144,-17.25,-8.125,17.0625
284911652521,-19.0625,-4.25,25.875
284911675122,-3.0625,1.5,33.1875
284911698686,-3.3125,0.5625,42.875
284911712558,-19.125,-5.4375,54.125
284911735568,-36.4375,-4.8125,69.25
284911758243,-17.0625,-8.1875,84.9375
284911772495,1.4375,-12.0625,97.1875
284911795039,-2.5,-17.25,108.125
284911818201,-15.3125,-24.3125,115.062
284911832577,-17.25,-37.5625,124.5
284911863865,11.875,-52.8125,132.75
284911878286,27.625,-55.375,131.875
284911900817,30.8125,-56.0625,126.188
284911915148,32.375,-58.3125,117.5
284911938284,26.5625,-63.5625,105.562
284911952620,14.875,-65.625,91.6875
284911975089,8.9375,-61.3125,77.75
284911998274,8.375,-53.4375,62.375
284912014019,14.6875,-47.375,47.5
284912035128,11.5625,-45.5625,34.9375
284912058172,5.125,-42.75,23.8125
284912072504,0.6875,-39.9375,15.625
284912095072,-5.1875,-32.6875,10.9375
284912118162,2.875,-21.5,7.875
284912132606,8.3125,-13.875,5.0625
284912155103,7.75,-13.875,4.3125
284912178267,4.625,-14.75,4.125
284912192607,4.625,-13.75,4.875
284912215110,8.875,-9.375,6.8125
284912230061,16.8125,-6.0625,8.5625
284912254065,9.75,-4.25,7.8125
284912275061,6.6875,-4.625,9.1875
284912291555,2.5625,-2.3125,11.4375
284912313194,3.125,4.125,9.125
284912335040,1.3125,8.25,2.875
284912350034,-0.9375,8.25,-2.25
284912372512,-7.5,7.6875,-4.9375
284912395148,-6.8125,8.875,-3.625
284912410091,-3.0625,9.1875,-0.3125
284912432622,-0.5,6.5625,2.25
284912455158,-2.375,3.6875,2.375
284912470147,-2.6875,1.8125,0.125
284912492570,-3,1.0625,-1.8125
284912515091,-4.5625,0.25,-3
284912532979,-6.375,-1.3125,-3.5625
284912553995,-8.1875,-1.375,-3.5625
284912575025,-3.625,1.3125,-2.375
284912589996,-0.8125,5.875,-2.6875
284912612545,0.25,10.4375,-5.4375
284912635169,0.25,15.0625,-10.6875
284912658300,-1.5,19.875,-17.5
284912672613,-4.5625,25.0625,-22.6875
284912695142,-1.6875,35.1875,-29.125
284912718311,-4.4375,48.375,-41.8125
284912732643,-13,60.4375,-58.125
284912763928,-12.125,71.0625,-74.3125
284912778311,-5.75,78.4375,-92.0625
284912792609,-21.875,82.1875,-105.438
284912815171,-24.625,85.0625,-109.375
284912846424,-1,81.9375,-110.125
284912852613,10.8125,68.625,-114.125
284912875118,-6,51.8125,-114.375
284912898349,-7.8125,37.875,-108.188
284912912636,-1.25,22.5,-96.6875
284912935134,-12,12.625,-80.9375
284912958219,-17.0625,0.5,-57.9375
284912972676,-9.4375,-8.3125,-32.6875
284912995051,-6.5625,-10.9375,-13.0625
284913017517,-4.6875,-5.625,-2.5625
284913032501,-7.5,1.6875,0.6875
284913055034,-3.125,7.0625,1.125
284913071486,3.375,10.0625,-0.375
284913092569,2.4375,12.8125,-3.3125
284913115070,3.5625,15.3125,-6.5625
284913137670,5.75,15.5,-11.875
284913152686,12.8125,13.875,-19
284913175120,19.75,10.5625,-26.75
284913197588,18.4375,5.4375,-34.8125
284913212608,14.0625,-3.4375,-39.8125
284913235167,10.125,-11.625,-40.5625
284913257611,14.9375,-15.25,-40.9375
284913272596,24.6875,-16.625,-40.6875
284913294994,27,-15.625,-38.75
284913317536,21.8125,-14.9375,-32.125
284913332542,25.5,-13.5625,-20.1875
284913355102,35.5,-10,-7.8125
284913377573,23.875,-9.25,-1.375
284913400711,-6.6875,-4.625,2.1875
284913415073,-2.8125,2.375,5.1875
284913437568,-1.9375,5.8125,4.375
284913452576,-6.0625,4.25,3
284913475119,-9.5,1.9375,2.5
284913491620,-8,0.6875,1.3125
284913512664,-2.25,-6.6875,2
284913535149,13.5625,-11.4375,3.75
284913551579,15,-10.875,2.3125
284913572693,3.125,-5.875,-1.5625
284913595136,-2.125,-0.4375,-3.5
284913611497,-3.75,3.75,-4.875
284913632547,-8.625,7.3125,-4.9375
284913655056,-11.1875,7.375,-1.5
284913677537,-9.875,5,1.25
284913692524,-10.125,3.8125,2.25
284913715063,-5.25,-1.0625,1.9375
284913737564,-2.0625,-7.9375,3.375
284913752653,14.125,-7.4375,6.625
284913775110,15.5625,-0.0625,4.6875
284913791537,0.5,6.0625,1.9375
284913813987,-5.5625,7.375,1.9375
284913835078,-5.5,8.25,1.8125
284913851518,-1.4375,8.875,-0.125
284913874088,2.25,5.5625,1.75
284913895056,-5.9375,1,3.3125
284913918996,-4.3125,-2.75,4.8125
284913934033,11,-5.1875,8.125
284913955075,18.5,-4.25,7.375
284913977584,7.75,-6.4375,6.5625
284913994094,-0.5625,-4.4375,5.625
284914015107,1.625,-1.1875,4.75
284914037553,1.875,1.75,3.625
284914054030,-3.875,5.6875,2.5
284914075115,-5.3125,6.8125,1.0625
284914091580,-5.875,2.4375,-1
284914114033,-7.4375,-1.625,-2.8125
284914136582,-2.5625,-3.125,-5.25
284914151509,4.25,-1.875,-5.0625
284914174036,3.0625,-0.1875,-3.1875
284914195212,-0.625,0.875,-1.9375
284914211494,-3.5625,1.25,-1.3125
284914234044,-4.375,2.9375,-1
284914255082,0.875,3.6875,-0.1875
284914271557,1.375,2.125,0.875
284914294087,0.5,-0.125,1.0625
284914315175,1.8125,-0.5625,0.75
284914331668,1.1875,-1.1875,-0.0625
284914355564,-0.125,-1.625,-1.1875
284914375123,0.5625,-0.4375,-0.3125
284914391565,-1.1875,0.6875,0.3125
284914414025,-1.375,2.6875,0.4375
284914435116,-1.9375,3.9375,0.6875
284914451558,-2.75,3.9375,0.5
284914474082,-0.5,2.75,0.125
284914495162,2.125,2.5625,-1.25
284914511512,-2.375,1.625,-1.9375
284914534056,-0.1875,1.6875,-4.125
284914555101,-3.625,2.3125,-3.5625
284914571496,-1.1875,1.625,-1
284914594130,3.25,1.875,0.875
284914615172,2.375,2.9375,1
284914631600,0.25,2.9375,-0.0625
284914654131,1.5625,2.0625,-0.5
284914678029,0.5625,0.4375,-0.25
284914691528,1.3125,-0.8125,0.125
284914714106,4.3125,-0.3125,1.5625
284914735014,3.9375,0.0625,2.875
284914751516,3.0625,-0.1875,3.6875
284914774642,1.375,-0.375,3.3125
284914804745,-0.1875,-0.6875,0.875
284914811589,2.9375,-2.4375,-3.4375
284914834022,-2.0625,-6.9375,-5.0625
284914856628,-1.5625,-4.1875,-6.0625
284914871600,0.875,-1.125,-4.8125
284914894150,-2.6875,-1.75,-1.0625
284914918073,-6.25,-1.125,0.875
284914933062,-3.1875,-1.8125,2.5
284914954140,-1.5,2.125,1.9375
284914976595,7.0625,6.6875,3.625
284914993003,7.125,4.8125,3.625
