timestamp,roll,pitch,yaw
74255532410,2.78017,-1.40523,-2.20322
74255547384,2.8094,-1.42692,-2.22136
74255571025,2.87802,-1.44798,-2.27434
74255592359,2.99663,-1.46898,-2.37466
74255607453,3.11591,-1.48817,-2.47274
74255631093,-3.12829,-1.50747,-2.49656
74255676044,-2.94385,-1.52622,-2.65869
74255685059,-2.8916,-1.52705,-2.66567
74255693777,-3.14032,-1.51823,-2.34023
74255712834,2.88538,-1.49341,-2.01945
74255728914,2.69746,-1.46049,-1.78966
74255751085,2.5599,-1.41849,-1.62861
74255795214,2.48393,-1.37998,-1.53504
74255804888,2.44298,-1.3652,-1.46441
74255811166,2.44962,-1.34509,-1.40528
74255832928,2.45023,-1.35577,-1.36117
74255848664,2.50244,-1.36857,-1.35905
74255869783,2.72618,-1.39852,-1.57699
74255892924,2.85772,-1.43395,-1.69969
74255908678,2.87731,-1.42427,-1.74404
74255929713,2.95424,-1.41027,-1.84188
74255952784,3.06378,-1.39536,-1.93816
74255968664,-3.12254,-1.37905,-2.01794
74255989730,-3.08921,-1.36913,-2.04142
74256012837,-3.05579,-1.35453,-2.06977
74256028593,-3.02512,-1.33443,-2.09
74256049665,-3.01547,-1.31749,-2.08863
74256072884,-2.98723,-1.29999,-2.10796
74256088621,-2.97966,-1.2851,-2.11019
74256117928,-2.99465,-1.26983,-2.10923
74256132948,-2.99548,-1.25463,-2.11375
74256148640,-3.00656,-1.23653,-2.09933
74256169747,-3.00688,-1.21583,-2.09839
74256192914,-3.0208,-1.19481,-2.09059
74256208709,-3.04259,-1.17533,-2.07017
74256231111,-3.04012,-1.14937,-2.07099
74256252908,-3.03749,-1.11747,-2.06643
74256268671,-3.04786,-1.08459,-2.05453
74256291115,-3.0591,-1.04833,-2.04516
74256312840,-3.07433,-1.00766,-2.03362
74256328615,-3.09484,-0.971392,-2.01861
74256351108,-3.11405,-0.938539,-2.00233
74256366105,-3.13455,-0.909652,-1.9822
74256388615,3.12474,-0.883963,-1.96199
74256411158,3.09586,-0.853008,-1.93766
74256426113,3.06569,-0.826153,-1.91191
74256448723,3.04018,-0.79716,-1.8902
74256471219,3.01502,-0.772319,-1.86771
74256492248,2.9921,-0.749252,-1.84626
74256508613,2.97582,-0.723451,-1.82438
74256531107,2.96666,-0.697241,-1.80463
74256552154,2.96286,-0.666079,-1.79034
74256577509,2.96098,-0.632533,-1.78042
74256591261,2.95344,-0.602554,-1.7691
74256612279,2.94528,-0.575496,-1.7528
74256628674,2.93937,-0.552377,-1.73235
74256651209,2.94045,-0.531711,-1.71463
74256672192,2.94353,-0.509488,-1.69845
74256688725,2.9455,-0.488328,-1.6856
74256711220,2.94834,-0.468131,-1.67461
74256732314,2.94184,-0.451068,-1.66022
74256747972,2.9278,-0.440094,-1.64401
74256770499,2.92116,-0.429627,-1.62497
74256784780,2.9188,-0.416948,-1.60203
74256807235,2.92321,-0.403636,-1.5796
74256830364,2.93099,-0.392262,-1.55846
74256844695,2.93345,-0.382443,-1.53889
74256867157,2.92403,-0.376683,-1.51744
74256891825,2.91117,-0.37554,-1.49631
74256904730,2.90637,-0.373386,-1.47498
74256927186,2.90776,-0.368602,-1.45664
74256958654,2.91355,-0.363497,-1.44123
74256964740,2.92433,-0.355031,-1.42843
74256987423,2.92883,-0.348298,-1.41929
74257010451,2.9316,-0.343742,-1.41132
74257024758,2.93691,-0.33969,-1.40282
74257047201,2.94372,-0.335654,-1.39466
74257070469,2.95275,-0.330363,-1.38668
74257084825,2.96319,-0.322515,-1.37844
74257107315,2.96089,-0.318022,-1.36813
74257130341,2.95585,-0.315716,-1.35758
74257144716,2.95672,-0.311326,-1.3464
74257167215,2.9618,-0.305107,-1.33541
74257198709,2.96842,-0.298371,-1.32508
74257204811,2.97409,-0.292557,-1.31573
74257227269,2.97468,-0.28889,-1.30716
74257250446,2.97651,-0.28533,-1.29919
74257264795,2.98103,-0.281605,-1.29116
74257287310,2.98648,-0.278244,-1.28356
74257310439,2.99265,-0.275168,-1.27672
74257324825,3.00072,-0.272029,-1.26955
74257347318,3.01056,-0.269415,-1.26276
74257370402,3.01778,-0.267411,-1.25489
74257384751,3.02328,-0.266891,-1.24711
74257407267,3.02818,-0.265783,-1.23927
74257430382,3.03336,-0.263549,-1.23192
74257444747,3.0366,-0.26124,-1.22562
74257467176,3.03976,-0.259134,-1.22023
74257490359,3.04519,-0.256858,-1.21613
74257504817,3.04971,-0.255535,-1.21319
74257527280,3.05325,-0.254354,-1.21154
74257549809,3.0558,-0.25211,-1.21031
74257564760,3.05984,-0.248479,-1.20965
74257587255,3.06435,-0.244847,-1.20918
74257609940,3.06809,-0.241612,-1.20878
74257624852,3.0715,-0.238499,-1.2088
74257647341,3.07126,-0.236425,-1.20869
74257669743,3.06897,-0.236007,-1.20816
74257684679,3.05769,-0.238039,-1.20719
74257707190,3.0494,-0.239523,-1.20544
74257729688,3.04382,-0.24068,-1.20292
74257744705,3.03808,-0.241862,-1.20004
74257767243,3.03622,-0.241704,-1.19704
74257789767,3.03238,-0.241962,-1.19386
74257804664,3.02861,-0.243205,-1.1906
74257827242,3.02795,-0.24358,-1.18696
74257849793,3.02707,-0.244021,-1.18364
74257864817,3.0274,-0.244054,-1.18022
74257887347,3.02784,-0.244285,-1.17654
74257909671,3.02756,-0.244932,-1.17354
74257924796,3.02869,-0.244904,-1.17128
74257956868,3.03168,-0.244463,-1.16974
74257979336,3.03459,-0.243517,-1.16939
74257987664,3.03668,-0.242159,-1.16968
74258007339,3.03876,-0.241344,-1.1707
74258029814,3.04238,-0.241027,-1.17207
74258044863,3.05012,-0.241255,-1.17396
74258067341,3.05463,-0.243065,-1.17606
74258089804,3.05783,-0.245508,-1.17854
74258104817,3.06252,-0.247001,-1.18146
74258127243,3.06533,-0.24759,-1.18488
74258149829,3.06588,-0.246947,-1.18878
74258164807,3.06397,-0.246558,-1.19318
74258187307,3.06364,-0.245164,-1.19804
74258209757,3.0658,-0.242436,-1.20247
74258224829,3.06777,-0.240005,-1.20597
74258247314,3.06968,-0.238167,-1.20788
74258269768,3.0684,-0.238026,-1.20804
74258284807,3.06689,-0.238274,-1.2076
74258307312,3.06606,-0.23759,-1.20705
74258329836,3.06598,-0.235534,-1.2068
74258344800,3.06707,-0.232544,-1.20677
74258367295,3.06871,-0.229925,-1.20682
74258389818,3.06983,-0.228704,-1.20685
74258406157,3.06942,-0.229166,-1.20713
74258427284,3.06864,-0.22974,-1.20739
74258449726,3.06864,-0.22974,-1.20739
74258467759,3.07014,-0.228866,-1.2075
74258487307,3.0718,-0.227126,-1.20756
74258509907,3.07369,-0.225517,-1.20751
74258526276,3.07561,-0.224184,-1.20748
74258547341,3.07688,-0.222994,-1.20738
74258569742,3.07638,-0.222102,-1.20699
74258587661,3.0738,-0.22279,-1.20638
74258610278,3.07227,-0.223108,-1.20518
74258629840,3.07076,-0.222998,-1.20415
74258646302,3.06816,-0.22312,-1.20258
74258667311,3.06792,-0.222524,-1.20105
74258697907,3.06835,-0.221857,-1.1991
74258706242,3.06845,-0.221147,-1.19732
74258727350,3.06833,-0.220558,-1.19533
74258749782,3.06774,-0.219712,-1.19346
74258766268,3.0652,-0.218845,-1.19142
74258787372,3.06191,-0.218897,-1.18908
74258809785,3.06084,-0.21873,-1.18645
74258826210,3.06045,-0.218514,-1.18359
74258855448,3.05949,-0.218355,-1.18038
74258869736,3.05806,-0.218185,-1.17699
74258886157,3.05712,-0.217666,-1.17336
74258907288,3.05582,-0.217505,-1.16954
74258929812,3.05502,-0.217368,-1.16623
74258946254,3.05463,-0.217398,-1.16308
74258967284,3.05316,-0.217302,-1.16015
74258998036,3.05088,-0.217945,-1.1578
74259006218,3.05048,-0.218003,-1.15601
74259027303,3.05122,-0.216789,-1.15483
74259049892,3.05173,-0.215114,-1.15455
74259066238,3.0507,-0.213564,-1.15429
74259087388,3.04934,-0.212385,-1.15414
74259111252,3.04974,-0.2107,-1.15444
74259135763,3.05063,-0.209108,-1.15461
74259147238,3.05115,-0.207618,-1.15476
74259169710,3.05107,-0.20662,-1.15445
74259186192,3.05057,-0.206777,-1.15427
74259207261,3.04881,-0.207293,-1.15385
74259229782,3.04846,-0.20703,-1.15338
74259247762,3.0495,-0.20617,-1.15312
74259267250,3.04883,-0.205588,-1.15308
74259289870,3.04721,-0.205346,-1.15325
74259306253,3.04556,-0.205016,-1.15371
74259327264,3.04321,-0.204534,-1.15397
74259349823,3.0374,-0.205748,-1.15432
74259366344,3.03386,-0.206624,-1.15452
74259388816,3.03272,-0.206475,-1.15432
74259411303,3.0324,-0.206105,-1.15324
74259426306,3.03355,-0.206276,-1.15113
74259456837,3.03521,-0.206884,-1.14817
74259486408,3.03653,-0.208065,-1.14577
74259509428,3.03855,-0.208439,-1.144
74259531931,3.04211,-0.208254,-1.14221
74259532799,3.04317,-0.208704,-1.14067
74259546886,3.0428,-0.210481,-1.1401
74259568811,3.04306,-0.211529,-1.14058
74259589865,3.04294,-0.211817,-1.14234
74259606281,3.04349,-0.211469,-1.14488
74259628697,3.0438,-0.210973,-1.14737
74259657936,3.04356,-0.211252,-1.14971
74259666265,3.04392,-0.211561,-1.15181
74259688728,3.04278,-0.212082,-1.15363
74259709806,3.0421,-0.211987,-1.15521
74259726238,3.04136,-0.21142,-1.15619
74259748734,3.04059,-0.211539,-1.1567
74259772773,3.04076,-0.211574,-1.15671
74259792343,3.04138,-0.211688,-1.15617
74259833310,3.04118,-0.211894,-1.15557
74259837894,3.04149,-0.211955,-1.15531
74259846238,3.04241,-0.211524,-1.15551
74259868778,3.04271,-0.211173,-1.1567
74259889865,3.04356,-0.210951,-1.15826
74259906278,3.04517,-0.210775,-1.15953
74259936253,3.04714,-0.210757,-1.16043
74260005809,3.04925,-0.211459,-1.16087
74260011878,3.05185,-0.212373,-1.162
74260012590,3.05408,-0.212936,-1.1632
74260017952,3.05619,-0.212778,-1.16499
74260050132,3.05876,-0.211109,-1.16662
74260050939,3.05925,-0.211054,-1.16771
74260069869,3.05978,-0.212681,-1.16825
74260086334,3.06023,-0.214539,-1.16789
74260116211,3.05976,-0.216383,-1.16717
74260147825,3.05795,-0.218039,-1.16603
74260170195,3.0568,-0.219044,-1.16554
74260170983,3.0569,-0.218976,-1.16554
74260197968,3.05692,-0.218198,-1.16655
74260221973,3.05684,-0.217233,-1.16798
74260244433,3.05697,-0.216578,-1.16945
74260266246,3.05685,-0.21667,-1.17078
74260272987,3.05741,-0.216978,-1.17159
74260296962,3.05758,-0.217012,-1.1716
74260320295,3.0585,-0.216916,-1.17094
74260349855,3.05878,-0.216848,-1.16946
74260372653,3.05912,-0.216442,-1.16785
74260373489,3.05877,-0.216338,-1.16618
74260394422,3.0577,-0.216454,-1.16479
74260416232,3.05679,-0.216335,-1.16366
74260446989,3.05595,-0.216506,-1.16287
74260469419,3.05546,-0.216746,-1.1621
74260500582,3.05505,-0.216654,-1.16149
74260501334,3.05506,-0.216287,-1.16089
74260537430,3.05476,-0.215939,-1.15996
74260544491,3.05512,-0.215459,-1.15922
74260566944,3.05498,-0.215069,-1.15877
74260596182,3.05508,-0.21437,-1.15832
74260596988,3.055,-0.213816,-1.15815
74260619391,3.05472,-0.213402,-1.15811
74260641941,3.05525,-0.212808,-1.15844
74260663722,3.05582,-0.211867,-1.15862
74260670560,3.05609,-0.211122,-1.15876
74260694426,3.05666,-0.21062,-1.15894
74260717007,3.05666,-0.210173,-1.15891
74260745527,3.05666,-0.210173,-1.15891
74260770113,3.05666,-0.210173,-1.15891
74260770935,3.05677,-0.209666,-1.15892
74260791981,3.056,-0.209597,-1.159
74260813781,3.0557,-0.209359,-1.15911
74260844426,3.05524,-0.209093,-1.15923
74260867665,3.05437,-0.209094,-1.15931
74260869301,3.05437,-0.209094,-1.15931
74260889483,3.05454,-0.208682,-1.1593
74260918005,3.05456,-0.208246,-1.15945
74260941960,3.05519,-0.207844,-1.15949
74260964592,3.05587,-0.207537,-1.15952
74260986382,3.05587,-0.207537,-1.15952
74260992959,3.05584,-0.207449,-1.15982
74261016957,3.05605,-0.207243,-1.16056
74261039418,3.05628,-0.20704,-1.16145
74261061987,3.05667,-0.207055,-1.16253
74261083777,3.0575,-0.207071,-1.16363
74261090501,3.05843,-0.207017,-1.16474
74261114457,3.0593,-0.207112,-1.16552
74261136927,3.05953,-0.207355,-1.16644
74261175401,3.05979,-0.207425,-1.16734
74261189863,3.06005,-0.207235,-1.16854
74261218713,3.06023,-0.207378,-1.16958
74261219440,3.06075,-0.207597,-1.17068
74261240507,3.06115,-0.207686,-1.1713
74261264442,3.06096,-0.207754,-1.17204
74261287639,3.06128,-0.207476,-1.17279
74261288425,3.06177,-0.207046,-1.17324
74261315482,3.06164,-0.20703,-1.17368
74261339895,3.06221,-0.20697,-1.17388
74261369893,3.06221,-0.20697,-1.17388
74261384495,3.06221,-0.20697,-1.17388
74261389890,3.06261,-0.206691,-1.17375
74261414495,3.06311,-0.206342,-1.17363
74261436986,3.06339,-0.206315,-1.17367
74261459503,3.06337,-0.206304,-1.1735
74261481296,3.06337,-0.206304,-1.1735
74261494921,3.06327,-0.206373,-1.1735
74261535310,3.06333,-0.206476,-1.17351
74261543390,3.06333,-0.206476,-1.17351
74261563027,3.06327,-0.206373,-1.1735
74261587011,3.06333,-0.206476,-1.17351
74261610212,3.06333,-0.206468,-1.17348
74261610990,3.06333,-0.206468,-1.17348
74261637966,3.06323,-0.206537,-1.17348
74261661980,3.06323,-0.206537,-1.17348
74261684479,3.0633,-0.20664,-1.17349
74261706920,3.06319,-0.206709,-1.17349
74261707736,3.06324,-0.206727,-1.17394
74261736943,3.0637,-0.206476,-1.17442
74261759418,3.06397,-0.206366,-1.17505
74261781979,3.06347,-0.206446,-1.17543
74261811217,3.06346,-0.206372,-1.17604
74261812057,3.06333,-0.206348,-1.17645
74261865850,3.06307,-0.206312,-1.17718
74261870555,3.06296,-0.2063,-1.17775
74261885581,3.06302,-0.205882,-1.17834
74261909509,3.06303,-0.205624,-1.17878
74261932605,3.06318,-0.205573,-1.17923
74261933484,3.06371,-0.205237,-1.17941
74261960585,3.06409,-0.204693,-1.17943
74262037544,3.064,-0.204587,-1.17928
74262039942,3.06394,-0.204298,-1.17895
74262043524,3.06394,-0.204298,-1.17895
74262059486,3.06373,-0.204437,-1.17895
74262081918,3.06366,-0.204334,-1.17894
74262104447,3.06432,-0.203754,-1.17898
74262109891,3.06478,-0.203316,-1.17915
74262134434,3.06531,-0.20298,-1.17933
74262156946,3.06603,-0.202942,-1.17938
74262218758,3.06649,-0.202764,-1.17926
74262223761,3.06718,-0.202459,-1.17931
74262224565,3.06768,-0.20211,-1.17919
74262231972,3.06878,-0.201975,-1.17928
74262253787,3.06861,-0.201941,-1.17927
74262283021,3.06857,-0.201844,-1.17954
74262307667,3.06902,-0.201583,-1.18
74262309311,3.06931,-0.201297,-1.18047
74262329468,3.06918,-0.20128,-1.18091
74262390852,3.06908,-0.201349,-1.1809
74262395497,3.06906,-0.201338,-1.18074
74262404457,3.06906,-0.201338,-1.18074
74262426331,3.06906,-0.201338,-1.18074
74262433041,3.06948,-0.20133,-1.18049
74262457058,3.06982,-0.201212,-1.1802
74262479415,3.06972,-0.201281,-1.18019
74262501329,3.06965,-0.201178,-1.18018
74262540112,3.06976,-0.201117,-1.18021
74262540922,3.07034,-0.200873,-1.18024
74262562347,3.07024,-0.200942,-1.18024
74262577739,3.07024,-0.200942,-1.18024
74262605518,3.07024,-0.200942,-1.18024
74262712511,3.07024,-0.200942,-1.18024
74262713315,3.07014,-0.201012,-1.18023
74262718609,3.07007,-0.200909,-1.18022
74262727063,3.06984,-0.201661,-1.18036
74262727773,3.06967,-0.202252,-1.18066
74262756927,3.0698,-0.202642,-1.181
74262810515,3.07005,-0.202959,-1.18146
74262825144,3.07034,-0.203111,-1.18193
74262838057,3.07035,-0.203299,-1.18239
74262855574,3.07035,-0.203299,-1.18239
74262856396,3.07032,-0.203471,-1.1824
74262909643,3.07032,-0.203471,-1.1824
74263019983,3.07022,-0.20354,-1.18239
74263132514,3.07176,-0.204201,-1.18313
74263134926,3.07245,-0.204075,-1.18361
74263148298,3.07278,-0.204062,-1.18411
74263149952,3.07403,-0.204124,-1.18434
74263185156,3.07403,-0.204124,-1.18434
74263186070,3.07453,-0.204221,-1.18424
74263206922,3.07467,-0.204241,-1.18395
74263320778,3.07456,-0.204311,-1.18394
74263326129,3.07489,-0.204375,-1.18383
74263373277,3.07608,-0.204419,-1.18347
74263385919,3.07615,-0.204522,-1.18349
74263386742,3.07605,-0.204592,-1.18348
74263470144,3.07605,-0.204592,-1.18348
74263472451,3.07605,-0.204592,-1.18348
74263522589,3.07584,-0.20473,-1.18348
74263524207,3.07591,-0.204833,-1.18349
74263525039,3.0759,-0.204823,-1.18332
74263530260,3.07579,-0.204892,-1.18332
74263656613,3.07579,-0.204892,-1.18332
74263680036,3.07557,-0.20539,-1.18378
74263695054,3.07543,-0.205632,-1.18378
74263695833,3.07543,-0.205632,-1.18378
74263777506,3.07536,-0.206145,-1.18406
74263779962,3.07514,-0.206643,-1.18452
74263800718,3.07463,-0.20717,-1.18494
74263837359,3.07402,-0.208229,-1.18686
74263869104,3.07379,-0.20872,-1.1873
74263890807,3.07306,-0.209569,-1.18774
74263927634,3.06666,-0.213492,-1.1881
74263928437,3.06431,-0.215443,-1.1887
74263933080,3.06117,-0.217004,-1.19014
74263948058,3.05831,-0.218457,-1.19233
74263972651,3.05548,-0.219674,-1.19512
74263973497,3.05077,-0.221364,-1.19839
74263987777,3.04308,-0.223431,-1.20246
74264017052,3.03505,-0.225593,-1.2073
74264045595,3.0282,-0.226673,-1.21219
74264100898,3.02141,-0.227952,-1.2185
74264101609,3.01457,-0.230566,-1.22608
74264114531,3.00679,-0.234243,-1.23392
74264129463,2.99817,-0.238611,-1.24268
74264144303,2.9875,-0.244247,-1.25134
74264150475,2.9767,-0.250904,-1.2593
74264174524,2.96778,-0.258954,-1.26679
74264196316,2.96011,-0.270633,-1.27443
74264227663,2.95239,-0.285553,-1.28058
74264295138,2.94418,-0.302781,-1.28662
74264295918,2.93162,-0.320823,-1.29186
74264302513,2.91218,-0.342669,-1.29548
74264304987,2.8946,-0.365523,-1.29791
74264330296,2.88774,-0.385877,-1.30116
74264355006,2.88091,-0.407798,-1.30484
74264386549,2.86085,-0.455014,-1.30874
74264393436,2.8455,-0.476423,-1.30658
74264423270,2.8348,-0.496635,-1.30344
74264432386,2.82808,-0.515344,-1.29926
74264453431,2.82706,-0.534149,-1.29601
74264474464,2.83139,-0.553089,-1.29212
74264489463,2.83762,-0.568733,-1.28805
74264512033,2.83795,-0.584694,-1.28378
74264557625,2.82806,-0.603261,-1.28155
74264572126,2.82191,-0.643187,-1.28259
74264587830,2.82417,-0.666916,-1.2844
74264609550,2.82476,-0.691498,-1.28415
74264630590,2.82193,-0.71728,-1.28065
74264644887,2.81326,-0.744328,-1.27388
74264667386,2.80957,-0.772964,-1.2683
74264698795,2.81246,-0.801362,-1.26598
74264704906,2.81634,-0.826817,-1.26389
74264727367,2.81291,-0.854496,-1.25892
74264750610,2.79981,-0.884823,-1.24938
74264764947,2.78639,-0.915631,-1.23922
74264787513,2.77485,-0.943678,-1.22726
74264810679,2.76535,-0.96865,-1.21665
74264824983,2.75672,-0.98957,-1.20934
74264847471,2.74726,-1.00768,-1.20513
74264870585,2.73223,-1.0228,-1.19883
74264884971,2.71395,-1.0388,-1.19251
74264907492,2.69383,-1.05715,-1.18474
74264930611,2.67441,-1.07586,-1.17727
74264944959,2.6551,-1.09244,-1.1717
74264967390,2.62854,-1.10828,-1.16633
74264990606,2.6054,-1.12648,-1.16343
74265004866,2.58748,-1.1424,-1.15815
74265027407,2.57797,-1.15693,-1.16017
74265050609,2.57828,-1.16845,-1.16822
74265065008,2.58489,-1.1803,-1.18361
74265087465,2.58777,-1.19653,-1.20273
74265110626,2.58375,-1.21926,-1.2227
74265124957,2.57862,-1.24644,-1.24503
74265163720,2.5751,-1.2766,-1.27174
74265170524,2.57688,-1.30571,-1.30584
74265184902,2.5818,-1.33341,-1.348
74265207368,2.60039,-1.3625,-1.40927
74265230494,2.62995,-1.39117,-1.48211
74265244859,2.66177,-1.41874,-1.55407
74265267368,2.71555,-1.44588,-1.63452
74265291484,2.81204,-1.46555,-1.74626
74265304924,3.0243,-1.47511,-1.97046
74265327372,3.13316,-1.48453,-2.08749
74265349895,-3.03466,-1.48984,-2.22468
74265364860,-2.88076,-1.49662,-2.41559
74265387486,-2.74399,-1.50279,-2.60523
74265410694,-2.49382,-1.50513,-2.90862
74265424970,-2.1785,-1.49764,3.03968
74265447411,-2.09397,-1.49294,2.96102
74265470643,-2.1635,-1.49538,3.04788
74265485002,-2.19272,-1.49456,3.09053
74265507524,-2.1844,-1.49168,3.08945
74265538728,-2.1555,-1.48294,3.06914
74265544883,-2.16403,-1.47626,3.08757
74265567368,-2.18253,-1.46943,3.11218
74265589841,-2.18409,-1.46157,3.11702
74265604834,-2.17636,-1.45168,3.1153
74265635524,-2.18217,-1.44034,3.13178
74265649847,-2.17164,-1.43136,3.12992
74265664878,-2.17423,-1.4243,-3.14133
74265687385,-2.1783,-1.41628,-3.12996
74265709879,-2.17869,-1.40784,-3.12301
74265724840,-2.16767,-1.39803,-3.12837
74265747348,-2.15641,-1.38965,-3.13653
74265769849,-2.14417,-1.38002,3.13897
74265784927,-2.15603,-1.37443,-3.12845
74265807520,-2.16868,-1.36759,-3.11327
74265829995,-2.17827,-1.36119,-3.10045
74265844939,-2.18555,-1.35673,-3.09281
74265867482,-2.18622,-1.35426,-3.09299
74265889972,-2.18793,-1.35468,-3.09051
74265904951,-2.18454,-1.35446,-3.09528
74265927466,-2.1757,-1.354,-3.10641
74265949932,-2.16444,-1.3531,-3.12094
74265964914,-2.15527,-1.35063,-3.13462
74265987437,-2.14995,-1.34998,3.14109
74266009933,-2.15426,-1.35022,-3.13856
74266025011,-2.15971,-1.35004,-3.13326
74266048871,-2.16774,-1.35024,-3.12447
74266071355,-2.17362,-1.35005,-3.11807
74266084962,-2.17916,-1.35123,-3.1106
74266107501,-2.18403,-1.35348,-3.10198
74266129969,-2.19136,-1.35685,-3.08889
74266144984,-2.21046,-1.36165,-3.06602
74266167488,-2.22416,-1.36471,-3.0508
74266189931,-2.23844,-1.36845,-3.0338
74266204896,-2.24236,-1.37492,-3.02937
74266227369,-2.24153,-1.38192,-3.03241
74266258690,-2.23782,-1.38742,-3.03939
74266264868,-2.23671,-1.39295,-3.0457
74266287380,-2.24015,-1.39863,-3.0475
74266309911,-2.2515,-1.40392,-3.04159
74266324851,-2.26453,-1.40818,-3.03322
74266347342,-2.28176,-1.41252,-3.01994
74266370023,-2.2949,-1.41457,-3.00893
74266386389,-2.30197,-1.41628,-3.00448
74266407465,-2.30084,-1.41934,-3.00704
74266429983,-2.29716,-1.42424,-3.01263
74266446330,-2.28928,-1.4287,-3.02328
74266467466,-2.28018,-1.43404,-3.03542
74266489944,-2.27402,-1.43829,-3.04169
74266512515,-2.26571,-1.44202,-3.05141
74266527441,-2.25294,-1.44339,-3.06435
74266549979,-2.24296,-1.44583,-3.07439
74266566324,-2.22807,-1.44854,-3.09094
74266587443,-2.21054,-1.45181,-3.10991
74266609910,-2.19381,-1.45517,-3.12644
74266626431,-2.17761,-1.45734,-3.13991
74266647449,-2.16386,-1.45983,3.13142
74266671354,-2.14881,-1.46117,3.11763
74266686387,-2.13639,-1.46339,3.10438
74266707483,-2.12152,-1.46536,3.08843
74266729993,-2.10239,-1.46622,3.06782
74266746443,-2.082,-1.46621,3.04783
74266767456,-2.07439,-1.46778,3.04122
74266789987,-2.07139,-1.46914,3.03766
74266806399,-2.06636,-1.47003,3.03238
74266827544,-2.06394,-1.47237,3.03054
74266850057,-2.05756,-1.47385,3.02379
74266866433,-2.04533,-1.47428,3.01011
74266888034,-2.03079,-1.4745,2.99422
74266909916,-2.01622,-1.47428,2.97878
74266926398,-2.00209,-1.47411,2.96423
74266947524,-1.99101,-1.47455,2.95376
74266969936,-1.9818,-1.47623,2.94318
74266986443,-1.97859,-1.47725,2.93819
74267007453,-1.97869,-1.47858,2.93715
74267029943,-1.98714,-1.47984,2.94482
74267047879,-1.9938,-1.48011,2.95154
74267067425,-1.99923,-1.47961,2.95745
74267089909,-2.00062,-1.47977,2.95899
74267113864,-2.0015,-1.48083,2.9615
74267127421,-2.00096,-1.48123,2.96225
74267149991,-2.00026,-1.4822,2.96168
74267166402,-2.00541,-1.48354,2.96778
74267187461,-2.01904,-1.48519,2.9817
74267209967,-2.03424,-1.48498,2.99764
74267226367,-2.04742,-1.48576,3.0117
74267255651,-2.05364,-1.48605,3.01994
74267269965,-2.0524,-1.48768,3.01901
74267286424,-2.04411,-1.48877,3.01101
74267308882,-2.03485,-1.48945,3.00275
74267329872,-2.02924,-1.49111,2.99752
74267347737,-2.02274,-1.49069,2.99277
74267368885,-2.01885,-1.4904,2.98992
74267383870,-2.01842,-1.49088,2.98917
74267406455,-2.01443,-1.49098,2.98503
74267428957,-2.0069,-1.49081,2.97817
74267450051,-1.99979,-1.49125,2.97162
74267466457,-1.99553,-1.49267,2.9674
74267488899,-1.99512,-1.49362,2.96766
74267510002,-1.99805,-1.49355,2.97178
74267526461,-1.99633,-1.49349,2.97001
74267556372,-1.99704,-1.49312,2.97115
74267565342,-2.00522,-1.49479,2.97835
74267586340,-2.00877,-1.4941,2.98312
74267608892,-2.00877,-1.4941,2.98312
74267625415,-2.00481,-1.49421,2.97935
74267646456,-1.9952,-1.49425,2.96977
74267668959,-1.98357,-1.49412,2.95805
74267685380,-1.96695,-1.49457,2.94105
74267706469,-1.95024,-1.49397,2.9247
74267728903,-1.93454,-1.49418,2.90837
74267745398,-1.92211,-1.49347,2.8961
74267766478,-1.90905,-1.49261,2.88297
74267788925,-1.8985,-1.49171,2.87243
74267810600,-1.88223,-1.49046,2.85677
74267825588,-1.86715,-1.49021,2.84174
74267848088,-1.85365,-1.48905,2.82898
74267870590,-1.83931,-1.48866,2.81463
74267893219,-1.82943,-1.4875,2.80571
74267908267,-1.81978,-1.48634,2.79699
74267930659,-1.80641,-1.48469,2.78474
74267945656,-1.79695,-1.48411,2.77627
74267968141,-1.78662,-1.48315,2.76743
74267990573,-1.78059,-1.48317,2.76238
74268005658,-1.7756,-1.4818,2.75896
74268028142,-1.77749,-1.48066,2.76302
74268050637,-1.78117,-1.47978,2.76932
74268065612,-1.7887,-1.47833,2.77943
74268088068,-1.79866,-1.47693,2.79196
74268110558,-1.81396,-1.47683,2.80895
74268125541,-1.83253,-1.47598,2.83065
74268155669,-1.85462,-1.47536,2.85528
74268170692,-1.87889,-1.47369,2.88242
74268185682,-1.90495,-1.47203,2.91131
74268208195,-1.91922,-1.46982,2.92759
74268230695,-1.93949,-1.46837,2.94932
74268245694,-1.96293,-1.46586,2.97648
74268268180,-1.98288,-1.4648,2.998
74268290660,-1.99359,-1.46183,3.01015
74268305652,-2.0013,-1.45912,3.01971
74268335600,-2.01078,-1.45613,3.03138
74268350581,-2.02019,-1.45288,3.04267
74268365661,-2.0351,-1.44923,3.06024
74268388081,-2.05559,-1.44581,3.08344
74268412089,-2.08813,-1.44238,3.11869
74268427086,-2.10877,-1.43784,3.14048
74268448233,-2.12272,-1.43083,-3.12642
74268470706,-2.16385,-1.42773,-3.07996
74268487097,-2.19886,-1.42471,-3.03991
74268508068,-2.21492,-1.42003,-3.02008
74268530642,-2.22347,-1.41562,-3.00813
74268547126,-2.22653,-1.41081,-3.00188
74268568189,-2.23013,-1.40525,-2.9951
74268590655,-2.23815,-1.39892,-2.98216
74268607050,-2.26343,-1.39165,-2.94986
74268628136,-2.25142,-1.38245,-2.95812
74268650677,-2.28169,-1.37311,-2.92226
74268667097,-2.32809,-1.36678,-2.87156
74268688188,-2.3561,-1.3578,-2.84064
74268710684,-2.37105,-1.34904,-2.8202
74268727108,-2.37921,-1.34094,-2.80709
74268748160,-2.3859,-1.33162,-2.79829
74268770694,-2.39794,-1.32439,-2.78461
74268787150,-2.41508,-1.31818,-2.76528
74268808536,-2.43944,-1.31182,-2.74084
74268830572,-2.45492,-1.30507,-2.72716
74268847035,-2.49174,-1.2988,-2.69148
74268868112,-2.52915,-1.29305,-2.65653
74268898115,-2.56214,-1.2886,-2.62726
74268914633,-2.58974,-1.28597,-2.60312
74268928177,-2.61166,-1.28339,-2.58451
74268950688,-2.63071,-1.28024,-2.56867
74268967125,-2.6489,-1.27722,-2.55322
74268988161,-2.67477,-1.27372,-2.52999
74269010691,-2.70487,-1.26947,-2.50267
74269026869,-2.73211,-1.26452,-2.47784
74269048167,-2.76912,-1.25871,-2.44231
74269070665,-2.81012,-1.25152,-2.40433
74269094573,-2.8465,-1.24394,-2.37096
74269108084,-2.88037,-1.236,-2.33865
74269130578,-2.91547,-1.22777,-2.30524
74269147125,-2.94982,-1.21924,-2.27285
74269167992,-2.98762,-1.21042,-2.23909
74269190731,-3.03005,-1.20076,-2.20377
74269206439,-3.07731,-1.1892,-2.16184
74269228184,-3.1286,-1.17609,-2.11503
74269250696,3.1017,-1.16278,-2.06745
74269266438,3.05033,-1.14936,-2.01935
74269289587,3.00155,-1.13544,-1.97188
74269312128,2.94679,-1.12455,-1.9196
74269326432,2.89064,-1.11632,-1.8785
74269349623,2.81217,-1.08622,-1.83141
74269370698,2.72071,-1.05199,-1.78408
74269386425,2.62296,-1.01036,-1.73378
74269409537,2.56735,-0.960362,-1.71177
74269430640,2.57341,-0.930489,-1.71345
74269446418,2.6,-0.898666,-1.72631
74269469617,2.64265,-0.895882,-1.74875
74269490627,2.7011,-0.897362,-1.77348
74269506414,2.75855,-0.91258,-1.80012
74269529633,2.82626,-0.9414,-1.83435
74269550758,2.89956,-0.983535,-1.87985
74269566501,2.97031,-1.03774,-1.93954
74269589651,3.05674,-1.10267,-2.02216
74269610774,-3.10447,-1.1749,-2.14434
74269626895,-2.92385,-1.24657,-2.33037
74269649606,-2.63882,-1.30615,-2.61984
74269671062,-2.20718,-1.33702,-3.04681
74269686476,-1.72214,-1.32221,2.7592
74269709890,-1.34325,-1.26344,2.38655
74269730627,-1.09186,-1.18078,2.14564
74269746480,-0.922472,-1.09,1.99252
74269769584,-0.823803,-1.00083,1.90346
74269790680,-0.760113,-0.908461,1.8613
74269806518,-0.730458,-0.834495,1.83975
74269829640,-0.737464,-0.800548,1.83967
74269850723,-0.79473,-0.813639,1.85785
74269866401,-0.814662,-0.864147,1.88557
74269889575,-0.880772,-0.900591,1.9102
74269910625,-0.858897,-0.965863,1.94703
74269926446,-0.86429,-1.05081,1.99557
74269949599,-0.942955,-1.11021,2.0744
74269978205,-1.04383,-1.14626,2.18258
74269986473,-1.08646,-1.18015,2.25455
74270009588,-1.15441,-1.22211,2.33982
74270030691,-1.25176,-1.24484,2.43713
74270046479,-1.35984,-1.26009,2.54449
74270069598,-1.46205,-1.27479,2.65191
74270090703,-1.56634,-1.28857,2.76616
74270106513,-1.67392,-1.29902,2.88424
74270128929,-1.77377,-1.30248,2.99033
74270150684,-1.86072,-1.30179,3.08016
74270166412,-1.92855,-1.30134,-3.1324
74270187472,-1.99485,-1.30121,-3.06277
74270218222,-2.06555,-1.30279,-2.99145
74270226522,-2.13655,-1.30204,-2.92139
74270247544,-2.19951,-1.30146,-2.85923
74270271393,-2.25354,-1.30042,-2.80713
74270286483,-2.29891,-1.29923,-2.76852
74270307546,-2.34618,-1.29687,-2.73013
74270330685,-2.39654,-1.29347,-2.68713
74270346477,-2.44927,-1.28886,-2.63891
74270367571,-2.51485,-1.28255,-2.57806
74270390730,-2.58663,-1.27251,-2.51282
74270406930,-2.65804,-1.25931,-2.44715
74270427504,-2.7488,-1.24978,-2.3629
74270450642,-2.83809,-1.23892,-2.279
74270466410,-2.90711,-1.22639,-2.21465
74270487499,-2.97726,-1.21311,-2.15436
74270510688,-3.0561,-1.20467,-2.09409
74270526442,-3.14102,-1.20427,-2.03318
74270547620,3.02759,-1.17594,-1.94815
74270570654,2.9247,-1.13002,-1.87219
74270586476,2.83408,-1.07092,-1.79924
74270607529,2.79628,-1.01146,-1.76161
74270630741,2.78604,-0.958194,-1.73735
74270646500,2.80225,-0.916306,-1.72814
74270667550,2.85108,-0.907414,-1.74553
74270690666,2.90112,-0.9177,-1.76341
74270706514,2.94294,-0.940083,-1.78303
74270727498,2.9883,-0.975136,-1.81316
74270750689,3.03322,-1.01981,-1.84949
74270766438,3.08858,-1.07513,-1.90136
74270788921,-3.12482,-1.13992,-1.97629
74270835107,-3.02384,-1.21028,-2.08929
74270837525,-2.8521,-1.28042,-2.27482
74270848891,-2.54871,-1.33854,-2.59047
74270870705,-2.0854,-1.36202,-3.06389
74270886493,-1.6092,-1.3343,2.73838
74270908994,-1.27713,-1.26497,2.40193
74270930690,-1.08173,-1.17361,2.19895
74270946557,-0.962605,-1.07403,2.07578
74270969038,-0.886356,-0.975858,2.0009
74270990759,-0.831521,-0.877132,1.94947
74271006493,-0.806905,-0.792124,1.91616
74271028981,-0.798634,-0.724722,1.89694
74271052115,-0.797521,-0.687574,1.89439
74271073124,-0.808074,-0.692063,1.90377
74271088954,-0.830601,-0.731418,1.92674
74271111420,-0.847864,-0.793964,1.96182
74271133131,-0.853746,-0.837645,1.99751
74271148927,-0.913313,-0.85072,2.01414
74271171478,-0.835061,-0.890007,2.01755
74271194672,-0.820306,-0.959986,2.05111
74271209036,-0.868737,-1.01781,2.11575
74271231533,-0.933051,-1.0695,2.18687
74271254643,-0.987119,-1.10669,2.25002
74271268952,-1.04293,-1.14086,2.30236
74271291517,-1.10228,-1.16544,2.35479
74271314705,-1.16898,-1.18154,2.41078
74271329013,-1.23219,-1.1947,2.46651
74271351482,-1.28785,-1.2049,2.51378
74271374585,-1.33849,-1.2139,2.55561
74271388166,-1.3878,-1.21888,2.59362
74271402471,-1.43226,-1.22455,2.6285
74271424992,-1.4774,-1.23087,2.6662
74271448161,-1.53059,-1.23733,2.71123
74271462491,-1.58814,-1.24311,2.76066
74271485043,-1.65058,-1.24855,2.81651
74271508159,-1.71831,-1.25394,2.88063
74271532154,-1.79127,-1.25763,2.95176
74271545018,-1.8689,-1.26021,3.02958
74271576374,-1.95547,-1.26404,3.11761
74271582528,-2.05279,-1.27,-3.06794
74271605007,-2.15433,-1.2744,-2.97181
74271628158,-2.25196,-1.27335,-2.88068
74271642521,-2.34586,-1.26781,-2.79044
74271665013,-2.43714,-1.25796,-2.69847
74271688339,-2.5319,-1.24447,-2.59782
74271702481,-2.64059,-1.22773,-2.48156
74271725096,-2.75502,-1.2071,-2.36326
74271748160,-2.8685,-1.18035,-2.25224
74271762497,-2.97737,-1.14713,-2.1472
74271785060,-3.08448,-1.10885,-2.05403
74271808200,3.08653,-1.05674,-1.96582
74271822505,2.98814,-0.994622,-1.89293
74271845077,2.9069,-0.923505,-1.8204
74271868303,2.85103,-0.86767,-1.7655
74271882481,2.85243,-0.812068,-1.73356
74271905042,2.86995,-0.785759,-1.72154
74271928222,2.901,-0.799324,-1.72996
74271942519,2.91899,-0.828532,-1.73408
74271965015,2.93041,-0.869606,-1.74462
74271988212,2.94793,-0.928093,-1.76664
74272002540,2.98552,-0.999794,-1.80552
74272025094,3.04485,-1.08264,-1.86581
74272048198,3.14153,-1.17199,-1.96411
74272062530,-2.97755,-1.26292,-2.1367
74272085056,-2.67417,-1.34045,-2.44882
74272107473,-2.15168,-1.38293,-2.97603
74272122493,-1.56739,-1.36063,2.7122
74272153216,-1.19837,-1.2876,2.32782
74272168287,-0.999076,-1.19529,2.12007
74272182601,-0.883842,-1.09739,2.00577
74272205814,-0.811053,-1.00411,1.94252
74272228238,-0.759334,-0.912131,1.90589
74272242555,-0.726658,-0.836956,1.88845
74272265838,-0.705265,-0.792426,1.88188
74272288259,-0.708907,-0.792191,1.88716
74272302643,-0.723798,-0.826374,1.90341
74272341356,-0.750063,-0.881202,1.93068
74272348156,-0.775884,-0.916844,1.96114
74272362516,-0.786867,-0.944647,1.97238
74272385729,-0.763576,-1.01531,1.99489
74272408189,-0.79381,-1.08584,2.05586
74272422529,-0.857733,-1.14615,2.13482
74272445746,-0.928899,-1.19111,2.22336
74272468286,-0.998801,-1.22302,2.30129
74272482482,-1.07822,-1.24417,2.37245
74272505730,-1.16422,-1.26749,2.45145
74272528155,-1.25493,-1.28357,2.53753
74272542632,-1.33436,-1.29519,2.62151
74272565509,-1.39756,-1.2994,2.67584
74272596425,-1.44949,-1.30204,2.71894
74272602498,-1.49745,-1.30297,2.75837
74272625733,-1.54602,-1.30349,2.8012
74272648207,-1.59638,-1.30577,2.85107
74272662516,-1.65721,-1.3085,2.91384
74272685057,-1.72414,-1.30905,2.98475
74272709656,-1.80214,-1.31093,3.07003
74272722538,-1.89431,-1.31447,-3.11263
74272753195,-1.99442,-1.31683,-3.00711
74272768216,-2.09265,-1.31552,-2.90828
74272784160,-2.197,-1.31217,-2.80497
74272805177,-2.30123,-1.30717,-2.70418
74272828244,-2.40596,-1.29946,-2.60424
74272842661,-2.51536,-1.2906,-2.49989
74272865146,-2.62204,-1.27941,-2.39922
74272888350,-2.72964,-1.26671,-2.29634
74272902610,-2.83484,-1.25112,-2.19352
74272925135,-2.92598,-1.23146,-2.10273
74272948233,-3.02762,-1.20224,-2.00461
74272962510,-3.1307,-1.16719,-1.915
74272985047,3.04042,-1.13137,-1.83619
74273008186,2.90895,-1.0803,-1.75952
74273024048,2.80022,-1.02559,-1.70536
74273045069,2.72047,-0.95873,-1.64876
74273068214,2.67298,-0.904953,-1.61734
74273084091,2.64796,-0.856618,-1.58659
74273105081,2.67221,-0.821552,-1.58641
74273129090,2.72393,-0.828897,-1.6034
74273144151,2.76603,-0.842609,-1.61198
74273165184,2.80355,-0.874935,-1.62279
74273187631,2.83408,-0.91992,-1.63332
74273204097,2.87882,-0.980714,-1.65802
74273225189,2.92793,-1.05507,-1.69507
74273247583,2.98253,-1.1399,-1.75021
74273265408,3.06959,-1.23207,-1.84704
74273285102,-3.03878,-1.32371,-2.03353
74273307484,-2.64308,-1.40031,-2.43563
74273331547,-1.91306,-1.41973,3.11857
74273345148,-1.32564,-1.35879,2.53633
74273368284,-1.05519,-1.26037,2.27505
74273383998,-0.918516,-1.1505,2.15443
74273405137,-0.829014,-1.04206,2.08808
74273428292,-0.777417,-0.932667,2.04747
74273444076,-0.765038,-0.835334,2.02422
74273465089,-0.770575,-0.771425,2.00807
74273488291,-0.81053,-0.761514,2.0074
74273504043,-0.872437,-0.790497,2.02589
74273533201,-0.897564,-0.846514,2.05114
74273548188,-0.931115,-0.877455,2.08471
74273570692,-0.897193,-0.896434,2.07157
74273585090,-0.849524,-0.969046,2.08574
74273607660,-0.87167,-1.04041,2.1375
74273624151,-0.95727,-1.09685,2.22717
74273645077,-1.02057,-1.14573,2.3123
74273667584,-1.07687,-1.18505,2.38288
74273684122,-1.16207,-1.2251,2.46146
74273705063,-1.25622,-1.25963,2.55291
74273727660,-1.36719,-1.28171,2.66645
74273744121,-1.45501,-1.30027,2.7653
74273765090,-1.53331,-1.31473,2.85558
74273787542,-1.61671,-1.32551,2.94668
74273804052,-1.69573,-1.33181,3.02618
74273826488,-1.76063,-1.33395,3.08977
74273849055,-1.82101,-1.33613,-3.13192
74273864088,-1.89093,-1.33965,-3.06038
74273885162,-1.9728,-1.34349,-2.98121
74273915752,-2.05711,-1.34259,-2.89831
74273924754,-2.15092,-1.34163,-2.80688
74273946510,-2.24645,-1.33753,-2.71325
74273967609,-2.34632,-1.33045,-2.61599
74273984126,-2.44183,-1.32094,-2.52373
74274006500,-2.53105,-1.31109,-2.43965
74274027573,-2.61518,-1.29949,-2.36478
74274044040,-2.6953,-1.2862,-2.29439
74274066514,-2.78482,-1.27152,-2.21142
74274087626,-2.88992,-1.25353,-2.10888
74274104133,-2.99507,-1.22643,-2.00283
74274126550,-3.09189,-1.19345,-1.90619
74274147606,3.09701,-1.15584,-1.82285
74274164118,2.98531,-1.10511,-1.74058
74274186986,2.86107,-1.05042,-1.67094
74274207652,2.76482,-0.990033,-1.63005
74274224130,2.6846,-0.92438,-1.58921
74274246586,2.65573,-0.871934,-1.57457
74274267568,2.64749,-0.851376,-1.57458
74274292168,2.67856,-0.814782,-1.58733
74274306640,2.72257,-0.824778,-1.61196
74274327541,2.76535,-0.859041,-1.63444
74274345495,2.812,-0.90103,-1.66262
74274368087,2.87169,-0.950507,-1.69661
74274395778,2.94645,-1.01244,-1.74561
74274419646,3.03822,-1.08643,-1.81907
74274432556,-3.12789,-1.16794,-1.92929
74274447556,-2.95734,-1.25012,-2.10201
74274464139,-2.66476,-1.32039,-2.39425
74274488032,-2.19783,-1.36116,-2.85109
74274507510,-1.65526,-1.34355,2.87958
74274524128,-1.27097,-1.27227,2.4906
74274546515,-1.05413,-1.17478,2.26834
74274567666,-0.933457,-1.06525,2.14264
74274584088,-0.850826,-0.949903,2.06761
74274606579,-0.801632,-0.847719,2.0323
74274627587,-0.780503,-0.769423,2.01872
74274644089,-0.786065,-0.744471,2.01681
74274666594,-0.825884,-0.764997,2.03255
74274687635,-0.858067,-0.813403,2.06416
74274711525,-0.890922,-0.867681,2.10525
74274726539,-0.907568,-0.899976,2.1529
74274747690,-0.921848,-0.918209,2.17753
74274764127,-0.885565,-0.98089,2.20518
74274786618,-0.879868,-1.04763,2.26057
74274807571,-0.929319,-1.10708,2.34211
74274824095,-1.02563,-1.15213,2.44887
74274846545,-1.10702,-1.18398,2.53834
74274869156,-1.19614,-1.21176,2.61703
74274884139,-1.30265,-1.23292,2.71831
74274906632,-1.40387,-1.24628,2.81652
74274929083,-1.48822,-1.25644,2.89887
74274942654,-1.56407,-1.26382,2.97189
74274967213,-1.63174,-1.26792,3.03227
74274988427,-1.69191,-1.26974,3.08252
74275010821,-1.74968,-1.27249,3.13048
74275025818,-1.80913,-1.27479,-3.10171
74275048317,-1.8727,-1.2752,-3.04745
74275062620,-1.94539,-1.2756,-2.98441
74275087284,-2.02146,-1.27356,-2.91538
74275116434,-2.10293,-1.26992,-2.83828
74275122673,-2.19165,-1.26521,-2.75522
74275145812,-2.2855,-1.25852,-2.66757
74275168240,-2.37609,-1.2493,-2.58031
74275182681,-2.4635,-1.23826,-2.4948
74275205794,-2.54927,-1.22544,-2.41302
74275228352,-2.6316,-1.21018,-2.337
74275242665,-2.71171,-1.19386,-2.26114
74275265832,-2.79509,-1.17793,-2.18121
74275312644,-2.88497,-1.15193,-2.09625
74275315027,-2.97932,-1.12145,-2.0134
74275333958,-3.08491,-1.08675,-1.93538
74275348342,3.07158,-1.03742,-1.86609
74275362663,2.94614,-0.976419,-1.8056
74275393989,2.86601,-0.906934,-1.74278
74275408122,2.83016,-0.847558,-1.70537
74275422660,2.8313,-0.794948,-1.67264
74275445879,2.84848,-0.782843,-1.65872
74275468269,2.87742,-0.793333,-1.66742
74275482592,2.91574,-0.818524,-1.67517
74275505739,2.94737,-0.860716,-1.67961
74275528371,2.97282,-0.914714,-1.69265
74275542674,3.00564,-0.983691,-1.72128
74275565797,3.0568,-1.06489,-1.77189
74275595818,3.13977,-1.15427,-1.8578
74275604088,-3.00833,-1.2488,-2.00215
74275625760,-2.75386,-1.33856,-2.27791
74275650314,-2.24785,-1.39591,-2.80849
74275664519,-1.58366,-1.38127,2.79252
74275685625,-1.17079,-1.30489,2.36332
74275709724,-0.981562,-1.20204,2.15645
74275724130,-0.877264,-1.094,2.05144
74275745809,-0.809249,-0.98091,1.99311
74275768318,-0.772751,-0.878985,1.96464
74275784134,-0.758669,-0.796072,1.94856
74275805758,-0.762401,-0.750405,1.94119
74275828284,-0.797824,-0.754851,1.94685
74275844171,-0.84081,-0.791574,1.9665
74275865824,-0.868216,-0.84243,1.99263
74275888299,-0.886903,-0.879541,2.02374
74275904159,-0.868355,-0.9259,2.03582
74275927236,-0.843376,-0.990982,2.0599
74275948259,-0.878255,-1.05897,2.11801
74275962675,-0.943172,-1.11306,2.20288
74275985863,-1.01681,-1.1562,2.29239
74276008287,-1.07901,-1.19012,2.36346
74276022688,-1.16714,-1.22515,2.44406
74276045802,-1.26204,-1.25014,2.53524
74276068305,-1.35066,-1.26904,2.62672
74276082639,-1.43255,-1.28112,2.71341
74276105782,-1.50958,-1.29174,2.79519
74276128208,-1.59416,-1.29782,2.87897
74276142591,-1.67217,-1.29983,2.95523
74276165724,-1.7398,-1.30213,3.02437
74276188373,-1.80541,-1.30635,3.09568
74276202639,-1.87676,-1.31071,-3.11132
74276227255,-1.951,-1.31311,-3.03585
74276248307,-2.02418,-1.31393,-2.96168
74276262625,-2.09942,-1.31432,-2.88353
74276294768,-2.17142,-1.31252,-2.80914
74276308343,-2.24354,-1.30972,-2.73694
74276322562,-2.31658,-1.30554,-2.66659
74276345822,-2.38763,-1.30044,-2.60075
74276368349,-2.45572,-1.29406,-2.53898
74276382668,-2.52827,-1.28583,-2.47415
74276405847,-2.61137,-1.27522,-2.39799
74276428364,-2.70614,-1.26268,-2.30626
74276442647,-2.8056,-1.24799,-2.20584
74276466207,-2.89607,-1.23022,-2.11468
74276489732,-2.99826,-1.20283,-2.01553
74276504037,-3.10243,-1.17032,-1.92136
74276525737,3.06877,-1.13407,-1.83002
74276548244,2.95547,-1.07939,-1.75054
74276564041,2.8768,-1.02433,-1.70066
74276585725,2.79586,-0.953601,-1.64053
74276608393,2.75814,-0.890133,-1.6118
74276624074,2.77118,-0.83243,-1.5905
74276645856,2.7922,-0.802801,-1.57911
74276668364,2.82143,-0.802205,-1.58938
74276684132,2.86157,-0.821592,-1.60329
74276705869,2.88984,-0.855715,-1.61312
74276728329,2.90831,-0.901351,-1.62318
74276744112,2.93409,-0.960872,-1.64674
74276765190,2.96833,-1.03314,-1.68297
74276788354,3.02504,-1.11399,-1.73675
74276804166,3.11615,-1.20081,-1.82561
74276825257,-3.01077,-1.29044,-1.98425
74276849843,-2.70086,-1.37218,-2.30215
74276864559,-2.09159,-1.41455,-2.92141
74276885147,-1.43443,-1.37921,2.69379
74276908308,-1.08452,-1.29169,2.33208
74276924172,-0.92659,-1.18475,2.15799
74276946622,-0.845694,-1.07152,2.06623
74276969766,-0.794941,-0.955786,2.01053
74276984097,-0.775012,-0.851025,1.97927
74277006628,-0.775406,-0.768966,1.95835
74277029772,-0.792216,-0.741581,1.94894
74277044080,-0.836072,-0.75962,1.95782
74277066583,-0.889199,-0.800535,1.98509
74277089765,-0.92476,-0.85758,2.01689
74277110803,-1.0015,-0.886142,2.05189
74277126560,-0.957408,-0.947096,2.0728
74277149732,-0.952433,-1.02706,2.12205
74277170723,-0.983439,-1.08966,2.19586
74277186525,-1.03151,-1.14217,2.2763
74277209754,-1.09082,-1.17839,2.35366
74277230799,-1.15623,-1.20835,2.42614
74277246560,-1.25216,-1.23332,2.5176
74277269771,-1.34558,-1.25274,2.60739
74277290826,-1.43562,-1.26635,2.69642
74277314751,-1.51506,-1.27742,2.78081
74277329819,-1.58554,-1.28651,2.85942
74277344215,-1.6505,-1.29146,2.92727
74277365210,-1.70911,-1.29324,2.98256
74277388337,-1.75989,-1.2934,3.02869
74277404165,-1.80649,-1.2947,3.07104
74277426632,-1.85027,-1.29567,3.11333
74277455835,-1.89801,-1.29634,-3.12394
74277464051,-1.94696,-1.2969,-3.07641
74277486550,-1.99716,-1.29749,-3.02618
74277508283,-2.05113,-1.2961,-2.97148
74277524038,-2.11086,-1.29306,-2.91068
74277546585,-2.17486,-1.29063,-2.84735
74277568239,-2.24586,-1.28818,-2.78001
74277590836,-2.33202,-1.28641,-2.70076
74277606633,-2.42658,-1.27958,-2.61307
74277628105,-2.53088,-1.26784,-2.51255
74277645533,-2.64892,-1.25665,-2.39939
74277666597,-2.76557,-1.24237,-2.28673
74277688322,-2.87797,-1.22501,-2.17736
74277704072,-2.98989,-1.2069,-2.07313
74277726599,-3.09974,-1.1908,-1.97943
74277747630,3.06019,-1.16103,-1.88004
74277772215,2.93131,-1.10551,-1.77983
74277786573,2.81752,-1.03896,-1.70846
74277807667,2.74195,-0.974764,-1.65085
74277824083,2.69869,-0.908268,-1.62207
74277846565,2.69,-0.853082,-1.60936
74277867676,2.69705,-0.824097,-1.58583
74277884087,2.72002,-0.809161,-1.59114
74277913330,2.73877,-0.824055,-1.60251
74277927715,2.76695,-0.856032,-1.6151
74277944067,2.80016,-0.898592,-1.62741
74277966551,2.84036,-0.949288,-1.65009
74277987633,2.88553,-1.01538,-1.68668
74278005554,2.94484,-1.09236,-1.74168
74278026608,3.03196,-1.17788,-1.8302
74278047693,-3.1097,-1.26797,-1.98004
74278072880,-2.84112,-1.3518,-2.25926
74278086573,-2.31245,-1.40464,-2.79572
74278107643,-1.63235,-1.38843,2.80492
74278124121,-1.20437,-1.31243,2.37146
74278146577,-0.996175,-1.2111,2.1569
74278167653,-0.874719,-1.10465,2.04145
74278192224,-0.792809,-1.00295,1.97811
74278213327,-0.73155,-0.901734,1.94311
74278227678,-0.696707,-0.818156,1.9274
74278244073,-0.683703,-0.770294,1.92108
74278266574,-0.706294,-0.773921,1.92357
74278287687,-0.743662,-0.814152,1.93738
74278304062,-0.769844,-0.874203,1.95415
74278333347,-0.829039,-0.903335,1.96452
74278349086,-0.818505,-0.95739,1.98681
74278372282,-0.818616,-1.03621,2.02432
74278400821,-0.874193,-1.09824,2.09769
74278409092,-0.936007,-1.14834,2.18203
74278432221,-0.990702,-1.18376,2.25688
74278453339,-1.06039,-1.22294,2.33386
74278469114,-1.13965,-1.25065,2.40868
74278492299,-1.22375,-1.26842,2.48241
74278513308,-1.30897,-1.28102,2.56012
74278528284,-1.37986,-1.2899,2.62669
74278542710,-1.43682,-1.29475,2.67823
74278565845,-1.48991,-1.2967,2.72199
74278588337,-1.53634,-1.2954,2.75643
74278603324,-1.57358,-1.29565,2.78282
74278625848,-1.60483,-1.2975,2.8069
74278648318,-1.63824,-1.30094,2.83573
74278663310,-1.67802,-1.30258,2.87013
74278685834,-1.72622,-1.30374,2.91266
74278708341,-1.78301,-1.30541,2.9648
74278723311,-1.84898,-1.30704,3.02877
74278745859,-1.92666,-1.31113,3.10484
74278768306,-2.02081,-1.3148,-3.0876
74278783303,-2.13194,-1.31707,-2.98176
74278814000,-2.25137,-1.31413,-2.86708
74278828287,-2.37519,-1.30748,-2.74563
74278842670,-2.50537,-1.29648,-2.61411
74278865894,-2.64498,-1.28124,-2.47058
74278888416,-2.78174,-1.26127,-2.32856
74278903324,-2.90634,-1.2376,-2.19808
74278925840,-3.0187,-1.20864,-2.0804
74278948421,-3.12963,-1.17282,-1.97305
74278963378,3.04064,-1.13003,-1.87397
74278985932,2.92707,-1.06917,-1.78674
74279008312,2.84489,-1.00846,-1.73175
74279023426,2.75529,-0.943591,-1.6654
74279045831,2.74009,-0.87906,-1.63123
74279068387,2.75312,-0.83152,-1.6031
74279083379,2.78482,-0.80276,-1.59315
74279105856,2.82023,-0.807643,-1.59023
74279128353,2.84192,-0.829797,-1.58112
74279143321,2.85571,-0.867349,-1.57491
74279165919,2.86353,-0.91507,-1.56985
74279188441,2.87362,-0.975307,-1.5733
74279203448,2.89422,-1.04704,-1.58789
74279234093,2.92788,-1.12876,-1.6194
74279248857,2.99144,-1.2183,-1.68579
74279263350,3.11425,-1.31201,-1.81566
74279294008,-2.87473,-1.40042,-2.12025
74279308459,-2.15248,-1.44957,-2.85579
74279322725,-1.36933,-1.40408,2.63284
74279345881,-1.04387,-1.30666,2.29918
74279368326,-0.902871,-1.1979,2.16233
74279382745,-0.819311,-1.09074,2.09316
74279405808,-0.758517,-0.983703,2.04907
74279428347,-0.728421,-0.887134,2.02542
74279442665,-0.719262,-0.81873,2.015
74279465842,-0.735768,-0.803721,2.016
74279488311,-0.806499,-0.827496,2.03812
74279502763,-0.829521,-0.886943,2.06812
74279525906,-0.861289,-0.924863,2.10715
74279548367,-0.83169,-0.971398,2.12406
74279562763,-0.814535,-1.03843,2.15892
74279585201,-0.845828,-1.10278,2.22173
74279608452,-0.911966,-1.1594,2.30822
74279622760,-0.98727,-1.1967,2.39714
74279645334,-1.07455,-1.2284,2.47928
74279667788,-1.14885,-1.25716,2.54701
74279682701,-1.2422,-1.27914,2.63489
74279705146,-1.33421,-1.29486,2.72746
74279727646,-1.41348,-1.30521,2.81314
74279742674,-1.48871,-1.31409,2.8942
74279765229,-1.56235,-1.31888,2.96576
74279787821,-1.62781,-1.32285,3.02639
74279810938,-1.6822,-1.32563,3.07648
74279825227,-1.73464,-1.32947,3.12587
74279847712,-1.79189,-1.33174,-3.10706
74279862789,-1.8535,-1.33145,-3.05435
74279885253,-1.92416,-1.3299,-2.99175
74279907794,-1.99935,-1.32586,-2.91946
74279925651,-2.07917,-1.32026,-2.83726
74279945212,-2.18271,-1.31709,-2.72887
74279967645,-2.30009,-1.31396,-2.61211
74279982618,-2.4188,-1.30738,-2.49908
74280005270,-2.53617,-1.29681,-2.38684
74280027678,-2.65261,-1.28172,-2.27291
74280044178,-2.77298,-1.25989,-2.15558
74280065250,-2.88615,-1.23332,-2.04131
74280089238,-2.99129,-1.20341,-1.93174
74280102742,-3.08893,-1.17069,-1.83393
74280125210,3.09272,-1.13772,-1.74012
74280147719,2.97635,-1.08394,-1.64952
74280162739,2.87592,-1.0209,-1.58619
74280185276,2.80218,-0.954113,-1.53308
74280207659,2.76636,-0.892314,-1.50272
74280222809,2.75475,-0.841625,-1.48649
74280245258,2.75257,-0.817705,-1.46917
74280267759,2.76769,-0.805336,-1.47801
74280282768,2.78685,-0.821154,-1.49176
74280305198,2.80826,-0.854467,-1.50916
74280327799,2.83855,-0.901999,-1.5307
74280342756,2.8747,-0.957493,-1.55433
74280365257,2.92174,-1.02614,-1.59296
74280387754,2.98183,-1.1075,-1.65087
74280402767,3.07085,-1.19652,-1.74013
74280425276,-3.05428,-1.28952,-1.90189
74280447791,-2.72943,-1.3747,-2.23387
74280462754,-2.07264,-1.41577,-2.89819
74280485306,-1.38969,-1.37122,2.6952
74280508381,-1.06083,-1.27243,2.35501
74280524140,-0.916939,-1.15915,2.20352
74280545278,-0.838593,-1.04739,2.12573
74280568404,-0.775485,-0.939305,2.07934
74280584189,-0.737989,-0.847894,2.05761
74280605234,-0.723481,-0.794347,2.05105
74280628412,-0.749987,-0.796626,2.05562
74280644226,-0.793508,-0.839015,2.07451
74280665261,-0.809005,-0.900156,2.09613
74280689857,-0.873468,-0.929197,2.11482
74280704168,-0.83121,-0.987593,2.12505
74280725291,-0.813761,-1.06877,2.16064
74280748409,-0.8504,-1.13544,2.22836
74280764200,-0.914908,-1.19481,2.31739
74280785298,-0.98745,-1.23874,2.41106
74280808437,-1.08467,-1.27097,2.50452
74280824195,-1.20125,-1.29949,2.61199
74280845367,-1.32167,-1.32271,2.728
74280868391,-1.44241,-1.3398,2.85097
74280884223,-1.5469,-1.34937,2.96221
74280905235,-1.64371,-1.35611,3.06572
74280928405,-1.7341,-1.35803,-3.12712
74280944196,-1.8192,-1.35892,-3.04642
74280965239,-1.90039,-1.35907,-2.96917
74280989856,-1.97366,-1.35766,-2.89789
74281004260,-2.05154,-1.35578,-2.82214
74281025323,-2.13213,-1.35268,-2.7451
74281048403,-2.21517,-1.348,-2.66688
74281064168,-2.30301,-1.34228,-2.58214
74281085268,-2.39834,-1.33424,-2.48986
74281108396,-2.49147,-1.32514,-2.3997
74281124178,-2.5818,-1.31388,-2.31476
74281145316,-2.6609,-1.30077,-2.24281
74281175860,-2.73689,-1.28652,-2.17758
74281184198,-2.8174,-1.27227,-2.1115
74281205296,-2.90969,-1.25565,-2.0322
74281227819,-3.01252,-1.23349,-1.93598
74281244205,-3.11276,-1.19934,-1.83787
74281265248,3.0784,-1.16082,-1.75192
74281287760,2.98679,-1.11825,-1.678
74281304227,2.86752,-1.06168,-1.60446
74281325232,2.74764,-1.00489,-1.54398
74281347798,2.68562,-0.931692,-1.50372
74281364270,2.6508,-0.86004,-1.48623
74281385193,2.66841,-0.804947,-1.46226
74281407786,2.67733,-0.775679,-1.44959
74281424191,2.68862,-0.779876,-1.45645
74281453407,2.72837,-0.800364,-1.47417
74281475976,2.77349,-0.828839,-1.48334
74281484184,2.8131,-0.875429,-1.49321
74281506709,2.84913,-0.939995,-1.51473
74281537035,2.89683,-1.01956,-1.55404
74281545671,2.96182,-1.10996,-1.61641
74281568230,3.04927,-1.207,-1.71527
74281590655,-3.08599,-1.30252,-1.88115
74281605697,-2.77002,-1.38935,-2.21604
74281626704,-2.09334,-1.43126,-2.91644
74281647819,-1.41538,-1.38894,2.67029
74281664201,-1.09893,-1.29686,2.34288
74281686682,-0.958799,-1.18919,2.19994
74281707794,-0.880575,-1.08116,2.12798
74281724225,-0.827076,-0.970385,2.08192
74281746765,-0.810487,-0.871231,2.06037
74281767783,-0.80891,-0.796006,2.0482
74281784213,-0.82986,-0.77486,2.048
74281806708,-0.880793,-0.795826,2.06929
74281827693,-0.919999,-0.846154,2.10045
74281844250,-0.938548,-0.892376,2.13841
74281868187,-0.967577,-0.919277,2.1644
74281887753,-0.912279,-0.98376,2.17702
74281904193,-0.913357,-1.06432,2.22932
74281926689,-0.95295,-1.12448,2.31093
74281947782,-1.02471,-1.17398,2.40768
74281964202,-1.08846,-1.21144,2.48784
74281986702,-1.17992,-1.23776,2.57104
74282007819,-1.29051,-1.26033,2.66914
74282024226,-1.39579,-1.27653,2.7703
74282046740,-1.48991,-1.29065,2.87056
74282067781,-1.56614,-1.30066,2.95498
74282084228,-1.63664,-1.30765,3.02985
74282105935,-1.7059,-1.30919,3.09553
74282128431,-1.77104,-1.3115,-3.12713
74282143418,-1.82971,-1.31514,-3.06903
74282165881,-1.89335,-1.31825,-3.00277
74282188239,-1.96066,-1.32034,-2.93409
74282206341,-2.03123,-1.31983,-2.86482
74282227338,-2.10929,-1.31955,-2.78754
74282248494,-2.1965,-1.31777,-2.69901
74282263434,-2.28724,-1.31375,-2.60766
74282285920,-2.37654,-1.306,-2.51878
74282308477,-2.46548,-1.2966,-2.43387
74282323399,-2.55055,-1.28755,-2.35624
74282354077,-2.62943,-1.27896,-2.28808
74282368523,-2.70777,-1.26889,-2.22165
74282383463,-2.78951,-1.25572,-2.15043
74282405960,-2.88346,-1.23871,-2.06293
74282428439,-2.98255,-1.21773,-1.96631
74282443439,-3.08772,-1.18583,-1.86713
74282465946,3.09665,-1.14814,-1.78408
74282488235,2.99293,-1.10705,-1.70618
74282519123,2.87354,-1.04839,-1.63636
74282525899,2.76928,-0.984231,-1.58502
74282548415,2.70277,-0.91643,-1.54193
74282563421,2.66545,-0.862597,-1.52187
74282585880,2.6537,-0.819221,-1.50189
74282608489,2.68019,-0.791363,-1.49641
74282623845,2.70409,-0.797043,-1.49897
74282646040,2.74068,-0.822843,-1.5086
74282668520,2.78473,-0.865176,-1.52298
74282683517,2.83091,-0.914034,-1.53467
74282705953,2.88567,-0.975593,-1.55411
74282728505,2.94975,-1.05099,-1.59266
74282750991,3.02814,-1.1362,-1.65707
74282765941,-3.14109,-1.22679,-1.76377
74282788912,-2.94304,-1.31697,-1.9576
74282803505,-2.54791,-1.39079,-2.34939
74282834616,-1.85234,-1.41232,-3.04389
74282848390,-1.26818,-1.35554,2.65318
74282863369,-0.995222,-1.2574,2.37345
74282885851,-0.867861,-1.14747,2.24206
74282908426,-0.792028,-1.03223,2.172
74282923355,-0.752708,-0.927092,2.14057
74282945729,-0.734948,-0.838799,2.12625
74282968519,-0.736188,-0.789256,2.12008
74282983409,-0.77377,-0.789132,2.12422
74283006038,-0.815821,-0.824221,2.14361
74283028519,-0.833234,-0.890099,2.16551
74283043249,-0.857524,-0.931229,2.18422
74283065927,-0.874596,-1.00387,2.21391
74283088482,-0.864693,-1.0728,2.25202
74283104855,-0.920586,-1.13938,2.33627
74283125999,-0.996957,-1.19691,2.43911
74283148456,-1.07162,-1.23354,2.53285
74283165985,-1.16689,-1.26792,2.62427
74283187797,-1.27789,-1.29508,2.73112
74283208421,-1.39657,-1.31544,2.84875
74283224827,-1.50769,-1.33264,2.96561
74283245880,-1.6076,-1.34042,3.07311
74283269838,-1.69481,-1.3449,-3.11779
74283284855,-1.77395,-1.34241,-3.04247
74283305927,-1.83994,-1.33981,-2.98066
74283328417,-1.88975,-1.33955,-2.93518
74283343433,-1.93842,-1.33989,-2.88888
74283365955,-1.98746,-1.33907,-2.84038
74283388428,-2.03418,-1.33673,-2.79666
74283410998,-2.08606,-1.33435,-2.74674
74283426012,-2.14435,-1.33322,-2.69038
74283448490,-2.20877,-1.33134,-2.63247
74283462838,-2.27738,-1.32532,-2.57314
74283485978,-2.3526,-1.31674,-2.50678
74283508423,-2.44856,-1.30645,-2.41773
74283522868,-2.55708,-1.29359,-2.31702
74283546041,-2.67022,-1.27917,-2.21321
74283569910,-2.79384,-1.26204,-2.09628
74283582806,-2.90837,-1.23555,-1.98083
74283605991,-3.01356,-1.20522,-1.87393
74283628554,-3.11143,-1.17113,-1.78159
74283642790,3.07299,-1.13594,-1.69896
74283673544,2.96115,-1.08142,-1.61622
74283688472,2.84337,-1.01884,-1.55681
74283702785,2.75527,-0.951109,-1.51511
74283725915,2.7024,-0.887797,-1.48496
74283748450,2.67538,-0.841632,-1.4704
74283762825,2.66973,-0.82614,-1.46724
74283786019,2.70431,-0.800872,-1.48355
74283808448,2.74194,-0.813049,-1.50089
74283822866,2.77161,-0.850134,-1.51771
74283845983,2.80451,-0.899611,-1.54808
74283868524,2.8462,-0.957534,-1.5817
74283882860,2.91439,-1.02597,-1.63143
74283913468,3.00274,-1.10558,-1.70175
74283928435,3.1225,-1.19195,-1.80711
74283942713,-2.97395,-1.28017,-1.98769
74283973442,-2.63909,-1.35788,-2.32574
74283988173,-2.04513,-1.39012,-2.92632
74284002713,-1.4473,-1.34709,2.75715
74284025868,-1.10373,-1.25432,2.41024
74284048380,-0.932043,-1.14242,2.23192
74284064168,-0.830338,-1.0205,2.13351
74284086691,-0.763025,-0.91023,2.08865
74284108460,-0.719743,-0.821875,2.07513
74284124698,-0.706225,-0.789205,2.07646
74284145899,-0.751349,-0.812087,2.08762
74284168430,-0.782248,-0.880138,2.11663
74284184317,-0.810914,-0.929561,2.14245
74284205988,-0.805197,-0.984526,2.14409
74284228475,-0.791148,-1.05706,2.17999
74284251075,-0.813008,-1.13082,2.2365
74284265980,-0.891962,-1.19375,2.33156
74284288297,-0.97898,-1.23866,2.43904
74284304258,-1.05705,-1.27556,2.53496
74284326749,-1.16003,-1.30106,2.63662
74284348461,-1.29021,-1.32649,2.7611
74284364341,-1.43566,-1.33881,2.90184
74284386769,-1.57055,-1.34176,3.03593
74284409982,-1.68135,-1.34437,-3.12845
74284424315,-1.78587,-1.34601,-3.01645
74284446782,-1.88047,-1.34379,-2.92068
74284469941,-1.96738,-1.34157,-2.83474
74284484205,-2.05299,-1.34033,-2.75281
74284506733,-2.13321,-1.33702,-2.67554
74284529962,-2.21241,-1.33222,-2.6006
74284544298,-2.29152,-1.32664,-2.52549
74284566796,-2.35971,-1.31958,-2.45971
74284589882,-2.41973,-1.31104,-2.40306
74284604284,-2.47973,-1.30213,-2.34937
74284625363,-2.53913,-1.29247,-2.29846
74284648503,-2.59693,-1.28197,-2.24836
74284664241,-2.6543,-1.27091,-2.1995
74284685350,-2.71803,-1.25849,-2.14666
74284708516,-2.78522,-1.24417,-2.09069
74284724299,-2.86772,-1.22621,-2.01447
74284745363,-2.95287,-1.19834,-1.92787
74284768544,-3.03411,-1.16548,-1.84408
74284784308,-3.11688,-1.1287,-1.76838
74284805425,3.06837,-1.09214,-1.6937
74284828497,2.94789,-1.04109,-1.62198
74284844258,2.84499,-0.980501,-1.56384
74284865344,2.77713,-0.915122,-1.50953
74284888516,2.73413,-0.865062,-1.48718
74284904235,2.72375,-0.820919,-1.46757
74284925307,2.72836,-0.804912,-1.46154
74284948493,2.74147,-0.814635,-1.48082
74284964323,2.76687,-0.849502,-1.50047
74284986780,2.80234,-0.890143,-1.51989
74285008479,2.84476,-0.938309,-1.54132
74285030987,2.89293,-1.00213,-1.5747
74285046747,2.94791,-1.07886,-1.626
74285068482,3.02146,-1.1637,-1.70592
74285084338,-3.1405,-1.25466,-1.84078
74285106810,-2.90466,-1.3428,-2.09688
74285128543,-2.40298,-1.40322,-2.61816
74285144334,-1.69851,-1.39221,2.94795
74285166834,-1.25967,-1.31664,2.49787
74285188565,-1.05706,-1.21337,2.28531
74285204947,-0.944064,-1.10655,2.1769
74285226828,-0.86015,-0.998422,2.11043
74285248536,-0.806912,-0.902458,2.07682
74285264340,-0.774348,-0.828075,2.06302
74285286744,-0.760078,-0.79577,2.06153
74285307793,-0.777773,-0.811096,2.0764
74285324244,-0.793028,-0.85614,2.10397
74285353551,-0.837531,-0.908657,2.14638
74285367883,-0.875138,-0.948984,2.18013
74285384262,-0.856974,-1.01515,2.17729
74285406837,-0.861131,-1.09028,2.22208
74285427835,-0.919921,-1.16314,2.30848
74285444302,-1.03073,-1.2164,2.4309
74285466758,-1.14483,-1.25389,2.55429
74285487838,-1.264,-1.28032,2.66879
74285504335,-1.38527,-1.30127,2.78706
74285527405,-1.50375,-1.31991,2.90619
74285547814,-1.61724,-1.33194,3.02029
74285564248,-1.71214,-1.33701,3.11626
74285586753,-1.79013,-1.33837,-3.08689
74285609222,-1.8499,-1.33549,-3.02543
74285638544,-1.90398,-1.33192,-2.97104
74285653553,-1.9582,-1.3288,-2.9184
74285692865,-2.01215,-1.32684,-2.86612
74285708789,-2.0673,-1.32338,-2.81255
74285714861,-2.12532,-1.31897,-2.75616
74285728518,-2.18582,-1.3156,-2.70481
74285744255,-2.24151,-1.30965,-2.64686
74285765332,-2.31286,-1.30538,-2.57869
74285788505,-2.38138,-1.29835,-2.51498
74285802882,-2.44561,-1.28974,-2.45362
74285825391,-2.50747,-1.28154,-2.39588
74285848485,-2.57455,-1.2714,-2.33338
74285862936,-2.65181,-1.25912,-2.26144
74285885351,-2.7368,-1.24261,-2.18054
74285908521,-2.82999,-1.22228,-2.08798
74285933101,-2.93074,-1.19181,-1.98872
74285945389,-3.02814,-1.15636,-1.89608
74285968573,-3.12639,-1.11793,-1.80988
74285982880,3.04937,-1.06993,-1.72754
74286005360,2.93032,-1.00638,-1.65339
74286028591,2.82316,-0.934533,-1.58774
74286042893,2.74009,-0.864434,-1.53244
74286066033,2.73025,-0.811724,-1.51299
74286088601,2.75044,-0.766932,-1.48657
74286103569,2.7674,-0.754387,-1.47252
74286126027,2.78056,-0.759824,-1.47639
74286148510,2.79102,-0.791841,-1.48069
74286164210,2.80214,-0.831287,-1.48101
74286186048,2.822,-0.884472,-1.48012
74286216705,2.84676,-0.953688,-1.49048
74286223519,2.87798,-1.03762,-1.51519
74286246150,2.92365,-1.12944,-1.56118
74286268555,3.00363,-1.23134,-1.64973
74286283452,-3.12875,-1.33477,-1.81739
74286306032,-2.74227,-1.42447,-2.21863
74286343982,-1.86442,-1.45109,-3.11249
74286352481,-1.24069,-1.38086,2.52225
74286396454,-1.01602,-1.281,2.28031
74286407120,-0.91925,-1.17873,2.17315
74286420634,-0.874453,-1.0815,2.12103
74286443031,-0.856166,-0.994567,2.09452
74286448507,-0.847739,-0.912065,2.07844
74286471110,-0.844271,-0.85519,2.07047
74286495627,-0.855396,-0.840605,2.07532
74286508288,-0.881296,-0.860308,2.09685
74286561451,-0.927758,-0.896789,2.13963
74286571127,-0.95993,-0.939004,2.18508
74286576719,-0.922758,-0.979937,2.20462
74286583587,-0.885359,-1.05558,2.22621
74286606029,-0.951248,-1.11772,2.31549
74286628232,-1.03044,-1.1704,2.42013
74286643555,-1.1016,-1.21115,2.51991
74286665814,-1.19102,-1.24339,2.61193
74286688331,-1.29335,-1.2675,2.71186
74286703572,-1.40863,-1.28852,2.82477
74286727936,-1.50525,-1.30766,2.92552
74286750014,-1.5948,-1.32056,3.01991
74286763935,-1.68048,-1.32905,3.10682
74286785898,-1.75761,-1.33093,-3.1009
74286808447,-1.8188,-1.33216,-3.04068
74286823556,-1.87212,-1.33385,-2.98496
74286846079,-1.92799,-1.33675,-2.92372
74286898804,-1.97852,-1.33529,-2.86786
74286909380,-2.03645,-1.33349,-2.80575
74286921670,-2.12014,-1.33389,-2.71749
74286936753,-2.20943,-1.33029,-2.62468
74286967149,-2.29436,-1.32567,-2.53621
74286974462,-2.37801,-1.32089,-2.4509
74286988303,-2.4647,-1.31338,-2.36436
74287004278,-2.55491,-1.30229,-2.27646
74287026083,-2.64767,-1.28895,-2.18616
74287048478,-2.74202,-1.27336,-2.09672
74287062921,-2.83913,-1.25435,-2.00662
74287086775,-2.94142,-1.22723,-1.91184
74287116520,-3.03938,-1.19186,-1.81745
74287124286,-3.12848,-1.15027,-1.72793
74287145464,3.07357,-1.10664,-1.65026
74287167936,2.99398,-1.06606,-1.58325
74287182854,2.90892,-1.02727,-1.52464
74287205459,2.81661,-0.970204,-1.46895
74287236705,2.73038,-0.909538,-1.42113
74287242965,2.67055,-0.85308,-1.38208
74287265410,2.63915,-0.81021,-1.35493
74287304942,2.64285,-0.781937,-1.33803
74287307298,2.66026,-0.770101,-1.33338
74287325454,2.68786,-0.78488,-1.35189
74287341807,2.72142,-0.825596,-1.36547
74287362902,2.76521,-0.873141,-1.38392
74287403774,2.81646,-0.924522,-1.40679
74287425562,2.86696,-0.989965,-1.44296
74287427959,2.92068,-1.06772,-1.49984
74287453354,2.98568,-1.15395,-1.58161
74287524658,3.09237,-1.24595,-1.71081
74287529987,-2.99608,-1.33588,-1.93658
74287542858,-1.3632,-1.36352,2.67445
74287566034,-1.10087,-1.27641,2.41239
74287581830,-0.961093,-1.18049,2.28809
74287602921,-0.875975,-1.08567,2.22733
74287626132,-0.819928,-0.99956,2.1971
74287641859,-0.783259,-0.919334,2.18091
74287662987,-0.762687,-0.867172,2.17615
74287693560,-0.769706,-0.861406,2.18315
74287701817,-0.796257,-0.889719,2.20493
74287722934,-0.83253,-0.944582,2.2436
74287746038,-0.855933,-0.991457,2.26919
74287768586,-0.903861,-1.01806,2.28946
74287782862,-0.896873,-1.09679,2.33251
74287805367,-0.951817,-1.1753,2.41519
74287828611,-1.07159,-1.23011,2.55332
74287842883,-1.20461,-1.27367,2.70095
74287865381,-1.34071,-1.304,2.83918
74287881878,-1.48236,-1.3221,2.97279
74287902928,-1.62232,-1.33794,3.11014
74287925411,-1.75765,-1.34841,-3.03912
74287948536,-1.87058,-1.35068,-2.92625
74287962888,-1.96254,-1.34923,-2.8326
74287985437,-2.03249,-1.34353,-2.76085
74288001852,-2.09289,-1.3342,-2.70432
74288022910,-2.15737,-1.32825,-2.64485
74288045311,-2.22018,-1.32194,-2.58266
74288061797,-2.28613,-1.31498,-2.51537
74288084294,-2.35727,-1.30674,-2.43937
74288115038,-2.42559,-1.29795,-2.36842
74288129932,-2.48992,-1.28821,-2.30334
74288144373,-2.55907,-1.27732,-2.23283
74288165385,-2.63411,-1.26501,-2.15623
74288181860,-2.70406,-1.24922,-2.08604
74288204398,-2.76344,-1.22825,-2.03056
74288225404,-2.81913,-1.20519,-1.97969
74288241897,-2.88237,-1.18189,-1.92085
74288264378,-2.95706,-1.15377,-1.85339
74288293568,-3.03724,-1.121,-1.78444
74288301880,-3.11866,-1.08283,-1.71854
74288347338,3.08034,-1.04418,-1.6599
74288349788,2.98028,-1.00973,-1.60417
74288393619,2.86226,-0.954737,-1.55902
74288399229,2.71742,-0.891876,-1.51335
74288405456,2.64818,-0.822203,-1.47665
74288421765,2.62489,-0.753607,-1.44517
74288444447,2.66427,-0.70482,-1.40627
74288465379,2.70603,-0.683259,-1.36644
74288495823,2.72063,-0.683462,-1.34619
74288512951,2.70346,-0.717103,-1.33455
74288525469,2.693,-0.757454,-1.33489
74288549401,2.71095,-0.812309,-1.34512
74288579259,2.72377,-0.883409,-1.36186
74288585437,2.73011,-0.969271,-1.39066
74288609311,2.75009,-1.06183,-1.43012
74288646502,2.80205,-1.15325,-1.47878
74288705756,2.88258,-1.24659,-1.55919
74288717111,3.03227,-1.33676,-1.71094
74288738181,-2.93387,-1.41505,-2.02394
74288740479,-1.52694,-1.42372,2.86997
74288760786,-1.16741,-1.34985,2.52651
74288765443,-0.993939,-1.26298,2.36814
74288781908,-0.903755,-1.1723,2.29142
74288812225,-0.850699,-1.08344,2.25027
74288836465,-0.822283,-1.00436,2.22933
74288841892,-0.803647,-0.935677,2.21802
74288864341,-0.804852,-0.896283,2.21915
74288885412,-0.838879,-0.8989,2.23755
74288910761,-0.881248,-0.937261,2.27666
74288947500,-0.922714,-0.992132,2.33523
74288949823,-1.00345,-1.01839,2.38397
74288967920,-0.907495,-1.0763,2.40735
74288991070,-0.967097,-1.14327,2.51289
74289005331,-1.0721,-1.20806,2.65395
74289023300,-1.28416,-1.25298,2.85764
74289051108,-1.40618,-1.28996,3.00976
74289066822,-1.53467,-1.30893,3.14101
74289081906,-1.6547,-1.32831,-3.00857
74289112500,-1.79131,-1.34571,-2.85752
74289126879,-1.89943,-1.34952,-2.73409
74289141902,-1.97495,-1.34805,-2.65058
74289164388,-2.04254,-1.34134,-2.58465
74289186806,-2.09635,-1.33409,-2.53508
74289210860,-2.15346,-1.32753,-2.48139
74289234609,-2.21946,-1.32256,-2.41775
74289255094,-2.29081,-1.31516,-2.34705
74289268953,-2.36564,-1.30547,-2.2735
74289291793,-2.44136,-1.29426,-2.19751
74289314313,-2.51576,-1.28236,-2.12023
74289328236,-2.5874,-1.26774,-2.04484
74289345086,-2.66097,-1.25242,-1.97167
74289366125,-2.73053,-1.23486,-1.90553
74289388598,-2.79358,-1.21601,-1.84777
74289404826,-2.85149,-1.19578,-1.79604
74289426062,-2.90278,-1.17312,-1.75034
74289448837,-2.9586,-1.14897,-1.70043
74289466505,-3.02099,-1.12429,-1.64668
74289486168,-3.09081,-1.09273,-1.59007
74289516468,3.11905,-1.05615,-1.53564
74289526536,3.0423,-1.01626,-1.48565
74289546096,2.95214,-0.965317,-1.43748
74289568617,2.84149,-0.897728,-1.39306
74289583549,2.75122,-0.82166,-1.3446
74289606093,2.70931,-0.760619,-1.31215
74289628535,2.68059,-0.707286,-1.2891
74289643535,2.71194,-0.673493,-1.27227
74289674263,2.76128,-0.662823,-1.26943
74289688636,2.80626,-0.686713,-1.28438
74289710986,2.84618,-0.736635,-1.2976
74289726106,2.87666,-0.794249,-1.31476
74289748544,2.90746,-0.861861,-1.33578
74289763554,2.94686,-0.944237,-1.37128
74289786139,2.9912,-1.03803,-1.42927
74289816768,3.0572,-1.14017,-1.51811
74289823652,-3.10406,-1.24512,-1.66544
74289847477,-2.85441,-1.34046,-1.93932
74289868578,-2.32933,-1.40178,-2.48084
74289883549,-1.6447,-1.38612,3.10135
74289906522,-1.23602,-1.30914,2.68066
74289928350,-1.03566,-1.21035,2.4788
74289943606,-0.926798,-1.11022,2.3791
74289966108,-0.857168,-1.0096,2.32057
74289988585,-0.819576,-0.922983,2.29047
74290003584,-0.805547,-0.862077,2.27849
74290026116,-0.811827,-0.841503,2.28007
74290048569,-0.839587,-0.85977,2.29978
74290063580,-0.871289,-0.904103,2.33326
74290086131,-0.912862,-0.960633,2.38053
74290102294,-0.997905,-0.982614,2.42082
74290125501,-0.935226,-1.032,2.43707
74290146113,-0.950799,-1.1072,2.50127
74290161901,-1.02325,-1.15962,2.60513
74290191816,-1.13114,-1.20367,2.72647
74290206104,-1.20667,-1.23666,2.8287
74290220474,-1.2934,-1.26208,2.91858
74290243631,-1.38926,-1.28186,3.01367
74290266815,-1.4959,-1.29436,3.11854
74290280453,-1.59109,-1.30152,-3.06698
74290303664,-1.66931,-1.3044,-2.98802
74290326511,-1.74296,-1.30498,-2.92012
74290340462,-1.80976,-1.30118,-2.86319
74290363643,-1.86742,-1.29851,-2.81745
74290387995,-1.9194,-1.29786,-2.77431
74290400488,-1.96891,-1.29646,-2.73028
74290423636,-2.02354,-1.29397,-2.68218
74290445896,-2.08377,-1.29038,-2.62762
74290468440,-2.1461,-1.28511,-2.56899
74290485108,-2.21384,-1.27915,-2.50303
74290514143,-2.28994,-1.27185,-2.42696
74290569651,-2.36995,-1.26238,-2.34465
74290575682,-2.44875,-1.25169,-2.26056
74290580498,-2.60394,-1.22754,-2.10314
74290603617,-2.67551,-1.21274,-2.03625
74290634319,-2.74957,-1.19603,-1.96577
74290640479,-2.82568,-1.17795,-1.8903
74290663643,-2.9019,-1.15916,-1.8155
74290703882,-2.98342,-1.13016,-1.7417
74290708635,-3.06467,-1.09782,-1.67357
74290731131,3.13098,-1.06178,-1.60879
74290746121,3.02816,-1.01492,-1.54318
74290768656,2.91548,-0.963764,-1.48227
74290783608,2.81923,-0.900589,-1.42305
74290806164,2.76689,-0.84306,-1.38483
74290821890,2.74862,-0.794916,-1.36187
74290846507,2.76287,-0.783688,-1.34786
74290884377,2.78361,-0.78469,-1.3555
74290888630,2.8076,-0.808761,-1.36724
74290903642,2.83487,-0.851173,-1.3809
74290926165,2.86393,-0.899808,-1.39673
74290941918,2.90278,-0.961982,-1.41995
74290962951,2.95434,-1.03536,-1.45868
74291002419,3.01953,-1.11718,-1.51923
74291004874,3.11756,-1.20327,-1.61585
74291022932,-3.00657,-1.29165,-1.78147
74291063940,-2.6915,-1.36875,-2.10348
74291068627,-2.10535,-1.40673,-2.68555
74291082995,-1.48115,-1.37666,2.97413
74291106181,-1.12908,-1.29651,2.61472
74291121942,-0.963656,-1.1954,2.43479
74291144396,-0.873862,-1.08794,2.3336
74291167568,-0.832296,-0.983983,2.2742
74291181854,-0.812329,-0.881925,2.23572
74291218630,-0.803306,-0.80593,2.21644
74291233594,-0.795531,-0.787295,2.21162
74291241869,-0.803852,-0.813733,2.22559
74291264409,-0.824189,-0.859669,2.25645
74291287564,-0.846184,-0.916375,2.29218
74291308607,-0.903246,-0.944931,2.31909
74291324449,-0.882512,-0.993255,2.33437
74291347606,-0.902485,-1.06425,2.37926
74291393083,-0.968101,-1.11971,2.45692
74291423930,-1.03386,-1.16549,2.54427
74291430629,-1.10161,-1.20143,2.63588
74291433084,-1.16296,-1.23067,2.71757
74291444474,-1.23534,-1.26129,2.79864
74291467584,-1.34356,-1.2813,2.90097
74291488663,-1.44365,-1.29398,2.99962
74291512566,-1.53164,-1.30258,3.09153
74291527565,-1.60462,-1.30821,-3.11184
74291556120,-1.67865,-1.3124,-3.03302
74291564426,-1.73959,-1.30991,-2.97314
74291595708,-1.78868,-1.30636,-2.92744
74291608681,-1.8251,-1.30414,-2.89135
74291624503,-1.861,-1.30319,-2.85587
74291647531,-1.90468,-1.30116,-2.81371
74291668605,-1.95915,-1.29898,-2.76046
74291693234,-2.0217,-1.29714,-2.69835
74291707640,-2.09394,-1.29512,-2.62692
74291736106,-2.17415,-1.28984,-2.54917
74291744444,-2.26449,-1.28338,-2.46086
74291767579,-2.36574,-1.27793,-2.3616
74291788613,-2.46343,-1.27001,-2.27125
74291804411,-2.55151,-1.26036,-2.19359
74291827628,-2.64155,-1.24896,-2.11242
74291848601,-2.73598,-1.23554,-2.02241
74291872565,-2.82974,-1.21968,-1.93026
74291904133,-2.91631,-1.20252,-1.84655
74291917566,-3.00049,-1.18606,-1.77072
74291924424,-3.08693,-1.17264,-1.69962
74291946890,3.08194,-1.14213,-1.61005
74291968609,2.93795,-1.09338,-1.52957
74291984381,2.81106,-1.05134,-1.47288
74292006919,2.72498,-0.9797,-1.39927
74292030079,2.71822,-0.913271,-1.37266
74292044395,2.72021,-0.857176,-1.3494
74292067560,2.75675,-0.827677,-1.35323
74292090073,2.7986,-0.828359,-1.36377
74292104378,2.84114,-0.845556,-1.37655
74292126902,2.873,-0.880075,-1.38872
74292150066,2.89936,-0.924051,-1.40779
74292164450,2.93953,-0.981458,-1.44168
74292186958,2.99043,-1.05112,-1.48767
74292233921,3.0542,-1.12971,-1.55358
74292238404,-3.12464,-1.21421,-1.66439
74292270652,-2.94112,-1.29793,-1.85333
74292273085,-2.60041,-1.36792,-2.2015
74292284447,-2.0261,-1.39666,-2.78575
74292305437,-1.46603,-1.36131,2.92111
74292321911,-1.15231,-1.27996,2.58743
74292344406,-0.988354,-1.18265,2.41343
74292366915,-0.892152,-1.08344,2.31571
74292381923,-0.837185,-0.987049,2.26216
74292410901,-0.799968,-0.891608,2.22946
74292428380,-0.783538,-0.810618,2.21249
74292450102,-0.775046,-0.761049,2.20573
74292464423,-0.779058,-0.760173,2.21153
74292485512,-0.796942,-0.79582,2.23367
74292510087,-0.815804,-0.856611,2.26398
74292524405,-0.883302,-0.883949,2.28855
74292545562,-0.853185,-0.940504,2.29736
74292561908,-0.8671,-1.01163,2.33842
74292585818,-0.923009,-1.06766,2.40337
74292606885,-0.988252,-1.11568,2.48429
74292621871,-1.03616,-1.15432,2.55592
74292677252,-1.08048,-1.18533,2.62042
74292689824,-1.13976,-1.21785,2.6878
74292721363,-1.22086,-1.24018,2.76643
74292735570,-1.29994,-1.25231,2.84129
74292738052,-1.36763,-1.26177,2.91025
74292743341,-1.43214,-1.27051,2.97985
74292771158,-1.4945,-1.27725,3.04794
74292786949,-1.56047,-1.2784,3.11687
74292803334,-1.61777,-1.27876,-3.10488
74292832312,-1.66862,-1.28102,-3.04895
74292846099,-1.72074,-1.28228,-2.99018
74292860434,-1.7739,-1.28371,-2.93021
74292884812,-1.82921,-1.28401,-2.87144
74292916914,-1.88859,-1.28589,-2.80942
74292921918,-1.95265,-1.28704,-2.74526
74292974248,-2.01945,-1.28514,-2.67978
74292998081,-2.08975,-1.28144,-2.61257
74293007146,-2.16235,-1.27615,-2.54387
74293013198,-2.23946,-1.27029,-2.47113
74293034104,-2.3238,-1.26449,-2.39345
74293043382,-2.41071,-1.25809,-2.31583
74293065037,-2.50152,-1.25017,-2.23507
74293086186,-2.59659,-1.23989,-2.14767
74293108632,-2.69636,-1.22819,-2.05339
74293123656,-2.79076,-1.216,-1.96612
74293154258,-2.87806,-1.20394,-1.88841
74293160450,-2.96953,-1.19306,-1.80836
74293191763,-3.07679,-1.16706,-1.71638
74293206081,3.09319,-1.12524,-1.62032
74293220485,2.98269,-1.07178,-1.53931
74293246522,2.89643,-1.01392,-1.48288
74293266119,2.82378,-0.953759,-1.42969
74293280516,2.79484,-0.898769,-1.39855
74293302936,2.80193,-0.850593,-1.37577
74293334310,2.82953,-0.823331,-1.37992
74293340492,2.86508,-0.828466,-1.4024
74293371853,2.89914,-0.849541,-1.41694
74293386603,2.92679,-0.885133,-1.4308
74293408634,2.95236,-0.931914,-1.45544
74293422988,2.984,-0.993084,-1.49163
74293454267,3.03811,-1.06588,-1.54598
74293460461,3.12147,-1.14702,-1.62911
74293482945,-3.03077,-1.23344,-1.764
74293521602,-2.80289,-1.31756,-2.0019
74293530041,-2.37909,-1.37945,-2.44614
74293543601,-1.75768,-1.38378,-3.08993
74293566165,-1.29697,-1.32138,2.70735
74293580472,-1.06666,-1.22302,2.45376
74293603648,-0.941373,-1.11343,2.31855
74293626184,-0.86231,-1.00407,2.24178
74293641930,-0.806802,-0.893114,2.19607
74293665035,-0.771188,-0.797831,2.17294
74293686139,-0.754124,-0.733305,2.1634
74293708633,-0.760928,-0.72218,2.16785
74293723633,-0.790357,-0.752071,2.18627
74293760935,-0.810408,-0.80725,2.21467
74293771507,-0.858377,-0.853834,2.25093
74293785073,-0.893433,-0.886125,2.28938
74293806114,-0.844272,-0.914276,2.27129
74293820475,-0.823625,-0.972521,2.28629
74293860738,-0.834725,-1.0356,2.32943
74293866145,-0.879711,-1.08631,2.39109
74293880459,-0.936282,-1.12831,2.4635
74293903662,-0.972777,-1.16452,2.52355
74293926142,-1.01879,-1.20285,2.5826
74293940474,-1.09218,-1.23275,2.65646
74293963640,-1.17011,-1.25506,2.73268
74293986108,-1.24304,-1.27122,2.81082
74294016808,-1.30966,-1.28804,2.88835
74294023657,-1.38083,-1.30077,2.96885
74294046140,-1.46167,-1.30932,3.05433
74294061900,-1.5484,-1.31663,-3.13907
74294083691,-1.6289,-1.32124,-3.05301
74294106181,-1.70697,-1.32504,-2.96915
74294128666,-1.78461,-1.32755,-2.89193
74294143691,-1.85883,-1.32677,-2.82215
74294166193,-1.93407,-1.32695,-2.7509
74294188733,-2.01117,-1.3278,-2.67867
74294203697,-2.09156,-1.32567,-2.60226
74294226160,-2.17494,-1.3217,-2.523
74294240507,-2.25812,-1.31564,-2.4437
74294263653,-2.3447,-1.30936,-2.36326
74294286217,-2.43564,-1.30295,-2.28148
74294300551,-2.5274,-1.29438,-2.20045
74294323713,-2.62164,-1.28286,-2.11525
74294346200,-2.72096,-1.27094,-2.02368
74294375993,-2.82452,-1.25698,-1.92629
74294386562,-2.92791,-1.24108,-1.83053
74294406033,-3.04766,-1.21337,-1.7226
74294420506,3.10862,-1.18506,-1.61429
74294443023,2.97053,-1.13866,-1.51346
74294466182,2.88315,-1.08334,-1.45069
74294480577,2.80122,-1.02005,-1.388
74294503007,2.74432,-0.96673,-1.34661
74294525522,2.72899,-0.915578,-1.32543
74294540541,2.73003,-0.889701,-1.31954
74294572604,2.756,-0.878742,-1.33302
74294585508,2.79003,-0.898712,-1.35066
74294600555,2.82106,-0.92955,-1.36867
74294622948,2.85582,-0.970747,-1.39025
74294645568,2.89725,-1.02113,-1.41977
74294660498,2.94736,-1.0848,-1.46308
74294692625,3.00937,-1.15748,-1.52829
74294705447,3.10598,-1.23753,-1.63424
74294731647,-3.00072,-1.32076,-1.8216
74294744537,-2.65316,-1.39299,-2.18411
74294766955,-2.01816,-1.42226,-2.83457
74294781961,-1.41121,-1.38051,2.8332
74294803029,-1.09686,-1.29809,2.51002
74294826218,-0.945723,-1.19897,2.35133
74294841974,-0.85353,-1.09477,2.26368
74294863094,-0.789778,-0.993029,2.21366
74294888098,-0.741021,-0.891697,2.18336
74294901935,-0.714723,-0.80657,2.17145
74294931102,-0.701683,-0.751364,2.16689
74294946159,-0.70677,-0.74144,2.16906
74294961988,-0.730718,-0.769428,2.18236
74294983042,-0.741765,-0.834112,2.19629
74295006215,-0.777222,-0.876002,2.21888
74295022003,-0.7701,-0.926632,2.21989
74295043114,-0.761483,-0.986044,2.23911
74295065941,-0.787189,-1.04988,2.27755
74295088682,-0.854338,-1.10061,2.35446
74295103006,-0.884705,-1.14697,2.41493
74295126170,-0.905255,-1.1857,2.4691
74295142037,-0.948225,-1.22603,2.52548
74295162955,-1.01841,-1.26135,2.5947
74295186235,-1.11116,-1.28641,2.68282
74295201934,-1.20135,-1.2992,2.77346
74295223025,-1.28032,-1.31382,2.86095
74295262499,-1.36528,-1.32751,2.96167
74295264922,-1.45042,-1.33768,3.0539
74295299329,-1.5301,-1.34009,3.13226
74295306153,-1.59818,-1.34072,-3.08607
74295321995,-1.65517,-1.34268,-3.03045
74295343082,-1.7112,-1.34307,-2.97613
74295366222,-1.77138,-1.34174,-2.91949
74295382008,-1.83562,-1.34197,-2.8582
74295403114,-1.90408,-1.34236,-2.79219
74295433773,-1.9807,-1.34202,-2.71929
74295458318,-2.06544,-1.33815,-2.63981
74295479317,-2.16234,-1.33257,-2.54683
74295485541,-2.2738,-1.32841,-2.43917
74295502005,-2.38843,-1.32237,-2.33195
74295523089,-2.4959,-1.31393,-2.2361
74295545522,-2.60385,-1.30395,-2.13962
74295561969,-2.72015,-1.29197,-2.03066
74295583071,-2.83868,-1.27625,-1.91646
74295605612,-2.94605,-1.25769,-1.81539
74295623426,-3.05787,-1.22915,-1.71368
74295659394,3.11547,-1.19598,-1.62007
74295665503,2.9951,-1.15133,-1.52405
74295690203,2.87843,-1.09456,-1.44834
74295712712,2.79862,-1.03595,-1.39765
74295725614,2.72715,-0.972367,-1.34426
74295741986,2.70203,-0.91561,-1.32146
74295764543,2.70094,-0.872991,-1.30423
74295818285,2.73342,-0.83761,-1.30323
74295820614,2.7609,-0.846339,-1.31401
74295842242,2.78848,-0.871559,-1.32676
74295846997,2.82336,-0.912158,-1.3456
74295861980,2.86418,-0.959913,-1.36366
74295884516,2.90919,-1.02066,-1.38901
74295905510,2.96656,-1.09245,-1.42875
74295922035,3.03965,-1.17297,-1.49346
74295951946,-3.1275,-1.25921,-1.6041
74295980988,-2.92502,-1.3458,-1.80785
74295999151,-2.50637,-1.41545,-2.23398
74296020775,-1.75931,-1.42993,-2.98398
74296025528,-1.19701,-1.37098,2.72973
74296050152,-0.956941,-1.27763,2.47462
74296064562,-0.846388,-1.17383,2.35511
74296085565,-0.786932,-1.06851,2.29475
74296101938,-0.760156,-0.967787,2.26509
74296124440,-0.754118,-0.877425,2.24973
74296145621,-0.764613,-0.795751,2.23932
74296161990,-0.78514,-0.756399,2.23721
74296209094,-0.826701,-0.761796,2.25037
74296213689,-0.848917,-0.796707,2.27273
74296222051,-0.883691,-0.852234,2.30982
74296244586,-0.922196,-0.891375,2.34936
74296265570,-0.938272,-0.913447,2.39538
74296282038,-0.912282,-0.911589,2.39126
74296311230,-0.853942,-0.977998,2.3973
74296364111,-0.873404,-1.03544,2.44372
74296382288,-0.951682,-1.08262,2.51736
74296388384,-1.02363,-1.12008,2.59803
74296389963,-1.07439,-1.15163,2.6622
74296402035,-1.12651,-1.18115,2.71886
74296424536,-1.19697,-1.20855,2.78746
74296446165,-1.26905,-1.2254,2.85841
74296461241,-1.32219,-1.23969,2.91653
74296483742,-1.37302,-1.2513,2.97086
74296506621,-1.42901,-1.25977,3.02305
74296553253,-1.48548,-1.25944,3.06968
74296555666,-1.53248,-1.26072,3.11074
74296611600,-1.5762,-1.26421,-3.13166
74296629814,-1.62163,-1.26697,-3.08766
74296643339,-1.67072,-1.26905,-3.03942
74296644874,-1.72245,-1.27181,-2.98712
74296648732,-1.78036,-1.27553,-2.92753
74296663767,-1.84649,-1.27696,-2.86014
74296686249,-1.92591,-1.27676,-2.77785
74296701275,-2.01986,-1.27829,-2.67901
74296723741,-2.13179,-1.28078,-2.56539
74296746253,-2.2456,-1.27938,-2.45471
74296761233,-2.35212,-1.27315,-2.35212
74296783733,-2.45618,-1.26531,-2.25201
74296806170,-2.55796,-1.25665,-2.15596
74296821216,-2.66034,-1.24706,-2.06034
74296851926,-2.76075,-1.23578,-1.96666
74296866232,-2.85613,-1.22108,-1.8779
74296881276,-2.9628,-1.19666,-1.77845
74296903762,-3.07181,-1.16999,-1.68052
74296926282,3.08602,-1.12822,-1.57693
74296941292,2.96302,-1.07415,-1.4938
74296972601,2.88049,-1.01146,-1.43433
74296986202,2.82316,-0.949185,-1.38395
74297002757,2.80325,-0.898488,-1.35924
74297023710,2.79441,-0.867731,-1.34517
74297046269,2.80917,-0.833606,-1.33777
74297062663,2.82531,-0.84152,-1.35027
74297083733,2.84212,-0.866156,-1.36093
74297106209,2.86624,-0.907723,-1.37814
74297122672,2.89402,-0.955073,-1.39417
74297151297,2.93633,-1.01348,-1.4219
74297166258,2.98571,-1.08246,-1.46647
74297183172,3.05473,-1.15998,-1.53599
74297203531,-3.1208,-1.24193,-1.64992
74297250827,-2.92075,-1.32319,-1.85737
74297253167,-2.53119,-1.38935,-2.25747
74297266630,-1.9045,-1.40738,-2.89963
74297286735,-1.36018,-1.35936,2.82669
74297301296,-1.07799,-1.27314,2.52766
74297323713,-0.942398,-1.17179,2.37278
74297346151,-0.865487,-1.06558,2.28669
74297361220,-0.818336,-0.966123,2.24201
74297383725,-0.783712,-0.870173,2.22027
74297406281,-0.763518,-0.79743,2.21159
74297421275,-0.759716,-0.771364,2.21401
74297445183,-0.781614,-0.791064,2.22748
74297466228,-0.801523,-0.853175,2.24988
74297481264,-0.837234,-0.894834,2.27725
74297505212,-0.845296,-0.903406,2.26673
74297526284,-0.83393,-0.964521,2.28808
74297541237,-0.849969,-1.03118,2.32777
74297563674,-0.912632,-1.08327,2.40141
74297595805,-0.951582,-1.12803,2.46758
74297600579,-0.988926,-1.16469,2.528
74297623735,-1.04175,-1.20323,2.58735
74297646162,-1.11864,-1.23334,2.66031
74297660604,-1.20712,-1.25358,2.7417
74297691241,-1.28469,-1.26256,2.81623
74297706235,-1.34813,-1.27411,2.88412
74297720612,-1.40926,-1.28651,2.95059
74297743760,-1.47036,-1.29471,3.01051
74297766256,-1.53133,-1.29651,3.05833
74297780551,-1.58403,-1.29556,3.09842
74297803783,-1.6288,-1.29551,3.13616
74297827709,-1.6745,-1.29671,-3.10276
74297848729,-1.72396,-1.29879,-3.05515
74297871319,-1.77546,-1.2999,-3.00549
74297894529,-1.83128,-1.30185,-2.94997
74297900655,-1.88905,-1.30363,-2.89174
74297923740,-1.95415,-1.30559,-2.82551
74297985848,-2.02664,-1.3074,-2.75482
74297988187,-2.10441,-1.30614,-2.68127
74297993504,-2.18464,-1.30069,-2.60384
74298006924,-2.27362,-1.29287,-2.51546
74298020596,-2.37307,-1.28452,-2.41545
74298043761,-2.47556,-1.27583,-2.31492
74298105794,-2.58079,-1.26531,-2.21392
74298108184,-2.6814,-1.25196,-2.11664
74298129775,-2.77663,-1.2356,-2.0238
74298134859,-2.86944,-1.21735,-1.93423
74298150159,-2.95782,-1.2002,-1.85346
74298171324,-3.05273,-1.18737,-1.77251
74298186220,3.1228,-1.15659,-1.68329
74298200577,3.00647,-1.10773,-1.59192
74298223723,2.91209,-1.05595,-1.52795
74298246305,2.83406,-0.989901,-1.46417
74298262163,2.78688,-0.939085,-1.43331
74298285201,2.76891,-0.889221,-1.40618
74298307491,2.77104,-0.870261,-1.39159
74298330191,2.80328,-0.863308,-1.41061
74298351253,2.83547,-0.882167,-1.42841
74298366265,2.85344,-0.913843,-1.43496
74298382075,2.87049,-0.955119,-1.44438
74298405211,2.89405,-1.01101,-1.466
74298427731,2.93345,-1.07981,-1.5065
74298450208,2.99911,-1.15653,-1.57325
74298472692,3.11055,-1.2382,-1.68387
74298486287,-2.99299,-1.32157,-1.87714
74298502138,-2.65829,-1.38901,-2.22623
74298525237,-2.07627,-1.41542,-2.81407
74298554239,-1.5175,-1.38235,2.90411
74298568757,-1.20124,-1.3144,2.58842
74298583132,-1.01698,-1.23631,2.42112
74298606314,-0.897951,-1.15892,2.32403
74298622135,-0.81957,-1.08376,2.2638
74298643177,-0.770212,-1.01332,2.22838
74298666256,-0.746031,-0.950599,2.20914
74298682105,-0.738359,-0.899502,2.19906
74298703091,-0.750194,-0.879123,2.20518
74298727729,-0.766641,-0.874751,2.21262
74298742661,-0.789461,-0.890198,2.22741
74298763131,-0.81592,-0.918895,2.24737
74298793765,-0.877741,-0.957318,2.29235
74298802140,-0.928013,-1.01333,2.33962
74298832764,-0.978249,-1.03222,2.36372
74298855215,-0.949251,-1.06605,2.3747
74298862173,-0.95563,-1.1279,2.41276
74298883108,-1.0436,-1.17589,2.50553
74298913759,-1.13018,-1.21545,2.61702
74298922083,-1.22022,-1.24833,2.73532
74298943147,-1.2989,-1.27582,2.83869
74298969135,-1.39312,-1.30376,2.94475
74298982130,-1.50596,-1.32094,3.05952
74299012803,-1.60745,-1.33127,-3.12304
74299026225,-1.69882,-1.33865,-3.02071
74299042099,-1.78797,-1.34469,-2.91443
74299063168,-1.8673,-1.34551,-2.8259
74299086265,-1.93771,-1.34033,-2.75721
74299102098,-1.99265,-1.33191,-2.70494
74299124546,-2.0488,-1.32808,-2.64719
74299164776,-2.10085,-1.32403,-2.59049
74299170250,-2.14774,-1.31903,-2.54126
74299200675,-2.20035,-1.31306,-2.48968
74299222667,-2.26465,-1.30754,-2.42478
74299225098,-2.33061,-1.3014,-2.35889
74299244580,-2.38939,-1.29285,-2.30086
74299266214,-2.443,-1.28477,-2.24862
74299282505,-2.49565,-1.27756,-2.19905
74299305070,-2.55094,-1.26801,-2.14623
74299326285,-2.60783,-1.25565,-2.09192
74299342126,-2.67192,-1.2412,-2.03114
74299364587,-2.73699,-1.22486,-1.97272
74299386325,-2.79814,-1.20749,-1.92053
74299402141,-2.86543,-1.1913,-1.86489
74299424543,-2.92737,-1.17396,-1.81653
74299446341,-2.98956,-1.15646,-1.76801
74299462093,-3.05274,-1.13606,-1.71703
74299485188,-3.11634,-1.11326,-1.66666
74299505585,3.1025,-1.0892,-1.61845
74299529183,3.03984,-1.06773,-1.57911
74299544609,2.95736,-1.03819,-1.52951
74299574164,2.86931,-0.994282,-1.47522
74299590249,2.78108,-0.943734,-1.42
74299604552,2.70837,-0.89083,-1.38855
74299627086,2.67691,-0.836081,-1.36505
74299650232,2.69625,-0.795562,-1.34978
74299694934,2.72769,-0.76195,-1.33497
74299727376,2.76621,-0.749465,-1.33331
74299733401,2.79132,-0.754466,-1.32895
74299747131,2.80325,-0.784039,-1.3463
74299770735,2.7892,-0.819555,-1.36713
74299784604,2.77345,-0.865275,-1.39708
74299813779,2.7746,-0.913977,-1.43107
74299837766,2.79436,-0.962647,-1.46627
74299869125,2.82277,-1.01114,-1.50073
74299873752,2.85749,-1.06016,-1.5324
74299897708,2.89434,-1.11109,-1.55946
74299911255,2.93421,-1.1652,-1.58542
74299927078,2.98953,-1.22322,-1.6218
74299956022,3.06707,-1.28016,-1.68011
74299987579,-3.10262,-1.33501,-1.77531
74299990030,-2.93056,-1.38471,-1.92801
74300009384,-2.66912,-1.42457,-2.17115
74300023136,-2.29213,-1.44834,-2.53232
74300046248,-1.87531,-1.45109,-2.93868
74300069423,-1.54235,-1.43668,3.01876
74300083088,-1.42361,-1.42283,2.90822
74300114589,-1.34814,-1.4098,2.84165
74300120559,-1.3364,-1.40323,2.83471
74300143127,-1.37313,-1.40469,2.89617
74300166299,-1.38559,-1.3944,2.91306
74300182342,-1.44843,-1.40687,2.99569
74300203287,-1.45687,-1.42035,3.01089
74300226278,-1.48736,-1.41537,3.0323
74300240617,-1.51459,-1.40939,3.058
74300263120,-1.53094,-1.40368,3.0764
74300286313,-1.54439,-1.3987,3.09214
74300300664,-1.55882,-1.39503,3.10787
74300323807,-1.56812,-1.39192,3.11995
74300346254,-1.57346,-1.39031,3.1296
74300360635,-1.58724,-1.39072,-3.13801
74300383847,-1.60358,-1.39139,-3.12214
74300398169,-1.61777,-1.39101,-3.10862
74300420646,-1.63408,-1.39131,-3.09251
74300443833,-1.64531,-1.39028,-3.08
74300458072,-1.65352,-1.38857,-3.07192
74300480572,-1.6625,-1.38767,-3.0622
74300503059,-1.67007,-1.38717,-3.05215
74300518205,-1.67782,-1.38751,-3.04417
74300540622,-1.67854,-1.38582,-3.04202
74300563253,-1.69085,-1.38692,-3.02765
74300578103,-1.69933,-1.38845,-3.0178
74300602055,-1.6989,-1.38945,-3.01887
74300623093,-1.69299,-1.38952,-3.02508
74300638111,-1.68824,-1.38979,-3.02802
74300660609,-1.68857,-1.38894,-3.02883
74300683118,-1.69076,-1.3885,-3.02951
74300698103,-1.691,-1.38821,-3.03024
74300720660,-1.68799,-1.38701,-3.03272
74300744514,-1.69563,-1.38648,-3.02422
74300758069,-1.70057,-1.38684,-3.02148
74300780600,-1.69629,-1.3879,-3.03308
74300803097,-1.69194,-1.38837,-3.04114
74300826261,-1.68533,-1.38822,-3.04878
74300840591,-1.67987,-1.38831,-3.05341
74300863113,-1.67555,-1.38739,-3.05536
74300878206,-1.67313,-1.38719,-3.05719
74300900621,-1.67206,-1.3871,-3.05755
74300923105,-1.6733,-1.38665,-3.05452
74300938127,-1.67489,-1.38697,-3.05188
74300960682,-1.68615,-1.38669,-3.03723
74300984572,-1.69491,-1.38807,-3.02494
74300998108,-1.69986,-1.38881,-3.0173
74301020614,-1.70143,-1.38876,-3.01353
74301043149,-1.70128,-1.38854,-3.01002
74301061078,-1.70181,-1.3894,-3.00689
74301080624,-1.70056,-1.38931,-3.00587
74301111993,-1.70395,-1.38972,-3.00025
74301118166,-1.70623,-1.39039,-2.99675
74301140740,-1.70916,-1.39056,-2.99247
74301163140,-1.71048,-1.39102,-2.98986
74301179618,-1.71184,-1.3913,-2.9865
74301202070,-1.71221,-1.39144,-2.98518
74301224596,-1.71258,-1.39159,-2.98386
74301238122,-1.71298,-1.39225,-2.98256
74301260670,-1.71347,-1.39239,-2.98135
74301283102,-1.7146,-1.39259,-2.97923
74301301059,-1.71493,-1.39314,-2.97815
74301320632,-1.71677,-1.39289,-2.97521
74301343115,-1.71766,-1.39325,-2.97379
74301366365,-1.71954,-1.39378,-2.97013
74301380695,-1.72085,-1.39463,-2.96774
74301403099,-1.72219,-1.39542,-2.96552
74301426352,-1.7223,-1.39666,-2.96497
74301442124,-1.7223,-1.39666,-2.96497
74301463155,-1.71954,-1.39694,-2.96848
74301479530,-1.71462,-1.39662,-2.97301
74301500636,-1.71334,-1.39735,-2.974
74301523153,-1.71151,-1.39807,-2.97588
74301539569,-1.71037,-1.39852,-2.97639
74301568886,-1.71041,-1.39897,-2.9766
74301583149,-1.70965,-1.39892,-2.97742
74301599617,-1.71116,-1.39916,-2.97542
74301620628,-1.71141,-1.39979,-2.97532
74301643166,-1.71028,-1.39996,-2.97656
74301659589,-1.71032,-1.40035,-2.97694
74301680618,-1.7096,-1.40076,-2.97798
74301711248,-1.70687,-1.40044,-2.98049
74301719590,-1.70549,-1.40071,-2.98265
74301740602,-1.70365,-1.40109,-2.98416
74301763076,-1.70101,-1.40215,-2.98734
74301779655,-1.69598,-1.40213,-2.99259
74301800672,-1.69082,-1.40227,-2.9974
74301823129,-1.69086,-1.40266,-2.99779
74301839563,-1.68941,-1.40194,-2.9984
74301860712,-1.69031,-1.40297,-2.99798
74301883159,-1.69031,-1.40297,-2.99798
74301899666,-1.68957,-1.40338,-2.99904
74301920662,-1.68811,-1.40266,-2.99966
74301943265,-1.68887,-1.40345,-2.99966
74301959562,-1.68815,-1.40305,-3.00005
74301980651,-1.68737,-1.40307,-3.00071
74302003112,-1.68741,-1.40347,-3.0011
74302019552,-1.68671,-1.40353,-3.00173
74302040683,-1.68671,-1.40353,-3.00173
74302063179,-1.68601,-1.4036,-3.00235
74302079668,-1.68601,-1.4036,-3.00235
74302100667,-1.68526,-1.40328,-3.00258
74302123154,-1.6853,-1.40367,-3.00297
74302139569,-1.6838,-1.40329,-3.00403
74302160716,-1.68375,-1.40363,-3.00446
74302183208,-1.68379,-1.40403,-3.00486
74302199686,-1.68313,-1.40375,-3.00505
74302220613,-1.67954,-1.40397,-3.0084
74302243223,-1.67954,-1.40397,-3.0084
74302267137,-1.67879,-1.40439,-3.00946
74302280673,-1.67806,-1.40399,-3.00985
74302303063,-1.67731,-1.4044,-3.01092
74302319641,-1.67731,-1.4044,-3.01092
74302342078,-1.6766,-1.40447,-3.01155
74302363106,-1.6766,-1.40447,-3.01155
74302379619,-1.67509,-1.40409,-3.01262
74302402065,-1.67512,-1.40448,-3.01302
74302423222,-1.67441,-1.40455,-3.01365
74302439610,-1.67441,-1.40455,-3.01365
74302462154,-1.67369,-1.40462,-3.01429
74302483155,-1.6729,-1.40463,-3.01496
74302499616,-1.67294,-1.40503,-3.01536
74302522091,-1.67146,-1.4043,-3.016
74302543225,-1.67146,-1.40505,-3.01682
74302559632,-1.67074,-1.40511,-3.01747
74302582108,-1.67074,-1.40511,-3.01747
74302603174,-1.67002,-1.40518,-3.01811
74302619606,-1.67002,-1.40518,-3.01811
74302642068,-1.66854,-1.4052,-3.01958
74302663166,-1.66778,-1.40486,-3.01983
74302679618,-1.66781,-1.40526,-3.02023
74302702131,-1.66706,-1.40493,-3.02047
74302723166,-1.66709,-1.40533,-3.02087
74302739571,-1.66637,-1.4054,-3.02152
74302762136,-1.66633,-1.40574,-3.02195
74302783176,-1.6656,-1.40581,-3.0226
74302799638,-1.66485,-1.40548,-3.02285
74302822178,-1.66242,-1.40587,-3.0253
74302844681,-1.6592,-1.40554,-3.02761
74302859677,-1.65526,-1.40554,-3.03114
74302889576,-1.6545,-1.40596,-3.03222
74302903155,-1.6545,-1.40596,-3.03222
74302919587,-1.65373,-1.40563,-3.03247
74302942136,-1.65205,-1.40654,-3.03438
74302963217,-1.64811,-1.40639,-3.03721
74302979676,-1.64348,-1.40652,-3.04141
74303002086,-1.63806,-1.40706,-3.04671
74303023238,-1.63189,-1.40666,-3.05214
74303039620,-1.62586,-1.40665,-3.05809
74303062153,-1.61764,-1.40663,-3.06633
74303083237,-1.60805,-1.40568,-3.07546
74303099606,-1.5956,-1.40569,-3.08874
74303122118,-1.58031,-1.40457,-3.10367
74303143135,-1.56514,-1.40338,-3.12007
74303159604,-1.54771,-1.40135,-3.13865
74303182085,-1.5308,-1.39913,3.12525
74303203187,-1.5109,-1.39522,3.10543
74303219614,-1.49468,-1.39258,3.08997
74303242130,-1.4783,-1.39039,3.07349
74303263289,-1.45659,-1.38877,3.0512
74303279604,-1.42342,-1.3882,3.01785
74303302127,-1.3847,-1.3869,2.97882
74303324638,-1.35118,-1.38477,2.94512
74303339725,-1.32742,-1.38269,2.92133
74303362177,-1.30767,-1.38044,2.90171
74303384690,-1.29101,-1.37915,2.88459
74303401090,-1.2754,-1.37768,2.8677
74303422091,-1.26177,-1.37564,2.85277
74303446108,-1.25089,-1.37346,2.84105
74303461125,-1.2411,-1.37226,2.83116
74303482202,-1.23364,-1.37236,2.8232
74303504681,-1.22543,-1.37095,2.81289
74303521041,-1.21397,-1.36815,2.7991
74303542110,-1.19897,-1.36542,2.78337
74303564668,-1.18233,-1.36397,2.76574
74303581158,-1.16308,-1.36155,2.74479
74303601459,-1.1455,-1.35863,2.72521
74303623875,-1.1276,-1.35426,2.70501
74303639706,-1.10855,-1.34944,2.68491
74303661367,-1.0902,-1.34452,2.66454
74303683862,-1.07511,-1.33863,2.6457
74303706418,-1.06029,-1.33099,2.62741
74303721356,-1.0438,-1.32384,2.60876
74303743873,-1.02539,-1.31779,2.58876
74303766349,-1.01321,-1.31182,2.57327
74303781356,-1.00922,-1.30563,2.56612
74303803864,-1.00775,-1.30066,2.56348
74303826461,-1.00273,-1.29784,2.55879
74303841397,-0.997599,-1.29661,2.55363
74303863942,-0.994515,-1.29702,2.55022
74303886392,-0.995563,-1.29647,2.55093
74303901362,-0.996341,-1.29569,2.55286
74303923938,-0.99602,-1.29498,2.55403
74303939746,-1.00035,-1.29489,2.55983
74303961474,-1.00517,-1.29565,2.56656
74303983918,-1.00922,-1.29828,2.57258
74303999671,-1.01491,-1.3011,2.57873
74304021353,-1.02242,-1.30277,2.58595
74304043834,-1.03048,-1.30301,2.59371
74304059611,-1.03991,-1.30321,2.60347
74304081351,-1.04762,-1.30448,2.61158
74304103866,-1.05628,-1.30474,2.61949
74304119614,-1.06273,-1.30422,2.62473
74304141372,-1.06962,-1.30139,2.62957
74304163844,-1.07652,-1.29769,2.63531
74304179597,-1.08047,-1.29393,2.63929
74304201541,-1.08262,-1.29076,2.64134
74304223819,-1.08635,-1.28866,2.64478
74304239558,-1.09013,-1.28674,2.64823
74304261319,-1.09128,-1.2839,2.64939
74304283833,-1.09203,-1.28166,2.6494
74304299602,-1.09294,-1.27935,2.64903
74304321309,-1.09379,-1.27497,2.64775
74304343830,-1.09526,-1.27003,2.64819
74304359622,-1.09353,-1.26524,2.64686
74304382788,-1.08865,-1.26133,2.64289
74304403837,-1.08343,-1.25818,2.63742
74304419623,-1.08057,-1.25541,2.63447
74304442739,-1.07741,-1.25198,2.63253
74304463824,-1.07479,-1.25005,2.62996
74304479626,-1.07447,-1.24787,2.62909
74304502836,-1.07273,-1.24473,2.62764
74304523847,-1.07354,-1.24194,2.62978
74304539622,-1.07546,-1.2413,2.63422
74304562776,-1.07819,-1.24169,2.64102
74304583821,-1.07987,-1.24218,2.64581
74304599584,-1.08361,-1.24197,2.65207
74304622794,-1.08608,-1.2417,2.65798
74304643870,-1.08738,-1.24131,2.66365
74304659612,-1.08924,-1.24187,2.67117
74304682766,-1.08955,-1.24181,2.67799
74304703852,-1.08892,-1.24151,2.68466
74304719603,-1.0804,-1.24117,2.68427
74304742768,-1.07493,-1.24054,2.68683
74304763874,-1.07159,-1.24094,2.69052
74304779656,-1.07917,-1.2418,2.70103
74304802778,-1.08723,-1.24193,2.71168
74304823843,-1.09514,-1.24348,2.72339
74304839676,-1.10779,-1.24562,2.73747
74304862763,-1.12373,-1.24837,2.75154
74304883855,-1.1406,-1.24997,2.76961
74304899632,-1.15385,-1.25131,2.78661
74304922790,-1.16983,-1.2547,2.80779
74304943843,-1.18902,-1.25772,2.83186
74304959613,-1.21422,-1.2595,2.86012
74304982770,-1.24162,-1.25885,2.88959
74305003796,-1.26849,-1.25837,2.92009
74305019652,-1.29929,-1.25946,2.95434
74305042818,-1.32803,-1.2593,2.98562
74305063904,-1.36076,-1.25789,3.02105
74305079662,-1.38917,-1.25543,3.05209
74305102794,-1.41816,-1.25368,3.08213
74305123848,-1.4508,-1.25044,3.11337
74305139614,-1.48239,-1.24825,-3.13888
74305162231,-1.50531,-1.24539,-3.11805
74305183823,-1.52893,-1.24131,-3.09878
74305199694,-1.55052,-1.239,-3.07843
74305222147,-1.57061,-1.23675,-3.05739
74305243885,-1.5898,-1.23465,-3.03556
74305267778,-1.60971,-1.23317,-3.01213
74305282115,-1.62754,-1.23158,-2.99119
74305321660,-1.64431,-1.22951,-2.97265
74305326331,-1.65922,-1.22734,-2.95628
74305342137,-1.67354,-1.22576,-2.93805
74305365270,-1.68859,-1.22414,-2.91974
74305387803,-1.7018,-1.22212,-2.90349
74305410273,-1.71891,-1.22042,-2.88308
74305425282,-1.73612,-1.21984,-2.86851
74305440068,-1.74809,-1.21977,-2.86405
74305462650,-1.75845,-1.21811,-2.85723
74305485350,-1.7677,-1.21621,-2.85264
74305499620,-1.77485,-1.213,-2.85174
74305522126,-1.78111,-1.21026,-2.84845
74305551346,-1.78598,-1.20861,-2.84794
74305559677,-1.79165,-1.20665,-2.84521
74305582186,-1.79883,-1.20384,-2.83901
74305605374,-1.8079,-1.20182,-2.82967
74305620195,-1.816,-1.19996,-2.82066
74305642171,-1.82708,-1.19915,-2.80801
74305665325,-1.83833,-1.19847,-2.79401
74305687905,-1.85176,-1.19776,-2.77757
74305708985,-1.863,-1.19636,-2.7618
74305756643,-1.87127,-1.19652,-2.75087
74305798772,-1.87532,-1.19597,-2.74626
74305854963,-1.87844,-1.19745,-2.7508
74305876659,-1.87551,-1.19748,-2.75852
74305881987,-1.86209,-1.19679,-2.77504
74305899277,-1.85932,-1.1974,-2.77573
74305921020,-1.85773,-1.19833,-2.77884
74305942784,-1.85478,-1.19781,-2.78328
74305945136,-1.85479,-1.19882,-2.79018
74305966842,-1.8545,-1.19948,-2.79431
74305988384,-1.85545,-1.20095,-2.79512
74306002741,-1.85673,-1.20139,-2.79375
74306025869,-1.85918,-1.20162,-2.79013
74306047869,-1.86223,-1.20222,-2.78726
74306062248,-1.8641,-1.20243,-2.7857
74306085416,-1.86673,-1.20227,-2.7825
74306107849,-1.86909,-1.20252,-2.77875
74306130362,-1.87136,-1.20273,-2.77506
74306152802,-1.87429,-1.20189,-2.77014
74306205926,-1.87875,-1.20177,-2.76282
74306208307,-1.88077,-1.20216,-2.75674
74306221862,-1.88194,-1.2026,-2.75125
74306233644,-1.8827,-1.2032,-2.74621
74306243679,-1.88822,-1.20447,-2.73666
74306264710,-1.89362,-1.20573,-2.72754
74306287918,-1.89894,-1.20676,-2.7183
74306302152,-1.90573,-1.20785,-2.70741
74306324752,-1.91181,-1.20925,-2.69752
74306347878,-1.9176,-1.21013,-2.68872
74306362200,-1.92776,-1.21107,-2.67637
74306384714,-1.93855,-1.21207,-2.6634
74306407890,-1.94834,-1.21268,-2.65149
74306422258,-1.95672,-1.21318,-2.64092
74306444682,-1.96582,-1.21347,-2.63058
74306467899,-1.97367,-1.21394,-2.6212
74306482227,-1.97876,-1.2135,-2.6145
74306504754,-1.98591,-1.21317,-2.60631
74306527855,-1.9924,-1.21366,-2.59939
74306542200,-1.99739,-1.21327,-2.59442
74306564702,-2.00025,-1.21302,-2.59133
74306587843,-2.00281,-1.21259,-2.58887
74306602140,-2.00612,-1.21211,-2.58525
74306624708,-2.00641,-1.21223,-2.58532
74306647872,-2.00501,-1.21296,-2.58654
74306662243,-2.00574,-1.21373,-2.58562
74306684708,-2.00839,-1.21413,-2.58281
74306707865,-2.01147,-1.21409,-2.57898
74306722230,-2.01519,-1.21525,-2.57488
74306744692,-2.01762,-1.21654,-2.57265
74306767881,-2.02041,-1.2186,-2.5707
74306788896,-2.01967,-1.2196,-2.57174
74306804687,-2.0184,-1.21948,-2.57331
74306827903,-2.01814,-1.21882,-2.5743
74306848927,-2.01956,-1.21772,-2.57337
74306864687,-2.02059,-1.21692,-2.57274
74306895427,-2.02259,-1.21604,-2.57015
74306916459,-2.02509,-1.21549,-2.56614
74306924672,-2.02702,-1.21438,-2.56161
74306947911,-2.03387,-1.21472,-2.55275
74306968970,-2.04184,-1.21513,-2.54326
74306984723,-2.04906,-1.21459,-2.53399
74307007882,-2.05491,-1.21422,-2.52625
74307030397,-2.06199,-1.21393,-2.52096
74307052854,-2.06593,-1.21298,-2.52061
74307067224,-2.06948,-1.21187,-2.51829
74307088700,-2.07295,-1.21115,-2.5148
74307104690,-2.07334,-1.2112,-2.51344
74307127227,-2.07499,-1.21221,-2.51084
74307148932,-2.0778,-1.21268,-2.5157
74307164678,-2.07437,-1.21522,-2.5403
74307178277,-2.06789,-1.21753,-2.56149
74307200792,-2.06178,-1.21832,-2.57316
74307223952,-2.05639,-1.21919,-2.58059
74307238326,-2.05521,-1.21986,-2.582
74307260873,-2.05274,-1.2196,-2.58447
74307283957,-2.04878,-1.21942,-2.59106
74307298298,-2.04433,-1.22053,-2.60213
74307320705,-2.04174,-1.22134,-2.60815
74307343998,-2.03945,-1.22234,-2.6115
74307358290,-2.03681,-1.22259,-2.61432
74307389632,-2.03541,-1.22261,-2.61543
74307404006,-2.03425,-1.22269,-2.61582
74307418308,-2.03377,-1.22195,-2.61469
74307442229,-2.03337,-1.22124,-2.61299
74307464001,-2.0376,-1.22093,-2.60594
74307478323,-2.03997,-1.22002,-2.59852
74307500759,-2.04106,-1.2216,-2.59639
74307523979,-2.04014,-1.22312,-2.59982
74307538282,-2.03749,-1.22402,-2.60345
74307560814,-2.03494,-1.22454,-2.60573
74307583904,-2.03208,-1.22484,-2.60834
74307598306,-2.03021,-1.22469,-2.60953
74307620794,-2.03024,-1.22491,-2.60823
74307643993,-2.02771,-1.2249,-2.6083
74307658303,-2.02913,-1.22554,-2.60386
74307680847,-2.03174,-1.22545,-2.59643
74307703910,-2.03404,-1.22519,-2.58738
74307718278,-2.03558,-1.22513,-2.57923
74307740803,-2.03534,-1.22479,-2.57304
74307763924,-2.03713,-1.22419,-2.56502
74307778356,-2.0379,-1.22403,-2.56044
74307800702,-2.03657,-1.22403,-2.55944
74307823989,-2.03619,-1.22383,-2.55738
74307838217,-2.03847,-1.2242,-2.55302
74307860748,-2.04055,-1.2248,-2.54916
74307883935,-2.04181,-1.22517,-2.54597
74307907941,-2.0445,-1.22576,-2.54142
74307920898,-2.04718,-1.2267,-2.53633
74307943966,-2.0491,-1.2279,-2.53292
74307966434,-2.04854,-1.22915,-2.5321
74307980852,-2.04703,-1.23011,-2.53222
74308003925,-2.04649,-1.23074,-2.53136
74308018314,-2.04583,-1.23232,-2.53132
74308040828,-2.04489,-1.23288,-2.53106
74308063942,-2.04719,-1.23405,-2.52843
74308078293,-2.04829,-1.23392,-2.52681
74308100809,-2.05104,-1.23377,-2.52357
74308123304,-2.05398,-1.23353,-2.52027
74308138310,-2.05626,-1.23285,-2.51715
74308160823,-2.05909,-1.23317,-2.51417
74308184711,-2.06055,-1.23349,-2.5127
74308198296,-2.06288,-1.233,-2.51002
74308220775,-2.06616,-1.23295,-2.50682
74308260915,-2.06616,-1.23295,-2.50682
74308276720,-2.06626,-1.23276,-2.50647
74308280864,-2.06616,-1.23295,-2.50682
74308337537,-2.06723,-1.23306,-2.50552
74308342913,-2.06723,-1.23306,-2.50552
74308343722,-2.06732,-1.23327,-2.50568
74308372189,-2.06793,-1.23286,-2.50451
74308378305,-2.06882,-1.23295,-2.50339
74308400790,-2.06882,-1.23295,-2.50339
74308423319,-2.06882,-1.23295,-2.50339
74308441194,-2.06882,-1.23295,-2.50339
74308462260,-2.06966,-1.23316,-2.50295
74308486206,-2.06966,-1.23316,-2.50295
74308532547,-2.06966,-1.23316,-2.50295
74308554240,-2.06966,-1.23316,-2.50295
74308568511,-2.07005,-1.23336,-2.50278
74308570831,-2.069,-1.23337,-2.50371
74308615084,-2.06731,-1.23281,-2.5044
74308629334,-2.06684,-1.23255,-2.50459
74308630925,-2.06686,-1.23219,-2.50439
74308649013,-2.06538,-1.2318,-2.50508
74308672125,-2.06456,-1.23147,-2.50508
74308678320,-2.06465,-1.23168,-2.50525
74308700718,-2.06503,-1.23188,-2.50508
74308723318,-2.06513,-1.2317,-2.50473
74308738353,-2.06513,-1.2317,-2.50473
74308760761,-2.06513,-1.2317,-2.50473
74308786225,-2.06476,-1.23176,-2.50497
74308846778,-2.06485,-1.23197,-2.50514
74308868391,-2.06572,-1.23179,-2.50395
74308891753,-2.06581,-1.232,-2.50411
74308897185,-2.06581,-1.232,-2.50411
74308903288,-2.06581,-1.232,-2.50411
74308926459,-2.06591,-1.23182,-2.50377
74308940792,-2.06581,-1.232,-2.50411
74308971488,-2.06562,-1.23209,-2.50417
74308996152,-2.06814,-1.23189,-2.50139
74309000835,-2.0702,-1.2323,-2.49914
74309023318,-2.07092,-1.23285,-2.49803
74309039801,-2.07202,-1.23334,-2.49667
74309062284,-2.07202,-1.23334,-2.49667
74309110095,-2.07241,-1.23354,-2.4965
74309124188,-2.07241,-1.23354,-2.4965
74309145384,-2.07202,-1.23334,-2.49667
74309147736,-2.07398,-1.23368,-2.49469
74309167249,-2.07437,-1.23388,-2.49452
74309180867,-2.07419,-1.23397,-2.49457
74309203315,-2.07457,-1.23417,-2.4944
74309225866,-2.07565,-1.23351,-2.49265
74309249083,-2.07738,-1.23358,-2.49134
74309263378,-2.07833,-1.23324,-2.49037
74309279749,-2.07929,-1.23266,-2.4891
74309300807,-2.07909,-1.23162,-2.48854
74309324741,-2.07891,-1.23135,-2.48842
74309341213,-2.07748,-1.23117,-2.48952
74309363732,-2.07586,-1.23146,-2.49117
74309402278,-2.07364,-1.23115,-2.49324
74309422864,-2.0718,-1.23067,-2.49519
74309425247,-2.06989,-1.22985,-2.49654
74309444734,-2.068,-1.22914,-2.49776
74309461175,-2.06611,-1.2292,-2.49943
74309480860,-2.06611,-1.2292,-2.49943
74309503303,-2.06536,-1.22895,-2.49995
74309519803,-2.06466,-1.2287,-2.50213
74309549028,-2.06582,-1.22879,-2.50585
74309563360,-2.06531,-1.22866,-2.50943
74309579779,-2.06376,-1.22872,-2.51268
74309600792,-2.0627,-1.22868,-2.51554
74309641833,-2.06056,-1.2287,-2.51842
74309662808,-2.05915,-1.22851,-2.51951
74309678338,-2.05924,-1.22872,-2.51967
74309701749,-2.05896,-1.22859,-2.51957
74309722604,-2.05795,-1.22872,-2.52013
74309737138,-2.05795,-1.22872,-2.52013
74309743330,-2.05934,-1.22923,-2.52041
74309759808,-2.05981,-1.23008,-2.52141
74309780844,-2.05915,-1.2311,-2.52313
74309804757,-2.05915,-1.2311,-2.52313
74309819759,-2.05896,-1.23119,-2.5232
74309843713,-2.05896,-1.23119,-2.5232
74309871508,-2.0587,-1.23144,-2.52281
74309894051,-2.0577,-1.2317,-2.523
74309918619,-2.05637,-1.232,-2.52264
74309940387,-2.05495,-1.23236,-2.52219
74309942731,-2.05472,-1.23254,-2.52021
74309977184,-2.05479,-1.23272,-2.5179
74309983346,-2.05543,-1.23277,-2.51529
74310001187,-2.05643,-1.23312,-2.51265
74310022178,-2.05684,-1.23337,-2.51079
74310043273,-2.05636,-1.23353,-2.51005
74310059721,-2.05634,-1.23359,-2.50916
74310082185,-2.05708,-1.23416,-2.50782
74310103360,-2.05937,-1.23474,-2.50502
74310119730,-2.06156,-1.23474,-2.5021
74310142277,-2.06445,-1.23515,-2.49842
74310171504,-2.06699,-1.23561,-2.4962
74310179791,-2.06828,-1.23513,-2.49445
74310208370,-2.06958,-1.23503,-2.49265
74310223374,-2.07243,-1.23559,-2.48997
74310239806,-2.0746,-1.23596,-2.48778
74310262333,-2.07649,-1.23608,-2.48562
74310283384,-2.07633,-1.23577,-2.48516
74310299788,-2.07746,-1.23601,-2.48472
74310322280,-2.07776,-1.23534,-2.4838
74310351328,-2.07937,-1.23532,-2.48278
74310361242,-2.08005,-1.23486,-2.4817
74310382265,-2.08167,-1.23445,-2.48016
74310403346,-2.08206,-1.23465,-2.48
74310419801,-2.08188,-1.23474,-2.48005
74310442289,-2.08149,-1.23453,-2.48021
74310466235,-2.08263,-1.23437,-2.47927
74310479788,-2.08263,-1.23437,-2.47927
74310502259,-2.08263,-1.23437,-2.47927
74310523360,-2.08235,-1.23465,-2.47967
74310539830,-2.08235,-1.23465,-2.47967
74310562266,-2.08196,-1.23444,-2.47983
74310583334,-2.08245,-1.23446,-2.47932
74310599825,-2.08228,-1.23454,-2.47937
74310622233,-2.08166,-1.23485,-2.48067
74310643304,-2.08046,-1.23401,-2.48145
74310659805,-2.08216,-1.23331,-2.47971
74310682258,-2.08309,-1.23286,-2.47889
74310703272,-2.0851,-1.23276,-2.47707
74310719808,-2.08724,-1.23235,-2.47446
74310742315,-2.09056,-1.23265,-2.47121
74310763339,-2.09105,-1.23267,-2.47069
74310778987,-2.09032,-1.23324,-2.47242
74310801495,-2.08949,-1.23334,-2.47393
74310824082,-2.08978,-1.23382,-2.47419
74310839000,-2.0901,-1.23392,-2.47372
74310861538,-2.09214,-1.23399,-2.47084
74310884113,-2.09454,-1.23463,-2.46853
74310899037,-2.09644,-1.23475,-2.46637
74310921520,-2.09799,-1.23544,-2.4648
74310944040,-2.09787,-1.23566,-2.46447
74310959063,-2.10091,-1.23616,-2.46105
74310981493,-2.10108,-1.23704,-2.4605
74311004000,-2.09936,-1.23792,-2.46197
74311020508,-2.09896,-1.23929,-2.46501
74311041542,-2.09646,-1.23949,-2.4689
74311063980,-2.09504,-1.23988,-2.47116
74311080414,-2.09529,-1.24028,-2.47088
74311101532,-2.09589,-1.24081,-2.4699
74311124032,-2.09692,-1.24116,-2.46801
74311140431,-2.09905,-1.24223,-2.46602
74311161505,-2.10099,-1.24328,-2.46423
74311183872,-2.10304,-1.24388,-2.46177
74311200474,-2.10278,-1.24446,-2.46154
74311221561,-2.10317,-1.24445,-2.46038
74311244009,-2.10493,-1.24454,-2.45836
74311260498,-2.10519,-1.24445,-2.45749
74311281532,-2.1057,-1.24447,-2.45696
74311304026,-2.10659,-1.24508,-2.45868
74311320479,-2.1064,-1.24535,-2.46014
74311341513,-2.10597,-1.24552,-2.46106
74311364213,-2.10597,-1.24552,-2.46106
74311380458,-2.10696,-1.24615,-2.46005
74311401534,-2.1062,-1.24606,-2.45954
74311424063,-2.10772,-1.24604,-2.45717
74311440460,-2.10985,-1.24629,-2.45372
74311461527,-2.11133,-1.24663,-2.45063
74311491533,-2.11211,-1.24697,-2.44757
74311500491,-2.11254,-1.24766,-2.44482
74311521560,-2.11348,-1.2479,-2.44244
74311544034,-2.11407,-1.2476,-2.44025
74311560450,-2.11348,-1.24784,-2.44024
74311581535,-2.11386,-1.24756,-2.43899
74311604018,-2.11595,-1.24765,-2.43664
74311620475,-2.11782,-1.24748,-2.4337
74311641565,-2.11999,-1.24812,-2.43096
74311664099,-2.12077,-1.24904,-2.42982
74311680512,-2.12053,-1.24936,-2.42949
74311701510,-2.12053,-1.24936,-2.42949
74311724037,-2.12053,-1.24936,-2.42949
74311740481,-2.12053,-1.24936,-2.42949
74311761562,-2.12053,-1.24936,-2.42949
74311784113,-2.12026,-1.24964,-2.42989
74311799813,-2.12026,-1.24964,-2.42989
74311821538,-2.12026,-1.24964,-2.42989
74311845506,-2.12026,-1.24964,-2.42989
74311859837,-2.12026,-1.24964,-2.42989
74311881493,-2.12036,-1.24986,-2.43005
74311904076,-2.12036,-1.24986,-2.43005
74311919795,-2.12062,-1.24974,-2.42938
74311942895,-2.12062,-1.24974,-2.42938
74311964057,-2.12062,-1.24974,-2.42938
74311979863,-2.12181,-1.25002,-2.42772
74312003008,-2.12199,-1.25054,-2.42722
74312024092,-2.12274,-1.25161,-2.42653
74312039880,-2.12259,-1.2517,-2.42655
74312063011,-2.12259,-1.2517,-2.42655
74312083954,-2.12259,-1.2517,-2.42655
74312099800,-2.12259,-1.2517,-2.42655
74312123008,-2.12259,-1.2517,-2.42655
74312144094,-2.12259,-1.2517,-2.42655
74312159810,-2.12259,-1.2517,-2.42655
74312183009,-2.12243,-1.25178,-2.42658
74312204032,-2.12254,-1.252,-2.42674
74312219823,-2.12254,-1.252,-2.42674
74312242934,-2.123,-1.25191,-2.42639
74312264011,-2.12264,-1.25139,-2.42636
74312279877,-2.12264,-1.25139,-2.42636
74312302977,-2.12264,-1.25139,-2.42636
74312340380,-2.12211,-1.25138,-2.42691
74312342750,-2.12091,-1.25127,-2.4283
74312362958,-2.12018,-1.25107,-2.42934
74312384063,-2.11997,-1.25063,-2.42901
74312407961,-2.11944,-1.25062,-2.42956
74312423013,-2.11944,-1.25062,-2.42956
74312444076,-2.11944,-1.25062,-2.42956
74312459805,-2.11944,-1.25062,-2.42956
74312482964,-2.11996,-1.25105,-2.42956
74312504013,-2.1197,-1.25092,-2.42942
74312519800,-2.11953,-1.2506,-2.42945
74312542980,-2.12093,-1.25048,-2.42757
74312564060,-2.12218,-1.25028,-2.426
74312579844,-2.12425,-1.25009,-2.42356
74312603074,-2.12591,-1.25011,-2.42182
74312624018,-2.12678,-1.24998,-2.42049
74312639815,-2.12678,-1.24998,-2.42049
74312662922,-2.12719,-1.25019,-2.42033
74312684031,-2.12719,-1.25019,-2.42033
74312699787,-2.12663,-1.25007,-2.42051
74312722980,-2.12667,-1.25018,-2.42087
74312744088,-2.12667,-1.25018,-2.42087
74312759857,-2.12651,-1.25027,-2.42089
74312782304,-2.12764,-1.25027,-2.4197
74312804130,-2.12811,-1.24976,-2.41882
74312819857,-2.12991,-1.24969,-2.41707
74312842360,-2.13098,-1.24917,-2.41555
74312865474,-2.13111,-1.24901,-2.41499
74312879836,-2.13107,-1.24889,-2.41462
74312902321,-2.1297,-1.24863,-2.41577
74312925450,-2.12899,-1.24872,-2.41689
74312939813,-2.12789,-1.24834,-2.41736
74312970461,-2.12767,-1.24815,-2.41786
74312985503,-2.12726,-1.24794,-2.41802
74312999852,-2.12632,-1.24813,-2.41926
74313022334,-2.1258,-1.24812,-2.4198
74313045542,-2.12627,-1.24761,-2.41892
74313059780,-2.1272,-1.24725,-2.41796
74313082296,-2.12705,-1.24734,-2.41798
74313105429,-2.12746,-1.24755,-2.41782
74313119848,-2.12705,-1.24734,-2.41798
74313142342,-2.12709,-1.24745,-2.41834
74313165570,-2.12465,-1.24689,-2.42048
74313179823,-2.12392,-1.24686,-2.42123
74313202317,-2.12392,-1.24686,-2.42123
74313225412,-2.12392,-1.24686,-2.42123
74313239822,-2.12402,-1.24707,-2.42139
74313262341,-2.12402,-1.24707,-2.42139
74313285476,-2.12402,-1.24707,-2.42139
74313299859,-2.12402,-1.24707,-2.42139
74313322320,-2.12402,-1.24707,-2.42139
74313345471,-2.12402,-1.24707,-2.42139
74313366530,-2.12221,-1.2469,-2.42287
74313382387,-2.12066,-1.2467,-2.42476
74313405304,-2.12066,-1.2467,-2.42476
74313426316,-2.12066,-1.2467,-2.42476
74313442292,-2.12043,-1.24664,-2.42516
74313465523,-2.11991,-1.24663,-2.4257
74313486556,-2.11991,-1.24663,-2.4257
74313502318,-2.12031,-1.24684,-2.42554
74313525493,-2.12043,-1.24664,-2.42516
74313546616,-2.12031,-1.24684,-2.42554
74313562314,-2.11991,-1.24663,-2.4257
74313585495,-2.11991,-1.24663,-2.4257
74313606541,-2.11968,-1.24637,-2.42565
74313622309,-2.11952,-1.24645,-2.42568
74313645563,-2.11952,-1.24645,-2.42568
74313666505,-2.11941,-1.24665,-2.42605
74313682332,-2.11952,-1.24645,-2.42568
74313704856,-2.119,-1.24644,-2.42621
74313726982,-2.119,-1.24644,-2.42621
74313742337,-2.119,-1.24644,-2.42621
74313764869,-2.119,-1.24644,-2.42621
74313786510,-2.11863,-1.24651,-2.42645
74313802264,-2.11863,-1.24651,-2.42645
74313824862,-2.11833,-1.24651,-2.42678
74313848159,-2.11833,-1.24651,-2.42678
74313862348,-2.11822,-1.24671,-2.42715
74313884852,-2.11822,-1.24671,-2.42715
74313908503,-2.11923,-1.24667,-2.42554
74313922351,-2.11907,-1.24675,-2.42556
74313944823,-2.11907,-1.24675,-2.42556
74313968020,-2.11896,-1.24695,-2.42594
74313982359,-2.11917,-1.24697,-2.42572
74314004822,-2.1184,-1.24683,-2.42612
74314027964,-2.12008,-1.24696,-2.42475
74314042307,-2.12004,-1.24684,-2.4244
74314064855,-2.11993,-1.24704,-2.42478
74314087960,-2.11993,-1.24704,-2.42478
74314102351,-2.11993,-1.24704,-2.42478
74314124871,-2.11952,-1.24683,-2.42494
74314148068,-2.11967,-1.24691,-2.42464
74314162312,-2.11993,-1.24704,-2.42478
74314184836,-2.11936,-1.24692,-2.42497
74314209478,-2.11936,-1.24692,-2.42497
74314222358,-2.11926,-1.2467,-2.42481
74314244822,-2.11925,-1.24711,-2.42534
74314268069,-2.11925,-1.24711,-2.42534
74314282436,-2.11925,-1.24711,-2.42534
74314304801,-2.11925,-1.24711,-2.42534
74314328036,-2.11946,-1.24673,-2.42513
74314349056,-2.11951,-1.24642,-2.42495
74314364094,-2.12023,-1.24622,-2.42393
74314378374,-2.11997,-1.24609,-2.4238
74314400939,-2.12037,-1.2463,-2.42363
74314424171,-2.11997,-1.24609,-2.4238
74314438433,-2.12048,-1.24651,-2.42379
74314461011,-2.12007,-1.2463,-2.42396
74314484124,-2.11996,-1.2465,-2.42433
74314498429,-2.1197,-1.24637,-2.4242
74314520891,-2.11913,-1.24666,-2.42492
74314544066,-2.11778,-1.24681,-2.42604
74314558474,-2.11767,-1.247,-2.42642
74314580891,-2.11767,-1.247,-2.42642
74314604058,-2.11767,-1.247,-2.42642
74314618414,-2.11752,-1.24709,-2.42644
74314640912,-2.117,-1.24708,-2.42698
74314664128,-2.117,-1.24708,-2.42698
74314678441,-2.11684,-1.24716,-2.42701
74314700934,-2.11684,-1.24716,-2.42701
74314724128,-2.11816,-1.24777,-2.42587
74314738369,-2.1184,-1.24823,-2.42546
74314760969,-2.11815,-1.2481,-2.42533
74314784082,-2.11825,-1.24832,-2.42549
74314798454,-2.11825,-1.24832,-2.42549
74314820927,-2.11825,-1.24832,-2.42549
74314844099,-2.11799,-1.24819,-2.42535
74314859934,-2.11834,-1.24887,-2.4251
74314880872,-2.11857,-1.24951,-2.42442
74314904079,-2.11866,-1.25006,-2.42403
74314918416,-2.1197,-1.25068,-2.42321
74314949800,-2.11954,-1.25076,-2.42323
74314964179,-2.11995,-1.25098,-2.42307
74314978466,-2.11995,-1.25098,-2.42307
74315000905,-2.11938,-1.25085,-2.42326
74315024136,-2.11938,-1.25085,-2.42326
74315038345,-2.11949,-1.25107,-2.42342
74315060944,-2.11964,-1.25115,-2.42312
74315084145,-2.11964,-1.25115,-2.42312
74315098450,-2.11964,-1.25115,-2.42312
74315120977,-2.11975,-1.25137,-2.42328
74315144173,-2.11948,-1.25124,-2.42314
74315158354,-2.11948,-1.25124,-2.42314
74315180986,-2.11959,-1.25145,-2.4233
74315204140,-2.11974,-1.25154,-2.423
74315218493,-2.11996,-1.25155,-2.42278
74315240961,-2.11996,-1.25155,-2.42278
74315264150,-2.11996,-1.25155,-2.42278
74315286665,-2.11969,-1.25184,-2.42319
74315300930,-2.11969,-1.25184,-2.42319
74315324191,-2.11979,-1.25206,-2.42335
74315338460,-2.11953,-1.25193,-2.42322
74315360919,-2.11953,-1.25193,-2.42322
74315384134,-2.11964,-1.25215,-2.42338
74315398514,-2.11964,-1.25215,-2.42338
74315421579,-2.12016,-1.25216,-2.42283
74315444144,-2.11979,-1.25223,-2.42308
74315458508,-2.11948,-1.25223,-2.4234
74315481001,-2.11948,-1.25223,-2.4234
74315504135,-2.11963,-1.25231,-2.4231
74315518468,-2.11832,-1.25199,-2.42433
74315540919,-2.11821,-1.25219,-2.42472
74315564110,-2.11795,-1.25206,-2.42458
74315578418,-2.11805,-1.25227,-2.42474
74315600950,-2.11746,-1.25235,-2.42594
74315624174,-2.11759,-1.25222,-2.4261
74315638503,-2.11759,-1.25222,-2.4261
74315660999,-2.1177,-1.25244,-2.42626
74315684113,-2.11758,-1.25265,-2.42665
74315698347,-2.11732,-1.25251,-2.42651
74315720928,-2.11732,-1.25251,-2.42651
74315743509,-2.11732,-1.25251,-2.42651
74315758458,-2.11866,-1.25277,-2.42683
74315780991,-2.11884,-1.25296,-2.42781
74315803499,-2.11862,-1.25298,-2.42876
74315818392,-2.11824,-1.25304,-2.42901
74315840910,-2.11824,-1.25304,-2.42901
74315863491,-2.11824,-1.25304,-2.42901
74315886669,-2.11835,-1.25326,-2.42917
74315909128,-2.11809,-1.25313,-2.42904
74315923435,-2.11809,-1.25313,-2.42904
74315938467,-2.11797,-1.25333,-2.42942
74315960965,-2.11808,-1.25355,-2.42958
74315983532,-2.11816,-1.25344,-2.42838
74315998479,-2.11848,-1.25365,-2.42759
74316020890,-2.11866,-1.25352,-2.42628
74316043444,-2.11871,-1.25402,-2.42589
74316058467,-2.1192,-1.25388,-2.42425
74316080961,-2.11988,-1.25395,-2.42267
74316103452,-2.11993,-1.25379,-2.42148
74316118425,-2.11916,-1.25386,-2.42143
74316142438,-2.11919,-1.25391,-2.42124
74316163435,-2.11947,-1.254,-2.4201
74316178470,-2.12162,-1.25427,-2.41744
74316200938,-2.12273,-1.25492,-2.41586
74316223451,-2.12235,-1.25499,-2.41611
74316238446,-2.12389,-1.25527,-2.41409
74316260898,-2.12335,-1.25526,-2.41464
74316283436,-2.12489,-1.25536,-2.41291
74316298382,-2.12628,-1.25572,-2.41091
74316320920,-2.1282,-1.25652,-2.4089
74316343444,-2.12874,-1.25663,-2.40751
74316358404,-2.12884,-1.25685,-2.40767
74316380888,-2.12884,-1.25685,-2.40767
74316403435,-2.12858,-1.25672,-2.40753
74316418421,-2.12869,-1.25694,-2.40769
74316440960,-2.12869,-1.25694,-2.40769
74316463446,-2.12911,-1.25716,-2.40752
74316478400,-2.12885,-1.25702,-2.40738
74316500895,-2.12843,-1.25723,-2.4081
74316523433,-2.12843,-1.25723,-2.4081
74316539867,-2.12896,-1.25725,-2.40754
74316560937,-2.12881,-1.25733,-2.40756
74316577314,-2.12881,-1.25733,-2.40756
74316599902,-2.12881,-1.25733,-2.40756
74316620863,-2.12821,-1.25679,-2.40778
74316637364,-2.12847,-1.25693,-2.40792
74316659819,-2.12847,-1.25693,-2.40792
74316680931,-2.12847,-1.25693,-2.40792
74316697313,-2.12847,-1.25693,-2.40792
74316719815,-2.12858,-1.25715,-2.40808
74316740947,-2.12773,-1.25714,-2.40896
74316764897,-2.12645,-1.25674,-2.41029
74316779881,-2.12645,-1.25674,-2.41029
74316800940,-2.12645,-1.25674,-2.41029
74316817376,-2.12633,-1.25695,-2.41069
74316839899,-2.12633,-1.25695,-2.41069
74316862376,-2.12746,-1.25683,-2.40911
74316877387,-2.12782,-1.25669,-2.40831
74316899866,-2.12906,-1.2568,-2.40689
74316920942,-2.1306,-1.25691,-2.40515
74316937401,-2.13135,-1.25729,-2.40437
74316959876,-2.13377,-1.25764,-2.402
74316980926,-2.13352,-1.25751,-2.40185
74316997344,-2.13352,-1.25751,-2.40185
74317019836,-2.13485,-1.25767,-2.40089
74317043844,-2.1386,-1.25805,-2.39716
74317057386,-2.14117,-1.25879,-2.39464
74317079875,-2.14309,-1.2587,-2.39225
74317100913,-2.1471,-1.25915,-2.38811
74317123461,-2.15017,-1.25937,-2.38468
74317139853,-2.15274,-1.25903,-2.38203
74317160964,-2.15581,-1.25846,-2.37859
74317177366,-2.1597,-1.25863,-2.375
74317199832,-2.16219,-1.25823,-2.3719
74317220943,-2.1643,-1.25877,-2.37015
74317237321,-2.1657,-1.25835,-2.36816
74317259903,-2.16588,-1.25813,-2.36769
74317280945,-2.16602,-1.25773,-2.36754
74317297424,-2.16602,-1.25773,-2.36754
74317321347,-2.16614,-1.25795,-2.3677
74317340909,-2.16614,-1.25795,-2.3677
74317357406,-2.1659,-1.25782,-2.36754
74317379897,-2.1659,-1.25782,-2.36754
74317400905,-2.1659,-1.25782,-2.36754
74317417367,-2.16673,-1.25813,-2.36682
74317439901,-2.16855,-1.25824,-2.36482
74317462373,-2.16994,-1.25825,-2.36339
74317477337,-2.17049,-1.25795,-2.36269
74317499839,-2.17309,-1.2582,-2.3603
74317522456,-2.17545,-1.25863,-2.35789
74317537389,-2.17697,-1.25874,-2.3562
74317559978,-2.17709,-1.25896,-2.35635
74317582416,-2.17764,-1.25897,-2.35579
74317598876,-2.17861,-1.25876,-2.35452
74317619971,-2.1811,-1.25879,-2.35198
74317642460,-2.18488,-1.25922,-2.34812
74317658870,-2.18679,-1.2598,-2.34591
74317679951,-2.18893,-1.26021,-2.34373
74317702438,-2.19055,-1.26079,-2.3418
74317718921,-2.19142,-1.26067,-2.34051
74317739921,-2.19326,-1.2612,-2.33905
74317762404,-2.1957,-1.26193,-2.33672
74317778864,-2.19735,-1.26252,-2.33478
74317799933,-2.19787,-1.26322,-2.33439
74317822410,-2.19864,-1.26362,-2.33362
74317838930,-2.20077,-1.26373,-2.33133
74317859919,-2.20274,-1.26374,-2.32932
74317882417,-2.20505,-1.26362,-2.32656
74317898918,-2.20903,-1.26395,-2.32267
74317919956,-2.21358,-1.26429,-2.3182
74317941647,-2.21451,-1.2644,-2.31644
74317964215,-2.21682,-1.26471,-2.31425
74317979187,-2.21801,-1.26458,-2.31262
74318001667,-2.21901,-1.26436,-2.31134
74318024157,-2.22013,-1.26437,-2.3102
74318039174,-2.22013,-1.26437,-2.3102
74318061653,-2.22056,-1.26459,-2.31005
74318084162,-2.22142,-1.26415,-2.30862
74318099257,-2.22403,-1.26445,-2.30612
74318121662,-2.22543,-1.2644,-2.30416
74318144160,-2.22557,-1.26462,-2.30431
74318159229,-2.22611,-1.2643,-2.30361
74318181702,-2.22684,-1.26408,-2.3026
74318204154,-2.22698,-1.26386,-2.30218
74318219159,-2.22673,-1.26391,-2.30298
74318241657,-2.22707,-1.26377,-2.30223
74318264169,-2.22707,-1.26377,-2.30223
74318279183,-2.22607,-1.26399,-2.30351
74318301681,-2.22434,-1.26394,-2.30471
74318324164,-2.22344,-1.26407,-2.30603
74318339164,-2.22344,-1.26407,-2.30603
74318361672,-2.2233,-1.26428,-2.30645
74318384159,-2.22288,-1.26407,-2.3066
74318398911,-2.22403,-1.26406,-2.30544
74318421422,-2.22483,-1.26369,-2.30394
74318444162,-2.22541,-1.26368,-2.30335
74318459223,-2.22505,-1.26376,-2.30357
74318481695,-2.22519,-1.26398,-2.30372
74318504177,-2.22532,-1.26377,-2.3033
