timestamp,roll,pitch,yaw
59022903377,1.4282,1.49528,-2.1786
59022926022,1.42737,1.49555,-2.18028
59022949707,1.42382,1.49541,-2.18318
59022963497,1.42067,1.49627,-2.18688
59022988469,1.42291,1.49808,-2.18637
59023008417,1.41612,1.49814,-2.192
59023023568,1.41736,1.49876,-2.19073
59023062860,1.41897,1.49875,-2.18806
59023064942,1.42715,1.50031,-2.18129
59023085028,1.42611,1.50124,-2.18289
59023107150,1.42382,1.50123,-2.18438
59023124891,1.42682,1.50116,-2.18051
59023145021,1.42929,1.50186,-2.17773
59023181556,1.43568,1.50345,-2.17292
59023205461,1.43854,1.50404,-2.17028
59023206286,1.4393,1.50443,-2.16882
59023225854,1.43833,1.50539,-2.17041
59023242283,1.44114,1.50741,-2.16972
59023264784,1.4411,1.50753,-2.16836
59023285844,1.44568,1.50751,-2.16259
59023302231,1.44804,1.50917,-2.16221
59023324719,1.45132,1.50927,-2.159
59023345767,1.45389,1.50983,-2.15657
59023370413,1.45477,1.51059,-2.15561
59023384755,1.45569,1.51081,-2.15441
59023405860,1.45255,1.5113,-2.15821
59023422233,1.45275,1.51226,-2.15892
59023444699,1.44373,1.51195,-2.16584
59023465809,1.44409,1.51397,-2.16841
59023482234,1.43842,1.51382,-2.17313
59023504725,1.43462,1.51429,-2.17756
59023525792,1.43407,1.51417,-2.17696
59023542270,1.43573,1.51501,-2.17494
59023564731,1.4429,1.51615,-2.16839
59023585833,1.4528,1.51791,-2.15933
59023602262,1.46101,1.51746,-2.14749
59023624791,1.47924,1.51941,-2.12989
59023645836,1.48447,1.51942,-2.1216
59023662221,1.48439,1.5204,-2.1214
59023684803,1.4921,1.52325,-2.11629
59023705805,1.52544,1.52508,-2.08297
59023722262,1.5641,1.52531,-2.04392
59023746237,1.62007,1.52728,-1.99136
59023765903,1.69008,1.52603,-1.91838
59023782220,1.77075,1.52813,-1.84344
59023804707,1.85989,1.52799,-1.75793
59023827256,1.96385,1.52903,-1.65982
59023842205,2.10338,1.5285,-1.524
59023864790,2.25491,1.52744,-1.37737
59023887261,2.39173,1.52561,-1.24926
59023902282,2.50699,1.52074,-1.14007
59023924752,2.61333,1.51638,-1.04003
59023947259,2.71171,1.51311,-0.949022
59023968325,2.80821,1.50867,-0.857311
59023984003,2.90416,1.5046,-0.765133
59024006502,2.98586,1.49791,-0.683234
59024028986,3.0553,1.4937,-0.613828
59024043964,3.10611,1.48906,-0.560018
59024066486,-3.13676,1.48481,-0.514928
59024082908,-3.10898,1.48134,-0.482645
59024103974,-3.09529,1.47891,-0.463991
59024136123,-3.08784,1.47798,-0.451919
59024141560,-3.0852,1.47802,-0.445504
59024164054,-3.08154,1.47985,-0.439354
59024186594,-3.06858,1.4819,-0.426309
59024202973,-3.04693,1.48646,-0.406849
59024223997,-3.04251,1.48977,-0.403483
59024247963,-3.03629,1.49029,-0.393652
59024262994,-3.00549,1.49121,-0.359252
59024284006,-2.97588,1.48942,-0.327995
59024306550,-2.95614,1.48901,-0.307174
59024322992,-2.94018,1.48664,-0.289328
59024344108,-2.92891,1.48404,-0.276207
59024366580,-2.92214,1.48085,-0.267417
59024383017,-2.91551,1.47709,-0.259299
59024405446,-2.90906,1.47427,-0.252246
59024426538,-2.90647,1.47225,-0.249422
59024443015,-2.90448,1.46886,-0.247293
59024464021,-2.9013,1.46693,-0.243778
59024486552,-2.89664,1.46462,-0.238609
59024518720,-2.89307,1.46199,-0.233931
59024539635,-2.88904,1.46078,-0.229015
59024546497,-2.88677,1.4598,-0.225502
59024562898,-2.88583,1.45785,-0.223206
59024583981,-2.88257,1.45803,-0.218951
59024606457,-2.87929,1.4591,-0.215989
59024622988,-2.87974,1.45949,-0.216884
59024643977,-2.88068,1.4601,-0.217704
59024684251,-2.87953,1.46057,-0.216996
59024688725,-2.87696,1.46025,-0.216061
59024703967,-2.87774,1.46028,-0.218271
59024726495,-2.87658,1.46099,-0.219069
59024742323,-2.87831,1.46213,-0.222253
59024764046,-2.87647,1.46264,-0.220933
59024786489,-2.87648,1.46251,-0.222298
59024802317,-2.88096,1.46281,-0.227641
59024825434,-2.88712,1.462,-0.233848
59024846523,-2.89207,1.4624,-0.239953
59024862305,-2.89909,1.46405,-0.249264
59024883969,-2.90444,1.46451,-0.256746
59024914108,-2.90779,1.46477,-0.261428
59024922330,-2.91093,1.46589,-0.265273
59024945547,-2.91159,1.46623,-0.266382
59024966535,-2.91289,1.46625,-0.268392
59024982287,-2.9129,1.46634,-0.268402
59025005493,-2.9129,1.46634,-0.268402
59025027910,-2.91372,1.46613,-0.269131
59025042390,-2.91455,1.46634,-0.270052
59025065451,-2.91657,1.4664,-0.271355
59025086599,-2.91615,1.46684,-0.270304
59025102266,-2.91615,1.46684,-0.270304
59025125525,-2.91835,1.46691,-0.273115
59025146606,-2.91995,1.46805,-0.275431
59025162346,-2.91881,1.46804,-0.274897
59025185486,-2.91786,1.46889,-0.27458
59025206528,-2.91755,1.46868,-0.274787
59025222324,-2.91595,1.4702,-0.273733
59025245480,-2.91734,1.46998,-0.275648
59025266572,-2.91742,1.47101,-0.276089
59025282293,-2.91742,1.47101,-0.276089
59025305492,-2.91723,1.47022,-0.275883
59025326525,-2.91638,1.47043,-0.275123
59025350425,-2.91638,1.47043,-0.275123
59025365402,-2.91723,1.47022,-0.275883
59025386509,-2.91779,1.47106,-0.275744
59025402298,-2.91799,1.47075,-0.275393
59025425428,-2.91839,1.47089,-0.275071
59025446503,-2.92048,1.47129,-0.276638
59025462260,-2.92083,1.47126,-0.276274
59025485415,-2.9203,1.47136,-0.275122
59025514007,-2.92135,1.47118,-0.275718
59025522302,-2.92135,1.47118,-0.275718
59025546111,-2.91975,1.47104,-0.273774
59025566492,-2.92009,1.47136,-0.273589
59025582285,-2.92104,1.47008,-0.27372
59025605440,-2.92137,1.4704,-0.273534
59025626560,-2.9214,1.47049,-0.273557
59025642328,-2.92311,1.47048,-0.275272
59025665480,-2.92294,1.46969,-0.275069
59025686533,-2.92228,1.47036,-0.274339
59025702284,-2.92294,1.46969,-0.275069
59025724801,-2.92311,1.47048,-0.275272
59025746653,-2.92311,1.47048,-0.275272
59025762315,-2.92311,1.47048,-0.275272
59025791506,-2.92379,1.46948,-0.275828
59025806507,-2.92611,1.47085,-0.277644
59025822266,-2.92892,1.47076,-0.279996
59025844877,-2.92913,1.47164,-0.280234
59025866544,-2.92896,1.47085,-0.280031
59025882361,-2.92896,1.47085,-0.280031
59025904821,-2.92896,1.47085,-0.280031
59025927951,-2.92809,1.47064,-0.279067
59025942304,-2.92809,1.47064,-0.279067
59025964785,-2.93078,1.47186,-0.282236
59025987926,-2.93078,1.47186,-0.282236
59026002251,-2.93078,1.47186,-0.282236
59026024805,-2.93078,1.47186,-0.282236
59026047970,-2.93062,1.47107,-0.282031
59026062304,-2.93083,1.47195,-0.282274
59026084837,-2.93066,1.47115,-0.282069
59026108026,-2.93153,1.47094,-0.282836
59026122313,-2.93174,1.47182,-0.283081
59026144808,-2.93174,1.47182,-0.283081
59026168002,-2.93266,1.47212,-0.284093
59026190559,-2.93266,1.47212,-0.284093
59026204853,-2.93266,1.47212,-0.284093
59026227974,-2.9325,1.47132,-0.283888
59026242340,-2.93266,1.47212,-0.284093
59026264840,-2.9327,1.47221,-0.284135
59026288001,-2.9325,1.47132,-0.283888
59026302328,-2.9327,1.47221,-0.284135
59026324833,-2.9327,1.47221,-0.284135
59026348483,-2.9327,1.47221,-0.284135
59026362417,-2.93362,1.47208,-0.284948
59026384782,-2.9345,1.47229,-0.285925
59026407987,-2.9345,1.47229,-0.285925
59026429076,-2.933,1.47242,-0.284059
59026444824,-2.93336,1.47284,-0.283904
59026467948,-2.93268,1.47267,-0.282767
59026489099,-2.93412,1.47335,-0.283434
59026504792,-2.9336,1.4727,-0.281894
59026528025,-2.93395,1.47228,-0.281336
59026549105,-2.93627,1.47275,-0.282784
59026564917,-2.93554,1.4725,-0.281606
59026588068,-2.93467,1.47272,-0.280828
59026616584,-2.93394,1.47247,-0.279653
59026624852,-2.9333,1.47243,-0.278409
59026647400,-2.93274,1.47257,-0.277246
59026669039,-2.93274,1.47173,-0.276849
59026684860,-2.93306,1.47208,-0.27666
59026707330,-2.93413,1.47192,-0.277273
59026729053,-2.9352,1.47134,-0.27769
59026744885,-2.93843,1.47255,-0.280341
59026767330,-2.93827,1.47174,-0.280138
59026789060,-2.93827,1.47174,-0.280138
59026804858,-2.9376,1.47285,-0.279609
59026828821,-2.93946,1.4723,-0.280917
59026850467,-2.9394,1.47138,-0.280474
59026864775,-2.94048,1.47206,-0.281493
59026887394,-2.94135,1.47227,-0.282464
59026911918,-2.94171,1.47272,-0.282316
59026924807,-2.94079,1.47117,-0.2807
59026947287,-2.9409,1.47106,-0.280458
59026970503,-2.9409,1.47106,-0.280458
59026984831,-2.9411,1.47195,-0.280704
59027014132,-2.9411,1.47195,-0.280704
59027030561,-2.94284,1.47194,-0.282442
59027044877,-2.94284,1.47194,-0.282442
59027067338,-2.94284,1.47194,-0.282442
59027090486,-2.94284,1.47194,-0.282442
59027104906,-2.94457,1.47194,-0.28418
59027127308,-2.94443,1.47114,-0.283979
59027150527,-2.94443,1.47114,-0.283979
59027180525,-2.94443,1.47114,-0.283979
59027187371,-2.94463,1.47203,-0.284231
59027218023,-2.94463,1.47203,-0.284231
59027224798,-2.94463,1.47203,-0.284231
59027247420,-2.9455,1.47182,-0.285001
59027270513,-2.94637,1.47202,-0.285972
59027291525,-2.94637,1.47202,-0.285972
59027307330,-2.94623,1.47122,-0.285771
59027330459,-2.94623,1.47122,-0.285771
59027351503,-2.94984,1.47222,-0.289778
59027367416,-2.94984,1.47222,-0.289778
59027390525,-2.94984,1.47222,-0.289778
59027413452,-2.95057,1.47162,-0.290551
59027427314,-2.95107,1.47265,-0.290737
59027450542,-2.95195,1.47244,-0.291512
59027471606,-2.95202,1.47253,-0.291576
59027495509,-2.9529,1.47274,-0.292557
59027510517,-2.95651,1.47301,-0.2965
59027531665,-2.95761,1.4737,-0.297559
59027547497,-2.96062,1.47426,-0.300639
59027570403,-2.96437,1.47442,-0.304376
59027591627,-2.96903,1.47491,-0.309459
59027607445,-2.9727,1.47596,-0.313919
59027629836,-2.98008,1.47582,-0.321735
59027651624,-2.99033,1.47661,-0.332323
59027666624,-2.99916,1.47714,-0.341231
59027689082,-3.00902,1.47788,-0.351295
59027703455,-3.01389,1.47838,-0.35606
59027734777,-3.02392,1.47927,-0.366421
59027740940,-3.03722,1.48225,-0.380074
59027763487,-3.05297,1.48435,-0.395434
59027786580,-3.06955,1.48694,-0.411359
59027800960,-3.08908,1.49147,-0.430382
59027823486,-3.11628,1.49567,-0.456622
59027846588,-3.14064,1.50061,-0.477782
59027860937,3.11414,1.50597,-0.505048
59027884835,3.08267,1.51074,-0.535473
59027906587,3.04376,1.51432,-0.573695
59027920966,2.9986,1.51775,-0.618001
59027943502,2.94806,1.51985,-0.666707
59027966633,2.88897,1.52354,-0.725479
59027980952,2.82317,1.52747,-0.791595
59028003423,2.72485,1.53038,-0.889073
59028026574,2.58231,1.53453,-1.03162
59028040943,2.42086,1.53765,-1.19179
59028063361,2.21688,1.53989,-1.39477
59028086605,1.97532,1.53799,-1.63089
59028109177,1.75925,1.5387,-1.84725
59028123499,1.55123,1.53634,-2.051
59028146639,1.35816,1.53368,-2.24632
59028160943,1.19401,1.5277,-2.4114
59028183454,1.04945,1.51778,-2.5553
59028206529,0.929084,1.50698,-2.67788
59028220977,0.842472,1.49167,-2.76084
59028244972,0.783926,1.47841,-2.81261
59028266600,0.738224,1.46766,-2.84941
59028280978,0.691824,1.45794,-2.88894
59028303502,0.668398,1.44575,-2.9118
59028327148,0.672213,1.4325,-2.9075
59028340951,0.674486,1.41939,-2.90086
59028363472,0.679061,1.41015,-2.89039
59028386662,0.689867,1.40447,-2.8748
59028400994,0.703381,1.39915,-2.85417
59028423506,0.709354,1.39505,-2.83869
59028446571,0.717774,1.39332,-2.82237
59028460889,0.736639,1.39206,-2.79412
59028483408,0.74985,1.39474,-2.7695
59028506587,0.778494,1.3962,-2.73491
59028520896,0.818819,1.39287,-2.69684
59028543484,0.862901,1.3885,-2.66419
59028566642,0.905337,1.38106,-2.63923
59028581006,0.945659,1.376,-2.60934
59028603520,0.988207,1.37119,-2.57377
59028626614,1.00835,1.36348,-2.55548
59028640937,1.01214,1.35478,-2.54725
59028663476,1.01224,1.34735,-2.54688
59028685901,1.02169,1.33848,-2.53928
59028700872,1.03518,1.32928,-2.52489
59028723441,1.04707,1.32183,-2.50917
59028745984,1.05744,1.31565,-2.4967
59028760953,1.07812,1.31084,-2.47489
59028783585,1.10053,1.31061,-2.44783
59028805979,1.12386,1.31165,-2.42222
59028821031,1.15176,1.31147,-2.39324
59028843590,1.17706,1.31233,-2.36757
59028876139,1.20247,1.31017,-2.34457
59028882447,1.22586,1.30885,-2.31953
59028903448,1.25608,1.3091,-2.28778
59028925968,1.28994,1.30949,-2.25188
59028940868,1.33087,1.31127,-2.20657
59028964980,1.36906,1.3135,-2.16391
59028985995,1.4032,1.31552,-2.12744
59029002499,1.4412,1.31655,-2.08856
59029023518,1.48969,1.3168,-2.03918
59029045969,1.54432,1.31775,-1.98335
59029061041,1.59655,1.31874,-1.93034
59029083457,1.63955,1.31716,-1.88716
59029105991,1.67907,1.31593,-1.84704
59029120988,1.7224,1.31377,-1.80254
59029143504,1.75636,1.3133,-1.7651
59029165989,1.76829,1.31332,-1.75486
59029181016,1.77669,1.31472,-1.74221
59029203503,1.80161,1.31621,-1.71533
59029226020,1.82691,1.31329,-1.68918
59029240998,1.84765,1.31303,-1.66689
59029263440,1.86354,1.31298,-1.64942
59029286015,1.87213,1.3155,-1.6399
59029300956,1.87924,1.31774,-1.63019
59029323471,1.88798,1.31818,-1.62017
59029345994,1.89543,1.32021,-1.60998
59029361030,1.90437,1.32269,-1.60215
59029399794,1.91012,1.32399,-1.5955
59029406008,1.91573,1.32618,-1.58998
59029420995,1.91945,1.32652,-1.5866
59029443473,1.92233,1.32628,-1.58554
59029465867,1.92683,1.32584,-1.5833
59029482439,1.93229,1.32475,-1.5797
59029503452,1.93693,1.32448,-1.57561
59029525961,1.94488,1.32319,-1.56791
59029542481,1.95254,1.3225,-1.55924
59029563471,1.96103,1.32301,-1.55143
59029585919,1.9683,1.32305,-1.54476
59029602405,1.97395,1.32353,-1.5385
59029623458,1.98171,1.32388,-1.53069
59029645927,1.98925,1.32341,-1.52169
59029662412,1.99614,1.32394,-1.51436
59029683443,2.00167,1.32387,-1.509
59029705942,2.0074,1.32418,-1.50229
59029722435,2.0116,1.32462,-1.4979
59029743476,2.01494,1.32429,-1.49451
59029766012,2.01801,1.32451,-1.49172
59029782450,2.01947,1.32382,-1.49233
59029803505,2.01944,1.32265,-1.49273
59029826013,2.01853,1.32216,-1.49463
59029842421,2.01884,1.32112,-1.4951
59029863608,2.02081,1.32063,-1.49414
59029886002,2.02109,1.31968,-1.49451
59029902493,2.02118,1.31857,-1.49541
59029923543,2.022,1.31747,-1.49591
59029955554,2.02123,1.31663,-1.49811
59029962495,2.02154,1.3157,-1.49849
59029983568,2.01886,1.31502,-1.50233
59030005971,2.01474,1.31422,-1.5068
59030022447,2.01107,1.31454,-1.51149
59030043588,2.00815,1.31456,-1.51445
59030066034,2.00547,1.31424,-1.51682
59030082459,2.00185,1.31456,-1.52042
59030103493,2.00118,1.31458,-1.52105
59030126041,2.00064,1.31483,-1.52183
59030142452,1.99854,1.3153,-1.52502
59030163539,1.99854,1.3153,-1.52502
59030186066,2,1.31528,-1.52287
59030202446,2.00108,1.31596,-1.52101
59030231713,2.00241,1.31659,-1.51857
59030245997,2.0034,1.31787,-1.51578
59030268459,2.0055,1.31902,-1.51188
59030283400,2.00602,1.32003,-1.50954
59030305935,2.00996,1.32174,-1.50403
59030322413,2.01382,1.32311,-1.49774
59030343413,2.0154,1.32431,-1.4944
59030366086,2.01788,1.32609,-1.49139
59030382452,2.02093,1.32659,-1.48837
59030403469,2.02195,1.32671,-1.48678
59030426006,2.0235,1.32717,-1.48534
59030443857,2.02588,1.32729,-1.48306
59030466512,2.02906,1.32745,-1.47959
59030485968,2.03249,1.32736,-1.47667
59030508505,2.03453,1.32684,-1.47431
59030524924,2.03639,1.327,-1.47279
59030546014,2.0366,1.32674,-1.47209
59030562497,2.0366,1.32674,-1.47209
59030584989,2.03655,1.3271,-1.47275
59030606015,2.03644,1.32664,-1.47212
59030622461,2.03639,1.327,-1.47279
59030644933,2.03655,1.3271,-1.47275
59030666074,2.03651,1.32708,-1.47251
59030682496,2.03589,1.32677,-1.47274
59030704920,2.03589,1.32677,-1.47274
59030725996,2.03589,1.32677,-1.47274
59030742526,2.03585,1.32713,-1.47341
59030764915,2.03739,1.32709,-1.47094
59030787399,2.04029,1.32705,-1.46778
59030802414,2.04211,1.32679,-1.46613
59030824868,2.04489,1.32706,-1.46314
59030846041,2.04534,1.32696,-1.4629
59030862463,2.04559,1.32704,-1.46248
59030884894,2.04726,1.32668,-1.45984
59030909342,2.04931,1.32697,-1.45854
59030922477,2.05158,1.327,-1.45655
59030944940,2.0515,1.32655,-1.45617
59030966030,2.05163,1.32664,-1.45588
59030982428,2.05093,1.32666,-1.45653
59031004905,2.05219,1.3269,-1.45514
59031026068,2.05442,1.32691,-1.45289
59031042448,2.05526,1.32612,-1.45159
59031064948,2.057,1.32659,-1.45024
59031094187,2.05759,1.32657,-1.44971
59031102532,2.05836,1.3262,-1.44865
59031124909,2.05962,1.32607,-1.44765
59031145940,2.06182,1.32568,-1.44556
59031162418,2.06548,1.32489,-1.44178
59031184968,2.06764,1.32478,-1.43948
59031207524,2.06983,1.32507,-1.43703
59031222449,2.07072,1.32552,-1.43593
59031244940,2.07268,1.32573,-1.43388
59031266067,2.07285,1.32584,-1.43384
59031282566,2.07268,1.32573,-1.43388
59031311007,2.07268,1.32573,-1.43388
59031342993,2.07268,1.32573,-1.43388
59031344569,2.07268,1.32573,-1.43388
59031364092,2.07268,1.32573,-1.43388
59031386593,2.07285,1.32584,-1.43384
59031401590,2.07282,1.32582,-1.43358
59031424115,2.07285,1.32584,-1.43384
59031446680,2.0729,1.32548,-1.43318
59031461631,2.0729,1.32548,-1.43318
59031491654,2.07359,1.3259,-1.433
59031506650,2.07359,1.3259,-1.433
59031521594,2.07359,1.3259,-1.433
59031544176,2.07511,1.3259,-1.43115
59031568056,2.07698,1.32643,-1.42924
59031582412,2.07716,1.32654,-1.42919
59031604103,2.07716,1.32654,-1.42919
59031626610,2.07716,1.32654,-1.42919
59031643117,2.07716,1.32654,-1.42919
59031664173,2.07903,1.32675,-1.42724
59031686639,2.07927,1.32726,-1.42702
59031703082,2.07987,1.32797,-1.4267
59031724136,2.08172,1.32814,-1.42421
59031746614,2.08248,1.32851,-1.42339
59031769118,2.08343,1.32899,-1.42252
59031784118,2.08423,1.32939,-1.42196
59031806610,2.08444,1.32985,-1.4212
59031823057,2.08531,1.33065,-1.42046
59031844173,2.0865,1.33116,-1.41863
59031866636,2.08704,1.33133,-1.41679
59031883099,2.08865,1.33213,-1.41565
59031904146,2.08869,1.33246,-1.41466
59031928127,2.08815,1.3333,-1.41495
59031942446,2.08815,1.3333,-1.41495
59031964174,2.08815,1.3333,-1.41495
59031986642,2.08821,1.33366,-1.41423
59032010569,2.08858,1.33418,-1.41391
59032024139,2.08764,1.33476,-1.41377
59032046648,2.08756,1.33579,-1.41361
59032063056,2.08756,1.33579,-1.41361
59032084130,2.08756,1.33579,-1.41361
59032106667,2.08756,1.33579,-1.41361
59032122863,2.08674,1.33582,-1.41437
59032144207,2.08693,1.33593,-1.41431
59032168096,2.08693,1.33593,-1.41431
59032183091,2.08674,1.33582,-1.41437
59032204116,2.08674,1.33582,-1.41437
59032226637,2.08587,1.33622,-1.41581
59032243107,2.08448,1.33679,-1.41814
59032264156,2.08381,1.33644,-1.41812
59032286641,2.08448,1.33679,-1.41814
59032302434,2.08263,1.33628,-1.41926
59032324151,2.0813,1.33679,-1.42097
59032346649,2.08058,1.33682,-1.42164
59032362415,2.08058,1.33682,-1.42164
59032384133,2.07985,1.33685,-1.42231
59032406645,2.07923,1.33657,-1.4231
59032422405,2.07923,1.33657,-1.4231
59032443891,2.07942,1.33668,-1.42305
59032466664,2.0815,1.33692,-1.42119
59032490571,2.08293,1.33684,-1.41957
59032505567,2.08487,1.33657,-1.41681
59032526682,2.08481,1.33693,-1.41722
59032542443,2.08705,1.33723,-1.41476
59032565588,2.0883,1.33775,-1.4129
59032586647,2.08952,1.33751,-1.4108
59032602421,2.09137,1.338,-1.4094
59032625566,2.09194,1.33774,-1.40733
59032646650,2.09341,1.3384,-1.40567
59032663120,2.09357,1.33872,-1.4043
59032685617,2.09323,1.33925,-1.40437
59032706644,2.09422,1.33928,-1.40301
59032722429,2.0944,1.33936,-1.40268
59032745571,2.09334,1.33842,-1.40316
59032766635,2.09245,1.3387,-1.40423
59032782475,2.09326,1.33901,-1.40254
59032805618,2.09676,1.33951,-1.39919
59032826671,2.09853,1.33937,-1.39543
59032842433,2.09798,1.33964,-1.39464
59032865598,2.09589,1.33997,-1.39528
59032886636,2.09543,1.34007,-1.39527
59032902459,2.09523,1.33994,-1.39506
59032925617,2.09193,1.33987,-1.39815
59032946655,2.0852,1.3404,-1.40466
59032962445,2.07346,1.34075,-1.41519
59032985584,2.06123,1.34169,-1.42681
59033006643,2.05062,1.34206,-1.43798
59033022407,2.04108,1.34184,-1.44943
59033045408,2.03034,1.34081,-1.46061
59033066643,2.01602,1.34066,-1.47522
59033082452,2.00435,1.34099,-1.48671
59033105603,1.99447,1.34124,-1.49705
59033126672,1.98252,1.34112,-1.50919
59033142423,1.97125,1.34086,-1.51927
59033165582,1.95812,1.34123,-1.53181
59033186629,1.9431,1.34208,-1.54696
59033202460,1.92773,1.34239,-1.56458
59033225616,1.9128,1.34187,-1.58227
59033246669,1.89902,1.34067,-1.59899
59033262432,1.88104,1.33902,-1.61983
59033285409,1.85954,1.33712,-1.64444
59033306682,1.84507,1.33559,-1.66483
59033322913,1.83062,1.33344,-1.68832
59033344944,1.81694,1.32932,-1.71234
59033366662,1.80606,1.32463,-1.73091
59033382436,1.7783,1.32201,-1.7623
59033404908,1.76034,1.32225,-1.7826
59033426687,1.74736,1.32261,-1.79617
59033442464,1.72854,1.32367,-1.81542
59033465609,1.7163,1.32447,-1.83014
59033488109,1.70385,1.32435,-1.84646
59033502427,1.68655,1.32552,-1.86588
59033524940,1.66653,1.32753,-1.88878
59033548074,1.64721,1.3295,-1.91235
59033562889,1.63463,1.33158,-1.92629
59033585048,1.62463,1.33571,-1.93871
59033608106,1.61216,1.33654,-1.9564
59033622463,1.59731,1.33904,-1.97321
59033644931,1.57573,1.34176,-1.99717
59033668091,1.55969,1.34529,-2.01598
59033682434,1.54698,1.34827,-2.03183
59033704980,1.534,1.35187,-2.04696
59033728105,1.52352,1.35454,-2.06276
59033742461,1.51073,1.35608,-2.0812
59033764961,1.50685,1.35837,-2.08474
59033788120,1.50967,1.36372,-2.08081
59033802436,1.50714,1.36812,-2.08425
59033824981,1.49746,1.37384,-2.09238
59033848133,1.48408,1.38062,-2.10314
59033869200,1.46527,1.38626,-2.1212
59033884960,1.4478,1.39104,-2.14226
59033908131,1.43232,1.39408,-2.16318
59033929167,1.42041,1.39663,-2.17961
59033944987,1.41282,1.39868,-2.19372
59033968145,1.40567,1.39872,-2.20449
59033989191,1.3937,1.39863,-2.22135
59034004965,1.41337,1.39859,-2.20325
59034028102,1.42349,1.40111,-2.19597
59034049166,1.43981,1.40314,-2.18739
59034064936,1.46031,1.40426,-2.17297
59034088129,1.47376,1.40438,-2.16188
59034109180,1.48162,1.40431,-2.15582
59034124959,1.49192,1.40424,-2.14678
59034148522,1.50881,1.40499,-2.13023
59034169177,1.53077,1.40667,-2.10871
59034184957,1.55991,1.40873,-2.08126
59034207455,1.59027,1.40882,-2.05075
59034229191,1.62041,1.40907,-2.01955
59034244962,1.6477,1.40784,-1.99128
59034267457,1.67248,1.40751,-1.96563
59034289156,1.70037,1.40799,-1.92975
59034304973,1.72549,1.41048,-1.90231
59034327468,1.7423,1.41118,-1.88729
59034349204,1.74873,1.41193,-1.87911
59034364981,1.74369,1.41154,-1.8805
59034394192,1.73378,1.41041,-1.88807
59034410623,1.72329,1.40899,-1.89696
59034424963,1.71853,1.40847,-1.90399
59034447459,1.72153,1.40775,-1.90284
59034470665,1.73312,1.40675,-1.8931
59034484981,1.74606,1.40476,-1.88066
59034507480,1.75476,1.40367,-1.87373
59034530626,1.75905,1.40133,-1.86847
59034544963,1.77778,1.40161,-1.84728
59034567446,1.79446,1.40343,-1.83057
59034590611,1.81,1.40286,-1.81411
59034605010,1.81998,1.40122,-1.79962
59034627491,1.82704,1.39907,-1.78576
59034650629,1.83756,1.39605,-1.77224
59034671695,1.85298,1.39213,-1.75524
59034687467,1.86662,1.38749,-1.73932
59034710602,1.86583,1.38186,-1.73586
59034739204,1.87559,1.37567,-1.71873
59034747475,1.88498,1.37148,-1.69981
59034770651,1.89659,1.36618,-1.68489
59034791720,1.8982,1.3614,-1.68163
59034807453,1.89735,1.35648,-1.68298
59034830638,1.89282,1.35248,-1.68559
59034844964,1.894,1.34952,-1.68193
59034867497,1.90179,1.34586,-1.66901
59034890659,1.91105,1.34166,-1.65488
59034911715,1.89721,1.33623,-1.66231
59034927478,1.90041,1.33372,-1.6519
59034950628,1.92282,1.33107,-1.62598
59034971678,1.94181,1.32739,-1.60379
59034987454,1.94583,1.32423,-1.59799
59035001029,1.93336,1.32095,-1.6083
59035023501,1.91837,1.32065,-1.62517
59035046722,1.90743,1.31919,-1.6466
59035061001,1.90415,1.3166,-1.66119
59035083559,1.90224,1.31345,-1.67164
59035106704,1.90938,1.31068,-1.67107
59035121089,1.936,1.30833,-1.65492
59035143578,1.96702,1.30608,-1.63287
59035166705,2.00221,1.30403,-1.60337
59035181061,2.04192,1.30162,-1.56882
59035203556,2.08274,1.29906,-1.53559
59035226743,2.12454,1.29575,-1.50314
59035241010,2.16835,1.29156,-1.47105
59035263544,2.2167,1.28688,-1.43663
59035286697,2.26555,1.28078,-1.40051
59035301073,2.3199,1.27264,-1.35826
59035323547,2.37111,1.2622,-1.31606
59035346698,2.41327,1.25002,-1.28138
59035361030,2.45075,1.23508,-1.24664
59035384979,2.49431,1.22072,-1.20903
59035406689,2.54122,1.20757,-1.16979
59035429236,2.59886,1.19625,-1.12154
59035443505,2.65952,1.1852,-1.07059
59035467440,2.71828,1.17235,-1.02008
59035481040,2.77718,1.15906,-0.967047
59035503566,2.83458,1.14997,-0.913347
59035526517,2.89518,1.14339,-0.858584
59035541047,2.9702,1.1366,-0.802846
59035564968,3.03825,1.1024,-0.755953
59035586737,3.07881,1.05575,-0.718363
59035601030,3.10383,1.00616,-0.67994
59035623534,3.1247,0.957808,-0.653868
59035654891,3.12786,0.914446,-0.631825
59035660998,3.12233,0.879326,-0.614275
59035683534,3.11876,0.868203,-0.601337
59035706693,3.12009,0.873299,-0.588587
59035721056,3.1105,0.881511,-0.574419
59035743566,3.10086,0.906604,-0.568292
59035766737,3.09044,0.94618,-0.562735
59035781029,3.07726,0.994536,-0.557131
59035803538,3.05968,1.05602,-0.554732
59035826714,3.03956,1.12881,-0.556403
59035841027,3.01667,1.20929,-0.566512
59035863551,2.9798,1.29717,-0.597049
59035894889,2.8977,1.39141,-0.673497
59035901030,2.61916,1.48594,-0.948743
59035923569,0.946381,1.51985,-2.6192
59035946710,0.298859,1.43053,3.02368
59035969195,0.17159,1.32875,2.91016
59035983542,0.121958,1.22589,2.87474
59036007157,0.0911629,1.12801,2.85919
59036021022,0.0717111,1.04136,2.85313
59036043550,0.0568651,0.969371,2.8581
59036066714,0.0339067,0.904918,2.86606
59036081054,0.0220308,0.864674,2.87787
59036103583,0.0259068,0.857647,2.885
59036134905,0.0524142,0.908248,2.90531
59036141089,0.0818438,0.966216,2.93061
59036163584,0.0926089,1.00879,2.94781
59036186723,0.0896133,1.03549,2.96513
59036201092,0.085246,1.07261,2.97232
59036223572,0.0374791,1.13286,2.98131
59036246735,0.0955823,1.17984,3.02958
59036261055,0.134214,1.21729,3.09282
59036283573,0.169724,1.2534,-3.12535
59036306081,0.200896,1.27791,-3.08518
59036329243,0.254387,1.30044,-3.03809
59036343588,0.306071,1.32169,-2.99509
59036366043,0.370157,1.33967,-2.93211
59036381051,0.429364,1.35435,-2.86378
59036403554,0.496429,1.36429,-2.79262
59036426739,0.562868,1.37078,-2.73156
59036449209,0.6398,1.37799,-2.66673
59036464263,0.716166,1.38537,-2.59407
59036486769,0.781644,1.38984,-2.52704
59036501089,0.866279,1.39061,-2.4418
59036524005,0.960876,1.39087,-2.34294
59036546786,1.04645,1.40043,-2.24356
59036561066,1.15369,1.41015,-2.13916
59036584257,1.2848,1.41296,-2.01473
59036606721,1.4077,1.41126,-1.88977
59036621068,1.52432,1.40632,-1.77303
59036644242,1.64439,1.39819,-1.65242
59036666787,1.75661,1.39136,-1.53891
59036681091,1.87231,1.38198,-1.41994
59036704242,1.98958,1.37201,-1.29924
59036728161,2.10797,1.35812,-1.18213
59036741076,2.22492,1.34079,-1.06728
59036763589,2.32547,1.32061,-0.972563
59036786755,2.41529,1.29852,-0.889483
59036809253,2.50183,1.27495,-0.811731
59036823591,2.58405,1.24725,-0.736292
59036846716,2.6614,1.21599,-0.66491
59036861066,2.73592,1.17861,-0.596335
59036883565,2.80921,1.13707,-0.526924
59036906750,2.87333,1.09062,-0.46228
59036921071,2.93536,1.03443,-0.411807
59036943608,3.00639,0.991608,-0.389795
59036966718,3.0485,0.938993,-0.372368
59036981054,3.06811,0.886496,-0.350827
59037003580,3.08475,0.846985,-0.337233
59037026766,3.1077,0.825333,-0.325956
59037050655,3.10987,0.817112,-0.335578
59037063554,3.0938,0.814813,-0.353428
59037088152,3.06211,0.830111,-0.364894
59037102500,3.03009,0.859671,-0.380963
59037125060,2.98611,0.89856,-0.411355
59037146715,2.92465,0.953865,-0.447966
59037163223,2.86399,1.02282,-0.485824
59037183564,2.81777,1.10267,-0.528031
59037206743,2.77959,1.18845,-0.577291
59037222501,2.74261,1.27448,-0.640005
59037243560,2.65676,1.35879,-0.759065
59037268149,2.39283,1.43867,-1.04538
59037282546,1.59388,1.48697,-1.83489
59037328737,0.681188,1.45354,-2.73452
59037331102,0.35112,1.37621,-3.05679
59037342533,0.213584,1.29317,3.09909
59037363579,0.145624,1.21095,3.04324
59037386777,0.100162,1.13284,3.01801
59037402535,0.0683608,1.06063,3.00381
59037423587,0.0535841,0.998492,2.99565
59037446111,0.0554159,0.950745,2.99108
59037462549,0.0615608,0.920546,2.98814
59037483616,0.0852968,0.940052,2.99283
59037506141,0.123605,0.981542,3.00877
59037522504,0.165285,1.03447,3.03625
59037543602,0.198176,1.07514,3.06349
59037569036,0.227348,1.1074,3.0968
59037582538,0.223573,1.14486,3.09713
59037603582,0.175099,1.19737,3.11445
59037626108,0.227311,1.23832,-3.11007
59037644036,0.357216,1.27974,-3.00781
59037666519,0.441429,1.30853,-2.88335
59037686087,0.525616,1.33586,-2.77744
59037710061,0.623497,1.35638,-2.67828
59037724997,0.75413,1.38114,-2.56421
59037746156,0.919955,1.39885,-2.40971
59037762538,1.0927,1.4096,-2.2276
59037783580,1.24158,1.41692,-2.06538
59037806095,1.37569,1.41954,-1.92979
59037822556,1.54219,1.41744,-1.77469
59037843597,1.74876,1.40974,-1.57821
59037866162,1.9232,1.39517,-1.40707
59037882561,2.03911,1.37739,-1.29005
59037911753,2.11059,1.36048,-1.21896
59037926095,2.16806,1.34647,-1.16429
59037942559,2.21362,1.33384,-1.1229
59037963586,2.25421,1.3222,-1.08574
59038003130,2.2973,1.31061,-1.04743
59038005517,2.34163,1.29748,-1.01016
59038024998,2.38268,1.28303,-0.974747
59038046132,2.41847,1.26777,-0.945555
59038063176,2.45633,1.25119,-0.911614
59038092553,2.50116,1.23494,-0.873419
59038106092,2.54543,1.21846,-0.834942
59038122525,2.58546,1.20033,-0.799122
59038145093,2.61716,1.18152,-0.772321
59038166136,2.64673,1.16193,-0.74766
59038190056,2.68121,1.1425,-0.718989
59038211266,2.72221,1.12238,-0.686476
59038234330,2.7637,1.10265,-0.652137
59038242540,2.80542,1.08041,-0.618477
59038265093,2.85033,1.05867,-0.585687
59038286099,2.90505,1.04295,-0.549691
59038302585,2.96145,1.01362,-0.508219
59038325061,3.01351,0.983429,-0.473738
59038354266,3.04807,0.942362,-0.448782
59038362546,3.0613,0.900025,-0.430893
59038386474,3.06139,0.877046,-0.427434
59038406110,3.06921,0.852024,-0.404611
59038436752,3.073,0.83429,-0.392512
59038445056,3.08636,0.829114,-0.380256
59038466129,3.10743,0.822458,-0.384055
59038482554,3.12489,0.844663,-0.380634
59038505050,3.13592,0.875026,-0.390637
59038526105,3.1308,0.916341,-0.41154
59038542540,3.09611,0.962819,-0.436752
59038565051,3.05362,1.01648,-0.462194
59038587524,3.03279,1.07156,-0.486353
59038602559,3.017,1.12693,-0.512055
59038626499,3.00449,1.183,-0.537394
59038654288,2.98253,1.23871,-0.562885
59038662597,2.9393,1.29449,-0.59559
59038685709,2.86812,1.34967,-0.645449
59038706780,2.76044,1.4041,-0.727089
59038723187,2.59078,1.45542,-0.87374
59038744281,2.25303,1.49871,-1.1935
59038766787,1.52926,1.5211,-1.90246
59038781809,0.793467,1.50747,-2.62522
59038804286,0.491901,1.47831,-2.91314
59038826522,0.452502,1.46253,-2.93841
59038842185,0.441523,1.4514,-2.93274
59038865733,0.444069,1.44418,-2.91368
59038886755,0.460097,1.44074,-2.88373
59038901781,0.532275,1.44069,-2.80455
59038924267,0.583524,1.44255,-2.74728
59038946779,0.6926,1.44213,-2.64068
59038961782,0.686303,1.43567,-2.64834
59038984254,0.668018,1.43387,-2.65351
59039006762,0.672621,1.44442,-2.63592
59039023180,0.703757,1.45529,-2.60014
59039044285,0.729954,1.45504,-2.57739
59039074258,0.755768,1.44936,-2.5532
59039083620,0.754723,1.44285,-2.55328
59039104387,0.730259,1.43593,-2.57689
59039134739,0.70559,1.4296,-2.60168
59039158853,0.676757,1.42374,-2.6306
59039164282,0.653791,1.41877,-2.65482
59039188271,0.642718,1.41182,-2.66562
59039203227,0.633079,1.40485,-2.674
59039231758,0.629426,1.4003,-2.67488
59039246783,0.639001,1.3968,-2.66687
59039263217,0.646934,1.39392,-2.66044
59039285758,0.636886,1.38991,-2.66879
59039308254,0.619963,1.38566,-2.68402
59039331136,0.601586,1.37792,-2.70364
59039347195,0.597238,1.36764,-2.70936
59039366782,0.593291,1.35725,-2.71118
59039383698,0.577612,1.34822,-2.72172
59039404307,0.56752,1.33934,-2.73167
59039426748,0.56903,1.33133,-2.72872
59039443278,0.564342,1.32407,-2.72533
59039465700,0.560417,1.31758,-2.72549
59039486891,0.554551,1.31166,-2.7318
59039503215,0.557514,1.30404,-2.73233
59039525721,0.560165,1.29651,-2.72618
59039546784,0.557945,1.29313,-2.71953
59039563233,0.567344,1.29301,-2.7058
59039584273,0.584059,1.29306,-2.6862
59039606803,0.601156,1.29568,-2.66322
59039639404,0.619285,1.3021,-2.63595
59039644272,0.638003,1.31037,-2.60761
59039668263,0.670112,1.31737,-2.57016
59039683240,0.704782,1.32291,-2.53074
59039704280,0.737084,1.32584,-2.49479
59039726791,0.757817,1.33441,-2.46437
59039743215,0.777212,1.34072,-2.44049
59039764308,0.790986,1.34395,-2.41897
59039786842,0.809548,1.34757,-2.39131
59039803268,0.839187,1.34921,-2.35861
59039824034,0.876206,1.35409,-2.3218
59039854305,0.920312,1.35787,-2.27892
59039863242,0.968322,1.362,-2.23048
59039884269,1.0156,1.36633,-2.18269
59039914327,1.07474,1.37093,-2.12621
59039922603,1.1,1.37218,-2.10583
59039945759,1.11585,1.37464,-2.09633
59039974279,1.12619,1.37453,-2.09371
59039982583,1.14767,1.37305,-2.08082
59040005716,1.16568,1.37319,-2.06286
59040026783,1.19044,1.37313,-2.0382
59040042557,1.22082,1.37565,-2.00944
59040065787,1.24911,1.37917,-1.98248
59040094284,1.28373,1.38061,-1.95107
59040102592,1.32139,1.38086,-1.91243
59040125732,1.36891,1.38276,-1.86466
59040146788,1.42392,1.38261,-1.81113
59040162546,1.48631,1.38165,-1.75345
59040185721,1.48069,1.37895,-1.76282
59040206824,1.47434,1.37855,-1.77451
59040223079,1.47757,1.37812,-1.77353
59040245794,1.48555,1.37805,-1.7663
59040266789,1.49169,1.37813,-1.75999
59040283061,1.51002,1.37994,-1.74122
59040305727,1.53934,1.38065,-1.70947
59040326850,1.56837,1.38283,-1.67518
59040343080,1.6017,1.38545,-1.63713
59040381431,1.62714,1.38671,-1.60739
59040386775,1.65202,1.38819,-1.57998
59040409359,1.66883,1.38888,-1.56026
59040441407,1.68323,1.39051,-1.54328
59040446608,1.69032,1.39316,-1.53244
59040462578,1.69423,1.39612,-1.52811
59040485770,1.69557,1.39719,-1.52498
59040506759,1.69618,1.39858,-1.52457
59040522560,1.69511,1.39853,-1.52558
59040545774,1.69511,1.39853,-1.52558
59040574335,1.69354,1.39839,-1.52659
59040582567,1.69277,1.39916,-1.52849
59040621433,1.69257,1.3994,-1.52771
59040626904,1.69414,1.40038,-1.52769
59040650746,1.69706,1.40083,-1.52623
59040665754,1.69771,1.4013,-1.52635
59040688290,1.69835,1.40168,-1.52665
59040716818,1.69868,1.402,-1.52653
59040733246,1.69901,1.40241,-1.52625
59040746841,1.69914,1.40323,-1.52687
59040763230,1.69845,1.40391,-1.52708
59040785732,1.69923,1.40451,-1.52647
59040815737,1.70095,1.40532,-1.52417
59040822583,1.70197,1.40629,-1.52312
59040861451,1.70493,1.40776,-1.52074
59040866839,1.70662,1.40871,-1.51788
59040883108,1.70969,1.40974,-1.51419
59040905126,1.71089,1.41059,-1.51359
59040934321,1.71396,1.40981,-1.5096
59040942614,1.71905,1.40959,-1.50425
59040965109,1.72632,1.40943,-1.4966
59040995788,1.73198,1.40956,-1.49138
59041002634,1.73529,1.40873,-1.4883
59041026579,1.7352,1.40856,-1.48873
59041048255,1.73869,1.40784,-1.48577
59041063056,1.73916,1.40665,-1.48521
59041093287,1.73961,1.40631,-1.48752
59041115746,1.73782,1.40503,-1.48911
59041122652,1.73586,1.4039,-1.49306
59041145122,1.73462,1.40232,-1.4967
59041168254,1.73365,1.40017,-1.49677
59041184193,1.73488,1.39946,-1.49582
59041205084,1.73603,1.39869,-1.49493
59041228284,1.73775,1.39839,-1.49327
59041242629,1.7416,1.39872,-1.4904
59041273232,1.74336,1.398,-1.48757
59041288293,1.7448,1.39771,-1.4853
59041303105,1.74549,1.39824,-1.48449
59041325108,1.74544,1.39826,-1.48431
59041355764,1.74327,1.39754,-1.48576
59041362602,1.74426,1.39804,-1.48577
59041393300,1.74327,1.39754,-1.48576
59041408299,1.74128,1.39735,-1.48849
59041445691,1.74099,1.39657,-1.48784
59041448107,1.74165,1.39619,-1.48741
59041468314,1.74372,1.39591,-1.48658
59041490795,1.74541,1.39522,-1.48363
59041513246,1.7455,1.39529,-1.48358
59041535796,1.7464,1.3951,-1.48305
59041582116,1.7464,1.3951,-1.48305
59041588841,1.7464,1.3951,-1.48305
59041591256,1.7464,1.3951,-1.48305
59041627130,1.7464,1.3951,-1.48305
59041631938,1.7464,1.3951,-1.48305
59041655747,1.74567,1.39509,-1.48466
59041670760,1.74394,1.39391,-1.48588
59041693292,1.74394,1.39391,-1.48588
59041708738,1.74394,1.39391,-1.48588
59041729420,1.74416,1.39391,-1.48635
59041745099,1.74416,1.39391,-1.48635
59041769079,1.74416,1.39391,-1.48635
59041807079,1.7451,1.39381,-1.48561
59041811853,1.74505,1.39384,-1.48544
59041828111,1.74505,1.39384,-1.48544
59041856867,1.74505,1.39384,-1.48544
59041865120,1.74505,1.39384,-1.48544
59041887603,1.74505,1.39384,-1.48544
59041927127,1.74407,1.39385,-1.4864
59041931823,1.74403,1.39376,-1.48661
59041947611,1.74572,1.39436,-1.48463
59041978333,1.74679,1.39452,-1.48324
59041993297,1.74755,1.39511,-1.48239
59042016197,1.74863,1.39527,-1.48099
59042061704,1.74841,1.39588,-1.4811
59042077872,1.74841,1.39588,-1.4811
59042083246,1.74946,1.39606,-1.47952
59042090781,1.75227,1.39661,-1.47689
59042113318,1.7539,1.39667,-1.47376
59042135781,1.75611,1.39749,-1.47189
59042150773,1.75611,1.39749,-1.47189
59042165117,1.75611,1.39749,-1.47189
59042187646,1.75696,1.39733,-1.47119
59042210762,1.75699,1.39731,-1.47137
59042225153,1.75705,1.3974,-1.47114
59042247619,1.75699,1.39731,-1.47137
59042270783,1.75784,1.39789,-1.47066
59042285133,1.75784,1.39789,-1.47066
59042323275,1.75685,1.3974,-1.47066
59042330923,1.75681,1.39742,-1.47048
59042345614,1.7587,1.39709,-1.46957
59042367716,1.7607,1.39694,-1.46822
59042382608,1.76283,1.39632,-1.46603
59042404438,1.76294,1.39576,-1.4656
59042434106,1.76397,1.3956,-1.46541
59042444105,1.76393,1.39439,-1.4643
59042464358,1.76504,1.39479,-1.46503
59042486831,1.76494,1.3935,-1.46416
59042502646,1.76557,1.3932,-1.4636
59042524334,1.7668,1.39315,-1.4635
59042555015,1.76591,1.3925,-1.46445
59042561229,1.76593,1.39201,-1.46349
59042584363,1.76593,1.39201,-1.46349
59042606864,1.76802,1.39249,-1.46287
59042621218,1.77074,1.39183,-1.45919
59042644858,1.7736,1.3923,-1.45714
59042675082,1.77548,1.3917,-1.45455
59042681200,1.77726,1.39165,-1.45235
59042704451,1.77726,1.39165,-1.45235
59042726919,1.77726,1.39165,-1.45235
59042757504,1.77726,1.39165,-1.45235
59042763681,1.77726,1.39165,-1.45235
59042786842,1.77726,1.39165,-1.45235
59042810801,1.77726,1.39165,-1.45235
59042832521,1.77726,1.39165,-1.45235
59042846865,1.77726,1.39165,-1.45235
59042861217,1.77728,1.39163,-1.45254
59042885145,1.77728,1.39163,-1.45254
59042906854,1.77726,1.39165,-1.45235
59042921202,1.77726,1.39165,-1.45235
59042943688,1.77726,1.39165,-1.45235
59042966859,1.77726,1.39165,-1.45235
59042989327,1.77728,1.39163,-1.45254
59043003694,1.77718,1.39157,-1.4526
59043026857,1.77728,1.39163,-1.45254
59043042645,1.77718,1.39157,-1.4526
59043063753,1.77718,1.39157,-1.4526
59043095014,1.78021,1.39157,-1.44991
59043101214,1.78137,1.39092,-1.44934
59043132545,1.78313,1.3901,-1.44764
59043146863,1.78405,1.38935,-1.44702
59043161222,1.78584,1.38849,-1.44572
59043192515,1.78751,1.38758,-1.44451
59043215034,1.78831,1.38676,-1.44397
59043237562,1.7909,1.38599,-1.44107
59043243666,1.79093,1.38597,-1.44126
59043291352,1.78989,1.38592,-1.44222
59043293776,1.79127,1.3857,-1.44009
59043312521,1.79119,1.38561,-1.44033
59043351358,1.79119,1.38561,-1.44033
59043353777,1.79187,1.38489,-1.43908
59043363705,1.79337,1.38456,-1.43789
59043387385,1.79327,1.38388,-1.43786
59043402734,1.79393,1.38363,-1.43752
59043423681,1.79464,1.38287,-1.43666
59043455034,1.79511,1.38247,-1.43664
59043461229,1.7948,1.38122,-1.43566
59043492560,1.79583,1.38109,-1.43571
59043506864,1.7965,1.38082,-1.43557
59043521232,1.7956,1.38037,-1.43557
59043552531,1.79643,1.38027,-1.43494
59043566877,1.79653,1.38034,-1.43488
59043581224,1.79565,1.37972,-1.43586
59043612541,1.79474,1.37958,-1.43754
59043626853,1.79403,1.37898,-1.43884
59043641206,1.79322,1.37832,-1.44018
59043673434,1.79332,1.37765,-1.44066
59043686916,1.7935,1.37691,-1.44169
59043701204,1.79272,1.37568,-1.44276
59043731908,1.79119,1.37508,-1.44507
59043746862,1.79056,1.37448,-1.44652
59043777538,1.78972,1.37402,-1.44669
59043783737,1.79109,1.37431,-1.44546
59043806267,1.79109,1.37431,-1.44546
59043830829,1.7901,1.37484,-1.44663
59043843750,1.78976,1.37482,-1.44583
59043867685,1.7921,1.37532,-1.44291
59043889442,1.79123,1.37489,-1.4429
59043905189,1.79121,1.37533,-1.44376
59043926239,1.79086,1.37519,-1.44356
59043941230,1.79086,1.37519,-1.44356
59043963709,1.79086,1.37519,-1.44356
59043986218,1.79086,1.37519,-1.44356
59044009371,1.79086,1.37519,-1.44356
59044031923,1.79076,1.37513,-1.44362
59044047672,1.79141,1.37516,-1.44191
59044064151,1.79217,1.37568,-1.44118
59044083751,1.79279,1.37677,-1.44041
59044106278,1.79187,1.37755,-1.44056
59044121214,1.79104,1.37765,-1.44118
59044143725,1.79017,1.37779,-1.44144
59044167673,1.79017,1.37779,-1.44144
59044181187,1.79027,1.37786,-1.44139
59044203740,1.79015,1.37825,-1.44232
59044227659,1.78825,1.37837,-1.44333
59044241249,1.78619,1.37875,-1.44597
59044263787,1.78076,1.37926,-1.45239
59044280168,1.77733,1.37945,-1.4558
59044301214,1.77733,1.37945,-1.4558
59044325158,1.77736,1.37943,-1.45598
59044340180,1.76166,1.38044,-1.47299
59044364096,1.72405,1.38263,-1.5154
59044385185,1.67507,1.38487,-1.56898
59044406266,1.63309,1.3869,-1.61336
59044421212,1.58916,1.38821,-1.65839
59044445206,1.56436,1.38972,-1.6864
59044466201,1.54916,1.38935,-1.70351
59044481212,1.54303,1.38816,-1.71096
59044503702,1.54358,1.38709,-1.71228
59044520165,1.55082,1.38649,-1.70651
59044541209,1.56875,1.38542,-1.68992
59044574799,1.56988,1.38472,-1.68903
59044580217,1.56347,1.38535,-1.69772
59044601257,1.55242,1.38569,-1.7104
59044625158,1.55178,1.38512,-1.71404
59044640178,1.55966,1.38451,-1.70979
59044664194,1.5719,1.38274,-1.69886
59044683757,1.5877,1.38184,-1.68469
59044700160,1.60377,1.38106,-1.66944
59044722727,1.61588,1.38074,-1.65864
59044743770,1.6357,1.38076,-1.64024
59044760255,1.66068,1.37938,-1.61462
59044782723,1.6839,1.3787,-1.5913
59044803750,1.70269,1.37991,-1.57142
59044820204,1.72076,1.38101,-1.55296
59044857586,1.72935,1.38123,-1.54498
59044863753,1.74781,1.38065,-1.52559
59044880215,1.76818,1.37999,-1.50511
59044902703,1.79148,1.37832,-1.48154
59044931691,1.79904,1.37873,-1.47318
59044946231,1.78369,1.38202,-1.49085
59044962688,1.773,1.38397,-1.50111
59044983749,1.7737,1.38458,-1.50067
59045001663,1.78066,1.38487,-1.49396
59045022664,1.78955,1.38503,-1.48602
59045043755,1.80468,1.38438,-1.47118
59045066248,1.82735,1.38311,-1.44898
59045082682,1.84921,1.3812,-1.42504
59045103741,1.87151,1.38011,-1.40201
59045120194,1.89325,1.37887,-1.37884
59045142693,1.90794,1.3779,-1.36304
59045171911,1.91662,1.37854,-1.35385
59045180206,1.92526,1.37816,-1.34483
59045210191,1.93401,1.37836,-1.33622
59045223785,1.94239,1.37833,-1.3273
59045240206,1.95074,1.37827,-1.31888
59045264143,1.96195,1.37783,-1.30712
59045291904,1.97587,1.37736,-1.29313
59045300205,1.99156,1.37604,-1.27652
59045330173,2.00909,1.37363,-1.25736
59045343747,2.02621,1.37164,-1.23877
59045360205,2.03944,1.37001,-1.22492
59045382704,2.0518,1.3687,-1.21101
59045412339,2.06189,1.36802,-1.19982
59045421670,2.07078,1.36751,-1.18918
59045442757,2.0789,1.3682,-1.18023
59045463753,2.08579,1.36864,-1.17265
59045495825,2.09156,1.36901,-1.1658
59045502679,2.09561,1.37014,-1.1614
59045526672,2.09564,1.36969,-1.16064
59045540124,2.09561,1.37014,-1.1614
59045562726,2.09561,1.37014,-1.1614
59045585229,2.09587,1.36975,-1.16047
59045607710,2.09561,1.37014,-1.1614
59045622730,2.09561,1.37014,-1.1614
59045653410,2.09461,1.37034,-1.16152
59045660207,2.09406,1.37087,-1.16213
59045684194,2.09432,1.37087,-1.16081
59045705260,2.09429,1.37133,-1.16157
59045729132,2.09429,1.37133,-1.16157
59045750181,2.09432,1.37127,-1.16042
59045774183,2.09432,1.37127,-1.16042
59045781620,2.09409,1.37121,-1.16059
59045802740,2.09536,1.37169,-1.15913
59045825239,2.09536,1.37169,-1.15913
59045857404,2.09286,1.37223,-1.16169
59045862697,2.08987,1.37239,-1.16334
59045887399,2.08727,1.37291,-1.16622
59045901761,2.08452,1.37339,-1.16898
59045930216,2.08046,1.37312,-1.17196
59045945177,2.07559,1.3736,-1.17771
59045966282,2.07234,1.37378,-1.18116
59045982673,2.0684,1.37334,-1.18502
59046006673,2.06505,1.3735,-1.18877
59046021677,2.06192,1.37379,-1.19349
59046044204,2.05575,1.37401,-1.20069
59046064539,2.05133,1.37365,-1.20417
59046086945,2.04734,1.37406,-1.20848
59046101930,2.04559,1.37411,-1.21031
59046124429,2.04229,1.37401,-1.21432
59046146916,2.03696,1.37313,-1.21986
59046170887,2.03229,1.37282,-1.22366
59046184449,2.02902,1.37298,-1.22647
59046206979,2.02345,1.37269,-1.23132
59046237580,2.01829,1.37308,-1.23456
59046244436,2.01461,1.37364,-1.23569
59046266948,2.0081,1.37499,-1.24038
59046283411,2,1.37677,-1.24594
59046328933,1.99155,1.37895,-1.25196
59046331404,1.98081,1.38062,-1.26017
59046341944,1.96644,1.3813,-1.2724
59046364434,1.95134,1.38341,-1.28447
59046395522,1.93918,1.38649,-1.29419
59046403410,1.9259,1.3888,-1.30403
59046424462,1.90976,1.39142,-1.31765
59046446932,1.89415,1.39337,-1.32952
59046461969,1.87806,1.39496,-1.34548
59046484475,1.85981,1.39564,-1.36219
59046506958,1.84408,1.39717,-1.37683
59046521958,1.82562,1.39828,-1.39524
59046544447,1.80621,1.40066,-1.41541
59046566956,1.78499,1.40278,-1.43797
59046581948,1.76578,1.40436,-1.45478
59046604443,1.75423,1.40715,-1.46371
59046626926,1.74524,1.41145,-1.46926
59046643399,1.67753,1.41725,-1.53676
59046664453,1.56186,1.42507,-1.66273
59046686969,1.50216,1.42799,-1.72535
59046701965,1.46785,1.43174,-1.75587
59046724460,1.46887,1.43726,-1.74918
59046746996,1.45667,1.44476,-1.75262
59046763412,1.47845,1.45405,-1.71058
59046784434,1.55897,1.46449,-1.60464
59046806964,1.65524,1.47013,-1.46861
59046823415,1.76645,1.47411,-1.29987
59046844455,1.89022,1.47514,-1.09466
59046867356,2.05778,1.47427,-0.84563
59046884984,2.19864,1.4694,-0.62182
59046904456,2.27665,1.46535,-0.468701
59046926968,2.28294,1.45849,-0.415414
59046943418,2.06529,1.44199,-0.613004
59046964483,1.90967,1.4394,-0.776904
59046987429,1.88614,1.45369,-0.832838
59047004889,1.91431,1.44613,-0.827615
59047024454,1.8222,1.433,-0.912878
59047046930,1.62651,1.42717,-1.10415
59047070912,1.55087,1.41793,-1.19419
59047084431,1.48888,1.40665,-1.27191
59047107620,1.41024,1.39957,-1.34647
59047123407,1.32051,1.39949,-1.42057
59047154079,1.23203,1.39933,-1.49738
59047166965,1.17016,1.39832,-1.55686
59047183404,1.14543,1.39506,-1.58059
59047205883,1.11952,1.39039,-1.59855
59047226935,1.05637,1.38627,-1.64655
59047243404,0.953187,1.39055,-1.73431
59047264525,0.886547,1.3904,-1.80056
59047288407,0.852088,1.38622,-1.83218
59047303400,0.830641,1.38342,-1.84545
59047324435,0.805531,1.38253,-1.86031
59047354466,0.80026,1.38456,-1.86044
59047363408,0.802052,1.38932,-1.85373
59047384469,0.81688,1.3929,-1.83463
59047406958,0.847834,1.40157,-1.79015
59047430934,0.86388,1.41409,-1.76444
59047444436,0.875815,1.42359,-1.74767
59047468423,0.787116,1.42496,-1.82971
59047482730,0.656131,1.42542,-1.95496
59047504453,0.517546,1.42181,-2.08345
59047526981,0.384953,1.41668,-2.20542
59047542753,0.268222,1.41126,-2.31164
59047564472,0.152261,1.40509,-2.4131
59047586954,0.0415711,1.39889,-2.51124
59047602720,-0.065616,1.39346,-2.60817
59047625901,-0.157072,1.39062,-2.69288
59047646980,-0.220983,1.39061,-2.75044
59047662745,-0.268336,1.39074,-2.78077
59047686319,-0.382126,1.38849,-2.84959
59047706953,-0.514049,1.38665,-2.9102
59047722779,-0.68376,1.38328,-2.97711
59047746413,-0.860046,1.38611,-3.0262
59047766936,-1.09197,1.39947,-3.11234
59047782705,-1.41217,1.41875,2.99695
59047805943,-1.83235,1.4284,2.73719
59047828408,-2.2797,1.42183,2.45212
59047842742,-2.64142,1.40113,2.2445
59047880139,-2.90066,1.37581,2.12468
59047886990,-3.0764,1.35325,2.06084
59047902781,3.08356,1.33949,2.02257
59047925985,2.98182,1.33575,1.98897
59047946955,2.88027,1.34216,1.95192
59047962722,2.76711,1.35937,1.89934
59047985875,2.62452,1.38607,1.81633
59048007000,2.41492,1.41698,1.66733
59048022779,2.0777,1.44568,1.38735
59048045937,1.55691,1.45805,0.91963
59048066943,1.01507,1.43845,0.42897
59048082751,0.665069,1.39159,0.131752
59048111954,0.455891,1.33229,-0.0210538
59048126959,0.299195,1.26931,-0.117122
59048142735,0.201595,1.20568,-0.175432
59048165875,0.13404,1.14671,-0.2042
59048186994,0.0882704,1.09718,-0.21567
59048202767,0.0616606,1.0483,-0.2169
59048225924,0.0562594,1.0187,-0.20843
59048246984,0.0680909,1.01248,-0.201971
59048263405,0.114416,1.06034,-0.174951
59048285908,0.154729,1.08874,-0.166665
59048307030,0.18495,1.11752,-0.167658
59048322801,0.299541,1.1669,-0.116344
59048345925,0.325794,1.23092,-0.0615124
59048366978,0.427812,1.27499,0.0529605
59048382752,0.489915,1.31205,0.169822
59048405228,0.560148,1.34046,0.271053
59048426689,0.666506,1.36277,0.361405
59048449481,0.807462,1.3833,0.479272
59048465267,0.963992,1.39971,0.614751
59048486991,1.11635,1.40596,0.771938
59048502751,1.23106,1.41073,0.902805
59048525246,1.3535,1.41374,1.0287
59048548411,1.49025,1.4128,1.16301
59048562745,1.63292,1.40906,1.31069
59048583810,1.75536,1.40176,1.45369
59048606973,1.87212,1.39351,1.59259
59048622765,1.99249,1.38387,1.72631
59048643815,2.13245,1.37247,1.8694
59048666992,2.26154,1.35567,1.99572
59048682758,2.38157,1.3328,2.1137
59048703804,2.46108,1.30768,2.18736
59048726998,2.49764,1.28288,2.21585
59048742768,2.52822,1.25747,2.23732
59048763805,2.56086,1.23019,2.2565
59048786986,2.59233,1.20201,2.27108
59048802758,2.63456,1.17603,2.29415
59048823823,2.68684,1.15275,2.32159
59048854507,2.7488,1.13194,2.35752
59048862791,2.82591,1.10412,2.41365
59048883844,2.90402,1.06819,2.47796
59048907006,2.99145,1.07015,2.523
59048922798,3.06922,1.03409,2.56579
59048943865,-3.13824,0.960694,2.6037
59048974485,-3.11001,0.887003,2.62866
59048982777,-3.08667,0.817351,2.6442
59049003910,-3.07583,0.766952,2.64455
59049026957,-3.08219,0.735855,2.6244
59049042826,-3.12254,0.741591,2.60744
59049065315,3.10722,0.763786,2.58061
59049087013,3.02856,0.795265,2.55328
59049102784,2.93694,0.84518,2.52
59049125293,2.84867,0.912979,2.48832
59049147011,2.77277,0.992045,2.45122
59049162784,2.69322,1.08011,2.40187
59049185296,2.60685,1.17459,2.32909
59049207017,2.47968,1.27163,2.19667
59049222794,2.22564,1.36243,1.92636
59049245304,1.66804,1.41521,1.35324
59049267014,0.990552,1.39172,0.671726
59049296960,0.612614,1.31553,0.287913
59049305274,0.436943,1.22296,0.0919115
59049327002,0.36518,1.13801,-0.0171778
59049342769,0.342869,1.05848,-0.0924615
59049365259,0.34864,0.997364,-0.136715
59049386313,0.367881,0.960108,-0.160178
59049402779,0.399696,0.950628,-0.167748
59049425284,0.44365,0.969255,-0.16035
59049446332,0.486465,1.0147,-0.137774
59049462827,0.532045,1.0441,-0.124934
59049492009,0.49604,1.07875,-0.104312
59049506360,0.498579,1.12494,-0.046756
59049523456,0.521372,1.16374,0.0142857
59049545313,0.574992,1.19493,0.0826191
59049567787,0.655858,1.2254,0.14781
59049590926,0.733967,1.24559,0.207396
59049605262,0.809568,1.26542,0.274079
59049627756,0.875879,1.28052,0.340376
59049658474,0.944786,1.29363,0.410088
59049665301,1.03699,1.30419,0.497582
59049687805,1.15979,1.30972,0.607108
59049710957,1.28908,1.31085,0.725224
59049731979,1.39824,1.31071,0.834334
59049746984,1.48524,1.30995,0.925988
59049761334,1.57264,1.30916,1.01724
59049783876,1.65295,1.31009,1.10013
59049807001,1.74381,1.30585,1.18782
59049821362,1.81985,1.30029,1.26101
59049843839,1.89501,1.29472,1.33257
59049867029,1.98201,1.29179,1.41338
59049881349,2.07454,1.28397,1.49225
59049903871,2.16409,1.27103,1.5682
59049926995,2.24366,1.25541,1.63697
59049941343,2.32053,1.24664,1.70988
59049963861,2.37856,1.25811,1.74253
59049986981,2.42495,1.26714,1.7406
59050001326,2.51188,1.25173,1.78624
59050023822,2.58578,1.22509,1.82226
59050047052,2.60081,1.20852,1.81713
59050061333,2.57716,1.21868,1.77189
59050083900,2.58268,1.25082,1.74296
59050107065,2.59232,1.28274,1.70156
59050130189,2.57257,1.32266,1.62845
59050143868,2.48692,1.36518,1.50316
59050167024,2.29491,1.40669,1.28826
59050181367,1.93711,1.43967,0.918222
59050203848,1.40752,1.45163,0.373025
59050227010,0.917335,1.42975,-0.150397
59050241353,0.63811,1.38581,-0.480419
59050263843,0.506387,1.33658,-0.669107
59050286995,0.430796,1.2879,-0.790539
59050301344,0.376182,1.24456,-0.868054
59050323861,0.326167,1.20519,-0.920582
59050347012,0.290831,1.17558,-0.955761
59050361349,0.293961,1.17432,-0.964009
59050383872,0.307078,1.18591,-0.961712
59050407010,0.300759,1.20516,-0.971277
59050421388,0.287278,1.19968,-0.992452
59050443886,0.272018,1.20124,-1.01435
59050467049,0.273115,1.21562,-1.00591
59050489625,0.236044,1.22326,-1.02855
59050504000,0.251864,1.23182,-1.02234
59050527028,0.275677,1.2435,-1.00006
59050541364,0.294243,1.24925,-0.987412
59050563891,0.306903,1.25331,-0.976697
59050587055,0.306882,1.25566,-0.97586
59050601436,0.296899,1.2552,-0.984627
59050623829,0.283875,1.25086,-0.998568
59050647073,0.275012,1.24444,-1.01608
59050661377,0.27333,1.23804,-1.02591
59050685399,0.279755,1.23268,-1.02903
59050707035,0.282733,1.22785,-1.03196
59050721430,0.285091,1.22412,-1.03523
59050743823,0.290068,1.22242,-1.03562
59050767467,0.290447,1.22235,-1.03535
59050781332,0.287875,1.22439,-1.0345
59050803856,0.284781,1.22812,-1.03346
59050818853,0.282796,1.23309,-1.03024
59050841419,0.280813,1.23778,-1.02806
59050863919,0.276914,1.2427,-1.02671
59050881783,0.273164,1.24794,-1.02549
59050901434,0.267813,1.25192,-1.02753
59050923850,0.265816,1.25397,-1.02851
59050938855,0.26314,1.25597,-1.02979
59050961385,0.256475,1.25678,-1.03465
59050983861,0.25277,1.25682,-1.0383
59050998866,0.249573,1.25634,-1.04293
59051021480,0.249359,1.25518,-1.04581
59051045429,0.245634,1.25451,-1.05168
59051059146,0.241566,1.25164,-1.06049
59051081905,0.241422,1.2495,-1.06553
59051103874,0.239378,1.24802,-1.06846
59051118860,0.236308,1.24769,-1.071
59051141549,0.232445,1.24831,-1.07502
59051163863,0.23025,1.24894,-1.07835
59051178914,0.229126,1.25021,-1.08027
59051201447,0.228548,1.25129,-1.08143
59051223943,0.227979,1.25242,-1.08108
59051238851,0.224855,1.2543,-1.08146
59051261376,0.220951,1.25601,-1.08379
59051283896,0.218331,1.25735,-1.08668
59051300408,0.215049,1.25847,-1.09004
59051321479,0.21346,1.25896,-1.09201
59051343870,0.2117,1.25927,-1.09387
59051360306,0.210424,1.25961,-1.09565
59051381349,0.209115,1.26022,-1.09626
59051403863,0.207434,1.26129,-1.09808
59051420319,0.206555,1.26192,-1.09917
59051441354,0.205035,1.26271,-1.10023
59051463890,0.202905,1.26428,-1.10101
59051480406,0.199453,1.26552,-1.10349
59051501428,0.197948,1.26607,-1.10485
59051523878,0.19701,1.26689,-1.10624
59051540417,0.195814,1.26763,-1.10752
59051561438,0.193277,1.26809,-1.11
59051583918,0.191155,1.26877,-1.11319
59051600324,0.190125,1.26883,-1.11463
59051621497,0.18874,1.26903,-1.11671
59051643860,0.185768,1.26889,-1.11985
59051660311,0.183832,1.26878,-1.12237
59051681352,0.182481,1.26818,-1.12395
59051703849,0.180464,1.26839,-1.12526
59051720408,0.178404,1.26891,-1.12718
59051741441,0.176926,1.26904,-1.12899
59051763882,0.175341,1.26938,-1.13159
59051787799,0.174197,1.26954,-1.13302
59051801423,0.172684,1.27022,-1.13422
59051823907,0.170568,1.27078,-1.1357
59051840409,0.169114,1.27108,-1.13682
59051869532,0.169114,1.27108,-1.13682
59051883882,0.167631,1.27154,-1.13825
59051900412,0.167442,1.27169,-1.13872
59051921433,0.166258,1.27201,-1.14047
59051945302,0.165261,1.27218,-1.14176
59051960454,0.164385,1.27226,-1.14301
59051981432,0.163927,1.272,-1.14377
59052003946,0.164059,1.27173,-1.14348
59052020400,0.162733,1.2721,-1.14394
59052041435,0.162411,1.27252,-1.14469
59052063948,0.162095,1.27232,-1.14477
59052080397,0.162095,1.27232,-1.14477
59052101442,0.162095,1.27232,-1.14477
59052123921,0.162095,1.27232,-1.14477
59052140315,0.160874,1.27237,-1.14641
59052161446,0.160874,1.27237,-1.14641
