timestamp,x,y,z,w
42138067116,-0.195801,-0.0918579,-0.672119,-0.708191
42138090813,-0.196289,-0.092041,-0.672119,-0.708069
42138112118,-0.197021,-0.0924683,-0.672119,-0.707825
42138127156,-0.19751,-0.0929565,-0.672119,-0.707581
42138150840,-0.198242,-0.093689,-0.672058,-0.707336
42138172222,-0.19873,-0.0942993,-0.67218,-0.707031
42138211492,-0.198608,-0.0946045,-0.672485,-0.706726
42138213551,-0.198364,-0.0948486,-0.672607,-0.706665
42138225827,-0.198181,-0.0953369,-0.672607,-0.706665
42138247891,-0.198425,-0.0957642,-0.672546,-0.706543
42138263645,-0.198425,-0.0957031,-0.672668,-0.706421
42138285870,-0.198303,-0.0958862,-0.672729,-0.706421
42138329595,-0.198792,-0.0964355,-0.672668,-0.706299
42138339542,-0.199341,-0.0968628,-0.672607,-0.706116
42138345983,-0.199585,-0.097168,-0.672607,-0.705994
42138367690,-0.199829,-0.0975342,-0.672729,-0.70575
42138383446,-0.200256,-0.0979614,-0.672729,-0.705566
42138404509,-0.200684,-0.0986328,-0.672852,-0.705261
42138427704,-0.20105,-0.0993042,-0.672913,-0.705017
42138443422,-0.201111,-0.0998535,-0.672913,-0.704895
42138464573,-0.201111,-0.0998535,-0.672913,-0.704895
42138487703,-0.20105,-0.0998535,-0.672913,-0.704956
42138503406,-0.201172,-0.10022,-0.672852,-0.704895
42138524469,-0.201477,-0.100647,-0.672791,-0.704773
42138547645,-0.201416,-0.100708,-0.672791,-0.704773
42138563407,-0.201416,-0.100708,-0.672791,-0.704834
42138584474,-0.201477,-0.100952,-0.672729,-0.704773
42138607596,-0.201721,-0.101196,-0.672729,-0.704712
42138623401,-0.201721,-0.101196,-0.672729,-0.704712
42138645902,-0.201721,-0.101196,-0.672729,-0.704712
42138667691,-0.201721,-0.101196,-0.672729,-0.704712
42138683559,-0.201965,-0.10144,-0.672668,-0.704651
42138706009,-0.202026,-0.10144,-0.672668,-0.704651
42138727769,-0.201599,-0.101257,-0.672668,-0.704773
42138743461,-0.201172,-0.100952,-0.672668,-0.704956
42138766065,-0.200928,-0.100769,-0.672607,-0.705078
42138787739,-0.200867,-0.100769,-0.672607,-0.705078
42138803453,-0.201172,-0.101074,-0.672607,-0.704956
42138825985,-0.201355,-0.101257,-0.672668,-0.704834
42138847657,-0.201477,-0.101501,-0.672729,-0.704712
42138863399,-0.201721,-0.101868,-0.672729,-0.70459
42138885900,-0.201965,-0.102295,-0.672729,-0.704468
42138907634,-0.202026,-0.102295,-0.672729,-0.704468
42138923390,-0.202026,-0.102356,-0.672729,-0.704468
42138945917,-0.201965,-0.102356,-0.672729,-0.704468
42138966986,-0.201965,-0.102356,-0.672729,-0.704468
42138983405,-0.202087,-0.102295,-0.672791,-0.704346
42139005899,-0.202637,-0.102234,-0.672852,-0.704163
42139027073,-0.202515,-0.101746,-0.672974,-0.704163
42139043540,-0.202454,-0.101746,-0.672974,-0.704163
42139066005,-0.202881,-0.1026,-0.673035,-0.703857
42139087092,-0.203369,-0.10376,-0.673096,-0.703491
42139103420,-0.203613,-0.104797,-0.673035,-0.703308
42139126053,-0.203796,-0.104919,-0.673157,-0.703125
42139146991,-0.204163,-0.105225,-0.673035,-0.703064
42139163495,-0.203918,-0.105103,-0.672913,-0.703369
42139185932,-0.203369,-0.10498,-0.672852,-0.703552
42139206993,-0.203552,-0.10553,-0.672791,-0.703491
42139223398,-0.204163,-0.10614,-0.672729,-0.703247
42139245908,-0.204224,-0.106201,-0.672729,-0.703247
42139266963,-0.204163,-0.105957,-0.672791,-0.703186
42139283431,-0.204163,-0.105957,-0.672852,-0.703186
42139305899,-0.204468,-0.106079,-0.672852,-0.703064
42139328407,-0.204773,-0.106445,-0.672791,-0.703003
42139351557,-0.204773,-0.106445,-0.672791,-0.703003
42139365881,-0.204773,-0.106445,-0.672791,-0.703003
42139388529,-0.204956,-0.106567,-0.672791,-0.702881
42139411691,-0.205383,-0.106873,-0.672852,-0.702698
42139425962,-0.205872,-0.107361,-0.672729,-0.702576
42139448513,-0.205872,-0.107422,-0.672729,-0.702576
42139471606,-0.205627,-0.107361,-0.672668,-0.702698
42139485960,-0.205627,-0.107361,-0.672668,-0.702698
42139508520,-0.205994,-0.107605,-0.672668,-0.702576
42139531671,-0.206421,-0.108032,-0.672729,-0.702332
42139546051,-0.206543,-0.108459,-0.672729,-0.702209
42139568421,-0.20636,-0.108459,-0.672791,-0.702209
42139591552,-0.205994,-0.108337,-0.672791,-0.702332
42139605934,-0.205994,-0.108337,-0.672791,-0.702332
42139628491,-0.20636,-0.108826,-0.672791,-0.702148
42139651685,-0.206848,-0.109375,-0.672852,-0.701904
42139672728,-0.207336,-0.109985,-0.672852,-0.701599
42139688524,-0.207642,-0.110535,-0.672852,-0.701477
42139711679,-0.207581,-0.11084,-0.672852,-0.701416
42139732665,-0.207458,-0.111145,-0.672913,-0.701355
42139748522,-0.207581,-0.111633,-0.673035,-0.701111
42139771654,-0.208069,-0.11261,-0.673157,-0.700745
42139792672,-0.208496,-0.113647,-0.673218,-0.700378
42139808442,-0.208679,-0.114441,-0.67334,-0.700073
42139831586,-0.208679,-0.115234,-0.673462,-0.699829
42139852668,-0.20874,-0.116089,-0.673645,-0.699524
42139868398,-0.208923,-0.117188,-0.67395,-0.698975
42139891691,-0.209656,-0.119385,-0.674316,-0.697998
42139912765,-0.211243,-0.123047,-0.674744,-0.696472
42139928521,-0.213806,-0.128174,-0.674927,-0.69458
42139950984,-0.217407,-0.133667,-0.674744,-0.692566
42139972757,-0.220398,-0.138184,-0.674561,-0.690979
42139988555,-0.221191,-0.140991,-0.674561,-0.690063
42140011031,-0.220947,-0.143127,-0.674988,-0.689331
42140032713,-0.220764,-0.145569,-0.675354,-0.688538
42140048431,-0.221252,-0.148682,-0.675659,-0.687439
42140070942,-0.222351,-0.152161,-0.675842,-0.686096
42140094139,-0.223755,-0.156067,-0.676025,-0.68457
42140107660,-0.225464,-0.160583,-0.676331,-0.682678
42140122082,-0.227478,-0.165833,-0.676636,-0.680481
42140144541,-0.22937,-0.171326,-0.67688,-0.678223
42140175955,-0.23175,-0.177063,-0.677002,-0.675781
42140182051,-0.234253,-0.182739,-0.677002,-0.673401
42140204506,-0.236694,-0.18811,-0.677124,-0.670959
42140227613,-0.239075,-0.19342,-0.677246,-0.668518
42140241957,-0.241394,-0.198608,-0.677063,-0.666321
42140264485,-0.24408,-0.203796,-0.676575,-0.664307
42140287651,-0.246826,-0.20874,-0.676086,-0.66217
42140301974,-0.249329,-0.213623,-0.67572,-0.660095
42140324633,-0.251465,-0.21936,-0.675171,-0.657959
42140347757,-0.253967,-0.226074,-0.674194,-0.655762
42140362097,-0.258423,-0.234497,-0.672424,-0.652832
42140384602,-0.265503,-0.245789,-0.669617,-0.648682
42140407765,-0.272644,-0.258728,-0.66626,-0.644165
42140422094,-0.277405,-0.270752,-0.663086,-0.640442
42140444555,-0.279907,-0.280762,-0.660278,-0.637939
42140467760,-0.282043,-0.289551,-0.657532,-0.635864
42140482044,-0.285217,-0.298401,-0.655029,-0.632935
42140504591,-0.28949,-0.308533,-0.652161,-0.629089
42140527766,-0.294312,-0.320557,-0.648254,-0.624878
42140543549,-0.299011,-0.333008,-0.643677,-0.620911
42140564458,-0.30304,-0.344849,-0.639038,-0.617249
42140587621,-0.305786,-0.355408,-0.63501,-0.614014
42140601995,-0.305847,-0.363525,-0.632629,-0.611755
42140624478,-0.302734,-0.368652,-0.632141,-0.610718
42140647781,-0.298035,-0.371826,-0.632935,-0.610229
42140662111,-0.293762,-0.374451,-0.634338,-0.609314
42140685999,-0.290161,-0.377014,-0.63623,-0.607483
42140707749,-0.286011,-0.3797,-0.638184,-0.605713
42140722086,-0.283081,-0.383423,-0.638977,-0.603882
42140744631,-0.28186,-0.388428,-0.638977,-0.601318
42140767759,-0.280762,-0.393433,-0.639038,-0.59845
42140782107,-0.279297,-0.398132,-0.639648,-0.595398
42140806023,-0.277405,-0.402771,-0.64093,-0.591797
42140827028,-0.275574,-0.407104,-0.643127,-0.587219
42140842030,-0.274719,-0.411255,-0.645752,-0.581848
42140864485,-0.274048,-0.415466,-0.648254,-0.576355
42140887789,-0.274536,-0.419861,-0.65033,-0.570557
42140901986,-0.276001,-0.42395,-0.652649,-0.564148
42140924464,-0.278992,-0.427673,-0.655151,-0.556885
42140947757,-0.283386,-0.431152,-0.657349,-0.549316
42140962148,-0.288879,-0.434753,-0.658569,-0.542114
42140984561,-0.294373,-0.438293,-0.658936,-0.535889
42141007726,-0.299683,-0.442017,-0.658569,-0.530273
42141022084,-0.304565,-0.446228,-0.657654,-0.525085
42141044607,-0.308289,-0.450439,-0.656555,-0.520752
42141067138,-0.310669,-0.453857,-0.655823,-0.517212
42141082109,-0.312012,-0.457092,-0.655457,-0.514038
42141104641,-0.312195,-0.460083,-0.65564,-0.510986
42141127108,-0.312378,-0.463257,-0.655884,-0.50769
42141142092,-0.312622,-0.46637,-0.656311,-0.504089
42141164566,-0.3125,-0.468506,-0.657104,-0.50116
42141187143,-0.310791,-0.468811,-0.658936,-0.499573
42141202176,-0.307312,-0.466858,-0.66217,-0.499268
42141224607,-0.303711,-0.463989,-0.665344,-0.499878
42141246945,-0.301758,-0.462036,-0.667114,-0.50061
42141262015,-0.30188,-0.461792,-0.667114,-0.500732
42141284565,-0.303833,-0.463318,-0.665588,-0.500122
42141307007,-0.306213,-0.465637,-0.663635,-0.499084
42141322017,-0.307739,-0.467285,-0.662415,-0.498291
42141344558,-0.307983,-0.468079,-0.661865,-0.498108
42141366993,-0.307861,-0.46814,-0.661621,-0.498474
42141381999,-0.307983,-0.467957,-0.661499,-0.498779
42141404639,-0.308228,-0.46759,-0.661438,-0.498962
42141427192,-0.30835,-0.467285,-0.661438,-0.499207
42141442166,-0.308472,-0.466919,-0.661438,-0.499451
42141464585,-0.308533,-0.466736,-0.661377,-0.499634
42141487053,-0.308777,-0.466919,-0.661072,-0.499756
42141504964,-0.309265,-0.467346,-0.660583,-0.499695
42141524623,-0.309692,-0.467834,-0.660156,-0.499512
42141547007,-0.309998,-0.468201,-0.659851,-0.49939
42141563478,-0.310486,-0.468567,-0.659424,-0.499268
42141584558,-0.31134,-0.469299,-0.658813,-0.498901
42141607051,-0.312134,-0.469727,-0.658569,-0.498352
42141623506,-0.312561,-0.470215,-0.658325,-0.497925
42141644518,-0.312378,-0.47052,-0.658325,-0.497742
42141667112,-0.312134,-0.470764,-0.658386,-0.49762
42141682159,-0.31189,-0.471069,-0.658325,-0.497559
42141704648,-0.312073,-0.471436,-0.657959,-0.497498
42141727074,-0.312378,-0.471802,-0.657654,-0.497437
42141742084,-0.312622,-0.471924,-0.657532,-0.497375
42141764612,-0.312622,-0.471924,-0.657532,-0.497375
42141787057,-0.312622,-0.471924,-0.657349,-0.497559
42141802018,-0.312622,-0.471924,-0.657349,-0.497559
42141824498,-0.312622,-0.471924,-0.657349,-0.497559
42141847073,-0.312927,-0.47229,-0.657104,-0.497314
42141863434,-0.31311,-0.472717,-0.656921,-0.49707
42141884599,-0.313049,-0.472961,-0.65686,-0.496887
42141907049,-0.312988,-0.473083,-0.656982,-0.496704
42141923560,-0.313171,-0.473145,-0.656921,-0.496643
42141944650,-0.313538,-0.473389,-0.656677,-0.496521
42141975318,-0.313782,-0.473572,-0.656494,-0.496399
42141983544,-0.313782,-0.473511,-0.656494,-0.496399
42142004593,-0.313965,-0.473389,-0.656616,-0.496277
42142027015,-0.313965,-0.473389,-0.656616,-0.496277
42142043563,-0.313965,-0.473389,-0.656677,-0.496277
42142064554,-0.31427,-0.473633,-0.656433,-0.496094
42142087016,-0.314575,-0.47406,-0.656128,-0.495911
42142103546,-0.314636,-0.474426,-0.656006,-0.495605
42142124603,-0.31427,-0.474548,-0.656189,-0.495544
42142155301,-0.313904,-0.47467,-0.656372,-0.495483
42142163544,-0.31366,-0.474731,-0.656372,-0.495483
42142184522,-0.313477,-0.474854,-0.656433,-0.495483
42142206988,-0.313477,-0.474854,-0.656433,-0.495483
42142223498,-0.313477,-0.474792,-0.656433,-0.495483
42142244565,-0.313477,-0.474792,-0.656494,-0.495483
42142267075,-0.313477,-0.474731,-0.656494,-0.495483
42142283586,-0.313477,-0.474792,-0.656494,-0.495483
42142312668,-0.313477,-0.474792,-0.656433,-0.495483
42142327145,-0.313538,-0.474792,-0.656433,-0.495422
42142350987,-0.313538,-0.474854,-0.656433,-0.495422
42142364614,-0.313416,-0.474731,-0.656677,-0.495361
42142395201,-0.313416,-0.474731,-0.656616,-0.495361
42142403587,-0.31366,-0.475098,-0.656311,-0.4953
42142424593,-0.31427,-0.475952,-0.655518,-0.495056
42142447084,-0.314819,-0.477112,-0.654541,-0.494995
42142463587,-0.315002,-0.478149,-0.653442,-0.495239
42142484616,-0.315002,-0.478943,-0.652588,-0.495605
42142507143,-0.315369,-0.479675,-0.651733,-0.495789
42142523568,-0.31604,-0.480408,-0.650696,-0.496033
42142544624,-0.315918,-0.480957,-0.649597,-0.497009
42142567245,-0.314209,-0.480896,-0.648743,-0.499329
42142583550,-0.312805,-0.480835,-0.647339,-0.502014
42142604596,-0.313232,-0.481812,-0.644714,-0.504211
42142627137,-0.314453,-0.484497,-0.640564,-0.506104
42142643479,-0.314331,-0.487793,-0.635681,-0.509216
42142664479,-0.312683,-0.490356,-0.630493,-0.51416
42142687035,-0.310425,-0.491943,-0.625671,-0.519958
42142703464,-0.308167,-0.493164,-0.62085,-0.525818
42142724555,-0.306763,-0.494324,-0.615784,-0.531494
42142747050,-0.306335,-0.495483,-0.609985,-0.537292
42142763540,-0.308044,-0.495972,-0.602844,-0.543884
42142786102,-0.311584,-0.495422,-0.595154,-0.550842
42142807119,-0.315247,-0.492859,-0.588562,-0.558105
42142823626,-0.3172,-0.487976,-0.584351,-0.565674
42142846086,-0.3172,-0.481384,-0.582336,-0.573303
42142867168,-0.316589,-0.475342,-0.580688,-0.580261
42142883492,-0.316162,-0.470703,-0.578918,-0.585999
42142907509,-0.315247,-0.467834,-0.577332,-0.590332
42142927186,-0.314758,-0.466858,-0.5755,-0.593201
42142951094,-0.315369,-0.467285,-0.572632,-0.595276
42142966116,-0.317688,-0.468445,-0.568604,-0.597046
42142987124,-0.321472,-0.469727,-0.564209,-0.598206
42143003586,-0.325745,-0.470642,-0.560486,-0.598633
42143026088,-0.328674,-0.470398,-0.558655,-0.598938
42143047151,-0.330139,-0.469177,-0.558044,-0.59967
42143063547,-0.332397,-0.46814,-0.556702,-0.600464
42143086071,-0.336243,-0.468201,-0.55426,-0.600525
42143107025,-0.340393,-0.469177,-0.55127,-0.600159
42143123476,-0.343323,-0.469727,-0.549194,-0.599976
42143145984,-0.344482,-0.469116,-0.548645,-0.600281
42143167150,-0.343994,-0.467468,-0.549438,-0.601135
42143183556,-0.342712,-0.465393,-0.551147,-0.601868
42143206028,-0.341248,-0.463379,-0.553284,-0.602356
42143228562,-0.340027,-0.461487,-0.555603,-0.602356
42143243570,-0.338989,-0.459961,-0.558044,-0.601807
42143265960,-0.338196,-0.459778,-0.559875,-0.600708
42143287169,-0.338257,-0.460876,-0.561035,-0.598755
42143303580,-0.338928,-0.462708,-0.561829,-0.596191
42143326125,-0.339111,-0.464478,-0.563293,-0.593384
42143347093,-0.337891,-0.465454,-0.565857,-0.590881
42143363597,-0.335388,-0.466125,-0.569275,-0.58844
42143386074,-0.332703,-0.467224,-0.572815,-0.585693
42143408616,-0.330078,-0.468994,-0.575928,-0.582642
42143423568,-0.327576,-0.471191,-0.578674,-0.57959
42143446095,-0.325439,-0.473694,-0.580872,-0.576538
42143467112,-0.323303,-0.476257,-0.583069,-0.573425
42143483524,-0.320679,-0.478394,-0.585938,-0.57019
42143507445,-0.317627,-0.479797,-0.5896,-0.566895
42143527132,-0.314697,-0.481201,-0.593567,-0.563232
42143543470,-0.311707,-0.483215,-0.597595,-0.558838
42143565982,-0.308533,-0.485535,-0.602051,-0.553833
42143587101,-0.304993,-0.488403,-0.606628,-0.548218
42143603479,-0.300781,-0.49176,-0.61145,-0.542175
42143626129,-0.296814,-0.496216,-0.615723,-0.535461
42143647185,-0.292786,-0.501648,-0.619629,-0.528076
42143663633,-0.287598,-0.506409,-0.624573,-0.520447
42143686067,-0.281372,-0.510498,-0.630371,-0.512878
42143708608,-0.274963,-0.514221,-0.636108,-0.505371
42143725037,-0.269043,-0.517517,-0.64209,-0.497681
42143746030,-0.264099,-0.520386,-0.647949,-0.489563
42143768624,-0.26062,-0.523315,-0.653381,-0.481079
42143783559,-0.259277,-0.526917,-0.657837,-0.471741
42143806143,-0.259583,-0.530762,-0.662048,-0.461243
42143828590,-0.259949,-0.533386,-0.667297,-0.450317
42143843608,-0.259521,-0.534485,-0.673523,-0.439819
42143866080,-0.25946,-0.535645,-0.678955,-0.430054
42143888525,-0.260315,-0.53772,-0.682739,-0.420837
42143905075,-0.261963,-0.540466,-0.685242,-0.41217
42143926141,-0.264282,-0.543274,-0.687012,-0.40387
42143947816,-0.266296,-0.545471,-0.688965,-0.396301
42143970312,-0.2677,-0.546997,-0.690857,-0.389832
42143985357,-0.268921,-0.548462,-0.6922,-0.384583
42144007839,-0.27063,-0.550232,-0.692505,-0.380188
42144030291,-0.273132,-0.552429,-0.691895,-0.376343
42144045359,-0.275635,-0.554504,-0.69104,-0.372986
42144067734,-0.278015,-0.556274,-0.690247,-0.370056
42144083472,-0.28064,-0.557983,-0.689209,-0.367493
42144105237,-0.283752,-0.559448,-0.687866,-0.365295
42144127696,-0.287598,-0.560669,-0.686462,-0.363098
42144143521,-0.291382,-0.561218,-0.685364,-0.361267
42144165290,-0.294373,-0.561462,-0.68457,-0.359924
42144187785,-0.296326,-0.562195,-0.683655,-0.359009
42144203528,-0.298523,-0.56311,-0.682312,-0.358276
42144225253,-0.301514,-0.564087,-0.680542,-0.357544
42144247756,-0.30481,-0.565186,-0.678711,-0.356567
42144263622,-0.307129,-0.56543,-0.677734,-0.355896
42144285684,-0.308777,-0.565186,-0.67749,-0.355408
42144307849,-0.310425,-0.565125,-0.676941,-0.355042
42144339875,-0.312439,-0.565552,-0.675903,-0.354675
42144345387,-0.314575,-0.565979,-0.674744,-0.354248
42144367734,-0.316711,-0.567139,-0.673218,-0.353455
42144383527,-0.318604,-0.569153,-0.671326,-0.352112
42144405264,-0.319824,-0.571655,-0.669495,-0.350464
42144427846,-0.320496,-0.574402,-0.667725,-0.348633
42144450239,-0.320923,-0.577209,-0.666077,-0.346802
42144465180,-0.320496,-0.577576,-0.666809,-0.345276
42144487746,-0.318909,-0.576477,-0.668701,-0.344788
42144510234,-0.317566,-0.574646,-0.670837,-0.344971
42144525292,-0.31665,-0.57312,-0.672363,-0.345459
42144547801,-0.316467,-0.572021,-0.673035,-0.346008
42144570228,-0.316772,-0.571777,-0.673096,-0.346069
42144585292,-0.316772,-0.571777,-0.673157,-0.346069
42144607771,-0.316406,-0.571594,-0.673401,-0.346191
42144624190,-0.31604,-0.571838,-0.673279,-0.346313
42144645193,-0.315979,-0.572144,-0.673035,-0.346436
42144667756,-0.316101,-0.572083,-0.672852,-0.346619
42144683619,-0.316406,-0.572083,-0.672607,-0.346863
42144705225,-0.316956,-0.57251,-0.671997,-0.346863
42144727847,-0.3172,-0.572693,-0.671753,-0.346741
42144743651,-0.3172,-0.572693,-0.671753,-0.346741
42144765338,-0.3172,-0.572815,-0.671631,-0.346863
42144787886,-0.317383,-0.572998,-0.671326,-0.346985
42144803555,-0.317688,-0.573364,-0.670898,-0.346863
42144826739,-0.317871,-0.573792,-0.670593,-0.34668
42144847859,-0.317627,-0.573669,-0.670776,-0.34668
42144863616,-0.317627,-0.573669,-0.670776,-0.34668
42144894268,-0.318054,-0.574219,-0.670166,-0.346497
42144907793,-0.318909,-0.57489,-0.669556,-0.345825
42144923575,-0.319519,-0.57428,-0.670105,-0.345215
42144946705,-0.319702,-0.572754,-0.671692,-0.344482
42144967768,-0.318848,-0.571228,-0.673706,-0.343933
42144983528,-0.315247,-0.5672,-0.678467,-0.344604
42145006666,-0.30957,-0.559631,-0.685669,-0.347839
42145027703,-0.304077,-0.550598,-0.692932,-0.352661
42145043608,-0.298523,-0.540466,-0.700684,-0.357666
42145066775,-0.291077,-0.528381,-0.710754,-0.361938
42145087873,-0.281067,-0.515015,-0.723206,-0.364441
42145103576,-0.270081,-0.503662,-0.734985,-0.365051
42145126777,-0.259216,-0.492065,-0.746826,-0.364746
42145147835,-0.248657,-0.480103,-0.758545,-0.363831
42145163578,-0.239929,-0.469971,-0.769287,-0.360352
42145186789,-0.232971,-0.462341,-0.779114,-0.353638
42145207850,-0.226685,-0.456299,-0.788391,-0.344971
42145223623,-0.220337,-0.450745,-0.797058,-0.336304
42145260901,-0.21344,-0.445129,-0.805176,-0.328796
42145267710,-0.206482,-0.440552,-0.812256,-0.322021
42145283507,-0.199829,-0.438049,-0.817749,-0.315491
42145306719,-0.193481,-0.43811,-0.821899,-0.308594
42145327790,-0.187317,-0.43988,-0.824829,-0.30188
42145343564,-0.181091,-0.440918,-0.82782,-0.296021
42145366683,-0.174805,-0.440063,-0.831238,-0.291443
42145387799,-0.169312,-0.439392,-0.834045,-0.287598
42145403524,-0.165283,-0.440979,-0.835388,-0.283569
42145426676,-0.163025,-0.444214,-0.835571,-0.279236
42145447811,-0.161438,-0.445984,-0.836182,-0.275574
42145463571,-0.159485,-0.445435,-0.837585,-0.273254
42145486753,-0.157715,-0.443787,-0.839355,-0.271729
42145507792,-0.156677,-0.442261,-0.840942,-0.269836
42145523532,-0.156006,-0.440979,-0.842285,-0.268066
42145546699,-0.15564,-0.439636,-0.843262,-0.267334
42145567787,-0.15564,-0.439392,-0.843384,-0.267395
42145583558,-0.156128,-0.440063,-0.842896,-0.267578
42145606079,-0.156738,-0.440979,-0.842224,-0.267761
42145627785,-0.156982,-0.440796,-0.842163,-0.268127
42145643566,-0.15686,-0.439636,-0.84259,-0.268738
42145666098,-0.157227,-0.438843,-0.842651,-0.269775
42145687817,-0.158386,-0.439941,-0.84137,-0.27124
42145703555,-0.160522,-0.4422,-0.839417,-0.2724
42145726519,-0.162231,-0.442871,-0.838318,-0.273621
42145747810,-0.162781,-0.441223,-0.838501,-0.275391
42145763577,-0.162903,-0.438843,-0.839111,-0.277283
42145786078,-0.163452,-0.437073,-0.839355,-0.27887
42145809173,-0.164368,-0.435974,-0.839294,-0.280396
42145823616,-0.165588,-0.435608,-0.838806,-0.281738
42145846088,-0.166931,-0.435669,-0.838135,-0.282715
42145869244,-0.167969,-0.435242,-0.837891,-0.283447
42145883578,-0.168579,-0.43457,-0.837952,-0.284119
42145906030,-0.169373,-0.434387,-0.837708,-0.284546
42145929200,-0.17041,-0.434509,-0.837463,-0.284546
42145943534,-0.171692,-0.434937,-0.837036,-0.284302
42145966087,-0.173035,-0.435486,-0.836548,-0.28418
42145989226,-0.1745,-0.436707,-0.835571,-0.284119
42146003552,-0.176819,-0.43988,-0.83374,-0.283203
42146026102,-0.179138,-0.445435,-0.830933,-0.28125
42146049196,-0.180664,-0.454041,-0.826782,-0.278931
42146070268,-0.18158,-0.465393,-0.820862,-0.276978
42146086094,-0.183655,-0.479492,-0.812805,-0.275269
42146109216,-0.188232,-0.496216,-0.802185,-0.273743
42146130292,-0.194946,-0.510498,-0.791382,-0.274292
42146146066,-0.20459,-0.524597,-0.778015,-0.27887
42146169206,-0.217102,-0.535522,-0.764099,-0.286926
42146190279,-0.232971,-0.542114,-0.751404,-0.295532
42146206045,-0.249084,-0.546387,-0.73999,-0.303162
42146229256,-0.264099,-0.546814,-0.73114,-0.311096
42146250304,-0.277161,-0.542114,-0.725952,-0.320068
42146266078,-0.287903,-0.5354,-0.722351,-0.329895
42146289235,-0.297058,-0.529846,-0.71875,-0.338379
42146310303,-0.304688,-0.526917,-0.714844,-0.34436
42146326049,-0.31073,-0.526062,-0.711487,-0.34729
42146349274,-0.314941,-0.5271,-0.708984,-0.347046
42146370318,-0.316833,-0.529419,-0.707275,-0.345154
42146386060,-0.317139,-0.531738,-0.705994,-0.344055
42146409304,-0.317688,-0.534241,-0.703796,-0.344238
42146430313,-0.320435,-0.537476,-0.700195,-0.343933
42146446080,-0.324158,-0.540466,-0.697144,-0.34198
42146469267,-0.325867,-0.540771,-0.696777,-0.340515
42146490346,-0.3255,-0.538208,-0.698547,-0.341309
42146506080,-0.324951,-0.534668,-0.7005,-0.343445
42146529226,-0.325256,-0.531982,-0.701477,-0.345276
42146550288,-0.326355,-0.530701,-0.70166,-0.345947
42146566053,-0.327637,-0.531006,-0.700989,-0.34552
42146588577,-0.328552,-0.531616,-0.700317,-0.345154
42146610320,-0.328491,-0.531067,-0.700684,-0.345276
42146626040,-0.327698,-0.529724,-0.701965,-0.345459
42146648526,-0.327026,-0.529053,-0.702881,-0.345276
42146670296,-0.327148,-0.529785,-0.702637,-0.344604
42146686073,-0.327698,-0.531677,-0.701477,-0.343506
42146708620,-0.328125,-0.533875,-0.700195,-0.342285
42146730434,-0.328064,-0.535339,-0.699646,-0.341125
42146746099,-0.327271,-0.535583,-0.700256,-0.340332
42146768618,-0.326172,-0.535339,-0.701172,-0.339844
42146791721,-0.325745,-0.535645,-0.701477,-0.339233
42146806076,-0.325989,-0.536377,-0.701172,-0.338379
42146828570,-0.326233,-0.536926,-0.700928,-0.337769
42146851697,-0.326416,-0.536987,-0.700989,-0.337402
42146866119,-0.326477,-0.536865,-0.701172,-0.337158
42146888579,-0.32666,-0.536865,-0.701233,-0.336792
42146911746,-0.326904,-0.536926,-0.701355,-0.336365
42146926123,-0.326965,-0.537109,-0.701355,-0.335876
42146948577,-0.326965,-0.537415,-0.701355,-0.335449
42146971765,-0.326965,-0.538147,-0.70105,-0.3349
42146986106,-0.326904,-0.539062,-0.700623,-0.33429
42147008616,-0.326721,-0.539795,-0.7005,-0.333679
42147031775,-0.326233,-0.540222,-0.700623,-0.333069
42147046117,-0.325623,-0.54071,-0.700806,-0.33252
42147068594,-0.324951,-0.541504,-0.700867,-0.331848
42147091724,-0.324463,-0.542419,-0.700745,-0.330994
42147106062,-0.323975,-0.543518,-0.700623,-0.329956
42147128568,-0.323242,-0.544495,-0.700684,-0.328918
42147151749,-0.322327,-0.545166,-0.700928,-0.328125
42147166198,-0.321716,-0.545654,-0.701172,-0.327393
42147188630,-0.321777,-0.546021,-0.701355,-0.326416
42147211823,-0.32251,-0.545837,-0.701965,-0.324707
42147226106,-0.322998,-0.544434,-0.703613,-0.322937
42147248654,-0.323486,-0.542664,-0.705627,-0.321167
42147271862,-0.32428,-0.539978,-0.708557,-0.318298
42147292905,-0.324402,-0.534546,-0.713989,-0.315063
42147308702,-0.322449,-0.52771,-0.720398,-0.314087
42147331800,-0.318909,-0.523743,-0.724121,-0.315735
42147352890,-0.314392,-0.521912,-0.726685,-0.317444
42147368565,-0.307129,-0.516113,-0.732727,-0.32019
42147391725,-0.295837,-0.507812,-0.740112,-0.327087
42147412822,-0.282104,-0.500183,-0.746216,-0.336914
42147428679,-0.266724,-0.493469,-0.751831,-0.346741
42147451794,-0.250122,-0.48407,-0.759583,-0.355469
42147472889,-0.231506,-0.473022,-0.767944,-0.364685
42147488664,-0.211975,-0.462402,-0.775513,-0.374146
42147511165,-0.192627,-0.45282,-0.78186,-0.382935
42147532869,-0.173828,-0.443176,-0.787964,-0.390625
42147548646,-0.156311,-0.434509,-0.792847,-0.397827
42147571216,-0.140747,-0.428894,-0.795837,-0.403687
42147592865,-0.125671,-0.422668,-0.799561,-0.407898
42147608598,-0.109375,-0.411926,-0.805298,-0.412292
42147631111,-0.0945435,-0.400452,-0.810608,-0.416809
42147652806,-0.0834961,-0.392822,-0.813599,-0.420532
42147668673,-0.0765381,-0.389465,-0.814941,-0.422363
42147691112,-0.0717773,-0.387207,-0.816162,-0.422913
42147714337,-0.0675659,-0.383179,-0.818298,-0.423157
42147728702,-0.0645142,-0.377991,-0.820923,-0.423279
42147751186,-0.0646362,-0.375793,-0.822083,-0.423035
42147774338,-0.067688,-0.377686,-0.821655,-0.421631
42147787938,-0.0703735,-0.378296,-0.822388,-0.41925
42147802136,-0.0704956,-0.37439,-0.825073,-0.417419
42147824756,-0.0709839,-0.370483,-0.827087,-0.416809
42147847852,-0.0748291,-0.370911,-0.827148,-0.415649
42147862234,-0.0794678,-0.372253,-0.827087,-0.413757
42147884705,-0.0823364,-0.371765,-0.82782,-0.412109
42147907815,-0.0842896,-0.369751,-0.829041,-0.411072
42147922144,-0.086731,-0.367798,-0.8302,-0.409973
42147946077,-0.0892944,-0.36615,-0.83136,-0.408569
42147967852,-0.0919189,-0.36438,-0.832397,-0.407471
42147982184,-0.0952759,-0.364258,-0.832397,-0.406738
42148004750,-0.0986938,-0.365479,-0.831909,-0.405823
42148027919,-0.100525,-0.36499,-0.832275,-0.405029
42148042231,-0.10083,-0.362122,-0.833679,-0.404663
42148064762,-0.101135,-0.359619,-0.834656,-0.404846
42148087908,-0.103088,-0.359558,-0.83429,-0.405212
42148102272,-0.105591,-0.359985,-0.833496,-0.405701
42148124803,-0.107239,-0.359253,-0.833374,-0.40625
42148147892,-0.107849,-0.356995,-0.833923,-0.406982
42148162333,-0.108521,-0.354858,-0.834412,-0.407593
42148184719,-0.10968,-0.353821,-0.834473,-0.40802
42148207898,-0.110962,-0.353149,-0.834412,-0.408447
42148222147,-0.112305,-0.352417,-0.834412,-0.408691
42148244635,-0.113708,-0.351685,-0.834534,-0.408691
42148267925,-0.114624,-0.351318,-0.834595,-0.40863
42148282297,-0.114929,-0.351013,-0.834717,-0.408508
42148304749,-0.114929,-0.350708,-0.8349,-0.408508
42148327926,-0.114929,-0.350708,-0.8349,-0.408508
42148342270,-0.115295,-0.350952,-0.834717,-0.408569
42148364725,-0.115356,-0.351013,-0.834778,-0.408386
42148387877,-0.115051,-0.350403,-0.835083,-0.408386
42148402118,-0.115173,-0.35022,-0.835022,-0.408569
42148424735,-0.115967,-0.350708,-0.834656,-0.40863
42148447727,-0.116882,-0.351379,-0.834351,-0.408447
42148462198,-0.117676,-0.352173,-0.834045,-0.408264
42148484716,-0.118347,-0.353699,-0.833191,-0.408447
42148507819,-0.119507,-0.356567,-0.831665,-0.408691
42148530368,-0.120605,-0.360474,-0.829712,-0.408875
42148544640,-0.121704,-0.365417,-0.827271,-0.40918
42148567905,-0.125122,-0.370789,-0.823853,-0.410095
42148582275,-0.135681,-0.377686,-0.819153,-0.409973
42148604762,-0.154663,-0.384399,-0.815063,-0.40509
42148627241,-0.177856,-0.391907,-0.811523,-0.395325
42148642329,-0.199158,-0.398132,-0.807922,-0.386292
42148664772,-0.220032,-0.404968,-0.802979,-0.378052
42148687275,-0.244263,-0.411987,-0.798157,-0.365662
42148702212,-0.26825,-0.418701,-0.794312,-0.349182
42148724780,-0.289368,-0.423035,-0.791199,-0.333862
42148747243,-0.309143,-0.428528,-0.786499,-0.319885
42148762128,-0.326172,-0.429749,-0.78479,-0.305115
42148784621,-0.339355,-0.426697,-0.785339,-0.293457
42148807191,-0.350159,-0.427246,-0.782959,-0.286194
42148822159,-0.361328,-0.433899,-0.776428,-0.280151
42148844682,-0.369568,-0.440674,-0.770569,-0.274902
42148867308,-0.373169,-0.445068,-0.767029,-0.272827
42148882249,-0.373901,-0.449097,-0.764404,-0.272705
42148912951,-0.373474,-0.453552,-0.761841,-0.272827
42148927313,-0.372559,-0.458008,-0.759888,-0.272339
42148942251,-0.370667,-0.461365,-0.75885,-0.271973
42148964790,-0.368042,-0.465088,-0.757812,-0.272217
42148987282,-0.364746,-0.46936,-0.756409,-0.273193
42149002172,-0.361084,-0.47345,-0.755005,-0.274902
42149024832,-0.357422,-0.476379,-0.754089,-0.2771
42149047261,-0.353882,-0.47821,-0.753662,-0.279663
42149062198,-0.350647,-0.479553,-0.753235,-0.282532
42149084650,-0.348022,-0.48053,-0.752686,-0.285645
42149107205,-0.346252,-0.481628,-0.751648,-0.288574
42149130385,-0.34552,-0.482849,-0.750305,-0.291016
42149144683,-0.345276,-0.483704,-0.749023,-0.293091
42149167216,-0.344849,-0.483826,-0.748291,-0.295288
42149190453,-0.344177,-0.483765,-0.747681,-0.297668
42149204820,-0.342957,-0.483154,-0.747498,-0.300476
42149227260,-0.341492,-0.481445,-0.747986,-0.303711
42149242307,-0.339905,-0.479065,-0.74884,-0.30719
42149264801,-0.337952,-0.47583,-0.750244,-0.310852
42149288754,-0.334778,-0.471802,-0.75238,-0.315308
42149310485,-0.330261,-0.466553,-0.755493,-0.320312
42149324731,-0.324829,-0.461182,-0.75885,-0.325806
42149347242,-0.318909,-0.456665,-0.761414,-0.331848
42149370438,-0.312683,-0.45282,-0.763245,-0.338806
42149384733,-0.307068,-0.449585,-0.763794,-0.346802
42149407318,-0.303345,-0.44812,-0.762451,-0.354919
42149430496,-0.301575,-0.448669,-0.759216,-0.362488
42149444812,-0.300232,-0.450073,-0.755493,-0.369751
42149467373,-0.298035,-0.450623,-0.752258,-0.377258
42149490459,-0.294495,-0.44928,-0.750488,-0.385071
42149504807,-0.290344,-0.447083,-0.749634,-0.392456
42149527215,-0.287109,-0.446533,-0.747803,-0.398804
42149550353,-0.284973,-0.447449,-0.745056,-0.40448
42149564691,-0.283508,-0.449524,-0.741577,-0.409485
42149587178,-0.282288,-0.452271,-0.737915,-0.414001
42149609762,-0.281128,-0.454468,-0.734619,-0.418152
42149624789,-0.279541,-0.455139,-0.732422,-0.422363
42149647319,-0.277283,-0.454346,-0.731201,-0.42688
42149669837,-0.274719,-0.452515,-0.73053,-0.431519
42149684749,-0.272278,-0.450195,-0.730164,-0.436096
42149707234,-0.269958,-0.446899,-0.730469,-0.440369
42149729800,-0.266724,-0.441895,-0.731995,-0.444885
42149744806,-0.26239,-0.436401,-0.733704,-0.450012
42149767330,-0.255798,-0.429749,-0.736023,-0.45636
42149789707,-0.246094,-0.420105,-0.739502,-0.465027
42149804681,-0.234924,-0.407898,-0.743652,-0.474915
42149827249,-0.223328,-0.394104,-0.74762,-0.485779
42149849700,-0.211304,-0.378174,-0.75177,-0.497253
42149864786,-0.200562,-0.362,-0.755005,-0.508728
42149887234,-0.192017,-0.347717,-0.756287,-0.52002
42149909737,-0.184021,-0.333862,-0.756775,-0.531128
42149924766,-0.176331,-0.318298,-0.757751,-0.541748
42149947241,-0.169495,-0.302979,-0.757874,-0.552429
42149969783,-0.1651,-0.289795,-0.756531,-0.562622
42149984781,-0.162109,-0.278564,-0.754578,-0.571655
42150007282,-0.158203,-0.266663,-0.753235,-0.5802
42150029821,-0.153687,-0.253906,-0.752136,-0.588501
42150044861,-0.150024,-0.242188,-0.750671,-0.59613
42150067168,-0.148499,-0.232788,-0.74884,-0.602539
42150089695,-0.147766,-0.225037,-0.747314,-0.607605
42150107666,-0.145508,-0.216797,-0.746399,-0.612183
42150127352,-0.142334,-0.208984,-0.745728,-0.616455
42150149795,-0.140686,-0.203491,-0.74469,-0.619934
42150164824,-0.139954,-0.199768,-0.743591,-0.622681
42150187294,-0.138428,-0.195984,-0.742859,-0.625061
42150209825,-0.135742,-0.192017,-0.742554,-0.627258
42150224801,-0.133057,-0.188599,-0.742188,-0.629272
42150247282,-0.131226,-0.186523,-0.741577,-0.630981
42150269788,-0.129761,-0.185242,-0.741028,-0.632324
42150284814,-0.12854,-0.184814,-0.740601,-0.633179
42150307253,-0.127136,-0.18457,-0.740662,-0.633484
42150329760,-0.123779,-0.182922,-0.741455,-0.633728
42150346187,-0.120361,-0.181763,-0.742004,-0.634033
42150367160,-0.118713,-0.182251,-0.741943,-0.634277
42150389821,-0.117615,-0.183167,-0.741821,-0.634338
42150406256,-0.116089,-0.183289,-0.741943,-0.634521
42150427312,-0.113647,-0.182373,-0.742249,-0.634827
42150449834,-0.110413,-0.180786,-0.742554,-0.635437
42150466195,-0.107971,-0.179749,-0.742676,-0.636047
42150487310,-0.106934,-0.179443,-0.742493,-0.636536
42150509799,-0.106018,-0.178894,-0.742371,-0.636963
42150526241,-0.104309,-0.177429,-0.742432,-0.637573
42150547314,-0.102356,-0.176025,-0.742432,-0.638306
42150563765,-0.100342,-0.1745,-0.742371,-0.639099
42150586199,-0.0982056,-0.172852,-0.74231,-0.639954
42150607185,-0.0964966,-0.171326,-0.742188,-0.640747
42150623663,-0.09552,-0.169922,-0.742004,-0.641541
42150646147,-0.0946045,-0.168091,-0.741699,-0.642456
42150667202,-0.09375,-0.165649,-0.741333,-0.643677
42150689670,-0.0931396,-0.162537,-0.740784,-0.645142
42150706142,-0.0930786,-0.158325,-0.740234,-0.646851
42150727170,-0.0932617,-0.153503,-0.739319,-0.648987
42150749822,-0.093811,-0.148621,-0.738159,-0.651367
42150766276,-0.0938721,-0.143188,-0.737061,-0.65387
42150787292,-0.0928955,-0.137085,-0.736084,-0.656372
42150809790,-0.0922241,-0.131714,-0.735168,-0.658569
42150826210,-0.0926514,-0.127991,-0.734131,-0.660461
42150847345,-0.0939331,-0.125793,-0.733093,-0.661865
42150869837,-0.0949097,-0.123901,-0.732422,-0.662842
42150886199,-0.0940552,-0.121521,-0.732056,-0.663757
42150907264,-0.0934448,-0.120422,-0.731689,-0.664429
42150923690,-0.0939941,-0.121155,-0.731201,-0.664795
42150946141,-0.0942993,-0.122192,-0.730835,-0.664978
42150967248,-0.0933838,-0.122681,-0.730713,-0.6651
42150983644,-0.0925903,-0.12323,-0.730591,-0.665222
42151006197,-0.0922241,-0.124207,-0.73053,-0.665222
42151027235,-0.0921631,-0.125122,-0.730469,-0.6651
42151043776,-0.0919189,-0.125671,-0.730469,-0.664978
42151066246,-0.0913696,-0.125854,-0.730591,-0.664917
42151087329,-0.0905151,-0.125732,-0.730652,-0.664978
42151103742,-0.0900879,-0.126099,-0.730652,-0.665039
42151126265,-0.090332,-0.127014,-0.730408,-0.665039
42151147296,-0.0910645,-0.12854,-0.730225,-0.664856
42151163767,-0.0914917,-0.130005,-0.730103,-0.664612
42151186258,-0.0910645,-0.130737,-0.730347,-0.664307
42151207298,-0.090271,-0.131409,-0.730469,-0.664124
42151223691,-0.0906372,-0.13269,-0.730408,-0.66394
42151246157,-0.0919189,-0.134338,-0.730164,-0.663696
42151267226,-0.0933838,-0.135803,-0.729797,-0.663574
42151283665,-0.0942993,-0.136597,-0.729309,-0.663818
42151306167,-0.0946655,-0.136719,-0.728699,-0.664368
42151328650,-0.0945435,-0.136047,-0.728149,-0.665161
42151343660,-0.0944824,-0.13501,-0.7276,-0.665955
42151366161,-0.0952759,-0.13446,-0.726624,-0.667053
42151388697,-0.0961304,-0.133728,-0.725342,-0.668518
42151409805,-0.0953979,-0.131409,-0.724121,-0.670349
42151426267,-0.0928955,-0.126343,-0.723267,-0.672607
42151448738,-0.0906372,-0.120056,-0.722229,-0.675171
42151469791,-0.0907593,-0.114929,-0.720398,-0.677979
42151486257,-0.0921631,-0.110291,-0.718079,-0.68103
42151510129,-0.0931396,-0.104614,-0.715515,-0.684509
42151529837,-0.0939331,-0.0981445,-0.712585,-0.688354
42151546230,-0.0951538,-0.0917358,-0.709229,-0.692566
42151568741,-0.0968018,-0.0856323,-0.705505,-0.696899
42151589848,-0.098938,-0.0800171,-0.701538,-0.701233
42151606207,-0.10144,-0.0749512,-0.697571,-0.705383
42151627898,-0.103027,-0.069397,-0.693542,-0.709656
42151650453,-0.104309,-0.0637207,-0.689148,-0.714294
42151665445,-0.10675,-0.0585327,-0.684204,-0.719116
42151687908,-0.10907,-0.0525513,-0.679382,-0.723816
42151710454,-0.111328,-0.0463257,-0.674683,-0.728271
42151725450,-0.113892,-0.0401611,-0.669922,-0.732605
42151747945,-0.116577,-0.0341187,-0.665283,-0.736694
42151770399,-0.119507,-0.0291138,-0.660828,-0.740479
42151786880,-0.121887,-0.0241089,-0.656677,-0.743958
42151808002,-0.123474,-0.0189209,-0.652832,-0.747192
42151830549,-0.125793,-0.0149536,-0.649536,-0.749756
42151845545,-0.128479,-0.0122681,-0.646545,-0.751953
42151867991,-0.129578,-0.00915527,-0.644165,-0.753845
42151890471,-0.128967,-0.00622559,-0.642761,-0.755188
42151905448,-0.128967,-0.00488281,-0.642456,-0.755432
42151927985,-0.129944,-0.00531006,-0.643066,-0.754761
42151950440,-0.130066,-0.00628662,-0.643738,-0.75415
42151965491,-0.128479,-0.0067749,-0.644653,-0.753601
42151987923,-0.126343,-0.00714111,-0.645752,-0.753052
42152011816,-0.125732,-0.00848389,-0.646851,-0.752197
42152025422,-0.126343,-0.0106201,-0.647888,-0.75116
42152047882,-0.126831,-0.0127563,-0.648987,-0.750122
42152063675,-0.125793,-0.0139771,-0.650208,-0.749207
42152085407,-0.123474,-0.0144653,-0.65155,-0.748413
42152107907,-0.122253,-0.015564,-0.652832,-0.747498
42152123718,-0.122681,-0.0177002,-0.654053,-0.746277
42152145407,-0.123474,-0.0203247,-0.655273,-0.745056
42152167957,-0.123657,-0.0229492,-0.656555,-0.743774
42152183788,-0.123291,-0.0256958,-0.658142,-0.742371
42152205473,-0.12323,-0.0291138,-0.65979,-0.740784
42152228054,-0.12384,-0.0337524,-0.661682,-0.73877
42152250521,-0.125,-0.0394287,-0.663635,-0.736511
42152265546,-0.125549,-0.0452271,-0.66571,-0.734253
42152288045,-0.125061,-0.0510864,-0.667725,-0.732117
42152310490,-0.124573,-0.0574951,-0.6698,-0.729797
42152325502,-0.123779,-0.0643311,-0.67218,-0.727173
42152348016,-0.122437,-0.0712891,-0.674866,-0.724304
42152370465,-0.12085,-0.0784912,-0.677368,-0.721436
42152385528,-0.119995,-0.0862427,-0.679932,-0.718323
42152407939,-0.118835,-0.0946045,-0.682678,-0.714844
42152430404,-0.11676,-0.10376,-0.685547,-0.711121
42152446828,-0.113892,-0.113831,-0.688416,-0.707275
42152467889,-0.110413,-0.124146,-0.691284,-0.703308
42152490441,-0.107361,-0.135071,-0.694092,-0.698975
42152506876,-0.104553,-0.146423,-0.697021,-0.694153
42152527951,-0.101929,-0.159729,-0.69989,-0.688721
42152550413,-0.0986938,-0.173584,-0.702759,-0.682922
42152566856,-0.0953979,-0.187378,-0.70575,-0.676636
42152587922,-0.0927124,-0.200134,-0.708801,-0.670105
42152610492,-0.0911255,-0.211975,-0.71167,-0.663574
42152626970,-0.0906982,-0.22406,-0.714294,-0.65686
42152648031,-0.0896606,-0.235596,-0.717407,-0.649536
42152670535,-0.0877075,-0.246765,-0.720947,-0.641663
42152686993,-0.0862427,-0.257263,-0.724548,-0.633606
42152707939,-0.086853,-0.267456,-0.727966,-0.625366
42152730565,-0.0894165,-0.278992,-0.731079,-0.616272
42152746978,-0.092041,-0.291565,-0.733459,-0.607178
42152767954,-0.0928955,-0.304016,-0.735413,-0.598511
42152790534,-0.0935669,-0.316406,-0.736633,-0.590393
42152806942,-0.0958862,-0.328491,-0.737,-0.582947
42152828015,-0.0994873,-0.339844,-0.736877,-0.575989
42152850521,-0.102905,-0.351257,-0.736389,-0.569092
42152866933,-0.106567,-0.363464,-0.735168,-0.562256
42152888073,-0.111389,-0.375671,-0.733765,-0.555115
42152910537,-0.117188,-0.38562,-0.733276,-0.547729
42152934389,-0.124207,-0.395752,-0.732788,-0.53949
42152947964,-0.130676,-0.405151,-0.732422,-0.531433
42152970501,-0.135376,-0.411926,-0.732788,-0.524475
42152986844,-0.139404,-0.416504,-0.733887,-0.518311
42153007951,-0.144592,-0.421448,-0.734497,-0.511963
42153030509,-0.151428,-0.427856,-0.734253,-0.504944
42153046995,-0.157715,-0.434021,-0.733948,-0.49823
42153067988,-0.162598,-0.437744,-0.734558,-0.492493
42153090506,-0.166138,-0.438049,-0.736938,-0.487305
42153106910,-0.168945,-0.437073,-0.740479,-0.481873
42153127872,-0.171509,-0.437744,-0.743103,-0.476318
42153150445,-0.174072,-0.438965,-0.744873,-0.471497
42153172922,-0.177979,-0.440491,-0.745361,-0.467773
42153187939,-0.182739,-0.442444,-0.745239,-0.464294
42153210435,-0.186035,-0.444702,-0.745178,-0.460876
42153226238,-0.185852,-0.445862,-0.746033,-0.458496
42153247966,-0.182434,-0.444885,-0.747986,-0.457642
42153270447,-0.179504,-0.444031,-0.749207,-0.457581
42153286227,-0.180359,-0.446899,-0.748169,-0.456177
42153308034,-0.182739,-0.451233,-0.746338,-0.453979
42153330481,-0.182861,-0.453308,-0.746216,-0.452026
42153346222,-0.180298,-0.452881,-0.747864,-0.450745
42153369467,-0.177734,-0.452026,-0.749634,-0.449646
42153390526,-0.175903,-0.451172,-0.751099,-0.448853
42153406343,-0.175415,-0.451294,-0.751648,-0.447998
42153429468,-0.175903,-0.452393,-0.751648,-0.446655
42153451952,-0.175781,-0.453064,-0.752014,-0.445496
42153466257,-0.175781,-0.454468,-0.751831,-0.444275
42153496986,-0.17627,-0.456177,-0.75177,-0.442444
42153510509,-0.177429,-0.459045,-0.750854,-0.440613
42153526276,-0.178223,-0.461243,-0.750122,-0.439209
42153549438,-0.178589,-0.462219,-0.750183,-0.437988
42153570525,-0.179321,-0.463806,-0.749939,-0.43634
42153586327,-0.180359,-0.466248,-0.749023,-0.434937
42153609506,-0.18103,-0.468567,-0.747986,-0.43396
42153630564,-0.181396,-0.470215,-0.747253,-0.433289
42153646336,-0.181885,-0.471497,-0.746521,-0.432922
42153669471,-0.181946,-0.472534,-0.746033,-0.432556
42153683847,-0.182007,-0.474365,-0.745239,-0.431946
42153706339,-0.182861,-0.477234,-0.743896,-0.430786
42153729437,-0.183838,-0.480225,-0.742249,-0.429749
42153750456,-0.18457,-0.4823,-0.741089,-0.429199
42153766253,-0.184998,-0.483948,-0.740295,-0.428528
42153789375,-0.184692,-0.485413,-0.739685,-0.428101
42153810442,-0.184326,-0.487427,-0.73877,-0.427551
42153826198,-0.18457,-0.490051,-0.737488,-0.426697
42153856897,-0.184814,-0.492249,-0.736389,-0.425842
42153870485,-0.184937,-0.493652,-0.735779,-0.425293
42153886253,-0.184875,-0.494568,-0.735474,-0.424805
42153909416,-0.184692,-0.4953,-0.735229,-0.424377
42153930490,-0.18457,-0.495972,-0.734985,-0.424133
42153946228,-0.184937,-0.496765,-0.734375,-0.424072
42153969433,-0.185364,-0.496826,-0.734192,-0.424133
42153990506,-0.185486,-0.496033,-0.734497,-0.4245
42154006249,-0.185181,-0.495056,-0.734863,-0.42511
42154029455,-0.18512,-0.494263,-0.735229,-0.425415
42154050492,-0.185242,-0.493774,-0.735474,-0.425537
42154066279,-0.185425,-0.493713,-0.735474,-0.425537
42154089405,-0.185547,-0.493652,-0.735474,-0.425537
42154110516,-0.18573,-0.493347,-0.735474,-0.42572
42154126274,-0.185913,-0.493103,-0.735535,-0.425842
42154148861,-0.186096,-0.492676,-0.735779,-0.425903
42154170524,-0.185974,-0.49231,-0.735962,-0.426086
42154186339,-0.185974,-0.49231,-0.735962,-0.426086
42154208814,-0.185974,-0.49231,-0.735901,-0.426086
42154230559,-0.185974,-0.492371,-0.735901,-0.426086
42154246348,-0.185974,-0.492371,-0.735901,-0.426086
42154268827,-0.185913,-0.492371,-0.735901,-0.426086
42154290576,-0.185913,-0.492371,-0.735901,-0.426086
42154306361,-0.185913,-0.492371,-0.735901,-0.426086
42154329324,-0.185913,-0.49231,-0.735901,-0.426086
42154351904,-0.185913,-0.49231,-0.735901,-0.426147
42154366310,-0.185913,-0.49231,-0.735901,-0.426147
42154388785,-0.185913,-0.492371,-0.735901,-0.426086
42154412018,-0.185913,-0.492371,-0.735901,-0.426086
42154426352,-0.185913,-0.492371,-0.735901,-0.426086
42154448926,-0.185913,-0.492371,-0.735901,-0.426086
42154472048,-0.185913,-0.492371,-0.735901,-0.426086
42154486266,-0.185913,-0.492371,-0.735901,-0.426086
42154508873,-0.185913,-0.492371,-0.735901,-0.426086
42154532007,-0.185974,-0.492554,-0.735779,-0.426086
42154546257,-0.186157,-0.49292,-0.735596,-0.425903
42154568740,-0.18634,-0.493103,-0.735474,-0.425842
42154591898,-0.18634,-0.493103,-0.735474,-0.425842
42154606212,-0.18634,-0.493103,-0.735474,-0.425842
42154628732,-0.186401,-0.493103,-0.735535,-0.425659
42154651958,-0.186401,-0.493103,-0.735535,-0.425659
42154666277,-0.186218,-0.492981,-0.735718,-0.425598
42154688745,-0.186218,-0.492981,-0.735718,-0.425598
42154711934,-0.186218,-0.493164,-0.735657,-0.425476
42154726293,-0.186218,-0.493164,-0.735657,-0.425476
42154748800,-0.186218,-0.493164,-0.735657,-0.425476
42154771972,-0.186279,-0.493347,-0.735657,-0.425232
42154786347,-0.186462,-0.49353,-0.735596,-0.425049
42154808823,-0.186584,-0.493774,-0.735474,-0.424866
42154831995,-0.186584,-0.493774,-0.735535,-0.424866
42154853000,-0.186462,-0.494019,-0.735413,-0.424805
42154868827,-0.186462,-0.494324,-0.735291,-0.424683
42154891908,-0.186523,-0.494507,-0.735229,-0.424561
42154913059,-0.186523,-0.494446,-0.735229,-0.424561
42154928896,-0.186523,-0.494446,-0.735229,-0.424561
42154951945,-0.186523,-0.494446,-0.735229,-0.424561
42154973040,-0.186523,-0.494446,-0.735229,-0.424561
42154988869,-0.186523,-0.494446,-0.735229,-0.424561
42155011977,-0.186707,-0.49469,-0.735046,-0.4245
42155033005,-0.18689,-0.494812,-0.734985,-0.4245
42155048828,-0.18689,-0.494629,-0.734985,-0.424622
42155071340,-0.186646,-0.494263,-0.735168,-0.424866
42155093009,-0.18634,-0.493713,-0.735474,-0.425171
42155115598,-0.186523,-0.49353,-0.735413,-0.425415
42155131345,-0.186829,-0.493469,-0.735291,-0.425476
42155160534,-0.186829,-0.493103,-0.735474,-0.425598
42155168871,-0.186646,-0.492737,-0.735596,-0.425842
42155191336,-0.186646,-0.492798,-0.735596,-0.425842
42155213076,-0.186951,-0.493103,-0.735352,-0.42572
42155228841,-0.187195,-0.493286,-0.735229,-0.425659
42155251298,-0.186646,-0.492554,-0.735657,-0.425964
42155274489,-0.185547,-0.490906,-0.736633,-0.426697
42155288805,-0.184814,-0.489258,-0.73761,-0.427185
42155311327,-0.184509,-0.487793,-0.738525,-0.427429
42155334489,-0.184143,-0.486877,-0.739075,-0.427734
42155348824,-0.184143,-0.486938,-0.739014,-0.427673
42155371260,-0.184387,-0.487549,-0.738892,-0.427124
42155394967,-0.184204,-0.487732,-0.739075,-0.426758
42155408789,-0.183899,-0.487671,-0.739197,-0.426636
42155439620,-0.183777,-0.487732,-0.739258,-0.426575
42155454500,-0.183655,-0.487671,-0.73938,-0.426514
42155468072,-0.183411,-0.487183,-0.739746,-0.426453
42155482485,-0.183167,-0.486877,-0.740051,-0.426453
42155504930,-0.183167,-0.486816,-0.740051,-0.426453
42155528052,-0.183167,-0.486816,-0.740051,-0.426453
42155542435,-0.183228,-0.486633,-0.740173,-0.426453
42155564886,-0.182983,-0.486084,-0.740479,-0.426636
42155588123,-0.182861,-0.485657,-0.740723,-0.426758
42155602418,-0.182983,-0.485413,-0.740906,-0.426758
42155624858,-0.183105,-0.485168,-0.740967,-0.426758
42155648128,-0.182983,-0.484924,-0.741089,-0.427002
42155670578,-0.182983,-0.484619,-0.74115,-0.427185
42155684914,-0.183105,-0.484314,-0.741211,-0.427307
42155708092,-0.182983,-0.483948,-0.741394,-0.427551
42155722480,-0.182556,-0.483398,-0.741577,-0.427979
42155744877,-0.183289,-0.483887,-0.741028,-0.42804
42155768047,-0.18512,-0.48645,-0.739319,-0.427307
42155790518,-0.187378,-0.488525,-0.737305,-0.427429
42155804823,-0.189148,-0.489319,-0.735718,-0.428589
42155828024,-0.189453,-0.488525,-0.735413,-0.42981
42155850492,-0.189758,-0.487061,-0.735962,-0.43042
42155864858,-0.190857,-0.486633,-0.735901,-0.430481
42155887980,-0.192139,-0.48822,-0.73407,-0.431274
42155910499,-0.193726,-0.492432,-0.730225,-0.432312
42155924857,-0.194214,-0.496887,-0.726196,-0.433777
42155947407,-0.191711,-0.499329,-0.723572,-0.436523
42155970545,-0.186707,-0.499817,-0.721619,-0.441223
42155984833,-0.179871,-0.499634,-0.719482,-0.447693
42156007432,-0.172607,-0.500061,-0.715942,-0.45575
42156030586,-0.165283,-0.501465,-0.710571,-0.46521
42156044958,-0.157898,-0.503479,-0.703857,-0.475708
42156068124,-0.149353,-0.505615,-0.696228,-0.487305
42156090583,-0.138306,-0.506165,-0.688782,-0.500366
42156104896,-0.125488,-0.504944,-0.681763,-0.514404
42156128099,-0.112671,-0.502808,-0.674194,-0.529175
42156150639,-0.0999756,-0.500732,-0.665649,-0.544312
42156164931,-0.086731,-0.498596,-0.656006,-0.56012
42156188031,-0.0726318,-0.495972,-0.64563,-0.576233
42156210622,-0.0598145,-0.493774,-0.634766,-0.591431
42156224874,-0.048584,-0.492126,-0.623474,-0.605652
42156247472,-0.0367432,-0.489746,-0.612183,-0.619812
42156270607,-0.0235596,-0.485962,-0.60144,-0.633789
42156284925,-0.0118408,-0.482178,-0.590942,-0.646729
42156307480,-0.00280762,-0.479614,-0.580017,-0.658508
42156330604,0.00537109,-0.477295,-0.56897,-0.669739
42156344967,0.0139771,-0.474182,-0.558289,-0.680725
42156367486,0.022583,-0.470886,-0.547974,-0.69104
42156390594,0.0294189,-0.468262,-0.537598,-0.700684
42156404948,0.0349731,-0.466003,-0.527588,-0.709534
42156427464,0.0401001,-0.463562,-0.518005,-0.717834
42156450631,0.0464478,-0.460632,-0.508362,-0.726135
42156464962,0.0536499,-0.457153,-0.498413,-0.734741
42156487392,0.060791,-0.453674,-0.488708,-0.742798
42156510547,0.0658569,-0.450378,-0.479797,-0.750183
42156524920,0.071228,-0.446777,-0.471436,-0.75708
42156547455,0.0784912,-0.442383,-0.463623,-0.763733
42156570572,0.086792,-0.437744,-0.456482,-0.769775
42156584965,0.0935669,-0.433044,-0.449768,-0.775574
42156607484,0.0993042,-0.428528,-0.44281,-0.781311
42156630621,0.104736,-0.424194,-0.436218,-0.786682
42156644969,0.110779,-0.419739,-0.430359,-0.791443
42156667418,0.116943,-0.415283,-0.425415,-0.795593
42156690604,0.122742,-0.41095,-0.421143,-0.799255
42156704959,0.128113,-0.407104,-0.417175,-0.802429
42156727462,0.13324,-0.403931,-0.413757,-0.804993
42156750570,0.139038,-0.40094,-0.410889,-0.806946
42156764991,0.144409,-0.397888,-0.40863,-0.808655
42156787429,0.148926,-0.395203,-0.406372,-0.810303
42156810565,0.153442,-0.3927,-0.404053,-0.811829
42156824937,0.158691,-0.390198,-0.402405,-0.812866
42156847448,0.164368,-0.387512,-0.401367,-0.813538
42156870644,0.170471,-0.38446,-0.401306,-0.813782
42156884916,0.174377,-0.382019,-0.401733,-0.813843
42156907397,0.176941,-0.38031,-0.401917,-0.814026
42156930524,0.179932,-0.378662,-0.402283,-0.813965
42156944878,0.184448,-0.376648,-0.402954,-0.813538
42156967454,0.190186,-0.374573,-0.40332,-0.812988
42156989944,0.196472,-0.372253,-0.403198,-0.812622
42157004906,0.202698,-0.370239,-0.402527,-0.812317
42157027403,0.209229,-0.368347,-0.401184,-0.812195
42157050620,0.216248,-0.366699,-0.399292,-0.812012
42157064950,0.22345,-0.365051,-0.3974,-0.811768
42157087431,0.231262,-0.363159,-0.395691,-0.811279
42157110577,0.239319,-0.361084,-0.393738,-0.810791
42157124966,0.246948,-0.359253,-0.391357,-0.810486
42157147471,0.2547,-0.357178,-0.389221,-0.810059
42157169898,0.262146,-0.354919,-0.387512,-0.809448
42157184832,0.269348,-0.352905,-0.386292,-0.808594
42157207380,0.276917,-0.350708,-0.385254,-0.807434
42157238650,0.284424,-0.348206,-0.383911,-0.80658
42157244801,0.290588,-0.345642,-0.382019,-0.806396
42157267393,0.295654,-0.343262,-0.380188,-0.806396
42157289838,0.300598,-0.340637,-0.37854,-0.806458
42157304882,0.306396,-0.337646,-0.377136,-0.806213
42157327403,0.3125,-0.334473,-0.375671,-0.805847
42157349921,0.318115,-0.331604,-0.374084,-0.805603
42157364916,0.323059,-0.328979,-0.372742,-0.805298
42157387401,0.327209,-0.326904,-0.371399,-0.805115
42157409983,0.330811,-0.324707,-0.370056,-0.805176
42157425005,0.334106,-0.322571,-0.368896,-0.805176
42157447480,0.337585,-0.320618,-0.367981,-0.804932
42157469943,0.341431,-0.318604,-0.367493,-0.804321
42157484932,0.344849,-0.316772,-0.36731,-0.803711
42157507526,0.34729,-0.315063,-0.367249,-0.803345
42157529868,0.348938,-0.313599,-0.367126,-0.803223
42157544965,0.350342,-0.312256,-0.36731,-0.80304
42157567526,0.35144,-0.311279,-0.367554,-0.802856
42157590002,0.351929,-0.310486,-0.367798,-0.802795
42157604889,0.351562,-0.310181,-0.368042,-0.802979
42157627399,0.350281,-0.310547,-0.368042,-0.803406
42157643910,0.348816,-0.311096,-0.368225,-0.803772
42157664933,0.347473,-0.311707,-0.368652,-0.803894
42157687440,0.34613,-0.312622,-0.369446,-0.803772
42157703897,0.344421,-0.313904,-0.370728,-0.803406
42157724861,0.341797,-0.315674,-0.372131,-0.803223
42157747407,0.338379,-0.317566,-0.373718,-0.803162
42157769998,0.334351,-0.319275,-0.375427,-0.803345
42157787837,0.329529,-0.320984,-0.377502,-0.803711
42157807411,0.323669,-0.322998,-0.379944,-0.804138
42157830012,0.317322,-0.325073,-0.382629,-0.804565
42157844917,0.310547,-0.326843,-0.385254,-0.805237
42157867484,0.303223,-0.328796,-0.387207,-0.806274
42157889946,0.295349,-0.331116,-0.389038,-0.807373
42157904965,0.286377,-0.334229,-0.391235,-0.808228
42157927463,0.276306,-0.33844,-0.393555,-0.808899
42157949904,0.267151,-0.342896,-0.395447,-0.809143
42157966404,0.259277,-0.346802,-0.397095,-0.809265
42157987516,0.251709,-0.351074,-0.398621,-0.809082
42158009947,0.244751,-0.355774,-0.399963,-0.808472
42158026402,0.237976,-0.360657,-0.400757,-0.807922
42158047504,0.230469,-0.36554,-0.400879,-0.807861
42158069976,0.222656,-0.37085,-0.401001,-0.807556
42158086479,0.21582,-0.376709,-0.401489,-0.806458
42158107471,0.211121,-0.382202,-0.402771,-0.804504
42158129978,0.207397,-0.387207,-0.404175,-0.802307
42158146406,0.202942,-0.392151,-0.405762,-0.800293
42158167493,0.19812,-0.396973,-0.40802,-0.797974
42158189989,0.193787,-0.401428,-0.411133,-0.795227
42158206447,0.189941,-0.405029,-0.414612,-0.79248
42158227483,0.185486,-0.40863,-0.418518,-0.789673
42158249982,0.179443,-0.413025,-0.422852,-0.786438
42158266394,0.171997,-0.418701,-0.42804,-0.782288
42158287460,0.164062,-0.42511,-0.434265,-0.7771
42158309981,0.156311,-0.431458,-0.441528,-0.771057
42158326405,0.14801,-0.437805,-0.450012,-0.764221
42158347487,0.138916,-0.444336,-0.459473,-0.75647
42158369966,0.127869,-0.451538,-0.469666,-0.747864
42158386433,0.115479,-0.459106,-0.47998,-0.738647
42158407437,0.102661,-0.466675,-0.490356,-0.728943
42158429898,0.09021,-0.473938,-0.500732,-0.71875
42158446399,0.0778198,-0.480896,-0.511414,-0.707947
42158467448,0.0649414,-0.487915,-0.522278,-0.696472
42158489997,0.0516968,-0.495117,-0.533325,-0.684021
42158506466,0.0393066,-0.501404,-0.544739,-0.671082
42158527481,0.0279541,-0.506714,-0.556335,-0.658081
42158549968,0.0166626,-0.511475,-0.567627,-0.64502
42158566404,0.00427246,-0.516541,-0.578552,-0.631287
42158587430,-0.00915527,-0.521912,-0.588928,-0.617065
42158609900,-0.0217285,-0.526367,-0.59906,-0.603088
42158626430,-0.0327759,-0.529724,-0.608948,-0.5896
42158647449,-0.0435791,-0.532532,-0.618591,-0.576172
42158669991,-0.0557251,-0.535828,-0.627258,-0.5625
42158686460,-0.0679321,-0.539185,-0.635132,-0.54895
42158710410,-0.0782471,-0.541748,-0.6427,-0.536133
42158729915,-0.0864258,-0.542542,-0.65033,-0.524719
42158746445,-0.095459,-0.543762,-0.656799,-0.513733
42158767488,-0.105957,-0.546448,-0.661926,-0.502136
42158789980,-0.115662,-0.548889,-0.667114,-0.490295
42158806383,-0.122803,-0.549133,-0.673584,-0.479309
42158827505,-0.128479,-0.547913,-0.680359,-0.469543
42158849984,-0.134766,-0.547363,-0.685974,-0.460205
42158866442,-0.141968,-0.547546,-0.690613,-0.450806
42158888914,-0.149658,-0.548157,-0.694519,-0.441406
42158910012,-0.157288,-0.549255,-0.697449,-0.432739
42158926439,-0.163818,-0.550293,-0.699524,-0.425659
42158948888,-0.169312,-0.550964,-0.701111,-0.419922
42158969953,-0.174438,-0.551514,-0.702515,-0.414734
42158986458,-0.17865,-0.551697,-0.703979,-0.410156
42159008935,-0.181396,-0.550842,-0.705811,-0.406982
42159029939,-0.1828,-0.549194,-0.707947,-0.404846
42159046421,-0.184204,-0.547546,-0.710022,-0.402832
42159068889,-0.186279,-0.546326,-0.71167,-0.400635
42159090037,-0.188721,-0.545654,-0.712769,-0.398376
42159106362,-0.190979,-0.545898,-0.713074,-0.396423
42159128800,-0.19165,-0.546997,-0.712769,-0.395081
42159149941,-0.188904,-0.546082,-0.713928,-0.395569
42159166342,-0.18573,-0.544495,-0.715393,-0.396606
42159188848,-0.18573,-0.546021,-0.714355,-0.396423
42159218179,-0.188721,-0.5495,-0.711609,-0.395081
42159226383,-0.190369,-0.550049,-0.711365,-0.394043
42159248817,-0.188538,-0.546387,-0.714783,-0.39386
42159269867,-0.184753,-0.540344,-0.719849,-0.394775
42159286400,-0.182007,-0.535156,-0.723877,-0.395691
42159308145,-0.180176,-0.531006,-0.726807,-0.39679
42159330647,-0.17926,-0.528564,-0.728149,-0.39801
42159345668,-0.179382,-0.527283,-0.728699,-0.398682
42159368166,-0.179932,-0.525635,-0.730042,-0.398132
42159390688,-0.179321,-0.523254,-0.7323,-0.397339
42159405657,-0.17804,-0.521484,-0.734436,-0.396301
42159428159,-0.176697,-0.520996,-0.735718,-0.395142
42159450570,-0.175842,-0.521545,-0.735901,-0.394531
42159465643,-0.176025,-0.522888,-0.735291,-0.393738
42159488234,-0.17627,-0.523499,-0.735413,-0.3927
42159510698,-0.175842,-0.522522,-0.73645,-0.39209
42159525640,-0.175171,-0.520813,-0.737854,-0.39209
42159548152,-0.174988,-0.519287,-0.738708,-0.392639
42159570619,-0.175476,-0.517822,-0.739197,-0.393372
42159585613,-0.176147,-0.515808,-0.740051,-0.394043
42159608149,-0.176392,-0.513489,-0.741394,-0.394531
42159630642,-0.176453,-0.511292,-0.742615,-0.39502
42159645703,-0.177063,-0.509766,-0.743286,-0.395508
42159668177,-0.17804,-0.508545,-0.743835,-0.39563
42159692073,-0.178894,-0.507263,-0.744446,-0.395691
42159705635,-0.179626,-0.506226,-0.744934,-0.395752
42159728160,-0.180359,-0.505371,-0.745239,-0.396057
42159750696,-0.181335,-0.504639,-0.7453,-0.396362
42159765622,-0.182068,-0.503662,-0.745728,-0.396484
42159788187,-0.182373,-0.502563,-0.746216,-0.396729
42159810671,-0.1828,-0.501709,-0.746582,-0.396973
42159825521,-0.183105,-0.500793,-0.746887,-0.3974
42159848132,-0.18335,-0.49939,-0.747375,-0.398132
42159870708,-0.183289,-0.497559,-0.748108,-0.399048
42159885688,-0.182922,-0.495056,-0.749268,-0.400208
42159908184,-0.182556,-0.492493,-0.750549,-0.401184
42159923976,-0.181946,-0.489807,-0.752014,-0.401978
42159945684,-0.180847,-0.487183,-0.753662,-0.402588
42159968118,-0.179688,-0.485229,-0.754944,-0.403015
42159983981,-0.179077,-0.484314,-0.755615,-0.403137
42160007106,-0.178772,-0.484131,-0.75592,-0.402893
42160028183,-0.178284,-0.484253,-0.756226,-0.402466
42160043909,-0.177734,-0.484863,-0.756226,-0.401917
42160067046,-0.177246,-0.485962,-0.75592,-0.401367
42160088162,-0.177063,-0.487366,-0.755432,-0.400635
42160112139,-0.17688,-0.488892,-0.754883,-0.399963
42160127121,-0.176636,-0.490112,-0.754456,-0.399414
42160148146,-0.176147,-0.490845,-0.754395,-0.398804
42160163986,-0.175415,-0.491516,-0.754333,-0.398376
42160187149,-0.175171,-0.492432,-0.753967,-0.398132
42160208237,-0.175476,-0.493896,-0.753174,-0.397644
42160223946,-0.175842,-0.495422,-0.752441,-0.396912
42160247147,-0.175781,-0.496765,-0.752014,-0.396118
42160268097,-0.175415,-0.498047,-0.751648,-0.395386
42160283908,-0.174927,-0.49939,-0.751221,-0.394714
42160307099,-0.174622,-0.500549,-0.750671,-0.394409
42160328206,-0.174622,-0.50116,-0.750305,-0.394348
42160343962,-0.174377,-0.50061,-0.75061,-0.394531
42160367117,-0.17395,-0.499329,-0.751404,-0.394958
42160388142,-0.173523,-0.498169,-0.752075,-0.395203
42160403874,-0.173462,-0.497803,-0.75238,-0.395142
42160433190,-0.173706,-0.498169,-0.752258,-0.394836
42160448083,-0.174011,-0.498901,-0.751831,-0.394531
42160463938,-0.174194,-0.499329,-0.751587,-0.394409
42160487088,-0.174133,-0.499207,-0.751648,-0.394409
42160508120,-0.173706,-0.498779,-0.751953,-0.394592
42160523905,-0.17334,-0.498596,-0.752197,-0.394592
42160547039,-0.173096,-0.498657,-0.752197,-0.39447
42160568114,-0.173096,-0.499084,-0.752075,-0.394348
42160583845,-0.173096,-0.499512,-0.751831,-0.394226
42160614546,-0.173096,-0.499756,-0.751648,-0.394226
42160628119,-0.173096,-0.499756,-0.751648,-0.394226
42160643905,-0.172974,-0.499573,-0.751831,-0.394165
42160667549,-0.172791,-0.49939,-0.751953,-0.394226
42160688097,-0.172791,-0.49939,-0.751953,-0.394226
42160703855,-0.172913,-0.499756,-0.751709,-0.394165
42160727095,-0.172913,-0.499756,-0.751709,-0.394165
42160748144,-0.172791,-0.499634,-0.75177,-0.394165
42160763878,-0.172607,-0.499451,-0.751953,-0.394226
42160786386,-0.172607,-0.499451,-0.751953,-0.394226
42160808122,-0.172607,-0.499451,-0.751953,-0.394226
42160823957,-0.172363,-0.499695,-0.751831,-0.394226
42160846415,-0.17218,-0.5,-0.751709,-0.394165
42160868131,-0.171936,-0.500122,-0.75177,-0.394043
42160883882,-0.171692,-0.500122,-0.751831,-0.394043
42160906368,-0.171631,-0.500122,-0.751831,-0.394043
42160928115,-0.171631,-0.500122,-0.751831,-0.394043
42160943854,-0.171631,-0.500122,-0.751831,-0.394043
42160966377,-0.171387,-0.499939,-0.752014,-0.394043
42160989595,-0.171082,-0.499695,-0.752197,-0.394165
42161003912,-0.171082,-0.499695,-0.752197,-0.394165
42161026373,-0.171082,-0.499695,-0.752197,-0.394165
42161049545,-0.171082,-0.5,-0.752014,-0.394104
42161063877,-0.171204,-0.500305,-0.751709,-0.394226
42161086398,-0.171204,-0.500305,-0.751648,-0.394409
42161109504,-0.171021,-0.5,-0.751831,-0.39447
42161123978,-0.170654,-0.499695,-0.752075,-0.394592
42161147050,-0.170654,-0.499817,-0.751953,-0.394653
42161169594,-0.171326,-0.500549,-0.751343,-0.394592
42161183888,-0.171875,-0.501038,-0.750977,-0.39447
42161206405,-0.171875,-0.501038,-0.750977,-0.39447
42161229503,-0.171692,-0.50061,-0.751221,-0.394531
42161243902,-0.171631,-0.500366,-0.751465,-0.394531
42161266907,-0.171631,-0.500305,-0.751465,-0.394531
42161289555,-0.171814,-0.500549,-0.751343,-0.394348
42161303870,-0.171814,-0.50061,-0.751282,-0.394348
42161326429,-0.171692,-0.500732,-0.751343,-0.394165
42161349585,-0.171509,-0.500793,-0.751404,-0.394104
42161363844,-0.171204,-0.500977,-0.751404,-0.394043
42161386427,-0.171021,-0.500793,-0.751526,-0.393982
42161409554,-0.170837,-0.500366,-0.751831,-0.394104
42161423874,-0.170898,-0.499817,-0.752075,-0.394348
42161446404,-0.170776,-0.498901,-0.752441,-0.394775
42161469588,-0.170837,-0.497742,-0.75293,-0.395264
42161498161,-0.171265,-0.496704,-0.753418,-0.395569
42161506430,-0.172424,-0.496338,-0.753296,-0.39563
42161537059,-0.173889,-0.496277,-0.75293,-0.395813
42161550663,-0.174866,-0.4953,-0.75293,-0.396606
42161574600,-0.175537,-0.493042,-0.75354,-0.397949
42161589571,-0.176697,-0.490295,-0.754333,-0.399353
42161610650,-0.177612,-0.487549,-0.755371,-0.400269
42161626393,-0.178833,-0.486328,-0.755554,-0.400879
42161649568,-0.180664,-0.486938,-0.754395,-0.40155
42161670641,-0.183716,-0.488403,-0.752197,-0.402588
42161686429,-0.186707,-0.489563,-0.749939,-0.40387
42161708884,-0.18866,-0.490784,-0.747864,-0.405334
42161730603,-0.189636,-0.492493,-0.745483,-0.407288
42161746438,-0.190369,-0.494568,-0.742493,-0.40979
42161768959,-0.190735,-0.496582,-0.739136,-0.41333
42161790622,-0.190186,-0.498474,-0.735352,-0.41803
42161806438,-0.186951,-0.500122,-0.731445,-0.424316
42161828895,-0.180725,-0.501282,-0.727661,-0.432068
42161850647,-0.172852,-0.502014,-0.723694,-0.440979
42161866415,-0.16394,-0.502563,-0.719055,-0.451172
42161888917,-0.154358,-0.503174,-0.713379,-0.462769
42161912058,-0.14447,-0.504211,-0.706604,-0.475098
42161926415,-0.134216,-0.504822,-0.699341,-0.488037
42161948891,-0.12262,-0.504517,-0.692139,-0.501526
42161972023,-0.109558,-0.503113,-0.684998,-0.515564
42161986462,-0.0956421,-0.501221,-0.677185,-0.530212
42162008977,-0.0820312,-0.499634,-0.668152,-0.545288
42162032063,-0.0685425,-0.498047,-0.658142,-0.560547
42162046412,-0.0548096,-0.49585,-0.647644,-0.57605
42162068891,-0.0407715,-0.493225,-0.636658,-0.591492
42162092095,-0.0267944,-0.490356,-0.625366,-0.606506
42162106532,-0.0135498,-0.48761,-0.613586,-0.621033
42162129031,0,-0.484375,-0.601746,-0.635132
42162152144,0.0137939,-0.480652,-0.589844,-0.648804
42162173233,0.0270996,-0.476807,-0.578125,-0.661682
42162189019,0.0388184,-0.473145,-0.566711,-0.673462
42162212149,0.0498657,-0.469116,-0.555725,-0.684631
42162233150,0.0611572,-0.464417,-0.545105,-0.695374
42162248988,0.0730591,-0.459412,-0.534424,-0.70575
42162272185,0.0849609,-0.454346,-0.523376,-0.715942
42162293245,0.0952148,-0.44989,-0.51239,-0.725342
42162308981,0.104187,-0.446472,-0.501587,-0.733704
42162332162,0.112732,-0.442444,-0.490967,-0.742004
42162353214,0.12262,-0.437195,-0.480957,-0.750061
42162368990,0.133118,-0.431763,-0.471558,-0.757324
42162391899,0.142578,-0.426941,-0.462891,-0.763672
42162413230,0.149963,-0.423096,-0.455078,-0.769104
42162428972,0.155579,-0.420044,-0.447876,-0.773865
42162452240,0.161255,-0.416931,-0.441345,-0.778137
42162473179,0.166199,-0.414062,-0.435364,-0.781982
42162488962,0.170105,-0.411621,-0.430054,-0.785339
42162511493,0.174133,-0.409241,-0.425659,-0.788086
42162533204,0.178955,-0.406433,-0.421814,-0.790527
42162548996,0.184509,-0.403259,-0.418091,-0.792847
42162572214,0.190552,-0.399902,-0.41449,-0.795044
42162593204,0.196716,-0.396362,-0.411438,-0.796875
42162609018,0.20166,-0.393311,-0.408875,-0.798462
42162632140,0.206421,-0.39032,-0.406982,-0.799683
42162653249,0.212219,-0.386902,-0.405518,-0.800598
42162669034,0.218384,-0.38324,-0.404175,-0.801331
42162691496,0.223938,-0.379822,-0.403015,-0.802063
42162713202,0.230103,-0.376709,-0.402161,-0.802185
42162729017,0.234619,-0.374207,-0.402161,-0.802063
42162751561,0.237427,-0.372803,-0.401733,-0.802063
42162773216,0.240295,-0.371277,-0.401733,-0.801941
42162788927,0.244507,-0.369263,-0.402649,-0.801147
42162811471,0.249634,-0.36731,-0.403687,-0.799927
42162833174,0.255493,-0.365356,-0.404541,-0.798523
42162848973,0.261597,-0.363464,-0.404785,-0.797302
42162871517,0.267639,-0.36145,-0.404602,-0.796326
42162894630,0.272949,-0.359741,-0.404297,-0.79541
42162909090,0.277527,-0.358582,-0.404053,-0.794495
42162931520,0.282166,-0.357483,-0.403748,-0.793518
42162954613,0.286865,-0.356018,-0.403259,-0.792725
42162968993,0.291382,-0.354492,-0.402283,-0.792297
42162991510,0.295349,-0.352661,-0.401245,-0.792175
42163014718,0.298767,-0.35083,-0.40033,-0.792114
42163029033,0.302368,-0.348877,-0.399597,-0.791992
42163051455,0.306396,-0.346863,-0.399231,-0.791504
42163074677,0.310181,-0.34491,-0.398926,-0.791016
42163088962,0.313293,-0.343384,-0.398315,-0.790771
42163111485,0.315063,-0.341919,-0.397766,-0.791016
42163134727,0.315857,-0.340576,-0.397522,-0.791382
42163155771,0.316956,-0.339172,-0.397644,-0.791504
42163162626,0.319214,-0.337585,-0.397949,-0.791138
42163185044,0.321228,-0.336487,-0.397888,-0.790771
42163208249,0.322083,-0.335938,-0.397522,-0.790833
42163222577,0.322144,-0.335938,-0.397156,-0.791016
42163245010,0.322205,-0.335938,-0.397156,-0.791016
42163268165,0.322632,-0.335938,-0.397278,-0.790771
42163282603,0.322632,-0.335938,-0.397217,-0.790771
42163305067,0.322083,-0.336365,-0.397095,-0.790894
42163328238,0.321167,-0.337036,-0.3974,-0.790833
42163342526,0.320129,-0.337708,-0.39801,-0.790649
42163365124,0.318726,-0.33844,-0.398743,-0.790527
42163388211,0.317139,-0.339539,-0.399658,-0.790283
42163402545,0.315247,-0.340942,-0.400696,-0.789856
42163425117,0.31311,-0.342651,-0.401672,-0.78949
42163448308,0.310791,-0.344666,-0.402588,-0.789062
42163470570,0.307739,-0.347107,-0.403259,-0.788879
42163485060,0.303101,-0.350281,-0.403625,-0.789062
42163507622,0.296814,-0.354492,-0.404724,-0.789001
42163530763,0.290161,-0.358948,-0.405945,-0.788818
42163545062,0.284424,-0.362976,-0.407166,-0.788452
42163567489,0.279053,-0.366394,-0.40802,-0.78833
42163590758,0.273987,-0.370117,-0.408875,-0.787964
42163605151,0.269592,-0.37384,-0.410339,-0.786987
42163627551,0.265503,-0.377747,-0.411682,-0.785767
42163650715,0.261108,-0.381592,-0.41272,-0.784851
42163665138,0.255859,-0.385193,-0.413635,-0.784302
42163687571,0.250183,-0.388794,-0.414795,-0.783752
42163710737,0.245117,-0.392578,-0.416504,-0.782593
42163725113,0.240967,-0.396484,-0.418518,-0.780823
42163747510,0.236389,-0.400696,-0.420837,-0.778809
42163770719,0.230286,-0.405701,-0.423584,-0.77655
42163785023,0.222473,-0.411682,-0.427185,-0.773743
42163807582,0.212952,-0.418457,-0.432007,-0.770081
42163830772,0.203125,-0.425293,-0.438538,-0.76532
42163845094,0.193237,-0.431091,-0.446594,-0.759949
42163867627,0.181946,-0.436707,-0.455383,-0.754272
42163890756,0.169312,-0.442871,-0.464355,-0.748108
42163905071,0.157227,-0.449219,-0.473694,-0.741028
42163927631,0.145569,-0.455566,-0.483093,-0.733459
42163950777,0.13269,-0.462341,-0.492859,-0.725098
42163965095,0.11908,-0.469788,-0.503113,-0.715637
42163987568,0.105957,-0.476807,-0.513733,-0.705383
42164010805,0.0935669,-0.483093,-0.524231,-0.695129
42164025155,0.0801392,-0.489746,-0.533875,-0.684692
42164047567,0.0657349,-0.496765,-0.543579,-0.673462
42164070711,0.0511475,-0.503357,-0.553711,-0.661438
42164084977,0.0368042,-0.508911,-0.564331,-0.649048
42164107572,0.0223999,-0.513977,-0.574829,-0.636414
42164130790,0.00799561,-0.518494,-0.585205,-0.623535
42164145093,-0.0067749,-0.522888,-0.595642,-0.609802
42164167576,-0.0220337,-0.527222,-0.606018,-0.595337
42164190799,-0.0366821,-0.531189,-0.615662,-0.580994
42164205081,-0.0492554,-0.53418,-0.624512,-0.567749
42164227628,-0.0604858,-0.536316,-0.632507,-0.555664
42164250796,-0.0725098,-0.538818,-0.639587,-0.543518
42164265084,-0.0852661,-0.541992,-0.646057,-0.530762
42164287551,-0.0967407,-0.544312,-0.652771,-0.518005
42164310718,-0.105286,-0.54425,-0.660339,-0.506714
42164325130,-0.112854,-0.543518,-0.667297,-0.496643
42164347584,-0.121216,-0.543701,-0.672913,-0.486816
42164370766,-0.130188,-0.544922,-0.677246,-0.477051
42164385043,-0.138367,-0.546204,-0.680908,-0.467957
42164407582,-0.14502,-0.547058,-0.684326,-0.4599
42164430782,-0.150513,-0.54718,-0.687927,-0.452515
42164445122,-0.155518,-0.547058,-0.691528,-0.445496
42164467654,-0.160583,-0.546997,-0.694763,-0.43866
42164490699,-0.164978,-0.546814,-0.697815,-0.432434
42164505095,-0.168518,-0.546448,-0.700623,-0.426941
42164527603,-0.172119,-0.546509,-0.702881,-0.421631
42164550794,-0.176331,-0.547119,-0.704651,-0.416138
42164565111,-0.180603,-0.547913,-0.706116,-0.410767
42164587631,-0.184143,-0.547852,-0.708008,-0.405884
42164610104,-0.187012,-0.546936,-0.71051,-0.401489
42164625100,-0.190125,-0.546082,-0.71283,-0.397034
42164647643,-0.193848,-0.545959,-0.714539,-0.392273
42164670806,-0.197632,-0.545715,-0.716248,-0.387573
42164685074,-0.201172,-0.545288,-0.718018,-0.382996
42164707624,-0.204834,-0.544861,-0.719604,-0.378784
42164730126,-0.208313,-0.546021,-0.719604,-0.375244
42164745155,-0.205627,-0.546631,-0.720215,-0.374634
42164767610,-0.199768,-0.542236,-0.723816,-0.377197
42164790092,-0.197327,-0.540955,-0.724609,-0.378784
42164805085,-0.200867,-0.545471,-0.721191,-0.377014
42164827668,-0.204773,-0.549194,-0.718262,-0.375061
42164850143,-0.205383,-0.546387,-0.720459,-0.374695
42164865093,-0.202576,-0.538391,-0.726501,-0.376099
42164887652,-0.199951,-0.530457,-0.732239,-0.377625
42164910029,-0.199585,-0.525085,-0.73584,-0.378296
42164925092,-0.2005,-0.521484,-0.737976,-0.378601
42164947619,-0.201233,-0.518127,-0.739807,-0.379333
42164970075,-0.201538,-0.514709,-0.741577,-0.38031
42164985137,-0.201599,-0.511047,-0.743652,-0.381165
42165007537,-0.200867,-0.50708,-0.746216,-0.381775
42165030084,-0.198975,-0.502808,-0.749146,-0.38269
42165045078,-0.197388,-0.499939,-0.750977,-0.383728
42165067675,-0.197449,-0.499451,-0.751099,-0.384155
42165090155,-0.198181,-0.499634,-0.750916,-0.38385
42165105167,-0.198181,-0.499146,-0.751343,-0.383606
42165127599,-0.197388,-0.497925,-0.752197,-0.384033
42165144059,-0.196472,-0.496399,-0.752991,-0.384888
42165165144,-0.195862,-0.494934,-0.753479,-0.386047
42165187601,-0.195312,-0.49353,-0.753967,-0.387146
42165204006,-0.194519,-0.491943,-0.7547,-0.388123
42165225032,-0.193665,-0.490784,-0.755249,-0.389038
42165247495,-0.192871,-0.48999,-0.755493,-0.389954
42165263993,-0.192505,-0.490173,-0.755127,-0.390564
42165284995,-0.192261,-0.491333,-0.754333,-0.390747
42165307569,-0.192322,-0.493469,-0.753052,-0.390503
42165325452,-0.192688,-0.496094,-0.751709,-0.389648
42165345064,-0.192871,-0.498352,-0.750671,-0.388733
42165367529,-0.192444,-0.499695,-0.750183,-0.388062
42165383976,-0.191772,-0.500366,-0.750122,-0.387634
42165405049,-0.191162,-0.500916,-0.750061,-0.387329
42165427597,-0.190918,-0.501526,-0.749817,-0.387146
42165450040,-0.190918,-0.502319,-0.749451,-0.386841
42165468020,-0.190918,-0.502869,-0.749268,-0.386536
42165487637,-0.190857,-0.503113,-0.749268,-0.386169
42165510123,-0.190369,-0.503174,-0.749451,-0.385986
42165526586,-0.18988,-0.503662,-0.749329,-0.385803
42165547601,-0.189758,-0.504761,-0.74884,-0.385437
42165564031,-0.190186,-0.506165,-0.748047,-0.38501
42165586548,-0.19043,-0.506958,-0.74762,-0.384521
42165607645,-0.190369,-0.507202,-0.74762,-0.384277
42165624015,-0.190125,-0.507141,-0.747803,-0.384216
42165646555,-0.189819,-0.506958,-0.747986,-0.384216
42165667673,-0.189636,-0.507141,-0.747864,-0.384277
42165690110,-0.189697,-0.507507,-0.74762,-0.384216
42165706614,-0.189758,-0.507812,-0.747437,-0.384094
42165727628,-0.189758,-0.507812,-0.747437,-0.384094
42165744037,-0.189575,-0.507568,-0.747681,-0.384094
42165766510,-0.189575,-0.507568,-0.747681,-0.384094
42165787618,-0.189758,-0.507812,-0.747437,-0.384094
42165810123,-0.189758,-0.507812,-0.747437,-0.384094
42165826522,-0.189575,-0.507568,-0.747681,-0.384094
42165847633,-0.189331,-0.507385,-0.747864,-0.384094
42165870059,-0.189331,-0.507568,-0.747742,-0.384094
42165886529,-0.189575,-0.507874,-0.747559,-0.383911
42165907585,-0.189575,-0.507874,-0.747559,-0.383911
42165930125,-0.189392,-0.507629,-0.747742,-0.383972
42165946546,-0.189148,-0.507385,-0.747925,-0.384033
42165967632,-0.189148,-0.507385,-0.747925,-0.384094
42165990159,-0.18927,-0.507629,-0.747803,-0.383911
42166006567,-0.189392,-0.507874,-0.747681,-0.383789
42166027667,-0.189453,-0.508057,-0.747559,-0.383728
42166058340,-0.189453,-0.508057,-0.747559,-0.383728
42166066529,-0.189453,-0.508057,-0.747559,-0.383728
42166087628,-0.189392,-0.508057,-0.747559,-0.383789
42166110160,-0.189392,-0.508057,-0.747559,-0.383789
42166126540,-0.189392,-0.507996,-0.747559,-0.383789
42166149131,-0.189392,-0.507996,-0.747559,-0.383789
42166170094,-0.189392,-0.508057,-0.747559,-0.383789
42166186544,-0.189392,-0.507996,-0.747559,-0.383789
42166207601,-0.18927,-0.507874,-0.747742,-0.383789
42166230132,-0.189209,-0.507874,-0.747742,-0.383789
42166246584,-0.189331,-0.507996,-0.74762,-0.383728
42166267664,-0.189331,-0.507996,-0.74762,-0.383728
42166290126,-0.189209,-0.507874,-0.747742,-0.383728
42166306561,-0.189026,-0.50769,-0.747864,-0.38385
42166327635,-0.189026,-0.50769,-0.747864,-0.38385
42166350189,-0.188965,-0.507874,-0.747681,-0.383911
42166366544,-0.188782,-0.50824,-0.747437,-0.384094
42166390489,-0.188538,-0.508545,-0.747192,-0.384155
42166410092,-0.188416,-0.509033,-0.746948,-0.384094
42166426587,-0.188477,-0.509583,-0.746643,-0.383911
42166449077,-0.188782,-0.510254,-0.746277,-0.383667
42166470189,-0.18927,-0.510986,-0.745728,-0.383545
42166486639,-0.189636,-0.511475,-0.7453,-0.383484
42166509125,-0.189758,-0.511353,-0.745239,-0.383728
42166530146,-0.189941,-0.510864,-0.745422,-0.38385
42166546598,-0.189941,-0.510498,-0.745605,-0.384033
42166569068,-0.190063,-0.51062,-0.745483,-0.384094
42166590188,-0.190247,-0.511047,-0.745239,-0.383911
42166606528,-0.190125,-0.511353,-0.745117,-0.383728
42166629068,-0.189758,-0.511414,-0.7453,-0.383545
42166650139,-0.189392,-0.511475,-0.745361,-0.383484
42166666542,-0.189392,-0.511475,-0.745361,-0.383484
42166689068,-0.189392,-0.511475,-0.745361,-0.383484
42166710148,-0.189331,-0.511292,-0.745483,-0.383484
42166726562,-0.189209,-0.510986,-0.745728,-0.383545
42166749137,-0.18927,-0.510803,-0.745789,-0.383606
42166770169,-0.18927,-0.510803,-0.745789,-0.383606
42166786563,-0.189392,-0.510864,-0.745728,-0.383545
42166816606,-0.189758,-0.511169,-0.745544,-0.383362
42166830133,-0.190002,-0.511536,-0.745239,-0.383301
42166846641,-0.190002,-0.511353,-0.745239,-0.383545
42166869025,-0.189758,-0.510864,-0.745728,-0.383484
42166898321,-0.18866,-0.510193,-0.746704,-0.382996
42166906585,-0.187256,-0.510071,-0.747498,-0.382263
42166929099,-0.186646,-0.511353,-0.747437,-0.38092
42166950153,-0.187439,-0.514282,-0.746094,-0.379211
42166966529,-0.189758,-0.518127,-0.743652,-0.377625
42166988997,-0.192261,-0.522278,-0.740417,-0.377014
42167010853,-0.193848,-0.525574,-0.73761,-0.377075
42167025763,-0.195129,-0.527832,-0.735718,-0.377075
42167048339,-0.196472,-0.530701,-0.733398,-0.376831
42167070820,-0.197571,-0.53363,-0.730835,-0.377014
42167085870,-0.197876,-0.536255,-0.728394,-0.37793
42167108317,-0.196594,-0.538086,-0.72644,-0.379761
42167130806,-0.193909,-0.539551,-0.724731,-0.382324
42167145816,-0.190308,-0.540588,-0.723206,-0.385559
42167168273,-0.186218,-0.542236,-0.720581,-0.390198
42167190792,-0.181641,-0.54364,-0.717407,-0.396118
42167205835,-0.175781,-0.54425,-0.714294,-0.403503
42167228329,-0.168213,-0.544006,-0.711365,-0.41217
42167250840,-0.159668,-0.543762,-0.707703,-0.421997
42167265831,-0.150696,-0.544067,-0.702759,-0.433044
42167288328,-0.141785,-0.544067,-0.697144,-0.445007
42167312286,-0.131775,-0.543152,-0.691467,-0.457886
42167325763,-0.120361,-0.541626,-0.685364,-0.47168
42167348324,-0.108643,-0.540588,-0.678345,-0.485779
42167370840,-0.0974731,-0.540527,-0.6698,-0.499817
42167385884,-0.0861816,-0.54071,-0.660156,-0.514282
42167408360,-0.0744019,-0.540527,-0.649902,-0.529175
42167430885,-0.0623169,-0.539917,-0.639465,-0.543823
42167445836,-0.0499878,-0.539185,-0.628906,-0.557983
42167468355,-0.0375977,-0.538391,-0.617981,-0.571838
42167490719,-0.0247803,-0.537231,-0.606812,-0.585388
42167505884,-0.0109253,-0.535217,-0.59613,-0.59845
42167528397,0.00274658,-0.532776,-0.585449,-0.611145
42167550840,0.0152588,-0.530151,-0.574768,-0.623291
42167565830,0.0263062,-0.527588,-0.563965,-0.634827
42167588367,0.0366211,-0.52478,-0.553345,-0.645874
42167610790,0.0458984,-0.521851,-0.542419,-0.656799
42167627190,0.0548706,-0.518677,-0.531433,-0.667542
42167649809,0.0637817,-0.514832,-0.520874,-0.677979
42167670789,0.0715942,-0.510986,-0.510925,-0.687622
42167687320,0.0786133,-0.506836,-0.501648,-0.696716
42167708287,0.0855103,-0.502686,-0.49292,-0.705078
42167730797,0.0923462,-0.498291,-0.484558,-0.713074
42167747295,0.0999146,-0.493774,-0.476074,-0.720886
42167768377,0.106873,-0.48938,-0.46759,-0.728394
42167790854,0.112061,-0.485474,-0.459229,-0.735535
42167807248,0.116577,-0.48175,-0.451294,-0.742126
42167828349,0.121094,-0.478333,-0.443909,-0.748047
42167850861,0.126526,-0.474487,-0.437378,-0.753418
42167867310,0.132202,-0.470642,-0.431763,-0.758118
42167888348,0.137695,-0.466919,-0.427002,-0.762085
42167910852,0.141663,-0.463623,-0.423218,-0.765503
42167927233,0.14447,-0.461182,-0.419556,-0.768433
42167948297,0.147583,-0.458984,-0.41626,-0.770996
42167970848,0.151611,-0.456909,-0.413269,-0.77301
42167987267,0.155212,-0.455383,-0.410767,-0.774536
42168008316,0.157532,-0.454102,-0.408813,-0.775879
42168030820,0.160156,-0.452942,-0.407227,-0.776855
42168047218,0.164551,-0.451111,-0.405884,-0.777649
42168068329,0.17041,-0.448792,-0.404663,-0.778381
42168090888,0.17572,-0.446716,-0.40332,-0.779114
42168107212,0.180054,-0.445007,-0.402161,-0.779724
42168128355,0.184265,-0.442993,-0.401855,-0.779968
42168150768,0.18811,-0.440857,-0.402527,-0.779968
42168167264,0.192078,-0.438721,-0.403076,-0.779907
42168188403,0.196594,-0.436646,-0.403931,-0.77948
42168210864,0.201294,-0.434692,-0.404602,-0.779053
42168227243,0.205261,-0.432617,-0.404968,-0.778992
42168248311,0.209106,-0.430115,-0.405701,-0.778931
42168270803,0.213684,-0.427612,-0.406677,-0.778564
42168287308,0.219421,-0.424805,-0.407959,-0.777893
42168308383,0.226013,-0.421387,-0.408936,-0.777344
42168330881,0.232666,-0.418274,-0.409302,-0.776855
42168346649,0.239136,-0.414917,-0.409851,-0.776367
42168368423,0.245667,-0.411621,-0.410583,-0.775696
42168390914,0.251953,-0.408569,-0.411072,-0.775024
42168406619,0.258301,-0.405457,-0.411499,-0.774353
42168428389,0.265015,-0.402283,-0.411865,-0.77356
42168450888,0.272644,-0.398376,-0.412842,-0.7724
42168466599,0.280273,-0.39386,-0.414124,-0.771301
42168488380,0.287292,-0.389465,-0.415405,-0.770264
42168510848,0.293823,-0.385498,-0.416626,-0.769104
42168526598,0.300415,-0.381226,-0.417908,-0.768005
42168549781,0.30658,-0.376953,-0.418762,-0.767212
42168570846,0.311401,-0.373169,-0.419067,-0.766968
42168586626,0.315979,-0.369385,-0.419434,-0.766724
42168609813,0.320312,-0.36554,-0.419678,-0.766602
42168630846,0.324585,-0.361694,-0.419739,-0.766602
42168646641,0.328735,-0.358154,-0.419495,-0.766663
42168669802,0.332397,-0.354614,-0.419067,-0.766907
42168690830,0.335083,-0.351379,-0.418701,-0.767456
42168706607,0.33728,-0.34845,-0.418701,-0.767883
42168729798,0.339294,-0.345703,-0.41864,-0.768188
42168750877,0.341248,-0.343323,-0.418396,-0.768555
42168766656,0.342834,-0.341431,-0.417847,-0.768982
42168789720,0.343872,-0.340149,-0.417236,-0.769409
42168810788,0.34436,-0.339478,-0.416687,-0.769836
42168826716,0.344727,-0.339478,-0.416199,-0.769897
42168849778,0.345215,-0.339722,-0.415833,-0.769836
42168870848,0.345642,-0.339905,-0.415405,-0.769714
42168886658,0.345825,-0.340149,-0.414856,-0.769836
42168909807,0.345398,-0.340454,-0.414429,-0.770142
42168930845,0.344666,-0.340759,-0.414185,-0.770447
42168946583,0.343323,-0.341187,-0.414185,-0.770874
42168969789,0.341736,-0.341431,-0.414368,-0.771362
42168990897,0.340027,-0.341919,-0.414795,-0.771667
42169006625,0.337646,-0.342651,-0.415222,-0.772156
42169029751,0.335022,-0.343811,-0.415833,-0.772461
42169050853,0.332336,-0.345337,-0.416626,-0.772522
42169066669,0.329712,-0.347107,-0.417542,-0.772339
42169089711,0.326721,-0.349243,-0.418396,-0.772217
42169110883,0.323303,-0.351807,-0.419067,-0.772095
42169126657,0.319885,-0.35498,-0.419983,-0.771606
42169149814,0.317322,-0.358643,-0.421387,-0.770203
42169170884,0.315918,-0.362305,-0.423218,-0.768066
42169186621,0.314636,-0.366089,-0.425171,-0.765686
42169217318,0.311218,-0.370544,-0.426514,-0.76416
42169230905,0.306152,-0.375732,-0.427368,-0.763245
42169254820,0.299316,-0.38147,-0.427917,-0.762756
42169269100,0.292847,-0.38678,-0.428772,-0.762146
42169290886,0.286255,-0.391479,-0.429993,-0.761536
42169306657,0.27948,-0.395508,-0.431458,-0.761169
42169329138,0.272522,-0.399414,-0.432434,-0.761108
42169350920,0.265198,-0.403564,-0.433228,-0.761047
42169366632,0.258057,-0.407837,-0.43396,-0.760803
42169389130,0.250732,-0.412354,-0.434753,-0.760376
42169410866,0.241699,-0.417358,-0.435913,-0.759949
42169426589,0.231628,-0.423035,-0.436646,-0.75946
42169449209,0.221191,-0.429749,-0.43634,-0.758972
42169472376,0.212097,-0.436707,-0.435486,-0.758118
42169486631,0.20459,-0.443115,-0.43512,-0.756714
42169509142,0.199097,-0.448242,-0.435974,-0.754639
42169532316,0.194641,-0.452698,-0.437622,-0.752197
42169546634,0.190063,-0.457397,-0.44043,-0.74884
42169569152,0.185547,-0.462097,-0.445251,-0.744263
42169592304,0.180969,-0.46637,-0.451416,-0.738953
42169606697,0.176025,-0.470154,-0.457764,-0.733826
42169629157,0.169617,-0.474182,-0.463989,-0.728821
42169652394,0.161316,-0.479065,-0.470642,-0.723267
42169666638,0.151672,-0.484863,-0.478394,-0.716309
42169689044,0.142212,-0.490967,-0.487366,-0.708008
42169712339,0.132263,-0.497009,-0.496765,-0.699158
42169733417,0.120972,-0.50354,-0.506165,-0.689758
42169749121,0.108521,-0.510315,-0.515503,-0.67981
42169772313,0.0959473,-0.516602,-0.525269,-0.669434
42169793372,0.0826416,-0.522705,-0.534912,-0.658752
42169809158,0.0683594,-0.528931,-0.544189,-0.647705
42169832289,0.0535278,-0.535461,-0.553223,-0.635986
42169853381,0.0411377,-0.54071,-0.563293,-0.623474
42169869178,0.0307617,-0.544739,-0.573792,-0.610901
42169892353,0.0203247,-0.548645,-0.583679,-0.598328
42169913293,0.00842285,-0.552612,-0.59314,-0.58551
42169929063,-0.00378418,-0.556274,-0.602295,-0.572632
42169952196,-0.0159912,-0.559875,-0.610291,-0.560303
42169973277,-0.0274658,-0.56366,-0.617432,-0.548157
42169989076,-0.038269,-0.567139,-0.624268,-0.53595
42170012246,-0.0489502,-0.570251,-0.63092,-0.523865
42170033286,-0.0593262,-0.572998,-0.637024,-0.512268
42170049065,-0.0686035,-0.575684,-0.642029,-0.501709
42170072220,-0.0772705,-0.578918,-0.64563,-0.492065
42170093312,-0.085022,-0.582031,-0.648193,-0.483765
42170109111,-0.0927124,-0.584839,-0.649963,-0.47644
42170132324,-0.100586,-0.587219,-0.651978,-0.469177
42170153449,-0.108032,-0.588501,-0.655212,-0.461304
42170177295,-0.113647,-0.587708,-0.660461,-0.453369
42170192292,-0.117004,-0.585205,-0.666748,-0.446533
42170213369,-0.120483,-0.583069,-0.671936,-0.440613
42170229184,-0.125183,-0.58252,-0.675232,-0.434937
42170251650,-0.130371,-0.582825,-0.677368,-0.429688
42170273386,-0.135559,-0.583252,-0.678894,-0.425049
42170289176,-0.140198,-0.583618,-0.680542,-0.42041
42170311649,-0.143555,-0.583557,-0.682617,-0.415955
42170333305,-0.14502,-0.58252,-0.685364,-0.412354
42170349119,-0.14563,-0.581238,-0.687866,-0.40979
42170371650,-0.147217,-0.580994,-0.689026,-0.407532
42170393347,-0.149902,-0.582214,-0.68866,-0.405396
42170409178,-0.152527,-0.583191,-0.688538,-0.403381
42170431603,-0.154114,-0.582581,-0.689575,-0.401794
42170454804,-0.155396,-0.581604,-0.690979,-0.400391
42170469104,-0.156921,-0.580933,-0.692078,-0.398743
42170491597,-0.158752,-0.581177,-0.692566,-0.396912
42170514870,-0.160583,-0.581787,-0.692505,-0.395325
42170529133,-0.162598,-0.582886,-0.692017,-0.393799
42170551686,-0.1651,-0.584351,-0.691162,-0.392029
42170574848,-0.167603,-0.586182,-0.690186,-0.389954
42170589154,-0.169617,-0.587341,-0.68988,-0.387878
42170611703,-0.171021,-0.587219,-0.690552,-0.38623
42170634838,-0.171509,-0.585938,-0.692017,-0.385315
42170649169,-0.170898,-0.584106,-0.693787,-0.385193
42170671626,-0.168945,-0.580994,-0.69635,-0.386169
42170702279,-0.16687,-0.577881,-0.698547,-0.387695
42170715861,-0.166382,-0.576721,-0.699036,-0.388794
42170731663,-0.16687,-0.576538,-0.698669,-0.389465
42170754853,-0.166931,-0.575745,-0.699219,-0.389709
42170775898,-0.16626,-0.57428,-0.7005,-0.389832
42170791675,-0.164917,-0.572266,-0.702271,-0.390259
42170814828,-0.163818,-0.570007,-0.704041,-0.390808
42170829248,-0.163269,-0.568054,-0.705505,-0.391113
42170851377,-0.163025,-0.566833,-0.70636,-0.391479
42170865270,-0.162598,-0.565735,-0.70697,-0.392212
42170888453,-0.161865,-0.564636,-0.707581,-0.392944
42170910928,-0.161438,-0.564392,-0.707703,-0.39325
42170925291,-0.16095,-0.564392,-0.707703,-0.393494
42170948555,-0.16095,-0.564697,-0.70752,-0.393433
42170979066,-0.161133,-0.565063,-0.707581,-0.392761
42170985259,-0.160767,-0.565125,-0.708008,-0.392029
42171008400,-0.160522,-0.565186,-0.708252,-0.391541
42171030848,-0.160583,-0.565125,-0.708496,-0.391174
42171045258,-0.16095,-0.565308,-0.708618,-0.390564
42171068409,-0.161133,-0.565186,-0.708984,-0.390015
42171090940,-0.161316,-0.564453,-0.709717,-0.389587
42171105187,-0.161499,-0.563477,-0.710632,-0.389282
42171128460,-0.161621,-0.562561,-0.711548,-0.388855
42171150933,-0.161743,-0.562622,-0.711853,-0.388184
42171165234,-0.161682,-0.562744,-0.711914,-0.387939
42171188426,-0.161804,-0.562988,-0.711792,-0.387634
42171210884,-0.161865,-0.562988,-0.711975,-0.387329
42171225209,-0.162109,-0.563416,-0.711853,-0.386902
42171248386,-0.162659,-0.564331,-0.711304,-0.386292
42171270848,-0.162964,-0.564514,-0.711121,-0.38623
42171285215,-0.162659,-0.564209,-0.711243,-0.386536
42171307769,-0.162476,-0.564026,-0.711304,-0.386841
42171330871,-0.163513,-0.565186,-0.710083,-0.386841
42171345202,-0.16626,-0.56781,-0.707214,-0.387146
42171367762,-0.169617,-0.570129,-0.703796,-0.38855
42171390929,-0.172119,-0.570618,-0.701233,-0.391418
42171405257,-0.172241,-0.56897,-0.700195,-0.395569
42171427729,-0.17041,-0.564148,-0.701111,-0.40155
42171450923,-0.169006,-0.557007,-0.703125,-0.408569
42171465182,-0.167908,-0.547791,-0.705994,-0.416443
42171487701,-0.165894,-0.53772,-0.70874,-0.425598
42171510799,-0.162476,-0.52594,-0.711853,-0.43634
42171525238,-0.160278,-0.513306,-0.714172,-0.448242
42171547743,-0.160156,-0.50116,-0.715332,-0.459961
42171570891,-0.161072,-0.490234,-0.715576,-0.471008
42171585220,-0.161133,-0.4776,-0.71637,-0.482544
42171607761,-0.160583,-0.460571,-0.719055,-0.495178
42171630867,-0.161682,-0.439636,-0.72345,-0.507263
42171645247,-0.163147,-0.419861,-0.726746,-0.518677
42171667807,-0.165161,-0.401184,-0.728943,-0.529602
42171690848,-0.166565,-0.381287,-0.731079,-0.540894
42171705275,-0.16925,-0.360107,-0.732788,-0.552063
42171727819,-0.17334,-0.339905,-0.733521,-0.562561
42171750946,-0.176941,-0.321716,-0.733459,-0.572144
42171765228,-0.178284,-0.302856,-0.734314,-0.580872
42171787812,-0.177307,-0.281372,-0.736267,-0.589478
42171810908,-0.176575,-0.259644,-0.737671,-0.597839
42171825257,-0.179077,-0.242126,-0.736877,-0.605347
42171847770,-0.18573,-0.230835,-0.734375,-0.610779
42171870960,-0.192993,-0.221252,-0.732056,-0.614868
42171885239,-0.19812,-0.2099,-0.730042,-0.619507
42171907753,-0.202148,-0.199158,-0.727661,-0.624573
42171930893,-0.206421,-0.192139,-0.724731,-0.628784
42171945256,-0.209106,-0.186829,-0.721924,-0.632751
42171967820,-0.208984,-0.180969,-0.719543,-0.637146
42171990964,-0.208679,-0.175598,-0.71698,-0.641602
42172005263,-0.210022,-0.17218,-0.714294,-0.645081
42172027751,-0.210693,-0.167969,-0.712646,-0.647766
42172050977,-0.209778,-0.162292,-0.712097,-0.650146
42172065221,-0.208435,-0.156616,-0.712097,-0.651978
42172087807,-0.20813,-0.152649,-0.711975,-0.653076
42172110855,-0.20813,-0.149841,-0.711914,-0.65387
42172125289,-0.208008,-0.147949,-0.711914,-0.654297
42172147796,-0.208008,-0.147217,-0.71228,-0.654053
42172172371,-0.208069,-0.147705,-0.712708,-0.653442
42172185292,-0.207886,-0.148132,-0.712952,-0.653137
42172207762,-0.207397,-0.147461,-0.713074,-0.653381
42172230959,-0.206421,-0.145935,-0.713013,-0.654053
42172245282,-0.205566,-0.144714,-0.71283,-0.654846
42172267709,-0.204956,-0.144287,-0.712524,-0.655457
42172290979,-0.204224,-0.143799,-0.712219,-0.656067
42172305239,-0.203064,-0.142883,-0.712036,-0.65686
42172327669,-0.201355,-0.141479,-0.711853,-0.657898
42172350309,-0.199219,-0.139526,-0.711426,-0.659424
42172368159,-0.197754,-0.137451,-0.710754,-0.661011
42172387784,-0.197021,-0.13562,-0.710205,-0.662231
42172410311,-0.196533,-0.133545,-0.709778,-0.663208
42172425313,-0.196167,-0.131531,-0.709351,-0.664246
42172447716,-0.195679,-0.129578,-0.708923,-0.665161
42172470182,-0.194702,-0.127258,-0.70874,-0.666138
42172485272,-0.19342,-0.12439,-0.708679,-0.667053
42172507747,-0.192688,-0.121765,-0.708679,-0.667786
42172530233,-0.192688,-0.120178,-0.708435,-0.668335
42172545310,-0.193298,-0.119507,-0.708008,-0.668701
42172567755,-0.193176,-0.11853,-0.707764,-0.669189
42172590195,-0.192932,-0.117676,-0.707703,-0.669495
42172605292,-0.192932,-0.117615,-0.707642,-0.669556
42172627774,-0.193176,-0.117737,-0.707458,-0.669617
42172650299,-0.193237,-0.117615,-0.707214,-0.669922
42172665371,-0.193054,-0.117249,-0.70697,-0.670288
42172687719,-0.192993,-0.117004,-0.706848,-0.670471
42172710232,-0.193054,-0.116943,-0.706787,-0.670532
42172725169,-0.193237,-0.116943,-0.706665,-0.670654
42172747824,-0.193481,-0.116638,-0.706482,-0.670776
42172770262,-0.193359,-0.115906,-0.706482,-0.670959
42172785294,-0.193054,-0.115173,-0.706482,-0.671143
42172807716,-0.193115,-0.114807,-0.70636,-0.671326
42172830320,-0.193481,-0.114746,-0.706238,-0.671387
42172845279,-0.193359,-0.114075,-0.706238,-0.671509
42172867762,-0.192932,-0.113403,-0.706299,-0.671692
42172890305,-0.192871,-0.113098,-0.706177,-0.671875
42172905240,-0.19342,-0.11322,-0.705933,-0.671997
42172927710,-0.193481,-0.112976,-0.705688,-0.672241
42172950220,-0.192627,-0.111755,-0.705688,-0.672668
42172965276,-0.191895,-0.110718,-0.705627,-0.673157
42172987772,-0.191895,-0.109985,-0.705261,-0.673584
42173010325,-0.191711,-0.108948,-0.704895,-0.674194
42173025274,-0.190613,-0.106873,-0.704712,-0.67511
42173047797,-0.188843,-0.104309,-0.704529,-0.676147
42173070282,-0.187927,-0.102295,-0.704224,-0.677002
42173086699,-0.18811,-0.101196,-0.703796,-0.677612
42173107755,-0.188232,-0.100159,-0.703552,-0.677979
42173130336,-0.18811,-0.0992432,-0.703369,-0.678345
42173146712,-0.188354,-0.0988159,-0.703125,-0.678528
42173167739,-0.188843,-0.0988159,-0.702942,-0.67865
42173190293,-0.188721,-0.0985107,-0.702881,-0.678772
42173206690,-0.188477,-0.0981445,-0.702881,-0.678894
42173227815,-0.188843,-0.0984497,-0.70282,-0.678833
42173250318,-0.189514,-0.0991211,-0.702698,-0.67865
42173266752,-0.189575,-0.0991821,-0.702698,-0.67865
42173287801,-0.189392,-0.098999,-0.702698,-0.67865
42173310334,-0.189392,-0.0991821,-0.702698,-0.67865
42173326676,-0.189941,-0.0998535,-0.702576,-0.678528
42173347848,-0.190002,-0.0998535,-0.702576,-0.678528
42173370285,-0.189941,-0.0998535,-0.702576,-0.678528
42173386757,-0.19043,-0.100403,-0.702637,-0.678284
42173407819,-0.191833,-0.101746,-0.702576,-0.677734
42173431725,-0.194092,-0.103882,-0.702454,-0.676941
42173446668,-0.196411,-0.106506,-0.702271,-0.676025
42173467743,-0.19812,-0.108704,-0.702271,-0.675171
42173490240,-0.199158,-0.110229,-0.702515,-0.674377
42173512805,-0.200562,-0.112061,-0.702759,-0.673401
42173527786,-0.203369,-0.115112,-0.70282,-0.671936
42173550294,-0.207703,-0.119629,-0.702759,-0.669922
42173566750,-0.212524,-0.124878,-0.70282,-0.667358
42173587793,-0.217041,-0.130066,-0.703064,-0.664673
42173610339,-0.221008,-0.134827,-0.703369,-0.662048
42173626725,-0.224304,-0.13916,-0.703674,-0.659729
42173647873,-0.227295,-0.143494,-0.703796,-0.657654
42173670214,-0.230469,-0.147949,-0.703857,-0.655518
42173686774,-0.233276,-0.1521,-0.703918,-0.653503
42173707748,-0.235291,-0.155457,-0.703918,-0.651978
42173730317,-0.236816,-0.157959,-0.703796,-0.65094
42173746757,-0.23761,-0.159363,-0.703735,-0.650391
42173767785,-0.237549,-0.159912,-0.703796,-0.650208
42173790257,-0.237183,-0.159973,-0.704041,-0.650085
42173806767,-0.237183,-0.160339,-0.704102,-0.649902
42173827827,-0.237854,-0.161255,-0.704041,-0.649536
42173850309,-0.238708,-0.162354,-0.703918,-0.649048
42173866690,-0.239502,-0.163513,-0.703857,-0.648499
42173887771,-0.240295,-0.164429,-0.703857,-0.64801
42173910335,-0.241089,-0.165283,-0.703796,-0.647522
42173926732,-0.241516,-0.165771,-0.703796,-0.647278
42173947787,-0.241577,-0.165833,-0.703796,-0.647278
42173970309,-0.241211,-0.165405,-0.703918,-0.6474
42173986756,-0.240845,-0.164856,-0.703918,-0.647644
42174007805,-0.240601,-0.164246,-0.703857,-0.647888
42174030342,-0.239685,-0.163086,-0.703918,-0.648499
42174046793,-0.23761,-0.1604,-0.704163,-0.649658
42174069245,-0.235413,-0.157898,-0.704407,-0.650818
42174090302,-0.234314,-0.156433,-0.704346,-0.651611
42174106779,-0.234192,-0.156006,-0.704102,-0.652039
42174129184,-0.234009,-0.155884,-0.703857,-0.652405
42174150291,-0.232971,-0.154663,-0.703735,-0.653198
42174166736,-0.231079,-0.152466,-0.703796,-0.654297
42174189264,-0.229187,-0.150208,-0.703857,-0.655396
42174210343,-0.227722,-0.148621,-0.703369,-0.656799
42174226808,-0.225098,-0.14563,-0.702698,-0.659119
42174249235,-0.220581,-0.140747,-0.702271,-0.662109
42174270230,-0.215027,-0.134583,-0.701843,-0.66571
42174286790,-0.207581,-0.126587,-0.701233,-0.670288
42174309242,-0.199524,-0.118225,-0.700623,-0.674866
42174330296,-0.193176,-0.111267,-0.699646,-0.678833
42174346724,-0.189697,-0.10614,-0.698425,-0.681946
42174369238,-0.187439,-0.102051,-0.697144,-0.684509
42174390307,-0.185242,-0.0980835,-0.696106,-0.686707
42174406777,-0.182922,-0.0938721,-0.695312,-0.688721
42174429245,-0.181091,-0.0895996,-0.694397,-0.690674
42174450307,-0.180359,-0.0859375,-0.69342,-0.692383
42174466688,-0.180542,-0.0829468,-0.692444,-0.693665
42174489257,-0.180664,-0.0802612,-0.691589,-0.694824
42174510262,-0.180542,-0.0775757,-0.690796,-0.695923
42174526658,-0.181213,-0.0758057,-0.690125,-0.696594
42174549285,-0.182373,-0.0748901,-0.689636,-0.696838
42174570359,-0.182678,-0.0737305,-0.689392,-0.697144
42174586731,-0.182983,-0.072876,-0.689087,-0.697449
42174609202,-0.184143,-0.072937,-0.688843,-0.697388
42174630320,-0.185303,-0.0734863,-0.68866,-0.697205
42174646782,-0.185303,-0.0735474,-0.688599,-0.697266
42174669289,-0.184814,-0.0731812,-0.688599,-0.697449
42174691033,-0.185059,-0.0734253,-0.688477,-0.697449
42174705978,-0.185486,-0.0739136,-0.688416,-0.697327
42174728497,-0.185059,-0.0737915,-0.688477,-0.697449
42174751028,-0.184326,-0.0731812,-0.688477,-0.697693
42174765956,-0.184143,-0.0726929,-0.688293,-0.697937
42174788461,-0.184387,-0.0725098,-0.68811,-0.69812
42174811025,-0.184021,-0.0718384,-0.687927,-0.698425
42174826001,-0.183044,-0.0706177,-0.687866,-0.698914
42174848527,-0.182983,-0.0699463,-0.687622,-0.699219
42174871006,-0.183594,-0.0699463,-0.687439,-0.69928
42174885963,-0.183716,-0.0696411,-0.687378,-0.69928
42174908451,-0.183289,-0.0689697,-0.6875,-0.699341
42174930923,-0.183289,-0.0689087,-0.6875,-0.699341
42174946011,-0.183716,-0.0690308,-0.687378,-0.699341
42174968420,-0.183838,-0.0687866,-0.687195,-0.699524
42174991052,-0.183533,-0.0681763,-0.687195,-0.699707
42175005968,-0.18335,-0.0678711,-0.687134,-0.699768
42175028475,-0.183411,-0.0678101,-0.687012,-0.69989
42175050967,-0.183838,-0.0678711,-0.68689,-0.69989
42175065984,-0.183899,-0.0678711,-0.68689,-0.69989
42175088513,-0.183838,-0.0678711,-0.68689,-0.69989
42175110981,-0.184082,-0.0681763,-0.686829,-0.69989
42175125952,-0.184631,-0.0684814,-0.686707,-0.699829
42175148575,-0.184631,-0.0684814,-0.686707,-0.699829
42175171026,-0.184631,-0.0682373,-0.686768,-0.699829
42175187434,-0.184631,-0.0682373,-0.686768,-0.699768
42175208557,-0.18512,-0.0684204,-0.686646,-0.699768
42175230997,-0.185486,-0.0687256,-0.686584,-0.699707
42175247438,-0.185547,-0.0687256,-0.686584,-0.699707
42175268568,-0.185547,-0.0687256,-0.686584,-0.699707
42175291027,-0.185486,-0.0687256,-0.686584,-0.699707
42175307418,-0.185608,-0.0690918,-0.686584,-0.699585
42175328536,-0.185852,-0.069458,-0.686646,-0.699463
42175350979,-0.185913,-0.0697632,-0.686768,-0.69928
42175367451,-0.185852,-0.0698853,-0.68689,-0.699219
42175388413,-0.185852,-0.0701294,-0.68689,-0.699158
42175410706,-0.186157,-0.0704346,-0.686951,-0.698975
42175427411,-0.186462,-0.0707397,-0.687073,-0.698792
42175448517,-0.186523,-0.0708008,-0.687012,-0.698792
42175470984,-0.186157,-0.0706177,-0.687073,-0.698853
42175487344,-0.185913,-0.0704346,-0.687012,-0.698975
42175508427,-0.185913,-0.0704956,-0.687012,-0.698975
42175530936,-0.185913,-0.0704956,-0.687012,-0.698975
42175547375,-0.185913,-0.0704956,-0.687012,-0.698975
42175568413,-0.185913,-0.0702515,-0.686951,-0.699036
42175590950,-0.185791,-0.0699463,-0.68689,-0.699219
42175607380,-0.185913,-0.0697632,-0.686829,-0.699219
42175628446,-0.186096,-0.0697632,-0.686768,-0.699219
42175650981,-0.186401,-0.0699463,-0.686768,-0.699158
42175667357,-0.186401,-0.0700073,-0.686768,-0.699158
42175695958,-0.186401,-0.0700073,-0.686768,-0.699158
42175710955,-0.186584,-0.0703735,-0.686768,-0.699036
42175727454,-0.18689,-0.071106,-0.686829,-0.698853
42175748455,-0.187012,-0.0715332,-0.68689,-0.69873
42175770929,-0.18689,-0.0718384,-0.686951,-0.698669
42175787390,-0.18689,-0.0718384,-0.686951,-0.698669
42175808434,-0.186829,-0.0720215,-0.686951,-0.698608
42175830869,-0.187012,-0.0724487,-0.686951,-0.698547
42175847379,-0.187134,-0.0727539,-0.686951,-0.698486
42175868496,-0.186829,-0.0725708,-0.687073,-0.698486
42175890956,-0.186462,-0.0721436,-0.687134,-0.698547
42175906744,-0.186279,-0.0717773,-0.687073,-0.698669
42175929868,-0.186462,-0.0716553,-0.687012,-0.69873
42175950942,-0.186523,-0.0716553,-0.687012,-0.69873
42175966673,-0.18634,-0.0714111,-0.687073,-0.69873
42175989897,-0.186157,-0.0710449,-0.687134,-0.698792
42176010990,-0.186157,-0.0709839,-0.687134,-0.69873
42176026710,-0.186279,-0.071106,-0.687073,-0.69873
42176048491,-0.186584,-0.0713501,-0.687012,-0.69873
42176070966,-0.186584,-0.0713501,-0.687012,-0.69873
42176086707,-0.186584,-0.0713501,-0.687012,-0.69873
42176109850,-0.186829,-0.0714111,-0.687012,-0.698669
42176130896,-0.187317,-0.0717163,-0.686951,-0.698547
42176146757,-0.1875,-0.0718994,-0.687012,-0.698425
42176169885,-0.187622,-0.0720825,-0.687134,-0.698303
42176190941,-0.187927,-0.0724487,-0.687134,-0.69812
42176206699,-0.18811,-0.0727539,-0.687073,-0.698059
42176229846,-0.18811,-0.0727539,-0.687073,-0.698059
42176250944,-0.18811,-0.0726929,-0.687073,-0.698059
42176266712,-0.188232,-0.072937,-0.687134,-0.697998
42176289931,-0.188538,-0.0733032,-0.687134,-0.697876
42176310947,-0.188538,-0.0733032,-0.687134,-0.697876
42176326751,-0.188538,-0.0733032,-0.687134,-0.697876
42176349874,-0.188599,-0.0734863,-0.687195,-0.697815
42176370964,-0.188782,-0.0737915,-0.687195,-0.697693
42176386715,-0.188965,-0.0740967,-0.687195,-0.697632
42176409866,-0.188843,-0.0740967,-0.687195,-0.697632
42176430916,-0.188477,-0.0737305,-0.687256,-0.697754
42176446735,-0.188049,-0.0734253,-0.687317,-0.697815
42176469908,-0.188232,-0.0735474,-0.687378,-0.697693
42176490902,-0.188721,-0.0741577,-0.687378,-0.697449
42176506721,-0.188904,-0.0744629,-0.6875,-0.697327
42176530360,-0.188599,-0.0744019,-0.687561,-0.697327
42176550971,-0.188538,-0.0744019,-0.687561,-0.697327
42176566747,-0.188782,-0.0748291,-0.687622,-0.697144
42176589894,-0.189331,-0.0755005,-0.687683,-0.696899
42176610931,-0.189697,-0.0760498,-0.687744,-0.696655
42176626741,-0.189636,-0.0761719,-0.687744,-0.696655
42176649970,-0.189575,-0.0761719,-0.687744,-0.696655
42176670994,-0.189758,-0.0764771,-0.687744,-0.696594
42176686730,-0.190002,-0.0769043,-0.687805,-0.696411
42176709884,-0.190186,-0.0773926,-0.687866,-0.696228
42176730968,-0.190186,-0.0777588,-0.687988,-0.696106
42176746721,-0.190186,-0.0777588,-0.687988,-0.696106
42176769849,-0.189941,-0.0775757,-0.688049,-0.696167
42176790968,-0.18988,-0.0775757,-0.688049,-0.696167
42176806782,-0.190186,-0.0778198,-0.688049,-0.695984
42176829898,-0.19043,-0.078064,-0.68811,-0.695923
42176850961,-0.190491,-0.078125,-0.68811,-0.695862
42176866716,-0.190247,-0.078064,-0.688049,-0.695984
42176889246,-0.189941,-0.0778198,-0.68811,-0.696045
42176910954,-0.18988,-0.0778809,-0.688171,-0.695984
42176933467,-0.190308,-0.0783691,-0.688232,-0.69574
42176949198,-0.190674,-0.0788574,-0.688232,-0.695557
42176970914,-0.190735,-0.0789185,-0.688232,-0.695557
42176986707,-0.190491,-0.0787354,-0.688293,-0.695557
42177009193,-0.190491,-0.0787354,-0.688293,-0.695557
42177038491,-0.190674,-0.0791016,-0.688293,-0.695496
42177046778,-0.190918,-0.0795898,-0.688293,-0.695374
42177069330,-0.190918,-0.0795898,-0.688293,-0.695374
42177092405,-0.190613,-0.0793457,-0.688354,-0.695435
42177106717,-0.190613,-0.0792847,-0.688354,-0.695435
42177129289,-0.190735,-0.0794678,-0.688354,-0.695435
42177152454,-0.190735,-0.0794678,-0.688354,-0.695435
42177166813,-0.190735,-0.0794678,-0.688354,-0.695435
42177189355,-0.190735,-0.0794678,-0.688354,-0.695435
42177212496,-0.190918,-0.0796509,-0.688293,-0.695374
42177226766,-0.190918,-0.0796509,-0.688293,-0.695374
42177249311,-0.190918,-0.0796509,-0.688293,-0.695374
42177272416,-0.190918,-0.0795898,-0.688293,-0.695374
42177286775,-0.191406,-0.079895,-0.688293,-0.695251
42177316024,-0.191467,-0.079895,-0.688293,-0.695251
42177332450,-0.191162,-0.0796509,-0.688293,-0.695312
42177346766,-0.191101,-0.0796509,-0.688293,-0.695312
42177369331,-0.191528,-0.0797119,-0.688416,-0.695068
42177392497,-0.191956,-0.0800171,-0.688416,-0.694946
42177406763,-0.191956,-0.0800781,-0.688416,-0.694946
42177429279,-0.191956,-0.0800781,-0.688416,-0.694946
42177452519,-0.192261,-0.0803223,-0.688416,-0.694824
42177466848,-0.192261,-0.0803833,-0.688416,-0.694824
42177489301,-0.191772,-0.0801392,-0.688416,-0.694946
42177512506,-0.191772,-0.0801392,-0.688416,-0.694946
42177533527,-0.191956,-0.0802612,-0.688477,-0.694824
42177549263,-0.192078,-0.0805664,-0.688477,-0.694763
42177572434,-0.192017,-0.0809326,-0.688416,-0.694824
42177593594,-0.192017,-0.0812988,-0.688354,-0.694824
42177609341,-0.192078,-0.0812988,-0.688354,-0.694824
42177639970,-0.191833,-0.0808105,-0.688354,-0.694946
42177653504,-0.191772,-0.0808105,-0.688354,-0.694946
42177669328,-0.192017,-0.0812378,-0.688232,-0.694946
42177692492,-0.192322,-0.0817261,-0.688293,-0.694763
42177713579,-0.192383,-0.0817871,-0.688232,-0.694763
42177729296,-0.192017,-0.081543,-0.688354,-0.694824
42177752503,-0.191956,-0.081543,-0.688354,-0.694824
42177773574,-0.192261,-0.0817871,-0.688354,-0.694702
42177789352,-0.192566,-0.0820923,-0.688354,-0.69458
42177811816,-0.192566,-0.0821533,-0.688354,-0.69458
42177833523,-0.192444,-0.0820312,-0.688416,-0.69458
42177857511,-0.192261,-0.0818481,-0.688416,-0.694641
42177871847,-0.192261,-0.0818481,-0.688416,-0.694641
42177893596,-0.192505,-0.0820923,-0.688416,-0.694519
42177909350,-0.192749,-0.0824585,-0.688538,-0.694336
42177931843,-0.193115,-0.0829468,-0.688599,-0.694092
42177953574,-0.193176,-0.0830078,-0.688599,-0.694092
42177969337,-0.192566,-0.0825806,-0.688599,-0.694275
42177991865,-0.192261,-0.0822754,-0.688599,-0.694397
42178015010,-0.192688,-0.0825806,-0.688599,-0.694275
42178029290,-0.193115,-0.0830078,-0.688599,-0.694092
42178051886,-0.193359,-0.083252,-0.68866,-0.69397
42178075024,-0.193176,-0.0831299,-0.688721,-0.69397
42178089357,-0.192871,-0.0829468,-0.688721,-0.694031
42178111836,-0.192871,-0.0830078,-0.688782,-0.69397
42178134970,-0.193115,-0.083313,-0.688843,-0.693787
42178149719,-0.193481,-0.0837402,-0.688904,-0.693604
42178171821,-0.193542,-0.0837402,-0.688904,-0.693604
42178195020,-0.193542,-0.0837402,-0.688904,-0.693604
42178209387,-0.193542,-0.0837402,-0.688904,-0.693604
42178231834,-0.193481,-0.0837402,-0.688904,-0.693604
42178254962,-0.193726,-0.0839233,-0.688904,-0.693481
42178269341,-0.194092,-0.0842285,-0.688965,-0.693298
42178291815,-0.194153,-0.0842285,-0.688965,-0.693298
42178315006,-0.194031,-0.0841675,-0.688965,-0.693298
42178329823,-0.194031,-0.0841064,-0.688965,-0.693298
42178351878,-0.194092,-0.0842896,-0.688965,-0.693237
42178374952,-0.194336,-0.0845337,-0.689026,-0.693115
42178389301,-0.194336,-0.0845337,-0.689026,-0.693115
42178411859,-0.194336,-0.0845337,-0.689026,-0.693115
42178435050,-0.194336,-0.0845337,-0.689026,-0.693115
42178449338,-0.194336,-0.0845337,-0.689026,-0.693115
42178472329,-0.194458,-0.0846558,-0.689026,-0.693054
42178494957,-0.194519,-0.0846558,-0.689026,-0.693054
42178516018,-0.194519,-0.0846558,-0.689026,-0.693054
42178531752,-0.194519,-0.0846558,-0.689026,-0.693054
42178545401,-0.194519,-0.0846558,-0.689026,-0.693054
42178567918,-0.194458,-0.0846558,-0.689026,-0.693054
42178591095,-0.194519,-0.0846558,-0.689026,-0.693054
42178605383,-0.194214,-0.0842896,-0.689087,-0.693176
42178627920,-0.193909,-0.0839844,-0.689148,-0.693176
42178651092,-0.193909,-0.0839844,-0.689148,-0.693176
42178665414,-0.194153,-0.0841675,-0.689148,-0.693115
42178687968,-0.194153,-0.0841675,-0.689148,-0.693115
42178711057,-0.194153,-0.0841675,-0.689148,-0.693054
42178725493,-0.194153,-0.0840454,-0.689209,-0.693054
42178747975,-0.193909,-0.0838013,-0.68927,-0.693115
42178771162,-0.193909,-0.0838013,-0.68927,-0.693115
42178785442,-0.194031,-0.0840454,-0.689331,-0.692993
42178807996,-0.194092,-0.0845337,-0.689331,-0.692871
42178831136,-0.194153,-0.085144,-0.68927,-0.692871
42178845397,-0.194214,-0.0856934,-0.689148,-0.692932
42178867908,-0.195068,-0.0861206,-0.689026,-0.692749
42178891020,-0.19574,-0.0862427,-0.688904,-0.692627
42178905381,-0.195129,-0.0854492,-0.688965,-0.69281
42178927928,-0.194519,-0.085144,-0.689026,-0.692993
42178951032,-0.194885,-0.0858765,-0.688965,-0.692871
42178965495,-0.195374,-0.0864868,-0.688965,-0.692688
42178987944,-0.195129,-0.0862427,-0.689026,-0.692688
42179011027,-0.195129,-0.0862427,-0.689087,-0.692688
42179025496,-0.195557,-0.0866089,-0.689087,-0.692444
42179047920,-0.195862,-0.0870972,-0.689087,-0.692322
42179071110,-0.195984,-0.0873413,-0.689087,-0.692261
42179085461,-0.195984,-0.0873413,-0.689087,-0.6922
42179107904,-0.196167,-0.0876465,-0.689209,-0.692078
42179131133,-0.196472,-0.0881958,-0.689331,-0.691833
42179145416,-0.196594,-0.0888672,-0.689392,-0.691589
42179167878,-0.196899,-0.0896606,-0.689514,-0.691284
42179191035,-0.197266,-0.0906372,-0.689636,-0.690918
42179205469,-0.197876,-0.0917969,-0.689636,-0.690552
42179227911,-0.198303,-0.0928955,-0.689697,-0.690247
42179251130,-0.198364,-0.0935669,-0.689819,-0.690002
42179265504,-0.198486,-0.0942383,-0.689941,-0.689819
42179287941,-0.199097,-0.0953979,-0.690002,-0.689392
42179311037,-0.200012,-0.0969238,-0.690186,-0.688721
42179325486,-0.200623,-0.0980835,-0.690491,-0.688049
42179347961,-0.200806,-0.098877,-0.690674,-0.687744
42179371058,-0.200684,-0.0991821,-0.690735,-0.687683
42179385490,-0.200684,-0.0992432,-0.690735,-0.687683
42179407941,-0.200806,-0.0995483,-0.690918,-0.687378
42179431130,-0.20105,-0.0999756,-0.691162,-0.687012
42179445414,-0.20166,-0.10083,-0.691223,-0.686646
42179467897,-0.202087,-0.10144,-0.691284,-0.68634
42179491059,-0.202026,-0.101379,-0.691528,-0.686157
42179505458,-0.202209,-0.101562,-0.691833,-0.685791
42179527949,-0.202942,-0.102417,-0.691956,-0.685242
42179551097,-0.203735,-0.103516,-0.692078,-0.684814
42179565480,-0.204468,-0.104797,-0.6922,-0.684265
42179587938,-0.204773,-0.105835,-0.692505,-0.683655
42179611066,-0.204834,-0.106934,-0.692993,-0.682983
42179625474,-0.205139,-0.108643,-0.693298,-0.682312
42179648002,-0.205811,-0.110718,-0.693481,-0.68158
42179671071,-0.206421,-0.112671,-0.693542,-0.68103
42179685473,-0.206421,-0.113892,-0.693848,-0.680542
42179707916,-0.205994,-0.114624,-0.694153,-0.680237
42179731109,-0.205872,-0.115295,-0.694336,-0.679932
42179745449,-0.206177,-0.115906,-0.694397,-0.679688
42179767887,-0.206482,-0.116272,-0.694519,-0.679443
42179791090,-0.206482,-0.116211,-0.694641,-0.67926
42179805442,-0.20636,-0.11615,-0.694885,-0.679138
42179827967,-0.207031,-0.11676,-0.695007,-0.67865
42179851132,-0.208313,-0.118469,-0.695007,-0.677979
42179865562,-0.209412,-0.119934,-0.69519,-0.677185
42179887902,-0.210205,-0.121216,-0.695618,-0.67627
42179910444,-0.210754,-0.122681,-0.696106,-0.675354
42179925453,-0.212158,-0.125244,-0.696533,-0.67395
42179947953,-0.215027,-0.129395,-0.696838,-0.671997
42179970452,-0.217346,-0.133545,-0.697327,-0.669922
42179985437,-0.219299,-0.138,-0.697815,-0.667847
42180007953,-0.222717,-0.143311,-0.698181,-0.665222
42180030498,-0.227722,-0.150391,-0.69812,-0.661987
42180045474,-0.23114,-0.157593,-0.697449,-0.659851
42180067973,-0.231323,-0.163452,-0.697083,-0.658752
42180090483,-0.231873,-0.170349,-0.697144,-0.656738
42180105460,-0.234497,-0.178528,-0.697205,-0.653564
42180136074,-0.239624,-0.187683,-0.69751,-0.648804
42180150505,-0.244812,-0.19812,-0.698792,-0.642334
42180165362,-0.246826,-0.208618,-0.701477,-0.635254
42180187956,-0.245422,-0.218811,-0.70575,-0.627686
42180210464,-0.242554,-0.228943,-0.71051,-0.619751
42180225478,-0.241455,-0.240417,-0.714722,-0.61084
42180247929,-0.24176,-0.252136,-0.718872,-0.601135
42180270442,-0.241699,-0.262756,-0.723022,-0.591553
42180285469,-0.241516,-0.271484,-0.7276,-0.582031
42180307925,-0.241638,-0.279724,-0.7323,-0.572021
42180330430,-0.242615,-0.288635,-0.736267,-0.562012
42180345480,-0.244324,-0.297791,-0.739136,-0.552673
42180369423,-0.2453,-0.305969,-0.740845,-0.545349
42180390457,-0.24646,-0.313293,-0.741943,-0.539246
42180405447,-0.247803,-0.319824,-0.742737,-0.53363
42180427947,-0.248169,-0.323975,-0.743958,-0.529236
42180450510,-0.24646,-0.324402,-0.746094,-0.526794
42180465487,-0.244568,-0.32373,-0.747986,-0.525391
42180487956,-0.243835,-0.324463,-0.749146,-0.523621
42180510431,-0.243835,-0.325806,-0.750366,-0.520996
42180525460,-0.24408,-0.326965,-0.75238,-0.517212
42180547918,-0.244934,-0.328796,-0.754822,-0.512146
42180570562,-0.246216,-0.331421,-0.75769,-0.505493
42180585433,-0.246582,-0.33374,-0.761292,-0.498291
42180608011,-0.246094,-0.335815,-0.765442,-0.490784
42180630448,-0.246521,-0.339722,-0.769104,-0.482117
42180648362,-0.248047,-0.345337,-0.771973,-0.472656
42180667934,-0.24884,-0.350159,-0.77478,-0.463989
42180693416,-0.247314,-0.352722,-0.778381,-0.456848
42180706880,-0.245667,-0.35498,-0.782043,-0.449585
42180727984,-0.246277,-0.360046,-0.784546,-0.440796
42180750460,-0.248779,-0.366394,-0.786072,-0.431396
42180766944,-0.249695,-0.369446,-0.788574,-0.423523
42180787995,-0.248108,-0.36853,-0.792908,-0.417236
42180810497,-0.246582,-0.367126,-0.79718,-0.411133
42180826861,-0.24707,-0.367554,-0.800171,-0.404541
42180847923,-0.249023,-0.368652,-0.80249,-0.397705
42180870438,-0.250854,-0.368896,-0.804932,-0.391357
42180886872,-0.252869,-0.36908,-0.80719,-0.385254
42180907911,-0.254883,-0.369446,-0.80896,-0.379822
42180930472,-0.256287,-0.369568,-0.810547,-0.375366
42180946915,-0.255981,-0.369507,-0.812195,-0.372009
42180969469,-0.255066,-0.369995,-0.813721,-0.368713
42180990436,-0.255127,-0.372681,-0.81427,-0.364868
42181006887,-0.254944,-0.375793,-0.814148,-0.362
42181027971,-0.253235,-0.377014,-0.814575,-0.361023
42181050466,-0.251282,-0.377991,-0.814941,-0.360535
42181066915,-0.250793,-0.3797,-0.814636,-0.359741
42181087960,-0.251404,-0.381287,-0.814209,-0.358704
42181110440,-0.252136,-0.381836,-0.814026,-0.357971
42181126911,-0.252014,-0.38092,-0.814209,-0.358582
42181148002,-0.251648,-0.379456,-0.814331,-0.360046
42181170590,-0.25238,-0.379333,-0.813843,-0.36084
42181186902,-0.2547,-0.380432,-0.812683,-0.360596
42181207997,-0.257019,-0.380737,-0.811523,-0.361267
42181230482,-0.25824,-0.37915,-0.810852,-0.363586
42181246928,-0.258911,-0.377197,-0.810303,-0.366394
42181267937,-0.260071,-0.376404,-0.809265,-0.368713
42181290444,-0.260864,-0.375122,-0.808655,-0.370728
42181306890,-0.261169,-0.373108,-0.808655,-0.372437
42181327984,-0.261719,-0.371582,-0.808777,-0.373413
42181350498,-0.262878,-0.370911,-0.808777,-0.373291
42181366917,-0.263855,-0.370605,-0.808899,-0.37262
42181387991,-0.264465,-0.370483,-0.809143,-0.371765
42181410477,-0.264771,-0.370605,-0.809509,-0.370667
42181426939,-0.264709,-0.370728,-0.809875,-0.369751
42181447985,-0.264832,-0.370667,-0.810303,-0.368774
42181470480,-0.265137,-0.370483,-0.810608,-0.368042
42181486853,-0.265503,-0.369751,-0.811035,-0.367676
42181508038,-0.265991,-0.36908,-0.811157,-0.367676
42181530480,-0.266357,-0.36853,-0.811218,-0.367798
42181546918,-0.266479,-0.368042,-0.811279,-0.368042
42181567977,-0.266785,-0.367615,-0.811279,-0.368286
42181590466,-0.266724,-0.366943,-0.811462,-0.368591
42181608361,-0.266602,-0.366394,-0.811646,-0.368835
42181629358,-0.266602,-0.366333,-0.811646,-0.368835
42181650410,-0.266479,-0.366394,-0.811707,-0.368713
42181666927,-0.266174,-0.366272,-0.811951,-0.36853
42181689471,-0.266174,-0.365784,-0.812317,-0.368225
42181710445,-0.266357,-0.36554,-0.812683,-0.367554
42181726889,-0.266724,-0.365479,-0.812927,-0.36676
42181749472,-0.267334,-0.36554,-0.813049,-0.366028
42181770388,-0.268005,-0.365662,-0.813049,-0.365356
42181786883,-0.268738,-0.365662,-0.813171,-0.364624
42181809462,-0.269226,-0.365356,-0.813416,-0.364014
42181830464,-0.269836,-0.36499,-0.813599,-0.363464
42181846926,-0.270447,-0.365051,-0.81366,-0.362854
42181869451,-0.270935,-0.365356,-0.813538,-0.362427
42181890503,-0.271057,-0.36554,-0.813538,-0.362183
42181906837,-0.270996,-0.365784,-0.813477,-0.362122
42181929486,-0.270691,-0.365967,-0.813538,-0.362061
42181950460,-0.270081,-0.365723,-0.813721,-0.362244
42181966843,-0.269531,-0.36554,-0.813904,-0.362427
42181989351,-0.269043,-0.365479,-0.813965,-0.362732
42182010526,-0.268738,-0.365662,-0.813843,-0.363098
42182026910,-0.268494,-0.365723,-0.813721,-0.363464
42182049401,-0.268127,-0.365295,-0.813904,-0.363831
42182070470,-0.267761,-0.364807,-0.814148,-0.363953
42182086927,-0.2677,-0.364685,-0.814331,-0.363831
42182115507,-0.267578,-0.364746,-0.814331,-0.36377
42182130476,-0.267456,-0.365051,-0.81427,-0.363708
42182146931,-0.267334,-0.365295,-0.81427,-0.363586
42182169456,-0.267029,-0.365295,-0.814331,-0.363647
42182190514,-0.266541,-0.365234,-0.814453,-0.36377
42182206886,-0.266052,-0.365356,-0.814453,-0.364014
42182229407,-0.265625,-0.365479,-0.814392,-0.36438
42182250475,-0.264954,-0.365662,-0.81427,-0.364929
42182266939,-0.264282,-0.365845,-0.814148,-0.365479
42182289456,-0.26355,-0.365906,-0.81427,-0.365723
42182310450,-0.262695,-0.365906,-0.814514,-0.365784
42182326860,-0.261963,-0.366089,-0.814697,-0.365662
42182349423,-0.261169,-0.366272,-0.814941,-0.365479
42182371520,-0.260559,-0.366211,-0.815247,-0.365356
42182386135,-0.260315,-0.366394,-0.815308,-0.365173
42182408614,-0.260376,-0.366821,-0.815186,-0.365051
42182431106,-0.260376,-0.366394,-0.815369,-0.365051
42182446139,-0.260132,-0.365723,-0.815674,-0.365173
42182468632,-0.26001,-0.365356,-0.815857,-0.365295
42182491133,-0.26001,-0.365417,-0.815735,-0.365356
42182506139,-0.260193,-0.365723,-0.815552,-0.365356
42182528640,-0.260376,-0.366028,-0.81543,-0.365295
42182551158,-0.260376,-0.366516,-0.815247,-0.365173
42182566130,-0.260437,-0.366882,-0.815186,-0.364868
42182588628,-0.260498,-0.36731,-0.815125,-0.364563
42182611167,-0.260681,-0.367737,-0.815002,-0.364258
42182626159,-0.260681,-0.36792,-0.815002,-0.364136
42182648664,-0.260193,-0.367676,-0.815186,-0.364197
42182671190,-0.259827,-0.367615,-0.815369,-0.364197
42182686161,-0.259827,-0.367615,-0.815369,-0.364197
42182708702,-0.259827,-0.367249,-0.81543,-0.36438
42182731167,-0.260132,-0.367004,-0.815308,-0.364746
42182747614,-0.260681,-0.366699,-0.815186,-0.364929
42182768620,-0.261169,-0.365906,-0.81543,-0.364929
42182791189,-0.261658,-0.365173,-0.815674,-0.364685
42182807653,-0.262512,-0.365051,-0.815674,-0.364197
42182828695,-0.263672,-0.365356,-0.815552,-0.363342
42182851228,-0.264709,-0.365601,-0.815552,-0.362305
42182867622,-0.265381,-0.365112,-0.815979,-0.361267
42182888659,-0.265991,-0.364502,-0.816711,-0.359863
42182911146,-0.266907,-0.364014,-0.817322,-0.358276
42182927569,-0.26825,-0.363892,-0.817627,-0.35675
42182948627,-0.269897,-0.364075,-0.817688,-0.355042
42182971149,-0.270996,-0.363892,-0.817871,-0.354004
42182987599,-0.271179,-0.363342,-0.818054,-0.354004
42183008577,-0.270813,-0.36261,-0.818298,-0.354492
42183038675,-0.271484,-0.362427,-0.817932,-0.35498
42183047567,-0.272705,-0.363464,-0.817017,-0.355103
