timestamp,x,y,z,w
487654452217,0.204224,0.00726318,0.591736,0.779724
487654467232,0.204224,0.00726318,0.591736,0.779724
487654488588,0.204224,0.00720215,0.591736,0.779724
487654512241,0.204224,0.00720215,0.591736,0.779724
487654527275,0.204224,0.00720215,0.591736,0.779724
487654549739,0.204224,0.00720215,0.591736,0.779724
487654603741,0.204224,0.00720215,0.591736,0.779724
487654604531,0.204163,0.00720215,0.591736,0.779724
487654613138,0.204163,0.00720215,0.591736,0.779724
487654632940,0.204163,0.00714111,0.591736,0.779724
487654647706,0.204163,0.00714111,0.591736,0.779724
487654668584,0.204163,0.00714111,0.591736,0.779724
487654683700,0.204163,0.00714111,0.591736,0.779724
487654729813,0.204163,0.00714111,0.591736,0.779724
487654730559,0.204163,0.00714111,0.591736,0.779724
487654744059,0.204163,0.00714111,0.591736,0.779724
487654766584,0.204102,0.00714111,0.591736,0.779724
487654789084,0.204102,0.00714111,0.591736,0.779724
487654805507,0.204102,0.00714111,0.591736,0.779724
487654828042,0.204102,0.00714111,0.591736,0.779724
487654850487,0.204102,0.00714111,0.591736,0.779724
487654865484,0.204102,0.00714111,0.591736,0.779724
487654888033,0.204102,0.00708008,0.591736,0.779724
487654910511,0.204102,0.00708008,0.591736,0.779724
487654925475,0.204102,0.00708008,0.591797,0.779724
487654948048,0.204041,0.00708008,0.591797,0.779724
487654970506,0.204041,0.00708008,0.591797,0.779724
487654985524,0.204041,0.00701904,0.591797,0.779724
487655015599,0.204041,0.00701904,0.591797,0.779724
487655030538,0.204041,0.00701904,0.591797,0.779724
487655044873,0.204041,0.00701904,0.591797,0.779724
487655067995,0.204041,0.00701904,0.591797,0.779724
487655090482,0.204041,0.00701904,0.591797,0.779724
487655104922,0.204041,0.00701904,0.591797,0.779785
487655128037,0.203979,0.00701904,0.591797,0.779785
487655150489,0.203918,0.00701904,0.591797,0.779785
487655164877,0.203979,0.00701904,0.591797,0.779785
487655187966,0.203979,0.00701904,0.591797,0.779785
487655216566,0.203979,0.00695801,0.591797,0.779785
487655224905,0.203979,0.00695801,0.591797,0.779724
487655255498,0.203979,0.00689697,0.591797,0.779724
487655270566,0.203979,0.00689697,0.591797,0.779724
487655284900,0.203979,0.00689697,0.591797,0.779724
487655308164,0.203979,0.00689697,0.591797,0.779724
487655330932,0.203979,0.00689697,0.591797,0.779724
487655344909,0.203979,0.00689697,0.591797,0.779724
487655368013,0.203979,0.00689697,0.591797,0.779724
487655390537,0.203979,0.00671387,0.591736,0.779785
487655411583,0.203796,0.00640869,0.591675,0.779907
487655427993,0.203613,0.00604248,0.591614,0.779968
487655450575,0.203613,0.00604248,0.591675,0.779968
487655471590,0.203552,0.00598145,0.591675,0.779968
487655488519,0.203552,0.00598145,0.591675,0.779968
487655510530,0.203552,0.00592041,0.591675,0.779968
487655531580,0.203613,0.00592041,0.591675,0.779968
487655547993,0.203613,0.00598145,0.591675,0.779968
487655570852,0.203613,0.00598145,0.591675,0.779968
487655591595,0.203613,0.00592041,0.591675,0.779968
487655608039,0.203613,0.00592041,0.591675,0.779968
487655630504,0.203613,0.00592041,0.591675,0.779968
487655651535,0.203613,0.00592041,0.591675,0.779968
487655668048,0.203674,0.00616455,0.591614,0.779968
487655690496,0.203674,0.00616455,0.591614,0.779968
487655720524,0.203491,0.00598145,0.591553,0.780029
487655735490,0.20343,0.0057373,0.591553,0.78009
487655749886,0.20343,0.00579834,0.591553,0.78009
487655772997,0.20343,0.0057373,0.591553,0.78009
487655795509,0.20343,0.0057373,0.591553,0.78009
487655809872,0.20343,0.0057373,0.591553,0.78009
487655832991,0.20343,0.00567627,0.591553,0.78009
487655856017,0.20343,0.00567627,0.591553,0.78009
487655877067,0.20343,0.00567627,0.591553,0.78009
487655893588,0.20343,0.00567627,0.591553,0.78009
487655915760,0.20343,0.00567627,0.591553,0.78009
487655936635,0.20343,0.00567627,0.591553,0.78009
487655953053,0.203369,0.00567627,0.591553,0.78009
487655975588,0.203369,0.00567627,0.591553,0.78009
487655996622,0.203369,0.00567627,0.591553,0.78009
487656013287,0.203369,0.00567627,0.591553,0.78009
487656035546,0.20343,0.00567627,0.591553,0.78009
487656064493,0.20343,0.00567627,0.591553,0.78009
487656072967,0.20343,0.00567627,0.591553,0.78009
487656095494,0.20343,0.00561523,0.591553,0.78009
487656116632,0.20343,0.00561523,0.591553,0.78009
487656133050,0.20343,0.00561523,0.591553,0.78009
487656155498,0.203369,0.00561523,0.591553,0.78009
487656176546,0.20343,0.00561523,0.591553,0.78009
487656193030,0.20343,0.00561523,0.591553,0.78009
487656215553,0.203247,0.00567627,0.591553,0.780151
487656238000,0.203247,0.00567627,0.591553,0.780151
487656253059,0.203247,0.00567627,0.591553,0.780151
487656275992,0.203247,0.00567627,0.591553,0.780151
487656296666,0.203247,0.00561523,0.591553,0.780151
487656313149,0.203247,0.00561523,0.591553,0.780151
487656336174,0.203247,0.00561523,0.591553,0.780151
487656358706,0.203247,0.00561523,0.591553,0.780151
487656381349,0.203125,0.00549316,0.591431,0.780273
487656395739,0.202942,0.00531006,0.591309,0.780457
487656418143,0.202881,0.00531006,0.591309,0.780457
487656432368,0.202881,0.00524902,0.591309,0.780457
487656455690,0.202881,0.00524902,0.591309,0.780457
487656478740,0.202881,0.00524902,0.591309,0.780457
487656492770,0.202881,0.00524902,0.591309,0.780457
487656515805,0.202881,0.00524902,0.591309,0.780457
487656538081,0.202881,0.00524902,0.591309,0.780457
487656552516,0.202881,0.00524902,0.591309,0.780457
487656576015,0.202881,0.00518799,0.591309,0.780457
487656598098,0.202881,0.00518799,0.591309,0.780457
487656612511,0.20282,0.00518799,0.591309,0.780457
487656641965,0.20282,0.00518799,0.591309,0.780457
487656658051,0.20282,0.00518799,0.591309,0.780457
487656673054,0.20282,0.00512695,0.591309,0.780457
487656695520,0.20282,0.00512695,0.591309,0.780457
487656725939,0.20282,0.00512695,0.591309,0.780457
487656732815,0.20282,0.00512695,0.591309,0.780457
487656755584,0.20282,0.00512695,0.591309,0.780457
487656778026,0.20282,0.00512695,0.591309,0.780457
487656792874,0.20282,0.00512695,0.591309,0.780457
487656816023,0.20282,0.00518799,0.591309,0.780457
487656838672,0.20282,0.00518799,0.591309,0.780457
487656859225,0.202759,0.00518799,0.591309,0.780457
487656875566,0.20282,0.00512695,0.591309,0.780457
487656898575,0.20282,0.00512695,0.591309,0.780457
487656919186,0.20282,0.00512695,0.591309,0.780457
487656935633,0.20282,0.00512695,0.591309,0.780457
487656958339,0.20282,0.00512695,0.591309,0.780457
487656979093,0.20282,0.00512695,0.591309,0.780457
487656995592,0.20282,0.00512695,0.591309,0.780457
487657018529,0.20282,0.00506592,0.591309,0.780457
487657039210,0.20282,0.00506592,0.591309,0.780457
487657055594,0.20282,0.00506592,0.591309,0.780457
487657078102,0.202759,0.00506592,0.59137,0.780457
487657099241,0.202759,0.00506592,0.59137,0.780457
487657115687,0.202759,0.00506592,0.59137,0.780457
487657138214,0.202698,0.00506592,0.59137,0.780457
487657159046,0.202698,0.00506592,0.59137,0.780457
487657175524,0.202698,0.00506592,0.59137,0.780457
487657204118,0.202698,0.00506592,0.59137,0.780457
487657219261,0.202759,0.00488281,0.591492,0.780334
487657235715,0.202759,0.0045166,0.591736,0.780151
487657258032,0.203247,0.0043335,0.591858,0.779907
487657280582,0.203735,0.0043335,0.592041,0.779663
487657296166,0.204041,0.00427246,0.592224,0.779419
487657318770,0.204224,0.00408936,0.592468,0.779236
487657340630,0.204468,0.0045166,0.592346,0.779236
487657355631,0.204346,0.00506592,0.592041,0.77948
487657378753,0.203674,0.0057373,0.591675,0.779968
487657407148,0.203979,0.00653076,0.591187,0.780212
487657416415,0.204834,0.00714111,0.590942,0.780151
487657438077,0.206116,0.00726318,0.590698,0.780029
487657460607,0.206848,0.00720215,0.590454,0.780029
487657483918,0.207336,0.00714111,0.590088,0.780151
487657498307,0.207886,0.00714111,0.589966,0.78009
487657520595,0.208679,0.00683594,0.590088,0.779846
487657535233,0.209961,0.00665283,0.590027,0.779541
487657558266,0.211182,0.0067749,0.589783,0.779358
487657580647,0.211853,0.00695801,0.589539,0.779358
487657595043,0.212891,0.00701904,0.588928,0.779541
487657618133,0.216309,0.00756836,0.588074,0.779236
487657640551,0.221924,0.00860596,0.587158,0.778381
487657662242,0.228271,0.00976562,0.586121,0.777283
487657678085,0.233704,0.010376,0.585266,0.776306
487657700718,0.239014,0.0103149,0.584717,0.775085
487657721630,0.246094,0.010498,0.584595,0.772949
487657745588,0.254578,0.0108032,0.584595,0.770203
487657760601,0.262329,0.0108643,0.584534,0.767639
487657783044,0.268066,0.010376,0.584534,0.765686
487657798668,0.27301,0.00964355,0.584595,0.763916
487657821097,0.278198,0.00878906,0.584839,0.761841
487657841771,0.283997,0.00769043,0.584961,0.759583
487657858507,0.289551,0.00622559,0.585144,0.757385
487657880894,0.293701,0.00427246,0.585449,0.755554
487657901899,0.296509,0.00195312,0.585876,0.75415
487657918494,0.298462,-0.000793457,0.586731,0.752686
487657940907,0.30011,-0.00366211,0.587769,0.751221
487657961788,0.301086,-0.00671387,0.588867,0.749939
487657985584,0.302185,-0.00946045,0.589783,0.748779
487658001037,0.304382,-0.0111694,0.590332,0.747437
487658029291,0.308044,-0.0118408,0.590759,0.745544
487658037432,0.312561,-0.012207,0.591248,0.743286
487658060663,0.316711,-0.0131836,0.591675,0.741211
487658082256,0.319885,-0.0147095,0.591675,0.739746
487658097454,0.321838,-0.0160522,0.591858,0.73877
487658120775,0.323975,-0.0162354,0.592224,0.737549
487658141609,0.326904,-0.0155029,0.593384,0.735291
487658157827,0.330078,-0.0139771,0.595154,0.732483
487658180958,0.333069,-0.012146,0.596985,0.729675
487658203407,0.335144,-0.010498,0.598511,0.727478
487658217504,0.336304,-0.00921631,0.599731,0.725952
487658240554,0.337341,-0.00848389,0.600708,0.724731
487658263073,0.339111,-0.00732422,0.601318,0.723328
487658284232,0.342285,-0.00585938,0.601624,0.721619
487658300551,0.344543,-0.00506592,0.601746,0.720459
487658323137,0.344788,-0.00518799,0.601685,0.720398
487658344216,0.344177,-0.00567627,0.601562,0.720764
487658360908,0.344055,-0.00604248,0.601562,0.720825
487658383143,0.344482,-0.00616455,0.601746,0.72052
487658404644,0.345642,-0.00567627,0.601807,0.719849
487658421164,0.347168,-0.0043335,0.601562,0.71936
487658443332,0.34845,-0.00201416,0.600647,0.719482
487658464292,0.350464,0.00134277,0.59967,0.71936
487658480699,0.353271,0.00567627,0.598022,0.719299
487658510610,0.355652,0.00946045,0.595886,0.71991
487658524152,0.355164,0.0114746,0.59436,0.721375
487658530967,0.352905,0.0123901,0.593689,0.723022
487658546009,0.351013,0.0131226,0.59314,0.724365
487658568469,0.350403,0.0150146,0.591736,0.725769
487658590940,0.350098,0.0176392,0.589844,0.727417
487658606011,0.349426,0.0196533,0.587769,0.729309
487658628625,0.346619,0.019043,0.586243,0.731873
487658651677,0.341553,0.0166016,0.585388,0.735046
487658666232,0.337708,0.0150757,0.584595,0.737488
487658689035,0.335999,0.015686,0.583862,0.738831
487658711140,0.335205,0.0180054,0.583374,0.739502
487658726357,0.333801,0.0211792,0.583191,0.740234
487658751607,0.331482,0.0247803,0.583252,0.741089
487658771318,0.328247,0.0287476,0.583618,0.742065
487658793539,0.324768,0.0335083,0.584106,0.743042
487658808563,0.321533,0.0392456,0.584717,0.743713
487658831625,0.318665,0.0457153,0.585205,0.744141
487658845961,0.315735,0.0523682,0.585693,0.744568
487658878910,0.31311,0.0593262,0.585876,0.745056
487658890953,0.31012,0.0664673,0.585632,0.74585
487658906119,0.306458,0.0734863,0.585022,0.747192
487658928511,0.302979,0.0805054,0.584106,0.748657
487658951046,0.300354,0.0878906,0.582825,0.749817
487658966082,0.298035,0.0953979,0.581604,0.750793
487658988587,0.295715,0.102722,0.580505,0.751587
487659011014,0.293945,0.109619,0.579468,0.752136
487659026028,0.292725,0.116028,0.578735,0.752197
487659048489,0.292175,0.122559,0.578308,0.751709
487659071310,0.292908,0.130249,0.578186,0.750244
487659086018,0.295044,0.139038,0.577942,0.747986
487659108482,0.298096,0.148315,0.577454,0.745361
487659131022,0.301514,0.158081,0.576111,0.743042
487659145930,0.303772,0.167725,0.573608,0.741943
487659168636,0.303528,0.176331,0.570618,0.74231
487659191271,0.301086,0.183533,0.567871,0.743713
487659206316,0.298218,0.18988,0.56543,0.745117
487659228605,0.296326,0.195679,0.563049,0.746155
487659251206,0.296326,0.201294,0.56073,0.74646
487659266038,0.297424,0.206909,0.558167,0.746399
487659288528,0.297668,0.212158,0.555359,0.746887
487659311542,0.295715,0.215881,0.552734,0.748596
487659326727,0.292725,0.218262,0.550537,0.750671
487659348570,0.2901,0.220032,0.548279,0.752808
487659371707,0.288086,0.221191,0.545715,0.755066
487659386077,0.286072,0.221619,0.543518,0.757263
487659415967,0.284363,0.221497,0.542053,0.759033
487659430998,0.283081,0.221313,0.541321,0.760071
487659446032,0.282654,0.221558,0.540771,0.760559
487659468490,0.282471,0.221985,0.540344,0.760803
487659486373,0.281738,0.22229,0.540466,0.760925
487659506057,0.280212,0.221985,0.541321,0.760986
487659529051,0.278076,0.221313,0.542542,0.761108
487659546963,0.277344,0.221069,0.543396,0.760803
487659565997,0.279236,0.221619,0.543945,0.759521
487659588515,0.282532,0.222656,0.544312,0.757751
487659611043,0.285095,0.223511,0.544556,0.756409
487659625980,0.286438,0.223511,0.544739,0.755737
487659648537,0.287415,0.222778,0.545044,0.755371
487659671042,0.288513,0.221802,0.54541,0.754944
487659688919,0.288696,0.220276,0.545776,0.755127
487659709127,0.28656,0.217346,0.546204,0.75647
487659731362,0.282898,0.213257,0.546631,0.758667
487659747510,0.278809,0.208618,0.547546,0.760803
487659768496,0.27533,0.205017,0.548706,0.762207
487659791120,0.273987,0.20343,0.549438,0.762573
487659807976,0.274719,0.20343,0.549133,0.762573
487659828555,0.274719,0.202881,0.548584,0.763123
487659851437,0.272095,0.200928,0.54834,0.764709
487659868297,0.267273,0.197571,0.548584,0.767151
487659888530,0.262085,0.193909,0.549316,0.769348
487659910973,0.258179,0.190857,0.55011,0.770813
487659927503,0.256775,0.189209,0.550659,0.771362
487659949201,0.256653,0.188721,0.550598,0.771545
487659973964,0.255005,0.187683,0.550476,0.7724
487659988192,0.251221,0.185669,0.550903,0.773804
487660008611,0.247437,0.183899,0.551208,0.775269
487660031010,0.245239,0.183105,0.550903,0.776367
487660047474,0.243774,0.182251,0.550415,0.777344
487660068553,0.242371,0.180603,0.550354,0.778259
487660091069,0.242188,0.17926,0.55011,0.778748
487660108940,0.242737,0.17804,0.549683,0.779175
487660128527,0.243958,0.177734,0.548828,0.77948
487660151056,0.247498,0.17926,0.547119,0.779175
487660168924,0.252136,0.181641,0.545105,0.778564
487660188623,0.255127,0.183105,0.543152,0.778625
487660211095,0.255066,0.182617,0.541809,0.779724
487660228988,0.252991,0.180664,0.541138,0.781311
487660248573,0.252136,0.179382,0.540466,0.782349
487660266425,0.253601,0.179565,0.539429,0.782532
487660288985,0.255615,0.180115,0.538391,0.782471
487660308587,0.25592,0.179626,0.537842,0.782837
487660326452,0.254944,0.178223,0.53772,0.783569
487660349328,0.254089,0.176819,0.537598,0.784241
487660369201,0.254089,0.175171,0.537537,0.784668
487660393924,0.254822,0.173401,0.537231,0.785034
487660409322,0.256592,0.171875,0.536438,0.785339
487660428494,0.259583,0.171082,0.534912,0.785583
487660451595,0.264282,0.171204,0.532837,0.785339
487660476829,0.270081,0.172424,0.530579,0.784668
487660488580,0.273743,0.172852,0.528442,0.784729
487660518527,0.273926,0.171936,0.526794,0.786011
487660529017,0.273438,0.171326,0.52533,0.787231
487660548544,0.274231,0.172058,0.523804,0.787842
487660566402,0.275391,0.173523,0.522278,0.788147
487660588966,0.27594,0.174927,0.520874,0.788574
487660609170,0.273071,0.174377,0.520813,0.789734
487660626450,0.271179,0.174622,0.520935,0.790283
487660649143,0.270447,0.174927,0.521179,0.790283
487660668901,0.270264,0.175049,0.521423,0.790161
487660693904,0.271423,0.175842,0.521179,0.789734
487660708939,0.272461,0.176453,0.520935,0.789368
487660730132,0.272034,0.176453,0.520935,0.789551
487660746740,0.271057,0.175964,0.52124,0.789795
487660768898,0.270935,0.175659,0.521423,0.789795
487660789986,0.272034,0.175598,0.521301,0.78949
487660806597,0.273132,0.175476,0.521179,0.789246
487660829390,0.273743,0.174927,0.521179,0.789124
487660851446,0.273926,0.174377,0.521362,0.789062
487660866513,0.274475,0.17395,0.521606,0.788818
487660889100,0.275513,0.173645,0.521912,0.78833
487660909921,0.276062,0.173157,0.522278,0.787964
487660926500,0.275757,0.172546,0.522644,0.788025
487660949017,0.275085,0.172058,0.522888,0.788147
487660970046,0.275269,0.17218,0.52301,0.788025
487660986441,0.275757,0.172424,0.523071,0.78772
487661009062,0.276306,0.172913,0.523193,0.787354
487661029274,0.27655,0.173523,0.523132,0.78717
487661051800,0.276062,0.17395,0.523132,0.787231
487661068153,0.275391,0.174133,0.523315,0.787354
487661090743,0.275757,0.174744,0.523438,0.786987
487661111799,0.276672,0.17572,0.523438,0.786438
487661128353,0.276733,0.17627,0.523438,0.786255
487661150758,0.275757,0.176086,0.523804,0.786438
487661171765,0.274841,0.175598,0.52417,0.786621
487661188091,0.274536,0.17511,0.524414,0.786682
487661210744,0.275269,0.174805,0.524475,0.786438
487661225072,0.276733,0.174988,0.524658,0.785767
487661248254,0.278076,0.17572,0.524963,0.784912
487661270701,0.278442,0.176453,0.525513,0.784241
487661285533,0.277588,0.177185,0.526062,0.783997
487661308248,0.277161,0.178284,0.526611,0.783569
487661330630,0.277771,0.180054,0.527222,0.782532
487661345365,0.278748,0.181885,0.527832,0.781311
487661368154,0.279846,0.183472,0.52832,0.780212
487661390601,0.281189,0.184875,0.528625,0.779236
487661405034,0.282898,0.186218,0.52832,0.778503
487661428183,0.284424,0.186951,0.527832,0.778076
487661450621,0.285889,0.187073,0.527344,0.777832
487661464980,0.28772,0.187317,0.526672,0.777588
487661488154,0.290039,0.187561,0.52594,0.777161
487661510574,0.292786,0.187988,0.525085,0.776611
487661525621,0.295532,0.188477,0.524231,0.776001
487661548204,0.296875,0.188477,0.52356,0.77594
487661570747,0.29657,0.187866,0.523315,0.776428
487661591789,0.296082,0.187317,0.523376,0.776672
487661608818,0.296875,0.187378,0.523682,0.776184
487661638161,0.298767,0.188049,0.523804,0.775208
487661651764,0.30011,0.188904,0.523743,0.774475
487661668143,0.299866,0.189026,0.524048,0.774292
487661691384,0.299072,0.189209,0.524597,0.774231
487661712359,0.299438,0.190063,0.524902,0.773682
487661728756,0.300781,0.190979,0.524963,0.772949
487661750744,0.302063,0.191223,0.525024,0.772278
487661772155,0.303345,0.191101,0.524902,0.771912
487661788392,0.303772,0.19043,0.524841,0.771973
487661810759,0.303772,0.189331,0.52478,0.772217
487661831794,0.304382,0.188538,0.52478,0.772217
487661848177,0.305847,0.188049,0.524841,0.771667
487661870663,0.307739,0.187927,0.524902,0.770935
487661891700,0.309265,0.187988,0.52478,0.770386
487661908138,0.310242,0.187988,0.524658,0.770081
487661931354,0.310425,0.187805,0.52478,0.769958
487661952389,0.310425,0.187683,0.525208,0.769714
487661968194,0.310425,0.187988,0.525757,0.769287
487661990694,0.310547,0.188477,0.526306,0.768738
487662013286,0.310608,0.188782,0.526917,0.768188
487662028148,0.310425,0.189026,0.527588,0.767761
487662050621,0.310669,0.189514,0.528076,0.767212
487662073260,0.311584,0.190491,0.528198,0.766479
487662088229,0.312683,0.191284,0.528076,0.76593
487662110741,0.31311,0.191345,0.528015,0.765808
487662133257,0.313416,0.190857,0.528015,0.765808
487662148158,0.314087,0.190247,0.527954,0.765747
487662170654,0.314697,0.189697,0.527954,0.765625
487662193239,0.315125,0.189209,0.527893,0.765564
487662207888,0.315369,0.188843,0.527893,0.765564
487662230651,0.315247,0.18866,0.527954,0.765686
487662253140,0.315002,0.188416,0.528076,0.765686
487662267522,0.314819,0.188293,0.528259,0.765686
487662290677,0.314636,0.18811,0.528442,0.765625
487662313597,0.314575,0.188049,0.528625,0.765564
487662327740,0.31427,0.187988,0.528748,0.765686
487662350668,0.313904,0.187805,0.528931,0.765686
487662373160,0.313599,0.187622,0.529236,0.765686
487662388048,0.313232,0.1875,0.52948,0.765686
487662411197,0.313232,0.187561,0.52948,0.765686
487662433387,0.31311,0.1875,0.529602,0.765625
487662447847,0.31311,0.187317,0.529907,0.765503
487662470789,0.313049,0.187256,0.53009,0.765381
487662493439,0.313049,0.187256,0.53009,0.765381
487662514834,0.313049,0.187256,0.53009,0.765381
487662530681,0.312988,0.187256,0.53009,0.765381
487662553190,0.313049,0.187256,0.530151,0.765381
487662574536,0.313049,0.187195,0.530151,0.765381
487662590704,0.312927,0.1875,0.529968,0.765503
487662613275,0.312866,0.1875,0.529968,0.765503
487662634915,0.312866,0.1875,0.529968,0.765503
487662650691,0.312866,0.1875,0.529968,0.765503
487662673230,0.312866,0.1875,0.529968,0.765503
487662694302,0.312866,0.1875,0.529968,0.765503
487662710703,0.312683,0.187439,0.529968,0.765564
487662733229,0.3125,0.187317,0.53009,0.765625
487662754375,0.312378,0.187317,0.530273,0.765503
487662770771,0.312378,0.187317,0.530273,0.765503
487662793220,0.312622,0.187439,0.530273,0.765442
487662814756,0.312622,0.187439,0.530273,0.765381
487662830736,0.312622,0.1875,0.530212,0.765442
487662853215,0.312317,0.187439,0.530273,0.765503
487662874381,0.312256,0.187378,0.530273,0.765564
487662890617,0.312256,0.187378,0.530273,0.765564
487662913146,0.312256,0.187378,0.530273,0.765564
487662935683,0.312195,0.187256,0.530457,0.765503
487662950590,0.31189,0.187012,0.530701,0.765503
487662973052,0.31189,0.187012,0.530701,0.765503
487662995779,0.312256,0.187195,0.53064,0.76532
487663010127,0.312744,0.1875,0.530579,0.765137
487663033329,0.312744,0.1875,0.530579,0.765137
487663055826,0.312744,0.1875,0.530579,0.765137
487663071170,0.312683,0.1875,0.530579,0.765137
487663093239,0.312683,0.1875,0.530579,0.765137
487663115767,0.312683,0.1875,0.530579,0.765137
487663130090,0.312622,0.1875,0.530579,0.765137
487663153371,0.312805,0.187683,0.530579,0.765076
487663175651,0.313049,0.187866,0.530579,0.764893
487663190056,0.313049,0.187866,0.530579,0.764893
487663213210,0.312988,0.187866,0.530579,0.764893
487663235652,0.313354,0.188171,0.530457,0.764771
487663256697,0.313354,0.188171,0.530457,0.764771
487663273148,0.313293,0.188171,0.530457,0.764771
487663295678,0.313416,0.188049,0.530457,0.764832
487663309993,0.313782,0.188049,0.530396,0.764709
487663333157,0.313782,0.188049,0.530396,0.764709
487663355660,0.313416,0.187927,0.530518,0.764771
487663370021,0.313354,0.188049,0.530518,0.764771
487663393223,0.313599,0.188354,0.530457,0.764648
487663415700,0.313599,0.188354,0.530457,0.764648
487663436707,0.313477,0.188171,0.530518,0.764709
487663453170,0.313232,0.187988,0.53064,0.764771
487663475653,0.313232,0.187927,0.53064,0.764771
487663498171,0.313599,0.187866,0.530701,0.764587
487663513163,0.313599,0.187866,0.530701,0.764587
487663535654,0.313232,0.187561,0.530823,0.764709
487663564225,0.313171,0.187561,0.530823,0.764771
487663573191,0.313477,0.187561,0.530701,0.764709
487663603215,0.313477,0.187195,0.530762,0.764771
487663616746,0.313049,0.186646,0.530823,0.765015
487663633227,0.312927,0.186279,0.530823,0.765137
487663655669,0.313171,0.186218,0.530762,0.765137
487663676738,0.313171,0.185974,0.530762,0.765198
487663693145,0.312805,0.185547,0.530945,0.76532
487663715669,0.312317,0.185059,0.531006,0.765625
487663744233,0.312256,0.185059,0.531006,0.765625
487663753864,0.3125,0.185181,0.530884,0.765564
487663775698,0.3125,0.185181,0.530884,0.765564
487663796711,0.312622,0.185059,0.530823,0.765564
487663813171,0.312378,0.184753,0.530884,0.765747
487663835720,0.311646,0.184387,0.53064,0.766296
487663856735,0.310181,0.183533,0.530823,0.766968
487663873170,0.308716,0.182556,0.531311,0.767456
487663895670,0.308167,0.181885,0.531738,0.767517
487663918235,0.308838,0.181946,0.531921,0.767151
487663933197,0.309631,0.18219,0.531738,0.766846
487663955670,0.309387,0.181946,0.531555,0.767151
487663978211,0.308472,0.181335,0.531677,0.767578
487663993181,0.308472,0.181335,0.531677,0.767578
487664015738,0.308716,0.18158,0.531677,0.767395
487664038176,0.308716,0.18158,0.531677,0.767395
487664052587,0.308716,0.18158,0.531677,0.767395
487664075649,0.309082,0.18158,0.531677,0.767273
487664098199,0.309509,0.181641,0.531616,0.76709
487664112559,0.309509,0.181702,0.531616,0.76709
487664135675,0.309509,0.181641,0.531616,0.76709
487664158197,0.309509,0.181641,0.531616,0.76709
487664172583,0.309875,0.181641,0.531616,0.766968
487664195667,0.31012,0.181641,0.531494,0.766968
487664218173,0.310303,0.181519,0.531311,0.767029
487664232547,0.310486,0.181274,0.53125,0.76709
487664255702,0.310669,0.181091,0.531311,0.767029
487664278283,0.310669,0.18103,0.531311,0.767029
487664292497,0.310425,0.180969,0.531311,0.767151
487664315710,0.310181,0.180542,0.531494,0.767212
487664338283,0.310852,0.180542,0.531494,0.766907
487664352536,0.311707,0.180725,0.531433,0.766602
487664375787,0.311768,0.180725,0.531372,0.766602
487664398204,0.311401,0.180725,0.531494,0.766663
487664419270,0.311401,0.180725,0.531494,0.766663
487664435712,0.311401,0.180847,0.531494,0.766663
487664458221,0.311279,0.18103,0.531433,0.766663
487664479283,0.311035,0.181274,0.531372,0.766785
487664495691,0.311218,0.181702,0.531189,0.766663
487664518177,0.311951,0.182373,0.531006,0.766418
487664539289,0.3125,0.182739,0.530945,0.766113
487664555723,0.312683,0.182678,0.531067,0.765991
487664578173,0.312744,0.182495,0.53125,0.765869
487664599240,0.312683,0.182495,0.53125,0.765869
487664615692,0.312744,0.182434,0.531311,0.765869
487664638208,0.312744,0.182434,0.531311,0.765869
487664666759,0.312744,0.182434,0.531311,0.765869
487664675665,0.312744,0.182434,0.531311,0.765869
487664705687,0.312744,0.182434,0.531311,0.765869
487664719279,0.312988,0.182434,0.53125,0.765747
487664735732,0.313232,0.182434,0.531311,0.765625
487664758250,0.313232,0.182434,0.531311,0.765625
487664779271,0.313171,0.182434,0.531311,0.765625
487664795715,0.313293,0.182678,0.531311,0.765564
487664818205,0.313538,0.182922,0.531311,0.765442
487664840697,0.313538,0.182861,0.531311,0.765381
487664855712,0.313171,0.1828,0.531372,0.765503
487664878240,0.31311,0.182861,0.531372,0.765503
487664900793,0.31311,0.182861,0.531372,0.765503
487664915701,0.313171,0.1828,0.531372,0.765503
487664938243,0.313171,0.1828,0.531372,0.765503
487664968219,0.313293,0.182983,0.531311,0.765503
487664975674,0.313416,0.183105,0.531311,0.765381
487664998195,0.313416,0.183105,0.531311,0.765381
487665020662,0.313416,0.183105,0.531311,0.765381
487665035043,0.313416,0.183044,0.531311,0.765381
487665058220,0.31366,0.183228,0.531311,0.765259
487665080685,0.314087,0.183594,0.531372,0.764954
487665095017,0.314514,0.183838,0.531555,0.764587
487665118164,0.314941,0.184204,0.531738,0.764221
487665140713,0.315674,0.18457,0.531921,0.763733
487665161757,0.316467,0.184814,0.532166,0.763123
487665178215,0.317261,0.184937,0.532471,0.762573
487665200715,0.318176,0.185059,0.532715,0.762024
487665215039,0.318726,0.184753,0.532776,0.76178
487665238221,0.318848,0.184204,0.532837,0.761841
487665260687,0.319031,0.183716,0.532898,0.76178
487665275081,0.319519,0.183655,0.532898,0.761658
487665298241,0.319824,0.183777,0.532837,0.761475
487665320771,0.32019,0.18396,0.532654,0.761414
487665341756,0.32019,0.18396,0.532654,0.761414
487665358248,0.32019,0.18396,0.532654,0.761475
487665380702,0.320374,0.184326,0.532471,0.761414
487665401769,0.320862,0.184937,0.532043,0.761353
487665418206,0.321533,0.185547,0.531677,0.76123
487665440730,0.322388,0.186157,0.53125,0.760986
487665461821,0.322754,0.186646,0.530823,0.760986
487665478242,0.32251,0.186829,0.530457,0.761292
487665500482,0.32196,0.187012,0.530273,0.761658
487665521721,0.321899,0.187073,0.530151,0.761719
487665538238,0.321899,0.187012,0.530151,0.761719
487665560704,0.32196,0.187012,0.530151,0.761719
487665581741,0.322083,0.187073,0.530151,0.761658
487665598193,0.322327,0.187073,0.530151,0.761536
487665620714,0.322571,0.186951,0.530151,0.761414
487665641747,0.322632,0.186951,0.530212,0.761414
487665658197,0.322632,0.18689,0.530212,0.761414
487665680743,0.322388,0.186951,0.530334,0.761414
487665701784,0.322388,0.186951,0.530334,0.761414
487665718237,0.322388,0.18689,0.530334,0.761414
487665740703,0.322388,0.18689,0.530334,0.761414
487665761788,0.32251,0.186707,0.530518,0.761292
487665778249,0.32251,0.186707,0.530518,0.761292
487665800700,0.322266,0.186523,0.53064,0.761353
487665823227,0.322449,0.186462,0.530701,0.76123
487665837550,0.32312,0.186768,0.530701,0.760925
487665860736,0.323547,0.187012,0.53064,0.760742
487665883227,0.323486,0.187012,0.53064,0.760742
487665898238,0.323669,0.186951,0.530579,0.760681
487665920745,0.324158,0.187012,0.530518,0.760498
487665943249,0.324524,0.187134,0.530518,0.760315
487665957591,0.324524,0.187073,0.530518,0.760315
487665980711,0.324585,0.187317,0.530518,0.760254
487666003208,0.324707,0.1875,0.530457,0.760193
487666017645,0.324768,0.187439,0.530457,0.760193
487666040771,0.324829,0.187439,0.53064,0.760071
487666063221,0.32489,0.187439,0.53064,0.76001
487666077551,0.325012,0.187256,0.530518,0.760132
487666101185,0.325195,0.186584,0.530579,0.760132
487666123231,0.325195,0.18573,0.530701,0.760254
487666137568,0.325256,0.184937,0.530945,0.760254
487666160697,0.325562,0.184631,0.531067,0.760132
487666183232,0.325867,0.184753,0.531189,0.759888
487666197575,0.325989,0.184998,0.53125,0.759705
487666220736,0.326355,0.185364,0.531372,0.759399
487666226149,0.326843,0.185852,0.531494,0.758972
487666248650,0.327576,0.186707,0.531677,0.758301
487666265133,0.32843,0.187744,0.531799,0.757629
487666286129,0.329285,0.188599,0.531799,0.757019
487666316919,0.330017,0.189148,0.531921,0.75647
487666325070,0.330994,0.189636,0.531921,0.75592
487666346104,0.332764,0.190552,0.531677,0.755066
487666368777,0.334595,0.191772,0.531311,0.754211
487666385058,0.33606,0.192871,0.531067,0.753479
487666406137,0.337036,0.193726,0.530884,0.75293
487666428613,0.337891,0.19458,0.530701,0.752502
487666445094,0.338928,0.195557,0.530518,0.751892
487666466119,0.339966,0.196716,0.530396,0.751221
487666488661,0.341187,0.198364,0.530151,0.750366
487666505102,0.342651,0.200256,0.529785,0.749451
487666526130,0.34375,0.202209,0.529419,0.748657
487666548774,0.34436,0.203979,0.529236,0.748108
487666565138,0.344421,0.205505,0.529236,0.74762
487666586132,0.344238,0.206909,0.529358,0.747192
487666608597,0.344055,0.208252,0.529663,0.746704
487666625192,0.344177,0.209717,0.529968,0.746033
487666646178,0.344482,0.211304,0.530334,0.745239
487666668669,0.344849,0.212891,0.530457,0.744507
487666685118,0.344971,0.214355,0.530518,0.743958
487666706115,0.345215,0.215515,0.530701,0.743408
487666728993,0.345459,0.216187,0.530945,0.74292
487666746510,0.346069,0.216797,0.531128,0.74231
487666766331,0.346924,0.217468,0.531128,0.741699
487666788822,0.34845,0.218445,0.531006,0.740845
487666806782,0.35022,0.219482,0.530823,0.739746
487666826452,0.352112,0.220581,0.530884,0.738525
487666849338,0.354248,0.221802,0.531006,0.737061
487666871884,0.356873,0.22345,0.531128,0.735168
487666886265,0.359863,0.225464,0.531067,0.733154
487666911892,0.362488,0.227539,0.530945,0.731323
487666931650,0.36499,0.229431,0.530701,0.729614
487666946559,0.367737,0.231323,0.530396,0.727905
487666968670,0.371277,0.233154,0.529968,0.72583
487666991173,0.374695,0.23468,0.529358,0.72406
487667006158,0.377686,0.23584,0.528625,0.722595
487667028690,0.380493,0.236572,0.528015,0.721375
487667051318,0.384338,0.237976,0.527222,0.719421
487667066592,0.390137,0.240356,0.52594,0.716431
487667088644,0.396484,0.24353,0.52417,0.713196
487667111140,0.400452,0.246033,0.522766,0.711121
487667127616,0.401367,0.247314,0.522156,0.710571
487667148675,0.401672,0.248535,0.521973,0.710144
487667171205,0.403259,0.250427,0.52179,0.70874
487667186143,0.406433,0.25293,0.521423,0.706299
487667208660,0.41095,0.255981,0.520691,0.703064
487667231181,0.41626,0.25946,0.519592,0.699463
487667246117,0.422119,0.26355,0.518127,0.695557
487667268667,0.428162,0.267517,0.516724,0.691345
487667291176,0.434143,0.271973,0.514832,0.687317
487667306180,0.440247,0.27655,0.512634,0.683228
487667328697,0.446167,0.281006,0.510559,0.679077
487667351142,0.450256,0.284241,0.50946,0.675903
487667367630,0.451355,0.285645,0.509583,0.674438
487667388684,0.449219,0.2854,0.510986,0.674927
487667411215,0.444519,0.283752,0.513306,0.676941
487667427610,0.439087,0.281067,0.516357,0.679321
487667448697,0.435364,0.278809,0.51947,0.680298
487667471171,0.434937,0.278015,0.521606,0.67926
487667487655,0.437866,0.279236,0.522339,0.67627
487667508673,0.442383,0.281799,0.522278,0.672302
487667531195,0.445618,0.28418,0.5224,0.669067
487667547586,0.446472,0.285767,0.52301,0.667358
487667568665,0.446838,0.286743,0.523865,0.666016
487667591156,0.447388,0.28717,0.524902,0.664612
487667607749,0.448059,0.287292,0.525818,0.663452
487667628653,0.448059,0.287231,0.526611,0.662842
487667646543,0.44751,0.286987,0.527283,0.66272
487667669631,0.44696,0.286926,0.527893,0.662659
487667696585,0.446472,0.286743,0.528687,0.662415
487667706601,0.445862,0.286499,0.529602,0.662231
487667729414,0.445068,0.286133,0.530457,0.662231
487667748655,0.444214,0.285706,0.531128,0.662415
487667766638,0.443237,0.284973,0.53186,0.662781
487667789161,0.4422,0.283875,0.532715,0.663269
487667809155,0.441406,0.282715,0.533447,0.663757
487667826560,0.44104,0.28186,0.533875,0.664001
487667849173,0.440796,0.281372,0.533997,0.664307
487667869454,0.440369,0.281189,0.533813,0.664734
487667886767,0.439758,0.280945,0.533752,0.665344
487667909381,0.43927,0.280701,0.533752,0.665771
487667929319,0.43927,0.280701,0.533752,0.665771
487667946757,0.439453,0.280884,0.533447,0.665833
487667976587,0.440002,0.281189,0.532959,0.66571
487667988702,0.440552,0.281494,0.532471,0.665588
487668006617,0.440918,0.281616,0.532166,0.665527
487668029136,0.440979,0.281616,0.532166,0.665466
487668048721,0.441101,0.281738,0.531982,0.665527
487668066599,0.441284,0.281982,0.531738,0.665527
487668089286,0.441345,0.281982,0.531677,0.665466
487668109311,0.441162,0.28186,0.531738,0.665649
487668126906,0.440918,0.281616,0.531799,0.665894
487668149548,0.440918,0.281616,0.531799,0.665894
487668168741,0.440918,0.281616,0.531799,0.665894
487668186907,0.440918,0.281616,0.531799,0.665894
487668209156,0.441101,0.281738,0.531738,0.66571
487668229136,0.441406,0.282166,0.531494,0.665527
487668246774,0.441956,0.282776,0.531067,0.665222
487668269127,0.442444,0.28363,0.530579,0.664917
487668290474,0.442932,0.284485,0.530151,0.664612
487668306524,0.443359,0.285095,0.529846,0.664307
487668329333,0.443604,0.285278,0.529724,0.664185
487668350135,0.443604,0.285278,0.529724,0.664185
487668366977,0.443359,0.285217,0.529724,0.664368
487668389181,0.443054,0.285034,0.529724,0.664612
487668410262,0.442871,0.28479,0.529724,0.664856
487668426949,0.442505,0.284424,0.529846,0.665161
487668449099,0.442139,0.283875,0.53009,0.665466
487668470148,0.441711,0.283325,0.530396,0.66571
487668486651,0.441223,0.282837,0.530762,0.665955
487668509278,0.440735,0.28241,0.531189,0.666138
487668530155,0.440369,0.282043,0.531555,0.66626
487668546609,0.440186,0.281738,0.53186,0.66626
487668569149,0.440002,0.281372,0.532227,0.66626
487668590147,0.439941,0.280945,0.532654,0.666077
487668606595,0.43988,0.280579,0.533142,0.665894
487668629172,0.43988,0.280273,0.53363,0.665649
487668651608,0.439819,0.28009,0.534058,0.665405
487668667258,0.439758,0.280029,0.534424,0.665222
487668689137,0.439636,0.280029,0.534729,0.665039
487668710799,0.439392,0.280029,0.534973,0.664978
487668731840,0.439148,0.28009,0.535339,0.664795
487668748969,0.438843,0.280212,0.535645,0.664673
487668771212,0.438538,0.280334,0.53595,0.664612
487668792374,0.438354,0.280701,0.53595,0.664612
487668808898,0.438416,0.281128,0.535828,0.66449
487668830841,0.437988,0.281372,0.535889,0.664612
487668851909,0.437317,0.281433,0.536072,0.664917
487668868603,0.436401,0.28125,0.536438,0.665283
487668891391,0.435547,0.280884,0.536865,0.665588
487668905158,0.434387,0.280273,0.537415,0.666199
487668928252,0.433167,0.279358,0.538086,0.666809
487668950894,0.431824,0.278198,0.53894,0.667542
487668965317,0.430603,0.277039,0.539673,0.668213
487668988307,0.430054,0.276123,0.5401,0.668579
487669010894,0.430054,0.275635,0.540222,0.668701
487669025277,0.430298,0.275391,0.540161,0.668701
487669048321,0.430847,0.27533,0.539978,0.668518
487669070810,0.431458,0.275391,0.539856,0.668152
487669085653,0.432068,0.275574,0.539856,0.667664
487669108875,0.432495,0.275757,0.539917,0.667297
487669131037,0.432678,0.275757,0.5401,0.667053
487669152175,0.432495,0.275635,0.540344,0.666992
487669168834,0.432068,0.275391,0.540588,0.667175
487669191280,0.431641,0.275085,0.540833,0.667419
487669211874,0.431152,0.27478,0.540955,0.667725
487669228329,0.430664,0.274414,0.541077,0.668091
487669256961,0.430237,0.273987,0.541321,0.668396
487669271925,0.429749,0.273438,0.541626,0.66864
487669288327,0.429382,0.27301,0.541992,0.668762
487669318348,0.428955,0.272766,0.542297,0.668884
487669331977,0.428467,0.272827,0.542786,0.668823
487669348340,0.427856,0.27301,0.543518,0.668457
487669378349,0.427551,0.272888,0.544434,0.667969
487669391904,0.427612,0.272827,0.545288,0.667297
487669408287,0.427979,0.272644,0.545959,0.666565
487669430812,0.428589,0.2724,0.546387,0.665894
487669451945,0.428772,0.271606,0.546997,0.665649
487669468321,0.428345,0.270386,0.547729,0.665771
487669490918,0.427551,0.26886,0.548767,0.666077
487669511934,0.426697,0.267212,0.549927,0.666321
487669528383,0.425964,0.265625,0.551086,0.666443
487669550803,0.425476,0.264343,0.552002,0.666565
487669573347,0.425232,0.263489,0.55249,0.666626
487669588474,0.424866,0.262817,0.552917,0.666809
487669611052,0.424316,0.262268,0.553345,0.666931
487669633299,0.423767,0.261719,0.554016,0.666992
487669648312,0.42334,0.261414,0.554626,0.66687
487669670918,0.423035,0.261353,0.555054,0.666687
487669693340,0.422729,0.26123,0.555481,0.666626
487669708342,0.422302,0.26123,0.555908,0.666504
487669730991,0.421936,0.261108,0.556519,0.666321
487669753316,0.421692,0.261169,0.557007,0.666016
487669767621,0.421631,0.261414,0.557251,0.665771
487669790781,0.421692,0.261536,0.557495,0.665466
487669813303,0.42157,0.261475,0.5578,0.665344
487669827672,0.421143,0.261108,0.558289,0.665344
487669850887,0.420715,0.26062,0.558777,0.665405
487669873510,0.420166,0.260254,0.559021,0.665649
487669888367,0.419556,0.260071,0.559021,0.666138
487669918346,0.418945,0.259888,0.558899,0.666687
487669933513,0.418091,0.259583,0.558899,0.667358
487669947757,0.417419,0.259216,0.559021,0.667786
487669971565,0.417114,0.259033,0.559021,0.66803
487669993334,0.416931,0.258728,0.559143,0.668152
487670008189,0.416748,0.258362,0.559326,0.668274
487670030880,0.416504,0.257812,0.559692,0.668396
487670060820,0.416199,0.257324,0.560059,0.668396
487670074391,0.416138,0.25708,0.560425,0.668274
487670090833,0.416382,0.25708,0.560547,0.66803
487670113368,0.41687,0.257202,0.560303,0.667847
487670134406,0.41748,0.257507,0.559937,0.667664
487670150944,0.417542,0.257629,0.559692,0.667786
487670173336,0.41748,0.257629,0.559692,0.667786
487670194438,0.417175,0.25769,0.559875,0.667847
487670210889,0.417236,0.257996,0.559937,0.667603
487670233404,0.417542,0.258606,0.559875,0.667175
487670254453,0.417847,0.259277,0.559814,0.66687
487670270819,0.41803,0.259949,0.559631,0.666626
487670293325,0.418274,0.260559,0.559265,0.666504
487670322001,0.418457,0.261108,0.558899,0.666504
487670330911,0.418152,0.261475,0.558777,0.666687
487670353397,0.41748,0.261353,0.558777,0.667114
487670374409,0.416687,0.261047,0.55896,0.667603
487670390921,0.415955,0.260376,0.559265,0.668091
487670413350,0.415222,0.259521,0.55957,0.668579
487670434448,0.414734,0.258484,0.559875,0.669006
487670450898,0.414307,0.257446,0.560242,0.669373
487670473347,0.41394,0.256531,0.560486,0.669739
487670494435,0.413635,0.255981,0.560608,0.670044
487670518384,0.413452,0.255798,0.560608,0.670288
487670533402,0.41333,0.25592,0.560486,0.670349
487670561914,0.413513,0.256348,0.560242,0.670288
487670570901,0.413696,0.256836,0.559998,0.670166
487670600889,0.41394,0.257141,0.559937,0.669983
487670615882,0.414246,0.257263,0.559937,0.669739
487670630175,0.414612,0.257263,0.560059,0.669434
487670653349,0.4151,0.257263,0.560181,0.669006
487670675903,0.415527,0.257385,0.560303,0.66864
487670690157,0.415771,0.257324,0.560547,0.668274
487670713315,0.415771,0.257324,0.560791,0.66803
487670735930,0.415955,0.257507,0.560913,0.667786
487670750209,0.416077,0.257812,0.560974,0.667542
487670773308,0.416199,0.25824,0.560913,0.667358
487670801883,0.416321,0.258667,0.56073,0.667236
487670810202,0.416443,0.259033,0.560608,0.667114
487670833426,0.416626,0.259277,0.560547,0.666931
487670855921,0.416748,0.25946,0.560608,0.666809
487670884406,0.41687,0.259521,0.56073,0.666626
487670893360,0.41687,0.259277,0.560913,0.666565
487670916349,0.41687,0.258972,0.561035,0.666565
487670930173,0.416748,0.258667,0.561218,0.666565
487670960927,0.416748,0.258423,0.56134,0.666565
487670975904,0.416748,0.258423,0.56134,0.666565
487670990231,0.416626,0.258179,0.561462,0.666626
487671013329,0.416443,0.258057,0.561523,0.666748
487671035878,0.416443,0.258057,0.561523,0.666748
487671056921,0.416443,0.258057,0.561523,0.666748
487671073385,0.416443,0.258057,0.561523,0.666748
487671095882,0.416504,0.258057,0.561523,0.666687
487671116910,0.416321,0.257874,0.56189,0.666565
487671133375,0.415955,0.25769,0.562317,0.666504
487671155877,0.415283,0.257568,0.562622,0.666687
487671176923,0.414612,0.25769,0.562805,0.666931
487671193358,0.414246,0.257874,0.562866,0.667053
487671215873,0.414001,0.257874,0.56311,0.666992
487671244414,0.41394,0.257751,0.563354,0.66687
487671253297,0.41394,0.257812,0.563538,0.666687
487671275889,0.414124,0.25824,0.563599,0.666382
487671296627,0.414612,0.258911,0.563599,0.665833
487671313358,0.416077,0.260132,0.563477,0.664551
487671335884,0.418701,0.261719,0.563721,0.662048
487671356930,0.42157,0.263672,0.564453,0.658813
487671372747,0.424561,0.266602,0.564941,0.655273
487671403485,0.428467,0.270569,0.564636,0.651367
487671417336,0.433533,0.276001,0.563416,0.64679
487671432686,0.43927,0.282959,0.561401,0.641663
487671455881,0.444946,0.289795,0.559753,0.636047
487671478319,0.449585,0.296326,0.558594,0.630737
487671499434,0.452698,0.30188,0.558105,0.626343
487671515889,0.453735,0.305725,0.558777,0.623108
487671538360,0.452393,0.308105,0.560608,0.621338
487671552685,0.448914,0.308899,0.564148,0.620239
487671575895,0.444519,0.309204,0.568665,0.619141
487671605875,0.440918,0.309998,0.574219,0.616211
487671619392,0.438904,0.312744,0.579956,0.61084
487671635888,0.438477,0.318176,0.585144,0.603271
487671658348,0.438293,0.324341,0.590027,0.595398
487671679385,0.437378,0.328979,0.595215,0.588318
487671695903,0.435974,0.330994,0.601013,0.582275
487671718409,0.435425,0.331482,0.606445,0.576721
487671739457,0.436462,0.331177,0.611145,0.571167
487671755890,0.439148,0.33075,0.615051,0.565125
487671778337,0.442688,0.330688,0.618042,0.559082
487671799466,0.445312,0.330627,0.620667,0.554077
487671815873,0.446289,0.330078,0.623474,0.550476
487671838345,0.445801,0.329285,0.626343,0.548035
487671859389,0.445068,0.329285,0.628601,0.546143
487671875870,0.445068,0.33075,0.629944,0.54364
487671898113,0.445679,0.332336,0.630676,0.541382
487671926916,0.446594,0.334045,0.63092,0.539307
487671935888,0.447632,0.336487,0.630493,0.537354
487671958359,0.448059,0.338623,0.630066,0.536133
487671986902,0.447632,0.339844,0.630066,0.535767
487671995852,0.446655,0.340088,0.630676,0.535706
487672018327,0.445557,0.339539,0.631836,0.535645
487672039527,0.444763,0.339111,0.63269,0.535522
487672055913,0.444336,0.338989,0.633057,0.535522
487672078377,0.444214,0.339172,0.633118,0.5354
487672099408,0.443848,0.339417,0.633484,0.535156
487672115877,0.443115,0.339478,0.634399,0.534668
487672138354,0.442139,0.339233,0.635925,0.533752
487672159408,0.441467,0.339355,0.637634,0.532227
487672183368,0.441467,0.340515,0.638794,0.53009
487672198389,0.441772,0.342529,0.639404,0.527771
487672219461,0.44165,0.344604,0.640076,0.525696
487672235880,0.441162,0.346191,0.641052,0.523865
487672265860,0.440552,0.347595,0.642029,0.522278
487672279418,0.440063,0.349304,0.6427,0.520752
487672295891,0.439636,0.351074,0.643188,0.519287
487672318318,0.439209,0.352722,0.643616,0.517944
487672346885,0.439026,0.354797,0.643738,0.516541
487672355937,0.438965,0.357056,0.643677,0.515137
487672378388,0.438904,0.358948,0.643616,0.513977
487672399486,0.438904,0.360107,0.643433,0.513367
487672415870,0.439453,0.361267,0.642883,0.512756
487672438350,0.440063,0.362488,0.642151,0.512329
487672460933,0.440247,0.363159,0.641663,0.512329
487672475911,0.440186,0.363159,0.641663,0.512329
487672498337,0.439575,0.362915,0.642029,0.512573
487672520930,0.438904,0.362427,0.642639,0.512756
487672541956,0.438477,0.362122,0.643188,0.512573
487672558352,0.438599,0.362244,0.643372,0.512207
487672580938,0.438904,0.36261,0.643494,0.511536
487672595230,0.438782,0.362549,0.644043,0.510986
487672618369,0.438049,0.361816,0.645142,0.510742
487672640875,0.437134,0.361145,0.646301,0.510559
487672655182,0.43689,0.360962,0.646912,0.510132
487672678425,0.437195,0.361023,0.6474,0.509155
487672700921,0.4375,0.360657,0.648254,0.508118
487672715253,0.437988,0.360107,0.649353,0.506653
487672738400,0.438904,0.359863,0.650635,0.504395
487672760915,0.439819,0.359863,0.651978,0.501831
487672782002,0.440125,0.35968,0.653442,0.499817
487672798449,0.439392,0.358948,0.655273,0.498596
487672820950,0.438416,0.358032,0.657166,0.49762
487672835312,0.437561,0.356934,0.659119,0.496521
487672858436,0.436218,0.355225,0.661377,0.496033
487672888459,0.433655,0.352539,0.66394,0.496704
487672902043,0.430786,0.349731,0.666382,0.497986
487672918451,0.428101,0.34729,0.668335,0.499329
487672940871,0.425171,0.345032,0.670288,0.500793
487672961922,0.421692,0.342712,0.672424,0.502441
487672978418,0.417236,0.340393,0.674927,0.504333
487673000891,0.412048,0.338318,0.677673,0.506409
487673021969,0.405884,0.336243,0.680542,0.508911
487673038360,0.399292,0.334412,0.683228,0.511719
487673060962,0.393005,0.333557,0.685364,0.514282
487673081941,0.386902,0.333557,0.686951,0.516724
487673098374,0.380371,0.332764,0.688843,0.519592
487673120933,0.37262,0.330811,0.69104,0.523499
487673141995,0.363403,0.328003,0.693298,0.528687
487673157777,0.352356,0.323975,0.696228,0.53479
487673187050,0.340454,0.319336,0.699585,0.540894
487673201992,0.328552,0.31488,0.703003,0.546448
487673224517,0.316284,0.310852,0.70636,0.551575
487673240969,0.303284,0.307434,0.709839,0.556396
487673269463,0.2901,0.305298,0.713379,0.559998
487673277717,0.278076,0.304993,0.716675,0.562012
487673300912,0.266418,0.306213,0.719604,0.563293
487673322016,0.25415,0.306274,0.722839,0.564758
487673337750,0.239746,0.30304,0.727966,0.566284
487673360933,0.225586,0.300659,0.733215,0.566528
487673383418,0.214172,0.302063,0.737122,0.565186
487673397776,0.20636,0.306702,0.739319,0.562744
487673428391,0.19928,0.312256,0.740784,0.560303
487673443475,0.189209,0.314758,0.743591,0.558655
487673457827,0.176208,0.313477,0.747742,0.558105
487673480923,0.163147,0.310669,0.752014,0.557861
487673503420,0.151672,0.308838,0.755615,0.557251
487673524462,0.142334,0.309265,0.757874,0.556458
487673540923,0.133423,0.309814,0.759827,0.555664
487673563432,0.123108,0.308105,0.762573,0.555237
487673584521,0.112732,0.305115,0.765381,0.555237
487673600875,0.104614,0.30249,0.767334,0.555603
487673623377,0.0985718,0.300781,0.768433,0.55603
487673644506,0.0925293,0.298706,0.76947,0.556824
487673660876,0.0852661,0.295593,0.770813,0.557739
487673683411,0.0783691,0.291931,0.772217,0.558716
487673704545,0.0733643,0.289185,0.773193,0.559509
487673720905,0.0708008,0.288818,0.773071,0.560181
487673743421,0.0693359,0.290222,0.772278,0.56073
487673764513,0.0673218,0.290588,0.77179,0.561523
487673780924,0.0657959,0.289978,0.771545,0.562317
487673803393,0.0651245,0.288879,0.771729,0.562744
487673817725,0.0646973,0.287781,0.772095,0.562866
487673840917,0.064209,0.286865,0.772278,0.563049
487673863437,0.064209,0.286255,0.772339,0.563293
487673885183,0.0643921,0.286255,0.772339,0.563293
487673886809,0.0637817,0.286255,0.7724,0.563293
487673906278,0.0628662,0.286438,0.772339,0.563416
487673928817,0.0626831,0.287476,0.772034,0.563232
487673946700,0.062561,0.28833,0.772095,0.562744
487673966292,0.0614014,0.287964,0.772522,0.562439
487673988797,0.0601807,0.287537,0.772949,0.562256
487674006724,0.0598145,0.287354,0.77301,0.562256
487674026300,0.0601807,0.287537,0.772766,0.5625
487674048799,0.0599365,0.287048,0.772705,0.562866
487674066696,0.0587158,0.285156,0.773132,0.563354
487674093833,0.0581665,0.283997,0.773254,0.563843
487674111702,0.0591431,0.284363,0.772827,0.564148
487674126743,0.0600586,0.285034,0.772339,0.564453
487674146374,0.0599976,0.284729,0.772278,0.564636
487674168853,0.0597534,0.284058,0.772522,0.564636
487674186704,0.0604858,0.283752,0.772827,0.564392
487674206281,0.0618286,0.283508,0.77301,0.564026
487674228849,0.0626221,0.282837,0.773376,0.563843
487674246739,0.0629272,0.282288,0.773682,0.56366
487674273838,0.0631104,0.281494,0.774109,0.563416
487674296302,0.0623169,0.279297,0.775208,0.563049
487674306778,0.0610962,0.2771,0.776245,0.562927
487674326312,0.0621948,0.277527,0.776306,0.5625
487674348815,0.0651855,0.28009,0.775696,0.561707
487674371280,0.067627,0.282532,0.774963,0.561157
487674386367,0.0683594,0.283081,0.774841,0.560974
487674408831,0.067749,0.281982,0.775208,0.561096
487674431356,0.0674438,0.280945,0.775513,0.561218
487674446291,0.0686646,0.281128,0.775452,0.561035
487674468796,0.0704346,0.281494,0.775269,0.560913
487674486690,0.0709839,0.281189,0.775085,0.561218
487674506329,0.0706177,0.280396,0.775024,0.561829
487674528849,0.0704346,0.279114,0.775208,0.562195
487674546833,0.0700684,0.27655,0.77594,0.5625
487674566295,0.0692139,0.273132,0.776855,0.562988
487674588821,0.0682983,0.270752,0.777222,0.563782
487674606742,0.0675659,0.269897,0.776917,0.564697
487674626331,0.0671387,0.26947,0.776611,0.565369
487674648894,0.0668945,0.269165,0.776489,0.565674
487674666776,0.0669556,0.269592,0.776062,0.566101
487674686360,0.0670776,0.270142,0.775391,0.566711
487674708809,0.0667725,0.27002,0.775024,0.567383
487674731304,0.0663452,0.26947,0.774902,0.56781
487674753807,0.06604,0.268677,0.775024,0.568054
487674768820,0.065918,0.268188,0.775024,0.568237
487674786720,0.0661621,0.268127,0.774902,0.568481
487674806359,0.0669556,0.268921,0.774475,0.568542
487674828867,0.0680542,0.269714,0.77417,0.568481
487674846750,0.0688477,0.270203,0.773987,0.568481
487674866350,0.0697632,0.270691,0.773682,0.568542
487674888781,0.0708618,0.270935,0.773438,0.568542
487674906747,0.0714722,0.270325,0.77356,0.568604
487674927730,0.0716553,0.269348,0.773682,0.568909
487674956316,0.0723267,0.269165,0.773438,0.569214
487674966770,0.0735474,0.269348,0.773132,0.569397
487674987791,0.0750122,0.268738,0.773071,0.56958
487675008880,0.0759888,0.267029,0.773254,0.570007
487675034266,0.0770264,0.265381,0.773254,0.570618
487675047796,0.0790405,0.265076,0.772949,0.570862
487675068795,0.0823975,0.265564,0.772705,0.570496
487675087378,0.0859375,0.265686,0.772827,0.569824
487675107728,0.0889893,0.265137,0.773193,0.569092
487675128941,0.0922241,0.264709,0.773621,0.568176
487675151301,0.0960693,0.264465,0.774109,0.567017
487675175252,0.100342,0.26416,0.774597,0.565735
487675188849,0.104309,0.263489,0.774963,0.564819
487675212812,0.108582,0.262878,0.775208,0.563965
487675227795,0.113403,0.263123,0.775208,0.562866
487675248940,0.118713,0.264221,0.775085,0.561462
487675271314,0.124756,0.266052,0.774475,0.560059
487675289332,0.131165,0.268311,0.773682,0.558716
487675308797,0.138,0.27124,0.772461,0.557312
487675331375,0.145447,0.27533,0.770874,0.555542
487675349270,0.153015,0.279358,0.769409,0.553589
487675368920,0.160583,0.282715,0.768005,0.551636
487675391343,0.168762,0.286011,0.766541,0.549561
487675409249,0.176941,0.287781,0.765991,0.546814
487675428776,0.184021,0.287109,0.766541,0.544067
487675451277,0.190796,0.286438,0.766846,0.541626
487675469328,0.19873,0.287964,0.765991,0.539185
487675488900,0.208069,0.291687,0.764282,0.536072
487675514258,0.217285,0.295044,0.763123,0.532227
487675529228,0.225403,0.296936,0.762573,0.528564
487675548928,0.232971,0.298462,0.761902,0.525391
487675571346,0.241272,0.300476,0.760803,0.522034
487675589271,0.249268,0.302002,0.760071,0.518555
487675608876,0.256287,0.302368,0.759644,0.515503
487675631385,0.262695,0.303223,0.758911,0.512878
487675649253,0.269958,0.305908,0.756958,0.510315
487675668772,0.277466,0.309326,0.7547,0.507629
487675691382,0.283508,0.311523,0.752991,0.505432
487675709247,0.289246,0.313782,0.751038,0.503723
487675728942,0.296204,0.317261,0.74823,0.501709
487675751353,0.303101,0.319824,0.74585,0.499451
487675769264,0.308289,0.319824,0.74469,0.497986
487675788827,0.312561,0.318848,0.743652,0.497498
487675811392,0.317444,0.319397,0.741638,0.49707
487675829328,0.322937,0.321106,0.738953,0.49646
487675850299,0.326843,0.320984,0.737671,0.495911
487675871385,0.329224,0.319702,0.737366,0.495544
487675889254,0.332031,0.320496,0.73645,0.494507
487675910256,0.336304,0.324463,0.734253,0.492371
487675938958,0.341431,0.331116,0.730774,0.489563
487675949284,0.346008,0.338684,0.726746,0.487122
487675970371,0.349182,0.34552,0.72345,0.484985
487675991353,0.350708,0.349243,0.722046,0.483276
487676009260,0.351135,0.349976,0.722351,0.481995
487676030283,0.352478,0.350098,0.7229,0.480164
487676051285,0.355713,0.351196,0.722351,0.477783
487676069212,0.359802,0.352661,0.721313,0.475159
487676090308,0.362854,0.353088,0.721069,0.4729
487676111375,0.364502,0.352173,0.721985,0.470886
487676136713,0.365234,0.35083,0.723572,0.468811
487676150354,0.366516,0.350647,0.724854,0.466064
487676171401,0.369202,0.352173,0.724915,0.462646
487676189301,0.372803,0.355103,0.723694,0.459412
487676211806,0.376038,0.359253,0.721436,0.457153
487676231324,0.377258,0.363647,0.719177,0.456238
487676249273,0.376038,0.366638,0.717773,0.45697
487676271797,0.373169,0.367798,0.717468,0.458862
487676291375,0.370972,0.368958,0.716736,0.460876
487676309261,0.370178,0.370667,0.715271,0.462463
487676331717,0.369751,0.371765,0.713867,0.463989
487676351313,0.368958,0.371704,0.713135,0.465881
487676368489,0.368286,0.37085,0.712585,0.467896
487676390942,0.367737,0.369751,0.712097,0.470032
487676412007,0.366577,0.368286,0.712036,0.472107
487676428432,0.36499,0.366638,0.712402,0.47406
487676450998,0.364258,0.36615,0.712402,0.474976
487676471971,0.364929,0.367004,0.711731,0.474854
487676488462,0.365784,0.36792,0.711304,0.474121
487676510968,0.366089,0.36853,0.711243,0.473511
487676532062,0.366333,0.369141,0.711121,0.472961
487676548495,0.36731,0.370178,0.710632,0.472168
487676570978,0.368713,0.371643,0.709961,0.470947
487676592064,0.370544,0.373962,0.708984,0.469177
487676608474,0.371277,0.376221,0.708252,0.467834
487676630972,0.372009,0.378113,0.707275,0.467224
487676652083,0.37384,0.380005,0.705688,0.466614
487676668495,0.375549,0.380981,0.704529,0.466187
487676691008,0.37561,0.38031,0.704468,0.466736
487676712010,0.374939,0.378967,0.705017,0.467651
487676728443,0.374817,0.378479,0.705139,0.467896
487676750953,0.375793,0.37915,0.70459,0.467346
487676772000,0.376648,0.3797,0.704163,0.466858
487676788441,0.37677,0.379517,0.704285,0.466797
487676811075,0.376282,0.378906,0.704712,0.46698
487676834206,0.375977,0.378723,0.7052,0.466736
487676856048,0.376099,0.379028,0.705444,0.465881
487676871022,0.376282,0.379639,0.70575,0.464844
487676892112,0.376038,0.379944,0.706299,0.463989
487676908480,0.374939,0.379578,0.707092,0.463928
487676930973,0.373535,0.378723,0.708008,0.464355
487676951999,0.372864,0.378235,0.708435,0.464722
487676968463,0.372925,0.378174,0.708313,0.464783
487676990942,0.373169,0.378296,0.70813,0.464844
487677012154,0.37384,0.37854,0.707642,0.464905
487677028530,0.374573,0.378784,0.707092,0.464844
487677051001,0.375183,0.37915,0.706726,0.464661
487677071975,0.375305,0.379395,0.706543,0.4646
487677088449,0.375122,0.379639,0.706482,0.464661
487677110974,0.375122,0.379639,0.706482,0.464661
487677133892,0.374939,0.3797,0.706482,0.464783
487677148480,0.374817,0.379761,0.706421,0.464905
487677170961,0.374573,0.3797,0.706421,0.465149
487677193524,0.374146,0.379639,0.706421,0.465576
487677208579,0.373901,0.3797,0.706299,0.465881
487677231026,0.373962,0.380066,0.705994,0.466003
487677253544,0.374207,0.380249,0.705688,0.466125
487677268516,0.374634,0.380127,0.705444,0.466309
487677290937,0.374756,0.379761,0.705261,0.466675
487677313582,0.374329,0.37915,0.705505,0.467163
487677327876,0.373535,0.378357,0.706055,0.46759
487677350970,0.372803,0.377991,0.706543,0.467773
487677373559,0.372375,0.378235,0.706726,0.467651
487677387867,0.372375,0.378845,0.706482,0.467529
487677411024,0.372681,0.379211,0.706116,0.467529
487677433516,0.373291,0.379028,0.705872,0.467529
487677447841,0.373901,0.379028,0.705566,0.467529
487677471026,0.374512,0.379333,0.705139,0.467468
487677493556,0.374939,0.379761,0.704712,0.467407
487677507835,0.375488,0.380188,0.704224,0.467346
487677531017,0.375977,0.380676,0.703796,0.467163
487677553466,0.376343,0.381042,0.70343,0.467102
487677567849,0.376343,0.381287,0.703308,0.467163
487677591058,0.37616,0.381409,0.703125,0.467529
487677619530,0.376099,0.381531,0.702759,0.467957
487677634536,0.376343,0.381775,0.702148,0.468445
487677651053,0.376709,0.381897,0.701599,0.468872
487677673515,0.376831,0.381836,0.701294,0.469299
487677694516,0.377014,0.381836,0.70105,0.469543
487677710949,0.37738,0.382263,0.700623,0.469543
487677733465,0.377869,0.382751,0.700195,0.469421
487677754617,0.378357,0.38324,0.699768,0.469177
487677778557,0.378723,0.383606,0.699463,0.469116
487677793604,0.378784,0.38385,0.69928,0.469116
487677814561,0.378906,0.384094,0.699097,0.469055
487677831036,0.379333,0.384583,0.698853,0.46875
487677853487,0.379639,0.384949,0.698608,0.468567
487677874635,0.379761,0.385254,0.698242,0.468689
487677891031,0.380005,0.385803,0.697571,0.469055
487677913553,0.380493,0.386536,0.696533,0.469604
487677934598,0.381348,0.387451,0.695129,0.470215
487677951043,0.382568,0.388489,0.693542,0.470764
487677973475,0.384094,0.389465,0.691528,0.471619
487677994595,0.385681,0.390381,0.689331,0.472839
487678010278,0.386597,0.389648,0.687805,0.474915
487678033534,0.386963,0.386414,0.687012,0.478394
487678054550,0.386597,0.379944,0.687134,0.483704
487678070332,0.385559,0.371521,0.687622,0.490295
487678093480,0.383179,0.36145,0.689087,0.497559
487678115991,0.377808,0.349182,0.692993,0.505005
487678130370,0.370117,0.335876,0.698425,0.512146
487678153491,0.361938,0.323364,0.704102,0.51825
487678175950,0.355469,0.314209,0.708557,0.522278
487678190354,0.351746,0.310181,0.710938,0.523926
487678213575,0.349915,0.309937,0.712158,0.523621
487678235734,0.347412,0.309143,0.714233,0.522888
487678257034,0.34314,0.306335,0.717957,0.522339
487678273464,0.337952,0.30249,0.722656,0.521545
487678296070,0.332642,0.29895,0.727539,0.520142
487678317119,0.327148,0.295837,0.7323,0.518738
487678333598,0.321594,0.292847,0.736938,0.517334
487678355973,0.315979,0.289734,0.74176,0.515625
487678377111,0.311035,0.287231,0.746582,0.513062
487678393550,0.306702,0.284668,0.751526,0.509949
487678416091,0.302368,0.282227,0.756287,0.506775
487678437047,0.298828,0.28125,0.760315,0.503357
487678453471,0.295349,0.281067,0.764282,0.499512
487678476001,0.29071,0.279968,0.769043,0.495544
487678497047,0.285034,0.277832,0.774353,0.49176
487678513490,0.279907,0.276672,0.77887,0.48822
487678536029,0.276611,0.278076,0.782104,0.484192
487678557066,0.274719,0.281311,0.784485,0.479492
487678573501,0.272034,0.284668,0.786926,0.474976
487678595963,0.268372,0.287354,0.789734,0.470825
487678617039,0.264587,0.289734,0.79248,0.466797
487678633562,0.261292,0.292725,0.794922,0.462585
487678655965,0.258423,0.296326,0.796997,0.458313
487678684659,0.255676,0.299072,0.799194,0.454224
487678693555,0.252869,0.30072,0.801697,0.450317
487678715992,0.250549,0.302429,0.803955,0.446472
487678737123,0.248901,0.304993,0.805542,0.442688
487678753531,0.247742,0.307922,0.806702,0.43927
487678776045,0.246521,0.310425,0.807739,0.436218
487678797090,0.245239,0.312012,0.808899,0.433655
487678813484,0.244202,0.313293,0.809937,0.431335
487678836075,0.243774,0.314758,0.810608,0.42926
487678857076,0.244141,0.317749,0.810364,0.427368
487678872949,0.245667,0.322754,0.808899,0.425537
487678896039,0.247559,0.328186,0.806946,0.424011
487678924691,0.248596,0.330933,0.805786,0.423401
487678932922,0.248657,0.331177,0.805542,0.423706
487678956076,0.248535,0.330688,0.80542,0.424316
487678977041,0.248657,0.330627,0.805054,0.425049
487678993546,0.248474,0.329956,0.80481,0.426147
487679015986,0.247864,0.328308,0.804993,0.427368
487679038530,0.247437,0.326904,0.805237,0.428223
487679053505,0.247498,0.326416,0.805298,0.428467
487679076019,0.247437,0.32666,0.805115,0.42865
487679098552,0.247253,0.327576,0.804626,0.429016
487679113482,0.246765,0.32843,0.804199,0.429382
487679136100,0.24585,0.329041,0.804016,0.429749
487679158497,0.244507,0.329468,0.804138,0.429993
487679173525,0.243103,0.329712,0.804382,0.430176
487679196059,0.242249,0.330383,0.804321,0.430237
487679218490,0.242004,0.331909,0.803955,0.429993
487679232937,0.241638,0.333679,0.803467,0.429626
487679256017,0.240662,0.334412,0.803528,0.429565
487679278572,0.239441,0.334045,0.803955,0.429688
487679292928,0.238586,0.333679,0.80426,0.429871
487679316033,0.238464,0.33429,0.804016,0.429871
487679338548,0.23877,0.33551,0.803528,0.429749
487679352901,0.238831,0.335754,0.803345,0.42981
487679376022,0.238586,0.334778,0.803772,0.429932
487679398580,0.238892,0.333679,0.804199,0.42981
487679412937,0.240112,0.333252,0.804199,0.429443
487679436528,0.241699,0.333496,0.803772,0.429199
487679458572,0.243103,0.334167,0.802979,0.429321
487679472924,0.243835,0.33429,0.80249,0.429749
487679496035,0.243896,0.33374,0.802368,0.430359
487679518609,0.243774,0.33313,0.802307,0.431091
487679539749,0.244019,0.332458,0.802246,0.43158
487679556055,0.244202,0.331543,0.802368,0.431885
487679578503,0.24408,0.330383,0.802795,0.432068
487679599552,0.244202,0.32959,0.803162,0.431946
487679615992,0.244446,0.328979,0.803589,0.431458
487679638627,0.244507,0.328308,0.804138,0.430908
487679659575,0.244202,0.32782,0.804688,0.430359
487679675998,0.243896,0.327454,0.805237,0.429749
487679698526,0.243835,0.327026,0.805786,0.42926
487679719571,0.243652,0.326599,0.806152,0.428955
487679736093,0.243469,0.32666,0.806274,0.428833
487679758478,0.243042,0.326599,0.806335,0.428955
487679779584,0.242371,0.325989,0.806641,0.42926
487679796021,0.241882,0.325378,0.806824,0.429565
487679818586,0.24176,0.324829,0.806946,0.429871
487679839643,0.241821,0.324158,0.806946,0.430359
487679856021,0.241943,0.323608,0.806885,0.430786
487679878596,0.242371,0.323242,0.806702,0.431213
487679899591,0.243042,0.322998,0.806458,0.431396
487679916043,0.243469,0.322754,0.806335,0.431519
487679938579,0.243774,0.322754,0.806152,0.431763
487679959634,0.244263,0.323547,0.805603,0.431946
487679976081,0.245178,0.324646,0.80481,0.432007
487679998624,0.246155,0.325256,0.804199,0.432129
487680028604,0.246887,0.325562,0.80365,0.432556
487680036052,0.247803,0.326355,0.802734,0.433105
487680058604,0.248901,0.327026,0.801819,0.433655
487680081087,0.249756,0.327087,0.801025,0.43457
487680096170,0.250549,0.32666,0.800354,0.43573
487680118551,0.251282,0.326355,0.7995,0.437073
487680141118,0.252319,0.326538,0.798462,0.438293
487680155400,0.253235,0.326965,0.797302,0.439514
487680178548,0.253845,0.327454,0.796143,0.440857
487680201032,0.254211,0.327942,0.795105,0.442139
487680215404,0.254761,0.328491,0.794067,0.443298
487680238510,0.255798,0.329773,0.792725,0.444214
487680261088,0.257507,0.331726,0.790955,0.444885
487680275414,0.25946,0.333557,0.789246,0.445374
487680298526,0.261353,0.335022,0.787842,0.445679
487680321054,0.263367,0.336914,0.786316,0.445801
487680335389,0.265503,0.339294,0.784668,0.445618
487680358520,0.267639,0.341309,0.783203,0.445435
487680381079,0.27002,0.342957,0.781738,0.44519
487680395399,0.272705,0.34436,0.780334,0.445068
487680418553,0.275269,0.345337,0.778931,0.445129
487680441039,0.277588,0.346497,0.777283,0.445618
487680455363,0.279602,0.347656,0.775696,0.446228
487680478570,0.281433,0.348633,0.774231,0.446899
487680501037,0.282898,0.349121,0.772949,0.447754
487680522048,0.283997,0.34967,0.771545,0.449036
487680538556,0.285461,0.350769,0.769714,0.4505
487680561073,0.287231,0.352051,0.767639,0.451843
487680582090,0.288635,0.352539,0.76593,0.453491
487680598525,0.28949,0.35199,0.764648,0.455505
487680621165,0.290039,0.350647,0.763733,0.457764
487680642202,0.290588,0.349548,0.762634,0.460083
487680658601,0.291443,0.348877,0.761169,0.462463
487680681160,0.292419,0.348022,0.759705,0.464844
487680702134,0.293518,0.346436,0.758606,0.467163
487680718620,0.295105,0.344788,0.757568,0.469055
487680741029,0.297302,0.343567,0.75647,0.470398
487680762130,0.299622,0.341919,0.755493,0.471619
487680778599,0.301819,0.339905,0.754639,0.473083
487680801032,0.304382,0.338562,0.753296,0.474487
487680822068,0.307495,0.338074,0.751587,0.475586
487680837942,0.31012,0.337341,0.750183,0.476624
487680860904,0.311707,0.335571,0.749573,0.477783
487680882074,0.31311,0.334229,0.749207,0.478394
487680897914,0.315125,0.334961,0.748291,0.477966
487680921074,0.317322,0.337036,0.746887,0.477234
487680950999,0.318481,0.338135,0.745972,0.477112
487680957937,0.31958,0.338989,0.745117,0.477112
487680981069,0.321838,0.341431,0.743408,0.476562
487681003544,0.324341,0.344238,0.741394,0.475952
487681017899,0.325928,0.345215,0.740234,0.475891
487681041031,0.326599,0.344116,0.740112,0.476501
487681063585,0.327454,0.342834,0.739868,0.477234
487681084719,0.328979,0.342346,0.739075,0.477722
487681101131,0.330505,0.341858,0.738159,0.478394
487681123599,0.331604,0.340393,0.73761,0.479553
487681137957,0.332642,0.338745,0.737244,0.48053
487681161052,0.333618,0.337463,0.737,0.481201
487681183535,0.333923,0.335938,0.737122,0.481812
487681197928,0.333252,0.333496,0.737793,0.482971
487681221078,0.33252,0.33075,0.738586,0.484131
487681243548,0.332886,0.328491,0.739258,0.484375
487681257913,0.334045,0.326111,0.740112,0.483948
487681281031,0.334839,0.322571,0.741638,0.483459
487681303589,0.335876,0.319031,0.743164,0.482727
487681324617,0.337769,0.316345,0.744324,0.481323
487681341081,0.340027,0.313904,0.745544,0.479492
487681363670,0.341187,0.311035,0.746948,0.478333
487681384657,0.341614,0.308167,0.748291,0.477844
487681401193,0.342163,0.306274,0.749146,0.477295
487681423610,0.343323,0.305481,0.749573,0.476318
487681444661,0.344849,0.305298,0.749695,0.475098
487681461095,0.346985,0.304871,0.749756,0.473755
487681483550,0.34967,0.304688,0.749695,0.471985
487681504620,0.352783,0.305786,0.749146,0.469788
487681521160,0.355774,0.308044,0.747864,0.468079
487681543614,0.357666,0.309814,0.746643,0.467468
487681564694,0.358093,0.310486,0.746033,0.467712
487681571477,0.35791,0.310425,0.745667,0.468384
487681586437,0.357849,0.310486,0.745117,0.469238
487681608931,0.358154,0.311279,0.744263,0.46991
487681631540,0.359009,0.312866,0.742798,0.470459
487681646476,0.360168,0.315247,0.740906,0.471008
487681669062,0.361206,0.317505,0.739075,0.471558
487681691476,0.361877,0.319336,0.737549,0.47229
487681706497,0.362427,0.321106,0.735962,0.473083
487681729023,0.362976,0.322937,0.734314,0.473938
487681751481,0.363159,0.324768,0.732727,0.474976
487681766519,0.362793,0.325989,0.731567,0.476196
487681791934,0.361877,0.326355,0.731079,0.477478
487681811452,0.360657,0.326233,0.730835,0.478821
487681826554,0.35968,0.325806,0.730591,0.480286
487681848973,0.35907,0.325378,0.730225,0.481506
487681871440,0.358276,0.3255,0.729858,0.482605
487681886534,0.356995,0.325745,0.729675,0.483643
487681908953,0.355286,0.325745,0.729858,0.484619
487681931499,0.354065,0.325806,0.729919,0.485352
487681946429,0.353333,0.326172,0.729736,0.485962
487681968990,0.352844,0.327087,0.729248,0.48645
487681991524,0.351868,0.327698,0.728882,0.487244
487682006469,0.350769,0.327942,0.728638,0.488281
487682029029,0.35022,0.328064,0.728271,0.489197
487682060361,0.350464,0.32843,0.727478,0.489807
487682066485,0.350952,0.328979,0.726624,0.490356
487682088967,0.351074,0.329468,0.726074,0.490784
487682111542,0.350586,0.329529,0.72583,0.491455
487682129363,0.349792,0.329529,0.725708,0.492188
487682156488,0.348877,0.329468,0.725708,0.49292
487682171471,0.347778,0.329285,0.72583,0.493652
487682186557,0.346436,0.328918,0.726013,0.494507
487682208956,0.344666,0.328186,0.72644,0.495667
487682231467,0.342285,0.326782,0.727295,0.497009
487682246538,0.339111,0.324585,0.728821,0.498352
487682268982,0.335144,0.32196,0.73114,0.49939
487682291465,0.330139,0.318726,0.733887,0.500732
487682306516,0.325806,0.315369,0.736267,0.502197
487682330415,0.322693,0.312439,0.738098,0.503357
487682351457,0.320923,0.310547,0.739014,0.504333
487682366591,0.320496,0.309875,0.739075,0.504944
487682389056,0.320801,0.31012,0.738464,0.505432
487682411515,0.321899,0.311218,0.737427,0.505554
487682426468,0.323547,0.312866,0.736206,0.50531
487682448982,0.325195,0.314758,0.734985,0.504883
487682471423,0.326538,0.316284,0.734009,0.504456
487682487930,0.327271,0.317139,0.733521,0.50415
487682509013,0.327332,0.3172,0.733459,0.504089
487682531527,0.326843,0.317383,0.733582,0.50415
487682547912,0.325806,0.317017,0.73407,0.504333
487682568988,0.324585,0.316589,0.73468,0.504517
487682591576,0.323425,0.315979,0.735474,0.504578
487682608008,0.322144,0.315186,0.736328,0.504578
487682629036,0.320923,0.314697,0.737122,0.504517
487682651551,0.319946,0.314514,0.737671,0.504395
487682667965,0.31897,0.314575,0.738281,0.50415
487682689003,0.317505,0.314453,0.739136,0.503845
487682714406,0.315979,0.314331,0.73999,0.503662
487682728030,0.314575,0.313965,0.740601,0.503845
487682749078,0.314148,0.314148,0.74054,0.504089
487682772909,0.314636,0.315002,0.739868,0.504211
487682788006,0.315674,0.315918,0.738953,0.504395
487682808949,0.31665,0.316406,0.73822,0.504517
487682831488,0.317505,0.316589,0.737793,0.504456
487682849396,0.317993,0.316345,0.737854,0.504272
487682869078,0.318054,0.316101,0.738037,0.504089
487682891568,0.317749,0.315979,0.738342,0.503906
487682909425,0.317139,0.315674,0.73877,0.503845
487682929064,0.316528,0.315674,0.739075,0.503784
487682951543,0.316101,0.315552,0.739319,0.503784
487682969487,0.315735,0.315491,0.739441,0.503906
487682989036,0.315247,0.315308,0.739563,0.50415
487683011601,0.314758,0.315063,0.739685,0.504456
487683029398,0.314392,0.315063,0.739685,0.504639
487683049131,0.314392,0.315125,0.739624,0.504639
487683071523,0.314209,0.315002,0.739685,0.504761
487683089412,0.313721,0.314697,0.739929,0.504944
487683108973,0.31311,0.314514,0.740173,0.505005
487683131522,0.312256,0.314331,0.74054,0.505188
487683149442,0.311096,0.313965,0.741028,0.505371
487683169045,0.309814,0.313354,0.741577,0.505737
487683191515,0.308594,0.312622,0.742188,0.506042
487683209449,0.307617,0.311951,0.742615,0.506409
487683228951,0.307068,0.311584,0.742859,0.506653
487683251524,0.306885,0.31134,0.743042,0.506653
487683269433,0.306824,0.311279,0.743042,0.506653
487683289024,0.306946,0.311401,0.743042,0.506531
487683311578,0.307068,0.311523,0.742981,0.50647
487683329423,0.307251,0.311768,0.742798,0.50647
487683349064,0.307373,0.312012,0.742676,0.50647
487683371553,0.307373,0.312073,0.742615,0.50647
487683389422,0.307251,0.311951,0.742676,0.506592
487683409084,0.307129,0.311646,0.742798,0.506714
487683431560,0.307007,0.311401,0.742859,0.506775
487683449508,0.306763,0.311096,0.743103,0.506775
487683470493,0.306763,0.311035,0.743103,0.506775
487683491512,0.306763,0.311035,0.743103,0.506775
487683509442,0.306702,0.310852,0.743164,0.506836
487683530521,0.306702,0.310852,0.743164,0.506836
487683551537,0.306702,0.310852,0.743164,0.506836
487683569447,0.306641,0.310852,0.743164,0.506836
487683590523,0.306396,0.310852,0.743286,0.506897
487683611472,0.306152,0.31073,0.743347,0.506958
487683629442,0.30603,0.310547,0.743469,0.506958
487683650498,0.30603,0.310547,0.743469,0.506958
487683671503,0.30603,0.310486,0.743469,0.506958
487683689464,0.30603,0.310486,0.743469,0.506958
487683710456,0.30603,0.310486,0.74353,0.506958
487683731510,0.30603,0.310486,0.74353,0.506958
487683749413,0.305969,0.310486,0.74353,0.507019
487683771910,0.306152,0.31073,0.743347,0.507019
487683791473,0.306152,0.31073,0.743347,0.507019
487683816907,0.306152,0.31073,0.743347,0.507019
487683831866,0.306152,0.31073,0.743347,0.507019
487683851535,0.306152,0.31073,0.743347,0.507019
487683869417,0.306152,0.31073,0.743347,0.507019
487683891894,0.306152,0.310791,0.743286,0.507019
487683911536,0.306274,0.311035,0.743225,0.506958
487683929446,0.306213,0.311035,0.743164,0.507019
487683951894,0.306274,0.311035,0.743164,0.506958
487683971462,0.306213,0.311035,0.743164,0.507019
487683989402,0.306396,0.310852,0.743225,0.507019
487684011917,0.306396,0.310852,0.743164,0.507019
487684032177,0.306396,0.310852,0.743225,0.507019
487684048585,0.306396,0.310791,0.743225,0.507019
487684071125,0.306335,0.310791,0.743225,0.507019
487684092188,0.306396,0.310791,0.743225,0.507019
487684108721,0.306396,0.310852,0.743225,0.507019
487684131081,0.306396,0.310791,0.743225,0.507019
487684152161,0.306396,0.310791,0.743225,0.507019
487684168706,0.306396,0.310791,0.743225,0.506958
487684191120,0.306396,0.31073,0.743225,0.506958
487684212110,0.306396,0.31073,0.743225,0.506958
487684228673,0.306396,0.31073,0.743225,0.506958
487684251152,0.306396,0.31073,0.743286,0.506958
487684272173,0.306396,0.31073,0.743286,0.507019
487684288594,0.306335,0.310669,0.743286,0.507019
487684311104,0.306335,0.310669,0.743286,0.507019
487684332247,0.306274,0.310547,0.743347,0.507019
487684349071,0.306213,0.310547,0.743347,0.50708
487684371138,0.306213,0.310547,0.743347,0.50708
487684392229,0.306213,0.310486,0.743347,0.50708
487684408604,0.306213,0.310547,0.743347,0.50708
487684431105,0.306091,0.310303,0.743408,0.507141
487684452277,0.306091,0.310303,0.743408,0.507202
487684468698,0.306091,0.310303,0.743408,0.507202
487684491115,0.305908,0.310181,0.74353,0.507263
487684512205,0.305847,0.31012,0.74353,0.507263
487684528709,0.305847,0.310181,0.74353,0.507263
487684551149,0.305847,0.310181,0.74353,0.507263
487684572148,0.305786,0.309998,0.743591,0.507324
487684588616,0.305664,0.309692,0.743774,0.507324
487684611180,0.305542,0.309265,0.743958,0.507324
487684632267,0.305359,0.308777,0.744202,0.507385
487684648623,0.305176,0.308289,0.744507,0.507385
487684671127,0.304932,0.3078,0.744751,0.507385
487684692166,0.304565,0.30719,0.745056,0.507568
487684708605,0.30426,0.306519,0.745239,0.507935
487684738603,0.30426,0.305664,0.745422,0.508118
487684753674,0.304382,0.304138,0.74585,0.508362
487684768710,0.30481,0.303528,0.745972,0.50824
487684791139,0.305298,0.303589,0.745789,0.50824
487684813666,0.305664,0.304138,0.745667,0.507935
487684828009,0.306091,0.305359,0.745239,0.507446
487684857218,0.307129,0.307495,0.744263,0.507019
487684881184,0.308777,0.310547,0.74292,0.506165
487684894680,0.310364,0.314148,0.741455,0.505066
487684911244,0.311462,0.318054,0.740051,0.504089
487684933657,0.312744,0.322083,0.73822,0.503296
487684954878,0.31427,0.326355,0.735962,0.50293
487684971191,0.315735,0.330872,0.733521,0.502625
487684993707,0.316467,0.3349,0.731628,0.502319
487685014767,0.316711,0.338501,0.730042,0.502014
487685031160,0.317139,0.341431,0.728699,0.501709
487685053692,0.317627,0.343689,0.7276,0.501465
487685074659,0.317688,0.345215,0.727051,0.501221
487685091215,0.316895,0.345886,0.727112,0.50116
487685113708,0.315796,0.345886,0.7276,0.501099
487685128025,0.315125,0.345886,0.72821,0.500671
487685151236,0.314453,0.345764,0.728821,0.500244
487685173683,0.313416,0.345581,0.729553,0.499939
487685188016,0.31189,0.345276,0.730408,0.499878
487685211897,0.310486,0.345093,0.73114,0.499817
487685233674,0.309143,0.344849,0.731689,0.500061
487685254807,0.308044,0.344421,0.731995,0.500549
487685271270,0.307312,0.343872,0.732239,0.501038
487685293825,0.306641,0.342712,0.732788,0.501404
487685314798,0.305664,0.340393,0.734131,0.501587
487685331133,0.305481,0.337097,0.735901,0.501404
487685353667,0.304993,0.333984,0.737671,0.50116
487685374661,0.303345,0.332092,0.73877,0.501831
487685391130,0.301636,0.33252,0.739014,0.502197
487685413655,0.299072,0.331238,0.74054,0.502319
487685434690,0.295898,0.328247,0.743042,0.502502
487685451118,0.293091,0.327393,0.744202,0.50293
487685473601,0.291321,0.329102,0.743896,0.503296
487685494742,0.290771,0.330322,0.743225,0.503845
487685510493,0.292297,0.331665,0.742249,0.503479
487685533739,0.292542,0.330933,0.742676,0.503235
487685557612,0.291748,0.329956,0.743164,0.503601
487685571175,0.292175,0.330017,0.742676,0.504028
487685593663,0.292419,0.330261,0.742188,0.504456
487685614693,0.292786,0.330811,0.741577,0.504761
487685631115,0.293152,0.330994,0.741211,0.505005
487685653659,0.292542,0.3302,0.741455,0.505554
487685676135,0.29187,0.329712,0.741821,0.505615
487685691123,0.291565,0.329407,0.742126,0.505615
487685713667,0.291565,0.329407,0.742126,0.505615
487685736149,0.292114,0.329468,0.742065,0.50531
487685751123,0.292603,0.329163,0.742126,0.505188
487685781120,0.292236,0.327942,0.742493,0.505615
487685796106,0.291687,0.326965,0.742859,0.506042
487685811152,0.291504,0.326721,0.743103,0.50592
487685833577,0.291565,0.326294,0.743164,0.506104
487685856180,0.29126,0.325623,0.743408,0.506348
487685870487,0.289734,0.32489,0.744141,0.506531
487685893661,0.288757,0.3255,0.744507,0.506287
487685916112,0.288757,0.326294,0.744324,0.50592
487685930508,0.289978,0.327087,0.743713,0.505676
487685953705,0.291138,0.327332,0.743164,0.505676
487685976150,0.292175,0.327332,0.742859,0.505554
487685990530,0.292175,0.327209,0.74292,0.505493
487686014103,0.292236,0.328003,0.742737,0.505249
487686036163,0.293396,0.329468,0.742004,0.504639
487686050513,0.295776,0.331482,0.740417,0.504333
487686075155,0.297485,0.332397,0.739258,0.504395
487686096210,0.297729,0.33136,0.739136,0.505066
487686110514,0.297974,0.329163,0.739441,0.505981
487686133644,0.299866,0.325012,0.740051,0.506592
487686156169,0.300293,0.318665,0.741577,0.508118
487686177267,0.29895,0.313049,0.742676,0.510864
487686193663,0.29834,0.30896,0.743774,0.512085
487686216154,0.299011,0.305847,0.745056,0.511658
487686237248,0.30249,0.306458,0.74469,0.509827
487686253668,0.3078,0.309814,0.742798,0.507385
487686276152,0.310547,0.312683,0.740601,0.50708
487686297158,0.311035,0.314087,0.739136,0.508057
487686313621,0.312866,0.316772,0.737366,0.507935
487686336147,0.316833,0.320801,0.734375,0.507202
487686357234,0.321777,0.325195,0.730347,0.507202
487686373084,0.32251,0.325378,0.729431,0.507874
487686396125,0.32135,0.325745,0.72937,0.508484
487686417225,0.322449,0.328735,0.727966,0.507874
487686434511,0.324463,0.331787,0.72644,0.506836
487686456208,0.325867,0.333618,0.725342,0.506226
487686477210,0.3255,0.333313,0.725342,0.506653
487686492994,0.325134,0.334229,0.725403,0.506165
487686516152,0.325623,0.335876,0.724915,0.505493
487686537179,0.326416,0.337158,0.723755,0.505798
487686553682,0.326233,0.336426,0.723755,0.506409
487686576160,0.324768,0.335083,0.724426,0.507263
487686604752,0.323975,0.3349,0.724609,0.507629
487686613608,0.323669,0.335083,0.724487,0.507874
487686636149,0.323303,0.335022,0.724304,0.508423
487686658611,0.322571,0.3349,0.724548,0.508667
487686673693,0.32135,0.334106,0.725037,0.509216
487686696155,0.319824,0.333191,0.725708,0.509827
487686718556,0.318909,0.332703,0.726196,0.51001
487686733678,0.318237,0.332642,0.726685,0.509827
487686756156,0.31781,0.333313,0.726685,0.509583
487686778669,0.317566,0.334229,0.726562,0.509338
487686793073,0.317566,0.33429,0.726501,0.509338
487686816187,0.317688,0.334229,0.726379,0.509583
487686838600,0.317566,0.333984,0.726379,0.509766
487686853042,0.317627,0.334229,0.726135,0.509888
487686876177,0.317932,0.334839,0.725708,0.509888
487686898655,0.318237,0.335388,0.725281,0.51001
487686912987,0.318115,0.335571,0.725281,0.509888
487686936115,0.317749,0.335693,0.725525,0.509766
487686958652,0.317322,0.335754,0.725769,0.509644
487686973043,0.317322,0.335754,0.725769,0.509644
487686996169,0.317566,0.335632,0.725769,0.509521
487687018711,0.317505,0.335266,0.726013,0.50946
487687033016,0.3172,0.335083,0.726257,0.509399
487687056171,0.317322,0.335815,0.726135,0.509094
487687078708,0.317566,0.336609,0.725952,0.508667
487687093040,0.31781,0.337158,0.725769,0.508423
487687116194,0.31781,0.337158,0.725769,0.508423
487687138641,0.317627,0.336792,0.725952,0.508484
487687159870,0.317261,0.336487,0.726196,0.508606
487687176196,0.316956,0.336365,0.72644,0.508545
487687198715,0.316711,0.336182,0.726685,0.508423
487687219757,0.316467,0.335876,0.726929,0.508484
487687236192,0.316345,0.335449,0.727112,0.508545
487687258724,0.316223,0.335083,0.727295,0.508606
487687279810,0.316223,0.3349,0.727417,0.508545
487687296220,0.316284,0.334717,0.7276,0.508362
487687318731,0.316467,0.334534,0.727783,0.508118
487687339820,0.316589,0.334229,0.728027,0.507874
487687356232,0.316589,0.333679,0.728455,0.507629
487687378683,0.316345,0.332886,0.729004,0.507507
487687399751,0.316162,0.332397,0.729431,0.507324
487687416256,0.316223,0.332031,0.729797,0.507019
487687438801,0.316223,0.331726,0.730103,0.506714
487687459782,0.315857,0.331299,0.730652,0.50647
487687476200,0.315308,0.331055,0.731201,0.506226
487687498769,0.315369,0.331299,0.731323,0.505798
487687519829,0.31543,0.331482,0.731445,0.505432
487687536224,0.315552,0.331665,0.731506,0.505188
487687558813,0.315613,0.331604,0.731506,0.505188
487687581161,0.315613,0.331604,0.731506,0.505188
487687596180,0.315552,0.331604,0.731567,0.505188
487687618749,0.315552,0.331604,0.731567,0.505188
487687641199,0.315796,0.33136,0.731506,0.505188
487687655651,0.315857,0.331238,0.731384,0.505371
487687678753,0.315857,0.331421,0.731262,0.505432
487687701144,0.315674,0.331726,0.731079,0.505615
487687715593,0.315796,0.332397,0.730713,0.505676
487687738734,0.316223,0.333252,0.730286,0.505493
487687761244,0.316345,0.33429,0.729919,0.50531
487687775656,0.315735,0.335754,0.729492,0.50531
487687798732,0.31604,0.339111,0.728271,0.504639
487687821200,0.317627,0.344055,0.726196,0.503235
487687842377,0.319702,0.349854,0.723816,0.501282
487687858676,0.322266,0.356628,0.720886,0.499084
487687881206,0.323792,0.363892,0.71759,0.497681
487687902281,0.32428,0.371521,0.713989,0.496887
487687918724,0.324219,0.378784,0.71051,0.49646
487687941198,0.324341,0.385742,0.706848,0.496155
487687962469,0.324463,0.392151,0.703369,0.496094
487687978820,0.325439,0.397949,0.699951,0.495667
487688001204,0.327393,0.403076,0.696655,0.494873
487688022256,0.329041,0.407715,0.693481,0.494446
487688046251,0.328796,0.411926,0.690308,0.495544
487688061191,0.325806,0.416199,0.687073,0.498413
487688082251,0.320862,0.42041,0.68396,0.502319
487688098779,0.314575,0.423767,0.681091,0.507385
487688121205,0.306091,0.426758,0.678345,0.513733
487688142396,0.295349,0.428711,0.676147,0.52124
487688158741,0.282715,0.430908,0.673279,0.53009
487688181265,0.270142,0.433533,0.669617,0.539062
487688202298,0.257141,0.436523,0.664917,0.548706
487688218794,0.24292,0.438843,0.659668,0.55957
487688241223,0.226685,0.440002,0.654175,0.571777
487688262368,0.210266,0.440979,0.648132,0.584045
487688278760,0.194214,0.442078,0.641113,0.596375
487688301231,0.176758,0.442566,0.633728,0.609253
487688322231,0.15741,0.44281,0.626038,0.622192
487688338055,0.137268,0.443726,0.617554,0.634644
487688361307,0.116821,0.445129,0.608582,0.646362
487688382294,0.0965576,0.447266,0.598633,0.657349
487688398070,0.0760498,0.449707,0.588196,0.667725
487688421213,0.0551758,0.452515,0.577515,0.677185
487688442222,0.0339355,0.455261,0.567078,0.685486
487688458071,0.0128174,0.457458,0.55719,0.69281
487688481215,-0.00701904,0.459167,0.547852,0.699219
487688502057,-0.024353,0.460571,0.539246,0.70459
487688518121,-0.0395508,0.46167,0.53125,0.709167
487688541317,-0.0530396,0.46228,0.523987,0.713318
487688563710,-0.0643921,0.462524,0.5177,0.716797
487688578141,-0.0732422,0.462708,0.512573,0.719543
487688601255,-0.079834,0.462646,0.508606,0.72168
487688631232,-0.0846558,0.462341,0.505981,0.723145
487688638095,-0.0877686,0.461609,0.504395,0.724365
487688661205,-0.0891724,0.461182,0.503357,0.72522
487688683728,-0.0888672,0.460999,0.50293,0.725647
487688704773,-0.0869141,0.460876,0.503418,0.725647
487688721258,-0.0846558,0.460327,0.505066,0.725037
487688743798,-0.0824585,0.459412,0.507629,0.724121
487688764789,-0.0787354,0.45874,0.510071,0.723206
487688781253,-0.0731201,0.458557,0.512634,0.722107
487688803789,-0.0662842,0.458679,0.515747,0.72052
487688824902,-0.0595093,0.458557,0.519714,0.718262
487688841292,-0.0527344,0.458252,0.524414,0.715637
487688863739,-0.0449219,0.457764,0.529297,0.71283
487688884797,-0.0352783,0.457092,0.534607,0.7099
487688901178,-0.0235596,0.456299,0.540344,0.706482
487688923724,-0.010437,0.455383,0.546875,0.702393
487688944838,0.00305176,0.454041,0.55481,0.697083
487688961232,0.0164185,0.451965,0.564026,0.690796
487688983798,0.0308228,0.449463,0.573547,0.684082
487689004754,0.0479736,0.446899,0.582764,0.676941
487689021215,0.0666504,0.44397,0.592041,0.669189
487689043676,0.0852051,0.440552,0.601379,0.661011
487689064859,0.103455,0.437012,0.610413,0.652405
487689081216,0.121521,0.433167,0.619141,0.643555
487689103675,0.138733,0.428955,0.627869,0.634399
487689124744,0.154724,0.425232,0.636169,0.624878
487689141298,0.170471,0.42334,0.643188,0.614746
487689163798,0.185486,0.422791,0.649109,0.604492
487689184839,0.20105,0.422302,0.654602,0.593811
487689207363,0.216858,0.422485,0.659363,0.582764
487689223753,0.231201,0.42395,0.662598,0.572388
487689244842,0.244446,0.425964,0.665161,0.562317
487689251645,0.256104,0.426392,0.668457,0.552856
487689268012,0.266602,0.426941,0.670837,0.544495
487689289147,0.2771,0.429321,0.671814,0.536194
487689311671,0.287354,0.43158,0.672791,0.527649
487689328024,0.296875,0.432983,0.674438,0.519043
487689349186,0.305481,0.434021,0.676025,0.511047
487689371702,0.312683,0.434509,0.677612,0.50415
487689388108,0.318726,0.434265,0.679382,0.498169
487689416677,0.322632,0.432373,0.682373,0.493225
487689433058,0.32196,0.426147,0.687744,0.491516
487689455603,0.317566,0.416199,0.69519,0.492493
487689472028,0.312927,0.406738,0.701782,0.49408
487689491585,0.310791,0.40094,0.7052,0.495239
487689508101,0.310791,0.398132,0.706787,0.495239
487689529078,0.31073,0.396118,0.707947,0.495178
487689554610,0.310425,0.394653,0.709167,0.494873
487689568069,0.31012,0.393799,0.710144,0.494263
487689589168,0.310364,0.393372,0.710876,0.493469
487689611690,0.311401,0.393921,0.710876,0.492371
487689626653,0.312866,0.394897,0.710632,0.490967
487689649132,0.313843,0.395691,0.710388,0.490112
487689671577,0.313965,0.39624,0.710144,0.48999
487689686623,0.313843,0.396606,0.709717,0.490295
487689709106,0.313904,0.39679,0.709412,0.490479
487689731737,0.313904,0.396362,0.709656,0.490601
487689746619,0.313477,0.395081,0.710266,0.490906
487689769294,0.312805,0.393616,0.711243,0.491211
487689791718,0.311768,0.391907,0.712341,0.491638
487689806620,0.310486,0.39032,0.713318,0.492188
487689829184,0.309143,0.389099,0.714172,0.492859
487689851655,0.307861,0.388,0.714844,0.493469
487689866622,0.306946,0.387268,0.715332,0.493958
487689889220,0.30658,0.386963,0.715454,0.494263
487689911772,0.306824,0.38739,0.71521,0.49408
487689926672,0.307617,0.388184,0.714844,0.493469
487689949201,0.308716,0.389221,0.714233,0.492859
487689971633,0.31012,0.390381,0.713562,0.492126
487689988120,0.31189,0.391296,0.712646,0.491577
487690009194,0.315063,0.393005,0.710876,0.490662
487690031706,0.318542,0.394836,0.709167,0.489502
487690048107,0.321533,0.396423,0.707642,0.488464
487690069139,0.324707,0.398804,0.705322,0.487793
487690091636,0.328247,0.401672,0.702332,0.487366
487690108152,0.331604,0.405151,0.699097,0.486816
487690129141,0.334229,0.409058,0.696045,0.486206
487690151627,0.335815,0.413513,0.692322,0.486633
487690168128,0.335754,0.418457,0.6875,0.489258
487690189114,0.33252,0.425476,0.680664,0.494934
487690211621,0.327515,0.430908,0.674744,0.501648
487690228118,0.321106,0.434998,0.670166,0.508423
487690249159,0.312012,0.439392,0.664734,0.517273
487690271582,0.301331,0.443909,0.658508,0.527649
487690288075,0.288696,0.447327,0.6521,0.539673
487690309104,0.275208,0.449341,0.645752,0.552551
487690331633,0.26062,0.450867,0.638611,0.566406
487690348081,0.24469,0.452576,0.630676,0.580872
487690369194,0.226074,0.454224,0.622681,0.595642
487690394567,0.205017,0.455811,0.61438,0.610474
487690409577,0.182251,0.457764,0.605469,0.624878
487690429187,0.158875,0.460266,0.595703,0.638672
487690451640,0.135681,0.462952,0.585144,0.651733
487690469535,0.113464,0.465759,0.573853,0.663879
487690489180,0.0928345,0.468933,0.561768,0.67511
487690511669,0.0734863,0.472107,0.549316,0.685486
487690529606,0.0546265,0.474365,0.53772,0.694824
487690549174,0.0369873,0.475952,0.526367,0.703491
487690573067,0.0204468,0.477051,0.514954,0.711853
487690589618,0.00494385,0.477966,0.503601,0.719604
487690609209,-0.0109863,0.477661,0.493408,0.726746
487690631673,-0.0263672,0.476196,0.484802,0.733093
487690649607,-0.039978,0.474487,0.47644,0.739014
487690669138,-0.0518188,0.473145,0.468384,0.744324
487690691713,-0.0628052,0.471863,0.460938,0.748901
487690709555,-0.072998,0.470703,0.454224,0.752808
487690729169,-0.0819092,0.469421,0.448242,0.756226
487690751804,-0.088623,0.468079,0.442688,0.759583
487690769590,-0.0932007,0.466614,0.4375,0.763
487690789166,-0.0973511,0.464478,0.433655,0.76593
487690811713,-0.10083,0.461609,0.43158,0.768372
487690829586,-0.103333,0.457886,0.430786,0.770691
487690849133,-0.104065,0.454041,0.430969,0.772766
487690871643,-0.10437,0.450378,0.43219,0.77417
487690889634,-0.104309,0.447083,0.434082,0.775085
487690909131,-0.102783,0.445068,0.435913,0.775391
487690931693,-0.0991821,0.443909,0.438171,0.775208
487690949610,-0.0948486,0.442993,0.441345,0.774475
487690969152,-0.0909424,0.442322,0.445251,0.773132
487690991679,-0.0864868,0.442261,0.449036,0.771484
487691009624,-0.0808105,0.443237,0.452515,0.769531
487691030663,-0.0745239,0.444397,0.456421,0.767151
487691051731,-0.0684814,0.445435,0.460876,0.764465
487691069544,-0.0626221,0.446228,0.465637,0.761597
487691090626,-0.0561523,0.447327,0.470276,0.758606
487691111609,-0.0484009,0.448425,0.475159,0.755432
487691129629,-0.0408936,0.448853,0.480774,0.752075
487691150680,-0.0333252,0.448303,0.487122,0.748718
487691171726,-0.0244751,0.44696,0.494019,0.7453
487691189616,-0.0139771,0.444336,0.501587,0.742065
487691210638,-0.00323486,0.440735,0.509521,0.738953
487691231725,0.00848389,0.437317,0.517029,0.735718
487691249568,0.0223999,0.433838,0.525085,0.73175
487691270621,0.0375366,0.429749,0.534302,0.726807
487691291790,0.0524292,0.424622,0.544128,0.721619
487691317067,0.0667725,0.42041,0.552734,0.71637
487691332048,0.0818481,0.418457,0.559814,0.710388
487691351646,0.0985107,0.417542,0.567078,0.703064
487691375684,0.115723,0.416687,0.575012,0.694458
487691392133,0.132141,0.416443,0.582397,0.685425
487691411717,0.146606,0.416565,0.589539,0.67627
487691429602,0.160645,0.416016,0.596985,0.666809
487691452113,0.176208,0.416199,0.604065,0.656311
487691471765,0.1922,0.418396,0.609741,0.645081
487691497124,0.20636,0.421631,0.614258,0.634155
487691512060,0.217957,0.423706,0.618958,0.624268
487691531688,0.22937,0.424988,0.623962,0.614319
487691549638,0.24115,0.427429,0.627991,0.603882
487691572042,0.250916,0.430054,0.63147,0.594299
487691591636,0.258362,0.431335,0.635498,0.585876
487691609652,0.26532,0.430725,0.640625,0.577515
487691632143,0.272949,0.429626,0.645691,0.569092
487691653148,0.281311,0.428955,0.649658,0.560913
487691669608,0.289185,0.429016,0.652649,0.553406
487691692136,0.296326,0.429016,0.655151,0.54657
487691711654,0.303162,0.428223,0.658142,0.539917
487691728756,0.309204,0.426636,0.661316,0.533813
487691751347,0.315857,0.425171,0.664124,0.527527
487691772315,0.323242,0.424927,0.665527,0.521423
487691788846,0.329224,0.425659,0.665039,0.517761
487691811300,0.33313,0.426208,0.664734,0.515198
487691832370,0.335144,0.424744,0.666077,0.513306
487691848912,0.33429,0.421326,0.66864,0.513367
487691871330,0.332031,0.416443,0.672119,0.514282
487691892316,0.328918,0.410889,0.676086,0.515503
487691908822,0.325134,0.405151,0.680481,0.516724
487691931302,0.321228,0.399902,0.684509,0.517944
487691952293,0.317871,0.396179,0.687561,0.518738
487691968766,0.314819,0.39386,0.68988,0.519348
487691991329,0.312317,0.3927,0.691345,0.519714
487692012398,0.311035,0.392883,0.691956,0.519592
487692028154,0.311035,0.394287,0.69165,0.518921
487692051317,0.311523,0.39624,0.690979,0.518005
487692072299,0.311584,0.397949,0.69043,0.517517
487692088792,0.311707,0.399719,0.689697,0.516968
487692111342,0.312195,0.401489,0.688904,0.516357
487692132412,0.312805,0.402954,0.688293,0.515686
487692148821,0.313232,0.403625,0.687988,0.515259
487692171349,0.312744,0.403259,0.688232,0.515564
487692192387,0.311951,0.402405,0.688538,0.516235
487692208819,0.311401,0.40155,0.688782,0.516907
487692231371,0.311157,0.400696,0.688965,0.517517
487692252439,0.311096,0.399841,0.689148,0.517944
487692268839,0.310791,0.398499,0.689636,0.518555
487692291312,0.310364,0.397034,0.690186,0.519165
487692313917,0.309998,0.395813,0.690735,0.519653
487692328813,0.309692,0.39502,0.69104,0.52002
487692351255,0.309326,0.394592,0.691223,0.520264
487692373799,0.308411,0.394104,0.691711,0.520569
487692388775,0.307068,0.393494,0.692322,0.520935
487692418774,0.30542,0.393005,0.692993,0.521423
487692433857,0.304138,0.392822,0.693359,0.521851
487692448090,0.303345,0.393066,0.693481,0.521973
487692471244,0.302673,0.393433,0.693604,0.521912
487692493806,0.302124,0.393921,0.693665,0.52179
487692508125,0.301758,0.394592,0.693542,0.521667
487692531304,0.301514,0.395386,0.693298,0.521545
487692553983,0.301331,0.396179,0.692932,0.521545
487692568156,0.301208,0.39679,0.692688,0.521484
487692591280,0.301086,0.397339,0.692505,0.521301
487692613740,0.300781,0.397644,0.692566,0.52124
487692628162,0.300232,0.397766,0.692627,0.521301
487692651389,0.299988,0.397827,0.692627,0.521423
487692673774,0.299744,0.397461,0.692749,0.521667
487692688097,0.299561,0.397034,0.692871,0.521912
487692711235,0.2995,0.396484,0.693054,0.522156
487692733767,0.299561,0.395996,0.693176,0.5224
487692748103,0.299805,0.395569,0.693237,0.522522
487692771267,0.300171,0.395325,0.693176,0.522522
487692793805,0.300659,0.395203,0.693054,0.522522
487692814962,0.300842,0.394958,0.692993,0.522583
487692831335,0.300842,0.394958,0.692993,0.522583
487692853913,0.300842,0.394958,0.693054,0.522583
487692875011,0.301025,0.395081,0.693054,0.5224
487692891283,0.301025,0.395081,0.693054,0.5224
487692913772,0.300964,0.394836,0.693298,0.522278
487692934922,0.300842,0.39447,0.693542,0.522217
487692951382,0.30072,0.394287,0.693726,0.522217
487692973824,0.30072,0.394287,0.693726,0.522217
487692996375,0.30072,0.394226,0.693726,0.522217
487693011368,0.300598,0.393982,0.693909,0.522339
487693033766,0.300598,0.393982,0.693909,0.522339
487693054990,0.300598,0.393982,0.693909,0.522339
487693071291,0.300598,0.393799,0.694092,0.522156
487693093842,0.300659,0.393677,0.694336,0.521973
487693114964,0.300598,0.393433,0.69458,0.52179
487693131307,0.300476,0.393311,0.694824,0.521667
487693153864,0.300293,0.393188,0.695129,0.521423
487693174939,0.300232,0.393188,0.695312,0.521179
487693191275,0.300293,0.393127,0.695496,0.520935
487693213873,0.300354,0.393066,0.695679,0.520752
487693236292,0.300537,0.393066,0.69574,0.520569
487693251793,0.300842,0.393188,0.695618,0.520508
487693273773,0.300903,0.393188,0.695618,0.520508
487693296378,0.300842,0.393005,0.69574,0.520508
487693310601,0.300598,0.392822,0.695862,0.520508
487693341488,0.300415,0.392639,0.696106,0.520508
487693356381,0.300415,0.392639,0.696106,0.520508
487693371283,0.300415,0.392578,0.696106,0.520508
487693393833,0.300415,0.392578,0.696106,0.520508
487693416365,0.300415,0.392578,0.696106,0.520508
487693430675,0.300476,0.392578,0.696167,0.520508
487693453868,0.300354,0.392456,0.69635,0.520386
487693476406,0.30011,0.392334,0.696655,0.520203
487693490718,0.299927,0.392273,0.697021,0.519836
487693513893,0.299438,0.392334,0.697449,0.519409
487693536257,0.299133,0.392883,0.697632,0.518982
487693550750,0.299133,0.393616,0.697449,0.518616
487693573949,0.299133,0.394165,0.697388,0.518311
487693596301,0.299194,0.39447,0.697327,0.518127
487693610627,0.299561,0.394592,0.697266,0.517944
487693633939,0.299988,0.394531,0.697205,0.517822
487693656308,0.300171,0.394104,0.697327,0.517944
487693670592,0.300171,0.393677,0.697449,0.518066
487693693841,0.30011,0.39325,0.697632,0.518127
487693716348,0.300049,0.392822,0.697876,0.518188
487693737323,0.299866,0.392334,0.69812,0.518311
487693753868,0.299744,0.392334,0.697998,0.518616
487693776139,0.300842,0.393005,0.697266,0.518433
487693797424,0.303223,0.393738,0.696411,0.517578
487693813268,0.306641,0.394653,0.69574,0.515808
487693836385,0.311157,0.396545,0.694641,0.513123
487693857454,0.316528,0.400085,0.692383,0.510132
487693873877,0.322388,0.405762,0.688171,0.50769
487693896365,0.329041,0.413452,0.682068,0.505432
487693917368,0.335938,0.422546,0.675049,0.502808
487693933922,0.340942,0.431152,0.668518,0.500854
487693956273,0.340942,0.436829,0.664124,0.50177
487693977434,0.331848,0.43634,0.663879,0.508545
487693993257,0.319824,0.430908,0.666931,0.516785
487694016397,0.307678,0.426392,0.668823,0.525452
487694037431,0.297607,0.425415,0.667786,0.533325
487694053201,0.288574,0.426514,0.664917,0.540955
487694076359,0.278687,0.427185,0.662048,0.549011
487694097419,0.267517,0.427002,0.659607,0.557617
487694113280,0.255737,0.426575,0.657104,0.566284
487694136381,0.242798,0.426086,0.654907,0.57489
487694157448,0.228638,0.425476,0.652771,0.583496
487694173150,0.21405,0.42511,0.650574,0.591736
487694196391,0.199646,0.425476,0.647766,0.599487
487694218931,0.185486,0.426086,0.64447,0.607117
487694233159,0.171143,0.426758,0.640686,0.614807
487694256350,0.156616,0.427551,0.636719,0.622192
487694278847,0.141479,0.428528,0.632812,0.629089
487694293236,0.125366,0.429565,0.62915,0.635437
487694316396,0.108459,0.430786,0.625366,0.641479
487694339264,0.0913086,0.432068,0.620972,0.647522
487694360010,0.0752563,0.433105,0.61615,0.653442
487694376406,0.0608521,0.433411,0.611755,0.658875
487694398937,0.0482178,0.433105,0.607971,0.663574
487694419990,0.0352783,0.431213,0.60553,0.667847
487694436346,0.0221558,0.427917,0.604126,0.671814
487694458946,0.00976562,0.424255,0.603027,0.675415
487694480006,-0.000976562,0.421082,0.601807,0.678528
487694496322,-0.00982666,0.41803,0.600769,0.681274
487694518919,-0.017395,0.414734,0.600037,0.683777
487694539963,-0.0247803,0.41156,0.59967,0.685791
487694556422,-0.0321655,0.408386,0.59967,0.687378
487694578872,-0.0388794,0.405518,0.599854,0.688538
487694599947,-0.0444336,0.403015,0.599854,0.689697
487694616400,-0.0488281,0.401062,0.599304,0.690979
487694638888,-0.0523682,0.40033,0.598206,0.692139
487694660007,-0.0549927,0.400574,0.59668,0.693115
487694676428,-0.057373,0.401123,0.595276,0.693787
487694698920,-0.0591431,0.402039,0.593567,0.69458
487694719869,-0.0595703,0.404419,0.591187,0.69519
487694736401,-0.0599365,0.407288,0.589294,0.695068
487694758918,-0.0606079,0.409058,0.588684,0.694519
487694779943,-0.0610352,0.410339,0.58844,0.69397
487694796374,-0.0604858,0.412109,0.587708,0.693542
487694818925,-0.0584106,0.414551,0.587097,0.69281
487694840020,-0.0561523,0.416199,0.587646,0.691467
487694856384,-0.0548096,0.416321,0.589172,0.690247
487694878879,-0.053772,0.41626,0.590393,0.689331
487694899982,-0.052124,0.41687,0.591187,0.688416
487694916392,-0.0501709,0.417664,0.591858,0.6875
487694938968,-0.0485229,0.418152,0.592834,0.686462
487694959892,-0.0471802,0.41864,0.593628,0.685608
487694976406,-0.0462036,0.419189,0.593994,0.684937
487694998926,-0.0450439,0.419128,0.594727,0.684509
487695019981,-0.043396,0.41864,0.59552,0.684204
487695036405,-0.041748,0.418274,0.59613,0.68396
487695058978,-0.0405884,0.417786,0.596863,0.683716
487695079901,-0.0393066,0.41687,0.597961,0.683411
487695095735,-0.0372925,0.41571,0.599304,0.683044
487695118926,-0.0345459,0.414856,0.600647,0.682495
487695141410,-0.0309448,0.414185,0.602234,0.681702
487695155700,-0.026062,0.414001,0.603882,0.680542
487695178897,-0.0195312,0.41449,0.60553,0.679016
487695201314,-0.0114136,0.415466,0.607117,0.677185
487695215857,-0.00250244,0.416748,0.608582,0.67511
487695238871,0.00756836,0.418518,0.609741,0.672974
487695261453,0.0197144,0.420593,0.611084,0.670227
487695282356,0.0332642,0.422852,0.612305,0.667175
487695298918,0.0452881,0.42511,0.613892,0.663513
487695321409,0.0561523,0.426392,0.616028,0.659851
487695342438,0.0684814,0.426697,0.61853,0.656189
487695358902,0.081543,0.426941,0.620605,0.652527
487695381409,0.0945435,0.427429,0.622498,0.648621
487695402441,0.106689,0.427063,0.625427,0.644165
487695418882,0.118164,0.424988,0.629883,0.639221
487695441426,0.128601,0.422119,0.634583,0.634338
487695462430,0.138855,0.420593,0.638062,0.629761
487695478964,0.150879,0.421265,0.640198,0.624329
487695501364,0.164307,0.423889,0.641663,0.617676
487695522506,0.176941,0.426575,0.643188,0.610657
487695538989,0.187073,0.428467,0.64502,0.60437
487695561508,0.195068,0.429688,0.647217,0.598633
487695582457,0.204529,0.431458,0.648926,0.592285
487695598892,0.216125,0.434021,0.650085,0.585022
487695621412,0.226074,0.435791,0.652039,0.577698
487695642505,0.233704,0.435974,0.654968,0.571167
487695658923,0.240723,0.435791,0.657715,0.565125
487695681479,0.248657,0.436646,0.659485,0.559021
487695702455,0.256714,0.438171,0.660828,0.55249
487695725003,0.263,0.438354,0.663086,0.546692
487695741386,0.267761,0.437195,0.665955,0.54187
487695762435,0.272827,0.436157,0.668091,0.537476
487695778944,0.279114,0.43634,0.669006,0.532898
487695801416,0.284607,0.436401,0.670044,0.528687
487695822450,0.28894,0.435486,0.671631,0.525024
487695838901,0.293335,0.434753,0.672974,0.521423
487695861424,0.297302,0.434387,0.674133,0.518005
487695882386,0.300354,0.434143,0.675232,0.515015
487695898246,0.301575,0.433716,0.676636,0.512817
487695921432,0.300354,0.432129,0.679016,0.511719
487695942414,0.297607,0.42926,0.68219,0.511536
487695958194,0.294434,0.426392,0.685547,0.51123
487695981374,0.291504,0.424194,0.688416,0.510925
487696002519,0.289124,0.42218,0.69104,0.510376
487696018275,0.286621,0.419556,0.693909,0.510132
487696041544,0.28418,0.416626,0.696655,0.510132
487696062467,0.282715,0.414551,0.698669,0.509827
487696078259,0.281311,0.411987,0.700867,0.509705
487696101397,0.280212,0.409485,0.702637,0.509949
487696123882,0.278931,0.407288,0.703796,0.510803
487696138215,0.277588,0.405273,0.704529,0.512024
487696161405,0.276184,0.403503,0.7052,0.513367
487696183931,0.274536,0.40155,0.705872,0.514832
487696198948,0.273071,0.399841,0.70636,0.516235
487696221523,0.271729,0.398499,0.706665,0.517517
487696243889,0.270691,0.3974,0.706848,0.518677
487696258193,0.270386,0.396851,0.706726,0.51947
487696281378,0.270569,0.396484,0.706482,0.519958
487696303899,0.270691,0.395996,0.706543,0.520203
487696318254,0.270569,0.395386,0.706848,0.520325
487696341403,0.270508,0.394958,0.707092,0.520325
487696363971,0.270691,0.394836,0.707336,0.52002
487696378323,0.271057,0.394897,0.707458,0.519592
487696401411,0.27124,0.394958,0.707581,0.519287
487696423963,0.271484,0.395142,0.707642,0.518921
487696438170,0.271912,0.395386,0.707642,0.518555
487696461490,0.272522,0.395691,0.70752,0.518127
487696483918,0.273071,0.396057,0.707153,0.518005
487696498195,0.273682,0.396545,0.706665,0.518005
487696521447,0.273987,0.397095,0.706177,0.518127
487696543898,0.274292,0.397278,0.705933,0.518188
487696558291,0.27478,0.397217,0.70575,0.518127
487696581375,0.275635,0.397339,0.705566,0.517883
487696603965,0.276672,0.397522,0.705444,0.517395
487696624985,0.277588,0.3974,0.705627,0.516785
487696641429,0.278137,0.397278,0.705933,0.516113
487696663997,0.278442,0.397217,0.706177,0.515625
487696684937,0.278931,0.397583,0.706116,0.515198
487696701371,0.279297,0.397949,0.705811,0.515076
487696723875,0.279541,0.398438,0.705444,0.515076
487696745026,0.279663,0.398926,0.705139,0.515137
487696761502,0.27948,0.39917,0.704956,0.515198
487696783922,0.279114,0.398987,0.705139,0.515381
487696804985,0.278625,0.398499,0.705505,0.515503
487696821415,0.278015,0.397888,0.705933,0.515686
487696843967,0.277527,0.397278,0.706299,0.51593
487696865695,0.277161,0.39679,0.706665,0.515991
487696881473,0.276917,0.396301,0.70697,0.516113
487696904006,0.27655,0.395691,0.707397,0.516113
487696924931,0.276245,0.395142,0.707825,0.516174
487696931858,0.276062,0.394775,0.70813,0.516113
487696946753,0.276062,0.394592,0.708313,0.51593
487696969446,0.276062,0.394592,0.708374,0.51593
487696991895,0.276001,0.39447,0.708557,0.515869
487697006782,0.276062,0.394226,0.70874,0.515686
487697029274,0.276184,0.394104,0.708923,0.515503
487697051872,0.276367,0.393982,0.709045,0.515259
487697066856,0.276611,0.393494,0.709351,0.515137
487697092232,0.276855,0.392761,0.709778,0.514954
487697111865,0.277222,0.391785,0.710388,0.514648
487697128315,0.278015,0.390808,0.71106,0.514038
487697152282,0.27948,0.39032,0.711426,0.513123
487697171801,0.28125,0.389893,0.711609,0.512146
487697186818,0.283081,0.389465,0.711548,0.511597
487697209274,0.286072,0.389893,0.710571,0.510986
487697231774,0.290222,0.391785,0.708252,0.510437
487697248271,0.295654,0.396057,0.704224,0.509583
487697276802,0.302002,0.402649,0.698669,0.508301
487697291798,0.308655,0.410828,0.692261,0.506531
487697308256,0.314636,0.419312,0.685974,0.504517
487697329345,0.318848,0.427734,0.680176,0.502625
487697351772,0.320679,0.435303,0.675293,0.501526
487697368238,0.319885,0.440674,0.671753,0.502136
487697392215,0.31543,0.442017,0.670837,0.505005
487697411809,0.308899,0.438538,0.672852,0.509277
487697428238,0.30249,0.43335,0.676025,0.513367
487697449287,0.296753,0.429749,0.677673,0.517639
487697471939,0.291992,0.428467,0.677185,0.521973
487697488266,0.287903,0.428589,0.675598,0.526123
487697509436,0.283691,0.429504,0.673523,0.530334
487697531882,0.278137,0.429993,0.671692,0.535217
487697548262,0.27063,0.429077,0.670471,0.541321
487697572208,0.26178,0.42749,0.66925,0.548401
487697591876,0.252686,0.42627,0.667542,0.555603
487697608307,0.243835,0.42511,0.66571,0.562622
487697629247,0.234314,0.423401,0.664062,0.569885
487697651779,0.224121,0.421265,0.662415,0.577393
487697669780,0.213867,0.419189,0.660645,0.584778
487697689323,0.204102,0.417419,0.658386,0.592041
487697711758,0.194092,0.415222,0.656067,0.599487
487697728355,0.182983,0.411865,0.654236,0.607239
487697749294,0.169739,0.407166,0.65332,0.615173
487697771807,0.155762,0.402161,0.652588,0.622925
487697788300,0.142395,0.397644,0.651611,0.630005
487697809330,0.128418,0.393311,0.650696,0.636658
487697831753,0.114075,0.390076,0.649048,0.643005
487697848278,0.100769,0.389221,0.646301,0.648499
487697869249,0.0888672,0.390564,0.642761,0.652954
487697891758,0.0764771,0.391785,0.639343,0.657104
487697908267,0.0640869,0.393188,0.635803,0.661011
487697929255,0.0524902,0.395569,0.631775,0.66449
487697951800,0.0420532,0.398438,0.627502,0.66748
487697969771,0.0332031,0.401733,0.623169,0.670105
487697989281,0.0255737,0.40564,0.618835,0.67218
487698011877,0.0188599,0.409424,0.615112,0.673462
487698029688,0.0129395,0.411865,0.612488,0.6745
487698049250,0.00891113,0.412476,0.610535,0.675964
487698074717,0.00726318,0.412659,0.608154,0.67804
487698089756,0.00714111,0.412476,0.605896,0.680176
487698109355,0.00750732,0.41095,0.604065,0.682678
487698131766,0.00756836,0.407776,0.603149,0.685425
487698149686,0.00726318,0.404358,0.602539,0.687988
487698169326,0.00720215,0.401733,0.60144,0.69043
487698191873,0.00842285,0.400269,0.600281,0.692261
487698209756,0.00823975,0.397888,0.600464,0.693481
487698229355,0.00744629,0.395386,0.60083,0.694641
487698251886,0.00823975,0.394897,0.600037,0.695618
487698269727,0.00982666,0.395569,0.59906,0.696045
487698289385,0.0117188,0.39624,0.598267,0.696289
487698311878,0.0130005,0.397034,0.597778,0.696228
487698329761,0.0134888,0.398193,0.597351,0.695923
487698349339,0.0137329,0.399109,0.597168,0.695557
487698371882,0.0144043,0.399963,0.597046,0.69519
487698389758,0.0155029,0.400696,0.596924,0.694824
487698409352,0.0160522,0.401367,0.596741,0.69458
487698431861,0.0158691,0.401917,0.596619,0.694336
487698449759,0.0158691,0.402832,0.596375,0.694031
487698469341,0.0161133,0.404053,0.596069,0.693604
487698491848,0.017395,0.405518,0.595825,0.692932
487698509722,0.0184937,0.406555,0.595886,0.692261
487698529359,0.0200195,0.407715,0.595337,0.691956
487698551832,0.0227661,0.409546,0.594604,0.691406
487698569783,0.0258789,0.411743,0.594116,0.690491
487698590821,0.027832,0.412781,0.594299,0.689575
487698611840,0.0280151,0.412537,0.594971,0.689148
487698629752,0.0280151,0.412231,0.595154,0.689148
487698650784,0.0291138,0.412659,0.594788,0.689209
487698671896,0.0311279,0.413757,0.594421,0.688782
487698689808,0.0326538,0.414124,0.594727,0.688232
487698710801,0.0335083,0.413818,0.595398,0.687744
487698731840,0.034729,0.413818,0.595825,0.687378
487698749737,0.0369873,0.414246,0.595947,0.68689
487698770752,0.0401001,0.414917,0.596191,0.686035
487698791825,0.0435181,0.415955,0.596436,0.684998
487698809722,0.0476685,0.417053,0.596558,0.68396
487698830769,0.0536499,0.417725,0.596741,0.682922
487698851889,0.0610962,0.417542,0.596985,0.682251
487698869781,0.0692749,0.416382,0.596802,0.682312
487698890779,0.0772705,0.415039,0.596436,0.682617
487698911847,0.0842896,0.413452,0.596375,0.6828
487698929700,0.0901489,0.411316,0.596741,0.683044
487698952216,0.0945435,0.408813,0.597534,0.683228
487698971869,0.0986938,0.406616,0.598022,0.683533
487698997252,0.104492,0.405518,0.597412,0.683838
487699012273,0.112244,0.405457,0.596313,0.683594
487699031876,0.1203,0.406128,0.595154,0.682861
487699049722,0.127502,0.407715,0.593811,0.681702
487699072203,0.134399,0.409302,0.592896,0.680298
487699099360,0.141785,0.410339,0.592712,0.678345
487699109834,0.149231,0.411804,0.592651,0.675903
487699132325,0.155579,0.413879,0.592285,0.673462
487699151913,0.161621,0.41571,0.592102,0.671082
487699175771,0.169312,0.416992,0.592407,0.668152
487699192272,0.178711,0.418213,0.592651,0.664673
487699211875,0.187622,0.419617,0.592957,0.661072
487699229728,0.195435,0.420593,0.593689,0.657471
487699252279,0.204041,0.421387,0.595093,0.653137
487699271826,0.213318,0.421387,0.597107,0.648315
487699289746,0.221436,0.420471,0.599487,0.643982
487699312274,0.228638,0.418457,0.601746,0.640625
487699334755,0.238159,0.417236,0.603577,0.63623
487699349723,0.249756,0.416626,0.605408,0.630371
487699372224,0.260803,0.416199,0.607422,0.624207
487699391947,0.269714,0.414856,0.609985,0.618835
487699408945,0.277405,0.413513,0.612427,0.613892
487699431390,0.285095,0.41333,0.614807,0.608093
487699452474,0.291931,0.413757,0.617432,0.601868
487699468950,0.29657,0.414062,0.620422,0.596252
487699491436,0.299622,0.414185,0.623535,0.591431
487699512524,0.302979,0.414734,0.626465,0.586182
487699528926,0.307434,0.416382,0.628906,0.580078
487699551486,0.312378,0.419006,0.63092,0.573303
487699572506,0.316589,0.421387,0.632996,0.566956
487699588939,0.317932,0.421265,0.636475,0.562317
487699611446,0.31311,0.415649,0.64325,0.561523
487699632538,0.305054,0.406494,0.651917,0.562683
487699655051,0.297607,0.398926,0.658264,0.564636
487699671455,0.292786,0.394348,0.66156,0.566589
487699692560,0.290833,0.391907,0.662842,0.567749
487699708261,0.289856,0.389893,0.66394,0.568359
487699731488,0.288574,0.388,0.665039,0.569031
487699752547,0.286621,0.386108,0.666199,0.569885
487699768975,0.285034,0.384888,0.667114,0.570496
487699791501,0.284424,0.384644,0.667419,0.570618
487699812548,0.285217,0.385437,0.666748,0.570496
487699829014,0.28656,0.387085,0.665405,0.570251
487699851418,0.287476,0.388794,0.664185,0.570068
487699873951,0.28772,0.390259,0.663269,0.569946
487699888957,0.287842,0.391785,0.662659,0.569519
487699918979,0.287903,0.393188,0.662354,0.56897
487699933996,0.287354,0.393799,0.662476,0.568726
487699948960,0.286499,0.393616,0.662781,0.568848
487699977587,0.285278,0.392822,0.66333,0.569336
487699993968,0.283752,0.391602,0.664001,0.57019
487700015050,0.281738,0.390137,0.664612,0.571472
487700031454,0.27887,0.388,0.665588,0.573181
487700053918,0.275269,0.385498,0.666565,0.575562
487700075102,0.272156,0.383362,0.667114,0.577759
487700099003,0.269897,0.381409,0.667297,0.579895
487700113920,0.267822,0.378906,0.667664,0.582092
487700135021,0.265564,0.375916,0.668396,0.584167
487700151419,0.26355,0.37323,0.66925,0.585876
487700173979,0.261658,0.370972,0.670105,0.587219
487700195039,0.26001,0.368835,0.670898,0.588318
487700211436,0.258728,0.367065,0.671692,0.589111
487700233966,0.258118,0.365356,0.672424,0.589539
487700248349,0.258667,0.363892,0.673096,0.589539
487700271503,0.261108,0.363525,0.672729,0.589111
487700293961,0.265076,0.364868,0.671204,0.588196
487700315080,0.269592,0.367859,0.668823,0.586975
487700331477,0.273682,0.371704,0.666199,0.585632
487700353920,0.276917,0.376099,0.663818,0.584045
487700374996,0.278992,0.380249,0.662109,0.582336
487700391503,0.279846,0.383667,0.661133,0.580811
487700414153,0.280396,0.386841,0.660339,0.579346
487700435012,0.280945,0.389587,0.659546,0.578003
487700451430,0.281616,0.391724,0.659058,0.576843
487700473945,0.282043,0.393066,0.658691,0.576111
487700495039,0.282288,0.393982,0.658447,0.575684
487700511927,0.282227,0.394592,0.658325,0.575378
487700533918,0.282043,0.39502,0.658325,0.575256
487700555059,0.28186,0.39502,0.658508,0.575134
487700571474,0.281616,0.394592,0.658936,0.575012
487700593953,0.281311,0.39386,0.659546,0.575012
487700615039,0.280945,0.392822,0.660339,0.575012
487700631423,0.280884,0.391968,0.66095,0.57489
487700653970,0.281067,0.391357,0.661377,0.574768
487700675013,0.281128,0.390869,0.661682,0.574646
487700691466,0.281067,0.390686,0.661743,0.574768
487700721536,0.28125,0.390991,0.661377,0.574829
487700735014,0.281677,0.391724,0.660828,0.574829
487700751458,0.281921,0.392273,0.660461,0.574707
487700773974,0.281921,0.392334,0.660461,0.574707
487700796438,0.281677,0.39209,0.660706,0.574707
487700811454,0.281494,0.391846,0.66095,0.574707
487700841461,0.28125,0.391541,0.661255,0.574646
487700856443,0.281128,0.391418,0.661438,0.574585
487700871491,0.280762,0.391296,0.661621,0.574585
487700894828,0.280273,0.390991,0.661865,0.574768
487700916455,0.279846,0.390747,0.662048,0.575012
487700930789,0.279663,0.390564,0.662048,0.575195
487700954038,0.279602,0.39032,0.662048,0.575378
487700977627,0.279419,0.390015,0.662109,0.575562
487700998973,0.279175,0.389709,0.662231,0.575745
487701021230,0.278931,0.389587,0.662354,0.575806
487701044020,0.278931,0.389587,0.662354,0.575867
487701050932,0.278931,0.389587,0.662354,0.575867
487701074024,0.278809,0.389832,0.662292,0.575806
487701096450,0.27887,0.390259,0.662109,0.575684
487701110786,0.278992,0.390686,0.661987,0.575562
487701134041,0.278931,0.390991,0.661804,0.5755
487701156470,0.278992,0.391174,0.661682,0.5755
487701170912,0.279236,0.391296,0.66156,0.575439
487701193993,0.27948,0.391418,0.661377,0.575439
487701216550,0.279541,0.391418,0.661377,0.575439
487701231313,0.279175,0.391174,0.661499,0.575623
487701253945,0.278931,0.391052,0.66156,0.575745
487701276475,0.278748,0.390808,0.661743,0.575806
487701290875,0.278442,0.390503,0.662048,0.575806
487701321444,0.278076,0.390198,0.662415,0.575745
487701336440,0.278137,0.390198,0.662415,0.575745
487701357577,0.278137,0.390015,0.662537,0.575745
487701373989,0.278076,0.389526,0.662781,0.575806
487701396474,0.277954,0.389038,0.662964,0.575989
487701417527,0.277893,0.388794,0.663025,0.576111
487701434434,0.27771,0.388733,0.663025,0.576294
487701456490,0.277283,0.388855,0.662964,0.576477
487701477527,0.276794,0.388977,0.662903,0.576599
487701493987,0.276306,0.389038,0.662964,0.576721
487701516453,0.275879,0.389038,0.663208,0.57666
487701537576,0.275391,0.388794,0.663635,0.576538
487701554449,0.274841,0.38855,0.664062,0.576538
487701576448,0.274292,0.388306,0.664429,0.576538
487701599001,0.273926,0.388062,0.664673,0.576599
487701613979,0.273682,0.387512,0.664978,0.576721
487701636494,0.273682,0.387512,0.664978,0.576721
487701657571,0.273621,0.387451,0.664978,0.576721
487701674018,0.273682,0.387451,0.665039,0.576721
487701696539,0.273682,0.387451,0.665039,0.576721
487701717509,0.273743,0.387573,0.664917,0.576721
487701733979,0.273804,0.388062,0.664673,0.57666
487701763952,0.273743,0.388611,0.664429,0.576599
487701778953,0.273621,0.389221,0.664246,0.576477
487701794055,0.273682,0.390015,0.66394,0.576233
487701816472,0.273865,0.390747,0.663574,0.57605
487701839032,0.273987,0.391479,0.663208,0.575989
487701854009,0.274231,0.391907,0.662903,0.575928
487701876481,0.274536,0.392212,0.662659,0.575867
487701899008,0.274963,0.392517,0.662292,0.575806
487701913319,0.275391,0.392639,0.662109,0.575745
487701943948,0.275452,0.392395,0.66217,0.575806
487701958995,0.275391,0.391968,0.662415,0.575867
487701973390,0.275391,0.391479,0.662598,0.575989
487701996492,0.27533,0.390869,0.662842,0.576111
487702018960,0.275269,0.39032,0.663086,0.576294
487702033963,0.275269,0.389893,0.663208,0.576416
487702056518,0.275269,0.389893,0.663208,0.576416
487702078994,0.275269,0.389832,0.663208,0.576416
487702093303,0.275269,0.389832,0.663208,0.576416
487702116471,0.275269,0.389954,0.663086,0.576477
487702139037,0.275391,0.390198,0.662964,0.576416
487702153375,0.275452,0.390625,0.662842,0.576233
487702176474,0.275513,0.391052,0.66272,0.57605
487702199020,0.275513,0.391113,0.66272,0.57605
487702213334,0.275574,0.390991,0.662659,0.576111
487702236480,0.27594,0.390808,0.662598,0.576172
487702258965,0.276428,0.390686,0.662476,0.576172
487702280066,0.277161,0.390686,0.66217,0.576172
487702296510,0.277954,0.390808,0.661804,0.57605
487702319183,0.278931,0.391052,0.661438,0.575867
487702340050,0.279785,0.391357,0.661194,0.575562
487702356533,0.280334,0.391602,0.661133,0.575195
487702378980,0.28064,0.391663,0.661194,0.574951
487702400492,0.280701,0.391479,0.661377,0.574829
487702418185,0.280518,0.391174,0.66156,0.57489
487702439004,0.280212,0.390991,0.661743,0.574951
487702460075,0.280151,0.390991,0.661743,0.575012
487702476491,0.280151,0.391052,0.661682,0.575012
487702506544,0.280334,0.390991,0.661743,0.57489
487702520117,0.280457,0.390869,0.661865,0.574768
487702536524,0.280518,0.390625,0.662109,0.574646
487702559009,0.280457,0.39032,0.662415,0.574524
487702580232,0.280212,0.390015,0.66272,0.574463
