timestamp,x,y,z,w
264848387444,0.626709,-0.182434,0.0491943,0.75592
264848402546,0.62677,-0.182434,0.050354,0.755798
264848423798,0.626953,-0.182434,0.0516968,0.755615
264848447534,0.627808,-0.182251,0.0528564,0.754883
264848462527,0.628967,-0.181763,0.053833,0.753906
264848483897,0.629639,-0.181335,0.0548706,0.753357
264848523158,0.629883,-0.181152,0.0556641,0.753174
264848545942,0.6297,-0.180969,0.0564575,0.753296
264848546765,0.629395,-0.181091,0.0571899,0.753479
264848567562,0.6297,-0.181396,0.0574341,0.753113
264848585269,0.629944,-0.182007,0.0575562,0.752747
264848605363,0.6297,-0.182739,0.0578003,0.752747
264848641084,0.628845,-0.183044,0.0577393,0.753418
264848651278,0.628296,-0.183105,0.0574951,0.753906
264848665063,0.628479,-0.183044,0.0577393,0.753723
264848686169,0.629272,-0.182739,0.0584106,0.753052
264848702607,0.629639,-0.182434,0.059021,0.752808
264848725112,0.62915,-0.182434,0.0593262,0.753174
264848746158,0.628235,-0.182617,0.0593872,0.753906
264848762531,0.628479,-0.183533,0.0595093,0.753479
264848785094,0.628967,-0.184448,0.0597534,0.752808
264848806191,0.630249,-0.184875,0.0596924,0.751587
264848822547,0.631531,-0.184998,0.0593872,0.750549
264848851808,0.632874,-0.184204,0.0582275,0.749756
264848866170,0.633728,-0.182861,0.0567627,0.749451
264848882554,0.634888,-0.181213,0.0549316,0.748962
264848905073,0.636047,-0.180054,0.0532227,0.748413
264848926155,0.636902,-0.179749,0.0513916,0.747864
264848942611,0.637146,-0.180481,0.0494385,0.74762
264848965046,0.63678,-0.182068,0.0476074,0.747681
264848986142,0.636108,-0.184204,0.0458374,0.747864
264849002574,0.635193,-0.185974,0.0431519,0.748352
264849025073,0.633667,-0.187439,0.0390015,0.749512
264849046168,0.631104,-0.189148,0.0338135,0.751465
264849062555,0.627869,-0.190796,0.0280762,0.754028
264849085091,0.625,-0.192383,0.0223389,0.756165
264849107577,0.622986,-0.193848,0.0167847,0.757568
264849122526,0.621399,-0.195007,0.0117188,0.758667
264849145073,0.619629,-0.195862,0.00750732,0.76001
264849166177,0.61792,-0.196289,0.00427246,0.761292
264849182550,0.61676,-0.196472,0.0022583,0.762207
264849205062,0.61676,-0.19635,0.00134277,0.762268
264849227603,0.617676,-0.196045,0.00134277,0.761536
264849242582,0.618774,-0.195801,0.0020752,0.760742
264849265097,0.619812,-0.195557,0.0032959,0.759888
264849287586,0.620483,-0.195251,0.0045166,0.75946
264849301764,0.620972,-0.195251,0.00549316,0.759094
264849324349,0.621277,-0.195618,0.00634766,0.758667
264849347027,0.621399,-0.19635,0.00726318,0.758423
264849363346,0.621094,-0.197327,0.00842285,0.758362
264849384442,0.620728,-0.198242,0.00976562,0.758423
264849406971,0.620422,-0.199097,0.0115967,0.758423
264849421881,0.619995,-0.199768,0.0141602,0.758545
264849444300,0.619568,-0.200256,0.0172729,0.758728
264849466781,0.619507,-0.200989,0.0209961,0.758484
264849489446,0.620667,-0.20166,0.0251465,0.757202
264849504269,0.622375,-0.202515,0.0294189,0.755432
264849526928,0.623413,-0.203308,0.0337524,0.754211
264849541109,0.62384,-0.203857,0.0377197,0.753479
264849564286,0.623962,-0.204163,0.0415039,0.753113
264849586825,0.624268,-0.204163,0.0450439,0.752686
264849601140,0.625854,-0.203674,0.0473022,0.751343
264849624301,0.627625,-0.202698,0.0481567,0.750061
264849646830,0.628418,-0.201294,0.0477905,0.749817
264849662683,0.628357,-0.200012,0.046814,0.750244
264849684500,0.628052,-0.19928,0.0463867,0.750732
264849707001,0.627563,-0.199524,0.0472412,0.751038
264849723332,0.627258,-0.200439,0.0492554,0.750916
264849744531,0.627014,-0.201843,0.0521851,0.750549
264849767034,0.62738,-0.203247,0.0553589,0.749634
264849783311,0.627075,-0.204285,0.0582275,0.74939
264849804317,0.627563,-0.204346,0.0603638,0.748779
264849826936,0.629211,-0.203491,0.0616455,0.747498
264849843314,0.630981,-0.202026,0.0622559,0.746399
264849864522,0.632202,-0.200317,0.0625,0.745789
264849886867,0.632629,-0.199158,0.0625,0.745728
264849903281,0.632141,-0.198853,0.0623779,0.746216
264849924492,0.630981,-0.199036,0.0623169,0.747192
264849947052,0.63031,-0.199402,0.062439,0.747681
264849963316,0.630432,-0.199829,0.0627441,0.747437
264849984436,0.63092,-0.199951,0.0630493,0.746948
264850006838,0.630859,-0.19989,0.0631104,0.747009
264850023293,0.630249,-0.199646,0.0629272,0.74762
264850044328,0.629395,-0.199402,0.0626221,0.748413
264850066794,0.628845,-0.199097,0.0621948,0.749023
264850083320,0.628235,-0.198792,0.0615845,0.749634
264850104315,0.627747,-0.198669,0.0610962,0.750122
264850126841,0.627319,-0.198975,0.06073,0.750366
264850143355,0.626892,-0.199402,0.0604858,0.750671
264850164397,0.626465,-0.199829,0.0605469,0.750916
264850186859,0.62616,-0.200256,0.0606689,0.751038
264850202702,0.62616,-0.200562,0.060791,0.750916
264850224530,0.626221,-0.200806,0.06073,0.750793
264850247006,0.625916,-0.200928,0.0603638,0.751038
264850262635,0.62561,-0.201172,0.0600586,0.751343
264850285784,0.625366,-0.201355,0.0596924,0.751465
264850306842,0.625061,-0.201599,0.0594482,0.751709
264850322695,0.62439,-0.202026,0.0592041,0.752197
264850345963,0.623474,-0.202576,0.05896,0.752808
264850366926,0.622253,-0.203003,0.0586548,0.753662
264850382646,0.621277,-0.203369,0.0587158,0.754456
264850405789,0.620972,-0.203613,0.0591431,0.754578
264850426945,0.621277,-0.203918,0.0598755,0.754211
264850442696,0.621826,-0.203979,0.0603638,0.753662
264850466003,0.621826,-0.203979,0.0603638,0.753662
264850486864,0.621338,-0.203857,0.0601807,0.754089
264850502637,0.620911,-0.203979,0.0600586,0.754456
264850525772,0.620911,-0.203918,0.0600586,0.754456
264850546790,0.620911,-0.203918,0.0599976,0.754456
264850562576,0.621094,-0.203796,0.0598755,0.754333
264850585744,0.621094,-0.203735,0.0598755,0.754333
264850606824,0.621094,-0.203735,0.0598755,0.754395
264850622630,0.621094,-0.203735,0.0598755,0.754333
264850645753,0.621094,-0.203796,0.0598755,0.754333
264850667016,0.621094,-0.203796,0.0598755,0.754395
264850682652,0.621033,-0.203796,0.0598755,0.754395
264850705786,0.620972,-0.203918,0.0596924,0.754456
264850727049,0.620911,-0.204041,0.0594482,0.754456
264850742671,0.620911,-0.204224,0.059021,0.754456
264850765913,0.620789,-0.204529,0.0587158,0.754517
264850786846,0.620483,-0.204895,0.0587769,0.754639
264850802657,0.620605,-0.205261,0.059021,0.754456
264850825904,0.621765,-0.205811,0.0598755,0.753235
264850846900,0.624023,-0.206238,0.0605469,0.751221
264850862743,0.627869,-0.20636,0.0601196,0.747986
264850885796,0.63208,-0.20697,0.0592041,0.744324
264850906829,0.635498,-0.207336,0.057373,0.741455
264850922606,0.63678,-0.20636,0.0525513,0.741028
264850945817,0.63562,-0.20459,0.0460205,0.74292
264850966985,0.634521,-0.20282,0.0390625,0.744751
264850982709,0.635193,-0.201355,0.0322876,0.744873
264851005839,0.63678,-0.199585,0.0241089,0.744324
264851027035,0.636353,-0.19696,0.013855,0.745667
264851042793,0.633667,-0.193604,0.00280762,0.748962
264851065837,0.631531,-0.1922,-0.00738525,0.751038
264851086897,0.630493,-0.191956,-0.0180664,0.75177
264851102618,0.629211,-0.19281,-0.0285645,0.752319
264851125263,0.628052,-0.194092,-0.0391235,0.752502
264851146948,0.626953,-0.195557,-0.0495605,0.752441
264851162715,0.624756,-0.197021,-0.0598145,0.753113
264851185199,0.622803,-0.19928,-0.0690308,0.753357
264851208329,0.622192,-0.202209,-0.0768433,0.75238
264851222706,0.621826,-0.204834,-0.0841064,0.75116
264851245218,0.62085,-0.206909,-0.0911865,0.750549
264851268382,0.619751,-0.208862,-0.0981445,0.750061
264851282626,0.617981,-0.210693,-0.105164,0.75
264851305166,0.614624,-0.211975,-0.112,0.751465
264851328402,0.608154,-0.212524,-0.119141,0.755432
264851342672,0.599426,-0.212769,-0.125244,0.761353
264851365141,0.593201,-0.213623,-0.129761,0.765259
264851388245,0.59082,-0.215332,-0.13324,0.765991
264851409371,0.590881,-0.217346,-0.13562,0.764954
264851455141,0.590149,-0.218384,-0.138123,0.764771
264851455838,0.588257,-0.218384,-0.140686,0.765747
264851470783,0.586548,-0.218018,-0.142883,0.766785
264851485855,0.585571,-0.217407,-0.144653,0.767395
264851515238,0.584595,-0.218079,-0.145813,0.7677
264851538309,0.582642,-0.214661,-0.148804,0.769531
264851553280,0.579651,-0.21698,-0.148682,0.771179
264851575912,0.579346,-0.219238,-0.148682,0.770813
264851598346,0.579529,-0.22168,-0.148438,0.769958
264851613442,0.577271,-0.225403,-0.146912,0.770935
264851635776,0.573364,-0.226624,-0.146484,0.77356
264851642617,0.576233,-0.221191,-0.151123,0.772095
264851665131,0.579224,-0.22052,-0.151978,0.769897
264851688271,0.574951,-0.221375,-0.151062,0.77301
264851709360,0.576355,-0.220703,-0.1521,0.771912
264851725099,0.577576,-0.220825,-0.152039,0.770996
264851748359,0.579102,-0.220825,-0.152161,0.769836
264851769528,0.578857,-0.220154,-0.152649,0.770081
264851785207,0.578735,-0.21936,-0.153198,0.770325
264851808384,0.579285,-0.218628,-0.153503,0.77002
264851829541,0.579712,-0.218079,-0.153748,0.769897
264851845158,0.580017,-0.217468,-0.153992,0.769714
264851868409,0.580261,-0.216797,-0.154358,0.769653
264851889544,0.580811,-0.216309,-0.154663,0.769348
264851905121,0.581238,-0.215393,-0.155029,0.769165
264851935781,0.581787,-0.214661,-0.155457,0.768921
264851949441,0.582092,-0.213989,-0.156006,0.768738
264851965155,0.582642,-0.213684,-0.15625,0.768372
264851988247,0.583191,-0.213623,-0.156555,0.767944
264852009366,0.583923,-0.213501,-0.15686,0.767273
264852025158,0.584534,-0.213257,-0.157227,0.766846
264852048409,0.584473,-0.212769,-0.157837,0.766907
264852094127,0.584778,-0.212646,-0.158264,0.766663
264852094922,0.585083,-0.212646,-0.15863,0.766296
264852107623,0.585327,-0.212585,-0.158936,0.766052
264852131013,0.585632,-0.212402,-0.159607,0.765747
264852146680,0.584717,-0.210938,-0.159912,0.766785
264852175898,0.587341,-0.209473,-0.160889,0.765015
264852198352,0.585144,-0.209595,-0.160461,0.766724
264852219431,0.581543,-0.212952,-0.157959,0.769043
264852235895,0.577576,-0.216614,-0.154968,0.771606
264852258279,0.573486,-0.218811,-0.152771,0.774475
264852279387,0.570801,-0.218018,-0.152771,0.776733
264852287604,0.572571,-0.213806,-0.155762,0.776001
264852310831,0.578003,-0.210449,-0.158569,0.772278
264852325155,0.576355,-0.214417,-0.15564,0.77301
264852347629,0.577209,-0.213623,-0.156006,0.772522
264852370829,0.57782,-0.213562,-0.155884,0.772156
264852385139,0.577881,-0.213501,-0.155945,0.772095
264852407656,0.577942,-0.21344,-0.156006,0.772034
264852430885,0.578308,-0.213257,-0.156006,0.77179
264852445288,0.578735,-0.213074,-0.156189,0.771484
264852467795,0.579163,-0.213013,-0.156372,0.771179
264852490883,0.579651,-0.212891,-0.156555,0.770752
264852505192,0.579773,-0.21283,-0.156616,0.770691
264852527722,0.579834,-0.212769,-0.156677,0.770691
264852550910,0.579895,-0.212708,-0.156738,0.77063
264852571953,0.580261,-0.212769,-0.156616,0.770325
264852587645,0.580688,-0.212708,-0.156433,0.770081
264852610804,0.581177,-0.212646,-0.15625,0.769775
264852625123,0.581482,-0.212463,-0.15625,0.769592
264852647617,0.581726,-0.21228,-0.156311,0.76947
264852670781,0.58197,-0.212158,-0.156311,0.769287
264852691999,0.582397,-0.212097,-0.156311,0.768982
264852707788,0.582703,-0.212097,-0.156189,0.768799
264852730953,0.582764,-0.212097,-0.156189,0.768738
264852752075,0.582825,-0.212036,-0.15625,0.768677
264852767741,0.583252,-0.211914,-0.156372,0.768372
264852790937,0.583313,-0.211853,-0.156433,0.768311
264852812051,0.583374,-0.211792,-0.156494,0.768311
264852827738,0.583435,-0.211731,-0.156555,0.76825
264852850908,0.583496,-0.211731,-0.156555,0.768188
264852872003,0.583557,-0.21167,-0.156616,0.768188
264852887741,0.583618,-0.21167,-0.156616,0.768127
264852910870,0.583618,-0.21167,-0.156677,0.768066
264852931852,0.583679,-0.211609,-0.156677,0.768066
264852947638,0.58374,-0.211548,-0.156738,0.768005
264852970843,0.583801,-0.211487,-0.156799,0.768005
264852991894,0.583801,-0.211426,-0.156799,0.767944
264853007660,0.583862,-0.211426,-0.15686,0.767944
264853030306,0.584045,-0.211182,-0.156799,0.767883
264853052113,0.584045,-0.210754,-0.156982,0.767944
264853067072,0.584106,-0.210693,-0.157043,0.767883
264853081437,0.584229,-0.210632,-0.157104,0.767822
264853103777,0.58429,-0.210571,-0.157166,0.767761
264853127081,0.584351,-0.210571,-0.157227,0.767761
264853141450,0.584412,-0.210571,-0.157227,0.7677
264853163870,0.584412,-0.21051,-0.157227,0.7677
264853186970,0.584412,-0.21051,-0.157227,0.7677
264853201399,0.584839,-0.210449,-0.15741,0.767395
264853223897,0.584839,-0.210388,-0.157471,0.767334
264853247081,0.585205,-0.210083,-0.157776,0.76709
264853261295,0.585571,-0.209656,-0.158325,0.766846
264853283793,0.585632,-0.209167,-0.158813,0.766785
264853306991,0.585938,-0.20874,-0.159241,0.766602
264853321232,0.585938,-0.208679,-0.159302,0.766602
264853343778,0.585999,-0.208618,-0.159302,0.766602
264853367081,0.585999,-0.208618,-0.159363,0.766541
264853381435,0.585999,-0.208618,-0.159363,0.766541
264853403810,0.58606,-0.208618,-0.159363,0.766541
264853427081,0.586304,-0.208618,-0.159241,0.766357
264853441438,0.586548,-0.208679,-0.159058,0.766174
264853463676,0.586792,-0.20874,-0.158936,0.765991
264853486894,0.586853,-0.208679,-0.158997,0.765991
264853501200,0.586853,-0.208618,-0.159058,0.765991
264853523751,0.587219,-0.208496,-0.159058,0.765747
264853547100,0.587524,-0.208435,-0.159119,0.765503
264853561421,0.587585,-0.208435,-0.159119,0.765442
264853583885,0.587769,-0.208191,-0.159485,0.76532
264853607067,0.587891,-0.207886,-0.15979,0.765198
264853621284,0.587891,-0.207825,-0.15979,0.765198
264853643961,0.587952,-0.207825,-0.159851,0.765198
264853667114,0.587952,-0.207825,-0.159851,0.765198
264853681448,0.588013,-0.207764,-0.159851,0.765137
264853703807,0.588074,-0.207886,-0.159851,0.765076
264853727068,0.588196,-0.207947,-0.15979,0.764954
264853741194,0.588318,-0.20813,-0.159607,0.764832
264853763699,0.588318,-0.208252,-0.159546,0.764893
264853786870,0.588379,-0.208313,-0.159424,0.764832
264853801199,0.58844,-0.208313,-0.159424,0.764771
264853823706,0.588623,-0.208374,-0.159363,0.764648
264853847053,0.588684,-0.208374,-0.159363,0.764587
264853861414,0.588684,-0.208374,-0.159424,0.764587
264853883954,0.588745,-0.208313,-0.159424,0.764526
264853907079,0.588745,-0.208313,-0.159424,0.764526
264853921243,0.588806,-0.208252,-0.159485,0.764526
264853943959,0.588806,-0.208252,-0.159485,0.764526
264853967192,0.588806,-0.208191,-0.159546,0.764465
264853981419,0.588867,-0.20813,-0.159546,0.764465
264854003783,0.588867,-0.20813,-0.159607,0.764465
264854027102,0.588867,-0.20813,-0.159607,0.764465
264854041322,0.588928,-0.208069,-0.159607,0.764404
264854071927,0.589111,-0.208191,-0.159668,0.764221
264854086267,0.589111,-0.20813,-0.159729,0.764221
264854101200,0.589172,-0.208191,-0.159668,0.76416
264854123764,0.588867,-0.208557,-0.159424,0.764404
264854146260,0.589172,-0.209351,-0.158997,0.764038
264854161246,0.589294,-0.210205,-0.158691,0.763733
264854183708,0.589661,-0.210815,-0.158569,0.763306
264854206260,0.589905,-0.210754,-0.158691,0.763123
264854221296,0.589905,-0.210693,-0.158691,0.763123
264854243930,0.589905,-0.210632,-0.158752,0.763123
264854266379,0.590149,-0.210815,-0.158936,0.762817
264854281471,0.590698,-0.211121,-0.159302,0.762329
264854303803,0.591125,-0.211182,-0.159729,0.761841
264854326345,0.591187,-0.210876,-0.160156,0.76178
264854341285,0.591248,-0.210815,-0.160217,0.76178
264854363918,0.591125,-0.210632,-0.160278,0.761902
264854386304,0.590759,-0.210632,-0.160278,0.762207
264854401356,0.590698,-0.210632,-0.160217,0.762207
264854423896,0.59082,-0.210815,-0.160034,0.762085
264854446474,0.591064,-0.210876,-0.159851,0.761963
264854461476,0.591431,-0.210815,-0.159668,0.761719
264854485313,0.591431,-0.210754,-0.159729,0.761719
264854506365,0.591431,-0.210693,-0.15979,0.761719
264854521265,0.591431,-0.210693,-0.15979,0.761719
264854543881,0.591492,-0.210327,-0.160095,0.761719
264854566448,0.591675,-0.210083,-0.160278,0.761597
264854581455,0.591675,-0.210083,-0.160278,0.761597
264854603859,0.591675,-0.210022,-0.160339,0.761597
264854626436,0.591675,-0.210022,-0.160339,0.761597
264854641353,0.591736,-0.210022,-0.160339,0.761597
264854663916,0.591736,-0.210022,-0.160339,0.761536
264854686391,0.591736,-0.209961,-0.1604,0.761536
264854701438,0.591797,-0.209961,-0.1604,0.761536
264854723707,0.591797,-0.2099,-0.1604,0.761536
264854746218,0.591797,-0.2099,-0.160461,0.761536
264854761262,0.591858,-0.209839,-0.160461,0.761475
264854783773,0.591858,-0.209839,-0.160461,0.761475
264854806265,0.591858,-0.209839,-0.160522,0.761475
264854829421,0.591858,-0.209839,-0.160522,0.761475
264854843762,0.591919,-0.209778,-0.160522,0.761475
264854866244,0.591919,-0.209778,-0.160583,0.761475
264854881429,0.591919,-0.209717,-0.160583,0.761475
264854911983,0.591919,-0.209656,-0.160645,0.761475
264854926393,0.591919,-0.209656,-0.160645,0.761414
264854942795,0.59198,-0.209656,-0.160706,0.761414
264854963958,0.591919,-0.209595,-0.160706,0.761414
264854986526,0.59198,-0.209534,-0.160767,0.761414
264855002818,0.59198,-0.209534,-0.160767,0.761414
264855023782,0.592041,-0.209534,-0.160767,0.761414
264855046257,0.592041,-0.209473,-0.160767,0.761353
264855062753,0.592041,-0.209473,-0.160828,0.761353
264855083953,0.592041,-0.209473,-0.160828,0.761353
264855106252,0.592041,-0.209412,-0.160828,0.761353
264855122712,0.592041,-0.209412,-0.160828,0.761353
264855143783,0.592102,-0.209473,-0.160767,0.761353
264855166263,0.592102,-0.209473,-0.160828,0.761353
264855182705,0.592102,-0.209412,-0.160828,0.761353
264855203769,0.592102,-0.209412,-0.160889,0.761353
264855226365,0.592102,-0.209351,-0.160889,0.761353
264855242778,0.592102,-0.209351,-0.160889,0.761353
264855264032,0.592102,-0.209351,-0.160889,0.761353
264855286449,0.592102,-0.20929,-0.16095,0.761353
264855302790,0.592102,-0.20929,-0.16095,0.761353
264855323982,0.592102,-0.209229,-0.16095,0.761353
264855346239,0.592102,-0.209229,-0.161011,0.761353
264855362745,0.592102,-0.209229,-0.161011,0.761353
264855383767,0.592041,-0.209229,-0.161011,0.761353
264855406415,0.592407,-0.209412,-0.160889,0.761047
264855422755,0.592773,-0.209717,-0.160645,0.760803
264855443931,0.593262,-0.2099,-0.160278,0.760376
264855466242,0.593689,-0.2099,-0.160034,0.760132
264855482722,0.593811,-0.209717,-0.159912,0.760071
264855503766,0.593933,-0.209534,-0.159851,0.760132
264855526316,0.594177,-0.209351,-0.159851,0.759949
264855542672,0.594299,-0.209167,-0.15979,0.759888
264855563749,0.594299,-0.209106,-0.159851,0.759949
264855586215,0.59436,-0.208679,-0.160034,0.759949
264855602796,0.594421,-0.208252,-0.160339,0.759949
264855623952,0.59436,-0.208069,-0.160522,0.76001
264855646534,0.59436,-0.208069,-0.160522,0.76001
264855662818,0.594666,-0.208252,-0.160461,0.759766
264855683969,0.594849,-0.208313,-0.160339,0.759583
264855706334,0.594849,-0.208313,-0.160339,0.759583
264855722774,0.594849,-0.208252,-0.1604,0.759583
264855743962,0.594727,-0.207886,-0.160522,0.759766
264855766409,0.594727,-0.207886,-0.160583,0.759766
264855782802,0.594666,-0.207886,-0.160583,0.759827
264855803841,0.594727,-0.207825,-0.160461,0.759827
264855826516,0.594727,-0.207825,-0.160461,0.759827
264855842746,0.594727,-0.207825,-0.160461,0.759766
264855865247,0.594788,-0.207764,-0.160522,0.759766
264855886404,0.594788,-0.207703,-0.160583,0.759766
264855902796,0.594788,-0.207703,-0.160583,0.759766
264855925322,0.59491,-0.207825,-0.160583,0.759644
264855946300,0.59491,-0.207825,-0.160583,0.759644
264855962696,0.59491,-0.207825,-0.160583,0.759644
264855985214,0.59491,-0.207764,-0.160583,0.759644
264856006272,0.595032,-0.207825,-0.160706,0.759521
264856022687,0.595093,-0.207764,-0.160706,0.75946
264856045209,0.595093,-0.207764,-0.160767,0.75946
264856066222,0.595093,-0.207764,-0.160767,0.75946
264856082810,0.595093,-0.207764,-0.160767,0.75946
264856105181,0.595093,-0.207703,-0.160767,0.75946
264856126456,0.595093,-0.207703,-0.160828,0.75946
264856142816,0.595154,-0.207703,-0.160828,0.75946
264856165260,0.595154,-0.207642,-0.160828,0.75946
264856186544,0.595154,-0.207642,-0.160828,0.75946
264856202777,0.595154,-0.207642,-0.160828,0.75946
264856225330,0.595154,-0.207581,-0.160889,0.75946
264856246488,0.595154,-0.207581,-0.160889,0.75946
264856262781,0.595154,-0.207581,-0.160889,0.75946
264856285360,0.595154,-0.207581,-0.160889,0.75946
264856306357,0.595154,-0.20752,-0.16095,0.75946
264856322799,0.595154,-0.20752,-0.16095,0.759399
264856345483,0.595215,-0.20752,-0.16095,0.759399
264856374435,0.595215,-0.20752,-0.16095,0.759399
264856382719,0.595215,-0.207458,-0.161011,0.759399
264856405217,0.595215,-0.207397,-0.161011,0.759399
264856426224,0.595215,-0.207397,-0.161011,0.759399
264856442708,0.595215,-0.207397,-0.161072,0.759399
264856465300,0.595215,-0.207397,-0.161072,0.759399
264856486461,0.595093,-0.207031,-0.161133,0.759583
264856502796,0.59491,-0.206787,-0.161133,0.759766
264856525333,0.594604,-0.206543,-0.16095,0.760132
264856546534,0.594421,-0.206238,-0.160706,0.760437
264856562813,0.594421,-0.205566,-0.160522,0.76062
264856585326,0.59491,-0.205078,-0.160034,0.760498
264856606369,0.597717,-0.205017,-0.158875,0.758545
264856622804,0.600769,-0.204712,-0.157837,0.75647
264856645351,0.602478,-0.203796,-0.156982,0.755493
264856666330,0.604309,-0.202454,-0.156067,0.754578
264856682746,0.605835,-0.200684,-0.155273,0.753967
264856705229,0.607178,-0.198547,-0.154053,0.753723
264856734480,0.608459,-0.196594,-0.152466,0.75354
264856742811,0.610779,-0.195679,-0.149963,0.75238
264856765330,0.614075,-0.195496,-0.147156,0.750305
264856786494,0.617737,-0.195435,-0.144775,0.747803
264856802810,0.620728,-0.195129,-0.143311,0.745667
264856825320,0.622925,-0.194336,-0.1427,0.744141
264856847199,0.625244,-0.193604,-0.142334,0.742493
264856862148,0.627869,-0.193115,-0.14209,0.740417
264856884561,0.630005,-0.192688,-0.141907,0.738708
264856907034,0.631409,-0.192078,-0.141968,0.737732
264856923467,0.632507,-0.191772,-0.14209,0.736816
264856944681,0.633789,-0.191956,-0.141846,0.735718
264856966982,0.636475,-0.193054,-0.140564,0.733337
264856983377,0.640625,-0.194763,-0.138855,0.729614
264857004421,0.645264,-0.19574,-0.137512,0.725464
264857026982,0.649109,-0.193359,-0.139709,0.722229
264857043431,0.647827,-0.191772,-0.13855,0.72406
264857064681,0.645081,-0.189209,-0.137329,0.727417
264857087056,0.643982,-0.18634,-0.135315,0.729492
264857103413,0.644165,-0.184265,-0.133057,0.730286
264857124641,0.645386,-0.182312,-0.13031,0.730164
264857148542,0.647217,-0.180481,-0.127441,0.729492
264857163568,0.648987,-0.179138,-0.124512,0.728821
264857184563,0.651245,-0.178406,-0.120605,0.7276
264857206971,0.655334,-0.18042,-0.115967,0.724243
264857223399,0.660645,-0.184082,-0.111572,0.719116
264857244587,0.666321,-0.188232,-0.107117,0.713501
264857267229,0.669739,-0.189758,-0.104004,0.710327
264857283498,0.670898,-0.189941,-0.100647,0.709656
264857304530,0.671875,-0.18988,-0.0970459,0.70929
264857327048,0.673462,-0.189941,-0.0930176,0.708252
264857343469,0.675354,-0.190125,-0.0882568,0.707031
264857364719,0.676636,-0.190735,-0.0812378,0.706482
264857386974,0.67688,-0.191589,-0.0734863,0.706909
264857410875,0.679016,-0.191589,-0.0662842,0.705505
264857424480,0.68158,-0.190857,-0.0598755,0.703796
264857446990,0.685181,-0.19043,-0.053894,0.700928
264857463382,0.690796,-0.191895,-0.0477295,0.695435
264857484647,0.697632,-0.194641,-0.0409546,0.688232
264857507042,0.702942,-0.19751,-0.0346069,0.682312
264857523484,0.705017,-0.19928,-0.0299072,0.679932
264857544690,0.705627,-0.200317,-0.0253906,0.679138
264857567183,0.706604,-0.201965,-0.0204468,0.677795
264857583444,0.709351,-0.204285,-0.015625,0.674377
264857604503,0.713379,-0.206299,-0.0117188,0.669556
264857627181,0.716614,-0.207153,-0.00854492,0.665894
264857643558,0.717163,-0.207336,-0.00585938,0.665283
264857664701,0.715942,-0.207642,-0.00299072,0.666504
264857687033,0.714966,-0.208191,0.000183105,0.667419
264857703480,0.71405,-0.208191,0.00286865,0.668335
264857724463,0.71582,-0.20874,0.00463867,0.66626
264857746909,0.717163,-0.209412,0.00695801,0.664612
264857762783,0.719482,-0.209656,0.0098877,0.661987
264857784402,0.722595,-0.208923,0.0126953,0.658813
264857806970,0.724304,-0.207153,0.0150146,0.65741
264857822834,0.724548,-0.204224,0.0170898,0.657959
264857844702,0.725037,-0.200928,0.0197144,0.658386
264857867197,0.725464,-0.197876,0.0221558,0.658752
264857882849,0.726562,-0.195435,0.0233154,0.658264
264857905959,0.727539,-0.193726,0.0232544,0.657715
264857927151,0.727478,-0.192688,0.0223999,0.658081
264857942799,0.727417,-0.192078,0.0211182,0.658386
264857966479,0.727722,-0.191772,0.0195923,0.658142
264857987018,0.728638,-0.191467,0.0179443,0.657349
264858002776,0.72876,-0.190674,0.0159912,0.65741
264858026026,0.72876,-0.189819,0.0141602,0.657776
264858046956,0.728516,-0.188904,0.0126953,0.658264
264858062759,0.729126,-0.189331,0.0109863,0.657532
264858085902,0.729248,-0.190613,0.0102539,0.657043
264858107223,0.728943,-0.19104,0.00982666,0.657227
264858122786,0.728333,-0.190674,0.010437,0.65802
264858146020,0.727173,-0.190552,0.012085,0.659302
264858167178,0.725403,-0.191223,0.0143433,0.661011
264858182870,0.722778,-0.192566,0.017395,0.663391
264858205959,0.718933,-0.19342,0.0223999,0.667175
264858227151,0.714478,-0.193054,0.0288696,0.671814
264858242926,0.710754,-0.193237,0.0349121,0.675415
264858266064,0.708435,-0.195923,0.0404053,0.676758
264858287083,0.707947,-0.199463,0.0467529,0.675781
264858302882,0.709351,-0.201904,0.0534058,0.673157
264858325893,0.711731,-0.202637,0.05896,0.669922
264858346938,0.714539,-0.20166,0.0625,0.666931
264858362760,0.716919,-0.199219,0.0637817,0.664978
264858385966,0.717773,-0.196594,0.0629272,0.664978
264858406969,0.718323,-0.194641,0.0617065,0.665039
264858422834,0.719421,-0.193787,0.0612183,0.664062
264858445981,0.720825,-0.194214,0.0616455,0.662476
264858467223,0.721313,-0.195129,0.0626831,0.661499
264858482878,0.720886,-0.196289,0.064209,0.661499
264858505927,0.71991,-0.197815,0.0662231,0.661926
264858527215,0.718872,-0.199707,0.0686646,0.662231
264858542890,0.718994,-0.201233,0.0712891,0.661316
264858566055,0.72052,-0.201782,0.0732422,0.659302
264858587087,0.721619,-0.201599,0.0742798,0.65802
264858602914,0.721741,-0.200745,0.0742798,0.658203
264858626033,0.720886,-0.19989,0.0736084,0.659424
264858647123,0.720215,-0.199585,0.0734863,0.660339
264858662775,0.720642,-0.199768,0.0739136,0.659729
264858685935,0.721497,-0.200317,0.0745239,0.658569
264858706990,0.721863,-0.200989,0.0750122,0.657898
264858722753,0.721985,-0.201416,0.0754395,0.657532
264858745288,0.721802,-0.20166,0.0757446,0.657715
264858767187,0.721741,-0.201538,0.0761108,0.657715
264858782877,0.721924,-0.201172,0.0762329,0.657654
264858805242,0.721924,-0.201111,0.0762329,0.657654
264858828622,0.721558,-0.201111,0.0759277,0.658081
264858842905,0.720764,-0.201233,0.0758667,0.658875
264858865361,0.720093,-0.201355,0.076416,0.659546
264858888450,0.719604,-0.200989,0.0769653,0.660156
264858902802,0.719482,-0.200012,0.076416,0.660645
264858925358,0.719299,-0.197083,0.0739746,0.661987
264858948510,0.718079,-0.193115,0.0686646,0.665039
264858962944,0.717773,-0.18866,0.0620117,0.667297
264858985270,0.717957,-0.182434,0.0546265,0.669495
264859008449,0.717346,-0.1745,0.0458984,0.672913
264859022798,0.71582,-0.164612,0.0359497,0.677612
264859045246,0.713562,-0.153503,0.0247192,0.683105
264859068413,0.709961,-0.141418,0.0126343,0.689758
264859091022,0.705566,-0.128296,-0.000427246,0.696838
264859105278,0.70166,-0.114746,-0.0135498,0.703003
264859128531,0.697449,-0.100647,-0.0273438,0.708923
264859157200,0.692322,-0.0856934,-0.0418091,0.71521
264859165304,0.685852,-0.069458,-0.057251,0.722046
264859188528,0.677795,-0.0524292,-0.072937,0.729675
264859209764,0.668884,-0.0342407,-0.0888062,0.737183
264859225304,0.659424,-0.0140991,-0.104919,0.744263
264859248523,0.649414,0.00744629,-0.12146,0.750549
264859269537,0.638062,0.0304565,-0.139038,0.756653
264859285451,0.625732,0.0531616,-0.155396,0.762512
264859308496,0.612976,0.0769653,-0.172424,0.767151
264859329757,0.600281,0.100891,-0.188354,0.770691
264859345352,0.587036,0.125122,-0.204285,0.773254
264859368562,0.574097,0.148132,-0.220093,0.774536
264859389557,0.561279,0.170288,-0.234619,0.775146
264859405247,0.548218,0.191589,-0.248901,0.775085
264859428543,0.534241,0.212463,-0.262268,0.774963
264859449562,0.519348,0.232849,-0.274536,0.775024
264859465285,0.50415,0.252014,-0.286255,0.77478
264859488473,0.489136,0.269775,-0.297791,0.774109
264859509715,0.474182,0.286499,-0.309753,0.772644
264859525387,0.458374,0.302795,-0.321533,0.771179
264859548537,0.441284,0.319153,-0.332336,0.769958
264859569772,0.423767,0.335327,-0.342163,0.768677
264859585414,0.406067,0.350708,-0.351257,0.767212
264859608546,0.388489,0.364624,-0.359558,0.765991
264859629750,0.371338,0.377075,-0.367859,0.764526
264859645356,0.353455,0.388794,-0.375793,0.763306
264859667748,0.335266,0.400146,-0.38324,0.761963
264859689601,0.318237,0.411316,-0.390198,0.759766
264859705257,0.302673,0.422852,-0.396973,0.756287
264859727838,0.288635,0.434875,-0.404602,0.750854
264859749452,0.277039,0.448059,-0.41449,0.742065
264859765339,0.264648,0.46228,-0.425293,0.731628
264859787825,0.251587,0.476074,-0.434814,0.721741
264859810987,0.238708,0.489868,-0.443787,0.711365
264859825410,0.226807,0.50238,-0.453735,0.700134
264859847910,0.214417,0.514099,-0.463379,0.689148
264859870968,0.201538,0.525146,-0.471619,0.679077
264859885405,0.188965,0.53363,-0.479675,0.670349
264859907889,0.177246,0.540039,-0.487061,0.663086
264859931059,0.166626,0.545837,-0.492859,0.656738
264859945374,0.156799,0.551208,-0.497803,0.65094
264859967836,0.147583,0.556213,-0.501221,0.646179
264859991001,0.139954,0.560181,-0.502869,0.643188
264860013640,0.133972,0.563232,-0.503479,0.641357
264860027875,0.129028,0.565979,-0.503357,0.640015
264860051030,0.124023,0.569885,-0.501831,0.638733
264860072090,0.120239,0.573242,-0.500671,0.63739
264860087802,0.11908,0.574219,-0.501038,0.636353
264860118649,0.119202,0.5755,-0.500244,0.635864
264860132190,0.118408,0.57843,-0.49762,0.635376
264860147808,0.117371,0.581238,-0.495667,0.634521
264860170994,0.117188,0.582642,-0.494995,0.633789
264860192166,0.11792,0.58374,-0.494202,0.63324
264860207810,0.119263,0.585327,-0.49292,0.632568
264860231070,0.120911,0.587097,-0.491394,0.631775
264860245476,0.122742,0.588135,-0.490356,0.631348
264860267804,0.125061,0.587769,-0.489807,0.631592
264860290976,0.127747,0.587463,-0.488403,0.632446
264860312105,0.130432,0.588135,-0.485657,0.633423
264860327780,0.133301,0.588623,-0.482788,0.634521
264860350938,0.137268,0.588074,-0.480835,0.635681
264860372093,0.142273,0.587036,-0.478516,0.637268
264860387826,0.148071,0.585815,-0.475403,0.639404
264860411122,0.154297,0.5849,-0.471802,0.641418
264860432112,0.16156,0.583374,-0.468445,0.643494
264860447931,0.169922,0.581299,-0.464661,0.645935
264860470988,0.179321,0.578674,-0.460022,0.649109
264860492214,0.189514,0.575623,-0.454346,0.652893
264860507953,0.2005,0.57196,-0.448547,0.656799
264860531067,0.212769,0.567261,-0.442932,0.660828
264860552238,0.226562,0.561096,-0.437256,0.665222
264860567908,0.241821,0.553711,-0.430054,0.670776
264860590387,0.256409,0.545837,-0.420654,0.677734
264860603933,0.270874,0.536987,-0.4104,0.685425
264860627221,0.286926,0.525391,-0.401062,0.693359
264860641550,0.304871,0.51062,-0.392334,0.70166
264860664124,0.323486,0.495361,-0.38269,0.709534
264860687180,0.340393,0.480408,-0.372498,0.717346
264860701572,0.355408,0.464844,-0.362,0.725647
264860723974,0.370361,0.447754,-0.351013,0.734192
264860747275,0.38623,0.430054,-0.339417,0.742065
264860761513,0.403381,0.412781,-0.328064,0.747803
264860783937,0.419678,0.396301,-0.317139,0.752441
264860807107,0.435059,0.379333,-0.306763,0.756714
264860821428,0.451172,0.361206,-0.296326,0.760315
264860844058,0.470703,0.34198,-0.28595,0.761353
264860867217,0.491577,0.323303,-0.275208,0.760254
264860881592,0.510315,0.306152,-0.263062,0.759338
264860903893,0.527466,0.288513,-0.25061,0.758728
264860927229,0.544678,0.26947,-0.237854,0.75769
264860941573,0.562317,0.249634,-0.225098,0.755432
264860964109,0.581238,0.229492,-0.211426,0.751465
264860987239,0.599976,0.209717,-0.196838,0.74646
264861001624,0.616333,0.19043,-0.181091,0.74231
264861024077,0.630127,0.170044,-0.16571,0.739258
264861047188,0.642944,0.148499,-0.151428,0.735901
264861061371,0.656006,0.126099,-0.137451,0.731262
264861084032,0.66925,0.104004,-0.122803,0.725342
264861107149,0.680908,0.0831299,-0.106995,0.719666
264861121441,0.688721,0.062439,-0.0911865,0.716492
264861144161,0.694946,0.0411987,-0.0769043,0.713684
264861167284,0.701599,0.0192261,-0.0643311,0.709351
264861182914,0.708618,-0.00219727,-0.0518799,0.703613
264861203990,0.714844,-0.0212402,-0.0394287,0.697754
264861227302,0.719849,-0.0386963,-0.0275269,0.692444
264861241419,0.723022,-0.0551758,-0.0161743,0.688354
264861263881,0.724609,-0.0709839,-0.00634766,0.685425
264861287085,0.727356,-0.0857544,0.00213623,0.680847
264861301384,0.731506,-0.098877,0.010376,0.6745
264861323968,0.735474,-0.110168,0.0189209,0.668213
264861347298,0.736633,-0.119507,0.0264282,0.665039
264861361529,0.736572,-0.126892,0.0319824,0.663513
264861383987,0.735291,-0.133667,0.0369263,0.66333
264861407044,0.734192,-0.139771,0.041748,0.663025
264861421440,0.734192,-0.144653,0.0462646,0.661682
264861444099,0.735291,-0.147888,0.050293,0.659485
264861467122,0.737061,-0.14978,0.0535889,0.656799
264861481496,0.739258,-0.151001,0.0563965,0.653809
264861504091,0.740967,-0.151794,0.0588989,0.651428
264861527269,0.741577,-0.152649,0.060791,0.650391
264861541628,0.741638,-0.153564,0.0620728,0.649963
264861564109,0.742126,-0.154419,0.0631714,0.649109
264861587096,0.742493,-0.154968,0.0639038,0.648499
264861601534,0.742188,-0.155396,0.0639648,0.648743
264861624073,0.741638,-0.155945,0.0634155,0.649231
264861647261,0.741638,-0.156128,0.0623779,0.649292
264861661643,0.742126,-0.155762,0.0610352,0.648987
264861683997,0.74231,-0.15509,0.0594482,0.649048
264861706389,0.742188,-0.154297,0.0576172,0.649597
264861721366,0.741821,-0.153442,0.055542,0.650391
264861743924,0.741455,-0.152222,0.0532227,0.651245
264861766393,0.741089,-0.150696,0.050354,0.652344
264861781593,0.741516,-0.14917,0.0472412,0.652344
264861803925,0.742676,-0.147827,0.0440063,0.65155
264861826586,0.744202,-0.146423,0.0408325,0.65033
264861841427,0.746277,-0.144531,0.0377197,0.648621
264861864032,0.748474,-0.142517,0.0346069,0.646729
264861886429,0.750244,-0.14032,0.0317383,0.645264
264861901601,0.751343,-0.138184,0.0287476,0.644592
264861923903,0.752258,-0.136292,0.0258179,0.644043
264861946566,0.753357,-0.13501,0.0229492,0.643127
264861961557,0.754578,-0.134338,0.0201416,0.641968
264861983968,0.755554,-0.133606,0.0171509,0.640991
264862006428,0.756104,-0.132996,0.0140381,0.640625
264862021508,0.755981,-0.132568,0.0111694,0.640869
264862043958,0.755432,-0.132324,0.00872803,0.641602
264862066501,0.754761,-0.132019,0.00714111,0.642456
264862081626,0.754578,-0.131287,0.00604248,0.642822
264862105355,0.754761,-0.130615,0.00518799,0.642822
264862126571,0.755188,-0.130005,0.00457764,0.642395
264862141476,0.756165,-0.129028,0.00408936,0.641479
264862164201,0.757385,-0.127686,0.00378418,0.64032
264862186472,0.758484,-0.125916,0.003479,0.639343
264862201510,0.759521,-0.124023,0.00360107,0.638489
264862223906,0.760376,-0.122803,0.00354004,0.637695
264862246390,0.760864,-0.121765,0.00341797,0.637329
264862261458,0.760803,-0.120667,0.00360107,0.637573
264862283929,0.760864,-0.120361,0.00427246,0.637573
264862306402,0.761475,-0.120605,0.00469971,0.636841
264862321420,0.762634,-0.121521,0.00439453,0.635254
264862344119,0.763977,-0.122314,0.00360107,0.633484
264862367918,0.764587,-0.123047,0.00262451,0.632629
264862381432,0.764099,-0.124207,0.00146484,0.632935
264862403913,0.763306,-0.12561,0.00012207,0.633667
264862426422,0.762512,-0.127014,-0.000976562,0.634338
264862441408,0.761719,-0.127991,-0.00170898,0.635132
264862463905,0.760559,-0.128723,-0.00262451,0.636292
264862486423,0.759766,-0.1297,-0.00408936,0.637024
264862502878,0.76001,-0.131348,-0.00518799,0.636414
264862523970,0.760254,-0.132507,-0.00592041,0.635925
264862546469,0.760498,-0.13324,-0.00646973,0.635437
264862562845,0.760681,-0.133667,-0.00720215,0.635071
264862583941,0.760681,-0.134338,-0.00762939,0.63501
264862606421,0.760498,-0.134888,-0.00799561,0.635071
264862622884,0.760498,-0.135376,-0.00842285,0.634949
264862643953,0.760254,-0.13562,-0.00866699,0.635254
264862666473,0.759888,-0.136047,-0.00891113,0.635498
264862682880,0.759949,-0.136597,-0.00952148,0.635315
264862703989,0.759827,-0.137878,-0.0100708,0.635193
264862726457,0.75946,-0.139709,-0.0105591,0.635254
264862742849,0.75885,-0.141663,-0.0110474,0.635498
264862763953,0.757935,-0.144104,-0.0115967,0.636047
264862786466,0.75708,-0.146912,-0.0126953,0.636353
264862802829,0.756836,-0.149719,-0.013855,0.635986
264862823941,0.756592,-0.152161,-0.0144653,0.635742
264862846380,0.755554,-0.154053,-0.0147705,0.636475
264862862851,0.754395,-0.155151,-0.0150757,0.637573
264862883900,0.753845,-0.155884,-0.0155029,0.638062
264862906414,0.753845,-0.157227,-0.0160522,0.637695
264862922855,0.754333,-0.159546,-0.0167236,0.636536
264862943946,0.754456,-0.161682,-0.0170288,0.635803
264862966427,0.753723,-0.163147,-0.0169678,0.636353
264862984332,0.752258,-0.164062,-0.0169067,0.637878
264863003896,0.750977,-0.1651,-0.0164185,0.639099
264863026435,0.750732,-0.166016,-0.0157471,0.63916
264863042864,0.751404,-0.166443,-0.0144043,0.638245
264863063956,0.752319,-0.16626,-0.0127563,0.637268
264863087854,0.753235,-0.16571,-0.0111084,0.636414
264863102880,0.754211,-0.165283,-0.00921631,0.635376
264863123920,0.754944,-0.165222,-0.00714111,0.634521
264863146426,0.755371,-0.165161,-0.00476074,0.634033
264863162874,0.755554,-0.164978,-0.00219727,0.63385
264863183913,0.755615,-0.164856,0.000183105,0.633911
264863206420,0.755859,-0.16449,0.00231934,0.633667
264863222881,0.756531,-0.164001,0.0043335,0.632935
264863243957,0.757568,-0.163696,0.00628662,0.631836
264863266439,0.758484,-0.163086,0.00799561,0.630798
264863282834,0.759277,-0.161926,0.00933838,0.630188
264863303954,0.759888,-0.160339,0.010376,0.629822
264863326457,0.760498,-0.15863,0.0111084,0.629517
264863342870,0.760986,-0.157288,0.0112305,0.629272
264863363925,0.761353,-0.156006,0.0110474,0.62915
264863386438,0.761536,-0.154724,0.0107422,0.629211
264863402854,0.762024,-0.154114,0.0101318,0.628784
264863423893,0.763306,-0.154846,0.00921631,0.627075
264863446444,0.764587,-0.156189,0.00805664,0.625244
264863462874,0.764771,-0.15686,0.0067749,0.624817
264863485356,0.764038,-0.156738,0.0055542,0.625732
264863506445,0.763062,-0.156189,0.00463867,0.627136
264863522900,0.762695,-0.155334,0.0045166,0.627747
264863545378,0.762878,-0.154663,0.00445557,0.627686
264863566455,0.763123,-0.153748,0.00384521,0.627625
264863582893,0.762939,-0.151917,0.00286865,0.628357
264863605436,0.762146,-0.148804,0.00152588,0.630005
264863626458,0.761475,-0.145142,-0.00152588,0.631714
264863642903,0.760864,-0.140869,-0.00683594,0.633301
264863665446,0.758911,-0.135315,-0.013855,0.63678
264863686421,0.7547,-0.127075,-0.0224609,0.64325
264863710403,0.749084,-0.115356,-0.0332642,0.651489
264863725337,0.743286,-0.100952,-0.0457764,0.659668
264863746398,0.738586,-0.0848389,-0.059021,0.666138
264863762866,0.733337,-0.0666504,-0.0734253,0.672485
264863785351,0.725464,-0.0462646,-0.0887451,0.680847
264863806412,0.71582,-0.0239258,-0.104675,0.689941
264863822883,0.705078,0.000366211,-0.121399,0.698608
264863845371,0.693359,0.026123,-0.138428,0.706665
264863866436,0.681213,0.0528564,-0.155762,0.713318
264863882882,0.668518,0.0788574,-0.174194,0.718628
264863905454,0.654602,0.105225,-0.193237,0.723206
264863926515,0.638977,0.131531,-0.212097,0.727539
264863942997,0.621765,0.158142,-0.230164,0.731689
264863965455,0.602722,0.186157,-0.247742,0.735291
264863986474,0.58313,0.215027,-0.264893,0.737183
264864002904,0.563965,0.242554,-0.281006,0.73761
264864025432,0.54541,0.26886,-0.297119,0.736145
264864046452,0.527466,0.294006,-0.311829,0.733521
264864062913,0.509216,0.318726,-0.325134,0.730286
264864085444,0.490417,0.342529,-0.33783,0.726624
264864106446,0.471191,0.363953,-0.349609,0.723328
264864122886,0.451416,0.38269,-0.360352,0.721008
264864145374,0.432312,0.398499,-0.369202,0.719666
264864166454,0.414185,0.413635,-0.375244,0.718628
264864182878,0.395508,0.428223,-0.380798,0.717712
264864205400,0.377136,0.44104,-0.386475,0.716797
264864226432,0.360474,0.452209,-0.392578,0.715088
264864242877,0.345642,0.462891,-0.40033,0.711304
264864265417,0.33136,0.473938,-0.408142,0.70636
264864286644,0.314941,0.486877,-0.413818,0.701782
264864302958,0.297791,0.499146,-0.418213,0.697998
264864325383,0.28186,0.510193,-0.42218,0.694214
264864346551,0.267639,0.520264,-0.425476,0.690369
264864362974,0.254761,0.529663,-0.428589,0.686096
264864384793,0.243164,0.539062,-0.431702,0.68103
264864407167,0.233521,0.546631,-0.434631,0.676514
264864423583,0.227966,0.551147,-0.438171,0.672485
264864444664,0.223694,0.554749,-0.441528,0.668701
264864467159,0.217957,0.559631,-0.444214,0.664795
264864482142,0.213562,0.562012,-0.44696,0.662354
264864504617,0.207886,0.564331,-0.44873,0.66095
264864527135,0.202026,0.566101,-0.449768,0.660583
264864543624,0.198242,0.566589,-0.449829,0.661255
264864564847,0.195374,0.566406,-0.448914,0.662903
264864587378,0.192993,0.564758,-0.447876,0.66571
264864603651,0.191589,0.562378,-0.446228,0.669189
264864624715,0.191162,0.56073,-0.44342,0.672607
264864647318,0.192627,0.559143,-0.440308,0.675537
264864663642,0.19574,0.556274,-0.437683,0.67865
264864684826,0.200867,0.552551,-0.434998,0.681946
264864707189,0.207092,0.549377,-0.431274,0.684998
264864723626,0.214111,0.546631,-0.426453,0.688049
264864744645,0.221985,0.543457,-0.420837,0.691528
264864767315,0.230408,0.539185,-0.414429,0.695923
264864783616,0.239685,0.533752,-0.407471,0.701111
264864804721,0.249512,0.5271,-0.400513,0.706726
264864827220,0.260193,0.519592,-0.3927,0.712769
264864843714,0.271362,0.510986,-0.383423,0.719849
264864864645,0.285034,0.499878,-0.374207,0.727112
264864887134,0.301392,0.485413,-0.365662,0.73468
264864903559,0.317993,0.469421,-0.35791,0.741882
264864924603,0.332092,0.453918,-0.348267,0.749878
264864947291,0.344421,0.436279,-0.338501,0.759216
264864963631,0.358032,0.416931,-0.328186,0.76825
264864984830,0.373108,0.394592,-0.318054,0.7771
264865007160,0.388,0.370667,-0.306702,0.786072
264865023345,0.401855,0.347961,-0.295471,0.793762
264865044860,0.414734,0.326782,-0.284058,0.800293
264865067360,0.425659,0.306519,-0.272339,0.80658
264865083697,0.43396,0.285156,-0.25946,0.814209
264865104821,0.444885,0.263184,-0.2453,0.820129
264865127248,0.459045,0.243347,-0.232178,0.822266
264865143645,0.47876,0.222717,-0.220459,0.820068
264865164639,0.500122,0.199951,-0.20929,0.816101
264865187114,0.520752,0.17511,-0.19696,0.811951
264865203582,0.537415,0.150574,-0.183594,0.809143
264865224606,0.550537,0.12677,-0.171021,0.807129
264865247255,0.563538,0.102966,-0.158997,0.804016
264865263672,0.576599,0.0802612,-0.146484,0.799744
264865284844,0.586365,0.0599365,-0.134521,0.796509
264865307166,0.593018,0.0419312,-0.123474,0.794495
264865322951,0.601685,0.0236206,-0.113525,0.790222
264865344619,0.61377,0.00683594,-0.10376,0.782593
264865367316,0.625,-0.0088501,-0.0944214,0.77478
264865383069,0.634888,-0.0235596,-0.0861816,0.767334
264865406129,0.644104,-0.0353394,-0.0773315,0.760132
264865427365,0.652283,-0.0447388,-0.0675659,0.75354
264865443002,0.659485,-0.0531616,-0.0584106,0.747498
264865464710,0.665649,-0.0617065,-0.0507202,0.741943
264865487306,0.671936,-0.0715942,-0.0438843,0.735779
264865502993,0.679871,-0.0810547,-0.0371704,0.727844
264865526181,0.688232,-0.0879517,-0.0297241,0.719421
264865547336,0.696411,-0.0924683,-0.0218506,0.711243
264865563048,0.702454,-0.0958252,-0.0147705,0.705078
264865586050,0.70575,-0.0992432,-0.00891113,0.701416
264865607175,0.708313,-0.103516,-0.00390625,0.698242
264865622938,0.712585,-0.108215,0.00158691,0.693115
264865646744,0.717773,-0.112854,0.00817871,0.686951
264865667290,0.723328,-0.117249,0.0151978,0.680237
264865683080,0.727478,-0.12146,0.0214844,0.674927
264865706108,0.729187,-0.125488,0.0263062,0.67218
264865727109,0.729187,-0.129395,0.0289307,0.671265
264865751192,0.729187,-0.132935,0.0301514,0.670532
264865766133,0.729736,-0.135925,0.0305786,0.669312
264865787385,0.730164,-0.138428,0.0307007,0.668335
264865802992,0.729858,-0.140564,0.0305786,0.668213
264865826122,0.728882,-0.142517,0.0303955,0.668884
264865847177,0.727539,-0.144531,0.0305176,0.669922
264865862935,0.726685,-0.146179,0.0308838,0.670471
264865886140,0.726562,-0.147217,0.0318604,0.670349
264865907131,0.727112,-0.148071,0.0334473,0.669434
264865922927,0.727966,-0.14856,0.0357056,0.668335
264865946107,0.728638,-0.148804,0.038269,0.667358
264865967326,0.729187,-0.148682,0.0406494,0.666687
264865983046,0.729797,-0.148743,0.0429688,0.665894
264866006152,0.730103,-0.148621,0.045105,0.665344
264866027368,0.729187,-0.148804,0.046875,0.666199
264866043020,0.727417,-0.149231,0.0489502,0.667969
264866066206,0.725647,-0.149841,0.0511475,0.669495
264866087374,0.724854,-0.151184,0.0531616,0.669922
264866103000,0.723938,-0.152649,0.0543823,0.670532
264866126219,0.723511,-0.153625,0.0545654,0.670715
264866147300,0.723938,-0.153625,0.0542603,0.670288
264866163053,0.724976,-0.153015,0.0540771,0.669312
264866186071,0.726624,-0.151917,0.0539551,0.667786
264866207144,0.727966,-0.150757,0.0540161,0.666565
264866222907,0.728577,-0.149658,0.0539551,0.666199
264866246048,0.728394,-0.148804,0.0540161,0.666565
264866267154,0.728149,-0.148132,0.0539551,0.666992
264866282952,0.72821,-0.147583,0.0537109,0.667053
264866305442,0.728394,-0.1474,0.0534668,0.666931
264866327197,0.72821,-0.147217,0.0530396,0.667175
264866343061,0.7276,-0.147278,0.0524292,0.667847
264866365514,0.726868,-0.147766,0.0517578,0.668579
264866387364,0.726013,-0.148315,0.0513306,0.669495
264866403037,0.724854,-0.148682,0.0510864,0.670654
264866425424,0.723755,-0.148743,0.0507202,0.671875
264866448686,0.723145,-0.148682,0.0504761,0.672607
264866463013,0.723083,-0.148926,0.050415,0.672546
264866485675,0.723755,-0.149231,0.0507202,0.671753
264866508667,0.724548,-0.149597,0.0509033,0.670837
264866522992,0.725037,-0.149414,0.0508423,0.670349
264866545522,0.725342,-0.148926,0.0505981,0.670105
264866569090,0.725586,-0.148193,0.0502319,0.670044
264866582920,0.725952,-0.147644,0.0499268,0.6698
264866605544,0.726379,-0.147339,0.0494995,0.669434
264866628663,0.727112,-0.147217,0.0491943,0.668701
264866642959,0.7276,-0.146729,0.0487671,0.668335
264866665428,0.726868,-0.146118,0.0483398,0.66925
264866688584,0.724548,-0.145264,0.0480957,0.671936
264866702953,0.722168,-0.144348,0.0479736,0.674744
264866733601,0.720825,-0.142883,0.0476074,0.676514
264866748733,0.720459,-0.140564,0.0466309,0.677429
264866763063,0.719604,-0.13739,0.045166,0.679077
264866785533,0.717651,-0.133545,0.0432129,0.682068
264866808664,0.71521,-0.129272,0.0407104,0.685608
264866829895,0.713013,-0.124329,0.0374756,0.688904
264866845657,0.710938,-0.118958,0.0336304,0.692261
264866868743,0.708008,-0.112732,0.0293579,0.696472
264866889694,0.704163,-0.10498,0.0240479,0.701782
264866905502,0.699646,-0.0958252,0.0170288,0.707764
264866928578,0.694946,-0.0856934,0.00909424,0.713806
264866949822,0.689819,-0.0748291,0.000793457,0.720032
264866965565,0.684265,-0.0630493,-0.00842285,0.726379
264866988624,0.678894,-0.0499878,-0.0187378,0.732239
264867009855,0.672058,-0.0354004,-0.0299683,0.739014
264867025579,0.663818,-0.0202026,-0.0424194,0.746338
264867048658,0.655701,-0.00445557,-0.0556641,0.75293
264867069840,0.647888,0.0126343,-0.069519,0.758423
264867085637,0.639282,0.0311279,-0.0841675,0.763672
264867108627,0.629822,0.0502319,-0.0994873,0.768616
264867129699,0.619507,0.0692749,-0.11554,0.773315
264867145429,0.606812,0.088562,-0.131775,0.778809
264867168607,0.592163,0.108887,-0.147949,0.784546
264867189646,0.577576,0.129333,-0.164429,0.789001
264867205413,0.563416,0.150146,-0.181274,0.79187
264867227997,0.548645,0.171387,-0.198425,0.793823
264867249620,0.532837,0.192871,-0.215393,0.795227
264867265589,0.516235,0.214905,-0.231689,0.795959
264867287987,0.499878,0.236694,-0.247864,0.795349
264867309881,0.483948,0.257935,-0.264465,0.793274
264867325634,0.467957,0.27887,-0.280396,0.790283
264867347983,0.451111,0.299316,-0.294922,0.787292
264867369923,0.434937,0.31842,-0.30835,0.783752
264867393715,0.418701,0.336792,-0.320251,0.780151
264867407985,0.402954,0.354004,-0.331665,0.776062
264867431119,0.390198,0.369263,-0.342896,0.770508
264867445725,0.380005,0.382629,-0.353271,0.764404
264867468012,0.369019,0.395325,-0.362366,0.759033
264867491207,0.358398,0.406982,-0.370789,0.753906
264867505572,0.347961,0.418457,-0.378479,0.748657
264867528035,0.335571,0.429504,-0.385254,0.744568
264867551217,0.322327,0.440735,-0.392334,0.740173
264867565625,0.308716,0.450867,-0.398376,0.736633
264867588048,0.295776,0.460144,-0.403809,0.733215
264867611221,0.284851,0.469788,-0.409363,0.728394
264867625569,0.273804,0.481262,-0.414917,0.721924
264867648023,0.262756,0.491211,-0.419983,0.71637
264867671201,0.252869,0.500305,-0.424133,0.711182
264867692428,0.243774,0.509216,-0.428162,0.705627
264867708003,0.236816,0.516846,-0.432129,0.700012
264867731260,0.231689,0.523193,-0.435669,0.694763
264867752407,0.226929,0.528748,-0.437866,0.690735
264867768081,0.222412,0.533325,-0.439148,0.687927
264867791178,0.21936,0.536133,-0.440063,0.686096
264867812366,0.218201,0.537537,-0.440613,0.684998
264867828011,0.218323,0.538452,-0.439941,0.684692
264867851301,0.219727,0.537842,-0.439148,0.685181
264867872266,0.222778,0.5354,-0.43811,0.686768
264867887992,0.22583,0.533142,-0.435303,0.689331
264867911194,0.227905,0.531555,-0.430969,0.692566
264867932167,0.230347,0.529419,-0.426758,0.696045
264867947922,0.23407,0.526123,-0.422852,0.699646
264867971193,0.238342,0.522156,-0.419006,0.703491
264867991993,0.243591,0.517334,-0.415222,0.70752
264868008002,0.249146,0.511597,-0.411438,0.711914
264868031294,0.255005,0.5047,-0.407654,0.716919
264868052317,0.261292,0.497559,-0.40271,0.722412
264868068086,0.267883,0.490601,-0.397156,0.727844
264868091161,0.275879,0.482849,-0.391602,0.733032
264868112351,0.284668,0.474365,-0.385986,0.738159
264868128095,0.293701,0.465271,-0.379883,0.743591
264868151287,0.303406,0.455933,-0.373535,0.748657
264868172299,0.316223,0.446655,-0.367615,0.751831
264868187381,0.33197,0.436279,-0.360779,0.754456
264868201754,0.348938,0.426636,-0.353638,0.755737
264868224150,0.365417,0.417114,-0.348633,0.755554
264868247358,0.383118,0.404602,-0.345032,0.755249
264868261762,0.401672,0.391052,-0.341492,0.754333
264868284228,0.420105,0.376709,-0.337769,0.753296
264868307183,0.438538,0.360718,-0.330017,0.754028
264868321617,0.453735,0.345276,-0.321594,0.75592
264868344069,0.465088,0.330933,-0.311462,0.759644
264868367397,0.473999,0.316528,-0.299988,0.764893
264868381759,0.481384,0.302307,-0.287903,0.77063
264868420585,0.492737,0.286499,-0.27533,0.774109
264868427449,0.506226,0.270264,-0.26355,0.77533
264868441685,0.520996,0.253723,-0.252502,0.77478
264868464245,0.534241,0.236938,-0.241577,0.774597
264868487458,0.546875,0.220703,-0.229797,0.77417
264868501801,0.559143,0.206238,-0.216187,0.773315
264868524251,0.569885,0.193481,-0.201965,0.772583
264868547292,0.578491,0.180908,-0.189514,0.7724
264868561760,0.588806,0.167114,-0.177185,0.770691
264868584120,0.600952,0.151733,-0.165588,0.767029
264868607935,0.614258,0.136353,-0.153687,0.761841
264868621783,0.626038,0.121887,-0.140259,0.757263
264868644034,0.635681,0.106689,-0.125916,0.754028
264868667466,0.643555,0.090332,-0.111572,0.75177
264868681764,0.650452,0.0741577,-0.0974731,0.749573
264868704139,0.657349,0.0588379,-0.0840454,0.746521
264868727376,0.663147,0.0445557,-0.071106,0.743713
264868741661,0.669312,0.0307617,-0.0593872,0.739929
264868764033,0.67627,0.0172729,-0.0481567,0.734802
264868787187,0.684875,0.0055542,-0.0375977,0.7276
264868801534,0.693604,-0.0045166,-0.0267944,0.719788
264868824075,0.69989,-0.0143433,-0.0169678,0.713867
264868847248,0.705933,-0.0235596,-0.0098877,0.707703
264868861615,0.710999,-0.0327148,-0.00378418,0.702332
264868884297,0.713867,-0.0418701,0.00219727,0.698975
264868907283,0.714233,-0.0500488,0.00836182,0.697998
264868921784,0.714111,-0.0582275,0.0143433,0.697388
264868944179,0.716064,-0.0662231,0.0197144,0.694519
264868967461,0.719604,-0.0732422,0.0254517,0.690002
264868981750,0.722717,-0.0776978,0.0305786,0.686035
264869004230,0.725159,-0.079895,0.0353394,0.682983
264869027289,0.726624,-0.0813599,0.0405884,0.680969
264869041673,0.727783,-0.0820312,0.0456543,0.67926
264869064292,0.729248,-0.0823975,0.050354,0.677307
264869087439,0.731506,-0.0823975,0.0545044,0.674561
264869101745,0.735046,-0.081665,0.0578613,0.670532
264869124119,0.738159,-0.0800781,0.0613403,0.666992
264869147442,0.738892,-0.0778809,0.0649414,0.666077
264869161754,0.737671,-0.0761108,0.0690918,0.667175
264869184194,0.735962,-0.0748901,0.0745239,0.66864
264869207220,0.736511,-0.0739136,0.0795898,0.667603
264869221630,0.739075,-0.0736694,0.0843506,0.664185
264869244310,0.742371,-0.0740356,0.0888672,0.659912
264869267373,0.745239,-0.0745239,0.0931396,0.655945
264869281770,0.746887,-0.0755005,0.0974121,0.653381
264869304209,0.747253,-0.0770874,0.101807,0.652039
264869326762,0.746948,-0.0794678,0.106384,0.651428
264869341593,0.746338,-0.0826416,0.110901,0.65094
264869364288,0.746277,-0.0856323,0.114014,0.650146
264869386702,0.74469,-0.0873413,0.115417,0.651428
264869401768,0.740723,-0.0880127,0.115112,0.655945
264869424120,0.736755,-0.0883179,0.114075,0.660522
264869446762,0.735291,-0.088501,0.112854,0.662354
264869461819,0.736633,-0.0888062,0.111938,0.66095
264869484259,0.73877,-0.0891113,0.11145,0.65863
264869506662,0.740479,-0.0893555,0.110901,0.656738
264869521735,0.73999,-0.0900269,0.110413,0.657288
264869544271,0.737671,-0.0915527,0.110046,0.659729
264869566576,0.734985,-0.0935059,0.109741,0.662476
264869581549,0.733459,-0.0958862,0.110046,0.663818
264869604031,0.733337,-0.0980225,0.110657,0.663513
264869626564,0.734253,-0.0997314,0.111328,0.66217
264869641561,0.735046,-0.100708,0.111816,0.661072
264869664101,0.735291,-0.100708,0.112,0.660767
264869686597,0.735107,-0.10022,0.112,0.661011
264869701570,0.734985,-0.0996704,0.112,0.661194
264869724059,0.735352,-0.0993652,0.112183,0.660889
264869746774,0.736023,-0.0991821,0.112427,0.660095
264869761644,0.736694,-0.0991821,0.112793,0.659302
264869784312,0.737183,-0.098999,0.113159,0.658691
264869806691,0.737549,-0.0986328,0.113708,0.658264
264869821662,0.737976,-0.0983887,0.114319,0.657715
264869844266,0.738281,-0.0984497,0.114929,0.657288
264869866756,0.73822,-0.0985107,0.115417,0.657166
264869881751,0.73822,-0.0985718,0.115417,0.657166
264869904348,0.738403,-0.0984497,0.115356,0.657043
264869926783,0.738403,-0.0984497,0.115417,0.656982
264869941661,0.738342,-0.0986328,0.115601,0.657043
264869964296,0.73822,-0.0990601,0.115845,0.657043
264869986788,0.73822,-0.0990601,0.115906,0.656982
264870001659,0.738281,-0.0991211,0.115967,0.656982
264870024122,0.738281,-0.0991211,0.115967,0.656982
264870054714,0.738159,-0.0993042,0.11615,0.656982
264870064572,0.737915,-0.0995483,0.116272,0.657227
264870092494,0.737915,-0.0995483,0.116333,0.657227
264870106660,0.738037,-0.0993042,0.116089,0.657227
264870123016,0.738037,-0.0993042,0.116089,0.657227
264870144248,0.738647,-0.0993652,0.11615,0.656494
264870166761,0.739563,-0.0993652,0.11615,0.655457
264870183179,0.740112,-0.0993042,0.116028,0.654846
264870204312,0.740051,-0.0991211,0.115601,0.655029
264870226784,0.740295,-0.0985718,0.113708,0.655151
264870243080,0.741028,-0.0977173,0.110718,0.655029
264870264299,0.74054,-0.0964966,0.106567,0.656372
264870286781,0.740051,-0.0946045,0.100647,0.658142
264870303109,0.740601,-0.0919189,0.0932007,0.658997
264870324092,0.740967,-0.0881348,0.0841064,0.660339
264870346554,0.739502,-0.0825806,0.0734253,0.66394
264870363034,0.735962,-0.0752563,0.0610962,0.670044
264870384104,0.730896,-0.0667114,0.0471802,0.677551
264870406646,0.725952,-0.0576782,0.0321045,0.684509
264870423033,0.721558,-0.0474854,0.0162354,0.69043
264870444220,0.717407,-0.0359497,0.000610352,0.695679
264870466656,0.711914,-0.022583,-0.0153198,0.70166
264870483129,0.704895,-0.00805664,-0.0317383,0.708496
264870504299,0.697266,0.00683594,-0.0482788,0.715088
264870526798,0.68927,0.022522,-0.0646973,0.721191
264870543101,0.681091,0.0393066,-0.0812988,0.726562
264870564096,0.673645,0.0571899,-0.0984497,0.730164
264870586749,0.666504,0.0758667,-0.116028,0.732422
264870603155,0.658081,0.0946655,-0.133667,0.734863
264870624070,0.647766,0.113647,-0.151428,0.737854
264870646599,0.636841,0.132507,-0.1698,0.740234
264870663036,0.625183,0.151672,-0.188477,0.742004
264870684074,0.612244,0.171143,-0.207153,0.743591
264870706602,0.5979,0.191101,-0.225403,0.745056
264870723068,0.58252,0.211182,-0.243408,0.746155
264870744283,0.566284,0.231262,-0.261536,0.746582
264870766669,0.549683,0.250977,-0.279602,0.746094
264870783146,0.534241,0.269897,-0.297424,0.743774
264870804321,0.519836,0.289734,-0.314453,0.739502
264870826657,0.505737,0.311035,-0.330811,0.733459
264870843109,0.49231,0.33197,-0.346802,0.726013
264870864178,0.478455,0.352234,-0.362366,0.718079
264870886717,0.46405,0.371704,-0.377502,0.709839
264870903091,0.451294,0.389465,-0.392029,0.700684
264870924119,0.440186,0.40625,-0.405212,0.690613
264870946636,0.429749,0.422485,-0.41687,0.68042
264870963111,0.418335,0.437622,-0.426941,0.671631
264870984300,0.405884,0.451538,-0.435791,0.664368
264871006666,0.393494,0.463623,-0.44342,0.658447
264871023101,0.38208,0.473999,-0.449951,0.65332
264871045668,0.371521,0.484192,-0.455933,0.647766
264871066725,0.360596,0.494629,-0.461182,0.642273
264871083126,0.349915,0.504822,-0.465027,0.637512
264871105569,0.339172,0.514038,-0.468018,0.633789
264871126758,0.328369,0.522827,-0.470154,0.630615
264871143056,0.318359,0.53064,-0.472351,0.627563
264871165663,0.309204,0.536804,-0.474731,0.625122
264871186848,0.300537,0.541626,-0.476624,0.623779
264871203144,0.292114,0.545959,-0.477966,0.622925
264871225647,0.28479,0.550171,-0.479309,0.621643
264871246696,0.278748,0.553284,-0.480957,0.6203
264871263091,0.273682,0.554749,-0.48175,0.620667
264871285685,0.268982,0.554932,-0.481445,0.622742
264871306584,0.266052,0.554565,-0.480469,0.625122
264871323033,0.265381,0.553589,-0.479065,0.627319
264871345672,0.266479,0.551697,-0.477234,0.629944
264871366834,0.270081,0.547974,-0.47522,0.633179
264871384521,0.276489,0.542664,-0.472595,0.636902
264871405603,0.285278,0.537231,-0.468628,0.640564
264871426816,0.295349,0.531372,-0.463989,0.644287
264871443060,0.306702,0.524719,-0.458618,0.648254
264871465569,0.320129,0.51593,-0.452148,0.65332
264871486707,0.335571,0.504517,-0.444519,0.659668
264871503117,0.351257,0.492554,-0.435791,0.666382
264871525597,0.366882,0.479492,-0.425415,0.674133
264871546816,0.382935,0.46405,-0.41394,0.683044
264871563162,0.399048,0.446716,-0.4021,0.692444
264871587081,0.414612,0.428894,-0.388916,0.702026
264871606660,0.429382,0.410461,-0.373657,0.712341
264871623118,0.445618,0.389709,-0.358887,0.721558
264871645603,0.463379,0.367065,-0.344543,0.729248
264871666762,0.481018,0.343262,-0.329529,0.736328
264871683142,0.497253,0.320557,-0.31311,0.742859
264871705605,0.513245,0.299438,-0.297729,0.747131
264871726637,0.529785,0.27771,-0.283508,0.749512
264871743046,0.546692,0.254089,-0.269226,0.750977
264871765675,0.563171,0.230469,-0.2547,0.751526
264871786786,0.578308,0.20929,-0.239746,0.75116
264871803147,0.592102,0.190063,-0.224792,0.750122
264871825547,0.604736,0.170593,-0.210266,0.748901
264871846847,0.618469,0.14917,-0.196106,0.746094
264871863164,0.63501,0.126709,-0.180603,0.740295
264871885581,0.650208,0.10553,-0.163269,0.734436
264871906672,0.662476,0.0861816,-0.145325,0.729736
264871923077,0.673035,0.0674438,-0.127014,0.725403
264871944953,0.68396,0.0492554,-0.109192,0.719543
264871967437,0.697144,0.0324097,-0.0928345,0.710083
264871982399,0.710571,0.0171509,-0.0775757,0.699036
264872004917,0.721985,0.00250244,-0.0632935,0.688904
264872027275,0.732117,-0.0109253,-0.0505371,0.679138
264872042214,0.741028,-0.0230103,-0.038147,0.669922
264872064775,0.747803,-0.0327148,-0.0272217,0.662476
264872087250,0.751587,-0.0407715,-0.0178223,0.658081
264872102400,0.753418,-0.0487061,-0.010498,0.655579
264872124786,0.755188,-0.0562134,-0.00567627,0.653015
264872147384,0.757874,-0.0633545,-0.00231934,0.649231
264872163762,0.759827,-0.069519,0.000366211,0.646362
264872184977,0.759949,-0.074585,0.00189209,0.64563
264872207290,0.758545,-0.0794678,0.00238037,0.646729
264872223748,0.756409,-0.0839233,0.00219727,0.648621
264872244869,0.754089,-0.0877075,0.0020752,0.650879
264872267313,0.751953,-0.0905762,0.00231934,0.652893
264872283776,0.750061,-0.0927124,0.00268555,0.654785
264872304806,0.748413,-0.0946655,0.00299072,0.656372
264872327465,0.747437,-0.0966797,0.003479,0.657227
264872343857,0.747009,-0.098877,0.00421143,0.657349
264872364976,0.746948,-0.101196,0.00537109,0.657043
264872387453,0.747314,-0.103027,0.0067749,0.656311
264872403784,0.747681,-0.104431,0.00811768,0.655701
264872424881,0.747742,-0.105652,0.00933838,0.655396
264872447484,0.747803,-0.106689,0.010437,0.65509
264872463860,0.748108,-0.107605,0.0116577,0.654663
264872484983,0.748535,-0.108459,0.0130005,0.653931
264872507305,0.749268,-0.109314,0.0142212,0.652954
264872523761,0.749939,-0.110413,0.0151367,0.651978
264872545020,0.750549,-0.111938,0.0158081,0.651001
264872567417,0.751038,-0.113647,0.0164795,0.650146
264872583817,0.750671,-0.115295,0.0171509,0.650208
264872604944,0.749451,-0.116943,0.0175781,0.651306
264872627471,0.747986,-0.118652,0.0178833,0.65271
264872643706,0.747009,-0.1203,0.0180664,0.653503
264872664955,0.746338,-0.122131,0.0181274,0.653992
264872687406,0.745239,-0.124084,0.0177002,0.654907
264872703846,0.74292,-0.126343,0.0160522,0.657104
264872724880,0.739319,-0.128296,0.0142822,0.660767
264872747498,0.735168,-0.129456,0.0132446,0.665222
264872763833,0.729736,-0.130676,0.0125122,0.670959
264872784823,0.72467,-0.131348,0.0116577,0.676331
264872807267,0.720215,-0.132019,0.010437,0.680969
264872823770,0.715698,-0.133057,0.00854492,0.685486
264872845001,0.710388,-0.135071,0.0055542,0.690674
264872867514,0.704651,-0.138123,0.00140381,0.695923
264872883794,0.698608,-0.142029,-0.00305176,0.701172
264872905037,0.692444,-0.146301,-0.00793457,0.70636
264872927452,0.68634,-0.151184,-0.0130005,0.711182
264872943200,0.680298,-0.155762,-0.0183105,0.715881
264872964951,0.673889,-0.160034,-0.0234985,0.720886
264872987386,0.665771,-0.163391,-0.02948,0.727417
264873003178,0.657166,-0.166626,-0.0349121,0.734192
264873024831,0.650574,-0.169678,-0.0410767,0.739075
264873047504,0.64563,-0.172852,-0.0467529,0.742371
264873063202,0.639099,-0.175232,-0.0536499,0.746887
264873086305,0.628296,-0.176331,-0.0615845,0.755188
264873107355,0.616699,-0.178101,-0.0692139,0.763611
264873123107,0.607178,-0.180176,-0.0757446,0.770081
264873146311,0.599121,-0.182251,-0.0836792,0.775085
264873167514,0.590149,-0.184814,-0.0907593,0.780579
264873183256,0.57959,-0.186768,-0.098877,0.786987
264873206321,0.570984,-0.189636,-0.105896,0.791687
264873227503,0.564636,-0.192078,-0.112854,0.794617
264873243197,0.5578,-0.194763,-0.119873,0.797791
264873266293,0.55011,-0.19751,-0.126648,0.801453
264873287445,0.543579,-0.2005,-0.132812,0.804138
264873303169,0.539429,-0.203735,-0.137878,0.805237
264873326350,0.535706,-0.206665,-0.142273,0.806213
264873347362,0.530762,-0.209229,-0.146545,0.808105
264873363178,0.526062,-0.211914,-0.150574,0.809692
264873386297,0.522949,-0.215149,-0.153748,0.810242
264873407364,0.519897,-0.218262,-0.156799,0.810791
264873423095,0.515442,-0.220703,-0.160278,0.812317
264873446361,0.511292,-0.2229,-0.163513,0.813721
264873467511,0.509521,-0.225403,-0.165894,0.813599
264873483189,0.508789,-0.227844,-0.167664,0.813049
264873506328,0.507446,-0.229431,-0.169312,0.81311
264873527486,0.505188,-0.230286,-0.171021,0.813904
264873543125,0.50415,-0.23114,-0.17218,0.814087
264873566415,0.504822,-0.231934,-0.172485,0.813354
264873587418,0.505981,-0.232361,-0.172241,0.812561
264873603125,0.506348,-0.231995,-0.171997,0.8125
264873632374,0.506348,-0.231384,-0.171753,0.812744
264873647347,0.507202,-0.23114,-0.171265,0.812378
264873663211,0.508728,-0.231262,-0.170471,0.811523
264873686294,0.509949,-0.231445,-0.169556,0.810913
264873707334,0.510559,-0.231262,-0.169006,0.81073
264873723097,0.510864,-0.231262,-0.168701,0.810547
264873746341,0.511597,-0.231506,-0.168518,0.81012
264873767553,0.512329,-0.231812,-0.168274,0.80957
264873783229,0.512817,-0.232056,-0.168091,0.809204
264873806318,0.513184,-0.2323,-0.167969,0.80896
264873827439,0.513733,-0.232666,-0.167847,0.808533
264873843128,0.51416,-0.232849,-0.167786,0.808228
264873865720,0.514587,-0.232971,-0.167786,0.807922
264873887294,0.51532,-0.233032,-0.167725,0.807434
264873903048,0.51593,-0.233093,-0.167725,0.807007
264873925597,0.515808,-0.233215,-0.16803,0.807007
264873947314,0.515747,-0.233582,-0.168213,0.806885
264873963120,0.515869,-0.234253,-0.168274,0.80658
264873985574,0.515991,-0.234985,-0.168213,0.806335
264874007311,0.515747,-0.235718,-0.168213,0.806274
264874023087,0.515442,-0.236511,-0.168213,0.806274
264874059855,0.515503,-0.237366,-0.16803,0.805969
264874068833,0.515869,-0.238159,-0.167908,0.805542
264874091274,0.515808,-0.238831,-0.168091,0.805359
264874105707,0.515503,-0.239502,-0.168335,0.805298
264874128883,0.515198,-0.240234,-0.168518,0.805237
264874143154,0.515137,-0.241089,-0.16864,0.804993
264874165719,0.51532,-0.241821,-0.168884,0.804626
264874188849,0.514893,-0.242493,-0.16925,0.804626
264874203204,0.514099,-0.243164,-0.169556,0.804871
264874225611,0.513733,-0.244019,-0.169678,0.80481
264874248781,0.513794,-0.244812,-0.169617,0.804504
264874263088,0.513916,-0.245667,-0.169678,0.804199
264874285658,0.51355,-0.24646,-0.169983,0.804138
264874308848,0.513245,-0.247375,-0.170105,0.803955
264874323101,0.513428,-0.248352,-0.170044,0.803589
264874353852,0.514038,-0.249207,-0.169739,0.802979
264874368786,0.514709,-0.249817,-0.169373,0.802429
264874397458,0.514465,-0.25,-0.169373,0.802551
264874405608,0.514221,-0.250122,-0.16925,0.802673
264874428841,0.515137,-0.250549,-0.168823,0.802063
264874443181,0.516235,-0.250793,-0.168457,0.801331
264874465721,0.516724,-0.250732,-0.168457,0.801025
264874488833,0.516724,-0.250488,-0.168762,0.801086
264874503127,0.516602,-0.250366,-0.169128,0.801147
264874525682,0.516724,-0.250427,-0.169495,0.800964
264874548946,0.516785,-0.250671,-0.169739,0.800781
264874570038,0.516785,-0.251038,-0.169861,0.800659
264874585656,0.516296,-0.251282,-0.169922,0.800842
264874616329,0.515991,-0.251709,-0.169861,0.800964
264874629998,0.516113,-0.252319,-0.169495,0.80072
264874645751,0.516724,-0.253052,-0.169006,0.800232
264874668882,0.517517,-0.253723,-0.168457,0.799622
264874689850,0.518005,-0.25415,-0.167969,0.799255
264874705606,0.518188,-0.254456,-0.167725,0.799072
264874728760,0.518372,-0.254883,-0.167603,0.798828
264874750010,0.518677,-0.255554,-0.167419,0.798523
264874765713,0.519043,-0.256104,-0.167297,0.798096
264874788858,0.519287,-0.25647,-0.167419,0.797791
264874809899,0.519104,-0.256775,-0.167664,0.797791
264874825600,0.518799,-0.257019,-0.167969,0.797791
264874848125,0.518372,-0.25769,-0.168213,0.797852
264874870043,0.518738,-0.258606,-0.168213,0.797302
264874885696,0.51886,-0.259583,-0.168396,0.796875
264874908120,0.518616,-0.260315,-0.16864,0.796753
264874929895,0.51825,-0.260986,-0.168884,0.796692
264874945635,0.518188,-0.261597,-0.169006,0.796509
264874968200,0.518616,-0.262146,-0.169067,0.796021
264874991287,0.518921,-0.262634,-0.169128,0.795654
264875005629,0.519409,-0.263123,-0.169006,0.795227
264875028250,0.519836,-0.263489,-0.168762,0.794861
264875051409,0.520081,-0.263855,-0.168518,0.794617
264875065760,0.520142,-0.264099,-0.168457,0.794495
264875088235,0.520508,-0.264404,-0.168274,0.794189
264875111352,0.520874,-0.264648,-0.168152,0.793884
264875125685,0.521118,-0.264954,-0.168152,0.793701
264875148159,0.52124,-0.26532,-0.168091,0.793518
264875171899,0.521484,-0.265564,-0.16803,0.793274
264875185735,0.521729,-0.265747,-0.167847,0.79303
264875208149,0.522217,-0.265808,-0.167664,0.792786
264875231358,0.522705,-0.265808,-0.167542,0.79248
264875245693,0.522827,-0.265747,-0.16748,0.792419
264875268211,0.52301,-0.265503,-0.167603,0.792358
264875291291,0.523315,-0.265259,-0.167725,0.792236
264875305699,0.523438,-0.264832,-0.167847,0.792236
264875336355,0.523438,-0.264404,-0.168091,0.792358
264875351363,0.523376,-0.263916,-0.168274,0.792542
264875365626,0.523376,-0.263611,-0.168213,0.792603
264875388321,0.523621,-0.263367,-0.168091,0.792542
264875411281,0.523682,-0.263123,-0.167969,0.792664
264875425689,0.523743,-0.262817,-0.167786,0.792725
264875448248,0.523987,-0.262634,-0.16748,0.792664
264875471374,0.524231,-0.262329,-0.167236,0.792664
264875492411,0.524292,-0.262024,-0.166992,0.792786
264875508184,0.524475,-0.261841,-0.16687,0.792786
264875531406,0.524475,-0.26178,-0.16687,0.792786
264875552552,0.524475,-0.26178,-0.16687,0.792725
264875568200,0.524536,-0.26178,-0.16687,0.792725
264875591287,0.524536,-0.26178,-0.166931,0.792725
264875612413,0.524597,-0.261963,-0.166931,0.792603
264875628176,0.52478,-0.262207,-0.166931,0.792419
264875651392,0.524902,-0.26239,-0.166931,0.792297
264875672564,0.524902,-0.262634,-0.166931,0.792236
264875688244,0.524963,-0.263,-0.166809,0.792053
264875711347,0.525269,-0.263306,-0.166504,0.79187
264875732604,0.525391,-0.26355,-0.166321,0.791687
264875747582,0.525269,-0.263733,-0.166321,0.791748
264875761671,0.525208,-0.263977,-0.16626,0.791687
264875784386,0.52533,-0.264221,-0.166138,0.791565
264875807414,0.525452,-0.264526,-0.165955,0.791382
264875821887,0.52533,-0.264709,-0.165833,0.791443
264875844374,0.52533,-0.264893,-0.165649,0.791443
264875867485,0.525452,-0.265076,-0.165466,0.791321
264875881878,0.525452,-0.265076,-0.165466,0.791321
264875904259,0.525452,-0.265076,-0.165527,0.791321
264875927550,0.525452,-0.265015,-0.165527,0.791321
264875941773,0.525452,-0.265015,-0.165527,0.791321
264875964406,0.525452,-0.265015,-0.165527,0.791321
264875987566,0.525513,-0.265015,-0.165527,0.791321
264876001962,0.525635,-0.265686,-0.165405,0.791016
264876024255,0.525696,-0.266663,-0.165161,0.79071
264876047574,0.525879,-0.267456,-0.1651,0.790344
264876061833,0.526123,-0.268066,-0.165039,0.789917
264876084315,0.526428,-0.26825,-0.165039,0.789673
264876107418,0.526428,-0.26825,-0.164978,0.789734
264876121888,0.526611,-0.267883,-0.1651,0.789673
264876144230,0.526733,-0.267334,-0.165405,0.789734
264876167409,0.526794,-0.266724,-0.16571,0.789856
264876181943,0.526794,-0.266418,-0.165894,0.789917
264876204452,0.526794,-0.266418,-0.165894,0.789917
264876227468,0.526794,-0.266357,-0.165955,0.789917
264876241749,0.526794,-0.266357,-0.165955,0.789917
264876264463,0.526733,-0.266357,-0.165955,0.789917
264876287329,0.526855,-0.266541,-0.165894,0.789795
264876301754,0.527039,-0.266724,-0.165771,0.789612
264876324215,0.527039,-0.266724,-0.165771,0.789612
264876347603,0.527039,-0.266724,-0.165771,0.789673
264876361865,0.527039,-0.266724,-0.165771,0.789673
264876384337,0.526978,-0.266724,-0.165771,0.789673
264876407387,0.526978,-0.266724,-0.165771,0.789673
264876421780,0.526978,-0.266663,-0.165833,0.789673
264876444336,0.526978,-0.266602,-0.165833,0.789734
264876467510,0.526978,-0.266602,-0.165833,0.789673
264876481777,0.526978,-0.266602,-0.165833,0.789734
264876504402,0.5271,-0.266663,-0.16571,0.789673
264876527548,0.5271,-0.266663,-0.16571,0.789673
264876541862,0.526794,-0.266418,-0.165771,0.789917
264876564348,0.526794,-0.266357,-0.165833,0.789917
264876587460,0.526794,-0.266357,-0.165833,0.789917
264876601695,0.526794,-0.266357,-0.165833,0.789917
264876624207,0.526794,-0.266357,-0.165833,0.789917
264876647329,0.52655,-0.266296,-0.165771,0.7901
264876661661,0.52655,-0.266296,-0.165833,0.7901
264876684260,0.526428,-0.266479,-0.165771,0.790161
264876707387,0.52655,-0.266785,-0.165588,0.790039
264876721717,0.526672,-0.266968,-0.165466,0.789856
264876744245,0.526672,-0.266968,-0.165466,0.789856
264876767341,0.526672,-0.266968,-0.165466,0.789917
264876781697,0.526611,-0.266968,-0.165527,0.789917
264876804236,0.526733,-0.267029,-0.165527,0.789795
264876827477,0.526733,-0.267029,-0.165527,0.789795
264876841844,0.526733,-0.267029,-0.165527,0.789795
264876864273,0.52655,-0.267151,-0.165466,0.789917
264876886865,0.526428,-0.267334,-0.165344,0.789917
264876910094,0.52655,-0.267639,-0.165222,0.789795
264876924222,0.526672,-0.267822,-0.1651,0.789673
264876946910,0.526672,-0.267822,-0.1651,0.789673
264876961876,0.526672,-0.267822,-0.1651,0.789673
264876984444,0.526672,-0.267761,-0.1651,0.789673
264877006804,0.526794,-0.267883,-0.165222,0.789551
264877021886,0.526794,-0.267883,-0.165222,0.789551
264877044256,0.526794,-0.267883,-0.165222,0.789551
264877066787,0.526794,-0.267883,-0.165222,0.789551
264877081855,0.526794,-0.267822,-0.165222,0.789551
264877104332,0.526794,-0.267822,-0.165222,0.789551
264877126807,0.526917,-0.268066,-0.1651,0.789429
264877141776,0.527222,-0.268372,-0.164917,0.789185
264877164429,0.527466,-0.268433,-0.164734,0.789001
264877186938,0.527466,-0.268433,-0.164734,0.789001
264877201937,0.527405,-0.268372,-0.164795,0.789062
264877224233,0.527649,-0.268188,-0.164795,0.789001
264877246940,0.527954,-0.268066,-0.164795,0.788757
264877261907,0.527954,-0.268066,-0.164856,0.788757
264877284406,0.527954,-0.268005,-0.164856,0.788818
264877306828,0.527893,-0.268005,-0.164856,0.788818
264877321994,0.528076,-0.267822,-0.164917,0.788757
264877344270,0.528076,-0.267822,-0.164917,0.788757
264877366880,0.527954,-0.267639,-0.164978,0.788879
264877381992,0.527954,-0.267639,-0.165039,0.78894
264877404230,0.528076,-0.267639,-0.164856,0.788818
264877426740,0.528137,-0.267639,-0.164917,0.788818
264877441734,0.528198,-0.267578,-0.164795,0.788757
264877464259,0.528381,-0.267456,-0.164795,0.788757
264877486755,0.528381,-0.267395,-0.164795,0.788757
264877501736,0.52832,-0.267395,-0.164795,0.788757
264877524215,0.528381,-0.267395,-0.164795,0.788696
264877546740,0.528442,-0.267395,-0.164795,0.788696
264877561759,0.528381,-0.267395,-0.164856,0.788696
264877585663,0.52832,-0.267517,-0.164734,0.788757
264877606776,0.528076,-0.267883,-0.164551,0.788818
264877621759,0.528137,-0.268188,-0.164429,0.788696
264877644296,0.528381,-0.268677,-0.164368,0.788391
264877668245,0.528931,-0.268982,-0.164246,0.787964
264877683233,0.529053,-0.269104,-0.164185,0.787842
264877704234,0.529175,-0.269165,-0.164185,0.78772
264877726750,0.529541,-0.269226,-0.164185,0.787415
264877743230,0.529785,-0.269165,-0.164368,0.787292
264877764257,0.529785,-0.269104,-0.164368,0.787292
264877786794,0.529785,-0.269104,-0.164429,0.787292
264877803190,0.529907,-0.269104,-0.16449,0.787231
264877824252,0.529968,-0.269104,-0.164429,0.78717
264877846745,0.529968,-0.269104,-0.164429,0.78717
264877863186,0.529846,-0.268799,-0.164429,0.787354
264877884191,0.529785,-0.268188,-0.16449,0.787598
264877906737,0.530212,-0.267639,-0.164368,0.787476
264877923174,0.529968,-0.267212,-0.164429,0.787781
264877944202,0.529907,-0.267029,-0.164429,0.787903
264877966783,0.529907,-0.266968,-0.16449,0.787903
264877983232,0.529968,-0.267212,-0.164429,0.787842
264878004257,0.529724,-0.267456,-0.164307,0.787903
264878026757,0.529724,-0.267761,-0.164185,0.787842
264878043228,0.53009,-0.268005,-0.164001,0.787537
264878064287,0.53009,-0.268005,-0.164001,0.787537
264878086771,0.53009,-0.268005,-0.164001,0.787537
264878103160,0.53009,-0.267944,-0.164062,0.787537
264878124259,0.53009,-0.267944,-0.164062,0.787598
264878146766,0.53009,-0.267944,-0.164062,0.787537
264878163200,0.53009,-0.267883,-0.164062,0.787537
264878184228,0.529968,-0.267761,-0.164185,0.787659
264878206757,0.529968,-0.267761,-0.164246,0.787659
264878223216,0.529968,-0.267761,-0.164246,0.787659
264878244252,0.529968,-0.2677,-0.164246,0.787659
264878266778,0.529968,-0.2677,-0.164246,0.787659
264878283258,0.53009,-0.2677,-0.164246,0.787598
264878304257,0.53009,-0.267639,-0.164246,0.787598
264878326775,0.53009,-0.267639,-0.164246,0.787598
264878343245,0.53009,-0.267639,-0.164307,0.787598
264878364286,0.53009,-0.267639,-0.164307,0.787598
264878386764,0.53009,-0.267639,-0.164307,0.787598
264878403194,0.53009,-0.267578,-0.164307,0.787659
264878424266,0.53009,-0.2677,-0.164246,0.787598
264878446773,0.53009,-0.2677,-0.164307,0.787598
264878463254,0.53009,-0.2677,-0.164307,0.787598
264878484254,0.530212,-0.267761,-0.164185,0.787537
264878506755,0.530334,-0.267822,-0.164062,0.787415
264878523185,0.530334,-0.267822,-0.164062,0.787415
264878544255,0.530334,-0.267761,-0.164124,0.787476
264878566771,0.530396,-0.267883,-0.164062,0.787354
264878583219,0.530396,-0.267883,-0.164062,0.787354
264878605719,0.530396,-0.267822,-0.164124,0.787354
264878626786,0.530396,-0.267822,-0.164124,0.787354
264878643198,0.530396,-0.267761,-0.164124,0.787415
264878665708,0.530396,-0.267761,-0.164124,0.787415
264878686805,0.530396,-0.267761,-0.164124,0.787415
264878703211,0.530579,-0.267761,-0.164185,0.787231
264878725652,0.530579,-0.2677,-0.164246,0.787231
264878746767,0.530579,-0.2677,-0.164246,0.787292
264878763176,0.530579,-0.2677,-0.164246,0.787292
264878785717,0.530579,-0.2677,-0.164246,0.787292
264878806769,0.530579,-0.2677,-0.164246,0.787292
264878823215,0.530579,-0.267639,-0.164246,0.787292
264878851757,0.530579,-0.267639,-0.164246,0.787292
264878866772,0.530579,-0.267639,-0.164307,0.787292
264878883230,0.530579,-0.267578,-0.164307,0.787292
264878905711,0.530579,-0.267578,-0.164307,0.787292
264878926768,0.530579,-0.267578,-0.164307,0.787292
264878943191,0.530579,-0.267578,-0.164307,0.787292
264878967631,0.530579,-0.267517,-0.164368,0.787292
264878986789,0.530579,-0.267517,-0.164368,0.787292
264879003257,0.530579,-0.267517,-0.164368,0.787292
264879025706,0.530579,-0.267517,-0.164368,0.787354
264879046791,0.530579,-0.267517,-0.164368,0.787354
264879063258,0.530579,-0.267517,-0.164368,0.787354
264879085724,0.530518,-0.267456,-0.164368,0.787354
264879106758,0.530579,-0.267456,-0.164368,0.787354
264879123212,0.530518,-0.267456,-0.164429,0.787354
264879145732,0.530518,-0.267395,-0.164429,0.787354
264879166791,0.53064,-0.267517,-0.164368,0.787292
264879183214,0.53064,-0.267517,-0.164368,0.787292
264879205676,0.530579,-0.267517,-0.164368,0.787292
264879226765,0.530579,-0.267456,-0.164368,0.787292
264879243206,0.530579,-0.267456,-0.164368,0.787292
264879267225,0.530579,-0.267456,-0.164368,0.787292
264879286912,0.530579,-0.267456,-0.164368,0.787292
264879303268,0.530579,-0.267456,-0.164368,0.787354
264879325731,0.530701,-0.267517,-0.164307,0.787231
264879346862,0.530701,-0.267517,-0.164307,0.787231
264879363308,0.530701,-0.267517,-0.164307,0.787231
264879385808,0.53064,-0.267517,-0.164307,0.787231
264879406841,0.530823,-0.2677,-0.164062,0.787109
264879423358,0.531006,-0.267883,-0.163879,0.786987
264879445832,0.531006,-0.268066,-0.163696,0.786926
264879466924,0.531067,-0.268188,-0.163574,0.786926
264879483273,0.531067,-0.268188,-0.163574,0.786926
264879505794,0.531067,-0.268188,-0.163574,0.786926
264879526920,0.531067,-0.268127,-0.163574,0.786926
264879542465,0.531067,-0.268127,-0.163635,0.786926
264879572688,0.531067,-0.268127,-0.163635,0.786926
264879587546,0.531067,-0.268127,-0.163635,0.786926
264879602669,0.531067,-0.268127,-0.163635,0.786926
264879624935,0.531067,-0.268127,-0.163635,0.786926
264879647660,0.531067,-0.268127,-0.163635,0.786926
264879662626,0.531067,-0.268127,-0.163635,0.786926
264879685141,0.531067,-0.268127,-0.163635,0.786926
264879707513,0.531067,-0.268127,-0.163635,0.786926
264879723913,0.531006,-0.268127,-0.163635,0.786987
264879745036,0.531006,-0.268066,-0.163635,0.786987
264879767649,0.531006,-0.268066,-0.163635,0.786987
264879783890,0.531006,-0.268066,-0.163635,0.786987
264879805085,0.531006,-0.268066,-0.163696,0.786987
264879827609,0.531006,-0.268005,-0.163696,0.786987
264879843992,0.531006,-0.268005,-0.163696,0.786987
264879865135,0.531006,-0.268005,-0.163696,0.786987
264879887496,0.531006,-0.268005,-0.163696,0.786987
264879903986,0.531189,-0.268127,-0.163635,0.786804
264879924958,0.531189,-0.268127,-0.163635,0.786804
264879947484,0.531189,-0.268127,-0.163635,0.786804
264879964019,0.531189,-0.268127,-0.163635,0.786804
264879985155,0.531189,-0.268127,-0.163635,0.786865
264880007499,0.531189,-0.268127,-0.163635,0.786865
264880023927,0.53125,-0.26825,-0.163513,0.786743
264880045125,0.53125,-0.26825,-0.163574,0.786804
264880067634,0.53125,-0.26825,-0.163574,0.786804
264880083961,0.531189,-0.26825,-0.163574,0.786804
264880105172,0.531311,-0.268311,-0.163513,0.786682
264880127581,0.531555,-0.268555,-0.163269,0.78656
264880143938,0.531555,-0.268738,-0.163269,0.786438
264880165102,0.531555,-0.269165,-0.163147,0.786316
264880187630,0.531677,-0.269592,-0.163147,0.786133
264880203984,0.531677,-0.270142,-0.163025,0.78595
264880225038,0.53186,-0.27063,-0.162842,0.785706
264880247663,0.532166,-0.271057,-0.16272,0.7854
264880264089,0.532104,-0.27124,-0.162659,0.785339
264880285121,0.532166,-0.271362,-0.162598,0.785278
264880307502,0.532166,-0.271362,-0.162598,0.785278
264880323950,0.532104,-0.271057,-0.162598,0.7854
264880344945,0.532043,-0.270691,-0.16272,0.785583
264880367659,0.532043,-0.270691,-0.16272,0.785583
264880384020,0.531921,-0.27063,-0.162842,0.785645
264880405234,0.531677,-0.270752,-0.162903,0.785767
264880427572,0.531921,-0.270996,-0.162781,0.785522
264880443898,0.532166,-0.271057,-0.162781,0.785339
264880465107,0.532166,-0.270996,-0.162842,0.785339
264880487611,0.532166,-0.270996,-0.162842,0.7854
264880503384,0.532104,-0.270996,-0.162842,0.7854
264880524957,0.532104,-0.270996,-0.162781,0.7854
264880547701,0.532043,-0.271057,-0.162781,0.7854
264880563343,0.532043,-0.271057,-0.162781,0.7854
264880585183,0.532104,-0.271057,-0.162781,0.7854
264880607544,0.532043,-0.271179,-0.16272,0.7854
264880623280,0.531982,-0.271362,-0.162598,0.7854
264880645155,0.531982,-0.271362,-0.162598,0.7854
264880667652,0.531982,-0.271301,-0.162598,0.7854
264880683333,0.531982,-0.271301,-0.162659,0.7854
264880706518,0.531982,-0.27124,-0.162659,0.785461
264880727632,0.531982,-0.27124,-0.162659,0.785461
264880743303,0.531982,-0.27124,-0.162659,0.785461
264880766474,0.531921,-0.27124,-0.162659,0.785461
264880787728,0.531921,-0.271179,-0.162659,0.785461
264880803419,0.531921,-0.271179,-0.16272,0.785461
264880826428,0.531921,-0.271179,-0.16272,0.785461
264880847661,0.531921,-0.271179,-0.16272,0.785522
264880863327,0.531921,-0.271179,-0.16272,0.785461
264880886499,0.531921,-0.271179,-0.16272,0.785461
264880907546,0.53186,-0.271362,-0.162598,0.785522
264880923297,0.531982,-0.271606,-0.162476,0.785339
264880946416,0.531982,-0.271851,-0.162415,0.785278
264880967467,0.53186,-0.272095,-0.162415,0.785278
264880983225,0.53186,-0.2724,-0.162354,0.785217
264881006385,0.531799,-0.272583,-0.162415,0.785156
264881027478,0.531677,-0.272766,-0.162415,0.785156
264881043249,0.531555,-0.27301,-0.162354,0.785156
264881066408,0.531555,-0.273254,-0.162231,0.785095
264881087455,0.531555,-0.273254,-0.162231,0.785095
264881103233,0.531555,-0.273254,-0.162231,0.785095
264881126385,0.531555,-0.273254,-0.162231,0.785095
264881147453,0.531555,-0.273254,-0.162231,0.785095
264881163373,0.531555,-0.273254,-0.162231,0.785156
264881186488,0.531677,-0.273376,-0.16217,0.785034
264881207530,0.531799,-0.273438,-0.16217,0.784912
264881223357,0.53186,-0.27356,-0.16217,0.784851
264881246485,0.531677,-0.273682,-0.16217,0.784851
264881267542,0.531616,-0.274048,-0.162109,0.784851
264881283349,0.531555,-0.274048,-0.162109,0.784851
264881306483,0.531555,-0.274048,-0.162109,0.784851
264881327517,0.531555,-0.273987,-0.162109,0.784912
264881343288,0.531555,-0.273987,-0.162109,0.784912
264881366445,0.531616,-0.273743,-0.162048,0.784912
264881387608,0.531555,-0.273438,-0.161926,0.785095
264881403311,0.531738,-0.273071,-0.161865,0.785095
264881426474,0.53186,-0.272644,-0.161682,0.785217
264881447491,0.53186,-0.272217,-0.161682,0.7854
264881463280,0.53186,-0.271973,-0.161499,0.785461
264881485891,0.532104,-0.271851,-0.161255,0.785461
264881507564,0.532288,-0.271606,-0.161072,0.7854
264881523247,0.53241,-0.271301,-0.160889,0.785522
264881545778,0.532593,-0.271057,-0.160645,0.785522
264881567644,0.532715,-0.270813,-0.160461,0.785583
264881583412,0.532715,-0.270813,-0.160461,0.785522
264881605821,0.532654,-0.270813,-0.160461,0.785583
264881629434,0.532532,-0.270935,-0.1604,0.785645
264881643355,0.532532,-0.27124,-0.160339,0.785522
264881665852,0.532532,-0.271545,-0.160339,0.7854
264881689092,0.532593,-0.271851,-0.160461,0.785278
264881703374,0.532288,-0.272034,-0.160583,0.785339
264881725742,0.532227,-0.272217,-0.160706,0.785339
264881749425,0.53241,-0.272339,-0.160767,0.785156
264881763307,0.532349,-0.272339,-0.160767,0.785156
264881785971,0.532349,-0.272339,-0.160828,0.785217
264881808962,0.532227,-0.272461,-0.160889,0.785217
264881823317,0.532288,-0.272766,-0.160828,0.785095
264881845869,0.53241,-0.272888,-0.160828,0.784973
264881868934,0.53241,-0.272827,-0.160828,0.784973
264881883312,0.53241,-0.273132,-0.160767,0.784912
264881905819,0.532471,-0.27356,-0.160645,0.784729
264881929050,0.532654,-0.274109,-0.160522,0.784424
264881943361,0.532776,-0.274597,-0.160339,0.784241
264881965836,0.532837,-0.275085,-0.160156,0.784058
264881989076,0.532837,-0.275574,-0.159973,0.783936
264882003413,0.532959,-0.27594,-0.159729,0.783752
264882025781,0.533081,-0.276184,-0.159546,0.783569
264882048988,0.533081,-0.276184,-0.159302,0.78363
264882063369,0.53302,-0.276184,-0.159302,0.783691
264882085885,0.53302,-0.276123,-0.159363,0.783691
264882108902,0.53302,-0.276123,-0.159363,0.783691
264882130230,0.53302,-0.276062,-0.159363,0.783691
264882145823,0.53302,-0.276062,-0.159363,0.783691
264882169042,0.533325,-0.276062,-0.159363,0.783508
264882190173,0.533264,-0.275818,-0.159302,0.78363
264882205829,0.533142,-0.275574,-0.159363,0.783813
264882235200,0.533142,-0.275208,-0.159424,0.783936
264882250197,0.533142,-0.275146,-0.159485,0.783936
264882265888,0.533081,-0.275146,-0.159485,0.783936
264882289020,0.533081,-0.275208,-0.159485,0.783936
264882310018,0.533081,-0.275208,-0.159424,0.783997
264882325786,0.533081,-0.275208,-0.159424,0.783997
264882349003,0.533264,-0.275208,-0.15918,0.783936
264882370237,0.533203,-0.275146,-0.15918,0.783936
264882385821,0.533081,-0.275024,-0.159241,0.784058
264882408357,0.533081,-0.274963,-0.159302,0.784119
264882430181,0.533264,-0.275085,-0.159302,0.783936
264882445879,0.533264,-0.275085,-0.159302,0.783936
264882468375,0.533264,-0.275085,-0.159302,0.783936
264882490079,0.533264,-0.275024,-0.159302,0.783936
264882505875,0.533264,-0.275024,-0.159302,0.783936
264882528359,0.533264,-0.275024,-0.159363,0.783936
264882551566,0.533325,-0.275146,-0.159302,0.783813
264882565913,0.533325,-0.275146,-0.159302,0.783813
264882588428,0.533325,-0.275208,-0.159302,0.783813
264882611471,0.533325,-0.275146,-0.159302,0.783813
264882625860,0.533325,-0.275146,-0.159302,0.783875
264882648376,0.533447,-0.275146,-0.159302,0.783752
264882671492,0.533447,-0.275085,-0.159302,0.783752
264882685868,0.533203,-0.275146,-0.159302,0.783936
264882708294,0.533203,-0.275146,-0.159302,0.783936
264882731489,0.533386,-0.275269,-0.15918,0.783813
264882745896,0.533386,-0.275208,-0.15918,0.783813
264882768351,0.533386,-0.275208,-0.15918,0.783813
264882791478,0.533386,-0.275208,-0.15918,0.783813
264882805887,0.533325,-0.275208,-0.15918,0.783813
264882828420,0.533325,-0.275208,-0.15918,0.783813
264882852082,0.533325,-0.275208,-0.15918,0.783875
264882865894,0.533325,-0.275208,-0.15918,0.783875
264882888371,0.533447,-0.275146,-0.159119,0.783813
264882911493,0.533447,-0.275146,-0.15918,0.783813
264882925783,0.53363,-0.275146,-0.159058,0.783691
264882948302,0.53363,-0.275146,-0.159119,0.783691
264882971625,0.53363,-0.275085,-0.159119,0.783691
264882985853,0.533813,-0.275146,-0.159119,0.783569
264883008332,0.533875,-0.275208,-0.159119,0.783508
264883031524,0.533875,-0.275208,-0.159119,0.783508
264883052697,0.533875,-0.275208,-0.159119,0.783508
264883068419,0.533875,-0.275146,-0.15918,0.783508
264883091442,0.533875,-0.275146,-0.15918,0.783508
264883112755,0.533875,-0.275146,-0.15918,0.783508
264883128379,0.533875,-0.275146,-0.15918,0.783508
264883151609,0.533875,-0.275085,-0.15918,0.783508
264883172708,0.533875,-0.275085,-0.15918,0.783508
264883188392,0.533875,-0.275085,-0.15918,0.783508
264883210761,0.533875,-0.275085,-0.159241,0.783508
264883232668,0.533875,-0.275085,-0.15918,0.783508
264883248342,0.533875,-0.275085,-0.159241,0.783508
264883271666,0.533875,-0.275085,-0.159241,0.783569
264883292768,0.533997,-0.275208,-0.15918,0.783386
264883308336,0.534241,-0.27533,-0.15918,0.783203
264883330908,0.534241,-0.275269,-0.15918,0.783203
264883344554,0.534241,-0.275269,-0.15918,0.783203
264883367690,0.534241,-0.275269,-0.15918,0.783203
264883381976,0.534241,-0.275269,-0.15918,0.783203
264883404629,0.534241,-0.275269,-0.15918,0.783203
264883427752,0.534241,-0.275208,-0.159241,0.783264
264883441958,0.534241,-0.275208,-0.159241,0.783264
264883464527,0.534241,-0.275208,-0.159241,0.783264
264883487689,0.53418,-0.275208,-0.159241,0.783264
264883502045,0.534241,-0.275208,-0.159241,0.783264
264883524374,0.53418,-0.275208,-0.159241,0.783264
264883547680,0.53418,-0.275208,-0.159241,0.783264
264883562032,0.53418,-0.275146,-0.159241,0.783264
264883584492,0.53418,-0.275146,-0.159241,0.783264
264883607687,0.53418,-0.275146,-0.159241,0.783264
264883622019,0.53418,-0.275146,-0.159241,0.783264
264883644494,0.534363,-0.275269,-0.15918,0.783142
264883667758,0.534363,-0.275269,-0.15918,0.783142
264883682013,0.534363,-0.275208,-0.15918,0.783142
264883704480,0.534363,-0.275208,-0.15918,0.783142
264883727765,0.534363,-0.275208,-0.15918,0.783142
264883741984,0.534302,-0.275208,-0.15918,0.783142
264883764403,0.534363,-0.275208,-0.15918,0.783142
264883787549,0.534363,-0.275208,-0.15918,0.783142
264883802035,0.534363,-0.275208,-0.15918,0.783142
264883824456,0.534302,-0.27533,-0.159058,0.783142
264883847809,0.534302,-0.27533,-0.159058,0.783142
264883862074,0.534302,-0.27533,-0.159058,0.783203
264883884502,0.534302,-0.27533,-0.159058,0.783203
264883907631,0.534302,-0.27533,-0.159058,0.783203
264883922049,0.534302,-0.27533,-0.159058,0.783203
264883944551,0.534302,-0.27533,-0.159058,0.783203
264883968218,0.534302,-0.27533,-0.159119,0.783203
264883982028,0.534302,-0.27533,-0.159119,0.783203
264884004523,0.534302,-0.275269,-0.159119,0.783203
264884027760,0.534302,-0.275269,-0.159119,0.783203
264884041954,0.534302,-0.275269,-0.159119,0.783203
264884064542,0.534302,-0.27533,-0.159119,0.783203
264884087718,0.534302,-0.27533,-0.159058,0.783203
264884101980,0.534302,-0.27533,-0.159058,0.783203
264884124450,0.534363,-0.275391,-0.158936,0.783142
264884147813,0.534363,-0.275391,-0.158936,0.783142
264884162056,0.534363,-0.27533,-0.158936,0.783142
264884184574,0.534363,-0.27533,-0.158997,0.783142
264884207644,0.534302,-0.27533,-0.158936,0.783203
264884221986,0.534302,-0.27533,-0.158936,0.783203
264884244490,0.534302,-0.27533,-0.158936,0.783203
264884267718,0.534424,-0.275452,-0.15863,0.783142
264884282101,0.534973,-0.275574,-0.158264,0.782776
264884304510,0.5354,-0.275696,-0.157898,0.782532
264884327605,0.535522,-0.275757,-0.157532,0.782471
264884342073,0.53595,-0.27594,-0.157104,0.782227
264884364561,0.536499,-0.276123,-0.156555,0.781921
264884387680,0.536926,-0.276123,-0.156189,0.781677
264884402101,0.537231,-0.276062,-0.155884,0.781555
264884424455,0.53772,-0.276001,-0.155701,0.781311
264884447048,0.538086,-0.27594,-0.155457,0.781067
264884462059,0.53833,-0.275879,-0.155273,0.781006
264884484640,0.538635,-0.275757,-0.154968,0.780884
264884507076,0.538757,-0.275574,-0.154602,0.780945
264884522093,0.538818,-0.27533,-0.154419,0.781006
264884544482,0.538818,-0.275269,-0.154419,0.781006
264884567077,0.538696,-0.275391,-0.154297,0.781128
264884582089,0.538391,-0.275635,-0.154114,0.78125
264884604594,0.538574,-0.276001,-0.153748,0.781067
264884626920,0.538635,-0.276062,-0.153442,0.781067
264884641944,0.538391,-0.276001,-0.153259,0.781311
264884664566,0.538147,-0.276184,-0.153137,0.781433
264884687083,0.53772,-0.276489,-0.153076,0.781616
264884701973,0.537659,-0.2771,-0.152893,0.781494
264884724423,0.537476,-0.277466,-0.152893,0.781494
264884747151,0.537109,-0.277588,-0.153076,0.781616
264884761953,0.536865,-0.27771,-0.153381,0.781677
264884784487,0.536743,-0.277893,-0.153503,0.781677
264884807033,0.536499,-0.278076,-0.153503,0.781799
264884822045,0.536499,-0.278076,-0.153503,0.781799
264884844511,0.536438,-0.278259,-0.15332,0.781799
264884867061,0.536621,-0.278564,-0.153137,0.781616
264884881928,0.536499,-0.27887,-0.152954,0.781616
264884904559,0.536255,-0.279236,-0.152771,0.781738
264884926963,0.536072,-0.279663,-0.152527,0.781738
264884941989,0.535889,-0.280151,-0.152222,0.781738
264884964518,0.535767,-0.280518,-0.151978,0.781738
264884987107,0.535645,-0.280884,-0.151794,0.781738
264885002007,0.535706,-0.28125,-0.151611,0.781616
264885024553,0.535828,-0.281738,-0.151367,0.781372
264885047047,0.535889,-0.28241,-0.151245,0.781128
264885062069,0.535706,-0.283325,-0.151184,0.780884
264885084599,0.535583,-0.284546,-0.151123,0.780579
264885107109,0.535522,-0.285767,-0.150879,0.780212
264885122086,0.535645,-0.286682,-0.150513,0.779846
264885144516,0.535645,-0.286987,-0.150085,0.779846
264885167093,0.5354,-0.286743,-0.14978,0.780151
264885182080,0.535217,-0.286438,-0.149536,0.780457
264885204637,0.535278,-0.286255,-0.149292,0.780518
264885226971,0.5354,-0.286316,-0.14917,0.780396
264885243362,0.5354,-0.286316,-0.14917,0.780396
264885264587,0.5354,-0.286255,-0.149231,0.780396
264885287050,0.535645,-0.286072,-0.14917,0.780396
264885303393,0.535706,-0.285706,-0.149048,0.780457
264885324424,0.535583,-0.285461,-0.148743,0.780701
264885347124,0.535461,-0.285278,-0.148499,0.780884
264885363434,0.535583,-0.285278,-0.14801,0.780884
264885384558,0.53595,-0.285217,-0.147705,0.780762
264885407060,0.536072,-0.285156,-0.147461,0.780701
264885423469,0.536255,-0.285095,-0.1474,0.780579
264885444536,0.536255,-0.285095,-0.1474,0.78064
264885467045,0.536499,-0.285217,-0.147095,0.780457
264885483443,0.536865,-0.285461,-0.14679,0.780212
264885504462,0.537048,-0.285583,-0.146484,0.78009
264885526927,0.53717,-0.285583,-0.14624,0.780029
264885543440,0.537109,-0.285583,-0.146118,0.78009
264885564475,0.537109,-0.285583,-0.146118,0.78009
264885587165,0.537109,-0.285522,-0.146118,0.780151
264885603486,0.536865,-0.285645,-0.146362,0.780151
264885624409,0.536804,-0.286011,-0.146606,0.780029
264885646842,0.536804,-0.286438,-0.14679,0.779846
264885663355,0.536987,-0.286926,-0.146851,0.779541
264885684328,0.537048,-0.286926,-0.146851,0.779541
264885706879,0.537048,-0.286926,-0.146851,0.779541
264885723357,0.537048,-0.286926,-0.146851,0.77948
264885744415,0.537048,-0.286621,-0.147034,0.779602
264885766897,0.537292,-0.286438,-0.147278,0.779419
264885783355,0.537231,-0.28656,-0.147583,0.779358
264885804435,0.537231,-0.286865,-0.147827,0.779236
264885826884,0.537231,-0.287292,-0.147827,0.779053
264885843390,0.537292,-0.287476,-0.147705,0.778992
264885864445,0.537292,-0.287476,-0.147705,0.778992
264885886968,0.537292,-0.287231,-0.147583,0.779053
264885903378,0.537292,-0.286865,-0.147583,0.779175
264885924580,0.537292,-0.286865,-0.147583,0.779236
264885947050,0.537292,-0.286865,-0.147644,0.779236
264885963481,0.537354,-0.286865,-0.147644,0.779175
264885984599,0.537231,-0.286621,-0.147705,0.779358
264886006915,0.537231,-0.286621,-0.147705,0.779358
264886023488,0.537231,-0.286621,-0.147766,0.779297
264886044394,0.537048,-0.286255,-0.147827,0.779602
264886067119,0.536682,-0.285889,-0.147888,0.779968
264886083389,0.536194,-0.285339,-0.148193,0.780396
264886104666,0.535706,-0.284668,-0.148621,0.780945
264886127017,0.534912,-0.283936,-0.14917,0.781616
264886143442,0.533875,-0.283325,-0.149658,0.782471
264886164661,0.532959,-0.282654,-0.149963,0.783264
264886188467,0.532532,-0.282043,-0.150024,0.783752
264886203460,0.532349,-0.281433,-0.149902,0.784119
264886225885,0.531921,-0.280823,-0.149658,0.784668
264886247136,0.53186,-0.280518,-0.14917,0.784912
264886263350,0.532043,-0.280396,-0.148682,0.784973
264886285967,0.53241,-0.280396,-0.148193,0.78479
264886306990,0.532715,-0.280396,-0.147705,0.784668
264886323367,0.53302,-0.280518,-0.147278,0.784546
264886345903,0.533447,-0.280457,-0.146973,0.784302
264886367150,0.533691,-0.280396,-0.146851,0.78418
264886383474,0.533752,-0.280334,-0.146851,0.78418
264886405976,0.533997,-0.280212,-0.146912,0.784058
264886427147,0.533997,-0.280212,-0.146912,0.783997
264886443378,0.533997,-0.280212,-0.146912,0.784058
264886466001,0.533813,-0.28009,-0.147339,0.784119
264886486985,0.53363,-0.279968,-0.147705,0.78418
264886503504,0.533508,-0.279907,-0.147949,0.784302
264886525871,0.533447,-0.279785,-0.148132,0.784302
264886547003,0.533447,-0.279785,-0.148132,0.784302
264886563415,0.533447,-0.279724,-0.148132,0.784363
264886585925,0.533447,-0.279724,-0.148132,0.784363
264886607101,0.533447,-0.279724,-0.148132,0.784363
264886623476,0.533447,-0.279724,-0.148132,0.784363
264886645977,0.533386,-0.279724,-0.148132,0.784363
264886667075,0.533386,-0.279663,-0.148193,0.784363
264886683428,0.533691,-0.279907,-0.148071,0.784119
264886713409,0.533813,-0.280151,-0.14801,0.783936
264886726974,0.533997,-0.280212,-0.148132,0.783813
264886743382,0.534302,-0.280273,-0.148132,0.783569
264886765917,0.534302,-0.280212,-0.148132,0.783569
264886787207,0.534424,-0.280212,-0.148132,0.783508
264886803512,0.534363,-0.280212,-0.148132,0.783508
264886825839,0.534363,-0.280212,-0.148132,0.783508
264886847124,0.534424,-0.280212,-0.147949,0.783508
264886863379,0.534424,-0.280212,-0.147949,0.783508
264886885980,0.534424,-0.280212,-0.147949,0.783508
264886907202,0.534607,-0.280212,-0.147827,0.783447
264886923463,0.534607,-0.280212,-0.147888,0.783447
264886946008,0.534546,-0.280334,-0.147827,0.783447
264886966995,0.534668,-0.280579,-0.147644,0.783325
264886989623,0.534851,-0.280701,-0.147583,0.783142
264887005919,0.534851,-0.28064,-0.147583,0.783142
264887027071,0.534851,-0.28064,-0.147583,0.783142
264887043404,0.534851,-0.28064,-0.147644,0.783142
264887066017,0.534851,-0.28064,-0.147644,0.783142
264887087079,0.534851,-0.28064,-0.147644,0.783142
264887103508,0.534851,-0.28064,-0.147644,0.783142
264887125882,0.534851,-0.280579,-0.147644,0.783203
264887147684,0.534851,-0.280579,-0.147644,0.783142
264887162703,0.534851,-0.280579,-0.147644,0.783203
264887185317,0.534973,-0.280701,-0.147583,0.78302
264887207714,0.534973,-0.280701,-0.147583,0.78302
264887224166,0.534973,-0.280701,-0.147583,0.783081
264887245279,0.534973,-0.28064,-0.147583,0.783081
264887267583,0.535095,-0.280701,-0.147583,0.782959
264887282795,0.535095,-0.280701,-0.147583,0.782959
264887305291,0.534973,-0.280579,-0.147583,0.783142
264887327644,0.534973,-0.280579,-0.147583,0.783142
264887344115,0.534973,-0.280518,-0.147583,0.783142
264887365307,0.534973,-0.280518,-0.147583,0.783142
264887387823,0.534973,-0.280518,-0.147583,0.783142
264887404072,0.534912,-0.280518,-0.147644,0.783142
264887425185,0.534912,-0.280518,-0.147644,0.783142
264887455317,0.534912,-0.280518,-0.147644,0.783142
264887464077,0.534973,-0.280518,-0.147644,0.783142
264887485227,0.534973,-0.280457,-0.147644,0.783142
264887507804,0.534912,-0.280457,-0.147644,0.783142
264887524115,0.534912,-0.280457,-0.147644,0.783142
264887545282,0.534912,-0.280457,-0.147705,0.783142
264887567779,0.534973,-0.280396,-0.147705,0.783142
264887584057,0.534912,-0.280396,-0.147705,0.783142
264887605262,0.534912,-0.280396,-0.147705,0.783203
264887627797,0.534912,-0.280396,-0.147705,0.783203
264887644047,0.534912,-0.280396,-0.147705,0.783203
264887665224,0.534912,-0.280396,-0.147705,0.783203
264887687687,0.534912,-0.280334,-0.147705,0.783203
264887704168,0.534851,-0.280334,-0.147766,0.783203
264887725176,0.534912,-0.280334,-0.147766,0.783203
264887747825,0.534851,-0.280457,-0.147644,0.783203
264887764162,0.534912,-0.280701,-0.147522,0.783142
264887785314,0.534912,-0.280701,-0.147522,0.783142
264887807724,0.534973,-0.280762,-0.147461,0.78302
264887824093,0.534973,-0.280762,-0.147522,0.78302
264887845287,0.535034,-0.280701,-0.147522,0.78302
264887869151,0.535034,-0.280701,-0.147522,0.78302
264887884162,0.535095,-0.280945,-0.147339,0.782898
264887905332,0.535217,-0.281189,-0.147095,0.782776
264887927623,0.535095,-0.281433,-0.146912,0.782837
264887944065,0.535217,-0.281738,-0.146729,0.782715
264887965393,0.5354,-0.282104,-0.146484,0.782471
264887987850,0.535645,-0.28241,-0.146179,0.782288
264888004108,0.535583,-0.282471,-0.145996,0.782288
264888025335,0.535706,-0.282532,-0.145874,0.782227
264888047860,0.535767,-0.282654,-0.145752,0.782166
264888063484,0.535889,-0.282776,-0.145874,0.781982
264888085300,0.536011,-0.282776,-0.145996,0.78186
264888107819,0.536133,-0.282898,-0.146057,0.781738
264888123502,0.536133,-0.282898,-0.146057,0.781738
264888145279,0.536133,-0.282898,-0.146057,0.781738
264888175208,0.536133,-0.282898,-0.146057,0.781738
264888183469,0.536133,-0.282898,-0.146057,0.781738
264888205349,0.536133,-0.282898,-0.146057,0.781738
264888227655,0.536133,-0.282898,-0.146057,0.781738
264888243419,0.536133,-0.282898,-0.146057,0.781738
264888266643,0.536133,-0.28302,-0.145813,0.781738
264888287803,0.536194,-0.283203,-0.145569,0.781677
264888303490,0.536194,-0.283325,-0.145325,0.781677
264888326548,0.536255,-0.283386,-0.145142,0.781677
264888347842,0.536255,-0.283325,-0.145142,0.781677
264888363554,0.536255,-0.283325,-0.145142,0.781677
264888386656,0.536316,-0.283325,-0.145203,0.781677
264888407736,0.536316,-0.283325,-0.145203,0.781677
264888423459,0.536194,-0.283142,-0.145142,0.781799
264888446587,0.536194,-0.283142,-0.145142,0.781799
264888467834,0.536194,-0.283081,-0.145142,0.781799
264888491697,0.536194,-0.283081,-0.145142,0.78186
264888506668,0.53595,-0.283142,-0.145081,0.781982
264888527617,0.53595,-0.283142,-0.145081,0.781982
264888543382,0.53595,-0.283142,-0.145081,0.781982
264888566629,0.53595,-0.283142,-0.145081,0.781982
264888587834,0.535645,-0.282898,-0.14502,0.782288
264888603529,0.535706,-0.282349,-0.14502,0.78241
264888626587,0.535828,-0.281738,-0.144836,0.782593
264888647803,0.535706,-0.280884,-0.14447,0.783081
264888663474,0.535583,-0.280151,-0.143982,0.783508
264888686653,0.535095,-0.27948,-0.143311,0.78418
264888707757,0.534912,-0.27887,-0.142517,0.784668
264888723571,0.534668,-0.27832,-0.141541,0.785217
264888746615,0.534363,-0.27771,-0.140503,0.785828
264888767713,0.533569,-0.276978,-0.139404,0.786865
264888783468,0.532166,-0.276306,-0.138489,0.788147
264888806659,0.529968,-0.275391,-0.137634,0.790161
264888827919,0.528809,-0.274719,-0.135742,0.791443
264888843441,0.528259,-0.273926,-0.133179,0.792542
264888866662,0.52655,-0.272644,-0.130798,0.794495
264888887746,0.524414,-0.270996,-0.128174,0.796875
264888903469,0.523499,-0.269226,-0.124939,0.798645
264888926567,0.523438,-0.267639,-0.121033,0.799805
264888947792,0.522522,-0.266052,-0.117249,0.801453
264888963563,0.520447,-0.264282,-0.11377,0.803894
264888986725,0.518311,-0.262634,-0.110535,0.806335
264889007671,0.516296,-0.261169,-0.107239,0.808533
264889023422,0.514587,-0.260071,-0.102966,0.810486
264889046034,0.513245,-0.259583,-0.0978394,0.812134
264889068255,0.512329,-0.259583,-0.0923462,0.813354
264889083576,0.51123,-0.259766,-0.0872803,0.814514
264889106003,0.510681,-0.260254,-0.0820923,0.815308
264889129182,0.510437,-0.260986,-0.0765381,0.815735
264889143435,0.509521,-0.262146,-0.0714111,0.816406
264889165895,0.506714,-0.263367,-0.0673828,0.818115
264889189197,0.503601,-0.264343,-0.0641479,0.819946
264889203460,0.502991,-0.265564,-0.0602417,0.820251
264889225971,0.506348,-0.266846,-0.0567627,0.817993
264889249109,0.507935,-0.266235,-0.0568848,0.8172
264889263415,0.506958,-0.264648,-0.0595093,0.818176
264889285990,0.507507,-0.263428,-0.0611572,0.818054
264889316617,0.508301,-0.262939,-0.0621948,0.817627
264889331593,0.508728,-0.262451,-0.0626831,0.817505
264889345985,0.508667,-0.26239,-0.0627441,0.817566
264889369112,0.507385,-0.262573,-0.0621338,0.818359
264889383488,0.506287,-0.263367,-0.0605469,0.818909
264889405972,0.506348,-0.264648,-0.0578003,0.818665
264889429109,0.506348,-0.266418,-0.0542603,0.818298
264889443480,0.505676,-0.268677,-0.0492554,0.818298
264889466035,0.505127,-0.271545,-0.0427246,0.818054
264889489621,0.504333,-0.274719,-0.0354614,0.81781
264889511572,0.504333,-0.277344,-0.0296021,0.8172
264889525962,0.506348,-0.278748,-0.0262451,0.815552
264889549199,0.507446,-0.27887,-0.0265503,0.81488
264889570331,0.506348,-0.278076,-0.027832,0.815735
264889585948,0.504639,-0.277832,-0.0274048,0.816895
264889609124,0.503235,-0.278748,-0.0251465,0.817505
264889623556,0.502197,-0.280029,-0.0230713,0.81781
264889646026,0.500305,-0.281433,-0.0221558,0.818481
264889669203,0.497498,-0.282959,-0.0222168,0.819702
264889683543,0.494568,-0.284119,-0.022644,0.821045
264889706002,0.491882,-0.285034,-0.0228882,0.822327
264889729072,0.489746,-0.286011,-0.0230713,0.823242
264889750213,0.48822,-0.287109,-0.0234985,0.823792
264889765986,0.487366,-0.287903,-0.0239868,0.823975
264889789156,0.487305,-0.288147,-0.0244751,0.823914
264889810194,0.487732,-0.288208,-0.0249023,0.823608
264889825923,0.488159,-0.288635,-0.0251465,0.823242
264889849171,0.48822,-0.289246,-0.0255127,0.822998
264889870353,0.487854,-0.289673,-0.0258789,0.822998
264889885967,0.487427,-0.289795,-0.026123,0.823242
264889909103,0.486816,-0.28949,-0.026123,0.82373
264889930146,0.486206,-0.289185,-0.026062,0.824158
264889945997,0.485229,-0.28894,-0.0263062,0.824829
264889968549,0.483948,-0.28894,-0.0268555,0.825562
264889990382,0.482849,-0.289124,-0.0274048,0.826111
264890005991,0.482117,-0.289246,-0.0276489,0.826477
264890028511,0.481689,-0.289246,-0.027771,0.826721
264890050353,0.481812,-0.289246,-0.0275879,0.82666
264890066030,0.482117,-0.289185,-0.0274658,0.826538
264890088639,0.481934,-0.289307,-0.0274658,0.826599
264890110668,0.481201,-0.289368,-0.0276489,0.826965
264890125974,0.480286,-0.289307,-0.0279541,0.827515
264890148546,0.480225,-0.289246,-0.0279541,0.827576
264890171809,0.480469,-0.289001,-0.0280762,0.827515
264890186028,0.480896,-0.288879,-0.0281372,0.827332
264890208563,0.481201,-0.28894,-0.0282593,0.827087
264890231655,0.481323,-0.289062,-0.0281982,0.826965
264890245937,0.481506,-0.289185,-0.0280762,0.826843
264890268554,0.481873,-0.289062,-0.0279541,0.82666
264890291721,0.481934,-0.288879,-0.0280762,0.826721
264890306038,0.48175,-0.288574,-0.0283813,0.826904
264890328503,0.481262,-0.288208,-0.0287476,0.827332
264890351645,0.480652,-0.287842,-0.0291138,0.827759
264890365983,0.480164,-0.287537,-0.0294189,0.828186
264890388449,0.480103,-0.287476,-0.0294189,0.828186
264890411643,0.480103,-0.287476,-0.0294189,0.828247
264890425974,0.480042,-0.287476,-0.0294189,0.828247
264890448477,0.480347,-0.287415,-0.0292358,0.828125
264890471759,0.480774,-0.287231,-0.0292358,0.827881
264890485993,0.48114,-0.287109,-0.0293579,0.827698
264890508492,0.481201,-0.287109,-0.0293579,0.827698
264890531712,0.481201,-0.287109,-0.0292969,0.827698
264890546031,0.48114,-0.287109,-0.0292969,0.827759
264890568577,0.481262,-0.287048,-0.0293579,0.827698
264890591689,0.481628,-0.286987,-0.0292969,0.827515
264890605948,0.481934,-0.286804,-0.0292969,0.827393
264890628558,0.482117,-0.286438,-0.0293579,0.827393
264890651662,0.482239,-0.286011,-0.029541,0.827454
264890672893,0.482239,-0.28595,-0.029541,0.827515
264890688543,0.482239,-0.28595,-0.029541,0.827515
264890711614,0.481995,-0.28595,-0.0296021,0.827637
264890732741,0.481689,-0.285889,-0.0297241,0.82782
264890748460,0.481689,-0.285889,-0.0298462,0.82782
264890771581,0.482117,-0.28595,-0.0299072,0.827515
264890792711,0.482483,-0.286011,-0.0298462,0.827332
264890808529,0.482483,-0.286011,-0.0299072,0.827332
264890839192,0.4823,-0.285767,-0.0300293,0.827515
264890852730,0.482239,-0.285522,-0.0302124,0.827637
264890868525,0.482239,-0.285461,-0.0302124,0.827637
264890891596,0.482117,-0.285217,-0.0302734,0.82782
264890904484,0.482117,-0.285156,-0.0303345,0.82782
264890927682,0.482056,-0.285156,-0.0302124,0.827881
264890942200,0.482056,-0.285278,-0.0300293,0.82782
264890964612,0.482056,-0.285278,-0.0300293,0.82782
264890987911,0.481873,-0.285278,-0.0300293,0.827942
264891002205,0.481628,-0.285278,-0.0300293,0.828064
264891024756,0.481628,-0.285217,-0.0300293,0.828064
264891047796,0.481628,-0.285217,-0.0300293,0.828125
264891062094,0.48175,-0.285339,-0.0298462,0.828003
264891084688,0.482056,-0.285339,-0.0297241,0.82782
264891107904,0.4823,-0.285461,-0.0297241,0.827637
264891122230,0.4823,-0.2854,-0.0297241,0.827637
264891144671,0.4823,-0.2854,-0.0297241,0.827637
264891167752,0.482544,-0.285522,-0.0296631,0.827454
264891182207,0.483093,-0.285706,-0.029541,0.827087
264891204770,0.483765,-0.285828,-0.02948,0.82666
264891227761,0.484009,-0.285828,-0.0296631,0.826477
264891242050,0.483887,-0.285767,-0.0299683,0.826538
264891264767,0.483521,-0.285645,-0.0302124,0.826843
264891287884,0.483093,-0.285522,-0.0303345,0.827087
264891302256,0.482727,-0.285461,-0.0304565,0.827332
264891324607,0.482239,-0.285583,-0.0307007,0.827576
264891347889,0.481384,-0.286133,-0.0307007,0.827881
264891362227,0.480774,-0.286438,-0.0309448,0.828125
264891384614,0.480408,-0.286377,-0.0310669,0.828369
264891407888,0.48053,-0.286194,-0.0309448,0.828369
264891422208,0.481079,-0.286133,-0.0307007,0.828064
264891453569,0.481812,-0.286438,-0.0305786,0.827576
264891467830,0.482361,-0.286865,-0.0303955,0.827087
264891482210,0.48291,-0.28717,-0.0303345,0.82666
264891504714,0.483765,-0.287292,-0.0300293,0.826111
264891527674,0.484314,-0.287292,-0.0299072,0.825806
264891542083,0.484375,-0.287292,-0.0299072,0.825806
264891564563,0.483887,-0.287231,-0.0300903,0.82605
264891587724,0.483582,-0.287292,-0.0301514,0.826233
264891602044,0.483582,-0.287292,-0.0301514,0.826233
264891624672,0.483521,-0.287292,-0.0301514,0.826233
264891647907,0.483704,-0.287292,-0.0300293,0.826172
264891662105,0.483704,-0.287231,-0.0300293,0.826172
264891684704,0.483704,-0.287231,-0.0300903,0.826172
264891707937,0.483704,-0.287231,-0.0300903,0.826172
264891722225,0.483887,-0.286987,-0.0300293,0.826111
264891744679,0.484009,-0.286743,-0.0299683,0.826172
264891767782,0.483826,-0.286743,-0.0300903,0.826294
264891782202,0.483826,-0.286682,-0.0300903,0.826294
264891804716,0.484253,-0.286438,-0.0300293,0.826172
264891827673,0.484497,-0.286133,-0.0300293,0.826111
264891842108,0.484497,-0.286072,-0.0300293,0.826111
264891864635,0.484131,-0.286072,-0.0300903,0.826294
264891887736,0.483704,-0.28595,-0.0300903,0.826599
264891902228,0.483521,-0.285645,-0.0301514,0.826843
264891924756,0.483521,-0.285645,-0.0301514,0.826843
264891947818,0.483459,-0.285645,-0.0301514,0.826843
264891962045,0.483154,-0.285583,-0.0301514,0.827087
264891984769,0.483154,-0.285583,-0.0301514,0.827087
264892007272,0.483154,-0.285522,-0.0301514,0.827087
264892022174,0.483154,-0.285522,-0.0302124,0.827087
264892044662,0.483154,-0.285461,-0.0302124,0.827087
264892067214,0.483154,-0.285461,-0.0302124,0.827087
264892082227,0.483154,-0.285461,-0.0302124,0.827087
264892104624,0.483154,-0.285461,-0.0302124,0.827087
264892127127,0.483154,-0.2854,-0.0302124,0.827148
264892142182,0.483093,-0.2854,-0.0302124,0.827148
264892164630,0.483093,-0.2854,-0.0302124,0.827148
264892187125,0.48291,-0.2854,-0.0301514,0.827271
264892202076,0.482361,-0.285339,-0.0301514,0.827576
264892224631,0.481689,-0.285339,-0.0303345,0.828003
264892247248,0.481628,-0.285339,-0.0303345,0.828064
264892262125,0.481628,-0.2854,-0.0301514,0.828003
264892284540,0.481812,-0.285461,-0.0300293,0.827881
264892307055,0.481934,-0.285461,-0.0300903,0.82782
264892322005,0.482178,-0.285645,-0.0301514,0.827637
264892344559,0.482483,-0.285889,-0.0302124,0.827332
264892367135,0.482605,-0.286011,-0.0303345,0.827209
264892382014,0.482544,-0.286011,-0.0303345,0.827271
264892404578,0.482544,-0.286011,-0.0303345,0.827271
264892427056,0.4823,-0.285889,-0.0304565,0.827454
264892442081,0.481934,-0.285889,-0.0306396,0.827637
264892466652,0.481628,-0.285828,-0.0308228,0.82782
264892487042,0.481628,-0.285828,-0.0308228,0.827881
264892502053,0.481812,-0.285889,-0.0308838,0.827698
264892524578,0.482117,-0.28595,-0.0308838,0.827515
264892547059,0.482117,-0.28595,-0.0309448,0.827515
264892562092,0.481995,-0.286072,-0.0308228,0.827576
264892584552,0.481812,-0.286133,-0.0307007,0.827637
264892607014,0.481812,-0.286133,-0.0307007,0.827637
264892622047,0.481995,-0.286194,-0.0305786,0.827515
264892644588,0.481995,-0.286194,-0.0305786,0.827515
264892667072,0.481995,-0.286194,-0.0305786,0.827515
264892682062,0.481934,-0.286194,-0.0305786,0.827515
264892704583,0.481934,-0.286133,-0.0305786,0.827515
264892727066,0.481995,-0.286133,-0.0305786,0.827576
264892742051,0.481689,-0.286011,-0.0306396,0.827759
264892764602,0.481323,-0.285889,-0.0306396,0.828003
264892787106,0.481262,-0.285889,-0.0306396,0.828064
264892802067,0.481262,-0.285828,-0.0306396,0.828064
264892824589,0.481445,-0.285889,-0.0305786,0.827942
264892847052,0.481445,-0.285889,-0.0305786,0.827942
264892863563,0.481445,-0.285889,-0.0305786,0.827942
264892884579,0.481445,-0.285889,-0.0305786,0.827942
264892907086,0.481384,-0.285889,-0.0305786,0.827942
264892923580,0.481384,-0.285889,-0.0305786,0.828003
264892944550,0.481384,-0.285889,-0.0305786,0.828003
264892967092,0.481384,-0.285889,-0.0305786,0.828003
264892983552,0.481323,-0.285889,-0.0305786,0.828003
264893004567,0.481323,-0.285828,-0.0305786,0.828003
264893027086,0.481445,-0.285889,-0.0305176,0.827942
264893043530,0.481445,-0.285889,-0.0305176,0.827942
264893064608,0.481201,-0.285828,-0.0306396,0.828064
264893088541,0.481262,-0.286011,-0.0307007,0.828003
264893103577,0.481689,-0.286194,-0.0307007,0.827698
264893124577,0.482056,-0.286377,-0.0305786,0.827393
264893147087,0.482483,-0.286682,-0.0303955,0.827087
264893163547,0.482727,-0.286743,-0.0302734,0.826904
264893192720,0.482544,-0.286682,-0.0302734,0.827026
264893207072,0.482056,-0.286499,-0.0303345,0.827393
264893223525,0.481567,-0.286377,-0.0303345,0.827698
264893244564,0.481262,-0.286194,-0.0303345,0.827942
264893267103,0.481201,-0.286194,-0.0303345,0.828003
264893283551,0.481201,-0.286194,-0.0303345,0.828003
264893304566,0.481262,-0.286133,-0.0302124,0.827942
264893327118,0.481445,-0.286194,-0.0301514,0.82782
264893343532,0.481628,-0.286255,-0.0300293,0.827698
264893364603,0.481812,-0.286377,-0.0298462,0.827576
264893395237,0.481689,-0.286499,-0.0297852,0.827637
264893403533,0.481323,-0.286621,-0.0297241,0.82782
264893424640,0.480957,-0.286743,-0.0297241,0.827942
264893447104,0.480835,-0.286865,-0.0296631,0.828003
264893463556,0.481018,-0.286987,-0.0297241,0.82782
264893484583,0.48175,-0.287354,-0.029541,0.827332
264893507105,0.482361,-0.287598,-0.0294189,0.826843
264893523564,0.482605,-0.287598,-0.0293579,0.826721
264893544630,0.482727,-0.287659,-0.0294189,0.826599
264893567122,0.483032,-0.28772,-0.0293579,0.826416
264893583530,0.483582,-0.288025,-0.0290527,0.825989
264893604585,0.483765,-0.288025,-0.0289307,0.825867
264893627031,0.483521,-0.287903,-0.0290527,0.826111
264893643526,0.483398,-0.287842,-0.0292358,0.826172
264893664578,0.483093,-0.287842,-0.0292969,0.826355
264893687145,0.482727,-0.287842,-0.0293579,0.826538
264893703563,0.482666,-0.287842,-0.0293579,0.826599
264893724574,0.482788,-0.287964,-0.0292358,0.826477
264893747139,0.482971,-0.288025,-0.0291748,0.826355
264893763573,0.482971,-0.288025,-0.0291748,0.826355
264893786060,0.483154,-0.288086,-0.0290527,0.826233
264893808530,0.483154,-0.288086,-0.0290527,0.826233
264893823526,0.483093,-0.288086,-0.0289917,0.826233
264893846042,0.483337,-0.287964,-0.0289917,0.826172
264893867102,0.483337,-0.287964,-0.0289917,0.826172
264893883537,0.483215,-0.287903,-0.0292969,0.826294
264893906057,0.482849,-0.287659,-0.029541,0.826538
264893927088,0.482849,-0.287598,-0.029541,0.826538
264893943565,0.482849,-0.287598,-0.029541,0.826538
264893965978,0.482849,-0.287598,-0.029541,0.826538
264893987093,0.482849,-0.287598,-0.029541,0.826538
264894003578,0.482788,-0.287598,-0.029541,0.826599
264894026026,0.483032,-0.287476,-0.029541,0.826538
264894047098,0.483276,-0.287354,-0.029541,0.826416
264894063535,0.483276,-0.287354,-0.029541,0.826416
264894086031,0.483276,-0.287354,-0.029541,0.826416
264894107112,0.483276,-0.287292,-0.0296021,0.826416
264894123539,0.483276,-0.287292,-0.0296021,0.826416
264894146057,0.483276,-0.287292,-0.0296021,0.826416
264894167101,0.483276,-0.287292,-0.0296021,0.826416
264894183577,0.483215,-0.287292,-0.0296021,0.826477
264894206069,0.483215,-0.287231,-0.0296021,0.826477
264894227073,0.483215,-0.287231,-0.0296021,0.826477
264894243534,0.483215,-0.287231,-0.0296021,0.826477
264894266076,0.483154,-0.287292,-0.0294189,0.826477
264894287156,0.483215,-0.287537,-0.0292358,0.826416
264894303694,0.483215,-0.287476,-0.0292358,0.826416
264894326061,0.483215,-0.287476,-0.0292358,0.826416
264894347259,0.483276,-0.287598,-0.0291138,0.826355
264894363648,0.483032,-0.287781,-0.0289307,0.826416
264894386144,0.482971,-0.287781,-0.0289307,0.826416
264894407120,0.483032,-0.287781,-0.0288696,0.826416
264894423518,0.483215,-0.287781,-0.0288086,0.826294
264894446107,0.483643,-0.287964,-0.0288086,0.825989
264894467836,0.483704,-0.287964,-0.0288086,0.825989
264894483535,0.483643,-0.287964,-0.0288086,0.825989
264894506184,0.483643,-0.287903,-0.0288086,0.825989
264894527178,0.483704,-0.287598,-0.0287476,0.826111
264894543547,0.48407,-0.287354,-0.0286255,0.825989
264894566208,0.48468,-0.287415,-0.0283813,0.825623
264894587286,0.485413,-0.287476,-0.0284424,0.825134
264894603623,0.48584,-0.287537,-0.0285645,0.82489
264894626095,0.48584,-0.287537,-0.0285645,0.824829
264894647155,0.485474,-0.287476,-0.0285034,0.825073
264894663697,0.485229,-0.287415,-0.0282593,0.825256
264894686027,0.485229,-0.287415,-0.0282593,0.825256
264894708702,0.485474,-0.287476,-0.0281372,0.825134
264894722943,0.485779,-0.287598,-0.0280762,0.82489
264894745271,0.486145,-0.287598,-0.0280151,0.824646
264894767824,0.486206,-0.287598,-0.0280151,0.824646
264894782969,0.486145,-0.287598,-0.0280151,0.824707
264894805345,0.48584,-0.287537,-0.0280151,0.82489
264894827808,0.485657,-0.287537,-0.0279541,0.825012
264894842819,0.485596,-0.287537,-0.0279541,0.825012
264894865466,0.485718,-0.287598,-0.027771,0.824951
264894887797,0.486084,-0.28772,-0.02771,0.824707
264894904293,0.486328,-0.287781,-0.0275879,0.824524
264894925474,0.486511,-0.287842,-0.0275269,0.824402
264894947907,0.486755,-0.287903,-0.0274658,0.824219
264894964230,0.486755,-0.287903,-0.0274658,0.824219
264894985432,0.486755,-0.287842,-0.0274658,0.82428
264895007784,0.486694,-0.287842,-0.0274658,0.82428
264895024177,0.486694,-0.287842,-0.0274658,0.82428
264895045289,0.486694,-0.287842,-0.0275269,0.82428
264895067766,0.486816,-0.287903,-0.0274658,0.824219
264895084225,0.487,-0.287964,-0.0273438,0.824097
264895105316,0.487,-0.287964,-0.0273438,0.824097
264895127787,0.487,-0.287964,-0.0273438,0.824097
264895144197,0.487,-0.287903,-0.0273438,0.824097
264895165270,0.487061,-0.287964,-0.0272827,0.824036
264895187750,0.487244,-0.287903,-0.0272217,0.823975
264895204269,0.487427,-0.287781,-0.0271606,0.823853
264895225247,0.487427,-0.287781,-0.0271606,0.823853
264895249184,0.487427,-0.287781,-0.0271606,0.823914
264895264187,0.487427,-0.28772,-0.0271606,0.823914
264895285299,0.487366,-0.28772,-0.0271606,0.823914
264895307752,0.48761,-0.28772,-0.0271606,0.823792
264895324209,0.48761,-0.28772,-0.0271606,0.823792
264895345271,0.48761,-0.28772,-0.0271606,0.823792
264895367782,0.48761,-0.287659,-0.0271606,0.823853
264895384180,0.48761,-0.287659,-0.0271606,0.823853
264895405337,0.48761,-0.287659,-0.0271606,0.823792
264895427814,0.48761,-0.287659,-0.0271606,0.823792
264895444217,0.487427,-0.287537,-0.0272217,0.823975
264895465325,0.487366,-0.287476,-0.0272217,0.824036
264895487774,0.487427,-0.287476,-0.0272217,0.824036
264895504219,0.487427,-0.287415,-0.0272827,0.824036
264895525233,0.487244,-0.287354,-0.0272827,0.824158
264895547817,0.487183,-0.287354,-0.0272827,0.824158
264895564261,0.486938,-0.287292,-0.0272827,0.824341
264895585305,0.486938,-0.287231,-0.0272827,0.824341
264895607820,0.486938,-0.287231,-0.0272827,0.824341
264895624211,0.486633,-0.287109,-0.0272827,0.824585
264895645262,0.486389,-0.287048,-0.0272217,0.824768
264895667810,0.486389,-0.287048,-0.0272217,0.824768
264895683567,0.486328,-0.287048,-0.0272217,0.824768
