timestamp,roll,pitch,yaw
58483251856,-0.0109109,1.51929,-0.494155
58483283162,-0.0401302,1.52164,-0.52314
58483285283,-0.0545618,1.52499,-0.537881
58483304446,-0.0619583,1.53112,-0.544309
58483319452,-0.0848818,1.53196,-0.56395
58483343143,-0.133416,1.53436,-0.60973
58483364545,-0.159868,1.53636,-0.635939
58483401114,-0.188395,1.5358,-0.663531
58483411240,-0.202181,1.5333,-0.677892
58483424257,-0.200606,1.53175,-0.678011
58483439290,-0.198606,1.52895,-0.676629
58483461756,-0.215303,1.52767,-0.693736
58483484298,-0.226805,1.52654,-0.706219
58483499249,-0.233747,1.52713,-0.714537
58483521823,-0.242778,1.52558,-0.723765
58483544317,-0.247628,1.52501,-0.729046
58483559328,-0.254068,1.52689,-0.736934
58483581773,-0.258482,1.52757,-0.742547
58483604312,-0.25251,1.52765,-0.737894
58483619296,-0.247249,1.52665,-0.733093
58483641806,-0.248637,1.52577,-0.73456
58483664309,-0.25575,1.52585,-0.742326
58483679303,-0.263666,1.52635,-0.751575
58483701808,-0.269327,1.52656,-0.75784
58483725022,-0.278109,1.52765,-0.767508
58483739308,-0.288748,1.52689,-0.777812
58483761796,-0.300142,1.52846,-0.789697
58483784267,-0.310462,1.52863,-0.799942
58483799265,-0.321698,1.52824,-0.810479
58483821822,-0.344645,1.5283,-0.833059
58483844299,-0.359134,1.52841,-0.847507
58483859364,-0.370766,1.52801,-0.858454
58483881871,-0.380626,1.52855,-0.867544
58483904368,-0.398947,1.53062,-0.885972
58483919284,-0.396808,1.52856,-0.883042
58483941826,-0.400553,1.53008,-0.8873
58483964336,-0.401206,1.53067,-0.888908
58483979317,-0.392704,1.52941,-0.8808
58484001853,-0.383991,1.53182,-0.873123
58484024362,-0.373243,1.5299,-0.861429
58484046817,-0.359787,1.53116,-0.84811
58484061838,-0.349905,1.5324,-0.838408
58484084288,-0.336923,1.53376,-0.825937
58484098668,-0.324115,1.53278,-0.813129
58484121748,-0.306994,1.53186,-0.795967
58484144344,-0.288187,1.53259,-0.777373
58484158657,-0.269217,1.53239,-0.757847
58484181861,-0.254992,1.53555,-0.744456
58484204381,-0.231156,1.53588,-0.720083
58484218749,-0.20575,1.53501,-0.69411
58484241846,-0.171503,1.53697,-0.661588
58484264346,-0.128261,1.53596,-0.618899
58484278698,-0.0809176,1.53673,-0.572934
58484301862,-0.0346982,1.53884,-0.528172
58484324391,0.0209374,1.53652,-0.471886
58484338701,0.0798311,1.53859,-0.414125
58484361880,0.140305,1.53676,-0.353084
58484384296,0.195301,1.53626,-0.298753
58484400143,0.257256,1.53942,-0.240181
58484423280,0.327404,1.53743,-0.1704
58484444441,0.400162,1.53653,-0.0978161
58484460134,0.472694,1.53814,-0.0262826
58484483340,0.541737,1.53484,0.0442138
58484504357,0.60601,1.53633,0.107517
58484520102,0.671718,1.53428,0.173377
58484543710,0.735615,1.53427,0.236574
58484564415,0.791212,1.5304,0.293477
58484580199,0.847387,1.5313,0.348282
58484603323,0.902744,1.52836,0.403624
58484624348,0.944258,1.5272,0.44499
58484640099,0.970484,1.52356,0.473514
58484663294,0.994354,1.52254,0.498027
58484684386,1.0208,1.51837,0.526753
58484700190,1.05392,1.51734,0.559825
58484723278,1.08633,1.5141,0.592824
58484744373,1.12011,1.51113,0.626515
58484760164,1.16327,1.50789,0.669752
58484783262,1.20828,1.50519,0.714679
58484804337,1.25336,1.50177,0.758865
58484820142,1.30256,1.49857,0.808032
58484843333,1.34741,1.49479,0.853483
58484864333,1.38879,1.49074,0.896633
58484880076,1.42945,1.48728,0.938584
58484903315,1.4673,1.48375,0.97716
58484924368,1.50224,1.47843,1.01398
58484940057,1.52974,1.47409,1.04463
58484970719,1.55464,1.46837,1.07486
58484984310,1.58642,1.46252,1.11478
58485000180,1.60584,1.45787,1.14529
58485022641,1.6213,1.45463,1.16796
58485044404,1.64051,1.45123,1.18859
58485060095,1.65484,1.44525,1.20462
58485082637,1.65202,1.4398,1.20662
58485104387,1.66183,1.43469,1.22105
58485120119,1.66382,1.43034,1.22632
58485142640,1.66744,1.42488,1.23272
58485164345,1.65133,1.42067,1.21999
58485180145,1.59886,1.41826,1.16864
58485202645,1.56025,1.41539,1.13263
58485225795,1.52825,1.41156,1.1022
58485240191,1.50017,1.40643,1.07563
58485262659,1.47532,1.4018,1.05312
58485285812,1.45109,1.39624,1.03176
58485300162,1.43097,1.39163,1.01438
58485322641,1.41569,1.38695,1.00226
58485345776,1.40818,1.38191,0.998395
58485360164,1.40613,1.37734,0.999813
58485382599,1.40121,1.37266,0.997089
58485406411,1.40884,1.36872,1.0079
58485420101,1.41456,1.36538,1.01765
58485442644,1.41991,1.36229,1.02573
58485465763,1.4217,1.35988,1.03156
58485480204,1.42062,1.35759,1.03121
58485502657,1.4179,1.35504,1.02896
58485525795,1.41632,1.35352,1.0278
58485540123,1.4144,1.35233,1.02579
58485562670,1.4128,1.3518,1.02345
58485585835,1.40415,1.35111,1.01269
58485600145,1.40197,1.35096,1.00684
58485622627,1.39599,1.35046,0.995688
58485645804,1.39451,1.35049,0.989422
58485660166,1.39278,1.34987,0.986237
58485690753,1.38831,1.35164,0.982638
58485705781,1.38875,1.35208,0.981247
58485726811,1.39065,1.35241,0.9813
58485742607,1.39154,1.35258,0.980984
58485765741,1.39191,1.35394,0.980463
58485786841,1.3934,1.35533,0.981171
58485802616,1.39822,1.35708,0.984376
58485825717,1.4056,1.35881,0.988328
58485846823,1.41532,1.36027,0.995697
58485869340,1.42404,1.36241,1.00251
58485891873,1.43315,1.36475,1.00996
58485906856,1.44458,1.36751,1.02047
58485922596,1.45829,1.37135,1.03399
58485945136,1.47536,1.37617,1.04841
58485966854,1.49823,1.38024,1.06722
58485982589,1.52149,1.38436,1.08734
58486005113,1.54358,1.38766,1.10944
58486026914,1.56746,1.39245,1.13505
58486042647,1.59327,1.3968,1.16097
58486065189,1.61821,1.40134,1.18219
58486086920,1.64115,1.40579,1.20084
58486102669,1.65924,1.40899,1.21588
58486125175,1.67313,1.41168,1.22875
58486148383,1.68237,1.41409,1.23654
58486162720,1.69452,1.41652,1.24437
58486185154,1.70827,1.41996,1.25248
58486208311,1.72191,1.42273,1.26004
58486222704,1.73816,1.42594,1.26993
58486245158,1.75572,1.42793,1.28175
58486268276,1.77596,1.42933,1.29765
58486282735,1.79386,1.43108,1.31138
58486305182,1.8104,1.43299,1.32403
58486328313,1.82823,1.43472,1.33752
58486342623,1.84404,1.43651,1.34897
58486365197,1.85754,1.43848,1.35876
58486388322,1.87116,1.43965,1.36934
58486402719,1.88713,1.44115,1.38311
58486425226,1.90191,1.44211,1.39628
58486448374,1.91802,1.4435,1.41092
58486462607,1.93398,1.4438,1.42551
58486485189,1.95056,1.44473,1.44113
58486508280,1.96797,1.44575,1.45787
58486522578,1.98377,1.44608,1.47265
58486545145,1.99598,1.44684,1.48363
58486568276,2.00756,1.44737,1.4947
58486582636,2.01767,1.44759,1.50448
58486605101,2.02721,1.44858,1.51338
58486628248,2.03388,1.44884,1.51933
58486649303,2.0401,1.44942,1.52504
58486665210,2.03934,1.44877,1.52353
58486688775,2.04608,1.44874,1.53092
58486701231,2.05081,1.45007,1.53694
58486724513,2.05091,1.44937,1.53695
58486738760,2.05314,1.45029,1.53855
58486761283,2.05506,1.45015,1.53988
58486784365,2.05538,1.45067,1.54071
58486800234,2.05549,1.44971,1.54183
58486821170,2.06091,1.45035,1.54805
58486844377,2.06533,1.45002,1.5529
58486858794,2.07223,1.44943,1.5603
58486881212,2.08072,1.44974,1.56933
58486904362,2.08908,1.44856,1.57803
58486918713,2.09425,1.44841,1.58391
58486941186,2.09862,1.44865,1.58919
58486964383,2.10056,1.44806,1.59201
58486978702,2.10434,1.44807,1.59645
58487001217,2.10412,1.4476,1.59672
58487024360,2.10474,1.44731,1.59812
58487038682,2.10734,1.44706,1.60109
58487061149,2.10918,1.44625,1.6035
58487084361,2.11305,1.44615,1.6084
58487098693,2.11688,1.44592,1.61332
58487121296,2.1207,1.44539,1.61763
58487144463,2.12404,1.44545,1.6216
58487158776,2.12707,1.44424,1.62535
58487181239,2.13192,1.44491,1.631
58487204442,2.13359,1.44373,1.63339
58487218765,2.13803,1.44381,1.63884
58487241298,2.14246,1.44401,1.64424
58487264393,2.14615,1.44349,1.64843
58487286888,2.14972,1.44338,1.65272
58487301204,2.15245,1.4431,1.65587
58487324101,2.15553,1.44302,1.65932
58487338724,2.15777,1.44294,1.66228
58487361248,2.16038,1.44308,1.66555
58487384349,2.16224,1.44261,1.66754
58487398687,2.16651,1.44273,1.67176
58487421185,2.16533,1.44209,1.67045
58487444461,2.16671,1.44183,1.67226
58487458648,2.16967,1.4423,1.67576
58487481270,2.17136,1.44235,1.67745
58487504397,2.17134,1.44247,1.67737
58487518754,2.17134,1.44247,1.67737
58487541287,2.17134,1.44247,1.67737
58487564478,2.17134,1.44247,1.67737
58487578780,2.17145,1.44212,1.67795
58487601275,2.17145,1.44212,1.67795
58487624900,2.17145,1.44212,1.67795
58487638788,2.17145,1.44212,1.67795
58487661285,2.17145,1.44212,1.67795
58487684355,2.17145,1.44212,1.67795
58487698689,2.17133,1.44279,1.67797
58487721166,2.17016,1.44215,1.67665
58487744327,2.17145,1.44212,1.67795
58487758691,2.17214,1.44291,1.67837
58487781216,2.17096,1.44227,1.67706
58487804422,2.17096,1.44227,1.67706
58487818719,2.17098,1.44214,1.67713
58487841294,2.17098,1.44214,1.67713
58487864443,2.17096,1.44227,1.67706
58487878722,2.17098,1.44214,1.67713
58487901277,2.17098,1.44214,1.67713
58487924361,2.17098,1.44214,1.67713
58487938828,2.17216,1.44278,1.67844
58487961240,2.17098,1.44214,1.67713
58487984401,2.17216,1.44278,1.67844
58487998744,2.17098,1.44214,1.67713
58488021321,2.17228,1.44211,1.67843
58488043796,2.17228,1.44211,1.67843
58488058762,2.17228,1.44211,1.67843
58488081312,2.17228,1.44211,1.67843
58488112620,2.17228,1.44211,1.67843
58488118778,2.17228,1.44211,1.67843
58488141236,2.17225,1.44224,1.67836
58488163739,2.17225,1.44224,1.67836
58488178714,2.17225,1.44224,1.67836
58488201157,2.17225,1.44224,1.67836
58488223701,2.17225,1.44224,1.67836
58488238696,2.17225,1.44224,1.67836
58488261230,2.17188,1.44203,1.67804
58488283840,2.17188,1.44203,1.67804
58488298750,2.17225,1.44224,1.67836
58488321253,2.17225,1.44224,1.67836
58488343776,2.17225,1.44224,1.67836
58488358735,2.17194,1.44193,1.67847
58488381306,2.17194,1.44193,1.67847
58488403741,2.17194,1.44193,1.67847
58488421702,2.17194,1.44193,1.67847
58488441280,2.17194,1.44193,1.67847
58488463740,2.17194,1.44193,1.67847
58488478807,2.17191,1.44206,1.6784
58488501279,2.17194,1.44193,1.67847
58488523833,2.17191,1.44206,1.6784
58488538813,2.17203,1.44139,1.67839
58488561220,2.17203,1.44139,1.67839
58488583773,2.1732,1.44203,1.67969
58488598790,2.1732,1.44203,1.67969
58488621305,2.1732,1.44203,1.67969
58488643807,2.17288,1.44172,1.67981
58488658794,2.17288,1.44172,1.67981
58488681311,2.17208,1.44156,1.67904
58488703783,2.1722,1.4409,1.67903
58488718811,2.17218,1.44102,1.67895
58488741271,2.17148,1.44083,1.67935
58488763726,2.17373,1.4403,1.68173
58488780120,2.177,1.43873,1.68505
58488801232,2.18002,1.43631,1.68915
58488823678,2.18561,1.43509,1.69611
58488840172,2.18659,1.43345,1.69642
58488861205,2.18227,1.43093,1.6925
58488883717,2.17734,1.43029,1.68846
58488900136,2.16872,1.42939,1.68185
58488921195,2.15405,1.42886,1.67054
58488951908,2.13481,1.42697,1.65379
58488960236,2.11539,1.426,1.63645
58488989469,2.09102,1.42407,1.61344
58489003748,2.06423,1.42244,1.58928
58489020257,2.03857,1.4202,1.56628
58489041319,2.0137,1.41855,1.54441
58489072016,1.98684,1.41585,1.52075
58489080233,1.95874,1.41359,1.49638
58489101339,1.93055,1.41103,1.47127
58489123795,1.89272,1.4075,1.43818
58489140140,1.84931,1.40533,1.40052
58489161210,1.78411,1.40587,1.34218
58489183700,1.66948,1.40819,1.22922
58489200168,1.5759,1.40607,1.13311
58489221222,1.4908,1.40203,1.05435
58489243708,1.42971,1.39833,1.00016
58489260196,1.37098,1.39452,0.942387
58489281188,1.32505,1.38796,0.89917
58489303812,1.25187,1.38376,0.83824
58489320274,1.206,1.37731,0.801507
58489341303,1.16535,1.37192,0.772258
58489363868,1.13293,1.3687,0.747043
58489380242,1.11424,1.36588,0.730103
58489401271,1.1161,1.36233,0.729455
58489423758,1.11927,1.35849,0.734581
58489440217,1.11656,1.35594,0.736268
58489461274,1.11069,1.35297,0.733655
58489483764,1.10375,1.35302,0.729885
58489500192,1.10484,1.35121,0.731115
58489521217,1.10127,1.34952,0.732152
58489543677,1.09731,1.34716,0.731619
58489560154,1.09422,1.34348,0.72835
58489582646,1.08995,1.3405,0.723662
58489603758,1.08831,1.33737,0.720856
58489620183,1.08954,1.33434,0.723744
58489641264,1.08707,1.33244,0.723322
58489663745,1.08404,1.33179,0.720606
58489680302,1.08233,1.33088,0.717034
58489701303,1.08166,1.32992,0.714877
58489723871,1.07789,1.32683,0.71489
58489740206,1.06541,1.32461,0.708817
58489762804,1.05788,1.32237,0.703483
58489783826,1.05348,1.32032,0.698496
58489807694,1.0514,1.32031,0.693821
58489822693,1.0557,1.31627,0.692614
58489843740,1.05276,1.3127,0.689768
58489860269,1.04444,1.30877,0.683305
58489882729,1.03131,1.30608,0.673548
58489903899,1.02479,1.30503,0.666945
58489920288,1.02762,1.30538,0.666817
58489942724,1.03935,1.30244,0.671576
58489963810,1.03899,1.29876,0.67146
58489980228,1.03723,1.29552,0.668831
58490002764,1.04247,1.29321,0.671423
58490023795,1.06415,1.29128,0.685905
58490040306,1.08683,1.28952,0.703829
58490064179,1.10398,1.28791,0.7192
58490083781,1.11755,1.2876,0.733365
58490100222,1.13247,1.2865,0.74871
58490122693,1.14827,1.28661,0.768935
58490143740,1.17171,1.28734,0.792089
58490160202,1.18596,1.28575,0.809074
58490182756,1.18283,1.28651,0.811579
58490203808,1.19034,1.28644,0.816771
58490220313,1.19473,1.28431,0.815233
58490242731,1.21124,1.27738,0.826393
58490263804,1.22843,1.27127,0.850157
58490279521,1.23753,1.26828,0.871609
58490301926,1.2429,1.26494,0.883962
58490324499,1.25842,1.26687,0.904883
58490339549,1.26316,1.26845,0.917387
58490362019,1.27389,1.26962,0.932557
58490384462,1.30059,1.26802,0.962532
58490400831,1.32552,1.26636,0.993066
58490421968,1.33612,1.26415,1.01023
58490444414,1.33738,1.26496,1.01904
58490459413,1.35712,1.26672,1.03864
58490482002,1.39891,1.26545,1.08235
58490504447,1.43303,1.2622,1.12407
58490519503,1.4505,1.26316,1.15261
58490541980,1.46196,1.26667,1.16644
58490564534,1.47617,1.26973,1.17702
58490579458,1.49825,1.27159,1.19226
58490601975,1.52409,1.2703,1.21558
58490624542,1.54828,1.26644,1.24313
58490639497,1.56452,1.26616,1.25962
58490661894,1.58712,1.26756,1.27766
58490684406,1.61775,1.26733,1.30306
58490699443,1.64797,1.2683,1.33507
58490721886,1.67565,1.26598,1.36349
58490744586,1.71141,1.26168,1.39666
58490760973,1.74813,1.25964,1.43059
58490782019,1.78497,1.25967,1.47131
58490804503,1.82613,1.26364,1.53147
58490819501,1.88078,1.27547,1.61856
58490842076,1.9255,1.28257,1.70715
58490864473,1.96984,1.28858,1.80731
58490880923,1.98862,1.29124,1.88091
58490901922,1.95121,1.29011,1.88041
58490931932,1.89055,1.28823,1.82279
58490940896,1.83411,1.29536,1.71246
58490961963,1.79621,1.29819,1.63205
58490984456,1.74261,1.29894,1.5837
58491000905,1.69549,1.3022,1.5423
58491022011,1.67834,1.30266,1.51004
58491044418,1.67643,1.30238,1.49483
58491060952,1.66047,1.30614,1.48189
58491082048,1.63049,1.31018,1.46131
58491104543,1.59922,1.31582,1.43674
58491120935,1.56576,1.32245,1.40344
58491141929,1.53333,1.32776,1.36976
58491164541,1.49598,1.3342,1.33326
58491180943,1.45516,1.34115,1.29739
58491202085,1.41231,1.34847,1.25871
58491224495,1.36778,1.35342,1.21473
58491240941,1.32594,1.35836,1.17502
58491261997,1.29114,1.36321,1.14351
58491284544,1.25738,1.36944,1.11266
58491300992,1.22626,1.3742,1.08246
58491322068,1.20784,1.38122,1.0698
58491344530,1.1911,1.39213,1.06206
58491360924,1.17083,1.40366,1.04641
58491382039,1.15693,1.41502,1.03412
58491404493,1.13922,1.42826,1.02498
58491426941,1.10428,1.44464,1.00055
58491441941,1.04263,1.46159,0.951372
58491464445,0.937469,1.47974,0.85491
58491480854,0.679753,1.49218,0.606436
58491501944,0.346442,1.49587,0.27543
58491524478,0.012782,1.48248,-0.0559803
58491548507,-0.217346,1.46652,-0.282636
58491561958,-0.389032,1.45597,-0.451018
58491584545,-0.503588,1.44501,-0.559602
58491600902,-0.600813,1.43603,-0.638069
58491622030,-0.693132,1.4328,-0.698668
58491644512,-0.795976,1.42902,-0.754447
58491660348,-0.934886,1.4287,-0.820896
58491682061,-1.12394,1.43756,-0.907622
58491704531,-1.3945,1.45196,-1.07171
58491720322,-1.79019,1.46451,-1.37048
58491742032,-2.26079,1.45929,-1.75032
58491764524,-2.64944,1.43566,-2.05137
58491780305,-2.91041,1.40306,-2.22015
58491803393,-3.09121,1.37493,-2.31538
58491824443,3.06303,1.35962,-2.37947
58491840250,2.97683,1.36192,-2.42655
58491863398,2.89337,1.39051,-2.48745
58491884591,2.77017,1.42477,-2.59214
58491900293,2.54917,1.4598,-2.78732
58491923450,2.19325,1.48739,-3.11056
58491944499,1.58464,1.49359,2.60643
58491960278,1.04707,1.47081,2.12479
58491983464,0.751634,1.43139,1.8989
58492004571,0.584478,1.38643,1.80652
58492020324,0.468463,1.33881,1.76678
58492043457,0.379913,1.29144,1.74781
58492065940,0.319478,1.24305,1.74305
58492080366,0.275905,1.19715,1.74559
58492103403,0.247903,1.15409,1.75404
58492124470,0.237417,1.11349,1.77116
58492140227,0.232449,1.07827,1.79336
58492163390,0.233852,1.064,1.82379
58492184464,0.22091,1.04074,1.84899
58492200242,0.194252,1.02938,1.87443
58492223911,0.172255,1.03265,1.90393
58492244476,0.16368,1.05011,1.93707
58492260315,0.17341,1.0949,1.97889
58492283460,0.202968,1.14106,2.03188
58492304517,0.142931,1.14609,2.00765
58492320278,0.131907,1.17621,2.0057
58492343513,0.148977,1.23014,2.03853
58492364564,0.287484,1.2671,2.1323
58492380326,0.388056,1.30638,2.23032
58492403495,0.465116,1.33157,2.33425
58492424456,0.543885,1.35017,2.41482
58492440201,0.619793,1.37012,2.48246
58492463425,0.741855,1.38676,2.58694
58492484454,0.851242,1.3986,2.69049
58492500245,0.939785,1.40769,2.78138
58492523394,1.04255,1.41488,2.88165
58492544452,1.17116,1.418,3.00236
58492560215,1.31138,1.41801,3.13609
58492582756,1.44538,1.42181,-3.01236
58492604548,1.5892,1.42227,-2.87064
58492620363,1.72887,1.41824,-2.73573
58492650928,1.8565,1.41074,-2.61114
58492664607,1.96923,1.39879,-2.49882
58492680338,2.07029,1.38562,-2.39727
58492702820,2.16751,1.3688,-2.29787
58492724519,2.25198,1.35316,-2.20583
58492740276,2.33861,1.33793,-2.11579
58492762821,2.42053,1.32232,-2.03343
58492785935,2.49428,1.30606,-1.96213
58492800304,2.56285,1.29008,-1.89238
58492822800,2.63907,1.27374,-1.81195
58492846020,2.72441,1.25579,-1.71941
58492860346,2.80575,1.22124,-1.63426
58492882801,2.86929,1.18655,-1.56878
58492906004,2.89291,1.19041,-1.5655
58492920325,2.93686,1.14977,-1.51307
58492942825,2.95808,1.09583,-1.44742
58492966025,2.95464,1.05297,-1.38357
58492988484,2.95228,1.03093,-1.31831
58493002832,2.98466,1.03534,-1.25097
58493025975,3.00454,1.05736,-1.2018
58493047051,2.9977,1.09282,-1.16435
58493062786,2.98687,1.13252,-1.11231
58493085949,2.96048,1.18254,-1.05802
58493107002,2.92554,1.23692,-0.999851
58493122818,2.88763,1.29298,-0.940375
58493145965,2.89733,1.33577,-0.833361
58493167111,2.93664,1.37582,-0.733021
58493182846,2.99378,1.40888,-0.598693
58493204587,3.04066,1.44398,-0.470394
58493220334,3.10079,1.47715,-0.317389
58493242823,-3.07703,1.5068,-0.111013
58493265994,-2.77991,1.53438,0.286069
58493280276,-1.96402,1.54307,1.17142
58493302771,-1.16732,1.53374,2.02173
58493324564,-0.852857,1.51393,2.37881
58493340323,-0.748266,1.49318,2.51853
58493362845,-0.711962,1.47697,2.58405
58493384574,-0.690195,1.46025,2.63758
58493408501,-0.757226,1.45586,2.60395
58493422770,-0.788254,1.4497,2.60662
58493444547,-0.822392,1.44413,2.60984
58493460322,-0.899489,1.44186,2.56775
58493482796,-1.00403,1.4326,2.49519
58493503828,-1.09129,1.42025,2.42229
58493520354,-1.2032,1.41279,2.3167
58493542832,-1.28195,1.405,2.24912
58493572057,-1.38839,1.39545,2.14901
58493580347,-1.47361,1.38244,2.08056
58493603310,-1.56274,1.36805,2.00426
58493623911,-1.62154,1.35472,1.96063
58493640377,-1.67632,1.34797,1.91829
58493662840,-1.78265,1.34953,1.83424
58493683862,-1.88936,1.33848,1.77089
58493700273,-2.00063,1.33215,1.71347
58493730890,-2.11518,1.33157,1.65049
58493743822,-2.20542,1.33816,1.61273
58493760271,-2.29771,1.34713,1.57422
58493782778,-2.44416,1.38678,1.45125
58493803796,-2.54356,1.41422,1.38298
58493820280,-2.51855,1.43122,1.40126
58493843311,-2.65113,1.43714,1.24517
58493864541,-2.81729,1.43769,1.08273
58493880992,-2.97192,1.44022,0.945938
58493902090,-3.1175,1.44745,0.811052
58493924482,3.01987,1.45501,0.670371
58493939550,2.8664,1.45869,0.525808
58493962021,2.71649,1.45887,0.391172
58493984568,2.60565,1.4571,0.298838
58493999564,2.51239,1.45473,0.218349
58494022072,2.44668,1.45265,0.160447
58494044583,2.40195,1.44836,0.120393
58494059529,2.35328,1.44413,0.0790318
58494082031,2.30971,1.44168,0.0469114
58494104577,2.25993,1.43987,0.00758757
58494121637,2.21261,1.43795,-0.0314334
58494142053,2.16366,1.43443,-0.0712561
58494164510,2.11478,1.43297,-0.103914
58494187680,2.06428,1.43442,-0.139957
58494201379,1.98504,1.4388,-0.20886
58494224360,1.79067,1.44698,-0.398817
58494238869,1.63833,1.44792,-0.539694
58494270642,1.51516,1.44707,-0.643795
58494284579,1.38411,1.44722,-0.758794
58494298952,1.28284,1.44482,-0.845315
58494321390,1.21168,1.44419,-0.9053
58494344610,1.17868,1.4478,-0.937217
58494358922,1.18972,1.45267,-0.929752
58494381424,1.22836,1.45899,-0.895726
58494404579,1.31518,1.464,-0.814169
58494418852,1.41953,1.46917,-0.706343
58494441368,1.53684,1.47755,-0.574739
58494464490,1.65364,1.47457,-0.436738
58494495181,1.7257,1.46755,-0.315582
58494501271,1.72605,1.45604,-0.237102
58494524282,1.65142,1.44647,-0.203808
58494538837,1.54056,1.44056,-0.199143
58494561479,1.41158,1.43773,-0.218043
58494576434,1.28467,1.43624,-0.253999
58494598963,1.16696,1.43405,-0.294943
58494621360,1.06029,1.43071,-0.336058
58494636373,0.974698,1.42396,-0.366959
58494658915,0.927312,1.41559,-0.377658
58494682811,0.97715,1.41908,-0.304577
58494696430,0.937132,1.42613,-0.342065
58494718858,0.954462,1.42138,-0.356518
58494741366,1.00449,1.41558,-0.330517
58494765072,1.08988,1.41448,-0.239263
58494778860,1.15772,1.41919,-0.148675
58494810255,1.18806,1.42325,-0.105812
58494816395,1.16527,1.41904,-0.128899
58494838934,1.14754,1.40863,-0.149174
58494861470,1.11506,1.39805,-0.176041
58494876506,1.10009,1.3904,-0.18541
58494898948,1.09814,1.38287,-0.187879
58494930234,1.10958,1.37691,-0.176508
58494936358,1.13406,1.36928,-0.150315
58494958813,1.14912,1.36029,-0.127658
58494981294,1.16317,1.35438,-0.104577
58494996331,1.17902,1.34821,-0.0839574
58495018816,1.18261,1.34197,-0.0761692
58495041333,1.18581,1.33614,-0.0689331
58495056416,1.18927,1.33012,-0.0609754
58495078901,1.20465,1.3241,-0.0405614
58495101405,1.23072,1.31795,-0.00974049
58495116432,1.2591,1.31244,0.0248249
58495138955,1.28979,1.30907,0.0606079
58495161447,1.31815,1.30581,0.0947511
58495176456,1.31964,1.30246,0.100059
58495198971,1.34527,1.30068,0.127858
58495221590,1.38847,1.29876,0.173441
58495236394,1.42773,1.29444,0.218746
58495258870,1.46833,1.29421,0.269325
58495281394,1.518,1.2946,0.328172
58495296383,1.55972,1.29659,0.379357
58495318860,1.54701,1.29827,0.369698
58495341335,1.55237,1.29803,0.372682
58495356327,1.5763,1.2988,0.394626
58495378858,1.61148,1.29402,0.423548
58495401354,1.65183,1.28786,0.461005
58495417839,1.68453,1.28305,0.492718
58495438978,1.71422,1.27885,0.521538
58495462943,1.75873,1.27487,0.568257
58495477947,1.80077,1.27025,0.614756
58495498945,1.84302,1.26576,0.660441
58495521515,1.88337,1.26128,0.703547
58495537832,1.91312,1.25833,0.734787
58495558977,1.93127,1.25646,0.753529
58495581417,1.9384,1.25321,0.759836
58495597904,1.94481,1.2505,0.765001
58495618924,1.93718,1.25136,0.751989
58495641445,1.93093,1.2498,0.737551
58495657900,1.92907,1.24643,0.731266
58495678930,1.93029,1.24344,0.732487
58495701504,1.93536,1.24223,0.737111
58495717966,1.94495,1.24018,0.745845
58495738907,1.957,1.23889,0.758399
58495761406,1.96559,1.23811,0.767183
58495777812,1.97047,1.23789,0.774711
58495798854,1.97748,1.2373,0.783871
58495821325,1.98408,1.23576,0.790822
58495837797,1.98498,1.23592,0.791432
58495858806,1.9585,1.24151,0.758042
58495881437,1.93927,1.24341,0.733634
58495897823,1.89992,1.24815,0.69065
58495918960,1.87495,1.25212,0.660579
58495941412,1.86584,1.25204,0.646384
58495957873,1.8655,1.2509,0.643315
58495978939,1.87135,1.24821,0.648043
58496001455,1.88277,1.24571,0.659688
58496017890,1.9001,1.24243,0.677176
58496038943,1.92117,1.23794,0.700077
58496061535,1.94272,1.23422,0.725149
58496077866,1.96404,1.23167,0.750522
58496098969,1.9865,1.22788,0.776508
58496121424,2.00435,1.22461,0.797481
58496137893,2.01783,1.22255,0.813799
58496158962,2.02736,1.22071,0.8245
58496181452,2.03441,1.21944,0.831815
58496197913,2.03904,1.21693,0.836358
58496218917,2.04335,1.21446,0.84164
58496241528,2.04588,1.21226,0.843789
58496257875,2.048,1.21044,0.845052
58496278951,2.05179,1.20965,0.848305
58496301481,2.05421,1.20872,0.850296
58496317912,2.05801,1.20761,0.854067
58496338917,2.06288,1.20657,0.857843
58496361441,2.06682,1.2053,0.860349
58496379368,2.07001,1.20356,0.862992
58496408535,2.07345,1.20281,0.865702
58496421449,2.07624,1.20222,0.867554
58496437869,2.07932,1.20144,0.870541
58496460454,2.08228,1.20119,0.874006
58496481544,2.08538,1.20138,0.878302
58496497897,2.08876,1.20173,0.882688
58496520464,2.09325,1.20286,0.887645
58496541493,2.09644,1.20382,0.890849
58496557873,2.09778,1.20398,0.892634
58496580473,2.09991,1.2043,0.894808
58496601458,2.10201,1.20417,0.896362
58496617897,2.10404,1.20397,0.897944
58496640464,2.10627,1.2039,0.899299
58496661493,2.10812,1.20359,0.900587
58496677879,2.10993,1.20356,0.901965
58496700515,2.1121,1.20322,0.904087
58496721399,2.11577,1.2028,0.907703
58496737831,2.11994,1.20225,0.911385
58496760309,2.12303,1.20175,0.914537
58496781418,2.12514,1.2017,0.916929
58496797801,2.12828,1.20167,0.920387
58496820342,2.13302,1.20174,0.925362
58496841445,2.13615,1.20144,0.928884
58496857935,2.13729,1.202,0.93095
58496880463,2.13849,1.20324,0.932624
58496901506,2.14007,1.20403,0.934624
58496917960,2.14233,1.20491,0.93722
58496940476,2.14262,1.20519,0.937553
58496961551,2.14446,1.20542,0.938892
58496977911,2.14418,1.20475,0.938392
58497000502,2.14454,1.20468,0.938865
58497024352,2.14518,1.2048,0.93983
58497037884,2.14748,1.20479,0.942684
58497060408,2.15005,1.20432,0.945916
58497081464,2.15226,1.20441,0.948879
58497097822,2.15459,1.20456,0.951656
58497120329,2.15652,1.20522,0.953678
58497141394,2.15863,1.20559,0.955837
58497157858,2.15913,1.2054,0.957049
58497180299,2.15913,1.2054,0.957049
58497201420,2.15984,1.20563,0.95737
58497217857,2.15973,1.20545,0.957335
58497240456,2.16012,1.20605,0.958135
58497261534,2.15963,1.20619,0.958081
58497277845,2.16053,1.20605,0.959296
58497300461,2.16162,1.20598,0.959835
58497331098,2.16196,1.20601,0.959536
58497337945,2.16166,1.20569,0.958795
58497360476,2.16156,1.20499,0.958159
58497382869,2.16119,1.20423,0.956746
58497404003,2.16026,1.20332,0.955028
58497420422,2.16062,1.20311,0.955074
58497442078,2.15977,1.20203,0.954396
58497457056,2.15977,1.20203,0.954396
58497479556,2.1604,1.20234,0.95444
58497502038,2.16003,1.20215,0.954022
58497518502,2.16017,1.20211,0.954593
58497539518,2.16105,1.20158,0.95562
58497562145,2.16089,1.20134,0.954899
58497578562,2.16089,1.20134,0.954899
58497599607,2.16089,1.20134,0.954899
58497622074,2.16089,1.20134,0.954899
58497638500,2.16089,1.20134,0.954899
58497659551,2.1607,1.20125,0.954787
58497682098,2.16104,1.20118,0.955248
58497698550,2.16104,1.20118,0.955248
58497719623,2.16117,1.20085,0.954885
58497742089,2.16168,1.20059,0.954719
58497758504,2.16176,1.20051,0.954796
58497779578,2.16179,1.20067,0.955508
58497802047,2.1619,1.20085,0.955542
58497818516,2.1625,1.20091,0.955824
58497839607,2.1626,1.20072,0.955875
58497862087,2.16213,1.20071,0.955407
58497878499,2.16184,1.20043,0.955068
58497899583,2.16339,1.20028,0.95682
58497922085,2.16484,1.19993,0.958341
58497944624,2.16542,1.2001,0.958843
58497959583,2.16532,1.2003,0.958792
58497982778,2.1655,1.20002,0.958919
58497998525,2.16678,1.19946,0.960106
58498021006,2.16823,1.1992,0.960871
58498042056,2.16933,1.19889,0.961537
58498058504,2.16923,1.19872,0.961502
58498079622,2.16921,1.19892,0.960776
58498102060,2.16957,1.19882,0.960067
58498118524,2.17014,1.19861,0.960389
58498139611,2.17076,1.19783,0.961351
58498162074,2.17086,1.19764,0.961402
58498178500,2.17202,1.19751,0.962198
58498199627,2.17239,1.1977,0.962612
58498222128,2.17249,1.19788,0.962648
58498237875,2.17213,1.19768,0.962233
58498259637,2.17192,1.1977,0.962147
58498282068,2.17249,1.19788,0.962648
58498297848,2.17249,1.19788,0.962648
58498327082,2.17231,1.19779,0.962538
58498342121,2.17249,1.19788,0.962648
58498357876,2.17249,1.19788,0.962648
58498379578,2.17317,1.19785,0.963003
58498402133,2.17317,1.19785,0.963003
58498417849,2.17317,1.19785,0.963003
58498441025,2.17393,1.19754,0.96435
58498462126,2.17403,1.19735,0.9644
58498477899,2.17439,1.19754,0.964814
58498501027,2.1745,1.19772,0.964851
58498522098,2.17386,1.19763,0.964277
58498537856,2.17386,1.19763,0.964277
58498561022,2.17433,1.198,0.964728
58498582082,2.17432,1.19763,0.964742
58498597932,2.17443,1.1978,0.964778
58498621047,2.17443,1.1978,0.964778
58498642093,2.17443,1.1978,0.964778
58498657906,2.17443,1.1978,0.964778
58498681027,2.17554,1.19791,0.966015
58498702059,2.17745,1.19819,0.96804
58498724578,2.17781,1.19838,0.968456
58498741041,2.17908,1.19841,0.969095
58498762093,2.17897,1.19823,0.969058
58498777874,2.1789,1.19832,0.968987
58498801020,2.17908,1.19841,0.969095
58498822083,2.18045,1.19815,0.970726
58498837842,2.18218,1.1987,0.97244
58498861151,2.1829,1.19945,0.973375
58498882175,2.18358,1.19995,0.974545
58498897973,2.18368,1.19975,0.974595
58498921559,2.18379,1.19993,0.974635
58498942149,2.18476,1.19959,0.975871
58498957954,2.18506,1.19987,0.976222
58498981048,2.18588,1.19991,0.976599
58499002188,2.18588,1.19991,0.976599
58499017929,2.18644,1.20022,0.977532
58499041102,2.18712,1.20071,0.978507
58499062174,2.18835,1.20112,0.980226
58499077863,2.18899,1.20098,0.981444
58499100995,2.19008,1.20156,0.982831
58499122127,2.19002,1.20165,0.982765
58499137895,2.19002,1.20165,0.982765
58499161045,2.19038,1.20184,0.983186
58499182082,2.1905,1.20202,0.983229
58499197876,2.18979,1.20165,0.982467
58499228650,2.19006,1.20176,0.982107
58499242139,2.18927,1.20169,0.980558
58499258007,2.18782,1.2013,0.978745
58499280495,2.18789,1.2007,0.978395
58499302253,2.18752,1.20036,0.977348
58499317947,2.18738,1.19979,0.97691
58499340501,2.18712,1.19976,0.976329
58499362215,2.18674,1.19956,0.975708
58499378002,2.18664,1.19975,0.975658
58499400528,2.18674,1.19956,0.975708
58499423616,2.18674,1.19956,0.975708
58499437923,2.18711,1.19975,0.976127
58499460463,2.18711,1.19975,0.976127
58499483672,2.18577,1.1999,0.974473
58499497973,2.18577,1.1999,0.974473
58499520443,2.18566,1.19972,0.974434
58499543637,2.18566,1.19972,0.974434
58499557926,2.18564,1.19985,0.974856
58499580505,2.18686,1.20025,0.976364
58499603661,2.18657,1.20035,0.976206
58499617962,2.18679,1.20034,0.976297
58499640407,2.18679,1.20034,0.976297
58499663615,2.18679,1.20034,0.976297
58499677965,2.18661,1.20025,0.976189
58499700451,2.18661,1.20025,0.976189
58499723614,2.18661,1.20025,0.976189
58499744691,2.18661,1.20025,0.976189
58499760472,2.18662,1.20062,0.976179
58499783603,2.18662,1.20062,0.976179
58499806114,2.18672,1.20043,0.976229
58499820513,2.18661,1.20025,0.976189
58499843631,2.18661,1.20025,0.976189
58499857951,2.18661,1.20025,0.976189
58499894633,2.18661,1.20025,0.976189
58499903587,2.18716,1.20053,0.976716
58499924628,2.18698,1.20044,0.976608
58499940478,2.18698,1.20044,0.976608
58499963674,2.18738,1.20038,0.976383
58499984652,2.18706,1.1997,0.975636
58500000530,2.18706,1.1997,0.975636
58500023612,2.18706,1.1997,0.975636
58500044664,2.18706,1.1997,0.975636
58500060493,2.18706,1.1997,0.975636
58500083587,2.18705,1.19934,0.975646
58500104739,2.18716,1.19951,0.975686
58500120453,2.18733,1.19923,0.975804
58500151083,2.18806,1.19888,0.976542
58500164683,2.18904,1.19841,0.97735
58500180493,2.18977,1.19792,0.977781
58500202979,2.1907,1.19792,0.978713
58500224680,2.19231,1.19768,0.980717
58500240532,2.19398,1.19733,0.98258
58500263014,2.19398,1.19733,0.98258
58500284688,2.19398,1.19733,0.98258
58500300537,2.1938,1.19725,0.982474
58500322953,2.19392,1.19742,0.982515
58500346175,2.1946,1.19718,0.983584
58500360460,2.1946,1.19718,0.983584
58500382930,2.1946,1.19718,0.983584
58500406125,2.1946,1.19718,0.983584
58500420520,2.1946,1.19718,0.983584
58500443019,2.19496,1.19737,0.984001
58500466119,2.19506,1.19718,0.98405
58500480446,2.19506,1.19718,0.98405
58500502930,2.19506,1.19718,0.98405
58500526137,2.19506,1.19718,0.98405
58500540493,2.195,1.19727,0.983985
58500562986,2.19585,1.19712,0.98516
58500586145,2.19585,1.19712,0.98516
58500600474,2.19585,1.19712,0.98516
58500622944,2.19622,1.19731,0.985577
58500646153,2.19622,1.19731,0.985577
58500667224,2.19574,1.19695,0.985118
58500683021,2.19585,1.19712,0.98516
58500706133,2.19622,1.19731,0.985577
58500720522,2.19621,1.19694,0.985583
58500743016,2.19621,1.19694,0.985583
58500766619,2.19648,1.19684,0.985738
58500780428,2.19648,1.19684,0.985738
58500802951,2.19638,1.19703,0.985689
58500832152,2.19706,1.19679,0.986756
58500847154,2.19706,1.19679,0.986756
58500862975,2.19716,1.1966,0.986805
58500886106,2.19716,1.1966,0.986805
58500907267,2.19716,1.1966,0.986805
58500922998,2.19716,1.1966,0.986805
58500946611,2.19753,1.19679,0.987222
58500967186,2.19753,1.19679,0.987222
58500983048,2.19753,1.19679,0.987222
58501006190,2.19759,1.1967,0.987285
58501019044,2.19769,1.19651,0.987333
58501042152,2.19822,1.19664,0.987352
58501056547,2.19822,1.19664,0.987352
58501078979,2.19822,1.19664,0.987352
58501102113,2.19822,1.19664,0.987352
58501116459,2.19822,1.19664,0.987352
58501138970,2.19851,1.19641,0.987081
58501162213,2.19897,1.19641,0.987545
58501176589,2.19897,1.19641,0.987545
58501199034,2.19851,1.19641,0.987081
58501222264,2.19852,1.19628,0.986655
58501236658,2.19862,1.19609,0.986704
58501259047,2.19899,1.19628,0.98712
58501282170,2.19887,1.1961,0.987078
58501296562,2.19887,1.1961,0.987078
58501319015,2.19894,1.19623,0.986632
58501342218,2.19894,1.19623,0.986632
58501356536,2.19894,1.19623,0.986632
58501378967,2.19894,1.19623,0.986632
58501402189,2.19894,1.19623,0.986632
58501416531,2.19904,1.19604,0.986681
58501439053,2.19929,1.19606,0.987054
58501462240,2.19946,1.19614,0.98716
58501476584,2.1994,1.19623,0.987097
58501499061,2.19893,1.19587,0.986638
58501522198,2.19946,1.19614,0.98716
58501536571,2.19946,1.19614,0.98716
58501559073,2.19946,1.19614,0.98716
58501590393,2.19946,1.19614,0.98716
58501596545,2.19946,1.19614,0.98716
58501619032,2.19957,1.19595,0.987208
58501642158,2.19951,1.19604,0.987145
58501656483,2.19968,1.19613,0.987251
58501679002,2.20046,1.19642,0.988275
58501702158,2.2006,1.19697,0.988519
58501716585,2.2001,1.19745,0.988191
58501739072,2.20007,1.19828,0.988455
58501762259,2.20161,1.19896,0.990533
58501776569,2.20328,1.19934,0.992445
58501799087,2.20401,1.19971,0.993423
58501822265,2.20413,1.20024,0.993393
58501836563,2.20447,1.20113,0.993454
58501859084,2.204,1.20219,0.992756
58501882244,2.20415,1.20375,0.9938
58501896519,2.20452,1.20491,0.994949
58501918971,2.20529,1.20638,0.995801
58501942185,2.2041,1.20816,0.994173
58501956528,2.20263,1.2108,0.9923
58501979037,2.20112,1.21379,0.990122
58502002183,2.19819,1.2162,0.986295
58502016536,2.19434,1.21857,0.981796
58502039045,2.18909,1.22151,0.975939
58502062193,2.18327,1.22446,0.969717
58502076538,2.17723,1.22798,0.96325
58502099046,2.17019,1.23107,0.956047
58502122247,2.16294,1.23516,0.949171
58502136541,2.1573,1.23884,0.94342
58502159091,2.15157,1.24294,0.937751
58502182287,2.14617,1.24646,0.931562
58502196560,2.13915,1.25046,0.924358
58502219054,2.13145,1.25433,0.916232
58502241522,2.12196,1.25878,0.906166
58502256477,2.11424,1.26302,0.897318
58502279021,2.10354,1.26637,0.885152
58502301487,2.09236,1.27002,0.873302
58502316538,2.08192,1.27313,0.862437
58502339041,2.06916,1.27683,0.849319
58502361612,2.05764,1.28037,0.836978
58502376684,2.04373,1.28419,0.82367
58502399131,2.03031,1.28845,0.810658
58502421575,2.01705,1.29236,0.797667
58502436532,2.00454,1.29586,0.785392
58502459076,1.99076,1.29968,0.772087
58502481595,1.97841,1.30332,0.760304
58502496596,1.9659,1.30659,0.748515
58502519051,1.95424,1.30988,0.73773
58502541507,1.94416,1.31285,0.728523
58502556579,1.93458,1.31607,0.719616
58502579068,1.92619,1.31856,0.712936
58502601637,1.92364,1.32178,0.712732
58502616659,1.92084,1.32385,0.711481
58502639056,1.91694,1.32615,0.70863
58502661610,1.91174,1.32761,0.704656
58502676625,1.9054,1.33063,0.696697
58502699121,1.90184,1.33049,0.690539
58502721647,1.90419,1.32926,0.69179
58502736638,1.89861,1.32834,0.685531
58502759052,1.89429,1.32804,0.68033
58502790374,1.89337,1.32922,0.678789
58502796607,1.88895,1.3298,0.672975
58502819011,1.88372,1.33119,0.670729
58502841568,1.88252,1.33497,0.672431
58502856564,1.88236,1.33861,0.673545
58502879126,1.88248,1.34286,0.675351
58502901582,1.883,1.34671,0.676893
58502916602,1.8832,1.34967,0.678132
58502939078,1.88035,1.35279,0.67554
58502961604,1.87567,1.35439,0.670074
58502976617,1.86598,1.35597,0.659629
58502999097,1.85409,1.35683,0.647202
58503021611,1.8421,1.3582,0.63465
58503038002,1.83192,1.35923,0.624078
58503059133,1.82285,1.35987,0.614666
58503081633,1.81468,1.3605,0.606195
58503098135,1.80783,1.36111,0.599728
58503119101,1.79815,1.36168,0.591702
58503141599,1.78314,1.36434,0.579163
58503157996,1.77186,1.36789,0.569202
58503179075,1.75975,1.36967,0.558353
58503201578,1.7482,1.37122,0.548985
58503218059,1.73638,1.37193,0.539835
58503239101,1.72344,1.37249,0.529482
58503261670,1.71414,1.37355,0.521718
58503278073,1.70842,1.37311,0.517066
58503299100,1.70912,1.37302,0.521599
58503321632,1.70914,1.37472,0.525362
58503337987,1.7213,1.37572,0.539619
58503359157,1.73857,1.37385,0.557215
58503381612,1.75262,1.37162,0.571423
58503398006,1.7712,1.37038,0.587793
58503419105,1.79216,1.3674,0.604029
58503441528,1.81481,1.36391,0.622845
58503458064,1.83491,1.36068,0.63821
58503479135,1.86242,1.35496,0.663181
58503501643,1.88935,1.35057,0.689834
58503518094,1.91702,1.34791,0.71638
58503539133,1.94197,1.34496,0.740775
58503561595,1.96731,1.34327,0.76456
58503578048,1.99002,1.3402,0.784308
58503599140,2.00291,1.33697,0.796196
58503621651,2.01737,1.33268,0.810868
58503637979,2.02693,1.32847,0.821443
58503659178,2.0358,1.32561,0.832501
58503681577,2.04643,1.32472,0.843163
58503698014,2.05877,1.32327,0.854422
58503719104,2.06629,1.32164,0.863708
58503741598,2.07507,1.31968,0.875176
58503758031,2.08283,1.31909,0.884357
58503779097,2.09092,1.31793,0.891513
58503809741,2.10102,1.31623,0.900089
58503818062,2.10791,1.31403,0.906059
58503839099,2.11854,1.31138,0.917294
58503861593,2.1286,1.30878,0.926915
58503878013,2.13658,1.30624,0.935602
58503899137,2.14605,1.30563,0.945887
58503921607,2.15456,1.30469,0.955053
58503938054,2.16326,1.30413,0.964768
58503960529,2.17144,1.30387,0.974081
58503981607,2.177,1.3032,0.980848
58503999476,2.18152,1.30249,0.986459
58504020531,2.18641,1.30172,0.991816
58504041563,2.18912,1.30058,0.995372
58504058057,2.19103,1.29954,0.997931
58504080608,2.19082,1.29808,0.999451
58504101646,2.1935,1.29811,1.00383
58504119494,2.19645,1.29854,1.00683
58504140565,2.19765,1.29796,1.00786
58504161598,2.19836,1.2973,1.00859
58504178066,2.19825,1.29651,1.00863
58504200495,2.19841,1.29611,1.0093
58504221630,2.19991,1.29552,1.01125
58504238024,2.20194,1.29479,1.01405
58504260624,2.20355,1.29454,1.0168
58504281609,2.20636,1.29465,1.01974
58504298023,2.20905,1.29429,1.02237
58504320551,2.21055,1.29345,1.02407
58504341702,2.21286,1.29347,1.02678
58504358113,2.2142,1.29272,1.02814
58504380604,2.21588,1.29201,1.02996
58504401658,2.21766,1.29146,1.03232
58504425606,2.21886,1.29123,1.03376
58504440596,2.22065,1.291,1.03588
58504461623,2.22176,1.29054,1.03758
58504478115,2.2229,1.28984,1.03904
58504500612,2.22466,1.28999,1.04087
58504521671,2.2252,1.28934,1.04124
58504538050,2.22572,1.28895,1.04184
58504560550,2.22637,1.28829,1.0425
58504581663,2.2271,1.28722,1.043
58504598061,2.22797,1.28677,1.04408
58504619779,2.22877,1.28634,1.04483
58504642199,2.22924,1.28587,1.04512
58504657290,2.23008,1.28548,1.0454
58504679774,2.23111,1.285,1.04634
58504703677,2.23103,1.28436,1.04609
58504717204,2.23155,1.28358,1.04694
58504739726,2.23273,1.2831,1.04812
58504762260,2.23464,1.28296,1.04954
58504777279,2.23563,1.28218,1.05069
58504799848,2.2364,1.28144,1.05165
58504822289,2.23766,1.28085,1.05242
58504837312,2.23908,1.28007,1.05355
58504859796,2.24017,1.27968,1.05472
58504882292,2.24085,1.27954,1.05491
58504897310,2.24135,1.27875,1.05499
58504919741,2.24168,1.27815,1.05546
58504942287,2.24393,1.27798,1.05804
58504957315,2.24601,1.27745,1.06025
58504979787,2.24837,1.27728,1.06312
58505002973,2.2512,1.2775,1.06603
58505017311,2.25328,1.27696,1.06824
58505039799,2.25518,1.27647,1.07058
58505062281,2.25665,1.27626,1.07271
58505078716,2.25871,1.27597,1.07514
58505099801,2.26017,1.27616,1.07672
58505122298,2.26194,1.27542,1.07851
58505138771,2.26251,1.27527,1.07958
58505159771,2.26325,1.275,1.08053
58505182202,2.26545,1.27483,1.08307
58505198626,2.26687,1.2741,1.08485
58505219753,2.26848,1.2741,1.08706
58505242214,2.26848,1.2741,1.08706
58505258689,2.26848,1.2741,1.08706
58505279728,2.26832,1.27398,1.08694
58505302184,2.26848,1.27419,1.08704
58505318649,2.26848,1.27419,1.08704
58505339759,2.26848,1.27419,1.08704
58505362333,2.26848,1.27419,1.08704
58505378724,2.26848,1.27419,1.08704
58505399825,2.26832,1.27407,1.08693
58505422298,2.26834,1.27452,1.08697
58505438710,2.26848,1.27427,1.08703
58505459718,2.26848,1.27419,1.08704
58505482331,2.26965,1.2745,1.08846
58505498769,2.27068,1.27499,1.08954
58505519801,2.27081,1.27508,1.08983
58505542339,2.27081,1.27508,1.08983
58505558675,2.27081,1.27508,1.08983
58505579724,2.27143,1.27552,1.09047
58505602183,2.27097,1.27528,1.08993
58505618697,2.27127,1.2754,1.09035
58505639765,2.27127,1.2754,1.09035
58505662235,2.27084,1.27562,1.08987
58505678734,2.27143,1.27561,1.09046
58505699803,2.27143,1.27561,1.09046
58505722289,2.27143,1.27561,1.09046
58505738752,2.27217,1.27573,1.09087
58505759869,2.27158,1.27574,1.09028
58505782350,2.2722,1.27619,1.09092
58505798718,2.27174,1.27595,1.09039
58505819843,2.27174,1.27595,1.09039
58505842346,2.27204,1.27607,1.09081
58505858094,2.27204,1.27607,1.09081
58505879752,2.27174,1.27603,1.09037
58505902215,2.27233,1.27602,1.09097
58505918052,2.27233,1.27611,1.09095
58505941207,2.27233,1.27611,1.09095
58505962236,2.27279,1.27635,1.09149
58505978036,2.27233,1.27611,1.09095
58506007227,2.27233,1.27611,1.09095
58506022200,2.27233,1.2762,1.09094
58506038092,2.27233,1.2762,1.09094
58506061239,2.27279,1.27644,1.09148
58506082309,2.27279,1.27644,1.09148
58506098107,2.27295,1.27665,1.09158
58506121286,2.27295,1.27665,1.09158
58506142365,2.27292,1.27628,1.09152
58506158073,2.27308,1.2764,1.09164
58506181289,2.27338,1.27652,1.09206
58506202300,2.27338,1.27652,1.09206
58506218108,2.27351,1.27627,1.09212
58506241308,2.27367,1.27647,1.09222
58506262265,2.27413,1.27671,1.09276
58506278019,2.27413,1.27671,1.09276
58506301181,2.27413,1.27671,1.09276
58506322216,2.27413,1.27671,1.09276
58506338047,2.27413,1.27671,1.09276
58506361204,2.27413,1.27671,1.09276
58506382265,2.2744,1.27654,1.0934
58506406287,2.27486,1.27686,1.09392
58506421276,2.27486,1.27686,1.09392
58506442349,2.27502,1.27707,1.09403
58506458140,2.27473,1.27679,1.09334
58506481259,2.2734,1.27665,1.09158
58506502321,2.2734,1.27665,1.09158
58506518149,2.2734,1.27665,1.09158
58506541267,2.2734,1.27665,1.09158
58506562387,2.27281,1.27666,1.09099
58506578132,2.27311,1.27678,1.09141
58506601298,2.2734,1.27674,1.09157
58506623724,2.2734,1.27674,1.09157
58506638140,2.2734,1.27674,1.09157
58506661208,2.2734,1.27674,1.09157
58506689767,2.2734,1.27674,1.09157
58506698044,2.2734,1.27674,1.09157
58506721197,2.2734,1.27674,1.09157
58506742229,2.27356,1.27694,1.09167
58506758021,2.27356,1.27694,1.09167
58506780584,2.2734,1.27682,1.09156
58506802304,2.27327,1.27707,1.0915
58506818166,2.27327,1.27707,1.0915
58506840609,2.27327,1.27707,1.0915
58506862352,2.27343,1.27728,1.09161
58506878154,2.27343,1.27728,1.09161
58506900670,2.27327,1.27716,1.09149
58506922053,2.27327,1.27716,1.09149
58506938037,2.27327,1.27716,1.09149
58506961071,2.27327,1.27716,1.09149
58506983844,2.27327,1.27716,1.09149
58506998099,2.2734,1.27691,1.09155
58507020616,2.27356,1.27703,1.09166
58507043716,2.27343,1.27728,1.09161
58507058122,2.27327,1.27716,1.09149
58507080666,2.27327,1.27716,1.09149
58507103781,2.27327,1.27716,1.09149
58507118113,2.27327,1.27716,1.09149
58507140645,2.27327,1.27716,1.09149
58507163802,2.27327,1.27716,1.09149
58507178116,2.27327,1.27716,1.09149
58507200558,2.27327,1.27716,1.09149
58507223714,2.27343,1.27728,1.09161
58507238069,2.27327,1.27716,1.09149
58507260561,2.2734,1.27691,1.09155
58507283705,2.2734,1.27691,1.09155
58507298048,2.27356,1.27694,1.09167
58507320533,2.27268,1.2765,1.09042
58507343753,2.27268,1.2765,1.09042
58507358071,2.27268,1.2765,1.09042
58507380543,2.27222,1.27626,1.08988
58507403712,2.27268,1.2765,1.09042
58507418150,2.27268,1.2765,1.09042
58507440615,2.27222,1.27626,1.08988
58507463766,2.27268,1.2765,1.09042
58507484920,2.27222,1.27617,1.08989
58507500633,2.27176,1.27626,1.08988
58507524271,2.27238,1.2767,1.09052
58507544769,2.27252,1.27645,1.09058
58507567330,2.27279,1.27628,1.09122
58507583799,2.27233,1.27636,1.09121
58507604895,2.27233,1.27636,1.09121
58507620622,2.27206,1.27687,1.09081
58507643815,2.27074,1.2769,1.08902
58507664891,2.27074,1.2769,1.08902
58507680669,2.27074,1.2769,1.08902
58507703801,2.26941,1.27735,1.08775
58507724899,2.27044,1.27745,1.08908
58507740643,2.27224,1.27806,1.09089
58507763173,2.27227,1.27862,1.09064
58507784922,2.27169,1.2791,1.0898
58507800637,2.26916,1.27906,1.08682
58507831289,2.26727,1.27995,1.08424
58507844819,2.26537,1.27985,1.08036
58507860540,2.26394,1.27961,1.07756
58507883051,2.26208,1.27854,1.07376
58507904784,2.25926,1.27854,1.06796
58507920586,2.25799,1.27753,1.06332
58507943028,2.25504,1.27642,1.05845
58507966281,2.25122,1.27595,1.054
58507980637,2.24865,1.27646,1.05005
58508003121,2.24629,1.27696,1.04666
58508026305,2.24511,1.27744,1.04446
58508040652,2.24296,1.27831,1.04242
58508063100,2.24226,1.27897,1.0422
58508086278,2.24161,1.27931,1.04179
58508100670,2.23907,1.27936,1.03879
58508123162,2.23616,1.27936,1.03539
58508146339,2.23281,1.27927,1.03098
58508160645,2.2297,1.27891,1.02624
58508183139,2.22732,1.27861,1.02268
58508206299,2.22444,1.27776,1.01956
58508219877,2.22368,1.27739,1.0187
58508234162,2.22286,1.27704,1.01751
58508256702,2.22265,1.27699,1.01667
58508279799,2.22265,1.27699,1.01667
58508294225,2.22043,1.27652,1.0149
58508316672,2.22053,1.27712,1.01543
58508339851,2.22053,1.27712,1.01543
58508354225,2.21901,1.27632,1.01336
58508376750,2.21771,1.27595,1.0112
58508399920,2.21546,1.27495,1.00684
58508414216,2.21183,1.27345,1.00124
58508446243,2.20758,1.27219,0.996027
58508459896,2.20497,1.27155,0.993112
58508474118,2.20235,1.27221,0.990793
58508496703,2.2005,1.27314,0.990296
58508519900,2.2018,1.27457,0.992812
58508534199,2.20279,1.27575,0.994457
58508556749,2.20361,1.27696,0.995497
58508579846,2.20417,1.2772,0.995547
58508594182,2.20421,1.27673,0.994906
58508616719,2.20424,1.27612,0.994021
58508639835,2.20486,1.27542,0.993528
58508654119,2.2041,1.27483,0.992903
58508676686,2.20578,1.27475,0.99509
58508699849,2.20919,1.2752,0.998997
58508714126,2.21225,1.27524,1.0025
58508736608,2.21527,1.27537,1.00595
58508759850,2.21622,1.27516,1.00678
58508774171,2.21626,1.2743,1.00641
58508796835,2.21857,1.27204,1.00922
58508819945,2.2198,1.27,1.00994
58508834176,2.22003,1.26851,1.00927
58508856725,2.2222,1.26732,1.0099
58508879184,2.22213,1.26596,1.00905
58508894250,2.22113,1.26495,1.00764
58508916718,2.22204,1.26377,1.00759
58508939279,2.22327,1.26186,1.00755
58508954196,2.22468,1.25998,1.00731
58508976729,2.22608,1.2593,1.00654
58508999222,2.2271,1.25832,1.00533
58509014171,2.22672,1.25684,1.00361
58509036726,2.226,1.25566,1.00285
58509069463,2.22769,1.2551,1.00463
58509074201,2.23097,1.25503,1.00766
58509104862,2.23598,1.25575,1.01234
58509119204,2.23831,1.25623,1.01503
58509142329,2.23886,1.25707,1.01719
58509156725,2.24159,1.25817,1.02077
58509182120,2.2444,1.2602,1.0234
58509194230,2.24698,1.26125,1.02501
58509216698,2.24788,1.26212,1.0257
58509239247,2.24698,1.26233,1.02492
58509254247,2.24503,1.26293,1.02301
58509278158,2.24453,1.26415,1.02285
58509300637,2.24639,1.26534,1.02719
58509315686,2.24991,1.26771,1.03358
58509339567,2.2541,1.27164,1.04038
58509359183,2.25617,1.27532,1.04548
58509375592,2.25721,1.2796,1.05023
58509396665,2.25606,1.28347,1.0518
58509419271,2.25281,1.28783,1.05115
58509434309,2.24766,1.29137,1.04808
58509456733,2.2398,1.29687,1.04278
58509487337,2.23246,1.3013,1.03626
58509495653,2.22493,1.30581,1.0283
58509516651,2.21222,1.3102,1.01303
58509548035,2.19526,1.31268,0.993627
58509554201,2.17369,1.31553,0.971669
58509576706,2.15066,1.31812,0.948636
58509607391,2.12183,1.32154,0.920842
58509615690,2.1022,1.32581,0.900938
58509638164,2.08401,1.32914,0.879009
58509659280,2.06106,1.33118,0.852408
58509682402,2.03787,1.33217,0.825065
58509696759,2.0126,1.33385,0.791438
58509719207,1.98252,1.33366,0.749812
58509742356,1.91434,1.33466,0.66941
58509756719,1.85854,1.33442,0.600751
58509779201,1.813,1.33278,0.545876
58509801803,1.76503,1.33281,0.49311
58509816659,1.73177,1.33409,0.459649
58509839206,1.71346,1.3352,0.43841
58509861784,1.7055,1.33492,0.425613
58509876731,1.70124,1.33229,0.418334
58509899236,1.70554,1.32922,0.422667
58509915653,1.70748,1.32769,0.424913
58509936733,1.70494,1.32752,0.421925
58509959239,1.69591,1.32605,0.414629
58509976270,1.6826,1.32478,0.403161
58509996776,1.67224,1.32381,0.392893
58510019257,1.65806,1.32249,0.379671
58510035706,1.64258,1.32126,0.365225
58510056752,1.63143,1.32029,0.356626
58510079205,1.61775,1.31983,0.347578
58510095594,1.59723,1.32211,0.329724
58510116810,1.58035,1.32213,0.308749
58510139221,1.5188,1.32066,0.244714
58510161738,1.4769,1.32078,0.198738
58510176770,1.45762,1.32033,0.181578
58510199251,1.45217,1.31965,0.179291
58510221774,1.45024,1.32178,0.18078
58510236804,1.44887,1.32364,0.181744
58510259198,1.46134,1.32319,0.198289
58510275766,1.47626,1.32315,0.218356
58510296669,1.49767,1.32332,0.241471
58510319124,1.51935,1.32289,0.264786
58510341694,1.53499,1.32388,0.285843
58510356684,1.55594,1.32552,0.311859
58510379315,1.57931,1.32704,0.340111
58510401674,1.60352,1.32785,0.36676
58510416814,1.62558,1.32826,0.390226
58510439245,1.64242,1.32852,0.409791
58510461763,1.6584,1.32934,0.427822
58510478184,1.67089,1.33031,0.440319
58510507372,1.68273,1.33063,0.452022
58510521856,1.68894,1.33064,0.459291
58510536753,1.69429,1.33175,0.466163
58510559237,1.7003,1.33278,0.473211
58510575715,1.70361,1.3346,0.478161
58510598142,1.70974,1.33681,0.486522
58510619216,1.71796,1.3392,0.496673
58510635639,1.72564,1.34031,0.505402
58510658171,1.73143,1.34216,0.512447
58510679289,1.7381,1.34326,0.521536
58510695702,1.74535,1.34495,0.530228
58510718190,1.7495,1.34692,0.535926
58510739308,1.75254,1.34935,0.540142
58510755620,1.75301,1.35102,0.541279
58510779667,1.75453,1.35193,0.544685
58510799297,1.75721,1.35377,0.548182
58510815689,1.7579,1.35535,0.549785
58510838224,1.75943,1.35684,0.550849
58510859266,1.75839,1.35764,0.550247
58510875707,1.75905,1.35848,0.5514
58510898183,1.76242,1.35883,0.555292
58510919174,1.76943,1.36095,0.562591
58510935669,1.77539,1.36145,0.569473
58510958195,1.78114,1.36333,0.576978
58510979178,1.78521,1.36462,0.581715
58510995695,1.78935,1.36592,0.58595
58511018195,1.79221,1.36683,0.588616
58511039268,1.79501,1.36754,0.591497
58511055654,1.79667,1.36843,0.593645
58511078218,1.79818,1.36869,0.595259
58511099262,1.80123,1.3693,0.599636
58511115722,1.79911,1.37112,0.598523
58511138226,1.80196,1.37265,0.602195
58511159208,1.80688,1.37404,0.608534
58511175656,1.81086,1.37476,0.61354
58511198164,1.81414,1.37515,0.617621
58511219176,1.81672,1.3765,0.62029
58511235646,1.81729,1.37778,0.621171
58511258178,1.8168,1.37859,0.622029
58511279320,1.81668,1.38028,0.623167
58511295658,1.8162,1.38136,0.624526
58511318136,1.81438,1.38255,0.623882
58511339148,1.81413,1.38438,0.623898
58511355659,1.81612,1.38538,0.626047
58511378140,1.82002,1.38658,0.630879
58511399244,1.82441,1.38739,0.63597
58511415736,1.8275,1.38794,0.639933
58511438190,1.83221,1.38931,0.645332
58511459246,1.83424,1.3908,0.648067
58511475718,1.84075,1.39181,0.65566
58511498131,1.84593,1.39359,0.661653
58511520779,1.8505,1.39509,0.666254
58511535675,1.85263,1.39621,0.667903
58511558250,1.8514,1.39737,0.665296
58511580749,1.84744,1.39829,0.660458
58511595710,1.84536,1.39898,0.657389
58511618190,1.83832,1.40012,0.649905
58511640690,1.82786,1.40102,0.639811
58511655808,1.81822,1.40345,0.630936
58511678202,1.80611,1.40495,0.619456
58511702170,1.79302,1.4065,0.607643
58511717144,1.78183,1.40817,0.597464
58511738104,1.77075,1.40928,0.587793
58511760700,1.76069,1.41183,0.57876
58511777175,1.74828,1.41306,0.568116
58511798774,1.73465,1.41503,0.555887
58511827528,1.72155,1.41664,0.544017
58511835766,1.70995,1.41841,0.533084
58511857395,1.697,1.41916,0.520111
58511879948,1.68023,1.41982,0.504204
58511896445,1.66299,1.42075,0.487925
58511924966,1.64747,1.42051,0.472994
58511939840,1.63661,1.41988,0.462209
58511955692,1.62571,1.41963,0.450852
58511977229,1.6193,1.41935,0.443357
58511999979,1.61663,1.41771,0.439228
58512016365,1.61838,1.41688,0.439615
58512037421,1.62835,1.41536,0.449951
58512059926,1.63991,1.41448,0.462395
58512076280,1.65121,1.4134,0.47397
58512104924,1.66764,1.41229,0.489273
58512119991,1.68538,1.41061,0.50605
58512135703,1.69732,1.40848,0.513667
58512157490,1.72636,1.40466,0.538577
58512179947,1.75795,1.40104,0.564056
58512202460,1.78536,1.39516,0.586812
58512217499,1.80622,1.38985,0.603826
58512239993,1.83205,1.3859,0.626709
58512262421,1.8593,1.37944,0.646568
58512277495,1.88002,1.37394,0.663688
58512299923,1.89866,1.36948,0.676275
58512322471,1.91301,1.36071,0.686115
58512337398,1.93255,1.35399,0.707997
58512359894,1.9586,1.35276,0.732723
58512383920,1.99983,1.34976,0.766469
58512397458,2.02723,1.34276,0.787026
58512419962,2.03353,1.34022,0.790444
58512443816,2.04045,1.33903,0.794275
58512457458,2.0553,1.33738,0.80675
58512479889,2.08155,1.33677,0.83361
58512495625,2.10728,1.33455,0.860545
58512517375,2.12972,1.33008,0.882392
58512539870,2.15617,1.32559,0.907817
58512562413,2.17456,1.32051,0.922648
58512578881,2.1861,1.31658,0.934144
58512599861,2.20707,1.31106,0.956858
58512615686,2.22926,1.30471,0.979627
58512637800,2.25802,1.29786,1.00594
58512659916,2.29201,1.28963,1.03618
58512675674,2.33173,1.27965,1.07493
58512698835,2.37418,1.26993,1.11538
58512721308,2.41867,1.25817,1.15658
58512735733,2.46829,1.24426,1.20142
58512758845,2.51782,1.23087,1.24549
58512779698,2.56126,1.21773,1.28366
58512795734,2.60349,1.20363,1.32242
58512818852,2.64766,1.19119,1.36256
58512839913,2.6908,1.17843,1.39966
58512855709,2.7382,1.16504,1.43925
58512878862,2.78877,1.15249,1.47892
58512899870,2.84618,1.13989,1.52137
58512915757,2.90915,1.13186,1.5669
58512938848,2.97581,1.10245,1.63141
58512959930,3.05791,1.06714,1.69384
58512983802,3.12894,1.03842,1.73661
58512998856,-3.11368,0.995604,1.76375
58513019900,-3.11671,0.951948,1.77355
58513042461,3.13401,0.913146,1.78394
58513058868,3.12348,0.889757,1.79671
58513079888,3.13184,0.876911,1.80476
58513095669,-3.14116,0.880012,1.80461
58513118825,3.13642,0.89648,1.79961
58513139861,3.11697,0.92489,1.78934
58513155702,3.09172,0.967717,1.77569
58513178851,3.06175,1.01383,1.75517
58513199905,3.01836,1.07295,1.7249
58513215684,2.96116,1.14207,1.68456
58513238858,2.88911,1.21815,1.62422
58513259898,2.78992,1.29884,1.52778
58513275713,2.61069,1.37854,1.34196
58513304931,2.18748,1.44659,0.911008
58513319947,1.35362,1.46342,0.0756755
58513335729,0.729756,1.41066,-0.536771
58513358877,0.44395,1.3307,-0.804717
58513379931,0.304507,1.24267,-0.935593
58513395714,0.233784,1.15462,-1.00597
58513418176,0.198409,1.07116,-1.04634
58513439911,0.17868,0.997147,-1.06966
58513455673,0.169674,0.934914,-1.08014
58513478169,0.159548,0.888082,-1.08801
58513499929,0.16067,0.886324,-1.0906
58513515654,0.183538,0.908752,-1.08338
58513538246,0.218991,0.947741,-1.06421
58513559912,0.261216,0.996782,-1.0339
58513575732,0.299232,1.03585,-1.00508
58513598245,0.33932,1.0691,-0.972481
58513621402,0.332178,1.08937,-0.990676
58513635751,0.259135,1.13627,-0.980078
58513658230,0.295609,1.17875,-0.933295
58513681418,0.449235,1.21978,-0.842006
58513695656,0.525522,1.24965,-0.740684
58513718204,0.578713,1.27134,-0.649858
58513741416,0.613641,1.29014,-0.60193
58513755696,0.703998,1.30791,-0.525437
58513778178,0.793803,1.3296,-0.445966
58513801457,0.876008,1.34678,-0.357193
58513815735,0.938048,1.36218,-0.277755
58513838245,1.00164,1.37361,-0.203856
58513861483,1.0617,1.38012,-0.141786
58513882502,1.12681,1.38373,-0.0868638
58513898274,1.20523,1.38342,-0.0178557
58513921499,1.2681,1.38211,0.0440383
58513942502,1.30673,1.37889,0.0865833
58513958280,1.36528,1.3777,0.154848
58513981454,1.46136,1.37953,0.258696
58514002461,1.57959,1.38049,0.37947
58514018310,1.71562,1.37956,0.517062
58514041469,1.85256,1.37426,0.653957
58514062473,1.96741,1.36374,0.770189
58514078270,2.08079,1.34825,0.888576
58514101495,2.18348,1.33289,0.992316
58514122533,2.27757,1.31563,1.07832
58514138295,2.36214,1.29695,1.15224
58514161847,2.44871,1.27914,1.22904
58514182450,2.52658,1.26028,1.29382
58514198261,2.5901,1.24053,1.34483
58514221498,2.65527,1.22081,1.39767
58514242500,2.7193,1.1992,1.44632
58514258245,2.78874,1.16806,1.50105
58514281498,2.86099,1.13297,1.55701
58514303891,2.94678,1.0969,1.61995
58514318210,3.0385,1.04726,1.6841
58514340768,3.13829,0.988202,1.73735
58514362523,-3.10403,0.928796,1.75733
58514378233,-3.10278,0.879655,1.75988
58514400708,-3.14015,0.837112,1.76907
58514422541,3.11837,0.818363,1.78075
58514438270,3.1201,0.815347,1.78882
58514460727,-3.14112,0.816049,1.78581
58514482501,-3.11656,0.841363,1.79356
58514498280,-3.10382,0.879084,1.7918
58514520813,-3.11228,0.92555,1.78517
58514543964,3.13435,0.98703,1.76765
58514558249,3.07383,1.06285,1.74091
58514580765,2.98945,1.14697,1.70352
58514603913,2.87679,1.23332,1.64698
58514618241,2.74545,1.32028,1.55802
58514640814,2.54259,1.40028,1.36489
58514655774,2.09048,1.46007,0.928239
58514678228,1.29324,1.47563,0.150727
58514699333,0.703472,1.43392,-0.417206
58514715795,0.433162,1.3693,-0.658223
58514738279,0.300395,1.30052,-0.761466
58514759418,0.22972,1.23231,-0.80827
58514775827,0.188233,1.1667,-0.827751
58514798250,0.161245,1.10709,-0.832962
58514819382,0.14383,1.05374,-0.82994
58514835757,0.132747,1.00644,-0.827293
58514858279,0.135391,0.970694,-0.824913
58514879378,0.164873,0.970488,-0.812253
58514895739,0.216124,0.988226,-0.790449
58514918803,0.282009,1.01931,-0.753595
58514939417,0.350367,1.05498,-0.704794
58514955800,0.402271,1.09788,-0.651597
58514978181,0.447967,1.13188,-0.591986
58515000792,0.479804,1.16127,-0.529893
58515015789,0.480436,1.17063,-0.500408
58515038356,0.430728,1.20546,-0.435004
58515060784,0.478272,1.242,-0.341609
58515075799,0.595351,1.27818,-0.212038
58515098326,0.755786,1.30873,-0.0474923
58515120785,0.918477,1.32655,0.109728
58515142560,1.06937,1.33187,0.235981
58515158318,1.19465,1.33547,0.343028
58515180775,1.33961,1.34007,0.487615
58515195771,1.42263,1.33959,0.5763
58515226488,1.50225,1.33603,0.659492
58515247558,1.57181,1.33311,0.726766
58515262500,1.63141,1.33087,0.775557
58515278293,1.68689,1.32701,0.817709
58515307525,1.73802,1.3245,0.862476
58515321829,1.78876,1.32134,0.91213
58515338246,1.84661,1.31477,0.969056
58515360768,1.90161,1.30817,1.02104
58515381815,1.95669,1.30178,1.07121
58515397547,2.01433,1.29369,1.12273
58515420037,2.07667,1.28388,1.18029
58515434305,2.13785,1.27159,1.23786
58515457529,2.20108,1.25849,1.29783
58515479974,2.26453,1.24342,1.3563
58515494313,2.32383,1.22702,1.40975
58515517450,2.38364,1.21033,1.46291
58515539961,2.4418,1.19259,1.51158
58515554270,2.49725,1.17271,1.5545
58515577441,2.54862,1.15123,1.59409
58515600002,2.59577,1.12869,1.63119
58515614272,2.6391,1.10638,1.66756
58515636755,2.68432,1.08458,1.70587
58515659966,2.73165,1.05543,1.74504
58515674259,2.78044,1.02418,1.78245
58515696798,2.83328,0.992364,1.81828
58515719977,2.89357,0.962934,1.85575
58515734330,2.95399,0.92207,1.89255
58515756917,3.00539,0.874904,1.91907
58515780009,3.03142,0.826231,1.9387
58515794419,3.0377,0.780935,1.95523
58515816852,3.05725,0.747918,1.96071
58515840027,3.05686,0.735285,1.95748
58515854323,3.05096,0.731583,1.96319
58515876855,3.05522,0.748041,1.96203
58515900075,3.0601,0.771909,1.97104
58515914356,3.07207,0.812528,1.9702
58515936816,3.07481,0.855993,1.96185
58515959966,3.05322,0.914268,1.94515
58515974381,3.01468,0.990946,1.91907
58515996912,2.95183,1.07785,1.88689
58516020027,2.87459,1.16523,1.84771
58516034373,2.79168,1.25134,1.78877
58516057463,2.68334,1.3323,1.67739
58516079964,2.46736,1.40408,1.45934
58516094380,1.97893,1.45722,0.979633
58516125703,1.21522,1.46085,0.232623
58516140076,0.709459,1.41503,-0.258526
58516154357,0.483176,1.35608,-0.480763
58516177574,0.365898,1.29581,-0.598493
58516200051,0.297614,1.23624,-0.669792
58516214321,0.257363,1.17926,-0.712936
58516237525,0.227756,1.12622,-0.739436
58516260018,0.203216,1.07999,-0.755052
58516274386,0.182856,1.04105,-0.764684
58516297551,0.165879,1.01007,-0.770173
58516320053,0.163571,1.00241,-0.765832
58516334329,0.168389,1.00482,-0.758303
58516357501,0.180029,1.01769,-0.747416
58516380048,0.196252,1.04066,-0.731304
58516394352,0.225676,1.06665,-0.705019
58516417525,0.254499,1.09443,-0.673448
58516439999,0.257502,1.10569,-0.662795
58516454351,0.283325,1.15108,-0.640734
58516478923,0.251146,1.18751,-0.618306
58516500105,0.300171,1.21997,-0.568391
58516514352,0.4277,1.2518,-0.457041
58516537530,0.518088,1.27362,-0.34193
58516560008,0.568627,1.28754,-0.259505
58516574404,0.599418,1.29721,-0.212463
58516597573,0.640978,1.306,-0.181393
58516620054,0.713287,1.31354,-0.140312
58516634374,0.807704,1.31487,-0.0665359
58516657553,0.859251,1.31432,-0.00237472
58516680061,0.881343,1.31725,0.0377477
58516694421,0.918948,1.3217,0.0697626
58516717579,0.979205,1.32377,0.106278
58516741488,1.03736,1.32577,0.148395
58516754323,1.08721,1.32755,0.195011
58516785022,1.13282,1.32866,0.244468
58516800037,1.17323,1.33049,0.287561
58516822580,1.20391,1.33149,0.317529
58516837538,1.23443,1.33373,0.34929
58516860037,1.26465,1.3361,0.382533
58516874374,1.29559,1.33855,0.416251
58516896900,1.32208,1.34104,0.441389
58516920098,1.36392,1.34709,0.48072
58516934404,1.41886,1.35038,0.530868
58516956892,1.4665,1.35037,0.575828
58516980064,1.50459,1.35059,0.610269
58516994397,1.54062,1.34779,0.642834
58517016859,1.57164,1.34832,0.673838
58517039361,1.6059,1.35024,0.706468
58517054400,1.64147,1.35124,0.739769
58517076851,1.68102,1.35273,0.777181
58517099410,1.71667,1.35383,0.812064
58517114371,1.75667,1.35365,0.852382
58517136919,1.8006,1.35468,0.900927
58517159451,1.84344,1.35657,0.945744
58517174512,1.88842,1.35789,0.990358
58517196921,1.93221,1.35974,1.03271
58517219376,1.97386,1.36196,1.07217
58517235826,2.01764,1.3638,1.11277
58517256895,2.0581,1.3654,1.15007
58517279455,2.08163,1.36582,1.17003
58517295843,2.09879,1.36678,1.18613
58517316920,2.11172,1.36773,1.19831
58517339382,2.12082,1.36975,1.20624
58517355785,2.12697,1.37293,1.21113
58517376864,2.13035,1.37654,1.21399
58517399382,2.13325,1.38075,1.21567
58517415883,2.13041,1.38312,1.21066
58517436910,2.12431,1.38578,1.20321
58517459404,2.11458,1.38756,1.19199
58517475867,2.10579,1.38924,1.18134
58517496899,2.09795,1.39084,1.17285
58517519433,2.09193,1.39339,1.16714
58517535795,2.08553,1.39604,1.16046
58517556923,2.08122,1.39853,1.15647
58517579426,2.07771,1.40024,1.15401
58517595802,2.07544,1.40052,1.15308
58517616929,2.07295,1.40039,1.15273
58517639408,2.06744,1.40049,1.14702
58517655796,2.05436,1.401,1.12959
58517676874,2.03773,1.40298,1.11024
58517699463,2.01332,1.40638,1.08741
58517715865,1.98047,1.41028,1.0579
58517736936,1.9395,1.41377,1.01858
58517759463,1.88836,1.41503,0.96827
58517775850,1.83826,1.41631,0.918464
58517796867,1.7951,1.41703,0.875053
58517819443,1.76352,1.41838,0.843771
58517841933,1.74457,1.41911,0.825163
58517856871,1.73547,1.41779,0.817488
58517879395,1.72891,1.41651,0.813678
58517895857,1.7227,1.41553,0.809708
58517916915,1.71576,1.4144,0.805914
58517939405,1.71068,1.41412,0.803955
58517955835,1.70315,1.41311,0.798266
58517976897,1.68685,1.41147,0.784783
58517999433,1.67296,1.41097,0.775588
58518015873,1.66181,1.41177,0.770883
58518036899,1.64687,1.41121,0.758226
58518059419,1.62167,1.41021,0.733152
58518075877,1.58229,1.40869,0.690076
58518096896,1.53463,1.408,0.639898
58518120821,1.48418,1.40795,0.584221
58518135869,1.43558,1.40428,0.5348
58518158329,1.3763,1.39955,0.483734
58518180844,1.31606,1.39606,0.43427
58518195775,1.27487,1.39319,0.398195
58518218263,1.25336,1.38905,0.374529
58518239299,1.23263,1.38345,0.355377
58518255808,1.20568,1.37757,0.331788
58518278344,1.18425,1.37256,0.308876
58518299441,1.17765,1.36786,0.291909
58518315813,1.17864,1.36121,0.287823
58518338308,1.16578,1.35926,0.280897
58518359389,1.15674,1.35588,0.272401
58518375834,1.15959,1.35211,0.28264
58518398358,1.16872,1.34917,0.30297
58518427533,1.18182,1.34764,0.327413
58518435879,1.20934,1.34711,0.36214
58518458377,1.25423,1.34464,0.40832
58518487553,1.29289,1.34639,0.452837
58518495863,1.3481,1.35057,0.50979
58518518347,1.42182,1.35154,0.587894
58518539535,1.49316,1.35284,0.671145
58518555829,1.56668,1.35456,0.753517
58518578415,1.62523,1.35811,0.814854
58518599415,1.65871,1.36241,0.847832
58518615839,1.71084,1.363,0.900946
58518638401,1.77073,1.36309,0.965522
58518659442,1.82913,1.3606,1.02207
58518681946,1.88206,1.35901,1.07049
58518698250,1.91009,1.35719,1.09457
58518719583,1.92341,1.35583,1.10338
58518737338,1.9389,1.35523,1.11515
58518765866,1.96806,1.35056,1.13983
58518779406,1.99961,1.34769,1.17184
58518795822,1.99518,1.34762,1.16623
58518818347,1.94625,1.35571,1.11086
58518839366,1.90737,1.36191,1.07054
58518855854,1.9115,1.36114,1.07085
58518878273,1.92999,1.35826,1.09006
58518899323,1.94827,1.35459,1.10854
58518915793,1.9667,1.35197,1.12629
58518938277,1.99311,1.34821,1.15184
58518959321,2.02267,1.34447,1.18163
58518975770,2.04892,1.33941,1.20949
58518997479,2.07877,1.33544,1.24157
58519020052,2.1089,1.33153,1.27365
58519042547,2.13264,1.32776,1.29995
58519057556,2.14932,1.32558,1.31868
58519080121,2.16183,1.3228,1.33137
58519095149,2.17182,1.32111,1.34077
58519117559,2.17672,1.32052,1.3456
58519140134,2.17667,1.32167,1.34739
58519155150,2.17756,1.32291,1.34905
58519177605,2.18076,1.32576,1.35252
58519200101,2.18674,1.3277,1.3584
58519215098,2.1909,1.32891,1.36285
58519237620,2.191,1.33108,1.36431
58519260007,2.19831,1.33232,1.37325
58519276508,2.20585,1.33391,1.38207
58519297571,2.21413,1.33541,1.39165
58519320145,2.22392,1.33662,1.4018
58519336500,2.23275,1.33745,1.41059
58519357604,2.23727,1.33729,1.41584
58519380141,2.24434,1.33814,1.42441
58519396542,2.25236,1.33885,1.43357
58519417619,2.26082,1.33992,1.44239
58519447600,2.2681,1.34096,1.45028
58519456596,2.27283,1.34122,1.45582
58519477598,2.27295,1.34283,1.45747
58519500095,2.27766,1.34377,1.46326
58519516530,2.28065,1.34418,1.4668
58519537579,2.28155,1.34411,1.46792
58519560112,2.28355,1.34384,1.47
58519576557,2.28665,1.3429,1.47313
58519605148,2.28749,1.34165,1.47453
58519620148,2.28749,1.34177,1.47559
58519636571,2.29117,1.34176,1.48038
58519657575,2.29515,1.34135,1.48425
58519680076,2.29766,1.34118,1.48593
58519696492,2.29853,1.33959,1.48612
58519717639,2.29882,1.33732,1.48571
58519740137,2.29666,1.3357,1.48245
58519756567,2.29385,1.334,1.47748
58519785104,2.29334,1.33275,1.476
58519800020,2.29266,1.33199,1.4753
58519816543,2.29018,1.33152,1.47339
58519837738,2.28912,1.33069,1.47257
58519860149,2.28993,1.33023,1.47415
58519876515,2.29283,1.33014,1.47774
58519913363,2.29665,1.32966,1.48215
58519920166,2.30007,1.33062,1.48705
58519936591,2.30325,1.33092,1.49103
58519957630,2.30634,1.33117,1.49448
58519980140,2.30639,1.33101,1.4948
58519996530,2.3082,1.33069,1.49736
58520017617,2.30988,1.33132,1.49952
58520040119,2.31062,1.33187,1.50122
58520055901,2.31221,1.3323,1.50334
58520077576,2.31266,1.33188,1.50481
58520100176,2.31312,1.33172,1.50597
58520124066,2.31395,1.33159,1.50639
58520137595,2.31447,1.33181,1.50707
58520160097,2.31459,1.33147,1.50707
58520175853,2.31405,1.33122,1.5066
58520197635,2.31131,1.32988,1.50358
58520221590,2.31038,1.32904,1.50266
58520235945,2.30952,1.32858,1.50126
58520258998,2.30954,1.32785,1.5006
58520280037,2.30785,1.3262,1.49873
58520295914,2.30725,1.32508,1.49822
58520319023,2.30497,1.32356,1.49572
58520340797,2.30351,1.32331,1.49411
58520355908,2.30249,1.32268,1.4926
58520379052,2.3009,1.32178,1.49106
58520401569,2.29961,1.32088,1.48938
58520415863,2.297,1.3195,1.48607
58520439050,2.29424,1.31739,1.48283
58520460167,2.29254,1.31632,1.48012
58520475929,2.29057,1.31526,1.4767
58520499025,2.28783,1.31363,1.47336
58520520545,2.28636,1.31274,1.47194
58520535841,2.28612,1.31217,1.47054
58520559034,2.28425,1.31044,1.46766
58520580095,2.28209,1.30919,1.46543
58520595901,2.28076,1.30837,1.46348
58520619087,2.27944,1.3074,1.46115
58520640126,2.27755,1.30616,1.45875
58520655882,2.27611,1.3052,1.45739
58520679062,2.276,1.30479,1.45653
58520707595,2.27727,1.30404,1.45759
58520715796,2.27793,1.30295,1.4586
58520739419,2.27882,1.3035,1.46018
58520760079,2.27884,1.30404,1.46003
58520775850,2.27866,1.3044,1.45975
58520799011,2.28073,1.3051,1.46203
58520820155,2.28026,1.30598,1.46107
58520835886,2.27861,1.30646,1.45906
58520859064,2.27783,1.3067,1.45844
58520880147,2.27863,1.3073,1.45906
58520895947,2.28106,1.30826,1.46163
58520919100,2.28431,1.30968,1.46511
58520940168,2.28652,1.31183,1.46863
58520955839,2.29098,1.31378,1.4734
58520978343,2.29688,1.316,1.47863
58521000130,2.30159,1.31766,1.48241
58521015815,2.30592,1.31896,1.48593
58521046595,2.30946,1.32021,1.48868
58521060177,2.31373,1.32229,1.49147
58521075900,2.31417,1.32388,1.49103
58521098457,2.31515,1.32652,1.4917
58521120126,2.31954,1.32934,1.49531
58521135851,2.32615,1.33209,1.50116
58521158450,2.33335,1.33486,1.50782
58521181562,2.33998,1.33734,1.51379
58521195882,2.34468,1.34023,1.5188
58521218457,2.35066,1.34327,1.52507
58521241573,2.35934,1.34689,1.53327
58521255961,2.36818,1.35007,1.54171
58521278414,2.37676,1.35343,1.55033
58521301596,2.3838,1.35709,1.55818
58521324123,2.39206,1.36194,1.56594
58521338448,2.39988,1.36617,1.57192
58521361556,2.40408,1.37021,1.57414
58521375863,2.40459,1.37363,1.57321
58521398455,2.40707,1.37795,1.57344
58521429073,2.4087,1.38181,1.57062
58521435973,2.40497,1.38461,1.56227
58521458447,2.40145,1.38573,1.55528
58521481583,2.39881,1.38739,1.55
58521495893,2.40024,1.38984,1.54886
58521518475,2.4043,1.39146,1.55051
58521541540,2.40802,1.39422,1.55248
58521562677,2.41147,1.39687,1.55311
58521578501,2.41809,1.39953,1.5559
58521601591,2.41786,1.4018,1.55092
58521615940,2.40954,1.40252,1.54002
58521638488,2.40936,1.40299,1.53969
58521661573,2.40972,1.40483,1.53805
58521682650,2.39836,1.4066,1.52393
58521698451,2.38328,1.40896,1.508
58521721600,2.37052,1.41226,1.49429
58521742592,2.35325,1.41451,1.47581
58521758491,2.32991,1.41654,1.45274
58521781598,2.3119,1.41809,1.43614
58521802571,2.29473,1.41878,1.41946
58521818492,2.27504,1.4199,1.39979
58521841580,2.24942,1.42007,1.37554
58521862649,2.22804,1.41928,1.35675
58521878448,2.20822,1.41911,1.339
58521901554,2.18513,1.41692,1.31647
58521922652,2.15689,1.41535,1.28931
58521938449,2.12924,1.41364,1.2638
58521960965,2.09969,1.41162,1.2358
58521982681,2.07928,1.40782,1.21771
58521998494,2.06703,1.40412,1.20883
58522020935,2.05596,1.39954,1.20131
58522042703,2.03666,1.3924,1.18885
58522058503,2.01198,1.38397,1.17134
58522080914,1.99861,1.3777,1.15977
58522102648,1.99872,1.37075,1.15548
58522118493,1.99946,1.36411,1.15641
58522140922,1.99992,1.35866,1.15992
58522164092,2.00348,1.35253,1.16445
58522178493,2.00864,1.34448,1.16766
58522200987,2.0131,1.3357,1.16929
58522224146,2.01947,1.32705,1.17453
58522238468,2.01782,1.31777,1.17227
58522260931,2.00405,1.31096,1.16087
58522284126,2.01723,1.30232,1.17753
58522298453,2.02806,1.29336,1.1883
58522320949,2.03594,1.28284,1.19035
58522344106,2.04757,1.27198,1.19599
58522358495,2.06,1.2612,1.20424
58522380935,2.06659,1.25414,1.21059
58522404043,2.07785,1.24514,1.21975
58522425136,2.08429,1.24,1.22704
58522440900,2.0903,1.23406,1.23057
58522464089,2.08072,1.22928,1.22507
58522485169,2.06473,1.2275,1.21335
58522500893,2.04096,1.22793,1.19333
58522524112,2.01565,1.22863,1.17001
58522545145,1.9926,1.2287,1.151
58522560936,1.91859,1.2376,1.08043
58522584066,1.77999,1.25501,0.936265
58522597054,1.66608,1.26105,0.820965
58522620196,1.60159,1.26152,0.756522
58522634576,1.54906,1.26031,0.709195
58522657025,1.49991,1.25903,0.667261
58522680185,1.45888,1.25731,0.63268
58522694572,1.42478,1.25398,0.603493
58522716953,1.39273,1.25217,0.580607
58522740207,1.36144,1.24905,0.558357
58522754519,1.32698,1.24763,0.532853
58522777504,1.29765,1.24517,0.505464
58522800148,1.26691,1.24045,0.474949
58522814532,1.23866,1.23887,0.449765
58522836948,1.22294,1.23724,0.440691
58522860188,1.21349,1.23721,0.446086
58522874521,1.19728,1.2406,0.444684
58522905754,1.18745,1.24384,0.441495
58522920169,1.17081,1.24608,0.431236
58522934514,1.15453,1.24706,0.421388
58522956997,1.13138,1.25056,0.410086
58522980179,1.10633,1.25563,0.392169
58522994500,1.0748,1.25672,0.36521
58523017010,1.04099,1.25611,0.337668
58523040225,1.00566,1.25339,0.312956
58523054542,0.964108,1.25276,0.286647
58523077065,0.92646,1.25393,0.261466
58523100199,0.896684,1.25669,0.23917
58523114550,0.870756,1.26286,0.217895
58523137029,0.854869,1.27229,0.202234
58523160237,0.848041,1.28295,0.197995
58523174518,0.822242,1.29668,0.181989
58523197022,0.82116,1.30568,0.183605
58523220203,0.832221,1.30638,0.218037
58523234524,0.787264,1.30676,0.232721
58523257053,0.722645,1.3052,0.252342
58523280190,0.638772,1.30348,0.261665
58523294530,0.55127,1.30257,0.26252
58523317067,0.468188,1.30107,0.259549
58523340203,0.394763,1.29853,0.260909
58523354524,0.32518,1.29676,0.266953
58523377095,0.258638,1.29493,0.276508
58523400249,0.193353,1.29356,0.285781
58523414577,0.127298,1.29454,0.290017
58523437035,0.0666718,1.29688,0.29335
58523460203,0.00827411,1.29892,0.293179
58523474526,-0.045822,1.3008,0.286842
58523497002,-0.0991681,1.30298,0.267364
58523520191,-0.141563,1.30373,0.249767
58523534547,-0.175721,1.30029,0.231356
58523556975,-0.203352,1.30219,0.221382
58523580161,-0.21839,1.30254,0.222907
58523594519,-0.226301,1.30347,0.232774
58523616909,-0.237177,1.30609,0.24567
58523640183,-0.253106,1.30634,0.257686
58523654399,-0.283265,1.31345,0.259739
58523676936,-0.312423,1.32229,0.269981
58523700101,-0.351302,1.33241,0.280239
58523714446,-0.395586,1.3425,0.293397
58523736958,-0.43495,1.35181,0.312583
58523760109,-0.472533,1.36488,0.337584
58523774425,-0.514236,1.38255,0.365675
58523796988,-0.574136,1.40512,0.386939
58523820132,-0.651236,1.42788,0.398413
58523834525,-0.745434,1.45093,0.388301
58523856965,-0.867786,1.47266,0.337262
58523880170,-1.04166,1.48898,0.223047
58523894477,-1.23351,1.4961,0.0770477
58523917028,-1.34579,1.49527,-0.016684
58523940235,-1.37016,1.49432,-0.0440527
58523954495,-1.56893,1.50717,-0.240371
58523976994,-1.88023,1.51392,-0.530677
58524000180,-2.16003,1.51128,-0.785727
58524014474,-2.37497,1.50264,-0.989356
58524037042,-2.52333,1.49531,-1.13453
58524059511,-2.64163,1.48866,-1.24671
58524074550,-2.74465,1.48374,-1.33506
58524105193,-2.86326,1.47504,-1.4415
58524136501,-2.96294,1.46458,-1.52901
58524138912,-2.98622,1.45223,-1.54365
58524159942,-2.97885,1.43876,-1.53484
58524179520,-2.98624,1.42108,-1.54465
58524194520,-2.97978,1.40446,-1.537
58524225217,-2.95872,1.39369,-1.5191
58524248312,-2.93827,1.38527,-1.50354
58524254585,-2.91817,1.37699,-1.48783
58524276994,-2.89426,1.36705,-1.46753
58524299556,-2.86423,1.35613,-1.44492
58524314582,-2.82893,1.34451,-1.4212
58524337112,-2.79112,1.33285,-1.39579
58524359551,-2.74816,1.32062,-1.36462
58524374470,-2.69495,1.30801,-1.32036
58524397022,-2.62916,1.29728,-1.25935
58524419581,-2.57134,1.29008,-1.20168
58524442593,-2.49338,1.28326,-1.12566
58524465258,-2.41888,1.2759,-1.0658
58524479481,-2.4146,1.26157,-1.06788
58524494425,-2.49258,1.24028,-1.11496
58524517020,-2.57382,1.20338,-1.13819
58524539610,-2.65333,1.16251,-1.16797
58524554482,-2.70952,1.12543,-1.20215
58524577072,-2.76359,1.09147,-1.24874
58524599569,-2.84326,1.06346,-1.29686
58524614566,-2.94637,1.0429,-1.33106
58524637010,-3.05682,1.03399,-1.3588
58524659563,3.12028,1.03456,-1.38753
58524677443,3.03491,1.04594,-1.41545
58524697054,2.98846,1.07647,-1.4397
58524719513,2.96475,1.11329,-1.46435
58524734516,2.93179,1.14988,-1.50578
58524757023,2.88359,1.19327,-1.55507
58524779587,2.8069,1.24311,-1.61554
58524796010,2.70209,1.29715,-1.69476
58524817018,2.55477,1.35154,-1.81512
58524839488,2.32252,1.40528,-2.02621
58524855982,1.91408,1.44811,-2.4189
58524877079,1.30115,1.45837,-3.01118
58524899616,0.794765,1.43288,2.79105
58524916014,0.502202,1.38818,2.52498
58524945203,0.331908,1.33787,2.37215
58524959544,0.248626,1.28974,2.28783
58524975985,0.228967,1.24988,2.25241
58524997042,0.237772,1.21921,2.24109
58525019594,0.289358,1.21988,2.26517
58525036006,0.337647,1.20703,2.27058
58525057087,0.403673,1.21106,2.29585
58525079579,0.543779,1.23939,2.39217
58525096005,0.621584,1.26263,2.43338
58525117077,0.712704,1.29687,2.4913
58525139576,0.793711,1.32778,2.57775
58525155998,0.839319,1.35341,2.68398
58525177068,0.900119,1.3674,2.78365
58525199529,1.03776,1.38361,2.91111
58525216031,1.23812,1.39139,3.08081
58525237044,1.40555,1.39012,-3.04314
58525259544,1.51835,1.39146,-2.90765
58525276044,1.58617,1.39727,-2.82467
58525297084,1.6678,1.40255,-2.74917
58525319602,1.75645,1.4029,-2.66884
58525335972,1.82419,1.40273,-2.60202
58525357107,1.87613,1.40306,-2.55297
58525379585,1.9213,1.40302,-2.51686
58525395953,1.95613,1.40146,-2.49338
58525417072,1.99392,1.40134,-2.46768
58525439601,2.03511,1.39996,-2.43601
58525455984,2.07549,1.3991,-2.40699
58525477030,2.12405,1.39768,-2.36902
58525499566,2.18114,1.39728,-2.32147
58525515959,2.25054,1.3967,-2.26044
58525537089,2.32266,1.39565,-2.19152
58525559484,2.40001,1.39186,-2.11765
58525576043,2.46781,1.3866,-2.05206
58525597131,2.52691,1.38523,-1.99383
58525619607,2.59346,1.38453,-1.9271
58525635963,2.66909,1.3826,-1.85277
58525657071,2.74001,1.38302,-1.78589
58525679573,2.74857,1.40272,-1.80394
58525695971,2.75864,1.41615,-1.81199
58525718547,2.79495,1.42449,-1.79194
58525739646,2.84757,1.42979,-1.76031
58525755929,2.89568,1.43479,-1.73349
58525778512,2.92948,1.4403,-1.71959
58525799553,2.95262,1.44543,-1.71592
58525815975,2.96864,1.44997,-1.7221
58525838457,2.98518,1.45059,-1.72932
58525859564,3.01577,1.45016,-1.72445
58525876002,3.05615,1.44883,-1.70818
58525898513,3.09544,1.44878,-1.69288
58525919512,3.14048,1.44894,-1.66802
58525935985,-3.09647,1.44881,-1.63925
58525958510,-3.04504,1.4493,-1.60435
58525979486,-2.98835,1.44907,-1.56364
58525996039,-2.9354,1.44724,-1.52311
58526018472,-2.89871,1.44507,-1.49496
58526039557,-2.87235,1.44368,-1.4739
58526055970,-2.84769,1.44218,-1.45361
58526078483,-2.82946,1.44036,-1.43927
58526107766,-2.81326,1.44009,-1.42548
58526116022,-2.80451,1.43934,-1.41671
58526138479,-2.79433,1.44053,-1.40538
58526154925,-2.78016,1.44023,-1.3889
58526175999,-2.76922,1.44046,-1.37715
58526197722,-2.76172,1.43994,-1.36863
58526220251,-2.75153,1.44036,-1.35907
58526235239,-2.74147,1.43914,-1.34952
58526257727,-2.73252,1.43866,-1.34151
58526280280,-2.72533,1.43726,-1.33432
58526295228,-2.71841,1.43769,-1.32753
58526317720,-2.71294,1.437,-1.32116
58526340255,-2.70751,1.4361,-1.31499
58526355261,-2.70354,1.43577,-1.31054
58526377829,-2.69967,1.43507,-1.30599
58526400538,-2.69366,1.43404,-1.29955
58526415289,-2.68831,1.43322,-1.29447
58526437733,-2.68473,1.43302,-1.2914
58526460289,-2.68126,1.43229,-1.28796
58526475247,-2.6776,1.43176,-1.28422
58526497705,-2.67421,1.43141,-1.28127
58526520175,-2.67091,1.43055,-1.27794
58526535263,-2.66923,1.43064,-1.27635
58526557758,-2.66719,1.43087,-1.27452
58526580269,-2.66436,1.43044,-1.27177
58526595176,-2.66116,1.43015,-1.26878
58526617724,-2.66115,1.43051,-1.26892
58526640259,-2.66072,1.43007,-1.26838
58526655186,-2.66072,1.43007,-1.26838
58526677730,-2.65882,1.42928,-1.26576
58526700270,-2.65883,1.42927,-1.2655
58526715247,-2.65883,1.42962,-1.26564
58526737659,-2.6584,1.42919,-1.26511
58526760233,-2.65499,1.42927,-1.26139
58526775300,-2.65125,1.42899,-1.257
58526797753,-2.64746,1.42885,-1.25288
58526813475,-2.64667,1.42925,-1.2524
58526835278,-2.64576,1.42926,-1.25215
58526857741,-2.64576,1.42926,-1.25215
58526873522,-2.6469,1.42923,-1.25331
58526896756,-2.64647,1.42879,-1.25278
58526917758,-2.64907,1.42911,-1.25601
58526933501,-2.65089,1.42935,-1.25857
58526956697,-2.65274,1.42957,-1.2609
58526977791,-2.6507,1.42925,-1.2591
58526993576,-2.64629,1.42871,-1.25503
58527016759,-2.64236,1.42789,-1.25099
58527037746,-2.63853,1.42705,-1.24678
58527054102,-2.63553,1.42561,-1.243
58527076714,-2.63567,1.42481,-1.24227
58527097755,-2.63474,1.42376,-1.24011
58527113555,-2.63338,1.423,-1.23796
58527136728,-2.6286,1.42229,-1.23286
58527157770,-2.62426,1.42254,-1.22848
58527173564,-2.61802,1.42205,-1.22183
58527196718,-2.61233,1.42263,-1.21699
58527217744,-2.60906,1.42319,-1.21506
58527233547,-2.60564,1.42317,-1.21328
58527256657,-2.60046,1.42336,-1.20992
58527285259,-2.5988,1.42413,-1.21058
58527293565,-2.59837,1.4245,-1.21136
58527316669,-2.59563,1.42517,-1.21064
58527337820,-2.59299,1.42585,-1.21121
58527353506,-2.59583,1.42723,-1.21796
58527376700,-2.60033,1.428,-1.22584
58527397775,-2.59971,1.42809,-1.22834
58527413589,-2.59418,1.42781,-1.22822
58527436671,-2.58799,1.4274,-1.22951
58527457713,-2.58273,1.42633,-1.23134
58527480205,-2.57513,1.42591,-1.22981
58527496625,-2.56332,1.42468,-1.22291
58527517706,-2.55262,1.42219,-1.21572
58527540260,-2.54205,1.41925,-1.20832
58527556655,-2.53702,1.41729,-1.20516
58527577728,-2.53559,1.41446,-1.20385
58527593488,-2.53665,1.41264,-1.20407
58527615983,-2.53802,1.41263,-1.20562
58527637705,-2.53875,1.41245,-1.20739
58527653473,-2.53903,1.41299,-1.20979
58527675949,-2.53781,1.41307,-1.21087
58527697729,-2.536,1.41353,-1.21161
58527720192,-2.53238,1.41382,-1.21063
58527735952,-2.52799,1.41295,-1.20818
58527757729,-2.52501,1.41299,-1.20737
58527773925,-2.52571,1.41284,-1.20912
58527796038,-2.52719,1.41233,-1.21061
58527819158,-2.52886,1.41201,-1.2118
58527833498,-2.53283,1.41111,-1.21535
58527856007,-2.53501,1.41121,-1.21807
58527879164,-2.53569,1.41068,-1.21918
58527901705,-2.53569,1.41073,-1.21994
58527916034,-2.53835,1.41019,-1.22285
58527939189,-2.53939,1.41016,-1.2239
58527953473,-2.53939,1.41016,-1.2239
58527976027,-2.5405,1.41042,-1.22509
58527999131,-2.54306,1.41044,-1.22785
58528013499,-2.54344,1.41094,-1.22884
58528036006,-2.54353,1.41169,-1.22943
58528059173,-2.54322,1.41213,-1.22933
58528073498,-2.54322,1.41213,-1.22933
58528095980,-2.54353,1.41169,-1.22943
58528119138,-2.54464,1.41248,-1.2308
58528133474,-2.54456,1.41219,-1.23065
58528156036,-2.54456,1.41219,-1.23065
58528179211,-2.54456,1.41219,-1.23065
58528193544,-2.54676,1.41151,-1.23213
58528216005,-2.54903,1.41112,-1.23375
58528239153,-2.55129,1.41073,-1.23536
58528253508,-2.55346,1.41058,-1.23699
58528275977,-2.55391,1.41019,-1.2372
58528299182,-2.55569,1.40986,-1.23872
58528320257,-2.55849,1.4095,-1.24127
58528336009,-2.56166,1.40899,-1.24404
58528359146,-2.56417,1.40903,-1.24674
58528380235,-2.56442,1.40831,-1.24669
58528395974,-2.56513,1.40872,-1.24763
58528419135,-2.5655,1.40857,-1.24786
58528440256,-2.56519,1.409,-1.24777
58528456001,-2.56544,1.40828,-1.24772
58528479150,-2.5655,1.40857,-1.24786
58528500225,-2.56615,1.40869,-1.24866
58528516001,-2.56646,1.40825,-1.24875
58528539200,-2.56646,1.40825,-1.24875
58528560260,-2.56717,1.40866,-1.24969
58528576039,-2.56747,1.40822,-1.24978
58528598528,-2.56753,1.40851,-1.24992
58528620240,-2.56747,1.40822,-1.24978
58528636010,-2.56747,1.40822,-1.24978
58528658525,-2.56818,1.40863,-1.25072
58528680265,-2.56849,1.40819,-1.25081
58528696000,-2.56849,1.40819,-1.25081
58528718501,-2.56886,1.40856,-1.25122
58528740265,-2.56987,1.40853,-1.25225
58528755999,-2.56987,1.40853,-1.25225
58528778488,-2.56987,1.40853,-1.25225
58528801730,-2.57089,1.4085,-1.25328
58528816119,-2.57089,1.4085,-1.25328
58528838618,-2.57089,1.4085,-1.25328
58528861742,-2.57089,1.4085,-1.25328
58528876097,-2.5712,1.40807,-1.25337
58528898507,-2.5719,1.40847,-1.25431
58528921746,-2.5719,1.40847,-1.25431
58528936107,-2.5719,1.40847,-1.25431
58528958564,-2.5719,1.40847,-1.25431
58528981731,-2.57221,1.40804,-1.25439
58529004219,-2.57292,1.40845,-1.25533
58529018487,-2.57292,1.40845,-1.25533
58529041785,-2.57323,1.40801,-1.25542
58529056131,-2.57323,1.40801,-1.25542
58529078574,-2.57323,1.40801,-1.25542
58529101718,-2.57323,1.40801,-1.25542
58529116054,-2.57323,1.40801,-1.25542
58529138533,-2.57393,1.40842,-1.25636
58529161705,-2.57393,1.40842,-1.25636
58529176072,-2.57424,1.40798,-1.25645
58529198616,-2.57424,1.40798,-1.25645
58529222202,-2.57424,1.40798,-1.25645
58529236091,-2.57424,1.40798,-1.25645
58529258591,-2.57424,1.40798,-1.25645
58529281692,-2.57424,1.40798,-1.25645
58529310298,-2.57494,1.40839,-1.25738
58529318588,-2.57525,1.40795,-1.25747
58529341764,-2.57525,1.40795,-1.25747
58529362714,-2.57525,1.40795,-1.25747
