timestamp,x,y,z,w
450529666429,0.229919,-0.489807,0.373352,0.753479
450529690152,0.232178,-0.490906,0.374268,0.751648
450529711523,0.234131,-0.492432,0.37439,0.75
450529726470,0.235718,-0.493408,0.375061,0.748535
450529750156,0.236206,-0.493164,0.37561,0.74823
450529771466,0.235352,-0.491821,0.375427,0.749451
450529810240,0.234619,-0.490417,0.374451,0.751099
450529819179,0.233643,-0.489197,0.372559,0.753174
450529832142,0.23291,-0.490112,0.369812,0.75415
450529847162,0.23175,-0.491089,0.366882,0.75531
450529870839,0.229858,-0.490967,0.364319,0.757202
450529892184,0.227905,-0.491699,0.361511,0.758667
450529939022,0.225891,-0.493591,0.357971,0.759705
450529939765,0.224854,-0.496521,0.354492,0.759705
450529951952,0.22406,-0.499939,0.351074,0.759338
450529966958,0.222473,-0.504089,0.346802,0.758972
450529989470,0.220947,-0.507996,0.342957,0.758606
450530012010,0.219849,-0.511841,0.339844,0.757751
450530026966,0.218262,-0.515625,0.336365,0.757141
450530049495,0.216675,-0.519226,0.33252,0.756897
450530071980,0.21521,-0.521423,0.329407,0.757141
450530087047,0.213379,-0.523132,0.326538,0.757751
450530109424,0.211365,-0.525085,0.323792,0.758118
450530132059,0.209839,-0.527466,0.321655,0.757751
450530146925,0.208801,-0.53064,0.319946,0.756592
450530169512,0.207886,-0.533997,0.318237,0.755188
450530191962,0.207275,-0.537231,0.316589,0.753723
450530207071,0.20697,-0.540466,0.315002,0.752136
450530229429,0.206909,-0.543152,0.313965,0.750671
450530251960,0.206848,-0.545898,0.313416,0.748962
450530267031,0.206543,-0.548828,0.312927,0.747131
450530289401,0.20636,-0.551453,0.312805,0.745239
450530311921,0.206482,-0.553589,0.31311,0.74353
450530326915,0.206604,-0.555664,0.312866,0.742004
450530349405,0.206726,-0.557861,0.312622,0.740417
450530371912,0.207031,-0.559692,0.313171,0.73877
450530386920,0.206848,-0.561096,0.314331,0.737244
450530409418,0.206482,-0.562561,0.31543,0.735779
450530431950,0.206421,-0.563477,0.316589,0.734558
450530446950,0.206604,-0.563904,0.317749,0.733704
450530469430,0.206604,-0.56427,0.318726,0.732971
450530491880,0.206543,-0.564636,0.319763,0.7323
450530506969,0.206787,-0.565125,0.321045,0.731262
450530529430,0.207153,-0.565918,0.322083,0.730103
450530552013,0.20752,-0.566711,0.322632,0.729126
450530566343,0.208008,-0.567139,0.323303,0.728333
450530589475,0.208313,-0.567383,0.32428,0.727661
450530611993,0.208313,-0.567871,0.325256,0.726868
450530626342,0.208313,-0.56842,0.325989,0.726074
450530649430,0.208313,-0.568542,0.326782,0.725586
450530671892,0.208069,-0.567932,0.327454,0.725891
450530686373,0.207458,-0.56665,0.327698,0.726929
450530709543,0.206665,-0.56488,0.327942,0.728455
450530732019,0.20575,-0.56311,0.328247,0.729919
450530746364,0.204773,-0.561279,0.328369,0.731506
450530769425,0.203796,-0.559448,0.328125,0.733276
450530791968,0.202881,-0.557556,0.327698,0.735168
450530806239,0.202026,-0.55542,0.327576,0.737122
450530829423,0.201416,-0.553406,0.327515,0.738831
450530851886,0.200745,-0.551575,0.327454,0.740356
450530866244,0.200317,-0.549683,0.327393,0.741943
450530889405,0.200073,-0.547729,0.327576,0.743347
450530911912,0.199951,-0.545837,0.327759,0.74469
450530927693,0.200073,-0.544373,0.32782,0.745728
450530950904,0.200378,-0.542786,0.327881,0.746765
450530971951,0.200867,-0.541016,0.328003,0.747864
450530987732,0.201172,-0.538818,0.328247,0.749268
450531010868,0.201233,-0.536133,0.328674,0.750977
450531031938,0.201233,-0.533264,0.329468,0.752686
450531047754,0.201294,-0.530273,0.330322,0.754395
450531070905,0.201416,-0.526733,0.331238,0.75647
450531092048,0.201721,-0.523193,0.331909,0.758545
450531107791,0.202209,-0.519836,0.332703,0.760376
450531130985,0.20282,-0.516785,0.333679,0.761841
450531152047,0.203369,-0.514038,0.334839,0.763062
450531167808,0.204224,-0.512146,0.335876,0.763611
450531190921,0.205383,-0.510925,0.336792,0.763733
450531211985,0.206726,-0.509888,0.337341,0.763794
450531227822,0.208252,-0.508972,0.337646,0.763916
450531250983,0.209961,-0.508545,0.337524,0.763733
450531272011,0.211426,-0.508057,0.337524,0.763672
450531287738,0.212219,-0.507324,0.337952,0.763733
450531310878,0.212524,-0.506897,0.338745,0.763611
450531331918,0.212341,-0.506042,0.339783,0.763733
450531347685,0.212524,-0.505371,0.340454,0.763855
450531370916,0.212463,-0.504517,0.339905,0.764648
450531391919,0.212708,-0.504089,0.338745,0.765381
450531407756,0.212891,-0.503662,0.338135,0.765869
450531430910,0.212463,-0.503418,0.338074,0.766235
450531451914,0.211731,-0.503296,0.338257,0.766418
450531467695,0.211182,-0.503235,0.33844,0.766479
450531490849,0.210938,-0.503357,0.338379,0.766541
450531512098,0.210876,-0.504272,0.337585,0.766296
450531527840,0.210938,-0.506226,0.336487,0.765503
450531558423,0.21106,-0.50885,0.335876,0.763977
450531572023,0.21106,-0.511963,0.335449,0.762085
450531587812,0.211182,-0.515991,0.334351,0.759827
450531610238,0.211243,-0.519348,0.332825,0.758179
450531633478,0.211304,-0.522095,0.331238,0.756958
450531647813,0.210754,-0.524048,0.330017,0.756287
450531670334,0.209595,-0.525024,0.329468,0.756165
450531693428,0.208435,-0.526001,0.329285,0.75592
450531707714,0.207275,-0.527283,0.328796,0.755554
450531730237,0.206299,-0.528564,0.327942,0.75531
450531753358,0.205811,-0.53064,0.326965,0.754395
450531767743,0.205261,-0.533508,0.326111,0.752869
450531790246,0.204773,-0.536926,0.325439,0.750916
450531813410,0.204468,-0.540344,0.325134,0.748657
450531827723,0.204102,-0.543701,0.324524,0.746582
450531850218,0.203857,-0.546509,0.324036,0.744812
450531873382,0.203491,-0.548706,0.323975,0.743286
450531894546,0.202881,-0.55072,0.323975,0.741943
450531910334,0.202393,-0.552612,0.324219,0.740601
450531933488,0.202148,-0.554565,0.324524,0.739075
450531947833,0.202087,-0.556946,0.324158,0.737427
450531970312,0.202271,-0.559082,0.323792,0.735962
450531993464,0.202271,-0.560486,0.323975,0.734802
450532014565,0.201843,-0.561401,0.324341,0.734009
450532030341,0.201233,-0.561646,0.325073,0.733765
450532053419,0.200806,-0.561768,0.325806,0.733398
450532067773,0.200317,-0.562195,0.326294,0.733032
450532090269,0.199951,-0.562378,0.326782,0.732727
450532113405,0.199768,-0.562378,0.327515,0.732483
450532134478,0.199524,-0.562805,0.327942,0.731995
450532150218,0.199463,-0.563599,0.328247,0.731323
450532173372,0.199463,-0.56366,0.328979,0.730957
450532194417,0.199097,-0.562805,0.329773,0.731323
450532210392,0.198425,-0.561829,0.330688,0.731873
450532233512,0.197693,-0.560608,0.331909,0.732422
450532254539,0.196655,-0.559021,0.333313,0.733276
450532270305,0.195496,-0.55719,0.334595,0.734375
450532293472,0.194458,-0.555481,0.335632,0.735474
450532314530,0.193604,-0.554199,0.336243,0.736389
450532330348,0.192688,-0.553223,0.336731,0.737183
450532353491,0.191467,-0.550781,0.337646,0.738831
450532374458,0.189941,-0.547058,0.339172,0.741333
450532390264,0.18811,-0.543457,0.340393,0.743896
450532413391,0.186218,-0.539673,0.34137,0.746643
450532434428,0.18512,-0.536621,0.342529,0.748596
450532450215,0.184265,-0.534302,0.34314,0.750183
450532472716,0.184204,-0.532959,0.342896,0.751282
450532494476,0.184753,-0.531433,0.342102,0.752563
450532510229,0.185791,-0.529968,0.340637,0.754028
450532532770,0.186646,-0.527649,0.339172,0.756104
450532555931,0.186951,-0.524597,0.33844,0.758484
450532570348,0.186646,-0.522095,0.338257,0.760376
450532592810,0.185974,-0.520203,0.338074,0.761841
450532615949,0.185486,-0.518921,0.337769,0.763
450532630307,0.184875,-0.517822,0.336609,0.764404
450532652863,0.184753,-0.518677,0.333923,0.765015
450532675974,0.185242,-0.520325,0.330688,0.765198
450532690320,0.186035,-0.522034,0.327271,0.76532
450532712825,0.185059,-0.520081,0.324524,0.768066
450532735992,0.182739,-0.515442,0.322998,0.772339
450532750291,0.179016,-0.509277,0.322998,0.777344
450532772770,0.17511,-0.504028,0.323547,0.781433
450532795946,0.17218,-0.500244,0.324036,0.784302
450532816950,0.170166,-0.498169,0.323364,0.786316
450532832773,0.168701,-0.498169,0.321167,0.787476
450532855913,0.168335,-0.501526,0.31781,0.786804
450532876978,0.168701,-0.507507,0.314331,0.784363
450532892741,0.168701,-0.512268,0.311096,0.782471
450532915908,0.168701,-0.517639,0.307312,0.780457
450532937025,0.167236,-0.523499,0.301514,0.779114
450532952767,0.165161,-0.529053,0.295166,0.778259
450532975978,0.163513,-0.533447,0.289307,0.777771
450532997052,0.160767,-0.53717,0.282227,0.778381
450533012836,0.156799,-0.539062,0.273621,0.780945
450533036011,0.153137,-0.541992,0.264465,0.782837
450533057092,0.148132,-0.539795,0.256348,0.788025
450533072864,0.141907,-0.532043,0.249451,0.79657
450533096002,0.135193,-0.529358,0.241089,0.802124
450533108847,0.128906,-0.532471,0.231812,0.803772
450533132034,0.126038,-0.541504,0.225342,0.800049
450533146349,0.122925,-0.546326,0.220154,0.798706
450533177675,0.118225,-0.547791,0.212036,0.800598
450533200127,0.11377,-0.548157,0.204224,0.802979
450533206315,0.110779,-0.5495,0.200745,0.803406
450533228837,0.108704,-0.557678,0.199097,0.798401
450533252003,0.10553,-0.56134,0.196716,0.796875
450533266372,0.102783,-0.558411,0.193848,0.799988
450533288876,0.101135,-0.558716,0.188904,0.801147
450533312049,0.0987549,-0.558411,0.184692,0.802673
450533326370,0.0991211,-0.561523,0.183044,0.800842
450533348901,0.0990601,-0.569153,0.179565,0.796204
450533372073,0.0977783,-0.574646,0.173157,0.793884
450533386390,0.0974731,-0.574036,0.171448,0.794739
450533408944,0.0949707,-0.570251,0.173096,0.797363
450533432066,0.088562,-0.565125,0.174561,0.801453
450533446416,0.0856934,-0.561646,0.177734,0.803467
450533468855,0.0859375,-0.557556,0.178345,0.806152
450533491735,0.0853271,-0.556519,0.171875,0.80835
450533506341,0.0844727,-0.558228,0.164917,0.808716
450533528776,0.0854492,-0.564026,0.163147,0.804932
450533551958,0.0862427,-0.571899,0.163452,0.799194
450533566322,0.0863037,-0.581665,0.15918,0.79303
450533588803,0.0872192,-0.587219,0.150574,0.790466
450533612017,0.0908203,-0.590759,0.143982,0.788696
450533626348,0.0929565,-0.588318,0.141296,0.79071
450533648823,0.0934448,-0.585571,0.137878,0.793335
450533671990,0.0931396,-0.582825,0.133057,0.796143
450533686358,0.0944214,-0.579468,0.127014,0.799438
450533708848,0.0970459,-0.582092,0.119751,0.798401
450533732027,0.0990601,-0.588623,0.108337,0.794983
450533746367,0.102051,-0.591736,0.09552,0.793884
450533768858,0.106201,-0.588379,0.0841675,0.797119
450533792062,0.10675,-0.584656,0.071106,0.801025
450533806333,0.103516,-0.582703,0.0595703,0.803833
450533828889,0.0998535,-0.584045,0.0549927,0.80365
450533852042,0.0944824,-0.588074,0.0526123,0.801514
450533866424,0.0861816,-0.593079,0.0458374,0.799194
450533888956,0.0791016,-0.59613,0.0369263,0.798096
450533912059,0.0748901,-0.596069,0.0297241,0.798889
450533926443,0.0692749,-0.59729,0.0214844,0.798767
450533957744,0.0614624,-0.595276,0.0133667,0.801025
450533972036,0.053894,-0.592224,0.00866699,0.803894
450533986422,0.0460205,-0.587097,0.00805664,0.808167
450534008892,0.0374756,-0.583923,0.00744629,0.810913
450534031995,0.0304565,-0.578979,0.00476074,0.814758
450534054463,0.0267334,-0.577637,0.00152588,0.815857
450534068812,0.0239258,-0.582214,-0.00213623,0.812683
450534092013,0.0210571,-0.590393,-0.00317383,0.806824
450534106322,0.0172119,-0.600464,-0.00115967,0.7995
450534128868,0.0133057,-0.608765,0.0020752,0.793213
450534152039,0.00976562,-0.615784,0.00335693,0.787842
450534166380,0.00634766,-0.624512,0.00292969,0.780945
450534197697,0.00183105,-0.632507,-0.00140381,0.774536
450534212082,-0.00640869,-0.640198,-0.00762939,0.768127
450534226467,-0.0178223,-0.639709,-0.0143433,0.76825
450534248961,-0.0290527,-0.634338,-0.0258789,0.772095
450534272038,-0.036438,-0.617737,-0.0357056,0.784729
450534286461,-0.0426636,-0.595276,-0.0476685,0.800964
450534308959,-0.0460815,-0.576233,-0.0593872,0.813782
450534332107,-0.048584,-0.561768,-0.0702515,0.822876
450534346415,-0.0519409,-0.55127,-0.0789185,0.828979
450534368808,-0.0524292,-0.547241,-0.0797729,0.831482
450534392064,-0.0484009,-0.557251,-0.0761719,0.825439
450534406405,-0.0501709,-0.58313,-0.0723877,0.807617
450534428971,-0.0550537,-0.600159,-0.0723877,0.794678
450534451449,-0.0608521,-0.61438,-0.0758057,0.78302
450534466414,-0.0629883,-0.626221,-0.0761719,0.773376
450534488920,-0.0664062,-0.630493,-0.0792847,0.769287
450534511518,-0.0714111,-0.631897,-0.0861206,0.766968
450534526415,-0.0759277,-0.628784,-0.0917969,0.768433
450534548914,-0.0779419,-0.625977,-0.092041,0.770508
450534571427,-0.0800781,-0.624146,-0.0891724,0.772095
450534586426,-0.0834351,-0.61499,-0.0930176,0.778564
450534608925,-0.0876465,-0.602173,-0.0996094,0.787292
450534631416,-0.0930176,-0.586121,-0.110779,0.797241
450534654559,-0.0974121,-0.575928,-0.124207,0.802124
450534668891,-0.101379,-0.570068,-0.132141,0.804565
450534691335,-0.106689,-0.569153,-0.137634,0.803589
450534706347,-0.10791,-0.570374,-0.131775,0.803528
450534728797,-0.105957,-0.57605,-0.119995,0.801575
450534751328,-0.105103,-0.586609,-0.112915,0.795044
450534766329,-0.0993652,-0.592346,-0.104553,0.792664
450534796999,-0.10022,-0.598572,-0.100769,0.788391
450534811392,-0.0983276,-0.595947,-0.100159,0.790649
450534826328,-0.0941162,-0.594971,-0.0896606,0.793152
450534848866,-0.0957031,-0.591797,-0.0912476,0.795166
450534879368,-0.0947266,-0.593079,-0.0908813,0.794373
450534889344,-0.0921021,-0.597534,-0.0839233,0.792114
450534908972,-0.0906372,-0.601196,-0.0791016,0.789978
450534931446,-0.0901489,-0.603821,-0.074707,0.788452
450534946420,-0.0881958,-0.601013,-0.072937,0.791016
450534968945,-0.088623,-0.597046,-0.0738525,0.793823
450534992824,-0.0905762,-0.592407,-0.0756836,0.796936
450535006411,-0.093689,-0.586182,-0.0795898,0.800781
450535029004,-0.0976562,-0.581055,-0.085144,0.803467
450535051465,-0.100464,-0.575806,-0.090332,0.806335
450535066504,-0.101868,-0.571716,-0.0950928,0.808533
450535088852,-0.102112,-0.570374,-0.09729,0.809143
450535111422,-0.100281,-0.572144,-0.0930176,0.808655
450535126415,-0.0980225,-0.575562,-0.085083,0.807373
450535148934,-0.0949707,-0.577332,-0.0773315,0.807251
450535171467,-0.0922852,-0.576416,-0.0719604,0.808777
450535186403,-0.0904541,-0.571716,-0.0702515,0.812378
450535208938,-0.0883179,-0.565674,-0.0706787,0.816833
450535231395,-0.0858154,-0.560791,-0.0718384,0.820374
450535246471,-0.0830078,-0.557495,-0.0731812,0.822754
450535269011,-0.0808716,-0.555603,-0.0739136,0.824219
450535291513,-0.0788574,-0.555359,-0.0726318,0.824646
450535307800,-0.076355,-0.553894,-0.071167,0.82605
450535328950,-0.0726318,-0.55188,-0.0678711,0.828003
450535351438,-0.0678101,-0.547607,-0.0621338,0.831665
450535367866,-0.0619507,-0.542114,-0.0541992,0.836243
450535388939,-0.0564575,-0.538086,-0.0452271,0.839783
450535411450,-0.0508423,-0.535217,-0.0354614,0.842407
450535427840,-0.0442505,-0.536987,-0.0280762,0.84198
450535448873,-0.0404053,-0.548828,-0.0223389,0.834656
450535471459,-0.0429688,-0.554504,-0.020813,0.830811
450535487913,-0.0509644,-0.556946,-0.0274658,0.828491
450535508865,-0.0574341,-0.559448,-0.0323486,0.826233
450535531437,-0.0637207,-0.560791,-0.036377,0.824707
450535547840,-0.0701904,-0.564514,-0.041748,0.82135
450535571817,-0.0740967,-0.566833,-0.0475464,0.819092
450535591413,-0.0756836,-0.567871,-0.0509033,0.818054
450535607813,-0.0759277,-0.565918,-0.052002,0.819336
450535628842,-0.0756226,-0.564758,-0.0521851,0.820129
450535651397,-0.0741577,-0.566772,-0.0487671,0.819092
450535667837,-0.0742188,-0.569336,-0.0460815,0.817444
450535688955,-0.0754395,-0.571045,-0.0455933,0.816162
450535719640,-0.0761719,-0.570374,-0.0448608,0.81665
450535727875,-0.0762939,-0.571228,-0.0441895,0.81604
450535748971,-0.0759888,-0.571838,-0.0447998,0.815613
450535765365,-0.0753174,-0.57251,-0.0463257,0.815125
450535787903,-0.0753784,-0.572144,-0.0477905,0.815308
450535808942,-0.0759277,-0.570374,-0.0487671,0.816406
450535826864,-0.0761719,-0.568298,-0.048584,0.817871
450535849334,-0.0756836,-0.566345,-0.0476685,0.819275
450535869001,-0.0751343,-0.564758,-0.0473022,0.820496
450535885436,-0.0751343,-0.563477,-0.0482788,0.821289
450535907946,-0.0753174,-0.562927,-0.0496216,0.821533
450535928963,-0.0756836,-0.5625,-0.0510864,0.821716
450535945407,-0.0759888,-0.562561,-0.0526123,0.821594
450535967880,-0.0759888,-0.562256,-0.0534058,0.821716
450535988965,-0.0751953,-0.562195,-0.0529175,0.821899
450536005561,-0.0747681,-0.562744,-0.0521851,0.821594
450536027910,-0.0745239,-0.564209,-0.0518188,0.820618
450536048946,-0.0739136,-0.565918,-0.0516968,0.819519
450536065368,-0.0734863,-0.567017,-0.052063,0.818787
450536087910,-0.0734863,-0.566956,-0.0527344,0.818726
450536108912,-0.0741577,-0.565979,-0.0535889,0.819336
450536125367,-0.0750122,-0.564758,-0.053833,0.820068
450536147881,-0.0758667,-0.563721,-0.0541382,0.820679
450536168966,-0.0762329,-0.563416,-0.0548096,0.820801
450536185307,-0.0759277,-0.563293,-0.0556641,0.820862
450536207942,-0.0755005,-0.563049,-0.0570068,0.820984
450536228957,-0.0755615,-0.562256,-0.0588379,0.82135
450536245339,-0.0759277,-0.560547,-0.0601196,0.822449
450536267880,-0.0754395,-0.558838,-0.0604248,0.823608
450536290471,-0.0740967,-0.558167,-0.0596313,0.82428
450536312866,-0.0718384,-0.558228,-0.0576172,0.824524
450536327929,-0.0697632,-0.559204,-0.055542,0.824219
450536350355,-0.0686646,-0.560486,-0.0540771,0.823547
450536366820,-0.0685425,-0.560913,-0.0540161,0.823242
450536387863,-0.0692139,-0.560791,-0.0548096,0.823242
450536410386,-0.0700073,-0.559998,-0.0561523,0.823608
450536426806,-0.0698853,-0.558655,-0.0567017,0.824463
450536447932,-0.0684814,-0.5578,-0.0552979,0.825256
450536470427,-0.0663452,-0.557678,-0.052002,0.825745
450536491478,-0.0640869,-0.557922,-0.0484009,0.825989
450536507883,-0.0625,-0.558411,-0.0455933,0.825928
450536530428,-0.0612183,-0.559265,-0.0432739,0.825623
450536551486,-0.0601196,-0.559326,-0.041687,0.825684
450536567887,-0.0595703,-0.559326,-0.0407715,0.825806
450536590408,-0.0594482,-0.559387,-0.0402222,0.825806
450536606842,-0.0595703,-0.559937,-0.0395508,0.825439
450536635421,-0.0594482,-0.56134,-0.0393066,0.824524
450536649640,-0.059082,-0.562683,-0.0393677,0.823608
450536672043,-0.0585938,-0.562927,-0.039917,0.823486
450536687057,-0.0585327,-0.561951,-0.0404663,0.824097
450536709619,-0.0586548,-0.560791,-0.0404663,0.82489
450536732043,-0.0588379,-0.560364,-0.0402222,0.825195
450536747106,-0.0592651,-0.561035,-0.0403442,0.824707
450536769748,-0.0592041,-0.562439,-0.0404663,0.82373
450536792151,-0.0585938,-0.563293,-0.0405273,0.823181
450536807183,-0.0578613,-0.563171,-0.0405884,0.823303
450536831055,-0.057373,-0.562683,-0.0405273,0.823669
450536852132,-0.0569458,-0.562317,-0.0396729,0.823975
450536867013,-0.0563354,-0.562195,-0.038147,0.824219
450536891109,-0.0557251,-0.562378,-0.0372314,0.824158
450536912106,-0.0547485,-0.562561,-0.0372925,0.824097
450536927133,-0.0540771,-0.562439,-0.0380859,0.824158
450536949753,-0.0537109,-0.561218,-0.0385132,0.825012
450536972116,-0.0532227,-0.562256,-0.0379639,0.824402
450536988585,-0.0499878,-0.561462,-0.0353394,0.825256
450537009512,-0.0487061,-0.56012,-0.0344849,0.826233
450537032051,-0.0482178,-0.559509,-0.034729,0.82666
450537047104,-0.0478516,-0.558105,-0.0355225,0.827637
450537069643,-0.0476685,-0.559509,-0.0360718,0.82666
450537092104,-0.0473022,-0.560242,-0.0361938,0.826172
450537107120,-0.046814,-0.561096,-0.0361328,0.825623
450537129663,-0.0458984,-0.56073,-0.0350952,0.825989
450537152094,-0.0447998,-0.559937,-0.0336914,0.82666
450537167111,-0.0437622,-0.559998,-0.0321655,0.826721
450537189616,-0.0425415,-0.559937,-0.0304565,0.826904
450537212052,-0.0408936,-0.560852,-0.0290527,0.826416
450537227091,-0.0390015,-0.560486,-0.0275269,0.826782
450537249651,-0.0386963,-0.559875,-0.0274658,0.827209
450537273481,-0.0390015,-0.55896,-0.0268555,0.82782
450537287023,-0.0394287,-0.55658,-0.0263672,0.829407
450537309599,-0.0393677,-0.555847,-0.0249634,0.829956
450537325408,-0.0386963,-0.55481,-0.0233154,0.83075
450537348643,-0.0380859,-0.555542,-0.0217285,0.830322
450537369639,-0.0377808,-0.556335,-0.0201416,0.829834
450537385386,-0.0383301,-0.557068,-0.0188599,0.829346
450537408515,-0.0390015,-0.557007,-0.0175781,0.829407
450537429562,-0.0391846,-0.556274,-0.0160522,0.829895
450537445381,-0.0389404,-0.555298,-0.0150146,0.830566
450537468625,-0.0391846,-0.553894,-0.015625,0.831543
450537489343,-0.0396118,-0.552673,-0.0167847,0.832275
450537505407,-0.0401001,-0.551819,-0.0181885,0.832825
450537528616,-0.0396729,-0.552002,-0.0180054,0.832703
450537549656,-0.0385742,-0.552185,-0.0172119,0.832642
450537573500,-0.0376587,-0.552185,-0.0172119,0.832703
450537588597,-0.0372314,-0.55188,-0.0178223,0.832886
450537609601,-0.036499,-0.551819,-0.0181885,0.832947
450537625345,-0.0356445,-0.552429,-0.0178223,0.832581
450537648504,-0.0341797,-0.552856,-0.0174561,0.832397
450537669556,-0.0321655,-0.553467,-0.0166626,0.832031
450537685368,-0.0299683,-0.554199,-0.0154419,0.831665
450537708598,-0.0279541,-0.555786,-0.0137329,0.83075
450537729690,-0.026123,-0.558472,-0.012085,0.828979
450537752061,-0.0244751,-0.56189,-0.0106812,0.826782
450537768619,-0.0234375,-0.564819,-0.00964355,0.824829
450537789655,-0.0222168,-0.56665,-0.0078125,0.823608
450537812071,-0.0201416,-0.567383,-0.00476074,0.823181
450537828527,-0.0175781,-0.567688,-0.000183105,0.823059
450537849655,-0.0151978,-0.567627,0.00341797,0.82312
450537872115,-0.0133667,-0.567383,0.00531006,0.823303
450537888652,-0.0122681,-0.567322,0.00592041,0.823364
450537909646,-0.0116577,-0.567688,0.00604248,0.82312
450537932104,-0.0111084,-0.567139,0.00598145,0.823486
450537956087,-0.00982666,-0.566101,0.00708008,0.824219
450537969659,-0.00793457,-0.564819,0.00933838,0.825134
450537992141,-0.00537109,-0.56427,0.0124512,0.8255
450538008631,-0.00286865,-0.564636,0.0158691,0.825195
450538029654,-0.00177002,-0.565674,0.0177002,0.824463
450538052122,-0.00250244,-0.566895,0.0175171,0.823547
450538068605,-0.00408936,-0.568298,0.015564,0.822693
450538089573,-0.00549316,-0.569397,0.0131836,0.82196
450538105398,-0.00592041,-0.570496,0.0114746,0.821228
450538127879,-0.00543213,-0.570862,0.0111694,0.820923
450538149633,-0.00476074,-0.570496,0.0114746,0.821228
450538165369,-0.0043335,-0.57019,0.0115967,0.821411
450538196061,-0.00390625,-0.570068,0.0124512,0.821472
450538210984,-0.00366211,-0.57074,0.0133667,0.820984
450538225388,-0.003479,-0.571838,0.0146484,0.820251
450538247899,-0.003479,-0.572815,0.0161133,0.819519
450538271075,-0.00323486,-0.574341,0.0177002,0.81842
450538285368,-0.00274658,-0.57605,0.0196533,0.8172
450538307917,-0.00164795,-0.578064,0.0217896,0.815674
450538331019,0,-0.580261,0.0246582,0.814026
450538352146,0.00134277,-0.582397,0.0280762,0.812439
450538367979,0.00231934,-0.583313,0.0316772,0.811584
450538391138,0.00378418,-0.582947,0.0354004,0.811707
450538412755,0.00604248,-0.581177,0.0388794,0.812805
450538427967,0.0078125,-0.577942,0.0410767,0.815002
450538451135,0.00842285,-0.574341,0.0414429,0.817505
450538465381,0.00805664,-0.572021,0.041626,0.819153
450538496040,0.00714111,-0.57196,0.0420532,0.819153
450538517121,0.00665283,-0.573792,0.043335,0.81781
450538532090,0.00732422,-0.575134,0.0455933,0.816772
450538547874,0.00933838,-0.575378,0.0493164,0.816345
450538571049,0.0115356,-0.575134,0.0541992,0.816162
450538592084,0.0153809,-0.575439,0.0609131,0.81543
450538616147,0.0203247,-0.574158,0.0678101,0.815674
450538639074,0.0249023,-0.572266,0.0734863,0.816406
450538659749,0.0289307,-0.571045,0.0795288,0.816528
450538667978,0.0310059,-0.569397,0.085144,0.817017
450538691079,0.0327148,-0.568298,0.0896606,0.817261
450538712184,0.0351562,-0.567139,0.0939941,0.817505
450538727914,0.0377808,-0.564697,0.0975952,0.818604
450538751633,0.0394897,-0.561523,0.0994263,0.820496
450538773630,0.0407104,-0.558594,0.100647,0.822266
450538796100,0.0421143,-0.557556,0.102905,0.822632
450538818599,0.0442505,-0.557739,0.10614,0.82196
450538832184,0.0464478,-0.556519,0.109436,0.822266
450538847925,0.0470581,-0.55426,0.108948,0.823792
450538871110,0.0464478,-0.551147,0.105713,0.826355
450538892193,0.0448608,-0.548828,0.101624,0.828491
450538907986,0.0437012,-0.548889,0.0988159,0.828857
450538931134,0.0432129,-0.550598,0.0980225,0.827881
450538952168,0.0443726,-0.552429,0.0999756,0.826355
450538976160,0.0467529,-0.551819,0.103516,0.826172
450538991107,0.0487671,-0.549561,0.105347,0.827332
450539012200,0.0494385,-0.548645,0.10498,0.827942
450539027916,0.0496826,-0.548767,0.104492,0.827881
450539051125,0.0507202,-0.548279,0.104858,0.828125
450539072161,0.052063,-0.547363,0.104919,0.828674
450539087985,0.0524292,-0.546387,0.104065,0.829346
450539110444,0.0523071,-0.546021,0.103455,0.829712
450539132186,0.0509644,-0.546082,0.102539,0.829834
450539147988,0.0490723,-0.54718,0.100281,0.829529
450539170468,0.0477905,-0.547852,0.0975342,0.829468
450539192184,0.0478516,-0.547668,0.0942993,0.829956
450539207985,0.0470581,-0.546753,0.0905151,0.831055
450539230473,0.0453491,-0.545837,0.0872192,0.832092
450539253643,0.0441284,-0.544861,0.0859985,0.832947
450539267962,0.0444946,-0.544861,0.0866089,0.832825
450539290428,0.0465088,-0.545227,0.0891113,0.832214
450539313706,0.0489502,-0.545837,0.092041,0.83136
450539327945,0.0504761,-0.54718,0.0945435,0.830139
450539350447,0.0510864,-0.549316,0.0965576,0.82843
450539373647,0.0513916,-0.551819,0.0977783,0.826599
450539387968,0.0516968,-0.552673,0.0993042,0.825806
450539410427,0.0516357,-0.550659,0.100647,0.826965
450539433670,0.0514526,-0.546692,0.101929,0.829529
450539448032,0.0513306,-0.543457,0.103394,0.831421
450539470437,0.0513306,-0.54187,0.104736,0.832275
450539493649,0.0513306,-0.541992,0.105896,0.832092
450539514685,0.0524292,-0.542114,0.107178,0.831787
450539530433,0.0543213,-0.543213,0.108643,0.83075
450539553683,0.055542,-0.544434,0.110474,0.82959
450539576161,0.055481,-0.545227,0.110291,0.829163
450539590460,0.0543823,-0.545471,0.108582,0.829285
450539613700,0.0531006,-0.545898,0.106445,0.829346
450539627926,0.0521851,-0.546936,0.104187,0.829041
450539650542,0.0517578,-0.548767,0.102173,0.828064
450539673645,0.0513306,-0.549255,0.0999146,0.828064
450539687979,0.0510254,-0.547974,0.0983887,0.829102
450539710483,0.0500488,-0.546204,0.0966797,0.830566
450539733614,0.0483398,-0.543579,0.0951538,0.83252
450539754719,0.0460205,-0.54187,0.0928345,0.834045
450539770471,0.043457,-0.541443,0.0892944,0.834839
450539793651,0.0411377,-0.542908,0.0852051,0.834412
450539814638,0.0388794,-0.544067,0.0819702,0.834106
450539830395,0.036499,-0.545349,0.0792236,0.833679
450539853593,0.03479,-0.546814,0.0776367,0.832886
450539874648,0.0346069,-0.548401,0.0782471,0.831848
450539898599,0.0358276,-0.550049,0.0800781,0.830505
450539913647,0.0366211,-0.550415,0.0810547,0.830139
450539934735,0.036499,-0.55072,0.0804443,0.829956
450539950492,0.0357056,-0.551208,0.079895,0.829773
450539973686,0.03479,-0.551636,0.0799561,0.829468
450539994695,0.0344849,-0.552795,0.0809937,0.828613
450540010517,0.0345459,-0.553711,0.0820312,0.827881
450540033005,0.0348511,-0.554871,0.0830688,0.827026
450540054763,0.0352783,-0.555908,0.0834961,0.826233
450540070542,0.0351562,-0.556702,0.083313,0.825745
450540092999,0.03479,-0.557617,0.0831909,0.825134
450540114759,0.0358276,-0.559875,0.0853271,0.823364
450540130516,0.0374146,-0.563232,0.0890503,0.820618
450540153014,0.0383301,-0.56781,0.0909424,0.8172
450540176090,0.0378418,-0.572998,0.0899048,0.813721
450540190433,0.036438,-0.577332,0.0881348,0.810913
450540204034,0.0352783,-0.580933,0.0869141,0.808472
450540226536,0.0342407,-0.583496,0.0866699,0.806763
450540249683,0.0317383,-0.585754,0.0858765,0.805298
450540264013,0.0280151,-0.587463,0.0830688,0.804504
450540286546,0.0244141,-0.589417,0.0802612,0.803467
450540309719,0.0222778,-0.59259,0.0794678,0.80127
450540324053,0.0222778,-0.596619,0.0825195,0.797974
450540346559,0.0216064,-0.601562,0.0853271,0.793945
450540369757,0.0192261,-0.60791,0.0847168,0.789246
450540384096,0.0167847,-0.616089,0.0836792,0.78302
450540406517,0.0145874,-0.624939,0.0834961,0.776062
450540429708,0.012146,-0.633179,0.0835571,0.769409
450540444046,0.00982666,-0.641296,0.085144,0.762451
450540466554,0.00811768,-0.651062,0.0892334,0.753723
450540489697,0.0067749,-0.662598,0.0953979,0.742859
450540504027,0.00469971,-0.67395,0.100891,0.731873
450540526577,0.00244141,-0.683533,0.104797,0.722351
450540549703,6.10352e-05,-0.692688,0.107056,0.713257
450540564036,-0.003479,-0.701294,0.105591,0.705017
450540588007,-0.0088501,-0.707642,0.0999756,0.699402
450540609695,-0.0157471,-0.713135,0.0917358,0.694824
450540624096,-0.0224609,-0.718689,0.0839844,0.68988
450540646610,-0.0280762,-0.723877,0.0761108,0.685181
450540669744,-0.0333862,-0.729553,0.0664673,0.679871
450540684094,-0.0390625,-0.735352,0.053894,0.674438
450540706557,-0.0438232,-0.741699,0.0435791,0.667908
450540729704,-0.0467529,-0.748535,0.0397339,0.660278
450540744072,-0.0481567,-0.755127,0.0388794,0.65271
450540766552,-0.0509033,-0.759766,0.0356445,0.647217
450540789819,-0.0541992,-0.764709,0.0310059,0.641357
450540804011,-0.0560913,-0.769958,0.0292358,0.634949
450540826553,-0.0565186,-0.775208,0.0292969,0.62854
450540849686,-0.0557251,-0.779724,0.0280762,0.622986
450540864074,-0.0559692,-0.783325,0.0238037,0.618652
450540886576,-0.057312,-0.787354,0.0197144,0.613525
450540909687,-0.0584106,-0.79187,0.0197754,0.607544
450540924078,-0.0578003,-0.795532,0.0206909,0.602783
450540946561,-0.0568237,-0.797607,0.0177002,0.60022
450540969853,-0.055603,-0.798645,0.0123291,0.599121
450540992215,-0.0539551,-0.799866,0.00787354,0.597717
450541006517,-0.0523071,-0.801697,0.00390625,0.595459
450541029623,-0.0504761,-0.803711,-0.0010376,0.592896
450541043989,-0.0479126,-0.805115,-0.00213623,0.591187
450541066459,-0.0448608,-0.805908,0.00427246,0.590271
450541088967,-0.0419312,-0.807068,0.0147095,0.588745
450541103976,-0.0400391,-0.807251,0.0246582,0.588318
450541126495,-0.0390015,-0.808167,0.0314331,0.586792
450541148975,-0.0370483,-0.808716,0.0380249,0.585876
450541163962,-0.0341797,-0.809937,0.0462036,0.583679
450541186509,-0.0328979,-0.811035,0.0476685,0.582092
450541209025,-0.0322266,-0.812927,0.0455933,0.579712
450541223975,-0.0314331,-0.815247,0.0462036,0.576416
450541246563,-0.0314941,-0.817993,0.0526123,0.57196
450541269088,-0.0319214,-0.819763,0.0566406,0.569031
450541284071,-0.0316772,-0.821838,0.0563965,0.56604
450541306556,-0.0302734,-0.822937,0.0570679,0.564453
450541329025,-0.0292358,-0.823608,0.0568848,0.563538
450541344098,-0.0301514,-0.823914,0.0517578,0.563538
450541366656,-0.0317993,-0.82312,0.0409546,0.565552
450541389089,-0.0331421,-0.82251,0.0304565,0.567017
450541404087,-0.034729,-0.820923,0.020752,0.569641
450541426615,-0.0377197,-0.819031,0.0103149,0.572449
450541449095,-0.0396118,-0.817383,0.000488281,0.574707
450541464072,-0.0385742,-0.815979,-0.00140381,0.576843
450541486588,-0.0379028,-0.81543,0.000915527,0.577576
450541509039,-0.0395508,-0.814209,-0.00238037,0.579224
450541524113,-0.0415039,-0.812195,-0.00622559,0.581909
450541546583,-0.041626,-0.812134,-0.00463867,0.58197
450541570492,-0.041687,-0.812927,-0.00189209,0.580872
450541584103,-0.0427856,-0.81366,-0.0078125,0.579773
450541606566,-0.0428467,-0.812378,-0.0172119,0.581299
450541629033,-0.0413818,-0.812012,-0.0203247,0.581848
450541644039,-0.039856,-0.813049,-0.0140991,0.580688
450541666528,-0.0394287,-0.815491,-0.00732422,0.577393
450541689095,-0.0413818,-0.817261,-0.00793457,0.574707
450541704089,-0.0437622,-0.818115,-0.0143433,0.573181
450541726629,-0.0440063,-0.817139,-0.0236816,0.574341
450541749125,-0.043335,-0.814026,-0.0345459,0.578186
450541764020,-0.0425415,-0.810425,-0.0421753,0.582825
450541786611,-0.0413818,-0.806641,-0.0402832,0.588196
450541809098,-0.0405273,-0.802307,-0.0276489,0.59491
450541824097,-0.0403442,-0.798706,-0.0153198,0.600159
450541846600,-0.0393677,-0.796265,-0.00732422,0.603638
450541869024,-0.0377808,-0.797852,-0.00671387,0.601624
450541884126,-0.0361328,-0.801575,-0.00958252,0.596741
450541906592,-0.03479,-0.805603,-0.0109253,0.59137
450541929091,-0.0343018,-0.806335,-0.0103149,0.590332
450541945536,-0.0345459,-0.803894,-0.00927734,0.59375
450541967972,-0.0338745,-0.800842,-0.00842285,0.597839
450541989123,-0.0319824,-0.799744,-0.00372314,0.599487
450542012270,-0.0307007,-0.799866,0.000732422,0.599426
450542026589,-0.031189,-0.799927,0.000244141,0.599304
450542049121,-0.0323486,-0.799377,-0.00238037,0.599915
450542065476,-0.0324097,-0.80011,-0.00213623,0.598999
450542086647,-0.0324097,-0.801697,0.000915527,0.596863
450542109087,-0.0335083,-0.803223,0.00189209,0.594788
450542125534,-0.0355835,-0.802795,0.000305176,0.595215
450542146540,-0.0369263,-0.801147,-0.00140381,0.597351
450542169016,-0.0370483,-0.799194,-0.0012207,0.599915
450542185462,-0.0366211,-0.798035,-0.000793457,0.601501
450542206480,-0.0359497,-0.797485,-0.000793457,0.602295
450542229091,-0.0357056,-0.798035,-0.00140381,0.601562
450542245574,-0.0354614,-0.79834,-0.00280762,0.601135
450542266604,-0.034729,-0.798523,-0.00463867,0.600952
450542290544,-0.0337524,-0.799133,-0.00744629,0.600159
450542305536,-0.0334473,-0.80072,-0.00982666,0.598022
450542326537,-0.0346069,-0.803101,-0.00970459,0.594788
450542349098,-0.0368652,-0.805908,-0.00592041,0.590881
450542365520,-0.0390625,-0.808716,-0.00183105,0.586914
450542386532,-0.0403442,-0.811096,6.10352e-05,0.583496
450542417322,-0.0396729,-0.811951,-0.000915527,0.582397
450542425507,-0.038269,-0.810913,-0.00592041,0.583862
450542446589,-0.0377808,-0.808655,-0.013855,0.586914
450542477244,-0.0383911,-0.805908,-0.0198975,0.590454
450542485534,-0.0401001,-0.803101,-0.022644,0.594055
450542506632,-0.0410156,-0.801697,-0.0220947,0.595886
450542529071,-0.0404663,-0.802124,-0.0203247,0.595398
450542545530,-0.0391846,-0.804321,-0.0169678,0.592712
450542566603,-0.0385742,-0.807068,-0.0130615,0.58905
450542589094,-0.0388184,-0.808777,-0.0103149,0.586792
450542605565,-0.0394287,-0.80835,-0.00958252,0.58728
450542626558,-0.0397339,-0.806335,-0.010437,0.590088
450542649110,-0.0397949,-0.803467,-0.0113525,0.593933
450542665526,-0.0396118,-0.801208,-0.0125122,0.596985
450542686620,-0.0388794,-0.799805,-0.0129395,0.598877
450542709060,-0.0380249,-0.798584,-0.013916,0.600586
450542725471,-0.0377197,-0.797791,-0.0149536,0.601562
450542746617,-0.0383911,-0.797546,-0.0153809,0.601807
450542769033,-0.0394897,-0.797729,-0.0148926,0.601562
450542785572,-0.0402832,-0.797791,-0.0147095,0.60144
450542806594,-0.0401001,-0.797852,-0.0148315,0.601379
450542829094,-0.0393677,-0.798706,-0.0139771,0.600281
450542845519,-0.0389404,-0.799866,-0.0124512,0.598816
450542866586,-0.0391235,-0.800842,-0.0108643,0.597534
450542889130,-0.0394897,-0.800964,-0.00970459,0.597351
450542905510,-0.0400391,-0.80011,-0.0098877,0.598389
450542928075,-0.0406494,-0.799561,-0.0113525,0.599121
450542949016,-0.0414429,-0.799805,-0.0125732,0.598755
450542965497,-0.0423584,-0.800598,-0.0134888,0.597534
450542988036,-0.0430298,-0.801147,-0.0140991,0.596802
450543009171,-0.043335,-0.801575,-0.0146484,0.59613
450543025562,-0.0435791,-0.802734,-0.0133667,0.594604
450543048083,-0.0440063,-0.804871,-0.0108643,0.591736
450543069151,-0.0444336,-0.806824,-0.00787354,0.589111
450543085594,-0.0447388,-0.807678,-0.00695801,0.587891
450543108144,-0.0438843,-0.807007,-0.00732422,0.588867
450543129146,-0.0421143,-0.80603,-0.00775146,0.590393
450543145614,-0.0401001,-0.806213,-0.00775146,0.590271
450543168084,-0.0390625,-0.805603,-0.00805664,0.591064
450543189131,-0.0391846,-0.805481,-0.00695801,0.591309
450543213035,-0.0400391,-0.804626,-0.00305176,0.592407
450543235503,-0.0408936,-0.803223,-6.10352e-05,0.594299
450543249032,-0.0414429,-0.801392,0.00140381,0.59668
450543265513,-0.041626,-0.799683,0.000732422,0.598999
450543288055,-0.0411377,-0.797791,-0.00158691,0.601562
450543309142,-0.0403442,-0.795837,-0.000854492,0.604187
450543325488,-0.0400391,-0.793396,0.00592041,0.607361
450543354085,-0.0390015,-0.788879,0.0195312,0.613037
450543369127,-0.0358887,-0.782043,0.0380859,0.621033
450543385568,-0.0328979,-0.779785,0.0586548,0.622375
450543408018,-0.0285034,-0.773621,0.0877075,0.626892
450543429064,-0.020874,-0.768799,0.120728,0.627625
450543445514,-0.0109863,-0.768738,0.15387,0.620728
450543468016,-0.0010376,-0.764221,0.176147,0.620422
450543489110,0.0123291,-0.755249,0.200439,0.623962
450543505502,0.0275879,-0.749146,0.223633,0.622864
450543528055,0.0456543,-0.741882,0.248535,0.621094
450543549103,0.0585327,-0.730408,0.263489,0.627441
450543565535,0.0715332,-0.711853,0.279236,0.640442
450543588001,0.0842896,-0.683044,0.298279,0.661316
450543609145,0.0935059,-0.652649,0.307007,0.68634
450543625534,0.102844,-0.620728,0.312988,0.711426
450543648106,0.112854,-0.588989,0.317993,0.734314
450543669145,0.121521,-0.56366,0.316162,0.753357
450543685507,0.13208,-0.54187,0.313782,0.768433
450543708079,0.14447,-0.523254,0.309143,0.780823
450543729138,0.155273,-0.509644,0.300171,0.791199
450543745549,0.166626,-0.497375,0.29187,0.799744
450543768692,0.176636,-0.486572,0.285095,0.806702
450543789788,0.183411,-0.476501,0.276306,0.814209
450543812283,0.189331,-0.466309,0.266541,0.82196
450543827243,0.194031,-0.45459,0.25708,0.830383
450543849778,0.196716,-0.437439,0.245361,0.842407
450543864719,0.198364,-0.419556,0.232056,0.854858
450543887239,0.198792,-0.39978,0.21759,0.86792
450543909786,0.197266,-0.380554,0.202332,0.880493
450543925422,0.195007,-0.362183,0.189636,0.891479
450543947294,0.192017,-0.345764,0.178101,0.901001
450543977290,0.187134,-0.335571,0.168396,0.907715
450543993691,0.178223,-0.320679,0.159851,0.916382
450544007272,0.174133,-0.317749,0.15094,0.919739
450544029747,0.170654,-0.318176,0.143005,0.921509
450544046208,0.167603,-0.320312,0.137024,0.922241
450544067339,0.16449,-0.323242,0.132324,0.922424
450544089790,0.162048,-0.325745,0.129211,0.922424
450544106247,0.160461,-0.328491,0.126221,0.92218
450544127356,0.158997,-0.33136,0.12384,0.921692
450544157287,0.158325,-0.333923,0.122742,0.921021
450544166236,0.158203,-0.33728,0.123596,0.919739
450544187243,0.157959,-0.34082,0.126465,0.918091
450544209768,0.158142,-0.345032,0.131042,0.915833
450544226251,0.159119,-0.351257,0.13739,0.912354
450544247294,0.160706,-0.360352,0.144531,0.90741
450544269766,0.162903,-0.372498,0.151855,0.900879
450544286269,0.165344,-0.385559,0.160034,0.893494
450544307262,0.167175,-0.399292,0.169617,0.885315
450544329762,0.167847,-0.412476,0.180847,0.876892
450544346272,0.167847,-0.425781,0.193665,0.867737
450544367295,0.167664,-0.439575,0.206543,0.85791
450544389730,0.166748,-0.453308,0.218445,0.8479
450544406154,0.165283,-0.464478,0.230225,0.838989
450544427166,0.163147,-0.474915,0.241638,0.830261
450544449705,0.160461,-0.486267,0.253113,0.820801
450544466186,0.157593,-0.498962,0.264282,0.81012
450544487221,0.154297,-0.511841,0.275146,0.799011
450544509692,0.150269,-0.526123,0.2854,0.786804
450544526191,0.144958,-0.540527,0.295349,0.774292
450544547236,0.138977,-0.555603,0.305847,0.760498
450544569745,0.133118,-0.569214,0.314514,0.747864
450544592311,0.126587,-0.582336,0.320557,0.736267
450544607275,0.120178,-0.595276,0.324951,0.724976
450544629819,0.113647,-0.608215,0.328308,0.713684
450544646205,0.106628,-0.620911,0.329773,0.703064
450544667320,0.0993652,-0.632751,0.329346,0.693726
450544689825,0.0921631,-0.643127,0.327698,0.685913
450544706273,0.0844116,-0.6521,0.325012,0.679688
450544727262,0.0764771,-0.660767,0.321777,0.673767
450544749764,0.0688477,-0.669434,0.317566,0.66803
450544765532,0.0621948,-0.679382,0.312073,0.661194
450544787230,0.0568848,-0.690002,0.305237,0.653809
450544809789,0.0526733,-0.701355,0.29657,0.645996
450544833755,0.0483398,-0.71167,0.286194,0.639709
450544856307,0.0439453,-0.721191,0.275024,0.634277
450544877345,0.0396118,-0.730103,0.263367,0.629272
450544885713,0.0354614,-0.738464,0.250488,0.625
450544908762,0.0313721,-0.745361,0.236511,0.622498
450544929829,0.0274658,-0.749939,0.221985,0.622559
450544945561,0.0239258,-0.75354,0.207031,0.623474
450544968714,0.020813,-0.756348,0.191772,0.625061
450544989833,0.0180054,-0.758301,0.176941,0.627197
450545005567,0.0152588,-0.759705,0.162598,0.629456
450545028732,0.0126953,-0.760132,0.148682,0.632385
450545049846,0.0106201,-0.759094,0.135803,0.636597
450545065679,0.00915527,-0.756714,0.123535,0.641846
450545088722,0.00836182,-0.752258,0.111816,0.649231
450545109747,0.00830078,-0.745239,0.101624,0.658936
450545125604,0.00866699,-0.736511,0.0930786,0.669983
450545148475,0.00909424,-0.725708,0.0861206,0.682495
450545169760,0.00994873,-0.712891,0.0814819,0.696472
450545185685,0.0112915,-0.698792,0.0790405,0.710815
450545208778,0.0136719,-0.684509,0.0778198,0.724731
450545229852,0.0175171,-0.669312,0.0784912,0.738586
450545245647,0.022644,-0.65387,0.0808105,0.751892
450545268718,0.0286255,-0.638916,0.0844727,0.764099
450545289817,0.0358887,-0.623718,0.0903931,0.775574
450545305585,0.0440674,-0.608154,0.0982056,0.786499
450545328741,0.0529785,-0.592529,0.107178,0.796631
450545349770,0.0632324,-0.577026,0.117493,0.805725
450545365682,0.0744019,-0.561035,0.128418,0.814392
450545388753,0.0863647,-0.543396,0.139648,0.823242
450545409772,0.0991211,-0.525208,0.151428,0.831482
450545425537,0.112427,-0.506104,0.16333,0.839355
450545448688,0.126343,-0.485779,0.175049,0.846985
450545469850,0.140625,-0.46405,0.185913,0.854553
450545485685,0.154846,-0.442688,0.195679,0.861206
450545508727,0.168884,-0.423157,0.204651,0.866333
450545529804,0.183411,-0.406311,0.213257,0.869324
450545545615,0.19751,-0.391907,0.220886,0.870911
450545568712,0.209473,-0.382202,0.228088,0.870605
450545589839,0.221313,-0.374268,0.234497,0.869446
450545606054,0.232178,-0.367737,0.239868,0.86792
450545628784,0.241821,-0.361816,0.244568,0.866455
450545649810,0.250061,-0.355286,0.24884,0.865601
450545665686,0.256653,-0.348938,0.252502,0.865173
450545688723,0.261597,-0.342773,0.255432,0.865295
450545711302,0.265381,-0.337463,0.257446,0.865662
450545733671,0.267456,-0.33374,0.25824,0.866211
450545748035,0.268555,-0.332947,0.257446,0.866394
450545769737,0.268799,-0.334412,0.256042,0.86615
450545785544,0.267395,-0.336365,0.255005,0.86615
450545808050,0.264282,-0.339844,0.253784,0.86615
450545829832,0.259888,-0.343811,0.253052,0.866089
450545845600,0.254517,-0.347717,0.252441,0.866333
450545876275,0.248047,-0.352295,0.251038,0.86676
450545891258,0.240662,-0.357727,0.249573,0.867065
450545905514,0.232849,-0.364929,0.247986,0.866638
450545928117,0.224792,-0.373901,0.246887,0.865234
450545951304,0.216553,-0.385193,0.245483,0.862793
450545965694,0.208008,-0.39679,0.243591,0.860168
450545988545,0.199646,-0.408142,0.242065,0.8573
450546011235,0.190979,-0.4198,0.240906,0.853943
450546025701,0.181946,-0.431885,0.240417,0.850037
450546048084,0.17334,-0.445007,0.240906,0.84491
450546071340,0.165222,-0.459106,0.241821,0.838684
450546085690,0.157471,-0.473755,0.242798,0.831665
450546114813,0.150391,-0.488159,0.24353,0.824463
450546131301,0.143799,-0.501587,0.244019,0.817383
450546152321,0.137878,-0.514893,0.244385,0.809998
450546168110,0.132446,-0.52771,0.2453,0.802368
450546191204,0.127563,-0.54126,0.246826,0.79364
450546212306,0.12262,-0.554504,0.248718,0.784607
450546228052,0.118225,-0.567383,0.251099,0.775208
450546251195,0.114258,-0.578857,0.253601,0.766479
450546272237,0.110901,-0.590149,0.255493,0.757751
450546288148,0.108154,-0.601379,0.257385,0.748596
450546311230,0.105774,-0.612488,0.259583,0.739075
450546332342,0.103455,-0.623901,0.261719,0.729065
450546348103,0.10144,-0.634888,0.263672,0.719055
450546371250,0.0996704,-0.644836,0.26532,0.709839
450546392354,0.0979614,-0.653625,0.266602,0.701477
450546408087,0.0960083,-0.661316,0.26709,0.694336
450546431276,0.0943604,-0.668762,0.267273,0.687317
450546452284,0.0926514,-0.676025,0.26709,0.680481
450546468118,0.0910645,-0.682983,0.266296,0.674011
450546491317,0.0894775,-0.688782,0.264648,0.668945
450546512375,0.0881348,-0.693542,0.262085,0.665222
450546528139,0.0869751,-0.697937,0.258545,0.66217
450546551285,0.0858765,-0.70166,0.254639,0.659912
450546572360,0.0847168,-0.705017,0.250549,0.65802
450546588123,0.083313,-0.707458,0.245972,0.657288
450546611308,0.0820923,-0.709473,0.240967,0.657166
450546632351,0.0811157,-0.710815,0.235718,0.657715
450546648079,0.0805054,-0.711731,0.229919,0.658875
450546670685,0.0802002,-0.712097,0.223938,0.660522
450546692327,0.0797119,-0.711426,0.217957,0.66333
450546708116,0.0787964,-0.709717,0.212463,0.667053
450546730687,0.0775146,-0.706116,0.207703,0.672424
450546752363,0.0762329,-0.699951,0.203735,0.680298
450546768111,0.0751953,-0.692444,0.199402,0.68927
450546798779,0.0750732,-0.68396,0.194763,0.699036
450546813580,0.0758057,-0.674377,0.190857,0.70929
450546828133,0.0771484,-0.664185,0.187622,0.719482
450546850644,0.0783691,-0.653015,0.185242,0.730103
450546873792,0.0802612,-0.641907,0.183777,0.740112
450546896307,0.0829468,-0.630737,0.183472,0.74939
450546910684,0.0864258,-0.619629,0.184082,0.758057
450546933828,0.0901489,-0.608215,0.185486,0.766479
450546948091,0.0942993,-0.595764,0.187866,0.775146
450546970663,0.0993042,-0.583313,0.191406,0.783081
450546993830,0.104797,-0.571655,0.195068,0.789978
450547008175,0.110779,-0.558838,0.19928,0.797302
450547030693,0.118042,-0.545044,0.203979,0.804565
450547053803,0.125732,-0.530945,0.208496,0.811646
450547074851,0.133423,-0.516846,0.212585,0.81842
450547090632,0.141724,-0.502747,0.217651,0.824463
450547113751,0.150085,-0.488403,0.223694,0.829956
450547134855,0.158142,-0.474609,0.229736,0.834778
450547150722,0.166321,-0.462036,0.235291,0.838745
450547173814,0.174805,-0.450806,0.24054,0.841614
450547194878,0.183228,-0.439941,0.245605,0.844116
450547210685,0.191467,-0.429443,0.250183,0.846313
450547233757,0.199524,-0.421204,0.253662,0.847595
450547254896,0.206238,-0.413025,0.256958,0.848999
450547270682,0.21228,-0.40564,0.260986,0.849854
450547293766,0.21759,-0.400085,0.264832,0.849915
450547306687,0.222351,-0.39624,0.267273,0.849731
450547329765,0.227051,-0.393311,0.268005,0.849609
450547344187,0.230774,-0.390747,0.267395,0.849976
450547375540,0.233337,-0.388672,0.266479,0.850525
450547389863,0.234619,-0.386719,0.266541,0.851074
450547404214,0.234375,-0.385315,0.267578,0.85144
450547426709,0.232666,-0.385315,0.268127,0.851685
450547449859,0.230286,-0.385864,0.267944,0.852173
450547464249,0.227417,-0.38623,0.267029,0.853088
450547486690,0.223633,-0.387817,0.265076,0.853943
450547517965,0.219055,-0.391174,0.262451,0.854431
450547524178,0.214478,-0.396362,0.26001,0.853943
450547546711,0.209961,-0.403015,0.257446,0.852722
450547569773,0.204834,-0.41095,0.254089,0.851196
450547584179,0.199097,-0.418396,0.250854,0.849854
450547606721,0.193237,-0.424622,0.248962,0.848694
450547629823,0.187012,-0.430725,0.247925,0.847351
450547644170,0.18042,-0.4375,0.247192,0.84552
450547666692,0.174377,-0.446289,0.246582,0.842346
450547689896,0.169006,-0.456848,0.246338,0.837891
450547704186,0.164062,-0.469055,0.245911,0.832214
450547726650,0.15918,-0.481628,0.245239,0.826111
450547749837,0.154785,-0.49408,0.244812,0.819702
450547764245,0.150818,-0.50592,0.245117,0.81311
450547786713,0.146729,-0.51709,0.246216,0.806519
450547809934,0.142578,-0.527039,0.247864,0.800293
450547824239,0.138794,-0.536011,0.250061,0.794312
450547846722,0.135437,-0.545044,0.252808,0.787842
450547869896,0.132446,-0.554321,0.255493,0.780945
450547884193,0.130005,-0.564331,0.258423,0.773193
450547906644,0.127869,-0.574768,0.261536,0.764771
450547929802,0.126282,-0.585938,0.264526,0.755493
450547944223,0.125244,-0.596741,0.267456,0.746094
450547966691,0.124695,-0.60675,0.269775,0.737244
450547989843,0.124268,-0.61554,0.271667,0.729309
450548004169,0.12384,-0.623169,0.273865,0.722046
450548026668,0.123291,-0.630493,0.276123,0.714844
450548049831,0.122437,-0.637634,0.278259,0.707764
450548064172,0.121338,-0.644653,0.280273,0.700806
450548086689,0.1203,-0.651245,0.281738,0.694275
450548117973,0.119141,-0.657349,0.282288,0.688477
450548124146,0.117981,-0.662292,0.282104,0.684021
450548146670,0.116577,-0.666199,0.281189,0.680786
450548169834,0.114929,-0.669861,0.279541,0.678162
450548184168,0.112915,-0.672791,0.27771,0.676331
450548206669,0.111023,-0.675537,0.275452,0.674805
450548229827,0.109131,-0.677734,0.2724,0.674194
450548244161,0.107239,-0.678711,0.268616,0.674988
450548268101,0.105164,-0.678955,0.264954,0.676514
450548289787,0.10321,-0.679565,0.261169,0.677734
450548304173,0.101807,-0.68042,0.256958,0.678711
450548326695,0.101074,-0.680237,0.252502,0.680664
450548349849,0.101074,-0.678955,0.247253,0.683838
450548364106,0.101501,-0.676819,0.241516,0.687927
450548386723,0.10199,-0.673401,0.236511,0.692932
450548409819,0.102234,-0.669189,0.232483,0.698303
450548424127,0.102234,-0.66449,0.228882,0.703979
450548446654,0.102417,-0.659302,0.225586,0.7099
450548469849,0.103271,-0.654175,0.222412,0.715454
450548484151,0.104431,-0.648621,0.219666,0.721191
450548506699,0.105652,-0.640259,0.217651,0.729004
450548529835,0.106995,-0.629822,0.216736,0.738159
450548544815,0.108459,-0.618469,0.21582,0.747742
450548566645,0.110413,-0.606567,0.215393,0.757324
450548589822,0.113281,-0.594971,0.216187,0.765808
450548604177,0.116394,-0.583191,0.217224,0.774048
450548626695,0.120056,-0.57196,0.218628,0.781433
450548649828,0.124451,-0.561218,0.220703,0.787903
450548672325,0.129272,-0.550598,0.22345,0.793823
450548686673,0.134583,-0.5401,0.226868,0.799194
450548710626,0.140137,-0.528931,0.230591,0.804565
450548724207,0.145996,-0.517761,0.234314,0.809753
450548746698,0.152039,-0.50592,0.238342,0.814941
450548769170,0.158447,-0.494263,0.242493,0.819641
450548784141,0.164734,-0.482788,0.24646,0.824036
450548806655,0.171021,-0.471802,0.250427,0.827881
450548829173,0.177307,-0.461731,0.254333,0.831055
450548844162,0.183228,-0.451782,0.258484,0.833923
450548866657,0.189087,-0.442993,0.262329,0.836121
450548889165,0.194702,-0.434326,0.265869,0.838318
450548904137,0.200012,-0.42688,0.269226,0.839783
450548926659,0.204895,-0.420166,0.272766,0.840881
450548949221,0.209595,-0.414429,0.276184,0.841431
450548964192,0.213928,-0.4104,0.279236,0.841309
450548986655,0.217834,-0.407349,0.281799,0.840942
450549009182,0.22168,-0.404907,0.284058,0.840332
450549024195,0.225098,-0.402222,0.286072,0.840027
450549046690,0.227539,-0.400085,0.287354,0.839966
450549069217,0.229309,-0.399048,0.288391,0.839661
450549084198,0.230774,-0.399292,0.290039,0.838501
450549106668,0.231567,-0.400696,0.291748,0.837036
450549129166,0.231506,-0.403076,0.292664,0.835632
450549144174,0.230835,-0.405823,0.29303,0.834351
450549166662,0.229736,-0.408813,0.293213,0.83313
450549183074,0.227905,-0.412781,0.293091,0.831726
450549204161,0.225281,-0.417908,0.292603,0.830017
450549226671,0.222229,-0.423706,0.292236,0.828003
450549249117,0.218872,-0.430115,0.291931,0.825745
450549264142,0.214661,-0.436829,0.291321,0.823486
450549286649,0.209961,-0.443787,0.290405,0.82135
450549309202,0.205322,-0.450989,0.289673,0.818848
450549324195,0.200317,-0.458801,0.289185,0.815918
450549346721,0.194946,-0.468079,0.288635,0.812134
450549369129,0.189819,-0.478455,0.288147,0.807434
450549384147,0.18512,-0.488831,0.28772,0.80249
450549406698,0.180481,-0.499268,0.286499,0.797485
450549429178,0.175964,-0.509827,0.284729,0.79248
450549444209,0.17157,-0.519836,0.283752,0.787231
450549466657,0.167419,-0.529907,0.28363,0.781494
450549489258,0.163086,-0.540039,0.283447,0.775452
450549505670,0.158997,-0.549988,0.282776,0.769592
450549526766,0.15564,-0.56012,0.28241,0.763062
450549549238,0.152161,-0.569946,0.282654,0.756348
450549565665,0.148499,-0.578735,0.283264,0.750183
450549594964,0.145386,-0.587463,0.283936,0.743713
450549609225,0.1427,-0.594299,0.284668,0.738525
450549625696,0.140747,-0.600342,0.285217,0.733765
450549646788,0.13916,-0.606201,0.285706,0.729065
450549669181,0.13739,-0.611145,0.28656,0.724915
450549685702,0.136108,-0.61615,0.28833,0.720154
450549706711,0.135132,-0.622009,0.289917,0.714661
450549729235,0.134705,-0.628601,0.290466,0.70874
450549745675,0.135132,-0.635376,0.29071,0.702454
450549766770,0.135864,-0.642212,0.290222,0.696289
450549789268,0.136292,-0.648865,0.289185,0.69043
450549805697,0.136414,-0.654541,0.288208,0.685486
450549826666,0.136047,-0.658691,0.287415,0.681885
450549849182,0.135132,-0.661255,0.28595,0.680237
450549865613,0.134094,-0.662415,0.283508,0.680298
450549886701,0.133179,-0.662109,0.280457,0.682068
450549909130,0.132324,-0.661011,0.276733,0.684814
450549925613,0.131165,-0.65979,0.272766,0.687744
450549946668,0.129639,-0.659058,0.268677,0.69043
450549969133,0.128174,-0.658447,0.264648,0.69281
450549985628,0.126892,-0.657166,0.260803,0.695679
450550006675,0.125793,-0.655212,0.256592,0.69928
450550029158,0.125244,-0.653198,0.252014,0.702942
450550045616,0.124878,-0.65033,0.247925,0.707092
450550066699,0.12439,-0.64679,0.244568,0.711609
450550089162,0.123718,-0.642822,0.241638,0.716309
450550105677,0.123291,-0.638367,0.239197,0.72113
450550126761,0.123413,-0.632996,0.236938,0.726562
450550149292,0.124146,-0.626831,0.234375,0.732605
450550165684,0.125366,-0.619202,0.231934,0.739624
450550186795,0.126465,-0.609985,0.230347,0.747559
450550209280,0.127258,-0.599304,0.230042,0.756104
450550225690,0.128113,-0.58783,0.231079,0.764587
450550246759,0.129456,-0.576294,0.232544,0.772644
450550269273,0.131348,-0.565125,0.234192,0.78009
450550285654,0.134277,-0.554932,0.236145,0.786255
450550308119,0.137878,-0.545288,0.238892,0.791504
450550329158,0.141846,-0.536011,0.242432,0.796082
450550345644,0.146179,-0.527649,0.246582,0.799622
450550366667,0.151306,-0.519714,0.251282,0.802368
450550389219,0.157166,-0.51178,0.256226,0.804749
450550405647,0.163208,-0.503296,0.260986,0.807373
450550429588,0.169189,-0.494019,0.265686,0.810364
450550449193,0.175354,-0.48468,0.270813,0.812988
450550465741,0.181396,-0.475891,0.276428,0.814941
450550488250,0.187195,-0.466553,0.28241,0.817017
450550509319,0.193237,-0.456543,0.288025,0.819275
450550525756,0.199402,-0.446716,0.292664,0.821533
450550548233,0.205505,-0.437866,0.296326,0.823547
450550569242,0.211609,-0.430359,0.30011,0.824585
450550585663,0.217468,-0.424683,0.304504,0.824341
450550608192,0.222961,-0.421082,0.308838,0.82312
450550629220,0.228027,-0.418884,0.312744,0.82135
450550645593,0.232788,-0.417542,0.316284,0.819397
450550668171,0.236938,-0.416931,0.319031,0.817444
450550689220,0.240601,-0.417419,0.320984,0.815369
450550705594,0.243713,-0.418823,0.322632,0.813049
450550728138,0.245728,-0.420776,0.324219,0.810791
450550752105,0.246643,-0.423096,0.325928,0.808594
450550765670,0.246399,-0.423584,0.327698,0.807739
450550788127,0.245361,-0.422668,0.328674,0.808105
450550809186,0.243591,-0.421814,0.328674,0.809082
450550825711,0.241089,-0.421814,0.328186,0.810059
450550848209,0.238586,-0.423706,0.328247,0.809753
450550869917,0.235901,-0.428589,0.328186,0.808044
450550892474,0.233032,-0.436035,0.327087,0.805298
450550907386,0.230713,-0.445312,0.325012,0.801758
450550929963,0.228271,-0.455139,0.322632,0.797852
450550944928,0.22522,-0.465088,0.319885,0.794128
450550967461,0.221436,-0.474365,0.317749,0.790527
450550989866,0.21698,-0.482666,0.316467,0.787231
450551004793,0.211914,-0.490051,0.315186,0.784546
450551027355,0.206604,-0.497681,0.313049,0.782043
450551049860,0.201416,-0.505188,0.310181,0.779724
450551064875,0.196655,-0.512329,0.307312,0.777405
450551087375,0.191895,-0.519531,0.304321,0.775024
450551109879,0.187134,-0.526855,0.300781,0.772583
450551124869,0.182617,-0.534058,0.297363,0.77002
450551147397,0.178772,-0.541138,0.294434,0.76709
450551169939,0.17511,-0.548523,0.291565,0.763794
450551184945,0.171631,-0.555664,0.288818,0.760437
450551207467,0.16864,-0.562683,0.286621,0.756775
450551229952,0.166016,-0.570374,0.284668,0.752319
450551244952,0.163574,-0.578247,0.282532,0.747681
450551267451,0.161499,-0.586365,0.280396,0.742615
450551289914,0.159607,-0.59375,0.278381,0.737854
450551304911,0.157654,-0.600403,0.276245,0.733704
450551327446,0.155823,-0.606201,0.274109,0.730103
450551349935,0.15387,-0.611267,0.27179,0.727173
450551364943,0.151978,-0.616028,0.269531,0.724365
450551387333,0.150024,-0.620178,0.2677,0.721985
450551409887,0.147827,-0.624207,0.26593,0.719604
450551424821,0.145569,-0.627563,0.264099,0.717834
450551447299,0.143616,-0.630249,0.262329,0.716492
450551469862,0.141602,-0.631592,0.260559,0.716309
450551484814,0.139832,-0.632507,0.258362,0.716675
450551507434,0.138367,-0.633179,0.256348,0.717041
450551529897,0.136902,-0.633545,0.254272,0.717773
450551546427,0.135376,-0.63385,0.252625,0.718384
450551567483,0.134033,-0.63385,0.25116,0.719116
450551589964,0.132935,-0.63269,0.249817,0.720825
450551606345,0.132202,-0.631714,0.248108,0.722412
450551627495,0.131653,-0.631042,0.246033,0.723816
450551643225,0.131165,-0.629822,0.244995,0.725342
450551666360,0.130615,-0.627441,0.245117,0.727417
450551687400,0.129761,-0.624207,0.244995,0.730408
450551709955,0.129333,-0.619995,0.244629,0.734192
450551726338,0.1297,-0.616028,0.244263,0.737549
450551747415,0.130005,-0.611389,0.244019,0.741455
450551769982,0.13031,-0.606079,0.244263,0.745667
450551786351,0.130615,-0.601196,0.244934,0.749329
450551814946,0.130615,-0.59668,0.245789,0.752625
450551829978,0.130737,-0.591675,0.247498,0.755981
450551846384,0.131287,-0.585999,0.249695,0.759644
450551867473,0.131775,-0.579773,0.251038,0.763855
450551889940,0.132751,-0.573853,0.252136,0.767761
450551906425,0.13385,-0.567261,0.25415,0.77179
450551927498,0.134888,-0.56073,0.256409,0.775635
450551949974,0.136108,-0.554993,0.258362,0.77887
450551966383,0.138062,-0.550049,0.259583,0.781616
450551987398,0.140869,-0.545715,0.260498,0.783875
450552009844,0.143921,-0.54187,0.260864,0.785828
450552026336,0.146545,-0.537598,0.261047,0.788269
450552047394,0.148865,-0.532898,0.261963,0.79071
450552069888,0.150574,-0.5271,0.264099,0.793518
450552086322,0.151489,-0.52063,0.266846,0.796692
450552107360,0.152283,-0.513916,0.269104,0.800171
450552129813,0.153503,-0.50769,0.270569,0.803406
450552146298,0.155212,-0.502625,0.271118,0.806091
450552167519,0.156982,-0.499207,0.270996,0.807922
450552189981,0.158752,-0.497375,0.270813,0.808716
450552206413,0.160645,-0.496094,0.270935,0.809082
450552227437,0.162354,-0.494568,0.270813,0.809753
450552249921,0.16394,-0.493042,0.27002,0.810608
450552266318,0.165344,-0.490784,0.269165,0.812012
450552287460,0.166687,-0.487793,0.269165,0.813477
450552309959,0.167542,-0.484985,0.26947,0.814941
450552326370,0.167358,-0.482361,0.269531,0.816467
450552347416,0.167419,-0.480286,0.269714,0.817627
450552369858,0.167969,-0.479858,0.269531,0.81781
450552385637,0.168396,-0.480896,0.268127,0.817566
450552407165,0.169128,-0.482727,0.265747,0.817139
450552429875,0.1698,-0.484436,0.263306,0.816772
450552445679,0.169617,-0.485596,0.261658,0.81665
450552467471,0.168823,-0.486511,0.260681,0.816589
450552483212,0.167419,-0.486816,0.260193,0.816833
450552512473,0.165894,-0.487183,0.259644,0.817139
450552528907,0.164734,-0.487976,0.258728,0.8172
450552549941,0.163757,-0.489929,0.257385,0.816589
450552565796,0.16272,-0.492615,0.255798,0.815674
450552588931,0.162048,-0.496094,0.254578,0.814087
450552603186,0.161377,-0.5,0.253723,0.812134
450552625714,0.160645,-0.504944,0.252686,0.809509
450552648906,0.160095,-0.509766,0.252014,0.806824
450552663260,0.159851,-0.514099,0.252014,0.804138
450552685802,0.159424,-0.517761,0.252258,0.801758
450552708863,0.158997,-0.521301,0.252686,0.799438
450552723248,0.15863,-0.524963,0.253845,0.796753
450552745725,0.158569,-0.529541,0.255432,0.793152
450552768918,0.158936,-0.533997,0.257019,0.789612
450552789927,0.159485,-0.537292,0.257996,0.786926
450552805676,0.159912,-0.539856,0.258423,0.784973
450552828806,0.160461,-0.542725,0.259033,0.782654
450552849907,0.16095,-0.546082,0.260559,0.779724
450552865788,0.160889,-0.549988,0.262451,0.776367
450552888935,0.160339,-0.553406,0.264282,0.773438
450552909934,0.160217,-0.556152,0.266052,0.770874
450552925753,0.160522,-0.559448,0.266785,0.768188
450552948861,0.161194,-0.562622,0.266479,0.765747
450552969985,0.161804,-0.565369,0.266602,0.76355
450552985791,0.161926,-0.567932,0.267273,0.761414
450553008901,0.161133,-0.570251,0.268188,0.759521
450553029995,0.160095,-0.57196,0.269226,0.758118
450553045782,0.159119,-0.574036,0.269165,0.756775
450553068898,0.159241,-0.578064,0.267639,0.754211
450553089906,0.159912,-0.582703,0.265259,0.751343
450553105701,0.159119,-0.588196,0.261597,0.748535
450553128844,0.156494,-0.591919,0.256775,0.747803
450553149890,0.154114,-0.59314,0.253357,0.748474
450553165688,0.151794,-0.592468,0.25116,0.750244
450553196448,0.147766,-0.589661,0.248108,0.754272
450553217492,0.143433,-0.585876,0.244385,0.759216
450553225694,0.139526,-0.582153,0.241089,0.763855
450553248869,0.136414,-0.579956,0.237915,0.76709
450553270066,0.133606,-0.579102,0.234802,0.769165
450553293908,0.130981,-0.578796,0.230713,0.771118
450553308227,0.128479,-0.578369,0.22699,0.772949
450553329934,0.126526,-0.577576,0.224915,0.774475
450553345718,0.124512,-0.576294,0.223938,0.776001
450553368257,0.122803,-0.575256,0.223816,0.7771
450553389917,0.122803,-0.5755,0.224609,0.776672
450553412416,0.123962,-0.575317,0.225403,0.776367
450553436439,0.123169,-0.574951,0.223511,0.777344
450553451438,0.120972,-0.575195,0.218323,0.778992
450553465760,0.12085,-0.577332,0.214478,0.778503
450553488312,0.122314,-0.579834,0.213013,0.776794
450553518934,0.123962,-0.582703,0.212952,0.774414
450553525780,0.124817,-0.584351,0.212524,0.773193
450553548248,0.125,-0.582703,0.212769,0.774292
450553571404,0.125427,-0.578247,0.214722,0.777039
450553585701,0.125671,-0.573425,0.216675,0.780029
450553608312,0.125793,-0.570374,0.217529,0.781982
450553631458,0.125977,-0.569214,0.217957,0.782715
450553645790,0.126587,-0.570557,0.217834,0.781616
450553668316,0.12738,-0.572876,0.216797,0.78009
450553691430,0.128235,-0.574585,0.21582,0.778992
450553705720,0.128662,-0.573975,0.215698,0.779419
450553728182,0.128967,-0.572266,0.216125,0.780457
450553751376,0.1297,-0.570068,0.217712,0.781555
450553765711,0.130737,-0.568237,0.219604,0.782166
450553788185,0.131592,-0.568054,0.220825,0.781799
450553811350,0.132202,-0.568176,0.221375,0.781433
450553832457,0.132812,-0.568787,0.221741,0.780823
450553848236,0.133179,-0.56958,0.22168,0.780212
450553871867,0.133301,-0.570251,0.221985,0.779602
450553885721,0.133484,-0.571167,0.222656,0.778687
450553908230,0.133484,-0.571655,0.223267,0.778137
450553931461,0.133667,-0.571655,0.223572,0.778015
450553952497,0.134094,-0.571594,0.22345,0.778015
450553968247,0.134399,-0.571472,0.222961,0.778198
450553991447,0.134277,-0.571106,0.222351,0.778687
450554013905,0.13385,-0.57074,0.221802,0.779175
450554036350,0.133728,-0.570251,0.221985,0.779541
450554051341,0.13385,-0.569214,0.222961,0.779968
450554072441,0.134033,-0.568176,0.223755,0.780457
450554088309,0.134399,-0.56781,0.224487,0.780457
450554111427,0.13501,-0.568115,0.225769,0.779785
450554132519,0.135803,-0.568359,0.227356,0.778992
450554148256,0.136597,-0.568542,0.22876,0.778259
450554171404,0.137512,-0.569153,0.229858,0.777344
450554192440,0.138611,-0.570374,0.23053,0.776062
450554208774,0.140564,-0.571838,0.231384,0.774353
450554230820,0.143127,-0.574158,0.231567,0.772095
450554252551,0.145264,-0.576233,0.232178,0.77002
450554268304,0.146423,-0.576965,0.233826,0.768738
450554290826,0.14679,-0.577087,0.235779,0.768005
450554312509,0.146729,-0.574829,0.238586,0.768799
450554328314,0.147034,-0.570557,0.241943,0.770935
450554350733,0.147339,-0.565552,0.243835,0.773926
450554373870,0.147583,-0.559692,0.244263,0.777954
450554388191,0.148376,-0.553833,0.245361,0.781677
450554410698,0.148987,-0.548462,0.247437,0.784668
450554424225,0.148926,-0.543579,0.249817,0.787354
450554447429,0.149353,-0.539734,0.252686,0.789001
450554461817,0.150513,-0.536926,0.255249,0.789856
450554484322,0.152161,-0.535461,0.25769,0.789734
450554507504,0.153442,-0.535095,0.260193,0.788879
450554521853,0.154114,-0.536438,0.263062,0.786926
450554544288,0.154724,-0.537964,0.26709,0.784363
450554567545,0.155212,-0.539734,0.27063,0.78186
450554581897,0.155457,-0.541382,0.27179,0.780273
450554604254,0.156006,-0.541199,0.271973,0.780212
450554627486,0.156494,-0.539429,0.272095,0.781311
450554641837,0.155823,-0.536194,0.271912,0.783752
450554664362,0.154297,-0.532654,0.271973,0.786438
450554687548,0.15271,-0.529175,0.272644,0.788818
450554701838,0.151367,-0.526489,0.273376,0.790649
450554724367,0.150146,-0.524597,0.273193,0.792175
450554747453,0.149353,-0.523499,0.272034,0.793457
450554761807,0.148865,-0.523621,0.270752,0.793945
450554784289,0.148438,-0.525574,0.269348,0.793213
450554807476,0.148254,-0.529602,0.267944,0.791016
450554821897,0.14801,-0.533325,0.266357,0.789062
450554844331,0.148071,-0.53717,0.263672,0.787354
450554867597,0.147827,-0.539734,0.260193,0.786865
450554881814,0.147339,-0.541199,0.256348,0.787231
450554904287,0.146606,-0.542236,0.252991,0.787659
450554927526,0.145264,-0.542664,0.250122,0.788574
450554941843,0.143433,-0.542786,0.247131,0.789734
450554964315,0.141479,-0.54248,0.244446,0.791138
450554987533,0.139465,-0.541077,0.24176,0.793274
450555001799,0.137756,-0.540527,0.238892,0.7948
450555024381,0.136047,-0.54071,0.235718,0.795959
450555047519,0.134338,-0.542053,0.232971,0.796143
450555061902,0.132935,-0.543945,0.231079,0.795593
450555084358,0.131653,-0.546631,0.229248,0.794556
450555106954,0.130432,-0.549316,0.227112,0.793518
450555121861,0.129883,-0.551331,0.225342,0.792664
450555145797,0.129578,-0.552795,0.22406,0.792053
450555167555,0.129089,-0.553284,0.22345,0.791992
450555181929,0.128479,-0.553101,0.223511,0.792236
450555204402,0.128174,-0.552979,0.223938,0.792175
450555227488,0.128357,-0.55365,0.224854,0.791443
450555241834,0.129028,-0.554382,0.225464,0.790649
450555264292,0.130066,-0.554382,0.226318,0.790222
450555287438,0.13147,-0.554321,0.227295,0.789795
450555301775,0.132751,-0.554382,0.228394,0.789246
450555324227,0.134155,-0.554321,0.230164,0.788452
450555346801,0.135559,-0.554321,0.232544,0.787598
450555361806,0.137024,-0.554749,0.234741,0.786316
450555384322,0.138855,-0.555481,0.236877,0.784851
450555406948,0.140869,-0.556213,0.238525,0.783508
450555421892,0.142822,-0.557312,0.23999,0.781921
450555444416,0.144653,-0.558594,0.241516,0.780151
450555466880,0.14624,-0.559326,0.243469,0.778748
450555481860,0.147522,-0.559387,0.245422,0.777893
450555504394,0.148254,-0.559021,0.246582,0.777588
450555526861,0.148865,-0.558716,0.247437,0.777466
450555541870,0.149353,-0.558533,0.248474,0.777161
450555564285,0.149292,-0.558777,0.249146,0.776733
450555586888,0.148682,-0.55896,0.249451,0.776672
450555601864,0.148254,-0.558716,0.24939,0.776917
450555624364,0.147766,-0.558044,0.248962,0.777649
450555646937,0.147217,-0.557373,0.247559,0.778687
450555661845,0.146667,-0.556702,0.24585,0.779846
450555684257,0.145752,-0.555603,0.244629,0.781128
450555706780,0.144409,-0.555115,0.243713,0.781982
450555721775,0.142822,-0.555115,0.242737,0.782593
450555744294,0.141174,-0.555359,0.241699,0.783081
450555766750,0.139954,-0.556396,0.239929,0.783081
450555781738,0.138794,-0.557922,0.237671,0.782898
450555804334,0.137695,-0.559082,0.235596,0.782898
450555826785,0.136292,-0.559509,0.233765,0.783386
450555841856,0.134583,-0.559387,0.232178,0.784241
450555864421,0.132751,-0.558472,0.231262,0.785461
450555886837,0.131042,-0.557129,0.230774,0.786865
450555901875,0.129517,-0.555359,0.230042,0.788574
450555924390,0.12854,-0.55365,0.229126,0.790222
450555946895,0.128052,-0.552612,0.228149,0.79126
450555961919,0.127747,-0.552673,0.227539,0.791443
450555984316,0.127563,-0.553345,0.227722,0.790955
450556006880,0.127625,-0.554382,0.228394,0.790039
450556024741,0.12793,-0.555603,0.228943,0.78894
450556044381,0.128662,-0.556152,0.229431,0.78833
450556066893,0.129578,-0.555786,0.230103,0.788269
450556081856,0.130249,-0.554565,0.23114,0.788696
450556104357,0.130554,-0.552979,0.232727,0.789246
450556126860,0.13092,-0.551514,0.234741,0.789673
450556143349,0.131592,-0.550171,0.23645,0.789978
450556164448,0.132446,-0.548889,0.23761,0.790405
450556186774,0.133606,-0.547485,0.238342,0.790955
450556203270,0.134705,-0.545898,0.239136,0.791626
450556224366,0.13562,-0.545471,0.240356,0.791382
450556255009,0.136108,-0.545166,0.242188,0.790955
450556263269,0.13678,-0.544983,0.244446,0.790283
450556284321,0.137573,-0.544983,0.246216,0.789551
450556306818,0.138245,-0.544312,0.247192,0.789612
450556323273,0.139282,-0.543945,0.247986,0.789429
450556344323,0.140198,-0.54425,0.24884,0.788818
450556366833,0.14093,-0.545105,0.249268,0.787903
450556383272,0.141724,-0.546387,0.249329,0.786865
450556404311,0.142456,-0.547424,0.248596,0.786255
450556426804,0.1427,-0.547302,0.247681,0.78656
450556443213,0.142639,-0.546326,0.247009,0.787476
450556464399,0.142029,-0.54541,0.246216,0.788452
450556486840,0.141235,-0.545288,0.2453,0.789001
450556503343,0.140686,-0.545959,0.244263,0.78894
450556524352,0.140137,-0.546326,0.242981,0.789185
450556546907,0.139282,-0.546265,0.241272,0.789917
450556563347,0.138428,-0.546021,0.239441,0.790771
450556584331,0.137573,-0.546448,0.237732,0.791138
450556606890,0.136536,-0.547546,0.236145,0.791077
450556623315,0.135498,-0.54895,0.23468,0.79071
450556644390,0.134766,-0.550537,0.232971,0.790222
450556666859,0.133972,-0.551819,0.23114,0.789978
450556683294,0.13324,-0.552368,0.229248,0.790283
450556704301,0.132751,-0.552979,0.227417,0.790466
450556726832,0.13208,-0.553406,0.226013,0.790649
450556743242,0.131165,-0.553772,0.224976,0.790894
450556764316,0.130371,-0.553833,0.224548,0.791077
450556786795,0.129822,-0.553467,0.224243,0.791504
450556803246,0.129333,-0.552002,0.223816,0.792725
450556824265,0.129456,-0.551025,0.223145,0.793579
450556846931,0.129822,-0.550842,0.222595,0.793823
450556863345,0.130493,-0.551453,0.222839,0.793213
450556884388,0.131287,-0.552917,0.223267,0.791931
450556906900,0.132141,-0.554626,0.223816,0.790466
450556923360,0.133179,-0.555969,0.224731,0.789062
450556944427,0.134338,-0.55719,0.225891,0.78772
450556966938,0.134888,-0.557312,0.227417,0.787048
450556983271,0.135315,-0.556396,0.229431,0.787048
450557004414,0.135986,-0.555176,0.231567,0.78717
450557026910,0.136963,-0.554138,0.232788,0.787354
450557043340,0.138062,-0.552856,0.233337,0.787903
450557064314,0.139465,-0.552185,0.233826,0.787964
450557086770,0.140503,-0.552246,0.234924,0.787415
450557103271,0.141235,-0.552124,0.236755,0.786804
450557125736,0.141785,-0.551758,0.23877,0.786438
450557146834,0.142212,-0.550964,0.240295,0.786377
450557163324,0.142944,-0.550598,0.241577,0.786133
450557185897,0.143799,-0.550415,0.242737,0.785767
450557206936,0.144287,-0.550293,0.243835,0.7854
450557223377,0.144714,-0.550476,0.244812,0.784912
450557245865,0.145142,-0.551208,0.2453,0.78418
450557266894,0.14563,-0.552612,0.245056,0.783142
450557283363,0.145935,-0.553894,0.244507,0.782349
450557305821,0.145813,-0.554138,0.24408,0.782288
450557326808,0.145325,-0.553772,0.243896,0.782776
450557343305,0.144287,-0.552917,0.243652,0.78363
450557365814,0.143005,-0.551636,0.243225,0.784912
450557386897,0.141724,-0.55011,0.242981,0.786255
450557409425,0.140625,-0.549133,0.242432,0.787292
450557425814,0.139587,-0.549133,0.241272,0.787842
450557446833,0.138672,-0.549316,0.239929,0.78833
450557463386,0.138,-0.550293,0.238708,0.788086
450557485893,0.137512,-0.551697,0.237549,0.787598
450557506891,0.136902,-0.553406,0.236328,0.786865
450557523926,0.136292,-0.554443,0.235291,0.78656
450557545762,0.135437,-0.555115,0.234802,0.786316
450557566802,0.134583,-0.55542,0.234619,0.786316
450557583301,0.13385,-0.555237,0.234192,0.786682
450557613408,0.13324,-0.554871,0.233215,0.787354
450557626866,0.132812,-0.555115,0.232178,0.787598
450557643316,0.132385,-0.554749,0.231812,0.788025
450557665792,0.131775,-0.55365,0.231995,0.788818
450557686974,0.131348,-0.552795,0.231689,0.789612
450557703308,0.131165,-0.552185,0.23114,0.790222
450557725842,0.131409,-0.551331,0.231262,0.79071
450557746939,0.131348,-0.55011,0.231995,0.791382
450557763307,0.131042,-0.54834,0.233032,0.792358
450557785809,0.131042,-0.548035,0.234314,0.792175
450557806808,0.13092,-0.548584,0.235901,0.791382
450557823240,0.131104,-0.549561,0.237488,0.790161
450557845791,0.132019,-0.551392,0.238708,0.78833
450557866838,0.13324,-0.552917,0.239014,0.787048
450557883390,0.134583,-0.55365,0.239014,0.786255
450557905929,0.135864,-0.553711,0.239746,0.785767
450557926964,0.136292,-0.552673,0.241028,0.786011
450557943339,0.136536,-0.551941,0.242676,0.786011
450557965853,0.136719,-0.550964,0.244202,0.786194
450557987574,0.136658,-0.549316,0.2453,0.786987
450558002635,0.137085,-0.548401,0.245667,0.787415
450558025095,0.137695,-0.548218,0.2453,0.787598
450558047594,0.138245,-0.548706,0.244873,0.787292
450558062505,0.138489,-0.5495,0.244507,0.786804
450558085048,0.138428,-0.550171,0.244385,0.786377
450558107481,0.138306,-0.550232,0.244263,0.786377
450558122479,0.137878,-0.550049,0.243652,0.786804
450558145079,0.13739,-0.549744,0.24292,0.787292
450558167592,0.136841,-0.548645,0.242737,0.788269
450558184007,0.136108,-0.548279,0.242493,0.788696
450558205127,0.135315,-0.549316,0.241516,0.788452
450558227552,0.134827,-0.550293,0.240601,0.788086
450558243983,0.134583,-0.551208,0.239807,0.78772
450558265075,0.134094,-0.551758,0.238464,0.787842
450558287566,0.133667,-0.551758,0.237122,0.78833
450558303993,0.133118,-0.550659,0.236633,0.789307
450558325083,0.132385,-0.549866,0.236328,0.7901
450558347525,0.131897,-0.549622,0.235962,0.790405
450558363957,0.132019,-0.550232,0.235474,0.7901
450558385002,0.132507,-0.551636,0.234497,0.789368
450558407498,0.13324,-0.553589,0.233459,0.788208
450558423911,0.134094,-0.554077,0.232727,0.787903
450558445162,0.134827,-0.553101,0.232605,0.788513
450558467594,0.135132,-0.552124,0.232178,0.789246
450558484068,0.135193,-0.551331,0.232117,0.789856
450558505094,0.135681,-0.550842,0.233093,0.789795
450558527652,0.135803,-0.550964,0.233582,0.789551
450558544039,0.135925,-0.552551,0.232849,0.788635
450558565063,0.136597,-0.554199,0.232239,0.787537
450558587654,0.137268,-0.555603,0.232117,0.786438
450558604022,0.137451,-0.55719,0.232056,0.785339
450558625062,0.137268,-0.557312,0.232056,0.785278
450558647560,0.137085,-0.555176,0.232544,0.786682
450558663968,0.13678,-0.55304,0.232727,0.788208
450558684972,0.136108,-0.551331,0.232239,0.789673
450558707637,0.13623,-0.551941,0.232056,0.789246
450558724084,0.136292,-0.554199,0.232178,0.787598
450558745092,0.135986,-0.557678,0.232483,0.785095
450558767621,0.135376,-0.560059,0.233459,0.783264
450558783994,0.134583,-0.559998,0.234802,0.78302
450558805030,0.133606,-0.558472,0.235779,0.783997
450558827564,0.13269,-0.556213,0.236267,0.785583
450558844028,0.132568,-0.554077,0.236633,0.786987
450558865164,0.133057,-0.552246,0.236938,0.788086
450558887525,0.133545,-0.551819,0.236511,0.788452
450558903965,0.134216,-0.552246,0.236084,0.788147
450558925001,0.135376,-0.552856,0.236511,0.787415
450558947462,0.136536,-0.553406,0.237244,0.786621
450558963314,0.137207,-0.553772,0.237732,0.786072
450558985033,0.138062,-0.553894,0.23877,0.785583
450559007538,0.138855,-0.552795,0.241028,0.785522
450559023328,0.139526,-0.551453,0.242676,0.785828
450559046470,0.140503,-0.550903,0.243286,0.785828
450559067545,0.141968,-0.550842,0.24353,0.785522
450559083319,0.143677,-0.551941,0.243835,0.784363
450559106444,0.145081,-0.553223,0.244141,0.783142
450559127493,0.145935,-0.553284,0.244629,0.782776
450559143289,0.146545,-0.55249,0.245605,0.782898
450559166542,0.147095,-0.551758,0.246643,0.782959
450559187595,0.147461,-0.551514,0.247742,0.782715
450559210025,0.147888,-0.551819,0.248352,0.782227
450559226522,0.148865,-0.555786,0.247864,0.779419
450559247560,0.149231,-0.55719,0.247864,0.77832
450559263336,0.150269,-0.559753,0.246887,0.776611
450559286471,0.150208,-0.561523,0.244629,0.776062
450559307582,0.149536,-0.561646,0.241821,0.776978
450559323347,0.148438,-0.559631,0.24054,0.778992
450559346471,0.146545,-0.556641,0.239563,0.78186
450559367546,0.143799,-0.552429,0.238647,0.785583
450559383285,0.141724,-0.547974,0.237793,0.789368
450559406473,0.139893,-0.544983,0.23584,0.792358
450559427534,0.138733,-0.544678,0.232971,0.793579
450559443357,0.138184,-0.546021,0.230713,0.793396
450559466496,0.138367,-0.551453,0.228943,0.7901
450559495030,0.13269,-0.560608,0.220154,0.78717
450559503290,0.127136,-0.56781,0.213074,0.784851
450559526445,0.124146,-0.572937,0.208374,0.782898
450559547667,0.11499,-0.576111,0.198242,0.784546
450559563377,0.103149,-0.575867,0.18396,0.789856
450559586561,0.0912476,-0.574036,0.168518,0.796082
450559607559,0.0826416,-0.570557,0.156433,0.801941
450559623376,0.0742188,-0.567383,0.144775,0.80719
450559646485,0.0690918,-0.566284,0.136597,0.809875
450559668994,0.0714722,-0.568481,0.137817,0.807922
450559691470,0.078125,-0.572693,0.14502,0.80304
450559706458,0.0858154,-0.578796,0.153625,0.796265
450559727613,0.0917969,-0.584106,0.160156,0.790405
450559743348,0.0952759,-0.587158,0.162964,0.787109
450559766499,0.100098,-0.590454,0.166992,0.783203
450559787589,0.103638,-0.593506,0.171509,0.77948
450559803340,0.103333,-0.596985,0.172363,0.776672
450559826507,0.100708,-0.600037,0.170715,0.775024
450559847642,0.0983276,-0.602051,0.16748,0.774475
450559863860,0.095459,-0.601746,0.162476,0.776123
450559886523,0.0906982,-0.598572,0.157715,0.78009
450559907565,0.0847168,-0.59491,0.153809,0.784363
450559923335,0.0771484,-0.592285,0.149719,0.787903
450559945817,0.0684204,-0.58606,0.141785,0.7948
450559967604,0.0595093,-0.578064,0.134155,0.802673
450559983312,0.0507812,-0.575439,0.126526,0.806396
450560005793,0.039978,-0.571228,0.119263,0.811096
450560027552,0.0299072,-0.557495,0.114258,0.821716
450560043294,0.0267334,-0.55658,0.114136,0.822449
450560065843,0.0145874,-0.57251,0.113342,0.81189
450560088993,-0.00616455,-0.595886,0.104187,0.796265
450560103342,-0.0298462,-0.613281,0.0829468,0.784912
450560125862,-0.0330811,-0.623779,0.0509033,0.779236
450560149009,-0.0140381,-0.641724,0.0147095,0.766663
450560163323,0.00958252,-0.673218,-0.0221558,0.739014
450560185835,0.0396729,-0.700867,-0.0598755,0.709656
450560209030,0.0734863,-0.707275,-0.103088,0.695496
450560230095,0.107971,-0.70166,-0.137634,0.690735
450560245881,0.130249,-0.683777,-0.140625,0.704041
450560269001,0.135986,-0.665466,-0.114563,0.724976
450560283381,0.11438,-0.655701,-0.083313,0.741638
450560305875,0.0703735,-0.644226,-0.0444946,0.760254
450560329007,0.0186768,-0.633606,0.00128174,0.773438
450560350101,-0.0394897,-0.615051,0.0418091,0.786377
450560365934,-0.0884399,-0.569336,0.0783081,0.813599
450560389048,-0.123779,-0.507996,0.0895996,0.847656
450560410058,-0.173462,-0.457825,0.148621,0.859192
450560425883,-0.16626,-0.478516,0.150757,0.848877
450560449060,-0.166809,-0.468933,0.135437,0.856689
450560470176,-0.170776,-0.459961,0.125793,0.862183
450560485928,-0.178833,-0.419189,0.119385,0.88208
450560509009,-0.183472,-0.379822,0.117798,0.898987
450560530110,-0.189819,-0.357544,0.121338,0.906311
450560545907,-0.194946,-0.361938,0.131409,0.902039
450560569057,-0.195801,-0.375,0.144775,0.89447
450560590089,-0.192566,-0.379578,0.155273,0.891479
450560605958,-0.191284,-0.374268,0.160339,0.893066
450560629107,-0.192993,-0.369385,0.165161,0.89386
450560650118,-0.196899,-0.371094,0.176025,0.890198
450560665889,-0.198364,-0.380066,0.185974,0.884094
450560688816,-0.19873,-0.394287,0.19751,0.875244
450560710078,-0.199463,-0.409607,0.207458,0.865662
450560725846,-0.200256,-0.422058,0.216736,0.857178
450560749061,-0.199341,-0.432068,0.216431,0.852478
450560770087,-0.199585,-0.445862,0.219727,0.844421
450560794089,-0.200989,-0.465942,0.227478,0.831116
450560809088,-0.200378,-0.483521,0.235229,0.81897
450560830112,-0.196838,-0.498474,0.24115,0.809082
450560845871,-0.192322,-0.508728,0.246338,0.802185
450560868487,-0.188843,-0.510071,0.24707,0.801941
450560890109,-0.185974,-0.505432,0.24176,0.807129
450560905969,-0.184875,-0.497437,0.22998,0.815735
450560928400,-0.183044,-0.487976,0.213928,0.826172
450560950202,-0.179199,-0.478271,0.195007,0.837341
450560974045,-0.168945,-0.465027,0.173767,0.851501
450560988379,-0.150452,-0.445129,0.145813,0.870605
450561011525,-0.126099,-0.417175,0.107361,0.893616
450561025870,-0.102966,-0.380005,0.0601196,0.917236
450561048415,-0.0914917,-0.339172,0.0223389,0.935974
450561071633,-0.0787354,-0.312378,0.00183105,0.946655
450561085861,-0.0759277,-0.289917,-0.0119629,0.953918
450561116559,-0.0762939,-0.269287,-0.0240479,0.959717
450561131687,-0.069519,-0.25647,-0.0366821,0.963318
450561160181,-0.0690918,-0.225891,-0.0564575,0.970032
450561168440,-0.0740356,-0.196289,-0.0726929,0.975037
450561199055,-0.0756226,-0.155579,-0.0938721,0.980408
450561205906,-0.0765381,-0.109863,-0.114014,0.984375
450561228343,-0.0674438,-0.0570679,-0.125671,0.988098
450561251683,-0.0578613,-0.00854492,-0.134155,0.989197
450561272739,-0.0453491,0.039917,-0.130005,0.989624
450561295207,-0.0327759,0.0771484,-0.114075,0.989929
450561311546,-0.0249634,0.110291,-0.100708,0.988464
450561332609,-0.02771,0.140869,-0.0897827,0.985535
450561348415,-0.036438,0.163147,-0.0828857,0.982422
450561371633,-0.0412598,0.173584,-0.074585,0.981079
450561392772,-0.0494995,0.18811,-0.0701904,0.978333
450561408422,-0.0484009,0.21875,-0.0819702,0.971069
450561438995,-0.0409546,0.246338,-0.100403,0.963074
450561452634,-0.0345459,0.264648,-0.11731,0.956543
450561468341,-0.0405273,0.281982,-0.125305,0.950317
450561491543,-0.0481567,0.292786,-0.123352,0.946899
450561512621,-0.0484619,0.311218,-0.110229,0.942627
450561528422,-0.0563965,0.338379,-0.0896606,0.934998
450561541965,-0.0692749,0.361572,-0.0656128,0.927429
450561564466,-0.0749512,0.376892,-0.0488281,0.921875
450561587660,-0.078125,0.386047,-0.0310669,0.918579
450561602019,-0.076416,0.393188,-0.0137939,0.916138
450561624491,-0.0740356,0.395203,-0.00146484,0.915588
450561647717,-0.0738525,0.403259,0.010376,0.911987
450561661979,-0.0836182,0.411682,0.0325317,0.90686
450561684414,-0.0853882,0.417236,0.0576782,0.902893
450561707622,-0.0811157,0.421021,0.0804443,0.89978
450561721903,-0.0703125,0.433289,0.0949707,0.893433
450561744423,-0.0649414,0.452087,0.100769,0.88385
450561767722,-0.0658569,0.472229,0.106384,0.872498
450561782034,-0.0491943,0.492004,0.108826,0.862305
450561804521,-0.0305786,0.511597,0.121155,0.850037
450561827685,-0.0224609,0.526123,0.132629,0.839661
450561842059,-0.0109253,0.529724,0.15564,0.833618
450561864520,0.00427246,0.531677,0.17572,0.828491
450561887735,0.0222168,0.535583,0.18457,0.82373
450561901991,0.0384521,0.545227,0.18573,0.816528
450561924564,0.0511475,0.56012,0.184265,0.805969
450561947720,0.057373,0.574402,0.191467,0.793701
450561962044,0.0541992,0.58197,0.208679,0.784058
450561984459,0.0476074,0.58429,0.235413,0.775146
450562008286,0.0485229,0.584229,0.268372,0.764343
450562022022,0.0662842,0.587463,0.293335,0.751221
450562044492,0.0862427,0.59552,0.301697,0.739441
450562067685,0.111328,0.600464,0.301758,0.731995
450562081990,0.128418,0.598694,0.301819,0.730652
450562104484,0.133118,0.589111,0.306152,0.735779
450562127731,0.136047,0.581238,0.315735,0.737488
450562141985,0.138367,0.579407,0.32605,0.734009
450562164526,0.142822,0.582275,0.332825,0.727783
450562187720,0.147217,0.583313,0.337891,0.723755
450562202049,0.153503,0.582092,0.343018,0.721008
450562224508,0.15564,0.575073,0.350769,0.722412
450562247709,0.157898,0.567444,0.35968,0.723633
450562262015,0.164368,0.563843,0.362732,0.72345
450562284445,0.171082,0.563171,0.356995,0.725281
450562307751,0.177795,0.5625,0.345703,0.729675
450562321901,0.185059,0.559631,0.333313,0.735779
450562344503,0.189148,0.553223,0.325867,0.742859
450562375778,0.192322,0.547424,0.32196,0.748047
450562381931,0.196838,0.54425,0.315979,0.751709
450562404453,0.201965,0.543823,0.305115,0.755188
450562427657,0.206299,0.546936,0.290466,0.757507
450562442055,0.211365,0.550781,0.275208,0.758972
450562465991,0.217773,0.55304,0.262878,0.759949
450562487704,0.226257,0.553101,0.257812,0.759155
450562501989,0.235352,0.549255,0.258972,0.758789
450562524497,0.245544,0.544006,0.259216,0.759277
450562549133,0.255676,0.539612,0.255188,0.760437
450562561975,0.265076,0.534729,0.249817,0.76239
450562584494,0.268799,0.528992,0.246887,0.766113
450562607627,0.269531,0.524353,0.251526,0.767456
450562630116,0.268494,0.523743,0.260681,0.765198
450562644448,0.26593,0.526001,0.269653,0.761414
450562667597,0.262024,0.53064,0.275635,0.757446
450562681944,0.258667,0.535278,0.278931,0.754089
450562704418,0.258057,0.538025,0.281311,0.751465
450562727618,0.259888,0.538574,0.282593,0.75
450562741899,0.263,0.537476,0.283813,0.749207
450562764426,0.266541,0.535828,0.283203,0.749329
450562787686,0.268555,0.534546,0.278931,0.75116
450562803409,0.269714,0.535095,0.271606,0.753052
450562824586,0.270996,0.535583,0.263428,0.755127
450562847720,0.2724,0.535645,0.256897,0.756836
450562862068,0.273499,0.535156,0.254211,0.75769
450562884457,0.274658,0.533997,0.253601,0.758301
450562907691,0.275269,0.532959,0.25293,0.758972
450562922065,0.275452,0.532471,0.250183,0.760193
450562944515,0.277039,0.532776,0.245667,0.760864
450562966948,0.279053,0.533752,0.240662,0.761047
450562981983,0.280701,0.534119,0.238281,0.760986
450563004409,0.28241,0.533813,0.237122,0.760864
450563027038,0.283081,0.534058,0.236389,0.760681
450563042033,0.283447,0.535767,0.235535,0.759644
450563064511,0.283508,0.537659,0.234314,0.758667
450563087008,0.284302,0.538879,0.232788,0.757935
450563102044,0.285461,0.538757,0.231567,0.757996
450563124607,0.286133,0.537537,0.231506,0.758606
450563147081,0.286255,0.536804,0.23175,0.758972
450563161984,0.285828,0.537354,0.231445,0.75885
450563184538,0.285583,0.538391,0.229919,0.758728
450563207010,0.286316,0.53833,0.228943,0.758789
450563221991,0.286804,0.537109,0.229919,0.759155
450563244454,0.286438,0.534973,0.231995,0.760132
450563266898,0.286743,0.534119,0.234131,0.759949
450563281933,0.286926,0.535583,0.23468,0.758728
450563320946,0.286255,0.537292,0.235107,0.757629
450563335776,0.285156,0.538086,0.236206,0.757141
450563342045,0.283997,0.538452,0.237488,0.756897
450563364536,0.283569,0.538696,0.238525,0.756531
450563387053,0.283569,0.539185,0.238831,0.756104
450563402036,0.28363,0.539673,0.237915,0.756042
450563425984,0.283508,0.540222,0.236389,0.756165
450563447002,0.283936,0.540527,0.235352,0.756104
450563462106,0.284973,0.539795,0.234802,0.756409
450563484463,0.286133,0.538025,0.23468,0.757324
450563506954,0.286743,0.53656,0.234192,0.75824
450563521919,0.286682,0.536194,0.233154,0.75885
450563544551,0.28595,0.536865,0.231995,0.759033
450563567079,0.285522,0.537292,0.231201,0.759094
450563590176,0.286194,0.536987,0.230286,0.759338
450563604557,0.287231,0.536194,0.229736,0.759705
450563627094,0.287964,0.535339,0.229431,0.760071
450563642041,0.288879,0.534973,0.22876,0.760193
450563664521,0.290283,0.535034,0.227478,0.76001
450563680929,0.291992,0.534424,0.225952,0.760193
450563701940,0.293823,0.53302,0.224243,0.761047
450563724453,0.295227,0.53125,0.223083,0.762085
450563741596,0.296326,0.529602,0.222595,0.762939
450563763402,0.297852,0.528259,0.221313,0.763611
450563784484,0.299805,0.526611,0.21936,0.764587
450563801031,0.301147,0.524292,0.218018,0.766052
450563823513,0.300659,0.521851,0.218933,0.767639
450563844563,0.298889,0.519775,0.220276,0.769348
450563867001,0.296265,0.520264,0.223206,0.769165
450563890221,0.293579,0.521545,0.224915,0.768799
450563904533,0.29126,0.522583,0.225098,0.768921
450563926990,0.289856,0.522461,0.224487,0.769775
450563943467,0.289917,0.519531,0.223206,0.772095
450563964565,0.290344,0.515503,0.222778,0.77478
450563987002,0.290527,0.511292,0.223145,0.777344
450564003402,0.290588,0.507507,0.223816,0.779602
450564024529,0.291321,0.50415,0.225586,0.781006
450564047089,0.292542,0.501038,0.228455,0.781738
450564063513,0.291199,0.498596,0.237,0.78125
450564084554,0.284363,0.499268,0.254761,0.77771
450564106973,0.273804,0.505188,0.277405,0.769897
450564123561,0.261108,0.512878,0.295593,0.76239
450564144579,0.249634,0.521606,0.30426,0.756958
450564167066,0.241394,0.526672,0.307251,0.754883
450564183513,0.237976,0.525513,0.308838,0.756104
450564204483,0.238647,0.51947,0.311646,0.758972
450564227065,0.239685,0.512573,0.315857,0.761536
450564243409,0.239258,0.507874,0.319397,0.763367
450564264589,0.236206,0.506165,0.321777,0.764465
450564287080,0.232117,0.506958,0.323669,0.764343
450564303436,0.226807,0.508118,0.326538,0.763977
450564324592,0.221863,0.507996,0.330872,0.763611
450564347059,0.217529,0.506653,0.3349,0.764038
450564363526,0.214966,0.505371,0.338257,0.76416
450564384593,0.212891,0.503906,0.342224,0.763916
450564407079,0.212158,0.500854,0.345764,0.764526
450564423508,0.211975,0.498474,0.349304,0.764526
450564444536,0.209778,0.498047,0.354126,0.763123
450564467056,0.207275,0.498901,0.358337,0.761353
450564483517,0.206299,0.498779,0.362366,0.759766
450564504534,0.20752,0.497742,0.366699,0.757996
450564527073,0.210938,0.494751,0.371216,0.756836
450564543444,0.214661,0.490295,0.377991,0.755371
450564564619,0.216064,0.486816,0.386536,0.752869
450564586972,0.215271,0.485901,0.393311,0.750183
450564605012,0.213074,0.487061,0.396973,0.748108
450564624502,0.210266,0.488892,0.398987,0.746643
450564646976,0.208313,0.490295,0.401672,0.744812
450564663440,0.207458,0.490295,0.404846,0.743347
450564686003,0.206909,0.489014,0.407837,0.742737
450564707016,0.205261,0.487671,0.409302,0.743225
450564723449,0.202698,0.486816,0.409485,0.744385
450564745976,0.200195,0.486084,0.409302,0.745605
450564760898,0.199036,0.486267,0.40979,0.745605
450564783550,0.19751,0.48584,0.412476,0.744812
450564805969,0.195984,0.483826,0.415161,0.744995
450564827118,0.19574,0.482605,0.415466,0.745667
450564843465,0.194885,0.483887,0.41333,0.746277
450564866033,0.192871,0.484741,0.411804,0.74707
450564887042,0.192139,0.483765,0.411072,0.748291
450564903548,0.192383,0.482117,0.4104,0.749695
450564925993,0.192566,0.481873,0.409241,0.750366
450564942466,0.192871,0.481934,0.407593,0.751221
450564963467,0.193787,0.481262,0.405945,0.752258
450564985974,0.195618,0.480591,0.403992,0.753296
450565002417,0.197876,0.480103,0.402405,0.753845
450565023415,0.200806,0.47876,0.401672,0.754333
450565045935,0.203552,0.476807,0.400635,0.755371
450565066981,0.204712,0.475769,0.399902,0.756104
450565083463,0.205078,0.476013,0.399597,0.755981
450565105162,0.205139,0.476318,0.399597,0.755798
450565127755,0.205078,0.475952,0.40033,0.755676
450565142776,0.205261,0.475586,0.400574,0.755737
450565165257,0.204834,0.474915,0.400574,0.756287
450565187702,0.203674,0.474487,0.401001,0.756592
450565202741,0.202087,0.474548,0.402771,0.756042
450565225210,0.20166,0.473572,0.405029,0.755554
450565247765,0.201233,0.473328,0.406189,0.755249
450565262675,0.200684,0.473328,0.405701,0.755615
450565285260,0.200562,0.473145,0.404114,0.756592
450565307635,0.200562,0.472778,0.402771,0.757568
450565322676,0.200867,0.472839,0.401428,0.758179
450565345127,0.202026,0.472961,0.399963,0.758606
450565367744,0.204041,0.472839,0.398376,0.758972
450565382761,0.206665,0.471924,0.397156,0.75946
450565405212,0.208923,0.470093,0.39624,0.760437
450565427745,0.210571,0.468201,0.39563,0.761475
450565442683,0.211182,0.467102,0.394958,0.762329
450565465187,0.210999,0.466736,0.393188,0.763489
450565487797,0.210693,0.46637,0.391296,0.764771
450565502649,0.210449,0.465881,0.39032,0.765625
450565525210,0.210266,0.46521,0.390198,0.766174
450565547721,0.209656,0.464783,0.390503,0.766418
450565562689,0.208374,0.464722,0.391235,0.766418
450565585154,0.20636,0.465271,0.391846,0.766357
