timestamp,roll,pitch,yaw
54514874936,2.56692,1.42158,2.48271
54514912462,2.55842,1.42045,2.47196
54514943050,2.5624,1.42056,2.47552
54514943828,2.55684,1.41941,2.47204
54514952468,2.53599,1.4163,2.45532
54514964893,2.50271,1.41268,2.42655
54514988016,2.45829,1.40838,2.38314
54515003896,2.4087,1.40538,2.33385
54515024914,2.36095,1.40143,2.28641
54515048143,2.32123,1.39759,2.24582
54515063806,2.28752,1.38943,2.21138
54515085006,2.23969,1.40156,2.15231
54515108075,2.27578,1.40268,2.19099
54515130661,2.28613,1.40421,2.20761
54515145469,2.29172,1.40425,2.21563
54515168079,2.29247,1.40698,2.2135
54515183854,2.28906,1.41122,2.20403
54515204957,2.28924,1.41712,2.19863
54515227830,2.28928,1.42338,2.19434
54515243890,2.31615,1.42803,2.22107
54515264971,2.33116,1.42985,2.23372
54515287429,2.35727,1.43237,2.25844
54515303804,2.35664,1.43574,2.25454
54515324944,2.35618,1.43801,2.25155
54515347424,2.37279,1.4449,2.26703
54515370585,2.37863,1.45185,2.27495
54515384928,2.44804,1.46294,2.34346
54515407381,2.57214,1.47446,2.46199
54515430565,2.66045,1.49123,2.53904
54515444835,2.98009,1.51183,2.85242
54515467372,2.97656,1.48657,2.84991
54515490587,2.91894,1.4908,2.79625
54515504893,2.8666,1.4934,2.74678
54515527435,2.87824,1.49489,2.75601
54515550511,2.90254,1.49636,2.77895
54515564872,2.92636,1.49489,2.80114
54515587394,2.93768,1.49439,2.81044
54515603872,2.96156,1.49505,2.83342
54515626310,2.95287,1.4969,2.82368
54515647356,2.9401,1.49761,2.81055
54515663845,2.94439,1.50173,2.81546
54515686345,2.94381,1.5085,2.81515
54515707401,2.93813,1.51078,2.80711
54515723814,2.95729,1.51342,2.82381
54515746354,2.98583,1.51496,2.84885
54515767359,2.96617,1.51847,2.8305
54515783812,3.02218,1.52031,2.88359
54515806844,2.93781,1.53135,2.79532
54515827359,2.89572,1.53382,2.73874
54515850543,2.81561,1.53864,2.64378
54515866315,2.69838,1.53298,2.51794
54515887385,2.63947,1.53233,2.45442
54515909889,2.6094,1.53324,2.41499
54515926381,2.65316,1.53056,2.45144
54515947369,2.70852,1.5273,2.4982
54515969908,2.70802,1.52695,2.48651
54515986296,2.63466,1.53115,2.4187
54516007412,2.5575,1.53467,2.34413
54516029905,2.53639,1.53576,2.32195
54516046286,2.61621,1.53673,2.4001
54516067373,2.60787,1.53468,2.39207
54516083847,2.62978,1.53446,2.41239
54516106320,2.61778,1.53489,2.4019
54516127400,2.6044,1.53373,2.3887
54516143869,2.61068,1.53491,2.39402
54516166286,2.59354,1.53751,2.37649
54516187416,2.58918,1.53546,2.37241
54516203805,2.58791,1.53589,2.3719
54516226376,2.59305,1.53558,2.37708
54516247385,2.5547,1.53612,2.33946
54516263869,2.58044,1.53174,2.36276
54516286348,2.53905,1.53437,2.32091
54516307419,2.55162,1.53228,2.33464
54516329921,2.59848,1.53364,2.38042
54516347845,2.59434,1.53285,2.37805
54516367359,2.5773,1.53506,2.35906
54516383893,2.57064,1.53277,2.35359
54516406323,2.53859,1.53579,2.32183
54516427344,2.53884,1.53339,2.32167
54516443878,2.53884,1.53339,2.32167
54516466315,2.53104,1.53429,2.31533
54516487391,2.50973,1.5338,2.29411
54516503803,2.46331,1.5333,2.24941
54516526319,2.50209,1.53514,2.28704
54516548861,2.52144,1.53162,2.30621
54516563851,2.47599,1.53377,2.26037
54516586342,2.52626,1.53294,2.31159
54516608871,2.52422,1.53285,2.30877
54516625348,2.53885,1.52982,2.32399
54516646340,2.50064,1.53314,2.28757
54516668871,2.5158,1.53151,2.30222
54516685278,2.54333,1.53285,2.32788
54516707874,2.56248,1.52974,2.34682
54516728844,2.5194,1.53221,2.30488
54516745348,2.55224,1.53161,2.33701
54516766310,2.53062,1.53218,2.3161
54516788035,2.54057,1.53026,2.32561
54516804468,2.531,1.53229,2.31646
54516825593,2.54275,1.53286,2.3281
54516848084,2.5262,1.5322,2.31168
54516864546,2.53094,1.53372,2.31613
54516885568,2.52623,1.53312,2.31072
54516908056,2.54765,1.53078,2.33176
54516923874,2.55104,1.53307,2.33554
54516945558,2.55066,1.53084,2.33558
54516968062,2.52131,1.53418,2.30886
54516984464,2.52191,1.53494,2.3085
54517005584,2.53575,1.53154,2.32379
54517028132,2.5182,1.53329,2.30673
54517044537,2.46891,1.53222,2.25932
54517065524,2.47276,1.53441,2.26606
54517088075,2.51174,1.53486,2.29998
54517110566,2.37895,1.54078,2.15739
54517125584,2.36871,1.54173,2.14167
54517148044,2.36413,1.5426,2.13624
54517170531,2.28474,1.54283,2.05305
54517185567,2.2595,1.54279,2.02263
54517208070,2.21751,1.54387,1.97909
54517230656,2.07576,1.54789,1.83842
54517245591,2.1303,1.54534,1.88735
54517268102,2.12983,1.54564,1.88834
54517284511,2.20067,1.54473,1.95708
54517305546,2.22942,1.54432,1.98517
54517328099,2.31707,1.54398,2.07291
54517344528,2.21279,1.54389,1.96573
54517365573,2.2402,1.54308,1.99037
54517388019,2.21764,1.5427,1.96857
54517404535,2.24999,1.54135,2.00031
54517425604,2.15244,1.54353,1.90263
54517455569,2.33191,1.54202,2.07867
54517463859,2.49411,1.53936,2.2399
54517485565,2.31746,1.54594,2.06406
54517508088,2.39292,1.54125,2.14199
54517530628,2.44052,1.53736,2.18995
54517546991,2.49601,1.53787,2.24216
54517568059,2.51692,1.53443,2.25669
54517583858,2.49296,1.5346,2.22675
54517607017,2.47677,1.53403,2.20796
54517628098,2.4911,1.53448,2.221
54517652079,2.48576,1.53494,2.21561
54517667140,2.47123,1.53673,2.20091
54517688106,2.41391,1.53835,2.14519
54517703878,2.37895,1.53825,2.11286
54517727031,2.41099,1.53739,2.14575
54517748128,2.34236,1.53913,2.08013
54517763883,2.36183,1.53767,2.10179
54517787030,2.31553,1.54074,2.05657
54517808164,2.31455,1.54065,2.05421
54517823954,2.28975,1.54092,2.02734
54517847066,2.30226,1.54066,2.03788
54517868097,2.30139,1.54314,2.03357
54517883882,2.27983,1.54458,2.00999
54517907041,2.30247,1.54275,2.03211
54517928159,2.31369,1.54165,2.04275
54517943882,2.30683,1.54206,2.03588
54517967114,2.29026,1.54095,2.0187
54517988150,2.29026,1.54095,2.0187
54518003946,2.29666,1.54374,2.02498
54518027071,2.31434,1.54164,2.04214
54518048215,2.34661,1.5393,2.07391
54518063975,2.30339,1.54201,2.02353
54518087119,2.15478,1.54469,1.871
54518108192,2.19577,1.5453,1.90902
54518123912,2.16185,1.54167,1.87469
54518147065,2.22002,1.5436,1.93157
54518168139,2.19451,1.54128,1.90553
54518183972,2.21106,1.54343,1.92199
54518207101,2.17189,1.54102,1.88233
54518228706,2.15847,1.54413,1.86938
54518243927,2.16048,1.54463,1.87136
54518267042,2.16048,1.54463,1.87136
54518288175,2.16706,1.5446,1.87794
54518303972,2.14919,1.54522,1.86003
54518327125,2.15273,1.54423,1.86421
54518348192,2.2182,1.54347,1.92961
54518363949,2.23522,1.54494,1.94539
54518387101,2.26856,1.54163,1.97645
54518408140,2.24414,1.54399,1.95199
54518423937,2.24496,1.54311,1.95225
54518446438,2.21605,1.54273,1.92519
54518468217,2.2626,1.54329,1.97292
54518483921,2.24047,1.54394,1.95076
54518506468,2.23951,1.5413,1.94928
54518529626,2.27346,1.54063,1.98326
54518543905,2.2514,1.5443,1.96169
54518566434,2.25361,1.54481,1.96388
54518589592,2.23761,1.54327,1.9467
54518603972,2.20063,1.54423,1.91199
54518626479,2.23081,1.54298,1.94716
54518649627,2.1235,1.54566,1.84535
54518663923,2.31359,1.54374,2.02436
54518686488,2.47866,1.53715,2.18577
54518709600,2.32226,1.54212,2.03488
54518723885,2.25618,1.54514,1.96677
54518746426,2.44587,1.53761,2.15414
54518777171,2.37154,1.54359,2.08009
54518790656,2.31933,1.54265,2.02897
54518806380,2.30884,1.54284,2.01832
54518829607,2.31197,1.54167,2.02107
54518843885,2.22485,1.54269,1.93635
54518866400,2.23714,1.54586,1.94916
54518889647,2.17952,1.54548,1.89275
54518903942,2.25908,1.54116,1.97063
54518926484,2.1547,1.54388,1.86677
54518949587,2.18817,1.54579,1.90141
54518963954,2.14011,1.54524,1.85279
54518986449,2.12684,1.54253,1.83852
54519009706,2.23269,1.54226,1.94685
54519030740,2.2541,1.53947,1.96069
54519046511,2.24417,1.54056,1.93915
54519069583,2.16177,1.54104,1.85486
54519090656,2.15263,1.54678,1.84135
54519106402,1.8996,1.54738,1.58401
54519129593,1.77546,1.55111,1.45429
54519150692,1.6782,1.54953,1.3563
54519166479,1.83821,1.55213,1.5142
54519189627,1.90717,1.55087,1.57943
54519210615,1.82597,1.54767,1.49183
54519226452,1.67891,1.5537,1.33826
54519249627,1.84454,1.54701,1.49916
54519270678,1.91004,1.55189,1.56523
54519286466,1.87546,1.55018,1.53228
54519309659,1.86443,1.5507,1.52074
54519330621,2.08281,1.54619,1.73669
54519346447,2.11092,1.54477,1.76387
54519368932,2.17562,1.5451,1.826
54519390653,2.23947,1.54228,1.88837
54519406424,2.23614,1.54222,1.88506
54519428959,2.25021,1.54115,1.89803
54519459619,2.27038,1.54455,1.91828
54519466502,2.25628,1.54338,1.90459
54519488972,2.21642,1.54414,1.86579
54519512069,2.22829,1.54601,1.87752
54519526481,2.31853,1.54566,1.9669
54519548959,2.2958,1.54263,1.94304
54519572054,2.19154,1.54396,1.84187
54519586457,2.2416,1.54182,1.89151
54519608937,2.24148,1.54215,1.89067
54519632113,2.28064,1.54269,1.93315
54519646414,2.25561,1.54098,1.90889
54519668981,2.26589,1.54411,1.92129
54519692089,2.28225,1.54379,1.94705
54519713203,2.34456,1.54037,2.01854
54519729013,2.20525,1.5369,1.88588
54519752811,2.11074,1.53807,1.79084
54519773222,2.20142,1.53975,1.87981
54519788974,2.18284,1.54116,1.86009
54519812047,2.15065,1.54109,1.82629
54519826455,2.14856,1.53827,1.8238
54519848940,2.14198,1.54148,1.81761
54519872077,2.13569,1.54167,1.81184
54519886497,2.12584,1.53951,1.80263
54519908937,2.12548,1.53954,1.80173
54519939676,2.10691,1.54045,1.78307
54519953160,2.13698,1.54101,1.81253
54519969027,2.15085,1.54287,1.82632
54519992109,2.12851,1.5406,1.80299
54520013178,2.13353,1.54105,1.80745
54520028967,2.1237,1.54117,1.79761
54520052105,2.1237,1.54117,1.79761
54520073204,2.12989,1.54115,1.8038
54520088931,2.13065,1.54071,1.80456
54520112202,2.11789,1.54377,1.79222
54520133207,2.11819,1.54077,1.79211
54520149000,2.11819,1.54077,1.79211
54520172120,2.14393,1.54048,1.81787
54520193147,2.14245,1.54104,1.8169
54520208974,2.16265,1.54135,1.83872
54520232149,2.19163,1.5397,1.8699
54520253213,2.22017,1.54041,1.89953
54520268937,2.21919,1.54083,1.89855
54520292116,2.22464,1.54079,1.904
54520314629,2.20624,1.53912,1.8862
54520328146,2.21173,1.53908,1.89169
54520342597,2.19238,1.53913,1.87292
54520365038,2.20322,1.54169,1.88368
54520388191,2.21171,1.54002,1.89115
54520402472,2.23963,1.53801,1.91804
54520424991,2.2396,1.53785,1.9175
54520448204,2.24757,1.53772,1.92493
54520462545,2.25238,1.54039,1.93022
54520485034,2.25238,1.54039,1.93022
54520508243,2.2527,1.53769,1.93007
54520522557,2.25433,1.5394,1.93166
54520545054,2.25536,1.539,1.93269
54520568272,2.25433,1.5394,1.93166
54520582602,2.25465,1.53678,1.9315
54520605029,2.25731,1.53806,1.93412
54520628235,2.26241,1.53802,1.93922
54520642510,2.26241,1.53802,1.93922
54520665016,2.26427,1.53848,1.94107
54520688185,2.26902,1.54121,1.9463
54520702535,2.26934,1.53844,1.94614
54520725084,2.26934,1.53844,1.94614
54520748176,2.27438,1.53839,1.95119
54520762541,2.27438,1.53839,1.95119
54520785113,2.27438,1.53839,1.95119
54520808148,2.26802,1.53942,1.94478
54520822556,2.26802,1.53942,1.94478
54520845052,2.28211,1.53827,1.95839
54520868217,2.28211,1.53827,1.95839
54520882587,2.28708,1.53823,1.96336
54520905067,2.28708,1.53823,1.96336
54520928259,2.28708,1.53823,1.96336
54520942482,2.28708,1.53823,1.96336
54520965031,2.28708,1.53823,1.96336
54520988215,2.28741,1.53569,1.9632
54521002532,2.286,1.53725,1.96178
54521025061,2.29358,1.53714,1.96883
54521048214,2.31463,1.53826,1.98979
54521062551,2.321,1.53855,1.99564
54521085014,2.33913,1.53795,2.01315
54521108155,2.30669,1.54198,1.98173
54521122562,2.27615,1.53836,1.95077
54521145091,2.27724,1.53796,1.95186
54521168263,2.28751,1.54052,1.96158
54521182586,2.29829,1.53655,1.97087
54521205034,2.3103,1.53902,1.98287
54521228234,2.31645,1.53915,1.98899
54521242565,2.31679,1.53655,1.98881
54521265060,2.31467,1.53885,1.98674
54521288221,2.41549,1.54,2.08432
54521302564,2.37416,1.53994,2.04237
54521325016,2.37647,1.53862,2.04425
54521347486,2.37219,1.5361,2.03939
54521362531,2.36416,1.53608,2.03138
54521385053,2.36506,1.53875,2.03229
54521407574,2.35141,1.53841,2.0181
54521422579,2.35002,1.53748,2.0162
54521445053,2.34714,1.53667,2.01278
54521467630,2.34591,1.53892,2.01157
54521482584,2.34074,1.53866,2.00634
54521505032,2.34074,1.53866,2.00634
54521527581,2.33661,1.53961,2.00222
54521542589,2.3324,1.53918,1.99749
54521565107,2.34406,1.53874,2.00811
54521587628,2.34042,1.53815,2.00299
54521602506,2.35393,1.53722,2.01499
54521625115,2.34865,1.53781,2.0087
54521647570,2.35451,1.53851,2.01352
54521662592,2.33679,1.53715,1.99374
54521685129,2.34177,1.53822,1.99664
54521707590,2.36082,1.53965,2.01419
54521722573,2.40481,1.5387,2.05299
54521745051,2.44581,1.54323,2.09039
54521767561,2.44063,1.54456,2.08259
54521782649,2.50702,1.54515,2.14505
54521805074,2.25722,1.55334,1.89025
54521827538,2.21977,1.54938,1.84665
54521842560,2.43834,1.54853,2.06266
54521865107,2.12946,1.55751,1.74926
54521887579,3.14087,1.54994,2.77191
54521902578,2.09625,1.55648,1.72798
54521925143,1.02986,1.54991,0.687467
54521947556,1.94264,1.5483,1.60407
54521962591,2.24967,1.54725,1.90219
54521985089,2.66221,1.54543,2.30595
54522007568,2.7784,1.52614,2.42075
54522022627,2.57359,1.54211,2.21679
54522045080,-3.04584,1.53608,2.86848
54522067581,-2.8379,1.54666,3.0727
54522082491,-2.01034,1.54159,-2.37772
54522105088,-1.56281,1.53657,-1.92982
54522127588,-1.33872,1.53906,-1.69327
54522142617,-1.27119,1.53434,-1.62408
54522173230,-0.603764,1.54293,-0.962102
54522187576,-0.195026,1.54406,-0.541766
54522202613,-0.268983,1.53695,-0.601396
54522225109,-0.170157,1.52712,-0.487895
54522247542,-0.334877,1.50768,-0.642499
54522264032,-0.256925,1.53097,-0.565024
54522285076,-0.13546,1.53444,-0.441474
54522307610,-0.243646,1.5108,-0.544807
54522324012,-0.394405,1.52669,-0.699995
54522345116,-0.506103,1.52344,-0.821284
54522367645,-0.936876,1.53728,-1.25472
54522384034,-0.60879,1.53343,-0.929714
54522405150,-0.98549,1.54139,-1.31076
54522427558,-1.61137,1.54563,-1.94556
54522451576,-1.58049,1.53627,-1.9315
54522465054,-2.10311,1.54111,-2.45867
54522487546,-2.14657,1.54528,-2.50471
54522504050,-1.70239,1.5548,-2.05686
54522525093,-0.262137,1.55695,-0.599651
54522547575,-0.392289,1.55034,-0.731643
54522564055,1.4579,1.55382,1.12591
54522585132,0.668992,1.55896,0.340318
54522607660,2.27212,1.55051,1.94
54522624074,1.9135,1.5496,1.57492
54522645106,1.5065,1.55659,1.16019
54522667609,0.802976,1.56384,0.45472
54522683975,2.25213,1.55481,1.90506
54522705134,0.451363,1.5516,0.115368
54522727553,0.703116,1.5404,0.373111
54522744024,0.458018,1.53886,0.134927
54522765053,1.28652,1.54998,0.966398
54522787554,1.1913,1.55173,0.880894
54522803987,0.654205,1.54375,0.352833
54522825123,0.903916,1.54387,0.602518
54522847582,0.950076,1.54143,0.653117
54522864055,0.949782,1.54225,0.6595
54522885042,1.26684,1.54976,0.976075
54522907645,1.38884,1.55263,1.08948
54522924076,2.01769,1.55135,1.71047
54522945102,2.04111,1.54966,1.72981
54522975801,2.25026,1.55066,1.93695
54522984033,1.9747,1.55156,1.66403
54523005104,1.82714,1.55301,1.52069
54523027602,1.546,1.55712,1.24411
54523043978,1.26457,1.55327,0.969755
54523065106,1.41732,1.55256,1.12306
54523087660,1.30613,1.55118,1.01713
54523104056,1.14626,1.55584,0.859787
54523125049,1.31112,1.55557,1.02553
54523147626,1.35445,1.55424,1.06871
54523164043,1.50762,1.55441,1.22146
54523186512,1.6972,1.55308,1.40988
54523207614,1.87615,1.55537,1.58732
54523224076,1.76001,1.55535,1.47159
54523246526,1.75154,1.55632,1.46246
54523267590,1.99556,1.5541,1.70397
54523285477,2.07201,1.55356,1.77896
54523306483,2.16535,1.55496,1.8718
54523327605,2.27208,1.55299,1.97888
54523344050,2.24866,1.55379,1.95557
54523366606,2.26316,1.55376,1.97005
54523387583,2.31627,1.55319,2.02234
54523403973,2.33011,1.55316,2.03618
54523426575,2.35396,1.55191,2.05917
54523447694,2.38679,1.55564,2.09257
54523464077,2.3706,1.5543,2.07552
54523486569,2.43324,1.55443,2.13753
54523507624,2.49907,1.55398,2.20207
54523524111,2.53965,1.55365,2.24135
54523546576,2.53275,1.55742,2.23452
54523567672,2.68161,1.55667,2.38093
54523591514,2.72667,1.55424,2.42235
54523606582,2.68844,1.55292,2.38098
54523627583,2.73482,1.55556,2.42765
54523644050,2.76792,1.55176,2.45842
54523666515,2.83751,1.55472,2.52689
54523687611,2.80388,1.55598,2.4942
54523704054,2.81232,1.55259,2.50061
54523726596,2.77518,1.55836,2.46576
54523747585,2.78458,1.55831,2.47518
54523764014,2.78385,1.5528,2.47176
54523786568,2.8024,1.55353,2.49066
54523807677,2.92657,1.55119,2.61499
54523824080,-2.73325,1.55544,-3.04753
54523846602,-2.54596,1.55338,-2.86345
54523868270,-2.41656,1.55437,-2.73467
54523883308,-2.11096,1.55722,-2.43159
54523905820,-2.20516,1.54986,-2.53059
54523928275,-2.14291,1.55123,-2.46853
54523943330,-2.04022,1.5539,-2.36724
54523965817,-2.07264,1.55587,-2.39894
54523988330,-2.1841,1.54936,-2.51274
54524003288,-2.09864,1.55532,-2.42527
54524025846,-2.25591,1.55109,-2.58353
54524048305,-2.23255,1.55066,-2.56064
54524063321,-2.32549,1.55127,-2.6528
54524085786,-2.31106,1.55475,-2.63713
54524108127,-2.40385,1.55057,-2.73156
54524123269,-2.38843,1.55009,-2.71668
54524145715,-2.40364,1.55387,-2.73005
54524168257,-2.39576,1.55079,-2.72378
54524184671,-2.41096,1.55473,-2.73713
54524205801,-2.3748,1.55885,-2.69999
54524228340,-2.37962,1.55232,-2.7072
54524244679,-2.38954,1.55769,-2.71497
54524265783,-2.39605,1.55306,-2.72336
54524288255,-2.40567,1.55876,-2.73083
54524304701,-2.40475,1.55302,-2.73202
54524325718,-2.41414,1.5587,-2.73928
54524348303,-2.41899,1.55222,-2.74651
54524364709,-2.41899,1.55222,-2.74651
54524385840,-2.43453,1.55296,-2.76178
54524409767,-2.43453,1.55296,-2.76178
54524424750,-2.44246,1.55291,-2.76967
54524445800,-2.44246,1.55291,-2.76967
54524468320,-2.45689,1.55746,-2.78224
54524484777,-2.45596,1.55211,-2.78341
54524505740,-2.46324,1.55289,-2.79045
54524528267,-2.47066,1.55284,-2.79783
54524544745,-2.47066,1.55284,-2.79783
54524565811,-2.48367,1.55204,-2.81107
54524588345,-2.48367,1.55204,-2.81107
54524604752,-2.49874,1.5584,-2.82378
54524625784,-2.49781,1.55277,-2.82493
54524648286,-2.49781,1.55277,-2.82493
54524664733,-2.50454,1.55272,-2.83163
54524685759,-2.50454,1.55272,-2.83163
54524708378,-2.51204,1.55825,-2.83704
54524724753,-2.51112,1.55266,-2.83816
54524745812,-2.52415,1.55713,-2.84938
54524768247,-2.52323,1.55187,-2.85049
54524784679,-2.53021,1.55264,-2.85725
54524805825,-2.53634,1.55259,-2.86333
54524828091,-2.53634,1.55259,-2.86333
54524844689,-2.53634,1.55259,-2.86333
54524865774,-2.47066,1.55284,-2.79783
54524888301,-2.63259,1.55488,-2.95842
54524904721,-2.85243,1.55649,3.10804
54524925814,-2.97946,1.55573,2.97946
54524948304,-3.01517,1.55455,2.94237
54524964733,-3.00732,1.5508,2.94557
54524985762,-3.01438,1.55417,2.93913
54525008310,-3.01549,1.56047,2.94207
54525024740,-3.02466,1.55202,2.92901
54525045817,-3.07495,1.55645,2.88192
54525068287,-3.04806,1.55208,2.90459
54525084100,-2.97585,1.55472,2.97585
54525105784,-2.92916,1.55492,3.02339
54525128283,-2.93632,1.55109,3.0141
54525144029,-2.93824,1.55384,3.01035
54525167200,-2.8737,1.55646,3.07277
54525188312,-2.38917,1.55983,-2.72933
54525204128,-1.61348,1.55442,-1.95543
54525227320,-0.518658,1.55897,-0.85429
54525248198,-0.0891713,1.55546,-0.428822
54525264130,-0.0391921,1.55413,-0.381182
54525287198,-0.0988964,1.55095,-0.439561
54525308269,-0.135944,1.55721,-0.480346
54525324067,-0.116235,1.54912,-0.457648
54525347261,-0.118827,1.55015,-0.461837
54525368334,-0.113441,1.54845,-0.456121
54525384065,-0.0421964,1.53929,-0.385922
54525407212,-0.029222,1.53617,-0.377234
54525428284,-0.0303512,1.5272,-0.379045
54525444085,-0.0571958,1.5172,-0.409554
54525467274,-0.0947502,1.50527,-0.453139
54525488265,-0.0977521,1.49548,-0.457632
54525504101,-0.0834187,1.48311,-0.442224
54525527243,-0.0846924,1.46492,-0.448631
54525548281,-0.108584,1.44808,-0.478451
54525564078,-0.14654,1.42749,-0.523334
54525587254,-0.155362,1.40198,-0.542062
54525608304,-0.137435,1.37463,-0.534452
54525624085,-0.127527,1.35078,-0.529912
54525647269,-0.117579,1.3229,-0.523052
54525668316,-0.120395,1.29767,-0.529806
54525684117,-0.117447,1.26578,-0.529328
54525707299,-0.113801,1.23203,-0.526257
54525728369,-0.106887,1.19714,-0.525698
54525744086,-0.0904266,1.15944,-0.52145
54525767239,-0.0846065,1.12019,-0.522121
54525788338,-0.0792987,1.07034,-0.524622
54525804104,-0.076654,1.01277,-0.536307
54525827252,-0.0670868,0.952952,-0.547601
54525848362,-0.0503928,0.896302,-0.550515
54525864048,-0.0310847,0.847754,-0.551099
54525887279,-0.0121632,0.805236,-0.550584
54525908260,8.0042e-05,0.773769,-0.549505
54525924108,0.00793449,0.747907,-0.549799
54525947272,0.0122484,0.723677,-0.554184
54525968082,0.00736445,0.69861,-0.560623
54525984059,-0.0024211,0.670472,-0.570154
54526006605,-0.0160045,0.646868,-0.58604
54526028335,-0.0307678,0.619178,-0.592259
54526044105,-0.0410577,0.592188,-0.597251
54526066652,-0.045396,0.564105,-0.605784
54526089743,-0.0510985,0.537147,-0.614076
54526104126,-0.0577755,0.502817,-0.622248
54526126590,-0.0619482,0.463908,-0.633837
54526149783,-0.064663,0.422027,-0.642154
54526164115,-0.0644245,0.380731,-0.649113
54526201573,-0.0567597,0.342059,-0.649308
54526208314,-0.0525851,0.306692,-0.643978
54526232244,-0.0504728,0.272964,-0.641554
54526269083,-0.0458825,0.243148,-0.647218
54526269952,-0.0449252,0.217381,-0.655882
54526284742,-0.0428929,0.188058,-0.664481
54526320833,-0.0407779,0.154319,-0.669084
54526337263,-0.0435675,0.110447,-0.670591
54526351626,-0.0501633,0.0677988,-0.677036
54526373359,-0.0541385,0.0279025,-0.690037
54526398573,-0.0589725,-0.00144069,-0.697516
54526410844,-0.0566593,-0.0217358,-0.70829
54526426563,-0.0498238,-0.0416788,-0.718742
54526449844,-0.0388213,-0.0688368,-0.734469
54526470826,-0.0246939,-0.0899258,-0.75079
54526486696,-0.0114834,-0.110426,-0.768484
54526509785,-0.00227222,-0.122772,-0.772823
54526530848,-0.00499296,-0.124544,-0.76833
54526546629,-0.010938,-0.132524,-0.75706
54526569739,-0.00690239,-0.148917,-0.751915
54526590939,0.00184797,-0.16554,-0.749822
54526606620,0.00444187,-0.1727,-0.750306
54526629758,-0.0024924,-0.188173,-0.746122
54526650863,-0.00244735,-0.188288,-0.746133
54526666576,0.00702376,-0.184044,-0.749767
54526689822,0.0297533,-0.173327,-0.759318
54526710945,0.0577531,-0.201468,-0.77193
54526726922,0.0796792,-0.206848,-0.781908
54526749807,0.070819,-0.17127,-0.785378
54526771305,0.0840511,-0.128201,-0.797364
54526786612,0.107404,-0.0928244,-0.802971
54526809816,0.112563,-0.0791304,-0.804698
54526830836,0.107069,-0.0836216,-0.792736
54526846629,0.107727,-0.103688,-0.787884
54526869738,0.131316,-0.101227,-0.806349
54526890921,0.106483,-0.0902619,-0.819197
54526906583,0.0692112,-0.108354,-0.834796
54526929804,0.0704869,-0.126396,-0.837338
54526950816,0.062004,-0.143567,-0.840923
54526966620,0.0558984,-0.153924,-0.839015
54526989096,0.0545627,-0.151348,-0.846126
54527012262,0.0533387,-0.158573,-0.855728
54527026613,0.0529851,-0.14334,-0.870528
54527049179,0.0692463,-0.125977,-0.890372
54527072304,0.108843,-0.113786,-0.922072
54527086662,0.122428,-0.112227,-0.944467
54527109068,0.115982,-0.110234,-0.955018
54527132289,0.121987,-0.124537,-0.96028
54527146609,0.132185,-0.117331,-0.963717
54527169171,0.130882,-0.101718,-0.962109
54527192331,0.119578,-0.092595,-0.956286
54527206653,0.112014,-0.0920086,-0.945762
54527229152,0.10386,-0.0888569,-0.936831
54527252272,0.0906266,-0.065765,-0.94155
54527273339,0.0869656,-0.0521263,-0.950139
54527289137,0.0894786,-0.0263883,-0.95312
54527312292,0.0772519,-0.00596077,-0.939892
54527333327,0.0715112,-0.00621187,-0.921575
54527349075,0.0854343,-0.020849,-0.885775
54527379861,0.0944343,-0.0369387,-0.842519
54527393350,0.0974618,-0.0544173,-0.79013
54527408388,0.110913,-0.0598607,-0.755928
54527422723,0.106814,-0.0523606,-0.729534
54527445190,0.0841739,-0.0611396,-0.732922
54527468382,0.0600761,-0.0824495,-0.767951
54527482695,0.0568655,-0.0718261,-0.821365
54527505206,0.0443571,-0.0599864,-0.87785
54527528391,0.0232728,-0.0492469,-0.927687
54527542706,0.0103429,-0.0445616,-0.957626
54527565303,-0.0029039,-0.0344829,-0.980542
54527588377,-0.0154166,-0.0390864,-0.988136
54527602729,-0.0334291,-0.0319921,-0.981863
54527625204,-0.0577346,-0.0424154,-0.965952
54527647679,-0.0683694,-0.0755929,-0.945702
54527679855,-0.0719762,-0.0985729,-0.929959
54527694899,-0.076708,-0.114591,-0.919238
54527715642,-0.0866486,-0.129871,-0.913451
54527727082,-0.134932,-0.142007,-0.894686
54527745163,-0.172826,-0.173243,-0.886
54527768334,-0.202469,-0.210467,-0.875242
54527782692,-0.239906,-0.246258,-0.875198
54527805153,-0.266164,-0.277275,-0.874677
54527827638,-0.284588,-0.304065,-0.868472
54527850916,-0.306937,-0.319313,-0.85875
54527874862,-0.320481,-0.344941,-0.847679
54527897269,-0.31197,-0.374897,-0.837316
54527926668,-0.306084,-0.405221,-0.823443
54527927331,-0.299198,-0.430037,-0.800475
54527948417,-0.283152,-0.454838,-0.770847
54527962701,-0.262974,-0.480676,-0.756772
54527985176,-0.258799,-0.5008,-0.729735
54528008325,-0.290493,-0.528764,-0.701411
54528022634,-0.310532,-0.55044,-0.682629
54528045212,-0.30142,-0.570344,-0.670831
54528068356,-0.266344,-0.589071,-0.665799
54528082700,-0.217512,-0.616283,-0.657578
54528105171,-0.154807,-0.644608,-0.647468
54528128866,-0.102367,-0.668588,-0.659359
54528142719,-0.0631265,-0.701182,-0.681318
54528165294,-0.0425271,-0.722317,-0.717713
54528188385,-0.0244081,-0.749203,-0.755596
54528202763,-0.00261772,-0.782656,-0.793496
54528225179,0.0236635,-0.802479,-0.825174
54528248806,0.0370227,-0.814265,-0.843513
54528262644,0.0552691,-0.838195,-0.846976
54528285243,0.0582325,-0.873921,-0.847625
54528316445,0.0445072,-0.905429,-0.832815
54528322687,0.0460426,-0.932977,-0.831742
54528345140,0.0557274,-0.959543,-0.834012
54528368352,0.0668061,-0.983686,-0.83675
54528382763,0.0696395,-1.01012,-0.836678
54528405278,0.0610109,-1.04509,-0.827328
54528428360,0.060861,-1.06536,-0.816155
54528442731,0.0488255,-1.1026,-0.795776
54528465250,0.0522547,-1.14069,-0.78446
54528488333,0.035924,-1.18421,-0.762478
54528502694,0.00189199,-1.22115,-0.733009
54528525215,-0.046305,-1.25283,-0.687304
54528548407,-0.0781979,-1.27463,-0.667855
54528562678,-0.112332,-1.29873,-0.629533
54528585196,-0.18053,-1.32312,-0.56389
54528608348,-0.223685,-1.34025,-0.517363
54528622710,-0.266371,-1.35838,-0.471132
54528645256,-0.340336,-1.37183,-0.397649
54528668365,-0.414676,-1.39269,-0.32149
54528682702,-0.580239,-1.42226,-0.158298
54528705271,-0.6892,-1.43627,-0.0516034
54528728378,-0.803937,-1.45975,0.0564296
54528742766,-0.899842,-1.50608,0.143333
54528765263,-1.1617,-1.52072,0.403073
54528788398,-1.17032,-1.51759,0.421552
54528802714,-1.14282,-1.51429,0.402666
54528825226,-1.21913,-1.51446,0.481181
54528848432,-1.27444,-1.51807,0.540348
54528862756,-1.26434,-1.52225,0.531755
54528885169,-1.1942,-1.5227,0.457683
54528916617,-0.997263,-1.52437,0.27513
54528922646,-0.914896,-1.51022,0.214981
54528945276,-0.728379,-1.50556,0.0468143
54528967757,-0.670346,-1.5069,0.00145533
54528982737,-0.630113,-1.50375,-0.0290012
54529005222,-0.465239,-1.53274,-0.19831
54529027710,-0.412864,-1.54673,-0.248663
54529042823,-0.872087,-1.547,0.210047
54529065219,-1.00115,-1.5452,0.334294
54529087735,-1.2121,-1.55386,0.551824
54529102710,-1.2038,-1.54779,0.544019
54529125215,-1.19992,-1.54829,0.538587
54529147647,-1.16924,-1.55484,0.508126
54529162759,-1.1559,-1.54692,0.496097
54529185249,-1.0304,-1.55013,0.368091
54529201712,-1.08005,-1.55153,0.419756
54529225619,-1.01132,-1.54554,0.350943
54529245232,-1.03243,-1.55117,0.370773
54529261671,-1.00505,-1.5496,0.344851
54529282727,-1.03812,-1.54563,0.378514
54529305229,-1.01437,-1.55133,0.353085
54529321686,-1.0531,-1.54806,0.39386
54529342700,-1.0445,-1.54672,0.385308
54529365341,-1.07601,-1.54764,0.417277
54529387715,-1.07608,-1.55159,0.415676
54529402714,-1.10336,-1.54782,0.443866
54529425237,-1.10919,-1.55128,0.449081
54529441623,-1.12371,-1.55254,0.463256
54529462678,-1.12451,-1.54667,0.466361
54529485179,-1.13927,-1.54858,0.480812
54529501635,-1.13332,-1.54811,0.475018
54529522672,-1.04496,-1.54492,0.392841
54529545288,-0.750553,-1.53963,0.110104
54529561664,-0.762222,-1.53955,0.123253
54529582761,-0.89401,-1.54798,0.251609
54529605233,-0.694735,-1.54903,0.0439583
54529621640,-0.873248,-1.55631,0.218313
54529642723,-0.868778,-1.54754,0.213388
54529665274,-0.994917,-1.55098,0.33704
54529681675,-1.02359,-1.559,0.36431
54529702699,-1.04935,-1.55347,0.393573
54529725232,-1.06481,-1.55092,0.407206
54529749174,-1.11374,-1.5575,0.454331
54529762763,-1.38617,-1.55755,0.728232
54529785228,-1.71377,-1.55267,1.05739
54529801678,-1.24921,-1.56309,0.601917
54529824266,-1.2888,-1.55163,0.645848
54529845261,-0.888665,-1.55479,0.25111
54529861679,-0.853991,-1.54884,0.222599
54529884241,-0.701089,-1.54863,0.0772301
54529905255,-0.732573,-1.54515,0.114857
54529921668,-0.61251,-1.54808,-0.0142106
54529944180,-0.631834,-1.55056,-0.00808368
54529965300,-0.655326,-1.56322,0.0143523
54529981686,-0.887794,-1.5512,0.250838
54530004186,-0.97292,-1.5486,0.338959
54530025234,-0.865778,-1.54886,0.230428
54530043173,-0.721465,-1.54883,0.0921043
54530064256,-0.750344,-1.54454,0.133461
54530085205,-0.81385,-1.53993,0.208775
54530101635,-0.768745,-1.54418,0.173126
54530124107,-0.782246,-1.55254,0.191109
54530145334,-0.908545,-1.55542,0.319587
54530161650,-1.12944,-1.55728,0.542842
54530184242,-1.35292,-1.55686,0.765393
54530205367,-1.67843,-1.56227,1.08834
54530221690,-1.82944,-1.55932,1.23769
54530244216,-1.95857,-1.55334,1.36661
54530265295,-1.93751,-1.55432,1.34671
54530281646,-1.95417,-1.55009,1.36585
54530304227,-2.02534,-1.54732,1.43739
54530325249,-2.02546,-1.54961,1.43809
54530341698,-2.00516,-1.55145,1.41654
54530364230,-2.02017,-1.55405,1.42922
54530385343,-1.95454,-1.5507,1.36235
54530401745,-1.97644,-1.54741,1.38283
54530424181,-2.02332,-1.54764,1.42676
54530445162,-2.13875,-1.54786,1.5386
54530461671,-2.23554,-1.54823,1.63377
54530484217,-2.21991,-1.55053,1.61917
54530505170,-2.19327,-1.5494,1.59305
54530521639,-2.18725,-1.54586,1.58637
54530544209,-2.21319,-1.54646,1.61251
54530565335,-2.21804,-1.54554,1.61685
54530581677,-2.15561,-1.54953,1.55462
54530604153,-2.05142,-1.55196,1.45025
54530625299,-2.00471,-1.54869,1.40339
54530641669,-2.09362,-1.55022,1.49181
54530664211,-2.11553,-1.55201,1.51331
54530685333,-2.08434,-1.55128,1.48195
54530701711,-2.05927,-1.55186,1.45713
54530724223,-2.13426,-1.55189,1.53287
54530746700,-2.19177,-1.55162,1.59084
54530761775,-2.23665,-1.55069,1.6348
54530784307,-2.23361,-1.55312,1.63329
54530806691,-2.33493,-1.54941,1.73564
54530823150,-2.38162,-1.5467,1.78285
54530844193,-2.40482,-1.5447,1.80487
54530866695,-2.41001,-1.54805,1.81109
54530883142,-2.38116,-1.54904,1.78321
54530904214,-2.33566,-1.54512,1.73958
54530926696,-2.35351,-1.54458,1.75956
54530942398,-2.36318,-1.54826,1.77334
54530963468,-2.35618,-1.54824,1.76886
54530985892,-2.36188,-1.5505,1.77627
54531002335,-2.3617,-1.54705,1.77683
54531023469,-2.36652,-1.54493,1.78263
54531045970,-2.37448,-1.54358,1.79142
54531062401,-2.38179,-1.54494,1.79969
54531083468,-2.41086,-1.5435,1.82874
54531105909,-2.42238,-1.54757,1.84192
54531121702,-2.40528,-1.54359,1.82357
54531143424,-2.39969,-1.5464,1.81814
54531165959,-2.38313,-1.54394,1.80132
54531182372,-2.33946,-1.5457,1.76039
54531203531,-2.36285,-1.54744,1.78806
54531225898,-2.39075,-1.54557,1.81955
54531242410,-2.42566,-1.54456,1.85638
54531263440,-2.44816,-1.54058,1.87823
54531285841,-2.49598,-1.54041,1.92769
54531302287,-2.49642,-1.54179,1.92863
54531323392,-2.58623,-1.54068,2.01676
54531345956,-2.69121,-1.53984,2.1226
54531362441,-2.71502,-1.53948,2.14709
54531383464,-2.76925,-1.53388,2.19948
54531405882,-2.95503,-1.53068,2.39164
54531428395,-3.07733,-1.5245,2.52276
54531443391,-2.94641,-1.52673,2.40127
54531465869,-2.8252,-1.52542,2.29358
54531488363,-2.43381,-1.52703,1.92517
54531503374,-2.39775,-1.52186,1.90398
54531525874,-2.38626,-1.53227,1.90072
54531548402,-2.97879,-1.52026,2.49793
54531563383,-3.01551,-1.50918,2.56196
54531585913,3.0512,-1.49066,2.77812
54531608429,2.92166,-1.479,2.90653
54531623360,2.90997,-1.47782,2.91928
54531645941,3.05826,-1.48749,2.77882
54531668415,-3.00779,-1.49783,2.58323
54531683417,-2.86558,-1.50091,2.4495
54531705898,-2.86214,-1.49858,2.44979
54531728414,-2.94193,-1.49654,2.53217
54531743414,-3.01565,-1.49344,2.60511
54531765899,-3.00546,-1.493,2.59837
54531781686,-2.89592,-1.49597,2.49599
54531804814,-2.74067,-1.49793,2.3523
54531825872,-2.62142,-1.49547,2.24536
54531841646,-2.54806,-1.49368,2.18367
54531864859,-2.46702,-1.49063,2.11689
54531887316,-2.38276,-1.48985,2.04493
54531901655,-2.25997,-1.49187,1.93319
54531924860,-2.12491,-1.49563,1.80855
54531945948,-2.0413,-1.50082,1.72976
54531961721,-1.9463,-1.50407,1.6424
54531984841,-1.8851,-1.50295,1.58787
54532005860,-1.90789,-1.50712,1.6086
54532021662,-1.92816,-1.51818,1.62375
54532050853,-1.84656,-1.52516,1.5368
54532065885,-1.63314,-1.53023,1.32244
54532081684,-1.39018,-1.5284,1.08263
54532104843,-1.20988,-1.52796,0.90728
54532125949,-1.07661,-1.52433,0.786263
54532141684,-1.03655,-1.52201,0.760763
54532164870,-1.01275,-1.51796,0.749825
54532193423,-0.987997,-1.52124,0.735439
54532201662,-0.978232,-1.52674,0.73369
54532224867,-0.946104,-1.53471,0.704865
54532245951,-0.882436,-1.53898,0.642465
54532261696,-0.813302,-1.54087,0.575011
54532284848,-0.765375,-1.54648,0.528218
54532305920,-0.831598,-1.54608,0.596753
54532321753,-0.926814,-1.54354,0.696651
54532344866,-1.03288,-1.53539,0.809365
54532365904,-1.08341,-1.53047,0.865773
54532381698,-1.09489,-1.52417,0.880639
54532404842,-1.0693,-1.52368,0.85292
54532425913,-1.05247,-1.52467,0.831409
54532441684,-1.05922,-1.52543,0.833404
54532464813,-1.08439,-1.52256,0.856139
54532485883,-1.09435,-1.51803,0.866214
54532501735,-1.1172,-1.51237,0.889107
54532524860,-1.1549,-1.50923,0.927316
54532545942,-1.21903,-1.50314,0.991031
54532561696,-1.25837,-1.49234,1.02782
54532584847,-1.2707,-1.47688,1.03911
54532607844,-1.24952,-1.46021,1.01784
54532621731,-1.21035,-1.44776,0.978034
54532644241,-1.17664,-1.44294,0.942886
54532665923,-1.1556,-1.44883,0.920136
54532681698,-1.17025,-1.45909,0.929609
54532704190,-1.20584,-1.46794,0.960217
54532727402,-1.25041,-1.47145,1.00654
54532741688,-1.2838,-1.47226,1.04442
54532764192,-1.29008,-1.47184,1.05315
54532787350,-1.25061,-1.47151,1.01751
54532801671,-1.21178,-1.47127,0.984649
54532824164,-1.2024,-1.4692,0.985513
54532847321,-1.19812,-1.46432,1.00226
54532868440,-1.16565,-1.45689,1.00174
54532884197,-1.09612,-1.44825,0.962073
54532907339,-1.01468,-1.44261,0.904412
54532921705,-0.91717,-1.43922,0.834956
54532944168,-0.848307,-1.43892,0.792686
54532967312,-0.841552,-1.44308,0.802972
54532988226,-0.887051,-1.44652,0.859973
54533012379,-0.950128,-1.44586,0.928852
54533027362,-0.978673,-1.44495,0.955235
54533048428,-0.954516,-1.44217,0.924153
54533064221,-0.913958,-1.43952,0.874077
54533087351,-0.902511,-1.44022,0.846276
54533108468,-0.910577,-1.44353,0.832273
54533124272,-0.926638,-1.4464,0.827055
54533147359,-0.926408,-1.44689,0.810195
54533168433,-0.915509,-1.44476,0.789002
54533184183,-0.903614,-1.44209,0.771537
54533207387,-0.905654,-1.43955,0.770504
54533228441,-0.915655,-1.43962,0.780227
54533244241,-0.916792,-1.43981,0.785565
54533267394,-0.903228,-1.44014,0.778695
54533288515,-0.879335,-1.43994,0.762806
54533304189,-0.85979,-1.43619,0.749874
54533327394,-0.855395,-1.43298,0.747982
54533348448,-0.858756,-1.43294,0.750609
54533364258,-0.860048,-1.4331,0.748979
54533387397,-0.851366,-1.43306,0.737262
54533408462,-0.837175,-1.43108,0.721997
54533424219,-0.828426,-1.42827,0.712565
54533447399,-0.830018,-1.42707,0.712773
54533468416,-0.835278,-1.42804,0.717191
54533484192,-0.839088,-1.4303,0.721089
54533507389,-0.843282,-1.43191,0.725962
54533528504,-0.85586,-1.42875,0.742522
54533544313,-0.865424,-1.42022,0.765941
54533567447,-0.882862,-1.41292,0.801014
54533588513,-0.90274,-1.40773,0.829987
54533604237,-0.916823,-1.40942,0.842069
54533626763,-0.957541,-1.41872,0.875989
54533648490,-1.07529,-1.43076,0.979033
54533664272,-1.29062,-1.44083,1.16502
54533686755,-1.55301,-1.44052,1.39273
54533709686,-1.81022,-1.43543,1.61568
54533724276,-2.01908,-1.42551,1.78845
54533746807,-2.16652,-1.41807,1.89171
54533769948,-2.2878,-1.41633,1.96265
54533784267,-2.44821,-1.41743,2.06974
54533806698,-2.64351,-1.4197,2.217
54533830398,-2.81517,-1.41735,2.35711
54533844320,-2.90327,-1.41334,2.43112
54533866804,-2.8824,-1.41313,2.4107
54533889913,-2.79385,-1.41283,2.33651
54533904262,-2.6996,-1.4142,2.26771
54533934881,-2.63422,-1.42018,2.23325
54533949911,-2.58911,-1.43023,2.223
54533971006,-2.59223,-1.44148,2.25909
54533986808,-2.61329,-1.45152,2.31112
54534009915,-2.59167,-1.45652,2.31776
54534030983,-2.50556,-1.45478,2.25134
54534046797,-2.41837,-1.44706,2.17189
54534069992,-2.37458,-1.43795,2.12752
54534091034,-2.37933,-1.43097,2.12014
54534106809,-2.41822,-1.42665,2.13929
54534129667,-2.44403,-1.42365,2.14731
54534150958,-2.44374,-1.42198,2.13568
54534166760,-2.40828,-1.42347,2.09447
54534189925,-2.35375,-1.42254,2.04375
54534210985,-2.30379,-1.42027,2.00286
54534226783,-2.28697,-1.41636,1.99344
54534249971,-2.29046,-1.4132,2.00101
54534271039,-2.2929,-1.41157,2.00608
54534286809,-2.28236,-1.41083,1.99713
54534309902,-2.27231,-1.40919,1.98734
54534330933,-2.27464,-1.40682,1.98871
54534346756,-2.28058,-1.40499,1.99251
54534369996,-2.27239,-1.40254,1.98284
54534390992,-2.22694,-1.40037,1.9399
54534406808,-2.13705,-1.39653,1.859
54534429970,-2.04191,-1.39122,1.77236
54534450915,-1.97985,-1.38868,1.71679
54534466746,-1.9659,-1.39193,1.70795
54534480283,-1.97678,-1.39753,1.71961
54534502785,-1.99463,-1.4027,1.73442
54534526015,-2.01333,-1.40409,1.74986
54534548532,-2.0277,-1.4033,1.76413
54534562861,-2.04314,-1.40262,1.77923
54534586098,-2.04568,-1.40293,1.78028
54534600325,-2.02406,-1.403,1.75811
54534622885,-1.97351,-1.39967,1.71079
54534646021,-1.90422,-1.39362,1.64717
54534661783,-1.86258,-1.38655,1.61175
54534682865,-1.83784,-1.3829,1.59014
54534706048,-1.83262,-1.38274,1.58385
54534720327,-1.83823,-1.38633,1.58462
54534742861,-1.84618,-1.3906,1.58709
54534766021,-1.85756,-1.39514,1.59436
54534780347,-1.86679,-1.3964,1.60236
54534802943,-1.86988,-1.39632,1.60615
54534826034,-1.86782,-1.39627,1.60409
54534840360,-1.86054,-1.39838,1.59519
54534862910,-1.85136,-1.40116,1.58376
54534886001,-1.84352,-1.40317,1.57533
54534900384,-1.83732,-1.40293,1.57068
54534922866,-1.83279,-1.40168,1.56931
54534946081,-1.82942,-1.40069,1.56916
54534960360,-1.82786,-1.40087,1.56977
54534982951,-1.82582,-1.4021,1.56958
54535006066,-1.8181,-1.40261,1.56476
54535021907,-1.80954,-1.40055,1.56115
54535042890,-1.80474,-1.39837,1.56172
54535066103,-1.81987,-1.40068,1.58064
54535080423,-1.8557,-1.40559,1.61695
54535102940,-1.90117,-1.41392,1.66126
54535126035,-1.93914,-1.42178,1.69906
54535140354,-1.93634,-1.4267,1.7026
54535164345,-1.92702,-1.42843,1.70217
54535186074,-1.9393,-1.43039,1.71936
54535200387,-2.01044,-1.43482,1.78782
54535222872,-2.14594,-1.44362,1.91449
54535246104,-2.3102,-1.45209,2.06636
54535260328,-2.41563,-1.45588,2.16436
54535282952,-2.42174,-1.45719,2.16913
54535305961,-2.37539,-1.45535,2.11963
54535320360,-2.33247,-1.45732,2.07321
54535342882,-2.31435,-1.46307,2.05939
54535365954,-2.28123,-1.47218,2.03787
54535380397,-2.23597,-1.48459,2.01039
54535402912,-2.14666,-1.4983,1.94519
54535425360,-1.9322,-1.50964,1.77053
54535440384,-1.6877,-1.51521,1.55955
54535462912,-1.4711,-1.5213,1.37357
54535486026,-1.40342,-1.53125,1.33069
54535500455,-1.4812,-1.54453,1.39709
54535522884,-1.76093,-1.5648,1.65649
54535546018,-3.07759,-1.56388,2.96257
54535560336,3.11022,-1.55756,3.04025
54535582908,-2.88414,-1.56618,2.73644
54535605415,-1.91069,-1.55846,1.75971
54535620504,-1.22292,-1.5502,1.07875
54535642870,-1.22893,-1.56692,1.0927
54535674189,2.88764,-1.52444,-3.01684
54535680384,2.94524,-1.48665,-3.08787
54535702879,3.01963,-1.45599,3.10528
54535725376,3.10276,-1.42571,3.0359
54535740381,-3.09976,-1.4023,2.98433
54535762920,-2.96092,-1.40574,2.87446
54535785364,-2.75492,-1.43252,2.68533
54535800391,-2.66616,-1.47398,2.58663
54535822921,-2.92277,-1.51425,2.83792
54535845443,2.65365,-1.54436,-2.73986
54535860419,-3.08064,-1.53531,2.97258
54535882954,-2.85211,-1.49119,2.73571
54535905372,-2.60756,-1.47486,2.48043
54535920361,-1.92995,-1.50967,1.791
54535942952,-1.5101,-1.51409,1.41835
54535965435,-1.61963,-1.52688,1.51321
54535983286,-1.6701,-1.52478,1.58053
54536002948,-1.42068,-1.4931,1.33981
54536025406,-1.59954,-1.47374,1.47666
54536040441,-1.74898,-1.45548,1.61625
54536062904,-1.94976,-1.44097,1.80969
54536085346,-2.1665,-1.43014,1.9987
54536100419,-2.34119,-1.42863,2.17083
54536122907,-2.50431,-1.43464,2.35352
54536145442,-2.6247,-1.439,2.4853
54536160412,-2.63026,-1.45261,2.50317
54536182907,-2.5867,-1.47065,2.46886
54536205376,-2.56628,-1.48604,2.47025
54536223265,-2.64567,-1.49921,2.57474
54536242905,-2.76364,-1.50848,2.70047
54536265388,-2.82992,-1.51032,2.75953
54536280424,-2.81004,-1.50959,2.74066
54536302947,-2.77931,-1.50725,2.72093
54536325478,-2.72152,-1.50989,2.68127
54536340316,-2.62583,-1.51989,2.60538
54536362909,-2.47728,-1.53133,2.47012
54536385386,-2.31081,-1.53792,2.30856
54536400367,-2.06637,-1.54793,2.06948
54536422941,-1.84239,-1.55154,1.85189
54536445465,-1.46334,-1.55785,1.48198
54536461883,-0.578643,-1.55296,0.606717
54536482909,-0.0696904,-1.54767,0.101548
54536505431,0.0711534,-1.53971,-0.0479459
54536521859,-0.0257835,-1.53635,0.0245751
54536542911,-0.177752,-1.53733,0.154667
54536565469,-0.205366,-1.54071,0.186529
54536581897,-0.0534794,-1.54833,0.0545152
54536602858,0.284684,-1.56752,-0.26829
54536625443,1.42031,-1.5708,-1.40631
54536641898,-2.86088,-1.5596,2.85381
54536662903,-2.90321,-1.54484,2.87377
54536685299,-2.96993,-1.53247,2.9326
54536701899,-3.0498,-1.52894,3.02753
54536722932,3.12525,-1.52767,-3.12171
54536745324,3.001,-1.52783,-2.98089
54536761871,2.9117,-1.52707,-2.88623
54536782939,2.89521,-1.52886,-2.86791
54536805489,2.86368,-1.531,-2.83259
54536821818,2.78547,-1.52865,-2.74771
54536842947,2.71287,-1.52284,-2.67337
54536865451,2.67115,-1.51988,-2.63436
54536881855,2.6176,-1.52028,-2.5859
54536902882,2.53607,-1.52508,-2.50562
54536925465,2.41462,-1.52771,-2.37723
54536941903,2.2807,-1.5295,-2.23321
54536962893,2.1709,-1.52959,-2.11626
54536985380,2.15595,-1.52958,-2.1013
54537001852,2.16794,-1.52833,-2.11794
54537022915,2.19289,-1.52751,-2.14654
54537045388,2.21727,-1.5233,-2.17286
54537061856,2.24619,-1.52232,-2.20282
54537082947,2.25655,-1.52337,-2.21214
54537105449,2.23911,-1.5278,-2.19208
54537121913,2.2095,-1.52826,-2.15976
54537142906,2.21424,-1.52808,-2.164
54537165427,2.26106,-1.52498,-2.21467
54537181858,2.34152,-1.52455,-2.30208
54537211103,2.40571,-1.52157,-2.37117
54537225465,2.44704,-1.51837,-2.41233
54537241807,2.45354,-1.5171,-2.41529
54537262806,2.43422,-1.51657,-2.39344
54537285441,2.40313,-1.51788,-2.36181
54537301944,2.37728,-1.52219,-2.33629
54537322876,2.36066,-1.52083,-2.31876
54537345421,2.35547,-1.52122,-2.31171
54537361902,2.35783,-1.51766,-2.31262
54537384353,2.3612,-1.51747,-2.3155
54537405379,2.36371,-1.51651,-2.31964
54537421906,2.35656,-1.51877,-2.31548
54537444394,2.35561,-1.51992,-2.3167
54537465416,2.35515,-1.51785,-2.31612
54537481859,2.3505,-1.51605,-2.31008
54537504336,2.34118,-1.51473,-2.29919
54537525419,2.32501,-1.51544,-2.28114
54537541901,2.3054,-1.51542,-2.25993
54537564383,2.28778,-1.5123,-2.2407
54537585454,2.28589,-1.51375,-2.23885
54537601899,2.27404,-1.51243,-2.22713
54537624262,2.26522,-1.51498,-2.21748
54537645402,2.26345,-1.51465,-2.21386
54537661873,2.26425,-1.51594,-2.21268
54537684360,2.25839,-1.51754,-2.20477
54537705474,2.25955,-1.51696,-2.20492
54537721871,2.27402,-1.52004,-2.22076
54537744406,2.29207,-1.52107,-2.24089
54537765485,2.30026,-1.51971,-2.24901
54537781893,2.30368,-1.51857,-2.25011
54537804318,2.29398,-1.51463,-2.23513
54537828310,2.26719,-1.51141,-2.20182
54537841885,2.2361,-1.50847,-2.16663
54537864332,2.21294,-1.50785,-2.14173
54537885411,2.19726,-1.51011,-2.12524
54537901812,2.19047,-1.51095,-2.12018
54537924338,2.18743,-1.51155,-2.11914
54537945429,2.17645,-1.50917,-2.1067
54537961853,2.16014,-1.50813,-2.08641
54537991832,2.14201,-1.5079,-2.06347
