timestamp,x,y,z,w
284876800696,-0.388916,-0.233032,-0.0240479,0.890991
284876821902,-0.389709,-0.231384,-0.024353,0.891052
284876844494,-0.391418,-0.231384,-0.0255127,0.890259
284876859479,-0.392944,-0.231689,-0.0263672,0.889526
284876874492,-0.393188,-0.231995,-0.0263672,0.889282
284876897042,-0.392639,-0.232605,-0.026123,0.889404
284876919596,-0.391174,-0.233765,-0.0258179,0.889771
284876967688,-0.389526,-0.23584,-0.0252075,0.889954
284876969839,-0.387512,-0.238098,-0.024353,0.890259
284876983477,-0.385925,-0.23999,-0.0233154,0.890442
284876998402,-0.384521,-0.241455,-0.0224609,0.890686
284877020887,-0.38324,-0.242859,-0.0222168,0.890869
284877042117,-0.381348,-0.243958,-0.0223999,0.891357
284877063088,-0.377991,-0.244385,-0.0217285,0.8927
284877091849,-0.372742,-0.244751,-0.0202637,0.894836
284877102687,-0.366821,-0.245544,-0.0184326,0.897095
284877122521,-0.360596,-0.246887,-0.0167236,0.899292
284877136877,-0.35553,-0.248535,-0.0159302,0.900879
284877160097,-0.351929,-0.250061,-0.0161743,0.901855
284877182442,-0.348816,-0.251282,-0.0167236,0.90271
284877196856,-0.346191,-0.252258,-0.0175781,0.903442
284877220074,-0.345886,-0.253418,-0.0198364,0.903198
284877242557,-0.348877,-0.253967,-0.0238647,0.901794
284877256904,-0.353577,-0.254761,-0.027771,0.899597
284877279989,-0.355896,-0.25531,-0.0299683,0.898438
284877302505,-0.354919,-0.254456,-0.0302734,0.899109
284877316827,-0.353882,-0.252869,-0.0300293,0.899963
284877340017,-0.355469,-0.251709,-0.0304565,0.899658
284877362489,-0.358276,-0.250793,-0.0315552,0.898743
284877376868,-0.360046,-0.249634,-0.0325928,0.898315
284877400139,-0.360901,-0.247986,-0.0325317,0.898438
284877422534,-0.359802,-0.246277,-0.031311,0.899353
284877436842,-0.358643,-0.244812,-0.0301514,0.900269
284877459417,-0.357971,-0.243835,-0.0290527,0.900879
284877475804,-0.358032,-0.242004,-0.0266724,0.901428
284877496851,-0.353455,-0.238342,-0.0211182,0.904297
284877519357,-0.342651,-0.235046,-0.0125732,0.909485
284877542484,-0.331604,-0.23291,-0.00421143,0.914185
284877556805,-0.325012,-0.232605,0.00244141,0.916626
284877579276,-0.320374,-0.233093,0.00775146,0.918152
284877603966,-0.316895,-0.234009,0.0123291,0.919067
284877616835,-0.312561,-0.234924,0.0183716,0.920166
284877639326,-0.304138,-0.235535,0.0263062,0.922668
284877662462,-0.29657,-0.236694,0.0335693,0.924622
284877678267,-0.294189,-0.239197,0.0389404,0.9245
284877699292,-0.29071,-0.242798,0.043396,0.924438
284877724523,-0.285034,-0.247375,0.0467529,0.924866
284877736777,-0.27948,-0.251709,0.0492554,0.925232
284877759312,-0.277588,-0.255676,0.0506592,0.924683
284877782544,-0.278076,-0.259094,0.0511475,0.923523
284877798356,-0.278442,-0.262268,0.0506592,0.922546
284877819368,-0.279297,-0.265198,0.0491333,0.921509
284877843995,-0.281555,-0.267639,0.0471191,0.920227
284877858284,-0.284668,-0.26886,0.045166,0.919006
284877879417,-0.287598,-0.269348,0.0432739,0.918091
284877902586,-0.29071,-0.269592,0.0411377,0.917114
284877918345,-0.294495,-0.269836,0.0380859,0.915955
284877939416,-0.299866,-0.269592,0.0338745,0.914429
284877962492,-0.307129,-0.268799,0.0287476,0.912476
284877978298,-0.314819,-0.267456,0.0233765,0.9104
284877999261,-0.322083,-0.265869,0.0182495,0.908447
284878022435,-0.328979,-0.264404,0.0137329,0.906433
284878044971,-0.336182,-0.263794,0.0106201,0.903992
284878059276,-0.343445,-0.263611,0.00939941,0.901367
284878081813,-0.350159,-0.263306,0.0100708,0.898865
284878098242,-0.35498,-0.262817,0.0119019,0.897095
284878119336,-0.357849,-0.260864,0.0144653,0.896484
284878141823,-0.360229,-0.257263,0.0176392,0.896484
284878158285,-0.362488,-0.25293,0.0209961,0.896729
284878179281,-0.364502,-0.248108,0.024353,0.897217
284878201818,-0.367554,-0.24231,0.0280762,0.8974
284878218861,-0.371033,-0.235229,0.0325317,0.897705
284878239343,-0.374451,-0.227112,0.0376587,0.898193
284878261784,-0.378845,-0.219116,0.043335,0.898132
284878278225,-0.383728,-0.211304,0.0496826,0.897583
284878299294,-0.388367,-0.203125,0.0569458,0.897034
284878321796,-0.391907,-0.194153,0.0654297,0.896851
284878339024,-0.395447,-0.184814,0.0748901,0.896545
284878359292,-0.399414,-0.175415,0.0849609,0.895813
284878381815,-0.404236,-0.166199,0.0960083,0.894287
284878399691,-0.409546,-0.157227,0.108765,0.892029
284878419319,-0.413635,-0.148193,0.123291,0.889832
284878441807,-0.416687,-0.139648,0.13855,0.887512
284878458273,-0.419495,-0.132446,0.153748,0.884766
284878479264,-0.421387,-0.125488,0.16925,0.88208
284878509983,-0.422241,-0.117798,0.18512,0.879517
284878518247,-0.422974,-0.110474,0.201538,0.876526
284878539324,-0.424011,-0.103333,0.217468,0.873047
284878561817,-0.424927,-0.0952148,0.232422,0.86969
284878578241,-0.425171,-0.0869141,0.246277,0.866577
284878599320,-0.427063,-0.0792847,0.259155,0.862671
284878621780,-0.428284,-0.0723267,0.27179,0.858765
284878638308,-0.429504,-0.06604,0.284424,0.854553
284878659328,-0.429626,-0.0601807,0.296448,0.85083
284878681821,-0.428955,-0.0544434,0.307373,0.847656
284878698278,-0.428589,-0.0481567,0.317505,0.844482
284878720743,-0.427185,-0.0423584,0.327332,0.841736
284878741837,-0.424988,-0.0377197,0.337158,0.839172
284878758300,-0.423584,-0.0346069,0.346375,0.836243
284878780793,-0.422058,-0.0316772,0.354614,0.833679
284878801811,-0.420349,-0.0296631,0.362854,0.831116
284878824302,-0.41864,-0.029541,0.371033,0.828369
284878840772,-0.417603,-0.0311279,0.378296,0.8255
284878861821,-0.417297,-0.0348511,0.384094,0.822815
284878878279,-0.417419,-0.0397949,0.388733,0.820374
284878900804,-0.415833,-0.0446777,0.3927,0.819031
284878921832,-0.414978,-0.0501099,0.395813,0.817627
284878938293,-0.4151,-0.0556641,0.398254,0.81604
284878960771,-0.415161,-0.0609131,0.400452,0.814575
284878981823,-0.414978,-0.0664062,0.402405,0.813293
284878998301,-0.414185,-0.0718384,0.40387,0.8125
284879019978,-0.413696,-0.0768433,0.404358,0.812012
284879042476,-0.413147,-0.0806274,0.403931,0.812134
284879057494,-0.412537,-0.083374,0.403198,0.812561
284879080024,-0.412476,-0.0861206,0.4021,0.812805
284879102446,-0.412415,-0.0881348,0.400696,0.813354
284879117485,-0.413025,-0.0897217,0.399048,0.81366
284879140024,-0.413269,-0.0905151,0.397583,0.814209
284879155686,-0.413086,-0.0909424,0.396484,0.814758
284879177474,-0.41272,-0.0914917,0.395752,0.815247
284879199994,-0.411743,-0.092041,0.395325,0.815918
284879230665,-0.410706,-0.0924683,0.394958,0.816528
284879237496,-0.4104,-0.0930786,0.394592,0.816833
284879259999,-0.409668,-0.0933228,0.394348,0.817261
284879275748,-0.40918,-0.0930786,0.394104,0.817627
284879297481,-0.409424,-0.0932007,0.393982,0.817566
284879320040,-0.409546,-0.0928955,0.394348,0.817383
284879343984,-0.410156,-0.0924072,0.394531,0.817017
284879357446,-0.410095,-0.0915527,0.394714,0.817078
284879380007,-0.410339,-0.0911255,0.39502,0.816833
284879395803,-0.410522,-0.0906982,0.395386,0.816589
284879417499,-0.410522,-0.0904541,0.395935,0.816406
284879440018,-0.410278,-0.0901489,0.396423,0.816284
284879455780,-0.40979,-0.0899658,0.396912,0.816345
284879477497,-0.409241,-0.0900879,0.397156,0.816467
284879500020,-0.40863,-0.090271,0.397156,0.816772
284879515777,-0.408142,-0.0898438,0.397156,0.817078
284879544995,-0.407837,-0.0889282,0.397339,0.8172
284879559991,-0.407471,-0.0881958,0.3974,0.817444
284879576428,-0.406677,-0.0875854,0.397095,0.818054
284879597497,-0.405884,-0.0874634,0.396362,0.818787
284879620028,-0.405701,-0.0880127,0.395691,0.819214
284879643980,-0.405701,-0.0887451,0.395386,0.819214
284879657504,-0.406006,-0.0894165,0.395447,0.81897
284879680023,-0.406433,-0.0899658,0.395386,0.818726
284879695774,-0.406555,-0.0905762,0.395203,0.818726
284879718981,-0.406738,-0.0916138,0.394775,0.818665
284879740012,-0.407593,-0.0924072,0.394348,0.81842
284879755745,-0.40863,-0.0925903,0.394226,0.817932
284879778973,-0.409485,-0.0924072,0.394409,0.817444
284879800029,-0.410095,-0.092041,0.394592,0.817078
284879823971,-0.410706,-0.0918579,0.394714,0.816711
284879838996,-0.411072,-0.0919189,0.394653,0.816528
284879860044,-0.411499,-0.09198,0.394592,0.816406
284879875799,-0.411804,-0.09198,0.39447,0.816284
284879898970,-0.411804,-0.09198,0.39447,0.816284
284879920022,-0.411804,-0.09198,0.39447,0.816284
284879935746,-0.411865,-0.09198,0.39447,0.816223
284879958989,-0.411743,-0.0921631,0.394348,0.816345
284879981479,-0.411499,-0.0921631,0.394287,0.816528
284879995770,-0.411499,-0.0921631,0.394287,0.816467
284880018966,-0.41156,-0.0921631,0.394287,0.816467
284880040040,-0.411926,-0.0922241,0.394226,0.816284
284880062547,-0.411987,-0.0922241,0.394226,0.816284
284880078964,-0.411926,-0.0922241,0.394165,0.816345
284880100017,-0.411865,-0.0923462,0.394226,0.816284
284880115801,-0.411926,-0.0923462,0.394226,0.816284
284880145017,-0.411926,-0.0923462,0.394226,0.816284
284880160018,-0.411926,-0.0923462,0.394226,0.816284
284880175766,-0.411926,-0.0923462,0.394226,0.816284
284880198978,-0.411987,-0.0923462,0.394226,0.816284
284880220060,-0.411987,-0.0923462,0.394226,0.816284
284880235811,-0.412048,-0.0923462,0.394226,0.816223
284880258979,-0.412109,-0.0922241,0.394226,0.816223
284880280023,-0.412109,-0.0922241,0.394287,0.816223
284880295772,-0.412048,-0.0922241,0.394165,0.816284
284880318998,-0.412109,-0.0924683,0.393982,0.816284
284880340055,-0.411987,-0.0924683,0.393738,0.816467
284880355747,-0.411804,-0.0925293,0.393433,0.816711
284880378971,-0.411499,-0.0927124,0.393127,0.817017
284880400059,-0.410828,-0.0928955,0.3927,0.817505
284880415802,-0.410095,-0.0928955,0.391907,0.818298
284880438974,-0.409119,-0.0921631,0.390198,0.819641
284880460031,-0.407959,-0.0911865,0.38739,0.821655
284880482549,-0.406555,-0.0899048,0.383545,0.824341
284880499068,-0.404785,-0.0879517,0.378601,0.827637
284880520041,-0.402405,-0.0861816,0.373047,0.831482
284880542568,-0.39917,-0.0842896,0.366638,0.836121
284880559049,-0.395264,-0.0800781,0.360474,0.841064
284880580037,-0.391052,-0.0727539,0.35498,0.846008
284880602567,-0.387024,-0.0639038,0.349426,0.85083
284880618356,-0.382996,-0.0546265,0.343079,0.855896
284880640075,-0.378723,-0.0454712,0.335815,0.861206
284880664503,-0.374634,-0.0362549,0.32782,0.866516
284880678342,-0.369873,-0.0271606,0.319214,0.87207
284880701486,-0.36499,-0.0184326,0.310181,0.877625
284880722633,-0.360229,-0.0108643,0.300049,0.883179
284880738429,-0.355347,-0.00482178,0.288635,0.888977
284880761520,-0.353271,-0.00140381,0.276062,0.89386
284880782512,-0.351135,0.00201416,0.262634,0.898682
284880798326,-0.348206,0.00549316,0.248535,0.903809
284880821527,-0.346069,0.0067749,0.233154,0.908752
284880842561,-0.345154,0.00415039,0.216187,0.913269
284880858842,-0.344482,0.000854492,0.199524,0.917297
284880881558,-0.340881,-0.000488281,0.184204,0.921875
284880902590,-0.339478,-0.0020752,0.169556,0.925171
284880918383,-0.342834,-0.00518799,0.154724,0.926514
284880949061,-0.344543,-0.00805664,0.141235,0.92804
284880962602,-0.344421,-0.00933838,0.130188,0.929688
284880978354,-0.342834,-0.00805664,0.121338,0.931458
284881001270,-0.343445,-0.00567627,0.113281,0.932251
284881022612,-0.345398,-0.00372314,0.105652,0.932495
284881038402,-0.345947,-0.00177002,0.098938,0.932983
284881061503,-0.346497,0.00109863,0.0929565,0.933411
284881082622,-0.347534,0.00427246,0.0869751,0.933594
284881098848,-0.34845,0.00708008,0.0811768,0.933777
284881121452,-0.347717,0.00909424,0.0759277,0.934448
284881142582,-0.346985,0.0101929,0.0714111,0.935059
284881158430,-0.346497,0.0119629,0.0681763,0.935486
284881181552,-0.344421,0.0147095,0.0665283,0.936279
284881210100,-0.340149,0.017395,0.0664062,0.937805
284881226490,-0.334595,0.0196533,0.0669556,0.939758
284881241589,-0.328918,0.0211792,0.0675659,0.94165
284881262621,-0.324097,0.0212402,0.0678711,0.943359
284881278309,-0.320068,0.0194702,0.0673828,0.944763
284881301508,-0.316162,0.0159912,0.0657349,0.946289
284881324036,-0.312195,0.0113525,0.0630493,0.947815
284881338370,-0.308838,0.0065918,0.0594482,0.949219
284881361570,-0.306274,0.00213623,0.0551147,0.950317
284881382595,-0.304016,-0.00238037,0.0501709,0.951294
284881398380,-0.30481,-0.00738525,0.0450439,0.951294
284881421488,-0.307861,-0.0122681,0.0397949,0.9505
284881442602,-0.311035,-0.0164185,0.0343628,0.949646
284881458385,-0.314758,-0.0194702,0.0292969,0.948486
284881487613,-0.318054,-0.0216064,0.0249634,0.947449
284881502605,-0.321045,-0.022644,0.0219116,0.946533
284881518445,-0.323914,-0.0233765,0.0198975,0.945557
284881541562,-0.32605,-0.0241089,0.0184937,0.944824
284881564007,-0.328003,-0.0253906,0.017334,0.944153
284881578401,-0.330078,-0.0272827,0.0162354,0.943359
284881600914,-0.33197,-0.029541,0.0151978,0.942688
284881624054,-0.33374,-0.0322876,0.0137329,0.942017
284881638383,-0.336853,-0.0356445,0.012085,0.940796
284881660844,-0.340942,-0.0394287,0.0106812,0.939148
284881684026,-0.344727,-0.0428467,0.00952148,0.937683
284881698430,-0.347168,-0.0450439,0.00878906,0.936646
284881720908,-0.349121,-0.0460205,0.00860596,0.935852
284881743986,-0.350647,-0.046875,0.00860596,0.935303
284881766497,-0.352051,-0.0484619,0.00836182,0.934692
284881780874,-0.35083,-0.0495605,0.00823975,0.935059
284881803987,-0.350037,-0.0498657,0.00860596,0.935364
284881818354,-0.351318,-0.0495605,0.00854492,0.934875
284881840816,-0.352234,-0.0499878,0.00775146,0.934509
284881864021,-0.353882,-0.0504761,0.00671387,0.933899
284881892645,-0.357117,-0.0513306,0.00469971,0.932617
284881907642,-0.357544,-0.0523071,0.00402832,0.932434
284881931573,-0.357178,-0.0525513,0.003479,0.932556
284881945116,-0.357483,-0.0521851,0.00305176,0.932434
284881960867,-0.356689,-0.0522461,0.00231934,0.932739
284881984055,-0.354187,-0.0529785,0.0012207,0.933655
284881998382,-0.352356,-0.0535889,-0.000244141,0.934326
284882020884,-0.352478,-0.0531006,-0.00183105,0.934265
284882044091,-0.353455,-0.0515137,-0.00311279,0.934021
284882058429,-0.353577,-0.0498047,-0.00463867,0.934021
284882080873,-0.353882,-0.0484619,-0.00665283,0.934021
284882104056,-0.355774,-0.0476074,-0.0090332,0.933289
284882125086,-0.358337,-0.0463257,-0.0110474,0.932373
284882140847,-0.361206,-0.0438232,-0.012085,0.931335
284882164093,-0.362671,-0.039978,-0.0118408,0.930969
284882185166,-0.362732,-0.0363159,-0.0110474,0.931091
284882208984,-0.361572,-0.0331421,-0.0108032,0.931702
284882223992,-0.361023,-0.0302734,-0.0112305,0.932007
284882245133,-0.361145,-0.0275879,-0.0122681,0.932007
284882260894,-0.362976,-0.0263672,-0.0143433,0.931274
284882284044,-0.367371,-0.0266113,-0.0169067,0.929504
284882305112,-0.370972,-0.0266724,-0.0181274,0.928101
284882320909,-0.37323,-0.0262451,-0.017395,0.927185
284882344006,-0.375549,-0.0249634,-0.0153198,0.926331
284882365123,-0.376587,-0.0234375,-0.0124512,0.925964
284882380940,-0.375732,-0.0217285,-0.00909424,0.926392
284882404048,-0.375427,-0.0198364,-0.00598145,0.926636
284882425108,-0.376526,-0.0182495,-0.00341797,0.926208
284882441527,-0.378723,-0.0178833,-0.000549316,0.925354
284882464020,-0.380981,-0.0183105,0.00299072,0.924377
284882485158,-0.383484,-0.019043,0.00689697,0.92334
284882500937,-0.386963,-0.0194702,0.0117188,0.921814
284882523435,-0.392517,-0.0205078,0.0194702,0.919312
284882545156,-0.391418,-0.0216064,0.0293579,0.919434
284882561381,-0.39032,-0.0216064,0.0394897,0.919556
284882583385,-0.38855,-0.0203857,0.0490723,0.919861
284882606582,-0.387817,-0.0185547,0.0601807,0.919556
284882628402,-0.390076,-0.0177612,0.0733643,0.917664
284882634474,-0.394287,-0.0182495,0.0874634,0.914612
284882656992,-0.396057,-0.0206909,0.101929,0.912292
284882680087,-0.393494,-0.0250854,0.116943,0.911499
284882694440,-0.388794,-0.0304565,0.132812,0.911194
284882725819,-0.383179,-0.0357056,0.14917,0.910828
284882740098,-0.378479,-0.0410156,0.165405,0.90979
284882754365,-0.374634,-0.0466919,0.180664,0.908203
284882776974,-0.370483,-0.0529175,0.19519,0.906555
284882800117,-0.365662,-0.0592651,0.20929,0.904968
284882814430,-0.361145,-0.0655518,0.222961,0.903076
284882836907,-0.356995,-0.0719604,0.236023,0.90094
284882860117,-0.353271,-0.0776367,0.24823,0.898621
284882875936,-0.349976,-0.0828857,0.25946,0.89624
284882896960,-0.347107,-0.0883179,0.269653,0.89386
284882920092,-0.344604,-0.093811,0.278503,0.891541
284882942601,-0.341919,-0.098999,0.285706,0.889709
284882956976,-0.339966,-0.104797,0.291931,0.887817
284882980145,-0.339478,-0.111206,0.297119,0.885498
284882994433,-0.34021,-0.119019,0.300476,0.883057
284883016971,-0.340637,-0.127197,0.302124,0.881165
284883040106,-0.342102,-0.135376,0.302673,0.879211
284883054481,-0.346252,-0.142822,0.302246,0.876526
284883076978,-0.353455,-0.150146,0.300171,0.873169
284883100144,-0.362183,-0.157837,0.296753,0.869385
284883114458,-0.370911,-0.165649,0.293335,0.865356
284883136980,-0.380371,-0.173462,0.290283,0.860779
284883160154,-0.39209,-0.182068,0.287048,0.854797
284883174497,-0.40094,-0.188477,0.285706,0.849731
284883196988,-0.405273,-0.1922,0.288086,0.846069
284883228248,-0.406555,-0.19574,0.293518,0.842712
284883234432,-0.404175,-0.199585,0.300476,0.840576
284883257042,-0.396362,-0.202576,0.309021,0.840393
284883280144,-0.386169,-0.205383,0.318115,0.841125
284883294485,-0.377258,-0.209412,0.327454,0.840576
284883316985,-0.367249,-0.213379,0.336914,0.840271
284883340137,-0.355652,-0.216614,0.346069,0.840698
284883354495,-0.345154,-0.219421,0.354065,0.841003
284883376959,-0.336426,-0.221802,0.361389,0.84082
284883400144,-0.327759,-0.223511,0.368591,0.840637
284883414471,-0.319702,-0.225403,0.374451,0.840637
284883437029,-0.316162,-0.228455,0.37793,0.839661
284883460125,-0.313843,-0.230652,0.380371,0.838806
284883474496,-0.311707,-0.231506,0.382874,0.838196
284883497022,-0.31073,-0.233032,0.384949,0.837219
284883519424,-0.309631,-0.235596,0.386475,0.836182
284883534512,-0.308899,-0.238342,0.387817,0.835083
284883556987,-0.308777,-0.240784,0.388977,0.833862
284883579527,-0.307983,-0.242432,0.390076,0.833191
284883594493,-0.305176,-0.242615,0.391052,0.833679
284883616945,-0.302368,-0.24231,0.391785,0.834473
284883639483,-0.300537,-0.241638,0.392151,0.835144
284883654411,-0.298523,-0.241333,0.393005,0.835571
284883677011,-0.296204,-0.241699,0.393738,0.835938
284883699462,-0.294495,-0.241211,0.39447,0.836304
284883714485,-0.293213,-0.239075,0.39502,0.837097
284883737063,-0.294861,-0.236511,0.395386,0.837097
284883759549,-0.298035,-0.234985,0.394897,0.83667
284883774459,-0.303223,-0.23407,0.392883,0.835999
284883796957,-0.312195,-0.234558,0.389343,0.834229
284883819481,-0.323792,-0.235474,0.385193,0.831421
284883834484,-0.336365,-0.235229,0.381836,0.828064
284883856990,-0.348267,-0.233582,0.379333,0.824768
284883879516,-0.358276,-0.230896,0.378113,0.821777
284883894513,-0.365356,-0.227905,0.378052,0.819519
284883916967,-0.370789,-0.225281,0.378418,0.817627
284883939485,-0.375061,-0.223022,0.378845,0.816101
284883954483,-0.378235,-0.221008,0.379333,0.814941
284883977108,-0.380493,-0.218445,0.380432,0.814087
284883999539,-0.382019,-0.216003,0.381836,0.813354
284884014445,-0.38385,-0.215088,0.382935,0.812256
284884036967,-0.384949,-0.215027,0.383545,0.811462
284884059485,-0.385498,-0.215149,0.383911,0.810974
284884074540,-0.386047,-0.215454,0.384155,0.810547
284884097114,-0.386414,-0.216003,0.384216,0.81012
284884119375,-0.386536,-0.216553,0.384399,0.809875
284884134466,-0.386597,-0.216736,0.384583,0.809692
284884156999,-0.386536,-0.217041,0.384644,0.809631
284884179486,-0.386536,-0.21759,0.38446,0.80957
284884194509,-0.386719,-0.218262,0.384216,0.809387
284884217006,-0.386902,-0.219055,0.383972,0.809204
284884239391,-0.386597,-0.219849,0.38385,0.809265
284884262690,-0.385925,-0.220276,0.383606,0.809509
284884277006,-0.38562,-0.220459,0.383362,0.809753
284884299521,-0.385864,-0.220947,0.382812,0.809753
284884315909,-0.386536,-0.221741,0.382141,0.809509
284884337044,-0.386902,-0.222351,0.381653,0.809448
284884359475,-0.386963,-0.222534,0.381348,0.809509
284884374464,-0.386963,-0.222473,0.381348,0.809509
284884397015,-0.387268,-0.222107,0.381409,0.809448
284884419459,-0.387878,-0.221985,0.38147,0.809143
284884435969,-0.388123,-0.222107,0.38147,0.80896
284884457081,-0.388123,-0.222107,0.38147,0.80896
284884479564,-0.388062,-0.221985,0.381592,0.809021
284884495903,-0.387878,-0.221741,0.381775,0.809082
284884517059,-0.387817,-0.22168,0.381958,0.809021
284884539493,-0.387878,-0.22168,0.381958,0.809021
284884555969,-0.387817,-0.221741,0.382019,0.80896
284884577004,-0.387634,-0.221619,0.382141,0.809021
284884599492,-0.387268,-0.221497,0.382324,0.809143
284884615979,-0.386841,-0.221497,0.382446,0.809326
284884637033,-0.386292,-0.221497,0.38269,0.809509
284884659563,-0.385925,-0.221741,0.38269,0.80957
284884676066,-0.385742,-0.222168,0.382568,0.80957
284884697113,-0.38562,-0.222412,0.382507,0.809631
284884719507,-0.385376,-0.222412,0.382446,0.809753
284884735901,-0.385376,-0.222412,0.382507,0.809753
284884757118,-0.385437,-0.222351,0.382507,0.809753
284884779540,-0.385437,-0.222351,0.382507,0.809692
284884795913,-0.385498,-0.222351,0.382507,0.809692
284884818440,-0.385498,-0.222351,0.382507,0.809692
284884839438,-0.385559,-0.222351,0.382507,0.809692
284884855973,-0.385559,-0.222351,0.382507,0.809631
284884876988,-0.385742,-0.222046,0.382751,0.80957
284884899489,-0.386108,-0.222046,0.382812,0.809326
284884916082,-0.386414,-0.222229,0.382812,0.809143
284884937024,-0.386414,-0.222229,0.382812,0.809143
284884959513,-0.386475,-0.222229,0.382812,0.809143
284884983428,-0.386536,-0.222229,0.382812,0.809082
284884998519,-0.386841,-0.222107,0.382812,0.80896
284885019486,-0.387207,-0.222168,0.382751,0.808777
284885035943,-0.387512,-0.22229,0.382751,0.808594
284885056991,-0.387573,-0.22229,0.382751,0.808594
284885079536,-0.387573,-0.22229,0.382751,0.808594
284885095975,-0.387573,-0.222229,0.382812,0.808594
284885117062,-0.387634,-0.222229,0.382812,0.808594
284885139493,-0.387695,-0.222229,0.382812,0.808533
284885155960,-0.387695,-0.222229,0.382812,0.808533
284885176978,-0.387756,-0.222229,0.382812,0.808533
284885199563,-0.387756,-0.222229,0.382812,0.808533
284885215991,-0.387756,-0.222229,0.382812,0.808533
284885237054,-0.387817,-0.222168,0.382812,0.808472
284885259564,-0.387817,-0.222168,0.382874,0.808472
284885276064,-0.387573,-0.22229,0.382935,0.808533
284885297063,-0.387146,-0.222351,0.382996,0.808655
284885319515,-0.386658,-0.222595,0.383118,0.808777
284885335913,-0.386169,-0.222778,0.383179,0.80896
284885358455,-0.385742,-0.2229,0.383179,0.809082
284885379540,-0.385498,-0.223145,0.383118,0.809143
284885395909,-0.385376,-0.223389,0.383118,0.809204
284885418461,-0.385437,-0.223389,0.383057,0.809143
284885447734,-0.385437,-0.223389,0.383057,0.809143
284885456060,-0.385742,-0.223267,0.383179,0.809021
284885478438,-0.385925,-0.222961,0.383362,0.808899
284885499551,-0.386292,-0.222717,0.383545,0.808716
284885516014,-0.386475,-0.222595,0.383728,0.808594
284885538430,-0.386475,-0.222595,0.383728,0.808594
284885559552,-0.386475,-0.222595,0.383728,0.808594
284885576012,-0.386169,-0.222534,0.383972,0.808594
284885598439,-0.385559,-0.222595,0.384216,0.808777
284885619478,-0.384827,-0.222778,0.384338,0.809021
284885635927,-0.384338,-0.2229,0.384338,0.809204
284885658524,-0.383911,-0.222961,0.38446,0.809387
284885679585,-0.383484,-0.222961,0.384583,0.809509
284885695948,-0.383057,-0.222961,0.384583,0.809692
284885718453,-0.382629,-0.222961,0.384583,0.809875
284885739555,-0.382446,-0.2229,0.384521,0.809998
284885756008,-0.382507,-0.2229,0.384521,0.809998
284885778503,-0.382324,-0.222656,0.384583,0.81012
284885799574,-0.382324,-0.222595,0.384583,0.81012
284885816080,-0.382324,-0.222656,0.384583,0.81012
284885838512,-0.382385,-0.222656,0.384583,0.81012
284885859477,-0.382385,-0.222656,0.384583,0.81012
284885876054,-0.382385,-0.222595,0.384583,0.81012
284885898463,-0.382385,-0.222656,0.384583,0.81012
284885919544,-0.382263,-0.222595,0.384644,0.810181
284885936018,-0.382263,-0.222595,0.384644,0.810181
284885958441,-0.382324,-0.222595,0.384644,0.81012
284885979515,-0.382202,-0.222534,0.384644,0.810181
284885996057,-0.382202,-0.222534,0.384705,0.810181
284886018411,-0.382202,-0.222534,0.384705,0.810181
284886039556,-0.382202,-0.222534,0.384705,0.810181
284886056007,-0.382202,-0.222534,0.384644,0.810181
284886078483,-0.382263,-0.222534,0.384705,0.81012
284886099518,-0.382263,-0.222534,0.384705,0.81012
284886116055,-0.382324,-0.222534,0.384705,0.81012
284886138428,-0.382324,-0.222534,0.384705,0.81012
284886159593,-0.382324,-0.222534,0.384705,0.81012
284886176057,-0.382141,-0.222473,0.384888,0.810181
284886198494,-0.381897,-0.222107,0.385132,0.810181
284886220235,-0.381775,-0.22168,0.385559,0.810181
284886235140,-0.381897,-0.221497,0.385742,0.810059
284886257694,-0.381958,-0.221497,0.385742,0.810059
284886281657,-0.381775,-0.221497,0.385864,0.810059
284886295209,-0.381653,-0.221558,0.385986,0.81012
284886317697,-0.381653,-0.221558,0.385986,0.810059
284886340184,-0.381653,-0.221558,0.385986,0.810059
284886355230,-0.381714,-0.221558,0.385986,0.810059
284886377713,-0.381714,-0.22168,0.386108,0.809998
284886400186,-0.381714,-0.221741,0.386047,0.809998
284886416589,-0.381592,-0.221741,0.386169,0.809998
284886437750,-0.38147,-0.22168,0.38623,0.809998
284886460208,-0.381531,-0.22168,0.38623,0.809998
284886476433,-0.381287,-0.221558,0.386414,0.810059
284886497770,-0.380859,-0.221375,0.386597,0.810242
284886520259,-0.380371,-0.221375,0.386597,0.810425
284886536653,-0.380005,-0.221375,0.386719,0.810547
284886557684,-0.379639,-0.221497,0.38678,0.810669
284886580184,-0.379211,-0.221619,0.386902,0.810791
284886596661,-0.378784,-0.221741,0.387024,0.810913
284886617715,-0.378418,-0.221802,0.387085,0.811035
284886640251,-0.378479,-0.221802,0.387085,0.810974
284886656653,-0.378723,-0.222229,0.386841,0.810852
284886677740,-0.378906,-0.2229,0.386536,0.81073
284886700132,-0.378723,-0.223328,0.38623,0.810852
284886716610,-0.378479,-0.223816,0.386047,0.810913
284886737715,-0.378052,-0.224121,0.386047,0.811035
284886760167,-0.377808,-0.224243,0.386047,0.811096
284886776720,-0.377502,-0.224487,0.385986,0.811218
284886797751,-0.377502,-0.224487,0.385986,0.811218
284886820196,-0.377502,-0.224487,0.385986,0.811218
284886836617,-0.377502,-0.224487,0.385986,0.811218
284886857691,-0.377502,-0.224548,0.385986,0.811218
284886880253,-0.377625,-0.224365,0.386108,0.811157
284886896688,-0.377747,-0.22406,0.386292,0.811096
284886925191,-0.377747,-0.223999,0.386353,0.811096
284886940224,-0.377869,-0.224182,0.386353,0.810974
284886956574,-0.377869,-0.224182,0.386353,0.810913
284886977724,-0.377625,-0.224182,0.386475,0.811035
284887000280,-0.377502,-0.224182,0.386658,0.811035
284887016682,-0.377502,-0.224243,0.386597,0.810974
284887037715,-0.37854,-0.223816,0.386292,0.810791
284887060202,-0.380371,-0.223267,0.385864,0.810303
284887076688,-0.381104,-0.2229,0.385559,0.810181
284887097723,-0.38092,-0.222046,0.385315,0.810608
284887120163,-0.380981,-0.221619,0.38501,0.810852
284887136703,-0.381104,-0.221313,0.384888,0.810974
284887157748,-0.38031,-0.221252,0.385132,0.811218
284887180228,-0.378784,-0.22113,0.385437,0.811768
284887196647,-0.377747,-0.221252,0.385681,0.812134
284887217721,-0.377258,-0.221252,0.385681,0.812378
284887240156,-0.376892,-0.221191,0.385864,0.812439
284887256035,-0.376465,-0.221252,0.386169,0.8125
284887279172,-0.375916,-0.221375,0.386353,0.812683
284887300243,-0.375854,-0.221802,0.385986,0.812683
284887316059,-0.375916,-0.222168,0.385559,0.812805
284887339159,-0.375305,-0.222595,0.385193,0.813171
284887360210,-0.374207,-0.223145,0.384766,0.813721
284887376065,-0.373535,-0.223816,0.384216,0.814087
284887399152,-0.373291,-0.224243,0.383911,0.814209
284887427716,-0.372986,-0.224365,0.38385,0.814331
284887435995,-0.372192,-0.22467,0.383789,0.814636
284887459173,-0.371521,-0.224915,0.383606,0.815002
284887481721,-0.371582,-0.225464,0.383118,0.815063
284887496092,-0.371765,-0.225769,0.382751,0.815063
284887519107,-0.371765,-0.226013,0.382507,0.815125
284887540219,-0.371216,-0.225464,0.382568,0.81543
284887556086,-0.371582,-0.224243,0.382812,0.815491
284887579210,-0.373413,-0.224548,0.382446,0.814758
284887600248,-0.376038,-0.226807,0.381409,0.813416
284887616020,-0.375732,-0.227966,0.381348,0.813293
284887639233,-0.36676,-0.229126,0.383179,0.816162
284887660211,-0.359009,-0.247559,0.39325,0.809448
284887676087,-0.34906,-0.237183,0.416626,0.805176
284887699143,-0.337769,-0.20697,0.442749,0.804382
284887720233,-0.312805,-0.139893,0.481018,0.806946
284887736123,-0.269714,-0.0189819,0.517273,0.811951
284887759212,-0.287781,0.0814209,0.530945,0.792847
284887780270,-0.314758,0.180176,0.536194,0.762146
284887796084,-0.35376,0.26593,0.533508,0.720703
284887819256,-0.378967,0.339661,0.528564,0.679382
284887840205,-0.384399,0.398438,0.52417,0.647034
284887856055,-0.376892,0.434937,0.525879,0.626221
284887879212,-0.355286,0.456421,0.531738,0.618591
284887900235,-0.332764,0.462646,0.5401,0.619202
284887916049,-0.315918,0.455933,0.550232,0.624084
284887946651,-0.304871,0.441406,0.559692,0.631531
284887960211,-0.302429,0.413086,0.565979,0.646118
284887976022,-0.31073,0.365601,0.566101,0.670288
284887999205,-0.33136,0.295532,0.560547,0.698975
284888020245,-0.346924,0.216125,0.546021,0.731262
284888036054,-0.353455,0.13031,0.521484,0.765564
284888059181,-0.363892,0.0309448,0.495911,0.787781
284888080256,-0.376709,-0.0402222,0.468384,0.798157
284888096057,-0.362,-0.0772705,0.456238,0.809204
284888125312,-0.35498,-0.105591,0.452087,0.811462
284888140212,-0.359985,-0.134338,0.448181,0.807129
284888156037,-0.355896,-0.152954,0.445007,0.807373
284888179210,-0.346375,-0.169373,0.438721,0.811707
284888200273,-0.342285,-0.18689,0.431519,0.813416
284888216062,-0.341614,-0.201355,0.427612,0.812317
284888238485,-0.341309,-0.211426,0.426086,0.810669
284888260250,-0.338867,-0.216125,0.424866,0.811157
284888276050,-0.335876,-0.218262,0.423096,0.812744
284888298505,-0.334595,-0.220703,0.420837,0.813721
284888320160,-0.335022,-0.223572,0.418457,0.814026
284888335966,-0.337402,-0.227539,0.415466,0.813477
284888358538,-0.338806,-0.230652,0.41217,0.81366
284888381791,-0.338745,-0.231873,0.409485,0.814697
284888396050,-0.339417,-0.231873,0.408264,0.815063
284888418575,-0.339661,-0.230774,0.407715,0.815552
284888441706,-0.34198,-0.231995,0.405884,0.815125
284888456063,-0.344604,-0.23468,0.403198,0.814636
284888478489,-0.344849,-0.236694,0.401245,0.81488
284888501658,-0.343689,-0.237671,0.40033,0.815552
284888516053,-0.342468,-0.237793,0.399963,0.816223
284888538509,-0.342285,-0.237854,0.39917,0.816589
284888561657,-0.342834,-0.237,0.398499,0.816956
284888576005,-0.343994,-0.235474,0.39801,0.817139
284888598497,-0.345581,-0.234619,0.397278,0.817078
284888621677,-0.347046,-0.23468,0.396545,0.816833
284888636097,-0.348633,-0.235107,0.39563,0.816467
284888658506,-0.349854,-0.235168,0.394714,0.816406
284888681637,-0.350403,-0.233826,0.394226,0.816711
284888704181,-0.351135,-0.232239,0.393982,0.817017
284888718578,-0.352539,-0.231567,0.393433,0.816833
284888741688,-0.35437,-0.232056,0.392639,0.816284
284888756083,-0.355957,-0.232849,0.392029,0.815674
284888778531,-0.356567,-0.233032,0.391724,0.815491
284888801720,-0.3573,-0.23291,0.391235,0.815491
284888816052,-0.358154,-0.233032,0.390686,0.815308
284888838529,-0.358887,-0.233643,0.390015,0.815186
284888867806,-0.359131,-0.234253,0.389282,0.815247
284888882746,-0.358948,-0.235107,0.38855,0.815369
284888898548,-0.358582,-0.235596,0.388184,0.815613
284888921690,-0.358215,-0.234985,0.388306,0.815857
284888942759,-0.358521,-0.234558,0.38855,0.815735
284888958554,-0.359436,-0.234192,0.388977,0.815247
284888981711,-0.360168,-0.233093,0.389954,0.814758
284889002799,-0.361389,-0.231934,0.390991,0.814087
284889018563,-0.362915,-0.231567,0.391602,0.813171
284889041769,-0.363953,-0.231934,0.391907,0.8125
284889062710,-0.36377,-0.232422,0.392029,0.812378
284889078521,-0.363037,-0.23291,0.391968,0.812561
284889101672,-0.362305,-0.233398,0.391968,0.812744
284889122769,-0.361816,-0.233948,0.392151,0.812744
284889138524,-0.361145,-0.234619,0.392517,0.812683
284889161081,-0.360168,-0.235168,0.392944,0.812744
284889182767,-0.359253,-0.235168,0.393555,0.812866
284889198580,-0.358826,-0.23468,0.394104,0.812927
284889221042,-0.359375,-0.234314,0.39447,0.812622
284889242818,-0.360352,-0.234253,0.394592,0.812134
284889258584,-0.361023,-0.23407,0.394592,0.81189
284889281042,-0.361511,-0.233643,0.394531,0.811829
284889302880,-0.362244,-0.233398,0.394287,0.811707
284889318596,-0.362671,-0.233154,0.394104,0.811646
284889341054,-0.36322,-0.233154,0.393921,0.811523
284889364214,-0.363647,-0.233276,0.393738,0.81134
284889378608,-0.363892,-0.233215,0.393799,0.811218
284889401014,-0.363647,-0.233154,0.394043,0.811218
284889424252,-0.363281,-0.233215,0.394348,0.811218
284889438563,-0.362854,-0.233337,0.394714,0.811157
284889461092,-0.362488,-0.233398,0.395142,0.811157
284889484240,-0.362366,-0.233459,0.395508,0.810974
284889498513,-0.362244,-0.233704,0.395752,0.810852
284889520986,-0.362122,-0.233948,0.395996,0.81073
284889544162,-0.361938,-0.234192,0.396118,0.810669
284889558600,-0.362,-0.234436,0.39624,0.810547
284889581042,-0.362061,-0.234436,0.396179,0.810547
284889604045,-0.362061,-0.234436,0.396179,0.810486
284889618583,-0.362061,-0.234497,0.396179,0.810486
284889641046,-0.362122,-0.234497,0.396179,0.810486
284889664236,-0.362122,-0.234497,0.396179,0.810486
284889678581,-0.362183,-0.234497,0.396179,0.810486
284889701005,-0.362061,-0.234497,0.39624,0.810486
284889724163,-0.362061,-0.234497,0.39624,0.810486
284889738596,-0.362,-0.234741,0.396301,0.810425
284889761031,-0.361877,-0.234863,0.396362,0.810425
284889784201,-0.361877,-0.234863,0.396362,0.810425
284889805270,-0.361633,-0.235046,0.396362,0.810425
284889820217,-0.36145,-0.235229,0.396423,0.810486
284889834620,-0.361328,-0.235229,0.396545,0.810486
284889857159,-0.361328,-0.235229,0.396545,0.810425
284889880248,-0.361389,-0.235291,0.396484,0.810425
284889894547,-0.361389,-0.235291,0.396484,0.810425
284889925973,-0.361389,-0.235291,0.396484,0.810425
284889940292,-0.36145,-0.235352,0.396484,0.810364
284889954620,-0.36145,-0.235352,0.396484,0.810364
284889977648,-0.36145,-0.235352,0.396484,0.810364
284890000250,-0.36145,-0.235352,0.396484,0.810364
284890014586,-0.36145,-0.235352,0.396484,0.810364
284890037058,-0.361267,-0.235413,0.396545,0.810425
284890068495,-0.361206,-0.235474,0.396729,0.810364
284890082792,-0.361206,-0.235474,0.396667,0.810364
284890097111,-0.361206,-0.235535,0.396667,0.810364
284890120199,-0.361267,-0.235535,0.396667,0.810303
284890134609,-0.361267,-0.235535,0.396667,0.810303
284890157142,-0.361328,-0.235535,0.396667,0.810303
284890180203,-0.361328,-0.235535,0.396667,0.810303
284890194610,-0.361328,-0.235535,0.396667,0.810303
284890217107,-0.361328,-0.235535,0.396667,0.810303
284890240266,-0.361328,-0.235535,0.396667,0.810303
284890254667,-0.361389,-0.235596,0.396667,0.810242
284890277080,-0.361389,-0.235596,0.396667,0.810242
284890300197,-0.36145,-0.235596,0.396667,0.810242
284890314621,-0.36145,-0.235596,0.396667,0.810242
284890337142,-0.361511,-0.235596,0.396667,0.810242
284890360119,-0.361511,-0.235596,0.396667,0.810181
284890374620,-0.361511,-0.235657,0.396606,0.810181
284890397126,-0.361572,-0.235657,0.396606,0.810181
284890420336,-0.361572,-0.235657,0.396606,0.810181
284890434652,-0.361572,-0.235657,0.396606,0.810181
284890457084,-0.361938,-0.235901,0.396606,0.809937
284890480283,-0.361938,-0.235962,0.396606,0.809937
284890494538,-0.361755,-0.235901,0.396606,0.809998
284890517107,-0.361755,-0.235596,0.396851,0.809998
284890540320,-0.362,-0.235657,0.396912,0.809814
284890554652,-0.362061,-0.235718,0.396912,0.809814
284890577137,-0.361816,-0.235779,0.396973,0.809875
284890600335,-0.361572,-0.235779,0.397034,0.809937
284890614624,-0.361572,-0.235779,0.397156,0.809875
284890645971,-0.361511,-0.235779,0.397278,0.809814
284890660298,-0.361511,-0.235779,0.397278,0.809814
284890674606,-0.361572,-0.235779,0.397278,0.809814
284890697141,-0.361572,-0.235596,0.397461,0.809753
284890720236,-0.361572,-0.235596,0.397461,0.809753
284890734618,-0.361816,-0.235779,0.397522,0.80957
284890757096,-0.361877,-0.23584,0.397461,0.80957
284890780295,-0.361877,-0.23584,0.397461,0.80957
284890794686,-0.361877,-0.23584,0.397461,0.80957
284890817176,-0.361877,-0.23584,0.397461,0.80957
284890840360,-0.361938,-0.23584,0.397461,0.809509
284890854692,-0.362,-0.23584,0.397461,0.809509
284890877136,-0.362,-0.23584,0.397461,0.809509
284890900289,-0.362,-0.23584,0.397461,0.809509
284890914654,-0.362,-0.23584,0.397461,0.809509
284890937172,-0.362,-0.235901,0.397461,0.809509
284890960323,-0.362061,-0.235901,0.397461,0.809509
284890974636,-0.362061,-0.235901,0.397461,0.809448
284890997107,-0.362366,-0.236023,0.397461,0.809326
284891020403,-0.362366,-0.236023,0.397461,0.809326
284891034651,-0.362366,-0.236023,0.397461,0.809265
284891057163,-0.362427,-0.236023,0.397461,0.809265
284891088492,-0.362427,-0.236023,0.397461,0.809265
284891094692,-0.362427,-0.236084,0.397461,0.809265
284891117207,-0.362488,-0.236084,0.397461,0.809265
284891140337,-0.362488,-0.236084,0.397461,0.809265
284891154671,-0.362488,-0.236084,0.397461,0.809204
284891177200,-0.362549,-0.236084,0.397461,0.809204
284891199646,-0.362549,-0.236084,0.397461,0.809204
284891217546,-0.36261,-0.236084,0.397461,0.809204
284891237152,-0.36261,-0.236084,0.397461,0.809204
284891259607,-0.362671,-0.236145,0.397461,0.809143
284891274687,-0.362671,-0.236084,0.397461,0.809143
284891297138,-0.362671,-0.236084,0.397461,0.809143
284891328446,-0.362732,-0.236084,0.397461,0.809143
284891334552,-0.362732,-0.236145,0.3974,0.809143
284891357080,-0.362793,-0.236145,0.3974,0.809082
284891379587,-0.362793,-0.236145,0.3974,0.809082
284891394658,-0.362732,-0.236084,0.397522,0.809082
284891417197,-0.362732,-0.236084,0.397522,0.809082
284891439588,-0.362732,-0.236084,0.397522,0.809082
284891454586,-0.362732,-0.236084,0.397522,0.809082
284891478537,-0.362732,-0.236145,0.397522,0.809082
284891499634,-0.362793,-0.236145,0.397522,0.809082
284891514632,-0.362854,-0.236145,0.397522,0.809021
284891537184,-0.362854,-0.236145,0.397522,0.809021
284891559726,-0.362854,-0.236145,0.397461,0.809021
284891574688,-0.362915,-0.236145,0.397461,0.809021
284891597146,-0.362915,-0.236206,0.397461,0.80896
284891619666,-0.362976,-0.236206,0.397461,0.80896
284891634635,-0.362976,-0.236206,0.397461,0.80896
284891657162,-0.362976,-0.236206,0.397461,0.80896
284891679624,-0.362976,-0.236206,0.397461,0.80896
284891694576,-0.362976,-0.236206,0.397461,0.80896
284891717147,-0.363037,-0.236206,0.397461,0.80896
284891739674,-0.363037,-0.236206,0.397461,0.80896
284891754729,-0.363037,-0.236267,0.397461,0.808899
284891777192,-0.363098,-0.236267,0.397461,0.808899
284891799696,-0.363098,-0.236267,0.397461,0.808899
284891814597,-0.363098,-0.236267,0.397461,0.808899
284891837143,-0.363098,-0.236267,0.397461,0.808899
284891860428,-0.363159,-0.236267,0.397461,0.808899
284891874573,-0.363159,-0.236328,0.397461,0.808899
284891897069,-0.363159,-0.236328,0.397461,0.808899
284891921057,-0.363159,-0.236328,0.397461,0.808899
284891934571,-0.363159,-0.236328,0.397461,0.808899
284891957120,-0.36322,-0.236328,0.397461,0.808838
284891979586,-0.36322,-0.236328,0.3974,0.808838
284891996065,-0.36322,-0.236328,0.3974,0.808838
284892017099,-0.363098,-0.236267,0.397461,0.808899
284892039562,-0.363098,-0.236267,0.397461,0.808899
284892056038,-0.363159,-0.236267,0.397461,0.808838
284892077076,-0.363159,-0.236328,0.397461,0.808838
284892099620,-0.363037,-0.236328,0.397522,0.808899
284892116021,-0.363098,-0.236328,0.397522,0.808838
284892137053,-0.363098,-0.236328,0.397522,0.808838
284892159609,-0.363098,-0.236328,0.397522,0.808838
284892176133,-0.363098,-0.236328,0.397522,0.808838
284892200035,-0.363098,-0.236328,0.397522,0.808838
284892219684,-0.363098,-0.236328,0.397522,0.808838
284892236094,-0.363098,-0.236328,0.397522,0.808838
284892257166,-0.363159,-0.236328,0.397522,0.808838
284892279624,-0.363159,-0.236328,0.397522,0.808838
284892296049,-0.363159,-0.236328,0.397522,0.808838
284892317176,-0.363159,-0.236389,0.397522,0.808838
284892339602,-0.363159,-0.236389,0.397522,0.808777
284892356098,-0.36322,-0.236389,0.397522,0.808777
284892377177,-0.36322,-0.236389,0.397522,0.808777
284892399649,-0.36322,-0.236389,0.397522,0.808777
284892416061,-0.36322,-0.236389,0.397522,0.808777
284892437092,-0.36322,-0.236389,0.397522,0.808777
284892453586,-0.36322,-0.236389,0.397522,0.808777
284892476110,-0.36322,-0.236633,0.397522,0.808716
284892497187,-0.363159,-0.236938,0.397461,0.808655
284892519722,-0.362732,-0.237305,0.397522,0.808716
284892536143,-0.362061,-0.237671,0.397583,0.808899
284892557240,-0.361389,-0.238159,0.397766,0.80896
284892573604,-0.360718,-0.238831,0.397827,0.809082
284892596117,-0.359741,-0.239807,0.397827,0.809204
284892617184,-0.358215,-0.240784,0.397827,0.80957
284892633603,-0.356323,-0.241577,0.397949,0.81012
284892663585,-0.354431,-0.242432,0.39801,0.810669
284892677164,-0.352112,-0.24353,0.397827,0.811401
284892693614,-0.349731,-0.24469,0.397583,0.812256
284892717567,-0.346863,-0.245911,0.397278,0.813232
284892737116,-0.343933,-0.247375,0.396606,0.814392
284892759601,-0.340942,-0.248535,0.395874,0.815613
284892776101,-0.337097,-0.249207,0.395447,0.817261
284892797167,-0.332642,-0.25,0.394897,0.819092
284892827816,-0.327881,-0.251404,0.393982,0.820984
284892836136,-0.324036,-0.25354,0.393127,0.822266
284892865370,-0.321777,-0.25592,0.392029,0.822937
284892879709,-0.320557,-0.258301,0.389893,0.823669
284892896042,-0.319824,-0.260742,0.388,0.824097
284892917144,-0.320007,-0.262512,0.38623,0.82428
284892939640,-0.32019,-0.263245,0.387268,0.823547
284892956079,-0.31781,-0.25885,0.390808,0.824158
284892978536,-0.315491,-0.25293,0.395874,0.824463
284892999661,-0.31366,-0.246155,0.401489,0.824524
284893016076,-0.311768,-0.238586,0.40741,0.824524
284893038549,-0.310059,-0.22998,0.413269,0.824707
284893059651,-0.309021,-0.221252,0.418152,0.825012
284893076065,-0.309448,-0.213013,0.421021,0.825562
284893098580,-0.3125,-0.205566,0.421997,0.825806
284893119676,-0.316162,-0.197815,0.421631,0.826477
284893136065,-0.320312,-0.190552,0.419861,0.827515
284893158585,-0.324768,-0.184937,0.416443,0.828735
284893179608,-0.328918,-0.180786,0.411682,0.830444
284893196070,-0.331787,-0.176941,0.406067,0.832825
284893218584,-0.333801,-0.173645,0.399902,0.835754
284893239640,-0.336731,-0.171021,0.392517,0.838623
284893256074,-0.340881,-0.169617,0.383484,0.84137
284893278573,-0.344482,-0.167725,0.37384,0.844666
284893299611,-0.346436,-0.165344,0.36438,0.84845
284893316044,-0.348816,-0.164062,0.354065,0.852051
284893338597,-0.351929,-0.164185,0.342896,0.855286
284893359661,-0.355408,-0.163879,0.331177,0.858521
284893383615,-0.359924,-0.163513,0.318787,0.86145
284893398557,-0.365845,-0.163574,0.305725,0.863647
284893421723,-0.371948,-0.16272,0.291992,0.865967
284893435312,-0.377563,-0.161011,0.277527,0.868591
284893457815,-0.382996,-0.158752,0.263367,0.871033
284893480288,-0.388062,-0.156372,0.249146,0.873413
284893495323,-0.39325,-0.154236,0.234802,0.875427
284893517793,-0.398132,-0.153015,0.220154,0.877258
284893540071,-0.402893,-0.15271,0.205444,0.878723
284893555285,-0.408325,-0.153015,0.190918,0.879456
284893577797,-0.412659,-0.152832,0.177185,0.88031
284893600306,-0.416382,-0.15332,0.164124,0.880981
284893615309,-0.417725,-0.154419,0.150757,0.882568
284893637778,-0.419983,-0.156494,0.137573,0.883301
284893660274,-0.423401,-0.158813,0.125671,0.882996
284893675301,-0.426392,-0.161133,0.115173,0.882568
284893697803,-0.430054,-0.163025,0.105408,0.881653
284893720322,-0.43512,-0.164429,0.0953979,0.880066
284893735266,-0.440857,-0.167725,0.0847168,0.877686
284893757817,-0.443665,-0.172119,0.074707,0.876282
284893780346,-0.443665,-0.178101,0.0654297,0.875854
284893795345,-0.444031,-0.186584,0.055603,0.874573
284893817821,-0.444092,-0.197754,0.0438843,0.872742
284893840311,-0.444458,-0.212891,0.0304565,0.869568
284893855338,-0.452148,-0.220703,0.0182495,0.864014
284893877832,-0.454712,-0.211548,0.0136108,0.865051
284893900321,-0.452393,-0.200317,0.0125732,0.868958
284893915324,-0.457092,-0.196167,0.0120239,0.867432
284893937800,-0.458069,-0.197266,0.0128784,0.866638
284893960311,-0.454773,-0.200439,0.0117798,0.867676
284893976734,-0.452393,-0.202332,0.00909424,0.86853
284893997797,-0.44989,-0.202942,0.00628662,0.86969
284894013569,-0.449097,-0.203613,0.00292969,0.869995
284894035283,-0.450012,-0.204346,-0.000671387,0.869324
284894057838,-0.451233,-0.204285,-0.00415039,0.868713
284894080342,-0.453186,-0.203308,-0.00769043,0.867859
284894096784,-0.456116,-0.202332,-0.0111694,0.866577
284894117811,-0.458374,-0.201782,-0.0141602,0.865417
284894140311,-0.459412,-0.201111,-0.0165405,0.86499
284894156747,-0.459656,-0.19989,-0.0184326,0.865112
284894177804,-0.460022,-0.198669,-0.0203857,0.865112
284894200331,-0.460938,-0.197876,-0.022522,0.864807
284894216752,-0.461914,-0.19696,-0.0247192,0.86438
284894237864,-0.46283,-0.195557,-0.0268555,0.864197
284894253598,-0.463867,-0.193726,-0.0287476,0.863953
284894276753,-0.465576,-0.192017,-0.0301514,0.863403
284894297833,-0.466797,-0.191101,-0.0310059,0.862915
284894313628,-0.467163,-0.190979,-0.0315552,0.862732
284894337448,-0.467041,-0.19104,-0.0321045,0.862732
284894357842,-0.466919,-0.190857,-0.0326538,0.862854
284894373592,-0.467102,-0.190552,-0.032959,0.862793
284894396753,-0.467285,-0.190491,-0.0332031,0.862732
284894417817,-0.467651,-0.190796,-0.0333252,0.862427
284894433579,-0.46814,-0.191162,-0.0333862,0.862061
284894456801,-0.468689,-0.191284,-0.0333252,0.861755
284894478266,-0.469299,-0.191162,-0.0330811,0.86145
284894493649,-0.470032,-0.19104,-0.0327759,0.861084
284894516772,-0.470581,-0.19104,-0.0325317,0.86084
284894537820,-0.471008,-0.190979,-0.0321045,0.860596
284894561759,-0.471375,-0.190735,-0.0316772,0.860474
284894576802,-0.471741,-0.190552,-0.03125,0.860352
284894597849,-0.471863,-0.19043,-0.0308228,0.860291
284894613599,-0.471863,-0.190369,-0.0304565,0.860352
284894637230,-0.471802,-0.19043,-0.0303345,0.860352
284894657850,-0.471863,-0.19043,-0.0303955,0.860291
284894673597,-0.471863,-0.19043,-0.0305786,0.860291
284894696774,-0.471924,-0.190491,-0.0308838,0.860291
284894718271,-0.471802,-0.190552,-0.0308838,0.860291
284894733626,-0.471741,-0.190552,-0.0309448,0.860352
284894756814,-0.471619,-0.190613,-0.0309448,0.860413
284894777818,-0.471191,-0.190613,-0.031311,0.860596
284894793632,-0.470825,-0.190857,-0.0316772,0.860779
284894816771,-0.470215,-0.191223,-0.0319824,0.860962
284894837850,-0.469666,-0.191589,-0.0321045,0.861206
284894861780,-0.469177,-0.191895,-0.0321045,0.861389
284894876120,-0.468689,-0.1922,-0.0321045,0.861572
284894897822,-0.468323,-0.192444,-0.0321045,0.861755
284894913625,-0.467957,-0.192749,-0.0320435,0.861877
284894936117,-0.467712,-0.192993,-0.0319214,0.861938
284894958263,-0.467468,-0.193115,-0.0317993,0.862061
284894975093,-0.467102,-0.193176,-0.0317383,0.862244
284894996125,-0.466736,-0.193237,-0.0317383,0.862427
284895019671,-0.466492,-0.193237,-0.0317993,0.862549
284895033616,-0.466492,-0.193298,-0.0318604,0.862549
284895056094,-0.466431,-0.193298,-0.0318604,0.86261
284895085331,-0.46637,-0.193359,-0.0319214,0.86261
284895093627,-0.466309,-0.193359,-0.0319214,0.86261
284895116118,-0.466125,-0.193298,-0.0321045,0.862732
284895139273,-0.466125,-0.193359,-0.0321045,0.862732
284895153612,-0.466064,-0.193359,-0.0321655,0.862732
284895176828,-0.466003,-0.193359,-0.0321655,0.862793
284895206750,-0.465942,-0.193359,-0.0321655,0.862793
284895213604,-0.465942,-0.19342,-0.0321655,0.862854
284895236106,-0.465881,-0.19342,-0.0322266,0.862854
284895259999,-0.465576,-0.193542,-0.0322266,0.862976
284895273595,-0.465515,-0.193542,-0.0322876,0.862976
284895296147,-0.465454,-0.193542,-0.0322876,0.863037
284895319293,-0.465454,-0.193604,-0.0322876,0.863037
284895333651,-0.46521,-0.193542,-0.0322876,0.863159
284895356137,-0.46521,-0.193542,-0.0322876,0.863159
284895379303,-0.46521,-0.193542,-0.0322876,0.863159
284895393591,-0.46521,-0.193481,-0.0321655,0.863159
284895416079,-0.465149,-0.193359,-0.0319824,0.86322
284895439391,-0.465149,-0.19342,-0.0318604,0.86322
284895453658,-0.465149,-0.19342,-0.0318604,0.86322
284895476688,-0.465088,-0.19342,-0.0318604,0.863281
284895499325,-0.465088,-0.19342,-0.0319214,0.863281
284895520436,-0.465027,-0.19342,-0.0319214,0.863281
284895536140,-0.465027,-0.19342,-0.0319214,0.863342
284895559344,-0.464966,-0.193481,-0.0319214,0.863342
284895580415,-0.464966,-0.193481,-0.0319214,0.863342
284895596263,-0.464966,-0.193481,-0.0319824,0.863342
284895619362,-0.464966,-0.193481,-0.0319824,0.863342
284895641839,-0.464966,-0.193481,-0.0319824,0.863342
284895656241,-0.464722,-0.193481,-0.0317383,0.863464
284895679394,-0.464539,-0.193604,-0.0314941,0.863525
284895700422,-0.464539,-0.193604,-0.0314941,0.863586
284895716180,-0.464478,-0.193604,-0.0314941,0.863586
284895739312,-0.464355,-0.193604,-0.031189,0.863647
284895761796,-0.464111,-0.193665,-0.0308838,0.86377
284895776216,-0.463867,-0.193726,-0.0306396,0.863892
284895805398,-0.463806,-0.193848,-0.0304565,0.863953
284895827953,-0.463928,-0.193909,-0.0302124,0.863892
284895836218,-0.464111,-0.193909,-0.0299072,0.86377
284895858684,-0.464355,-0.193787,-0.029541,0.863708
284895880387,-0.464661,-0.193604,-0.0291138,0.863586
284895896181,-0.464966,-0.193604,-0.0288086,0.863403
284895918609,-0.464966,-0.193665,-0.0285034,0.863403
284895940346,-0.464905,-0.193726,-0.0282593,0.863403
284895956129,-0.464905,-0.193787,-0.0281372,0.863464
284895978688,-0.464844,-0.193909,-0.0280151,0.863464
284896001878,-0.464783,-0.194092,-0.027771,0.863464
284896016255,-0.464783,-0.194397,-0.0274658,0.863403
284896038656,-0.465271,-0.194763,-0.0270386,0.863037
284896061851,-0.466003,-0.195129,-0.0263672,0.86261
284896076146,-0.46637,-0.195374,-0.0256348,0.862366
284896098720,-0.466125,-0.19574,-0.0249634,0.862427
284896121852,-0.466064,-0.196289,-0.024231,0.862366
284896136229,-0.46637,-0.196716,-0.0230103,0.862122
284896158703,-0.466614,-0.197205,-0.0216064,0.861938
284896181851,-0.466492,-0.19751,-0.0202026,0.861938
284896196667,-0.466187,-0.197632,-0.0185547,0.862122
284896218592,-0.466309,-0.197144,-0.0164795,0.862183
284896241912,-0.466064,-0.197205,-0.0149536,0.862366
284896256237,-0.466187,-0.196594,-0.0142822,0.862427
284896278732,-0.467773,-0.195801,-0.013855,0.861816
284896301871,-0.469666,-0.196289,-0.0137939,0.860596
284896322817,-0.472534,-0.197815,-0.0131836,0.858704
284896338717,-0.474915,-0.200623,-0.0119019,0.85675
284896361803,-0.477051,-0.203918,-0.0090332,0.854858
284896390413,-0.47821,-0.206909,-0.00512695,0.853516
284896398735,-0.477661,-0.207031,0.000671387,0.853821
284896429321,-0.47583,-0.20636,0.00817871,0.854919
284896442914,-0.475037,-0.208191,0.0153198,0.854797
284896458702,-0.474487,-0.211487,0.0219116,0.854187
284896481876,-0.473816,-0.2146,0.027771,0.853638
284896502936,-0.473572,-0.217285,0.0336304,0.852844
284896518728,-0.473816,-0.220398,0.0397949,0.851685
284896549355,-0.474426,-0.225159,0.0455322,0.849792
284896562917,-0.474792,-0.230713,0.050293,0.847839
284896578703,-0.473755,-0.235596,0.053833,0.846802
284896601791,-0.471497,-0.239563,0.0562744,0.846863
284896622914,-0.46936,-0.242859,0.0576782,0.846985
284896639194,-0.468933,-0.243774,0.0585327,0.846863
284896661857,-0.46991,-0.243164,0.05896,0.846497
284896682907,-0.470032,-0.242065,0.0595093,0.846741
284896698669,-0.469604,-0.241455,0.0603638,0.847046
284896721203,-0.467957,-0.242249,0.0610962,0.847656
284896742906,-0.466064,-0.243591,0.0614624,0.848328
284896765407,-0.463867,-0.245483,0.0617065,0.848999
284896781172,-0.461121,-0.24762,0.0621338,0.849854
284896810517,-0.458679,-0.249939,0.0628662,0.850403
284896818618,-0.455872,-0.252014,0.0647583,0.851135
284896841251,-0.454224,-0.25415,0.0673828,0.851196
284896862928,-0.453552,-0.256775,0.0707397,0.850525
284896878726,-0.452454,-0.258789,0.0744629,0.850159
284896901183,-0.4505,-0.26001,0.0772705,0.850586
284896924346,-0.447632,-0.260559,0.0784302,0.851807
284896938691,-0.445129,-0.260925,0.0782471,0.853027
284896961217,-0.442688,-0.26123,0.0767212,0.85437
284896984358,-0.440125,-0.262451,0.0727539,0.855591
284896998713,-0.4375,-0.263611,0.0670776,0.857056
284897028620,-0.435059,-0.264038,0.0605469,0.858704
284897034819,-0.434753,-0.265137,0.0521851,0.859009
284897057915,-0.435547,-0.266296,0.0427856,0.858765
284897080497,-0.434387,-0.268433,0.0325317,0.859192
284897094805,-0.433838,-0.27124,0.0223389,0.858887
284897117960,-0.432922,-0.27655,0.0116577,0.857849
284897140411,-0.431091,-0.283081,0.000366211,0.85675
284897154689,-0.429688,-0.290405,-0.0111084,0.854919
284897177864,-0.428345,-0.298279,-0.0233765,0.852661
284897200427,-0.425049,-0.307068,-0.0360718,0.850769
284897214784,-0.421936,-0.31781,-0.0501709,0.847595
284897237881,-0.419312,-0.330811,-0.0656738,0.842896
284897260485,-0.416443,-0.345764,-0.0811768,0.836914
284897274793,-0.413879,-0.361694,-0.0961304,0.829834
284897297887,-0.410278,-0.378723,-0.110962,0.822144
284897320477,-0.403809,-0.397827,-0.124939,0.81427
284897334796,-0.396423,-0.419128,-0.137024,0.805237
284897357994,-0.389343,-0.441711,-0.145935,0.794983
284897380457,-0.381226,-0.465088,-0.150146,0.78479
284897394823,-0.377136,-0.487061,-0.149963,0.773315
284897417935,-0.373169,-0.506775,-0.146912,0.763123
284897440430,-0.367493,-0.52478,-0.14447,0.754089
284897454814,-0.361328,-0.541504,-0.146484,0.744873
284897477939,-0.358765,-0.555725,-0.152893,0.734192
284897500462,-0.358459,-0.568665,-0.161194,0.722595
284897514748,-0.358704,-0.58252,-0.168335,0.709717
284897546151,-0.358276,-0.598877,-0.1745,0.694641
284897560438,-0.358276,-0.615784,-0.180115,0.678284
284897574737,-0.359558,-0.628113,-0.184692,0.664917
284897598020,-0.361511,-0.638855,-0.187195,0.652832
284897620483,-0.37085,-0.646545,-0.185974,0.640259
284897634783,-0.380371,-0.648987,-0.183472,0.632812
284897657933,-0.380859,-0.649353,-0.18219,0.632568
284897680472,-0.377502,-0.651794,-0.187378,0.630554
284897711114,-0.38446,-0.65509,-0.196106,0.620178
284897717920,-0.394653,-0.657776,-0.198364,0.610168
284897740472,-0.402649,-0.658569,-0.197266,0.60437
284897762911,-0.399719,-0.664795,-0.194397,0.600464
284897777327,-0.393677,-0.672913,-0.196899,0.594543
284897800396,-0.392517,-0.677917,-0.200378,0.58844
284897814788,-0.389587,-0.682556,-0.198486,0.585632
284897837295,-0.38562,-0.687683,-0.196411,0.583008
284897860426,-0.383789,-0.690613,-0.199463,0.579651
284897874769,-0.380066,-0.694214,-0.202515,0.576721
284897897310,-0.372314,-0.698975,-0.20459,0.575317
284897921136,-0.365662,-0.703247,-0.209045,0.572754
284897934784,-0.364502,-0.703735,-0.216187,0.570251
284897957332,-0.365723,-0.702026,-0.223267,0.568848
284897980468,-0.366394,-0.699341,-0.229614,0.569214
284897994786,-0.366211,-0.695007,-0.235168,0.572327
284898026160,-0.364868,-0.690002,-0.239929,0.577271
284898040490,-0.365295,-0.684143,-0.243103,0.582642
284898054801,-0.367188,-0.678101,-0.243713,0.588257
284898077293,-0.368591,-0.672913,-0.241028,0.59436
284898100496,-0.370239,-0.667358,-0.236572,0.601379
284898114810,-0.372375,-0.661438,-0.231567,0.608521
284898137360,-0.376099,-0.654358,-0.226196,0.615845
284898160460,-0.376953,-0.647522,-0.217346,0.625671
284898174827,-0.37793,-0.642517,-0.208862,0.633057
284898197312,-0.378296,-0.640503,-0.200806,0.637451
284898220433,-0.378052,-0.641602,-0.193604,0.638733
284898234798,-0.375854,-0.642883,-0.184692,0.641357
284898257285,-0.37262,-0.642273,-0.174683,0.646606
284898280434,-0.373047,-0.63739,-0.166016,0.653503
284898294783,-0.376404,-0.625732,-0.158569,0.664612
284898317260,-0.377869,-0.610718,-0.150146,0.679504
284898340495,-0.376587,-0.597839,-0.143982,0.692871
284898354831,-0.374573,-0.588928,-0.13623,0.703125
284898378706,-0.376099,-0.580078,-0.128113,0.711121
284898400498,-0.378296,-0.570923,-0.120483,0.718628
284898414810,-0.379211,-0.56311,-0.116516,0.724915
284898437317,-0.375427,-0.556946,-0.115112,0.731873
284898460434,-0.36853,-0.551941,-0.117249,0.738831
284898482951,-0.360229,-0.547668,-0.122192,0.745239
284898497331,-0.352539,-0.543823,-0.129089,0.750549
284898528693,-0.349365,-0.540283,-0.136658,0.753235
284898534768,-0.349792,-0.536133,-0.143127,0.754822
284898558795,-0.348999,-0.531189,-0.147095,0.757935
284898580458,-0.346863,-0.526062,-0.150391,0.761841
284898594793,-0.34613,-0.521362,-0.153625,0.764709
284898625442,-0.345215,-0.517151,-0.15625,0.767456
284898640432,-0.34314,-0.512817,-0.158325,0.770874
284898654784,-0.343018,-0.508423,-0.160156,0.773438
284898677313,-0.34436,-0.503601,-0.161804,0.775635
284898700457,-0.344849,-0.499084,-0.162354,0.778198
284898714814,-0.343933,-0.495056,-0.162659,0.781128
284898738749,-0.342468,-0.491455,-0.163574,0.783875
284898760519,-0.340881,-0.488342,-0.164856,0.786194
284898774747,-0.339294,-0.486023,-0.166321,0.788086
284898797286,-0.336426,-0.484375,-0.167053,0.7901
284898819795,-0.332275,-0.483093,-0.166748,0.792725
284898834828,-0.328491,-0.482117,-0.166199,0.794983
284898857311,-0.325439,-0.481201,-0.165588,0.796936
284898879719,-0.323486,-0.480042,-0.16449,0.798645
284898894854,-0.321289,-0.479553,-0.161865,0.800415
284898917294,-0.317505,-0.479553,-0.158203,0.802612
284898939817,-0.31366,-0.479553,-0.15448,0.804871
284898954886,-0.311279,-0.478821,-0.151428,0.806763
284898977391,-0.309692,-0.478027,-0.14801,0.808533
284898999832,-0.309326,-0.477661,-0.1427,0.809814
284899014763,-0.309998,-0.476135,-0.136169,0.811584
284899045511,-0.310303,-0.4729,-0.130066,0.814331
284899059793,-0.31012,-0.468201,-0.124451,0.817993
284899074825,-0.310486,-0.461487,-0.120056,0.822327
284899097288,-0.313293,-0.453674,-0.117615,0.825989
284899119843,-0.320496,-0.444946,-0.117249,0.828003
284899134867,-0.332458,-0.434875,-0.117065,0.828674
284899157317,-0.348145,-0.422546,-0.11499,0.828857
284899179829,-0.361938,-0.408997,-0.11145,0.830261
284899194814,-0.369995,-0.395142,-0.106262,0.834106
284899217354,-0.373169,-0.382263,-0.0991211,0.839539
284899239821,-0.373291,-0.369263,-0.0894775,0.846375
284899254881,-0.37085,-0.355225,-0.0778198,0.854553
284899277351,-0.366333,-0.341064,-0.0644531,0.863342
284899299803,-0.362366,-0.324707,-0.0493774,0.872253
284899314833,-0.364197,-0.303406,-0.0339355,0.879822
284899337302,-0.36676,-0.279297,-0.0170288,0.887207
284899359855,-0.367065,-0.253113,0.00390625,0.895081
284899374837,-0.366211,-0.223206,0.0281372,0.902893
284899397329,-0.362793,-0.188049,0.0546875,0.911011
284899419781,-0.355286,-0.148926,0.0823975,0.919128
284899434841,-0.343689,-0.107361,0.110779,0.926331
284899457335,-0.329773,-0.0632935,0.139709,0.931458
284899479835,-0.315735,-0.0177002,0.169861,0.93335
284899494833,-0.29834,0.0305176,0.2005,0.932617
284899517333,-0.277954,0.0797119,0.230408,0.929077
284899533776,-0.255188,0.129333,0.258972,0.922485
284899554813,-0.226807,0.180359,0.285156,0.913574
284899577365,-0.193176,0.231262,0.307617,0.902466
284899593730,-0.1604,0.278687,0.327271,0.888489
284899616271,-0.130066,0.321716,0.344727,0.872131
284899637454,-0.100647,0.363098,0.358765,0.854004
284899661219,-0.0707397,0.403198,0.369446,0.834167
284899676273,-0.0410767,0.441467,0.378479,0.812439
284899697312,-0.0132446,0.477234,0.386414,0.789062
284899713729,0.012085,0.510498,0.392883,0.764709
284899736323,0.0358887,0.542053,0.397339,0.739563
284899765483,0.057373,0.570496,0.401001,0.714417
284899773706,0.0768433,0.594849,0.404785,0.690125
284899803738,0.0906982,0.613831,0.411133,0.667725
284899817371,0.101562,0.630188,0.416931,0.646973
284899833754,0.117737,0.645752,0.418152,0.627869
284899856308,0.137756,0.657898,0.418518,0.610657
284899880207,0.153748,0.664856,0.422607,0.596375
284899901213,0.169434,0.669983,0.426331,0.583557
284899916272,0.191101,0.674255,0.425659,0.572266
284899937316,0.212646,0.675598,0.425415,0.563232
284899959870,0.231018,0.673157,0.43042,0.555115
284899983776,0.246704,0.673584,0.434265,0.5448
284900000224,0.259033,0.679443,0.434814,0.531067
284900013738,0.270813,0.683716,0.436646,0.518066
284900042413,0.287354,0.688049,0.440369,0.5
284900057359,0.296082,0.690002,0.445374,0.487671
284900073777,0.300293,0.69165,0.446106,0.482056
284900097726,0.303406,0.694946,0.444519,0.476746
284900117286,0.3078,0.696411,0.444519,0.471741
284900133808,0.31134,0.696838,0.446899,0.466492
284900156258,0.315063,0.695129,0.449768,0.463745
284900177369,0.321228,0.692627,0.451111,0.461975
284900193782,0.326355,0.690125,0.451233,0.462097
284900216296,0.328003,0.686646,0.4505,0.466797
284900237358,0.328125,0.681091,0.452087,0.473267
284900261251,0.327759,0.675903,0.453308,0.479736
284900282341,0.325867,0.6698,0.454651,0.48822
284900297368,0.324524,0.664246,0.455017,0.496338
284900313781,0.323486,0.658386,0.4552,0.504517
284900337696,0.32373,0.647949,0.459167,0.514221
284900360258,0.326477,0.634766,0.465515,0.523071
284900373797,0.33136,0.622192,0.472778,0.528625
284900396334,0.335571,0.61145,0.481079,0.530945
284900417371,0.334534,0.605469,0.487671,0.532471
284900433806,0.331665,0.602417,0.491089,0.534607
284900456348,0.331726,0.599304,0.492676,0.536621
284900477371,0.333557,0.595093,0.49408,0.538879
284900493785,0.335754,0.588928,0.495911,0.542603
284900516304,0.337585,0.581238,0.498535,0.547363
284900540265,0.339478,0.574219,0.501282,0.551025
284900553787,0.341125,0.569885,0.503418,0.552551
284900576239,0.343262,0.568665,0.50354,0.552368
284900600227,0.347046,0.568176,0.502502,0.551453
284900613836,0.352234,0.567139,0.501648,0.550049
284900636231,0.358521,0.565796,0.500977,0.547974
284900658108,0.365601,0.564514,0.5,0.545471
284900680541,0.372498,0.564087,0.498108,0.542969
284900695581,0.379089,0.564758,0.4953,0.540283
284900718063,0.385193,0.566406,0.491577,0.537598
284900740503,0.391235,0.568787,0.487122,0.53479
284900763062,0.397156,0.571289,0.482117,0.532227
284900778017,0.403931,0.573669,0.476807,0.529419
284900801983,0.411804,0.57605,0.470947,0.526001
284900815526,0.420654,0.578613,0.4646,0.52179
284900838115,0.430054,0.580994,0.457886,0.517395
284900861919,0.440002,0.583008,0.450867,0.512939
284900875486,0.450195,0.584778,0.443542,0.508423
284900897986,0.460205,0.586548,0.435669,0.504272
284900928680,0.470032,0.588196,0.427429,0.500305
284900935537,0.478699,0.5896,0.419739,0.496948
284900958059,0.486694,0.59137,0.411926,0.49353
284900980545,0.49469,0.593872,0.403381,0.489624
284900995510,0.502319,0.596436,0.395142,0.485474
284901018061,0.509766,0.599365,0.386963,0.480652
284901040514,0.516663,0.602966,0.378662,0.475342
284901055490,0.522949,0.607117,0.3703,0.469788
284901079438,0.52832,0.611755,0.362305,0.463928
284901100564,0.533264,0.61676,0.354248,0.457825
284901115546,0.538086,0.621277,0.347229,0.451416
284901138121,0.542664,0.625732,0.340881,0.44458
284901161925,0.546997,0.630432,0.335083,0.437012
284901175465,0.550598,0.634949,0.330261,0.429504
284901198064,0.554016,0.639282,0.32605,0.421936
284901220518,0.557312,0.642883,0.322632,0.414612
284901235561,0.560486,0.645996,0.319702,0.407654
284901265597,0.563354,0.648743,0.317017,0.401367
284901280410,0.566345,0.650818,0.314331,0.395996
284901295545,0.569214,0.652039,0.31189,0.391724
284901317919,0.572449,0.652893,0.309326,0.387573
284901340537,0.574829,0.653931,0.306946,0.384155
284901355408,0.575928,0.655273,0.304932,0.381897
284901379428,0.577026,0.656433,0.303101,0.379639
284901400509,0.578796,0.657166,0.301514,0.376953
284901431206,0.580872,0.657532,0.300598,0.373901
284901437949,0.582397,0.657959,0.300293,0.370972
284901468682,0.58429,0.658203,0.300598,0.367188
284901475267,0.586243,0.657959,0.300781,0.364441
284901498063,0.588257,0.657166,0.301514,0.361938
284901520513,0.589783,0.656738,0.302124,0.359802
284901535537,0.590698,0.656799,0.302612,0.357727
284901558061,0.591431,0.656555,0.303589,0.35614
284901580563,0.592834,0.655884,0.304626,0.354187
284901597002,0.594482,0.655029,0.305359,0.352356
284901618093,0.595886,0.654419,0.306091,0.350586
284901633806,0.597412,0.654297,0.305969,0.348206
284901663105,0.598816,0.654175,0.305603,0.346313
284901678091,0.600464,0.654053,0.304626,0.344666
284901693803,0.602173,0.653503,0.303528,0.343628
284901731920,0.604126,0.652893,0.302307,0.342346
284901754271,0.605896,0.65271,0.300903,0.340881
284901761793,0.607117,0.652649,0.299805,0.339722
284901777012,0.608093,0.652649,0.299011,0.338684
284901798085,0.60907,0.652588,0.298218,0.337769
284901813755,0.610046,0.652405,0.297363,0.337158
284901837064,0.610779,0.652344,0.296326,0.336853
284901858063,0.611389,0.652283,0.295166,0.336853
284901873770,0.612061,0.652161,0.293945,0.336975
284901897064,0.612793,0.652161,0.292358,0.336975
284901918131,0.613464,0.652405,0.290771,0.336731
284901933852,0.614014,0.652771,0.289368,0.336243
284901957023,0.614441,0.653137,0.288269,0.335693
284901978094,0.614746,0.653503,0.287354,0.335083
284901993764,0.615051,0.65387,0.286743,0.334412
284902016723,0.615234,0.654236,0.286316,0.33374
284902038109,0.615295,0.65448,0.286133,0.333374
284902053860,0.615295,0.65448,0.286133,0.333313
284902077004,0.615479,0.654419,0.286194,0.333069
284902099438,0.615479,0.654419,0.286316,0.332947
284902113805,0.615295,0.65448,0.286499,0.332947
284902136961,0.615234,0.654419,0.286621,0.333069
284902158058,0.615295,0.654114,0.287292,0.333069
284902173821,0.615173,0.653809,0.288208,0.33313
284902197010,0.614868,0.653748,0.288757,0.333191
284902218058,0.614746,0.653442,0.289307,0.333618
284902233836,0.614746,0.652771,0.290222,0.334167
284902264464,0.614624,0.651917,0.291443,0.334961
284902278071,0.614441,0.651062,0.292725,0.335815
284902293867,0.614197,0.650208,0.294006,0.336853
284902317057,0.613708,0.649292,0.295532,0.338074
284902338063,0.613037,0.648376,0.297424,0.339478
284902353834,0.611877,0.647644,0.299744,0.341003
284902377058,0.610229,0.647034,0.302307,0.342773
284902398092,0.608276,0.646362,0.30542,0.344727
284902413860,0.606018,0.64563,0.309021,0.346924
284902436356,0.603455,0.644714,0.31311,0.349365
284902457851,0.600708,0.64386,0.317444,0.351746
284902473844,0.59729,0.64325,0.322205,0.35437
284902496344,0.593445,0.642517,0.327209,0.357483
284902518059,0.589661,0.641174,0.332397,0.361328
284902533799,0.586914,0.639404,0.336975,0.364746
284902556354,0.584595,0.637512,0.341431,0.367615
284902578057,0.582031,0.635925,0.345825,0.370239
284902593831,0.578796,0.634521,0.35083,0.373047
284902616355,0.575317,0.632996,0.356201,0.375977
284902647026,0.571838,0.631531,0.361938,0.378235
284902660589,0.567871,0.630554,0.368103,0.379883
284902676290,0.562927,0.630005,0.375122,0.381226
284902699528,0.556763,0.630005,0.382751,0.382751
284902727841,0.549805,0.63092,0.389954,0.383972
284902737800,0.542114,0.632385,0.39679,0.385498
284902759456,0.533875,0.634033,0.403992,0.386841
284902780551,0.524231,0.636353,0.411804,0.387939
284902796341,0.512634,0.639648,0.420471,0.388794
284902819437,0.499634,0.645874,0.427063,0.388184
284902840566,0.484436,0.654297,0.431885,0.388062
284902856359,0.463745,0.664795,0.436401,0.39032
284902879480,0.437134,0.676514,0.442749,0.39386
284902902018,0.406738,0.689453,0.448792,0.397156
284902932055,0.376404,0.703186,0.451904,0.399475
284902947020,0.345337,0.71582,0.453491,0.403259
284902960523,0.311951,0.726685,0.454285,0.409973
284902983059,0.276978,0.735779,0.453735,0.419434
284902999533,0.242981,0.742737,0.450623,0.431396
284903020359,0.211426,0.746521,0.445618,0.446533
284903036329,0.181091,0.746277,0.440125,0.465149
284903059518,0.150696,0.74292,0.433899,0.486755
284903096888,0.120422,0.736633,0.426208,0.511047
284903099283,0.0917969,0.726501,0.417419,0.537964
284903119489,0.0646362,0.71167,0.408569,0.567688
284903140610,0.0385742,0.692505,0.399597,0.599304
284903156378,0.0120239,0.669128,0.392212,0.631042
284903179502,-0.0157471,0.641479,0.387268,0.661987
284903200578,-0.0428467,0.610718,0.381592,0.692444
284903216334,-0.0664673,0.578918,0.373779,0.721558
284903247057,-0.0891724,0.545776,0.366821,0.748047
284903268041,-0.114258,0.511597,0.36084,0.771301
284903276316,-0.139526,0.476562,0.353577,0.792664
284903299500,-0.164612,0.44043,0.345337,0.812134
284903320536,-0.191284,0.403381,0.338501,0.828308
284903336414,-0.217834,0.366638,0.332031,0.841309
284903358889,-0.241089,0.331421,0.324768,0.852356
284903380587,-0.262817,0.296143,0.318481,0.861206
284903396379,-0.286255,0.259155,0.313354,0.867554
284903418802,-0.308838,0.221985,0.307251,0.872314
284903440591,-0.327393,0.187317,0.299377,0.876404
284903456344,-0.343018,0.15387,0.290527,0.879883
284903478810,-0.357056,0.118958,0.282166,0.882446
284903500606,-0.369507,0.0830688,0.27478,0.883728
284903516378,-0.380859,0.0474854,0.267395,0.88385
284903538845,-0.39032,0.0159912,0.258179,0.883545
284903562061,-0.395935,-0.0109863,0.248657,0.88385
284903576372,-0.398254,-0.0351562,0.240662,0.884399
284903598831,-0.399414,-0.0594482,0.234863,0.884155
284903622051,-0.400635,-0.0842285,0.230774,0.88269
284903636332,-0.401184,-0.107544,0.227417,0.880737
284903658871,-0.399048,-0.128113,0.224609,0.8797
284903682056,-0.393372,-0.145874,0.222473,0.880005
284903703017,-0.387146,-0.163696,0.220581,0.880127
284903718797,-0.380371,-0.181274,0.219727,0.879883
284903742052,-0.375183,-0.197021,0.220215,0.878601
284903763017,-0.372986,-0.210876,0.221008,0.876099
284903778815,-0.37207,-0.222717,0.221558,0.873413
284903809310,-0.369812,-0.232544,0.222412,0.871582
284903823054,-0.365295,-0.240845,0.223938,0.87085
284903838831,-0.359802,-0.248413,0.225708,0.870544
284903862019,-0.353577,-0.254883,0.228516,0.870544
284903883132,-0.346436,-0.26001,0.23291,0.870667
284903898885,-0.33844,-0.262512,0.238953,0.871399
284903922040,-0.329834,-0.263123,0.245972,0.87262
284903943111,-0.32373,-0.26416,0.252014,0.872864
284903958865,-0.320923,-0.266541,0.256287,0.871948
284903982055,-0.318848,-0.268921,0.259338,0.871033
284904003059,-0.316162,-0.270569,0.261841,0.870789
284904018858,-0.313599,-0.271362,0.263977,0.870789
284904042060,-0.311646,-0.271606,0.266052,0.870789
284904063090,-0.310303,-0.271729,0.267883,0.870667
284904078848,-0.31012,-0.272339,0.26947,0.870056
284904102014,-0.311218,-0.273926,0.270569,0.868835
284904123072,-0.312439,-0.275452,0.27179,0.867493
284904139460,-0.314026,-0.276733,0.273193,0.866089
284904162142,-0.315613,-0.277588,0.274536,0.864807
284904183089,-0.316711,-0.277954,0.275818,0.863892
284904198886,-0.317383,-0.277893,0.276917,0.863281
284904222027,-0.317688,-0.277771,0.277832,0.862976
284904234950,-0.317871,-0.277588,0.27832,0.862793
284904258094,-0.318176,-0.277344,0.278687,0.862671
284904272450,-0.318176,-0.276978,0.27887,0.862671
284904294974,-0.318115,-0.276489,0.278931,0.862854
284904318064,-0.318176,-0.276306,0.278809,0.862915
284904332451,-0.318298,-0.276306,0.278625,0.862915
284904354946,-0.318542,-0.27655,0.278442,0.862854
284904378036,-0.318604,-0.27655,0.278442,0.862793
284904392416,-0.318726,-0.276428,0.27887,0.862671
284904414899,-0.318665,-0.276428,0.279297,0.862549
284904438127,-0.318481,-0.276428,0.279663,0.862488
284904452451,-0.318298,-0.276489,0.279907,0.862488
284904483739,-0.318237,-0.276428,0.279907,0.862488
284904498099,-0.318054,-0.276245,0.279968,0.86261
284904512470,-0.317871,-0.276001,0.280151,0.862732
284904534921,-0.31781,-0.27594,0.280273,0.862671
284904558145,-0.31781,-0.276062,0.280457,0.86261
284904572461,-0.317932,-0.276306,0.280762,0.862366
284904594953,-0.318115,-0.27655,0.281006,0.862183
284904618164,-0.318237,-0.276794,0.281189,0.862
284904632487,-0.318359,-0.276855,0.281433,0.861816
284904654963,-0.318481,-0.2771,0.281616,0.861633
284904678094,-0.318665,-0.2771,0.281677,0.861572
284904692462,-0.318909,-0.276733,0.281677,0.861633
284904714913,-0.319336,-0.276245,0.281799,0.861572
284904738083,-0.320007,-0.276123,0.282166,0.861206
284904752497,-0.321716,-0.276245,0.282715,0.860352
284904774973,-0.324158,-0.275452,0.284058,0.859253
284904798556,-0.32605,-0.273254,0.286377,0.858459
284904813915,-0.327454,-0.269592,0.289673,0.857971
284904834942,-0.329468,-0.265198,0.293884,0.857117
284904858104,-0.331543,-0.260376,0.2995,0.855896
284904872477,-0.334778,-0.255127,0.306763,0.853638
284904894938,-0.33844,-0.249207,0.315613,0.850708
284904918133,-0.34198,-0.242432,0.325867,0.847351
284904932441,-0.34552,-0.235229,0.337097,0.843567
284904963799,-0.349121,-0.227722,0.349487,0.839111
284904978144,-0.352356,-0.219727,0.362732,0.834229
284904992433,-0.354858,-0.210815,0.376892,0.829224
284905014891,-0.356445,-0.200867,0.391663,0.824097
284905038044,-0.357666,-0.190247,0.406555,0.818848
284905052451,-0.358643,-0.179382,0.421265,0.813477
284905074978,-0.360046,-0.169067,0.435364,0.807556
284905106164,-0.361816,-0.159363,0.44928,0.801147
284905112440,-0.36322,-0.149475,0.463074,0.794556
284905160088,-0.364624,-0.140137,0.476196,0.787781
284905162490,-0.365417,-0.131409,0.488525,0.781372
284905172411,-0.36554,-0.123047,0.500061,0.77533
284905194922,-0.365662,-0.115723,0.510559,0.769531
284905218137,-0.364868,-0.109802,0.520386,0.76416
284905232457,-0.363525,-0.104553,0.530151,0.75885
284905256323,-0.362366,-0.100037,0.538757,0.753906
284905278071,-0.361206,-0.0969238,0.546021,0.749634
284905292472,-0.357971,-0.0927734,0.552734,0.746765
284905314855,-0.355286,-0.088501,0.558411,0.744324
284905346119,-0.354736,-0.0864258,0.562378,0.741882
284905360639,-0.35437,-0.0858154,0.565735,0.739563
284905374985,-0.353394,-0.0855103,0.568848,0.737671
284905397840,-0.352661,-0.0858154,0.57135,0.736084
284905412472,-0.352356,-0.0865479,0.572876,0.734924
284905434957,-0.351501,-0.0872803,0.574158,0.734253
284905457374,-0.351929,-0.0887451,0.575073,0.733154
284905472467,-0.352112,-0.0894775,0.575745,0.732422
284905494883,-0.351868,-0.0889282,0.576172,0.7323
284905517500,-0.351929,-0.0888672,0.575989,0.732422
284905532448,-0.351929,-0.0900269,0.575562,0.732605
284905554972,-0.352295,-0.0922241,0.57489,0.732666
284905577464,-0.352234,-0.0944214,0.574219,0.732971
284905592531,-0.352661,-0.0963135,0.573547,0.733032
284905614998,-0.352844,-0.0968628,0.572998,0.733337
284905637503,-0.352356,-0.0959473,0.57251,0.734009
284905652361,-0.352539,-0.0953369,0.571655,0.73468
284905674987,-0.352966,-0.0947876,0.570862,0.735168
284905697482,-0.353455,-0.0944824,0.570374,0.735352
284905712466,-0.353821,-0.0941162,0.570129,0.735413
284905734920,-0.354065,-0.09375,0.570129,0.735352
284905757427,-0.354065,-0.0936279,0.570251,0.735291
284905772439,-0.354004,-0.093811,0.570496,0.735107
284905794984,-0.353943,-0.0942383,0.570862,0.734802
284905817437,-0.353577,-0.0949097,0.571411,0.734436
284905832496,-0.35321,-0.0958862,0.572083,0.734009
284905854939,-0.352539,-0.0966187,0.572754,0.733643
284905877396,-0.351929,-0.09729,0.573303,0.733459
284905892465,-0.351562,-0.0980225,0.573608,0.733276
284905914952,-0.351379,-0.0984497,0.573853,0.733093
284905937434,-0.351562,-0.0986328,0.574158,0.732788
284905952468,-0.351685,-0.0982666,0.574585,0.732422
284905974917,-0.351807,-0.0979004,0.574951,0.732117
284905997466,-0.351868,-0.0976562,0.575439,0.73175
284906012514,-0.351685,-0.09729,0.57605,0.731445
284906035010,-0.351501,-0.0970459,0.576782,0.730957
284906057472,-0.351257,-0.0974731,0.577576,0.730408
284906072524,-0.35083,-0.0980225,0.578308,0.729919
284906094962,-0.350403,-0.0984497,0.578796,0.729736
284906117455,-0.349854,-0.0990601,0.579102,0.729675
284906132486,-0.34967,-0.0999146,0.579041,0.729675
284906154923,-0.349915,-0.100708,0.578857,0.729553
284906186316,-0.349976,-0.101257,0.578857,0.729492
284906192438,-0.350281,-0.101746,0.578918,0.729248
284906214904,-0.350525,-0.1026,0.578979,0.728943
284906237470,-0.350098,-0.10321,0.579285,0.728821
284906253940,-0.350037,-0.103943,0.579407,0.728638
284906274961,-0.35022,-0.104309,0.579468,0.728455
284906297502,-0.349915,-0.104248,0.579529,0.728577
284906315401,-0.349487,-0.10437,0.57959,0.728699
284906334991,-0.349731,-0.104919,0.579346,0.728699
284906357440,-0.350037,-0.10553,0.579285,0.728516
284906373877,-0.35022,-0.106079,0.579346,0.728271
284906394905,-0.350159,-0.106628,0.579407,0.72821
284906417512,-0.349976,-0.107117,0.579407,0.72821
284906433976,-0.349854,-0.107361,0.579407,0.728271
284906454954,-0.349426,-0.107422,0.579407,0.728455
284906477470,-0.349182,-0.107422,0.579407,0.728577
284906493888,-0.348938,-0.107666,0.579407,0.728577
284906515042,-0.348694,-0.108032,0.579529,0.728577
284906537521,-0.348694,-0.108398,0.579651,0.728455
284906553962,-0.348633,-0.108704,0.579773,0.728333
284906574976,-0.348633,-0.109131,0.579956,0.728149
284906597553,-0.348633,-0.109436,0.580078,0.727966
284906613833,-0.348511,-0.10968,0.5802,0.727844
284906635077,-0.348328,-0.10968,0.580383,0.727783
284906657434,-0.348083,-0.109558,0.580627,0.727783
284906673939,-0.347717,-0.109497,0.580811,0.727783
284906695004,-0.347595,-0.109375,0.580933,0.727783
284906717426,-0.347595,-0.109375,0.580933,0.727783
284906739997,-0.347656,-0.109436,0.580933,0.727783
284906754987,-0.347595,-0.109253,0.580933,0.727783
284906777536,-0.347656,-0.109253,0.580933,0.727783
284906793864,-0.347656,-0.109253,0.580933,0.727783
284906817861,-0.347534,-0.109192,0.580933,0.727844
284906837410,-0.347595,-0.109253,0.580933,0.727844
284906853933,-0.347534,-0.108765,0.580994,0.727844
284906874992,-0.347595,-0.108765,0.580994,0.727844
284906905671,-0.346985,-0.108521,0.580811,0.728271
284906913973,-0.346436,-0.108765,0.580872,0.728516
284906935007,-0.345886,-0.109314,0.581055,0.728516
284906957492,-0.345764,-0.110107,0.581482,0.728088
284906981457,-0.345886,-0.110718,0.58197,0.727539
284906995022,-0.34613,-0.11084,0.582397,0.727112
284907017582,-0.346313,-0.110229,0.582397,0.727112
284907033935,-0.34613,-0.10968,0.582031,0.7276
284907055046,-0.345642,-0.109375,0.581482,0.728333
284907077465,-0.345642,-0.110413,0.580688,0.72876
284907093945,-0.346375,-0.112488,0.579712,0.728882
284907115012,-0.348022,-0.116028,0.578308,0.728638
284907137437,-0.350159,-0.119629,0.576843,0.72821
284907153937,-0.352295,-0.12207,0.575378,0.727966
284907184573,-0.353516,-0.122437,0.574341,0.728088
284907197430,-0.354614,-0.121338,0.57373,0.72821
284907213894,-0.355408,-0.120117,0.573364,0.728333
284907236402,-0.35553,-0.11908,0.573181,0.728577
284907257512,-0.35553,-0.11908,0.573181,0.728577
284907273949,-0.355591,-0.119629,0.572937,0.728638
284907296449,-0.355408,-0.120117,0.572754,0.728821
284907317505,-0.355225,-0.1203,0.572571,0.729004
284907333928,-0.355286,-0.120178,0.572388,0.729126
284907356367,-0.355469,-0.119812,0.572266,0.729187
284907377469,-0.355713,-0.119202,0.572205,0.729248
284907393893,-0.356018,-0.118652,0.572083,0.729309
284907416441,-0.356201,-0.118286,0.572021,0.729309
284907437551,-0.356384,-0.118042,0.57196,0.729248
284907453983,-0.356445,-0.117737,0.572083,0.729248
284907476430,-0.356506,-0.117737,0.572083,0.729248
284907497608,-0.356506,-0.117737,0.572083,0.729187
284907513880,-0.356506,-0.117737,0.572021,0.729187
284907536469,-0.356506,-0.117737,0.572021,0.729187
284907557528,-0.356506,-0.117737,0.572083,0.729187
284907575434,-0.356567,-0.117737,0.572021,0.729187
284907596455,-0.356567,-0.117737,0.572021,0.729187
284907617530,-0.356628,-0.117737,0.572021,0.729187
284907633958,-0.356628,-0.117737,0.572021,0.729187
284907656426,-0.356628,-0.117798,0.572021,0.729187
284907677507,-0.356873,-0.117737,0.571899,0.729187
284907699959,-0.356873,-0.117737,0.571838,0.729187
284907716456,-0.356934,-0.117737,0.571838,0.729187
284907737487,-0.356934,-0.117737,0.571838,0.729126
284907753923,-0.356934,-0.117676,0.571838,0.729126
284907776405,-0.356934,-0.117676,0.571899,0.729126
284907797503,-0.356995,-0.117676,0.571838,0.729126
284907815357,-0.356995,-0.117676,0.571838,0.729126
284907836424,-0.357056,-0.117676,0.571838,0.729126
284907857520,-0.357056,-0.117676,0.571838,0.729126
284907873079,-0.357056,-0.117676,0.571838,0.729126
284907895656,-0.357056,-0.117615,0.571899,0.729065
284907918204,-0.357117,-0.117676,0.571838,0.729065
284907933219,-0.357117,-0.117676,0.571838,0.729065
284907955756,-0.357117,-0.117676,0.571838,0.729065
284907978137,-0.357178,-0.117676,0.571838,0.729065
284908000672,-0.357178,-0.117676,0.571838,0.729065
284908017016,-0.356995,-0.117676,0.571899,0.729065
284908038082,-0.356812,-0.117554,0.572144,0.729065
284908053069,-0.356689,-0.117432,0.572266,0.729004
284908075591,-0.356689,-0.117432,0.572266,0.729004
284908098120,-0.35675,-0.117432,0.572266,0.729004
284908113118,-0.35675,-0.117432,0.572266,0.729004
284908135567,-0.356812,-0.117432,0.572266,0.728943
284908158145,-0.356812,-0.117432,0.572266,0.728943
284908173058,-0.356812,-0.117432,0.572266,0.728943
284908195652,-0.356812,-0.117432,0.572266,0.728943
284908218154,-0.35675,-0.117371,0.572266,0.729004
284908233154,-0.356628,-0.11731,0.572266,0.729065
284908255685,-0.356567,-0.117249,0.572266,0.729065
284908278104,-0.356628,-0.117249,0.572266,0.729065
284908294542,-0.356628,-0.117065,0.572327,0.729065
284908315622,-0.356628,-0.117065,0.572327,0.729065
284908338081,-0.356689,-0.117065,0.572327,0.729004
284908354522,-0.356689,-0.117065,0.572327,0.729004
284908375654,-0.356689,-0.117126,0.572327,0.729004
284908405609,-0.356689,-0.117126,0.572327,0.729004
284908414553,-0.356689,-0.117126,0.572327,0.729004
284908435607,-0.356689,-0.117126,0.572266,0.729004
284908458120,-0.356689,-0.117126,0.572266,0.729004
284908474349,-0.35675,-0.117126,0.572266,0.729004
284908495613,-0.35675,-0.117126,0.572266,0.729004
284908518079,-0.35675,-0.117126,0.572266,0.729004
284908534560,-0.35675,-0.117126,0.572266,0.729004
284908555658,-0.356812,-0.117126,0.572266,0.729004
284908578119,-0.356812,-0.117126,0.572266,0.729004
284908594595,-0.356812,-0.117126,0.572266,0.729004
284908615649,-0.356812,-0.117188,0.572266,0.729004
284908638121,-0.356812,-0.117188,0.572266,0.729004
284908654522,-0.356873,-0.117188,0.572266,0.728943
284908675644,-0.356873,-0.117188,0.572266,0.728943
284908698163,-0.356873,-0.117188,0.572266,0.728943
284908714599,-0.356689,-0.117249,0.572205,0.729065
284908735600,-0.35675,-0.117249,0.572205,0.729065
284908758148,-0.35675,-0.117249,0.572205,0.729065
284908774516,-0.356567,-0.117188,0.572205,0.729126
284908795668,-0.356567,-0.117188,0.572205,0.729126
284908818173,-0.356567,-0.117249,0.572205,0.729126
284908834613,-0.356628,-0.117249,0.572205,0.729126
284908855604,-0.356628,-0.117249,0.572205,0.729126
284908878104,-0.356689,-0.117249,0.572205,0.729065
284908894575,-0.356689,-0.117249,0.572205,0.729065
284908915673,-0.356689,-0.117249,0.572205,0.729065
284908938141,-0.356689,-0.117249,0.572205,0.729065
284908962063,-0.356689,-0.117249,0.572205,0.729065
284908975660,-0.35675,-0.117249,0.572205,0.729065
284908998078,-0.356689,-0.117126,0.572266,0.729065
284909014544,-0.356567,-0.117004,0.572327,0.729065
284909035670,-0.356567,-0.117004,0.572327,0.729065
284909058165,-0.356628,-0.117004,0.572327,0.729065
284909074012,-0.356628,-0.117065,0.572327,0.729065
284909103142,-0.356628,-0.117065,0.572327,0.729065
284909118146,-0.356628,-0.117065,0.572327,0.729065
284909133968,-0.356628,-0.117065,0.572327,0.729065
284909155648,-0.356689,-0.117065,0.572327,0.729004
284909178153,-0.356689,-0.117065,0.572327,0.729004
284909193962,-0.356689,-0.117065,0.572327,0.729004
284909215626,-0.356689,-0.117126,0.572327,0.729004
284909238122,-0.356689,-0.117126,0.572327,0.729004
284909253980,-0.356689,-0.117065,0.572327,0.729004
284909277047,-0.356689,-0.117065,0.572327,0.729004
284909298172,-0.356689,-0.117065,0.572327,0.729004
284909314001,-0.356445,-0.116882,0.572205,0.729248
284909337079,-0.356384,-0.116333,0.57196,0.729553
284909358131,-0.355835,-0.115051,0.571472,0.730408
284909373980,-0.355164,-0.111938,0.57019,0.732239
284909404592,-0.356018,-0.108765,0.567505,0.734375
284909418132,-0.357422,-0.104309,0.564209,0.736877
284909433968,-0.358093,-0.0966187,0.560242,0.740662
284909457096,-0.359497,-0.0874023,0.555359,0.744751
284909478159,-0.362,-0.078125,0.549744,0.748718
284909493984,-0.36322,-0.0686646,0.542969,0.753967
284909517523,-0.363647,-0.0596313,0.534241,0.760742
284909537913,-0.365417,-0.0519409,0.522949,0.768311
284909553998,-0.367798,-0.0447388,0.509705,0.776428
284909584621,-0.368652,-0.0372314,0.495422,0.785645
284909598176,-0.368286,-0.0316162,0.480286,0.79541
284909613976,-0.369019,-0.0308228,0.464233,0.804565
284909644663,-0.371155,-0.032959,0.448608,0.812317
284909658155,-0.371826,-0.03302,0.433655,0.820129
284909673975,-0.370544,-0.0324707,0.419678,0.827881
284909697063,-0.369629,-0.0341187,0.406067,0.835022
284909718091,-0.369385,-0.0375977,0.393311,0.841064
284909733982,-0.369873,-0.0420532,0.381531,0.846069
284909757131,-0.371399,-0.046936,0.3703,0.850098
284909778181,-0.37262,-0.0513916,0.359497,0.853943
284909794009,-0.373047,-0.0548096,0.348816,0.857971
284909817081,-0.372681,-0.0574951,0.339111,0.861816
284909838146,-0.372437,-0.0604858,0.330383,0.865112
284909853977,-0.374573,-0.0647583,0.321838,0.867126
284909877137,-0.377502,-0.0686646,0.314209,0.868347
284909898171,-0.378601,-0.0709229,0.308105,0.869873
284909914002,-0.378357,-0.0723877,0.30304,0.871643
284909937122,-0.378845,-0.0740356,0.298584,0.872803
284909958156,-0.379272,-0.0753174,0.294617,0.87384
284909973969,-0.379089,-0.076355,0.290955,0.875061
284909996462,-0.379028,-0.0775146,0.287292,0.876221
284910018178,-0.378662,-0.0795898,0.284241,0.877197
284910034371,-0.37793,-0.0821533,0.281555,0.878113
284910056468,-0.378174,-0.085144,0.278992,0.87854
284910085693,-0.377686,-0.0874023,0.276794,0.879211
284910093975,-0.375977,-0.088623,0.275574,0.880249
284910116459,-0.374207,-0.0891113,0.275391,0.880981
284910138177,-0.372925,-0.0895386,0.276062,0.881287
284910153997,-0.371643,-0.09021,0.277161,0.881409
284910176444,-0.369995,-0.0905151,0.278198,0.881775
284910200062,-0.36792,-0.0905151,0.278992,0.882324
284910213980,-0.367188,-0.0906372,0.279724,0.882446
284910236477,-0.366089,-0.0904541,0.280701,0.882568
284910259624,-0.364319,-0.0901489,0.281494,0.883057
284910273979,-0.363037,-0.0895386,0.28186,0.883545
284910296422,-0.362061,-0.088623,0.282104,0.883972
284910319574,-0.361328,-0.0878296,0.282349,0.884277
284910334023,-0.360962,-0.0875244,0.282593,0.884399
284910356424,-0.360413,-0.0872803,0.282898,0.884521
284910379624,-0.360779,-0.0876465,0.283325,0.884216
284910393972,-0.360229,-0.0877075,0.284119,0.884155
284910416458,-0.359131,-0.0874634,0.285339,0.884277
284910439603,-0.357971,-0.0873413,0.286926,0.884216
284910453982,-0.356384,-0.0875244,0.288879,0.884216
284910476464,-0.355042,-0.0879517,0.290833,0.884094
284910499738,-0.354309,-0.0884399,0.292542,0.883728
284910513980,-0.353516,-0.0886841,0.294006,0.883606
284910536437,-0.352722,-0.0889282,0.295044,0.883484
284910559617,-0.352051,-0.0890503,0.296021,0.883423
284910573966,-0.352417,-0.0891724,0.296753,0.882996
284910596469,-0.352356,-0.0892334,0.297058,0.882935
284910619575,-0.35144,-0.0888672,0.296936,0.883423
284910634042,-0.351746,-0.0881958,0.296387,0.883484
284910656533,-0.352295,-0.0875854,0.296021,0.883484
284910679640,-0.3526,-0.0872192,0.296082,0.883362
284910700678,-0.3526,-0.086731,0.296143,0.883423
284910716481,-0.352234,-0.0859985,0.295898,0.883667
284910739666,-0.351807,-0.0855103,0.295593,0.884033
284910760706,-0.351807,-0.0853882,0.294983,0.884216
284910776561,-0.352783,-0.0856323,0.294312,0.884033
284910799675,-0.353394,-0.0858154,0.294067,0.88385
284910820774,-0.353333,-0.0855713,0.294312,0.88385
284910836442,-0.353394,-0.0853271,0.294617,0.883728
284910867184,-0.353577,-0.085144,0.294922,0.883606
284910880710,-0.35376,-0.0853882,0.295227,0.883362
284910896522,-0.35376,-0.0859985,0.29541,0.88324
284910919748,-0.353516,-0.086731,0.29541,0.883301
284910940737,-0.353577,-0.0873413,0.29541,0.883179
284910956492,-0.353882,-0.0877686,0.29541,0.883057
284910979068,-0.354004,-0.0879517,0.295593,0.882874
284911000765,-0.354004,-0.0878296,0.295776,0.882874
284911017072,-0.354065,-0.0878296,0.296082,0.882751
284911039078,-0.354431,-0.0879517,0.296326,0.882507
284911060671,-0.35437,-0.0876465,0.296814,0.882385
284911076516,-0.354431,-0.0875244,0.297302,0.882202
284911099075,-0.354309,-0.0876465,0.297729,0.88208
284911122169,-0.353882,-0.0877686,0.298218,0.88208
284911136554,-0.352966,-0.0876465,0.298584,0.882324
284911159115,-0.352905,-0.0876465,0.298584,0.882385
284911182148,-0.352966,-0.0875854,0.298645,0.882324
284911196487,-0.352966,-0.0875854,0.298645,0.882324
284911219001,-0.352966,-0.0874023,0.298523,0.882385
284911242103,-0.353333,-0.0874023,0.298279,0.882324
284911256473,-0.35376,-0.0874023,0.298218,0.882202
284911278965,-0.353821,-0.0874023,0.298218,0.882141
284911302115,-0.353821,-0.0874023,0.298218,0.882141
284911316533,-0.353577,-0.0871582,0.298523,0.882202
284911339010,-0.353088,-0.0869751,0.298767,0.882324
284911362100,-0.352844,-0.086853,0.298889,0.882385
284911376576,-0.3526,-0.0866699,0.299011,0.882446
284911399015,-0.352356,-0.0862427,0.299255,0.882507
284911422108,-0.352173,-0.0858154,0.299561,0.882507
284911436528,-0.351929,-0.0853882,0.299866,0.882568
284911459513,-0.351807,-0.085022,0.300049,0.882568
284911482112,-0.351807,-0.085022,0.300049,0.882568
284911495639,-0.352173,-0.085144,0.300171,0.882385
284911518189,-0.352173,-0.085083,0.300354,0.882324
284911534011,-0.352173,-0.085083,0.300354,0.882324
284911555663,-0.352173,-0.085083,0.300354,0.882324
284911578865,-0.3526,-0.0853271,0.300537,0.88208
284911592614,-0.353821,-0.0857544,0.300964,0.881348
284911615778,-0.355591,-0.0870361,0.302307,0.880066
284911638144,-0.358643,-0.0888062,0.304871,0.877808
284911652521,-0.362671,-0.0895996,0.308472,0.874756
284911675122,-0.364624,-0.0878296,0.313171,0.872498
284911698686,-0.366028,-0.0853271,0.31958,0.869812
284911712558,-0.369812,-0.0842896,0.327576,0.865295
284911735568,-0.377075,-0.0836792,0.33728,0.858521
284911758243,-0.381836,-0.0809326,0.349854,0.851562
284911772495,-0.383362,-0.0771484,0.364563,0.845032
284911795039,-0.384033,-0.072937,0.381409,0.837646
284911818201,-0.38623,-0.0700684,0.399475,0.82843
284911832577,-0.387939,-0.0684814,0.419556,0.817749
284911863865,-0.384155,-0.0662231,0.442017,0.807861
284911878286,-0.377441,-0.0630493,0.464478,0.798645
284911900817,-0.369751,-0.0598755,0.486023,0.789612
284911915148,-0.361328,-0.057312,0.506287,0.780884
284911938284,-0.352966,-0.0565796,0.524963,0.7724
284911952620,-0.34491,-0.0570068,0.542053,0.76416
284911975089,-0.336975,-0.0587158,0.556641,0.757019
284911998274,-0.329834,-0.0606079,0.568542,0.75116
284912014019,-0.322144,-0.0617676,0.578125,0.74707
284912035128,-0.315063,-0.0635376,0.585815,0.743958
284912058172,-0.309082,-0.0664673,0.591736,0.741516
284912072504,-0.303955,-0.0703125,0.596191,0.739746
284912095072,-0.300476,-0.0747681,0.599304,0.73822
284912118162,-0.297668,-0.0771484,0.601379,0.737366
284912132606,-0.294983,-0.0776978,0.602966,0.737122
284912155103,-0.292603,-0.078186,0.60437,0.736816
284912178267,-0.290771,-0.0793457,0.605713,0.736389
284912192607,-0.289124,-0.0806885,0.606934,0.73584
284912215110,-0.287354,-0.0811157,0.608215,0.735413
284912230061,-0.284851,-0.0797119,0.609863,0.735229
284912254065,-0.283569,-0.0788574,0.611145,0.734741
284912275061,-0.282776,-0.0782471,0.61261,0.733887
284912291555,-0.282593,-0.0777588,0.614197,0.732666
284912313194,-0.282654,-0.076355,0.615234,0.731934
284912335040,-0.283264,-0.0748291,0.615234,0.731812
284912350034,-0.283875,-0.0738525,0.614624,0.732239
284912372512,-0.2854,-0.0743408,0.613464,0.732544
284912395148,-0.287292,-0.0748901,0.612183,0.732788
284912410091,-0.289185,-0.0748291,0.611389,0.732727
284912432622,-0.290344,-0.0743408,0.611145,0.732483
284912455158,-0.291382,-0.0740967,0.611206,0.732117
284912470147,-0.291931,-0.0742798,0.611023,0.731995
284912492570,-0.292236,-0.074585,0.610718,0.732117
284912515091,-0.292664,-0.0752563,0.610291,0.732239
284912532979,-0.293213,-0.0762939,0.609802,0.7323
284912553995,-0.294067,-0.0776978,0.609253,0.7323
284912575025,-0.294495,-0.0782471,0.608826,0.732422
284912589996,-0.294922,-0.0778198,0.608154,0.732849
284912612545,-0.295471,-0.0766602,0.606995,0.733704
284912635169,-0.296387,-0.0749512,0.605042,0.735107
284912658300,-0.297913,-0.0730591,0.601929,0.737244
284912672613,-0.300171,-0.0712891,0.597778,0.739868
284912695142,-0.30249,-0.0678101,0.592529,0.743469
284912718311,-0.306091,-0.0632324,0.584961,0.748413
284912732643,-0.312012,-0.0587769,0.574402,0.754456
284912763928,-0.318787,-0.0536499,0.560974,0.762024
284912778311,-0.325378,-0.0477295,0.544739,0.771423
284912792609,-0.3349,-0.0446777,0.525574,0.780762
284912815171,-0.345093,-0.0418701,0.50531,0.789795
284912846424,-0.351685,-0.0372314,0.485046,0.799744
284912852613,-0.355347,-0.0334473,0.464905,0.810181
284912875118,-0.359802,-0.0337524,0.445374,0.819153
284912898349,-0.363403,-0.0360107,0.427246,0.827087
284912912636,-0.365662,-0.0407715,0.41095,0.834045
284912935134,-0.369324,-0.0474854,0.397095,0.838806
284912958219,-0.37384,-0.0548706,0.387146,0.841003
284912972676,-0.377197,-0.0606689,0.381775,0.841553
284912995051,-0.379028,-0.0643311,0.380005,0.841248
284913017517,-0.38031,-0.0657959,0.379761,0.840698
284913032501,-0.382202,-0.0656738,0.3797,0.839844
284913055034,-0.383484,-0.06427,0.379517,0.839478
284913071486,-0.383789,-0.0615845,0.379211,0.839661
284913092569,-0.383972,-0.0586548,0.378418,0.840149
284913115070,-0.384094,-0.055542,0.376953,0.841003
284913137670,-0.38385,-0.0527954,0.374573,0.842346
284913152686,-0.382446,-0.0504761,0.371277,0.844543
284913175120,-0.3797,-0.048645,0.367188,0.847717
284913197588,-0.376831,-0.0480347,0.362183,0.851196
284913212608,-0.374084,-0.0494995,0.356934,0.854492
284913235167,-0.371521,-0.0533447,0.351624,0.857544
284913257611,-0.368469,-0.0580444,0.346313,0.860718
284913272596,-0.363708,-0.0621948,0.341248,0.864502
284913294994,-0.358521,-0.065979,0.336487,0.868225
284913317536,-0.35498,-0.0697632,0.332397,0.870972
284913332542,-0.351318,-0.072998,0.329834,0.873169
284913355102,-0.345764,-0.0739746,0.329285,0.875488
284913377573,-0.341309,-0.0747681,0.329712,0.877014
284913400711,-0.341858,-0.0759277,0.3302,0.876526
284913415073,-0.342346,-0.0755005,0.330811,0.87616
284913437568,-0.342651,-0.0745239,0.331116,0.875977
284913452576,-0.343201,-0.0740967,0.331238,0.875732
284913475119,-0.344238,-0.0742188,0.331421,0.875305
284913491620,-0.345398,-0.0744019,0.331482,0.874756
284913512664,-0.346008,-0.0751343,0.332214,0.874207
284913535149,-0.343506,-0.0758667,0.333679,0.874573
284913551579,-0.340088,-0.0765991,0.3349,0.875366
284913572693,-0.338623,-0.0774536,0.335022,0.875793
284913595136,-0.338623,-0.0779419,0.334473,0.875977
284913611497,-0.339294,-0.0779419,0.333435,0.876099
284913632547,-0.341125,-0.0775757,0.332153,0.875916
284913655056,-0.343384,-0.0767212,0.331482,0.875366
284913677537,-0.345276,-0.0761108,0.33136,0.874756
284913692524,-0.346985,-0.0756836,0.331482,0.874023
284913715063,-0.3479,-0.0759277,0.331787,0.873535
284913737564,-0.348633,-0.0770874,0.332703,0.872803
284913752653,-0.346375,-0.0773926,0.334167,0.873108
284913775110,-0.343567,-0.0762329,0.335144,0.873962
284913791537,-0.343506,-0.0750122,0.335144,0.874084
284913813987,-0.344604,-0.0740356,0.334961,0.873779
284913835078,-0.345825,-0.0730591,0.334656,0.873535
284913851518,-0.347046,-0.0710449,0.334351,0.873291
284913874088,-0.346924,-0.0696411,0.334412,0.873474
284913895056,-0.348267,-0.0696411,0.334778,0.872742
284913918996,-0.349731,-0.0701294,0.33551,0.871887
284913934033,-0.348511,-0.0702515,0.336975,0.871765
284913955075,-0.345459,-0.0698853,0.33844,0.872498
284913977584,-0.343567,-0.0705566,0.339722,0.872681
284913994094,-0.343506,-0.0715332,0.340637,0.872253
284914015107,-0.343445,-0.0716553,0.341309,0.872009
284914037553,-0.342896,-0.0714111,0.341614,0.87207
284914054030,-0.343384,-0.0709839,0.341553,0.872009
284914075115,-0.344299,-0.0699463,0.34137,0.871765
284914091580,-0.345154,-0.0692749,0.341248,0.871521
284914114033,-0.346191,-0.069397,0.341064,0.871155
284914136582,-0.346619,-0.0700684,0.340576,0.871155
284914151509,-0.345825,-0.0702515,0.339966,0.871704
284914174036,-0.345398,-0.0701904,0.3396,0.872009
284914195212,-0.34552,-0.0701904,0.339233,0.872131
284914211494,-0.345886,-0.0704346,0.338867,0.87207
284914234044,-0.346741,-0.0706177,0.338379,0.871948
284914255082,-0.346924,-0.0699463,0.338135,0.871948
284914271557,-0.346985,-0.0693359,0.338257,0.872009
284914294087,-0.347046,-0.0690308,0.338501,0.871887
284914315175,-0.34668,-0.0689087,0.338684,0.871948
284914331668,-0.346313,-0.0690918,0.338745,0.87207
284914355564,-0.346558,-0.0692749,0.338684,0.872009
284914375123,-0.346558,-0.0693359,0.338684,0.872009
284914391565,-0.346924,-0.0693359,0.338623,0.871826
284914414025,-0.347473,-0.0689087,0.338501,0.871704
284914435116,-0.348145,-0.0682373,0.33844,0.871521
284914451558,-0.348816,-0.0678101,0.338196,0.871399
284914474082,-0.349182,-0.0675049,0.338013,0.871338
284914495162,-0.348816,-0.0670776,0.337708,0.871643
284914511512,-0.349243,-0.0671387,0.33728,0.871643
284914534056,-0.349304,-0.0671997,0.336487,0.871887
284914555101,-0.349976,-0.0674438,0.335693,0.871948
284914571496,-0.350525,-0.0674438,0.335388,0.871826
284914594130,-0.350281,-0.0668945,0.335388,0.871948
284914615172,-0.350159,-0.06604,0.33551,0.872009
284914631600,-0.350403,-0.0653076,0.335388,0.872009
284914654131,-0.350281,-0.0646973,0.335327,0.872131
284914678029,-0.35022,-0.0647583,0.335327,0.872131
284914691528,-0.350342,-0.0648193,0.335327,0.872131
284914714106,-0.349731,-0.0647583,0.335571,0.872253
284914735014,-0.349182,-0.0643921,0.335999,0.872314
284914751516,-0.348694,-0.0640869,0.336609,0.872314
284914774642,-0.348511,-0.0637207,0.337158,0.872192
284914804745,-0.348572,-0.0636597,0.337219,0.872192
284914811589,-0.347656,-0.0639038,0.336914,0.87262
284914834022,-0.34729,-0.0656738,0.336487,0.872803
284914856628,-0.347107,-0.0673218,0.335571,0.873108
284914871600,-0.347168,-0.067749,0.3349,0.873291
284914894150,-0.347656,-0.0680542,0.334839,0.873108
284914918073,-0.348694,-0.0683594,0.335083,0.87262
284914933062,-0.349487,-0.0684204,0.335571,0.87207
284914954140,-0.350037,-0.0683594,0.335632,0.871826
284914976595,-0.34967,-0.0667725,0.335754,0.87207
284914993003,-0.348877,-0.0651245,0.336243,0.872314
