timestamp,x,y,z,w
152168708798,-0.106262,-0.689819,-0.0801392,0.71167
152168730128,-0.105835,-0.689697,-0.0802002,0.711792
152168745145,-0.105469,-0.689575,-0.0802002,0.711975
152168768825,-0.105286,-0.689453,-0.0802002,0.712158
152168790217,-0.105164,-0.689209,-0.0802612,0.712402
152168805220,-0.105103,-0.689026,-0.0803223,0.712585
152168844464,-0.105103,-0.688782,-0.0803833,0.71283
152168852123,-0.105042,-0.688538,-0.0805664,0.713013
152168865128,-0.104919,-0.688354,-0.0807495,0.713196
152168889484,-0.104919,-0.688171,-0.0809326,0.713379
152168910854,-0.10498,-0.687927,-0.0811157,0.713562
152168925224,-0.105103,-0.687683,-0.0812988,0.713745
152168963160,-0.105225,-0.687439,-0.081543,0.713928
152168971948,-0.105347,-0.687195,-0.0817261,0.714111
152168986370,-0.105347,-0.687195,-0.0817261,0.714172
152169007490,-0.10498,-0.687012,-0.0820312,0.714294
152169038107,-0.10498,-0.687012,-0.0820312,0.714294
152169046393,-0.10498,-0.687012,-0.0820312,0.714294
152169067505,-0.104919,-0.687012,-0.0820923,0.714355
152169090654,-0.104919,-0.687012,-0.0820923,0.714355
152169106421,-0.104919,-0.687012,-0.0820923,0.714355
152169127474,-0.104919,-0.687012,-0.0820923,0.714355
152169150651,-0.104919,-0.687012,-0.0820923,0.714355
152169166431,-0.104919,-0.687012,-0.0820923,0.714355
152169187500,-0.104858,-0.687012,-0.0821533,0.714355
152169210676,-0.104858,-0.687012,-0.0821533,0.714355
152169226419,-0.104858,-0.687012,-0.0821533,0.714355
152169255637,-0.104858,-0.686951,-0.0821533,0.714355
152169270688,-0.104797,-0.686951,-0.0821533,0.714355
152169286432,-0.104797,-0.68689,-0.0820923,0.714478
152169307492,-0.104858,-0.686829,-0.0819092,0.714539
152169330638,-0.104919,-0.686768,-0.0817261,0.7146
152169346431,-0.105042,-0.686584,-0.081543,0.714783
152169367488,-0.105103,-0.686462,-0.0814209,0.714905
152169390599,-0.105286,-0.68634,-0.0812378,0.715027
152169406384,-0.105469,-0.686218,-0.0810547,0.715149
152169427449,-0.105713,-0.686035,-0.0808105,0.715271
152169449942,-0.106018,-0.685852,-0.0805054,0.715454
152169466434,-0.106445,-0.685669,-0.0800781,0.715637
152169487485,-0.106873,-0.685425,-0.0794678,0.715881
152169510025,-0.107422,-0.685242,-0.0787964,0.716064
152169526421,-0.107971,-0.684937,-0.0780029,0.716309
152169547472,-0.108643,-0.68457,-0.0772705,0.716675
152169569974,-0.109375,-0.684265,-0.0764771,0.716919
152169586386,-0.110107,-0.683899,-0.0756226,0.717224
152169607615,-0.110779,-0.683594,-0.0748291,0.717529
152169630014,-0.111206,-0.683228,-0.0741577,0.717834
152169646510,-0.111816,-0.683105,-0.0736694,0.717957
152169667476,-0.112244,-0.683044,-0.0733643,0.717957
152169689957,-0.112549,-0.683044,-0.0730591,0.717957
152169706401,-0.11261,-0.683105,-0.0727539,0.717896
152169727467,-0.112793,-0.683167,-0.0725708,0.717834
152169750006,-0.112915,-0.683167,-0.0722656,0.717834
152169766440,-0.112976,-0.683289,-0.0718994,0.717773
152169789576,-0.11322,-0.68335,-0.0715942,0.717712
152169809980,-0.113342,-0.683411,-0.071228,0.717651
152169826430,-0.113586,-0.683533,-0.0709229,0.717529
152169848887,-0.113708,-0.683655,-0.0704956,0.717407
152169869983,-0.113892,-0.683838,-0.0700684,0.717285
152169886412,-0.114014,-0.683838,-0.0697632,0.717285
152169908924,-0.114197,-0.68396,-0.0697021,0.717163
152169930017,-0.11438,-0.684143,-0.0697021,0.71698
152169946420,-0.114441,-0.684265,-0.0698242,0.716797
152169968950,-0.114441,-0.684448,-0.0698853,0.716614
152169990007,-0.114197,-0.684692,-0.0700073,0.71637
152170006425,-0.114014,-0.684998,-0.0700073,0.716187
152170028918,-0.113831,-0.685242,-0.0701904,0.715942
152170049933,-0.113708,-0.685425,-0.0702515,0.715759
152170066503,-0.113525,-0.685608,-0.0703125,0.715576
152170088952,-0.113586,-0.685791,-0.0703125,0.715393
152170110042,-0.113525,-0.685974,-0.0703735,0.715271
152170126458,-0.113464,-0.686096,-0.0703735,0.71521
152170148988,-0.113342,-0.686218,-0.0703125,0.715027
152170170185,-0.113281,-0.68634,-0.0701904,0.714966
152170186436,-0.113281,-0.68634,-0.0701904,0.714966
152170208947,-0.113342,-0.686462,-0.0700073,0.714844
152170230079,-0.113342,-0.686584,-0.0698242,0.714722
152170246481,-0.113403,-0.686707,-0.0695801,0.714661
152170269038,-0.113403,-0.686829,-0.0692139,0.7146
152170290149,-0.113342,-0.686951,-0.0686646,0.714539
152170306530,-0.113342,-0.687012,-0.0681763,0.714539
152170328996,-0.113464,-0.686951,-0.0678101,0.7146
152170350058,-0.11377,-0.68689,-0.0679932,0.7146
152170366482,-0.113953,-0.687012,-0.0680542,0.714417
152170388985,-0.113953,-0.687012,-0.0680542,0.714417
152170409993,-0.113953,-0.687012,-0.0680542,0.714417
152170426528,-0.113953,-0.687012,-0.0680542,0.714417
152170448962,-0.113953,-0.687012,-0.0680542,0.714417
152170469987,-0.113953,-0.687012,-0.0681152,0.714417
152170486473,-0.113892,-0.687012,-0.0681152,0.714417
152170509004,-0.113892,-0.687012,-0.0681152,0.714417
152170530035,-0.113892,-0.687012,-0.0681152,0.714417
152170546442,-0.113892,-0.687073,-0.0681152,0.714417
152170568960,-0.113892,-0.687012,-0.0681152,0.714417
152170590033,-0.113892,-0.687073,-0.0681152,0.714417
152170605745,-0.113953,-0.687073,-0.0679932,0.714355
152170628213,-0.114014,-0.687134,-0.0678101,0.714294
152170650678,-0.114136,-0.687134,-0.067688,0.714294
152170665638,-0.114319,-0.687195,-0.0675659,0.714233
152170688184,-0.114441,-0.687256,-0.0674438,0.714172
152170710768,-0.114502,-0.687317,-0.0671997,0.714111
152170725732,-0.114624,-0.687439,-0.0669556,0.71405
152170748152,-0.114746,-0.687439,-0.0667725,0.713989
152170770750,-0.114868,-0.687439,-0.0665894,0.71405
152170787112,-0.114929,-0.687439,-0.0663452,0.713989
152170808169,-0.11499,-0.687439,-0.0661621,0.713989
152170830725,-0.115112,-0.687439,-0.06604,0.713989
152170847117,-0.115112,-0.687439,-0.06604,0.713989
152170868229,-0.115112,-0.687439,-0.06604,0.713989
152170890675,-0.115112,-0.687439,-0.06604,0.713989
152170907196,-0.115112,-0.687439,-0.06604,0.713989
152170928202,-0.115112,-0.687439,-0.06604,0.713989
152170952151,-0.115112,-0.687439,-0.06604,0.713989
152170967132,-0.115112,-0.687439,-0.06604,0.713989
152170988184,-0.115112,-0.6875,-0.06604,0.713989
152171010673,-0.115112,-0.6875,-0.06604,0.713989
152171027099,-0.115112,-0.6875,-0.06604,0.713989
152171048199,-0.115112,-0.687439,-0.06604,0.713989
152171070619,-0.115112,-0.687439,-0.06604,0.713989
152171087114,-0.115112,-0.687439,-0.06604,0.713989
152171108185,-0.115112,-0.6875,-0.06604,0.713989
152171130721,-0.115112,-0.6875,-0.06604,0.713989
152171147110,-0.115112,-0.6875,-0.06604,0.713989
152171168153,-0.115112,-0.6875,-0.06604,0.713989
152171190647,-0.115112,-0.6875,-0.06604,0.713928
152171207092,-0.115112,-0.6875,-0.06604,0.713989
152171229674,-0.115112,-0.6875,-0.06604,0.713928
152171250718,-0.115112,-0.6875,-0.06604,0.713928
152171267143,-0.115112,-0.6875,-0.06604,0.713928
152171288168,-0.115112,-0.6875,-0.06604,0.713928
152171310865,-0.115112,-0.6875,-0.06604,0.713928
152171327169,-0.115112,-0.6875,-0.06604,0.713928
152171348182,-0.115112,-0.6875,-0.06604,0.713928
152171370729,-0.115112,-0.6875,-0.06604,0.713928
152171387151,-0.115112,-0.6875,-0.06604,0.713928
152171408138,-0.115112,-0.6875,-0.06604,0.713928
152171430763,-0.115112,-0.6875,-0.06604,0.713928
152171447153,-0.115112,-0.6875,-0.06604,0.713928
152171468236,-0.115112,-0.6875,-0.06604,0.713989
152171490711,-0.115112,-0.6875,-0.06604,0.713989
152171507168,-0.115112,-0.6875,-0.06604,0.713989
152171535803,-0.115112,-0.6875,-0.06604,0.713928
152171550768,-0.115112,-0.6875,-0.06604,0.713989
152171567109,-0.115112,-0.6875,-0.06604,0.713989
152171588272,-0.115112,-0.6875,-0.06604,0.713989
152171610700,-0.115112,-0.6875,-0.06604,0.713989
152171627119,-0.115051,-0.687561,-0.0658569,0.713928
152171648144,-0.115112,-0.687561,-0.0656128,0.713928
152171670658,-0.115234,-0.687561,-0.0653687,0.713928
152171686433,-0.115234,-0.687561,-0.0653687,0.713928
152171708166,-0.115234,-0.687561,-0.0653687,0.713928
152171730646,-0.115234,-0.687561,-0.0653076,0.713928
152171746503,-0.115234,-0.687561,-0.0653076,0.713928
152171769640,-0.115234,-0.687561,-0.0653076,0.713928
152171790702,-0.115234,-0.687561,-0.0653076,0.713928
152171806586,-0.115234,-0.687561,-0.0653076,0.713928
152171829670,-0.115234,-0.687561,-0.0653076,0.713928
152171850725,-0.115234,-0.687561,-0.0653076,0.713928
152171866432,-0.115234,-0.687561,-0.0653076,0.713928
152171889842,-0.115234,-0.687561,-0.0653076,0.713928
152171910814,-0.115234,-0.687561,-0.0653076,0.713928
152171926478,-0.115234,-0.687561,-0.0653076,0.713928
152171949705,-0.115234,-0.687561,-0.0653076,0.713928
152171970714,-0.115234,-0.687561,-0.0653076,0.713928
152171986518,-0.115234,-0.687561,-0.0653076,0.713928
152172009631,-0.115234,-0.687561,-0.0653076,0.713928
152172032203,-0.115295,-0.687561,-0.0653076,0.713928
152172046500,-0.115295,-0.687561,-0.0653076,0.713928
152172069642,-0.115295,-0.687561,-0.0653076,0.713928
152172090797,-0.115295,-0.687561,-0.0652466,0.713928
152172106578,-0.115295,-0.687561,-0.0652466,0.713928
152172129654,-0.115295,-0.687561,-0.0652466,0.713928
152172150738,-0.115295,-0.687561,-0.0652466,0.713928
152172166486,-0.115295,-0.687561,-0.0652466,0.713928
152172189634,-0.115295,-0.687561,-0.0652466,0.713928
152172210825,-0.115295,-0.687561,-0.0652466,0.713928
152172226519,-0.115356,-0.687561,-0.0652466,0.713928
152172249673,-0.115356,-0.687561,-0.0652466,0.713989
152172270750,-0.115356,-0.687561,-0.0651855,0.713928
152172286477,-0.115356,-0.687561,-0.0651855,0.713928
152172309642,-0.115417,-0.687561,-0.0649414,0.713928
152172330659,-0.115479,-0.687561,-0.0646362,0.713989
152172346468,-0.115417,-0.687317,-0.0639648,0.714233
152172369638,-0.115356,-0.68689,-0.0635376,0.714722
152172390762,-0.11554,-0.686646,-0.0632324,0.714966
152172406495,-0.115845,-0.686279,-0.0629272,0.715332
152172429664,-0.116455,-0.685852,-0.0629272,0.715637
152172450716,-0.117249,-0.685364,-0.0631104,0.715942
152172466523,-0.117859,-0.68512,-0.0631104,0.716064
152172489730,-0.118164,-0.68512,-0.0629883,0.716003
152172510777,-0.118164,-0.68512,-0.0629883,0.716064
152172526460,-0.118164,-0.68512,-0.0629883,0.716064
152172549736,-0.118225,-0.685181,-0.0629883,0.715942
152172570734,-0.118164,-0.685364,-0.0629883,0.71582
152172586524,-0.118103,-0.685547,-0.0629272,0.715637
152172608992,-0.117981,-0.68573,-0.0628662,0.715515
152172630736,-0.117798,-0.685974,-0.0628052,0.715332
152172646489,-0.117615,-0.686157,-0.0628052,0.715149
152172669076,-0.117493,-0.686462,-0.0627441,0.714905
152172692204,-0.117249,-0.686646,-0.062561,0.714722
152172706541,-0.117126,-0.686768,-0.0623779,0.714661
152172728975,-0.116882,-0.686951,-0.0621338,0.714539
152172752159,-0.11676,-0.687073,-0.0619507,0.714478
152172766469,-0.11676,-0.687073,-0.0619507,0.714478
152172789036,-0.11676,-0.687073,-0.0619507,0.714478
152172812222,-0.11676,-0.687073,-0.0619507,0.714478
152172826534,-0.116699,-0.687134,-0.0618896,0.714417
152172849056,-0.116699,-0.687317,-0.0619507,0.714233
152172872311,-0.116699,-0.6875,-0.0620117,0.71405
152172886579,-0.116577,-0.687744,-0.0620728,0.713867
152172909059,-0.116699,-0.687927,-0.0623169,0.713623
152172932175,-0.116821,-0.68811,-0.0625,0.713379
152172946581,-0.116821,-0.688354,-0.0627441,0.713135
152172969045,-0.116943,-0.688721,-0.0629883,0.712769
152172992183,-0.117004,-0.689026,-0.0631714,0.712463
152173006463,-0.116882,-0.68927,-0.0632935,0.712219
152173029002,-0.116699,-0.689575,-0.0632935,0.711975
152173052202,-0.116638,-0.689758,-0.0632324,0.711731
152173066583,-0.11676,-0.690002,-0.0631104,0.711548
152173089028,-0.11676,-0.690186,-0.0629272,0.711365
152173112184,-0.11676,-0.690247,-0.0629272,0.711304
152173126463,-0.11676,-0.690247,-0.0626221,0.711365
152173148957,-0.11676,-0.690186,-0.0622559,0.711426
152173172170,-0.116699,-0.690125,-0.0619507,0.711548
152173193243,-0.116638,-0.689941,-0.0613403,0.711792
152173209076,-0.116577,-0.689331,-0.060791,0.712463
152173232207,-0.117126,-0.688782,-0.060791,0.712891
152173253271,-0.117554,-0.688477,-0.06073,0.713074
152173269038,-0.118103,-0.68811,-0.0606079,0.713379
152173292199,-0.118469,-0.687927,-0.0604248,0.713501
152173313237,-0.118835,-0.687805,-0.0601807,0.713623
152173329014,-0.119141,-0.687622,-0.0598755,0.713745
152173352267,-0.119446,-0.687378,-0.0596313,0.713928
152173373292,-0.119629,-0.687317,-0.0594482,0.713989
152173389044,-0.119751,-0.687256,-0.0592651,0.71405
152173412236,-0.119751,-0.687256,-0.0592041,0.71405
152173433302,-0.119751,-0.687256,-0.0592041,0.71405
152173449058,-0.119629,-0.687317,-0.059021,0.71405
152173472267,-0.119568,-0.687439,-0.0588379,0.713928
152173493336,-0.119385,-0.687561,-0.0586548,0.713806
152173509057,-0.119141,-0.687744,-0.0584106,0.713745
152173538196,-0.118958,-0.687927,-0.0582886,0.713623
152173553219,-0.118713,-0.688049,-0.0581055,0.713562
152173569036,-0.118408,-0.688232,-0.0579834,0.713379
152173591509,-0.118103,-0.688477,-0.0579224,0.713257
152173613206,-0.117798,-0.688782,-0.0578613,0.713013
152173629048,-0.11731,-0.689087,-0.0578003,0.712769
152173651508,-0.117004,-0.689514,-0.0578613,0.712463
152173674657,-0.11676,-0.68988,-0.0579834,0.712097
152173689138,-0.116455,-0.690186,-0.0579834,0.711853
152173711603,-0.11615,-0.690491,-0.0579224,0.711609
152173734764,-0.115906,-0.690857,-0.0579224,0.711304
152173749041,-0.115723,-0.691162,-0.0579224,0.71106
152173771540,-0.115601,-0.691406,-0.0578613,0.710815
152173794759,-0.115601,-0.691406,-0.0578613,0.710815
152173809059,-0.115784,-0.691467,-0.0581665,0.710693
152173831592,-0.115967,-0.691528,-0.0584717,0.710571
152173854753,-0.116089,-0.691467,-0.0587769,0.710632
152173869036,-0.116455,-0.691406,-0.0593872,0.710571
152173891555,-0.117126,-0.691223,-0.0604248,0.71051
152173914733,-0.117432,-0.691223,-0.0612793,0.710388
152173929026,-0.117798,-0.691162,-0.0621948,0.710327
152173951600,-0.118042,-0.691101,-0.0632935,0.710266
152173974814,-0.118042,-0.691162,-0.0641479,0.710083
152173989071,-0.117859,-0.691284,-0.0648193,0.709961
152174011538,-0.117676,-0.691406,-0.0652466,0.709839
152174034728,-0.117493,-0.691467,-0.0656128,0.709717
152174049005,-0.117493,-0.691406,-0.0661621,0.709839
152174071518,-0.117493,-0.691406,-0.0661621,0.709839
152174094769,-0.117493,-0.691406,-0.0661621,0.709778
152174109118,-0.117493,-0.691406,-0.0661621,0.709778
152174131537,-0.117432,-0.691284,-0.0661621,0.7099
152174154830,-0.11731,-0.691101,-0.0661011,0.710083
152174175882,-0.117249,-0.690918,-0.06604,0.710327
152174191550,-0.117188,-0.690735,-0.0658569,0.71051
152174214781,-0.117126,-0.690491,-0.0656738,0.710754
152174235833,-0.117065,-0.690308,-0.0654907,0.710999
152174250742,-0.117004,-0.690186,-0.0653076,0.711121
152174265154,-0.116882,-0.68988,-0.0650635,0.711426
152174287644,-0.116882,-0.689697,-0.0649414,0.71167
152174310812,-0.116821,-0.689514,-0.0649414,0.711853
152174325070,-0.116699,-0.689331,-0.0648193,0.712036
152174347657,-0.116638,-0.689209,-0.0648193,0.712219
152174370852,-0.116455,-0.689026,-0.0648804,0.712402
152174385152,-0.116272,-0.688904,-0.0648193,0.712524
152174407726,-0.116089,-0.688782,-0.0647583,0.712708
152174430805,-0.115967,-0.688599,-0.0647583,0.712891
152174445156,-0.115845,-0.688416,-0.0646973,0.713074
152174467625,-0.115662,-0.688232,-0.0645752,0.713318
152174490744,-0.11554,-0.68811,-0.0644531,0.71344
152174505125,-0.115479,-0.687927,-0.06427,0.713623
152174527634,-0.115356,-0.687805,-0.0640869,0.713867
152174550857,-0.115173,-0.687561,-0.0638428,0.71405
152174565151,-0.115051,-0.687378,-0.0635376,0.714294
152174587661,-0.115112,-0.687134,-0.0631714,0.714539
152174610837,-0.11499,-0.687012,-0.0626831,0.714722
152174625111,-0.114868,-0.686829,-0.0622559,0.714966
152174647570,-0.114868,-0.686646,-0.0618896,0.71521
152174670762,-0.114807,-0.686462,-0.0615234,0.715393
152174685174,-0.114624,-0.686279,-0.0612183,0.715637
152174707682,-0.114563,-0.686035,-0.0609131,0.715881
152174730727,-0.114258,-0.685791,-0.0606079,0.716248
152174745231,-0.114014,-0.685547,-0.0602417,0.716492
152174767603,-0.113831,-0.684998,-0.0595703,0.717102
152174790863,-0.113708,-0.684326,-0.0593872,0.717773
152174805134,-0.113953,-0.683838,-0.0593872,0.718201
152174827660,-0.114685,-0.682922,-0.0597534,0.718933
152174850810,-0.115723,-0.682312,-0.0602417,0.71936
152174865178,-0.11615,-0.681885,-0.0604858,0.719666
152174887656,-0.116699,-0.681519,-0.060791,0.719849
152174910814,-0.117188,-0.681091,-0.0610962,0.720154
152174925121,-0.117432,-0.680786,-0.0612793,0.720459
152174947639,-0.117554,-0.680481,-0.0614014,0.720642
152174970861,-0.117676,-0.680237,-0.0615234,0.720825
152174985180,-0.117798,-0.680054,-0.0615234,0.721008
152175007687,-0.117981,-0.679871,-0.0615845,0.721191
152175030827,-0.118164,-0.679688,-0.0616455,0.721252
152175045128,-0.118286,-0.679504,-0.0616455,0.721436
152175067707,-0.118469,-0.67926,-0.0617065,0.721619
152175090810,-0.118469,-0.67926,-0.0617065,0.721619
152175105131,-0.118469,-0.67926,-0.0617065,0.721619
152175127614,-0.118469,-0.67926,-0.0617065,0.721619
152175150112,-0.118469,-0.67926,-0.0617065,0.721619
152175165122,-0.118469,-0.67926,-0.0617065,0.72168
152175187635,-0.118408,-0.67926,-0.0617676,0.72168
152175210866,-0.118408,-0.67926,-0.0617676,0.72168
152175225184,-0.118408,-0.67926,-0.0617676,0.72168
152175247585,-0.118225,-0.679382,-0.0618286,0.721558
152175270854,-0.11792,-0.679565,-0.0618286,0.721436
152175285130,-0.117676,-0.67981,-0.0620728,0.721191
152175307580,-0.117615,-0.680115,-0.0629272,0.720886
152175330779,-0.117737,-0.680176,-0.0640259,0.720703
152175345117,-0.117432,-0.680481,-0.0649414,0.720398
152175367662,-0.116882,-0.680908,-0.0656128,0.719971
152175390875,-0.116211,-0.681396,-0.06604,0.719604
152175405204,-0.115784,-0.681885,-0.0664062,0.719177
152175427635,-0.115295,-0.682373,-0.0667114,0.71875
152175450809,-0.11499,-0.682739,-0.0668945,0.718445
152175465174,-0.114685,-0.683044,-0.0669556,0.718201
152175487634,-0.11438,-0.683228,-0.0667725,0.71814
152175510811,-0.11438,-0.683167,-0.0667725,0.71814
152175525160,-0.11438,-0.683105,-0.0664062,0.718262
152175547578,-0.114319,-0.682922,-0.0661621,0.718445
152175570046,-0.114319,-0.682861,-0.0658569,0.718506
152175585156,-0.114319,-0.682861,-0.0654907,0.718567
152175607656,-0.114441,-0.6828,-0.0651245,0.718689
152175630126,-0.114746,-0.6828,-0.0651245,0.718628
152175645069,-0.114929,-0.682739,-0.0656738,0.718567
152175667586,-0.11499,-0.682861,-0.06604,0.718445
152175690102,-0.114685,-0.683105,-0.0662842,0.718201
152175705179,-0.114441,-0.683289,-0.0665283,0.718018
152175727640,-0.114197,-0.683533,-0.0667725,0.717834
152175750224,-0.113892,-0.683716,-0.0668945,0.717712
152175765177,-0.113892,-0.683716,-0.0668945,0.717712
152175787578,-0.113831,-0.683716,-0.0668945,0.717712
152175810165,-0.113831,-0.683716,-0.0668945,0.717712
152175825163,-0.113831,-0.683716,-0.0669556,0.717712
152175847623,-0.113831,-0.683716,-0.0667114,0.717773
152175870167,-0.11377,-0.683655,-0.0664673,0.717834
152175885136,-0.113831,-0.683655,-0.0662231,0.717834
152175907712,-0.11377,-0.683594,-0.065918,0.717957
152175930210,-0.113708,-0.68335,-0.0655518,0.718201
152175945208,-0.113586,-0.683411,-0.0651855,0.718201
152175967709,-0.113525,-0.68335,-0.0649414,0.718323
152175990184,-0.113525,-0.68335,-0.0649414,0.718323
152176005163,-0.11377,-0.683167,-0.0652466,0.718384
152176027693,-0.11377,-0.683167,-0.0652466,0.718384
152176050192,-0.113708,-0.683289,-0.0655518,0.718262
152176065182,-0.113525,-0.683411,-0.0658569,0.71814
152176087686,-0.113342,-0.683472,-0.06604,0.718079
152176110118,-0.113098,-0.683533,-0.0662231,0.718018
152176125138,-0.113098,-0.683533,-0.0662231,0.718018
152176147626,-0.113098,-0.683594,-0.0662842,0.718018
152176170148,-0.113037,-0.683594,-0.0662842,0.718018
152176185136,-0.113098,-0.683533,-0.0661621,0.718079
152176207586,-0.113159,-0.683472,-0.065918,0.71814
152176230102,-0.11322,-0.683411,-0.0657349,0.718201
152176245124,-0.113281,-0.68335,-0.0655518,0.718262
152176267614,-0.113464,-0.683228,-0.0652466,0.718384
152176290119,-0.113586,-0.683228,-0.0651245,0.718384
152176305164,-0.113586,-0.683167,-0.0651245,0.718445
152176327595,-0.113586,-0.683167,-0.0651245,0.718445
152176350092,-0.113586,-0.683167,-0.0651245,0.718445
152176365093,-0.113586,-0.683167,-0.0651245,0.718445
152176387634,-0.113525,-0.683167,-0.0651245,0.718445
152176410250,-0.113525,-0.683167,-0.0651245,0.718445
152176426566,-0.113525,-0.683167,-0.0651245,0.718445
152176447587,-0.113525,-0.683167,-0.0651245,0.718445
152176470143,-0.113525,-0.683167,-0.0651245,0.718445
152176486614,-0.113525,-0.683167,-0.0651855,0.718445
152176507706,-0.113464,-0.683167,-0.0651855,0.718445
152176530227,-0.113464,-0.683167,-0.0651855,0.718445
152176546610,-0.113464,-0.683167,-0.0651855,0.718445
152176567676,-0.113464,-0.683167,-0.0651855,0.718445
152176590137,-0.113464,-0.683167,-0.0651855,0.718445
152176606559,-0.113464,-0.683105,-0.0652466,0.718506
152176630522,-0.113403,-0.683105,-0.0652466,0.718506
152176650122,-0.113464,-0.683105,-0.0650635,0.718567
152176666577,-0.113525,-0.682983,-0.0648193,0.718628
152176687646,-0.113586,-0.682861,-0.0645752,0.71875
152176710204,-0.113525,-0.682495,-0.0641479,0.719177
152176726576,-0.113525,-0.681885,-0.0637817,0.719788
152176747685,-0.113953,-0.681335,-0.0636597,0.720276
152176770108,-0.114624,-0.680786,-0.0635986,0.720703
152176786562,-0.115295,-0.68042,-0.0637817,0.720886
152176807624,-0.115967,-0.680054,-0.0636597,0.72113
152176830116,-0.116394,-0.679932,-0.0635376,0.721191
152176846592,-0.117065,-0.679749,-0.0632935,0.721313
152176867623,-0.117371,-0.679626,-0.0629883,0.721375
152176890119,-0.117493,-0.679504,-0.0628052,0.721497
152176906586,-0.117798,-0.679382,-0.0626221,0.721558
152176935818,-0.11792,-0.679321,-0.062439,0.721619
152176950263,-0.118103,-0.67926,-0.0621338,0.72168
152176966609,-0.118103,-0.679199,-0.0618896,0.721741
152176987741,-0.118103,-0.679199,-0.0618896,0.721741
152177010192,-0.117981,-0.679321,-0.0617065,0.72168
152177026717,-0.117859,-0.679382,-0.0614624,0.721619
152177047727,-0.117859,-0.679382,-0.0614624,0.721619
152177070259,-0.117859,-0.679382,-0.0614624,0.721619
152177086625,-0.117859,-0.679382,-0.0614624,0.721619
152177107731,-0.117798,-0.679565,-0.0611572,0.721558
152177130208,-0.117676,-0.679688,-0.0610962,0.721436
152177146618,-0.117554,-0.67981,-0.0610352,0.721313
152177167621,-0.117493,-0.679932,-0.0609131,0.721191
152177190144,-0.117371,-0.680054,-0.0608521,0.721191
152177206594,-0.117249,-0.680237,-0.060791,0.721008
152177227607,-0.117188,-0.680481,-0.06073,0.720825
152177250100,-0.116943,-0.680725,-0.060791,0.720581
152177266592,-0.116821,-0.680969,-0.0606689,0.720337
152177287589,-0.116516,-0.681335,-0.06073,0.720093
152177310129,-0.116272,-0.681702,-0.0606689,0.719788
152177326596,-0.116028,-0.68219,-0.0606079,0.719421
152177349088,-0.115601,-0.682617,-0.0605469,0.719055
152177370124,-0.115173,-0.682983,-0.0604248,0.71875
152177386671,-0.114929,-0.683411,-0.0601807,0.718445
152177409101,-0.114868,-0.683777,-0.0598145,0.718079
152177430121,-0.114868,-0.684082,-0.0595093,0.717834
152177446590,-0.114685,-0.684448,-0.0592651,0.71759
152177469163,-0.114441,-0.684753,-0.0591431,0.717285
152177490196,-0.114258,-0.685242,-0.059082,0.716919
152177506619,-0.113953,-0.685547,-0.059082,0.716614
152177535178,-0.11377,-0.685913,-0.0591431,0.716309
152177553055,-0.113403,-0.686218,-0.0593872,0.716064
152177566634,-0.112976,-0.686523,-0.0593872,0.71582
152177589110,-0.112671,-0.686829,-0.0593872,0.715576
152177610190,-0.112488,-0.687134,-0.0594482,0.715332
152177626648,-0.112366,-0.687256,-0.0595093,0.71521
152177649078,-0.112244,-0.687378,-0.0594482,0.715088
152177670238,-0.112122,-0.6875,-0.0593872,0.715027
152177686597,-0.112122,-0.687622,-0.0592041,0.714905
152177709177,-0.112061,-0.687683,-0.059082,0.714844
152177730141,-0.112061,-0.687683,-0.059082,0.714844
152177746682,-0.112,-0.687866,-0.0588379,0.714722
152177769177,-0.111938,-0.687866,-0.0585327,0.714722
152177790251,-0.111816,-0.687866,-0.0581665,0.714783
152177806699,-0.111755,-0.687927,-0.0578613,0.714783
152177829105,-0.111694,-0.687866,-0.057373,0.714905
152177858371,-0.111633,-0.687683,-0.0570068,0.715088
152177866591,-0.111755,-0.687439,-0.0567017,0.715332
152177888383,-0.111877,-0.687378,-0.0564575,0.715454
152177910872,-0.111877,-0.687317,-0.0564575,0.715454
152177925859,-0.112061,-0.687195,-0.0562134,0.715576
152177948335,-0.112366,-0.687073,-0.0565796,0.715637
152177970928,-0.112427,-0.687012,-0.0567627,0.715698
152177985845,-0.112671,-0.687073,-0.0571289,0.715515
152178008365,-0.11261,-0.687195,-0.0574341,0.715393
152178030837,-0.112549,-0.687378,-0.0575562,0.715271
152178045929,-0.112305,-0.687561,-0.0576172,0.715027
152178068383,-0.112122,-0.687805,-0.0576782,0.714844
152178090883,-0.111877,-0.688049,-0.0576782,0.714661
152178105881,-0.111694,-0.688293,-0.0576172,0.714478
152178128377,-0.111389,-0.688538,-0.0575562,0.714294
152178150863,-0.111145,-0.688843,-0.0574341,0.71405
152178167253,-0.110901,-0.689148,-0.0574341,0.713806
152178188316,-0.110535,-0.689514,-0.057312,0.713501
152178210787,-0.110229,-0.68988,-0.0571899,0.713196
152178225837,-0.109985,-0.690186,-0.0571289,0.712952
152178248291,-0.10968,-0.690491,-0.0570679,0.712708
152178270872,-0.109497,-0.690735,-0.0570679,0.712463
152178285869,-0.109253,-0.690918,-0.0571289,0.712341
152178308456,-0.10907,-0.691101,-0.0571289,0.712219
152178330851,-0.10907,-0.69104,-0.0571289,0.712219
152178345842,-0.10907,-0.69104,-0.0571289,0.712219
152178368340,-0.109009,-0.69104,-0.0571289,0.712219
152178390946,-0.109009,-0.691101,-0.0571289,0.712219
152178414829,-0.109009,-0.69104,-0.0571899,0.712219
152178428391,-0.109009,-0.69104,-0.0571899,0.712219
152178450853,-0.109009,-0.69104,-0.0571899,0.712219
152178467277,-0.109009,-0.69104,-0.0571899,0.71228
152178488407,-0.109009,-0.69104,-0.0571899,0.71228
152178504200,-0.109009,-0.69104,-0.0571899,0.71228
152178527298,-0.108948,-0.69104,-0.0571899,0.71228
152178548327,-0.108948,-0.69104,-0.0571899,0.71228
152178564186,-0.108948,-0.69104,-0.057251,0.71228
152178587251,-0.108948,-0.69104,-0.057251,0.71228
152178608329,-0.108948,-0.69104,-0.057251,0.71228
152178624150,-0.108948,-0.690979,-0.057251,0.71228
152178647354,-0.108948,-0.690979,-0.057251,0.712341
152178668414,-0.108948,-0.690979,-0.057251,0.712341
152178684205,-0.109009,-0.690918,-0.0575562,0.712341
152178707329,-0.109192,-0.690979,-0.0578613,0.71228
152178728398,-0.109192,-0.69104,-0.0581055,0.712158
152178744114,-0.109314,-0.690979,-0.0585938,0.712158
152178767335,-0.109314,-0.69104,-0.059021,0.712036
152178788381,-0.109192,-0.691101,-0.0593872,0.712036
152178804176,-0.109009,-0.691162,-0.0596313,0.711914
152178827328,-0.108826,-0.691284,-0.0598145,0.711853
152178848390,-0.108643,-0.691284,-0.0599365,0.711853
152178864124,-0.108643,-0.691284,-0.0599365,0.711853
152178887381,-0.108643,-0.691223,-0.0599365,0.711914
152178908442,-0.108643,-0.691223,-0.0599365,0.711914
152178924209,-0.108643,-0.691223,-0.0599365,0.711914
152178947360,-0.108582,-0.691223,-0.0599365,0.711914
152178969750,-0.108582,-0.691223,-0.0599976,0.711914
152178984136,-0.108582,-0.691223,-0.0599976,0.711914
152179007300,-0.108582,-0.691223,-0.0599976,0.711914
152179028316,-0.108521,-0.691162,-0.0599976,0.711975
152179044112,-0.108521,-0.691162,-0.0599976,0.711975
152179067253,-0.108521,-0.691162,-0.0600586,0.711975
152179089792,-0.108521,-0.691162,-0.0600586,0.711975
152179104175,-0.108459,-0.691162,-0.0600586,0.712036
152179127273,-0.108459,-0.691162,-0.0600586,0.712036
152179148299,-0.108459,-0.691162,-0.0601196,0.711975
152179164147,-0.108459,-0.691162,-0.0601196,0.711975
152179187382,-0.108459,-0.691162,-0.0601196,0.712036
152179208428,-0.108398,-0.691162,-0.0601196,0.712036
152179224141,-0.108398,-0.691162,-0.0601196,0.712036
152179246645,-0.108398,-0.691101,-0.0601807,0.712036
152179275907,-0.108398,-0.691101,-0.0601807,0.712036
152179284164,-0.108398,-0.691101,-0.0601807,0.712036
152179306681,-0.108337,-0.691101,-0.0601807,0.712036
152179335839,-0.108337,-0.691101,-0.0601807,0.712036
152179352998,-0.108337,-0.691101,-0.0601807,0.712097
152179366635,-0.108337,-0.691101,-0.0602417,0.712097
152179389794,-0.108337,-0.691101,-0.0602417,0.712097
152179404199,-0.108276,-0.691101,-0.0602417,0.712036
152179426666,-0.108276,-0.691101,-0.0602417,0.712097
152179449790,-0.108276,-0.691101,-0.0603027,0.712097
152179464144,-0.108276,-0.691101,-0.0603027,0.712097
152179486639,-0.108215,-0.69104,-0.0603027,0.712097
152179509862,-0.108215,-0.69104,-0.0603027,0.712097
152179524213,-0.108215,-0.69104,-0.0603027,0.712097
152179546711,-0.108215,-0.69104,-0.0603638,0.712097
152179569825,-0.108215,-0.69104,-0.0603638,0.712097
152179584140,-0.108154,-0.69104,-0.0603638,0.712097
152179606649,-0.108154,-0.69104,-0.0603638,0.712097
152179629873,-0.108154,-0.69104,-0.0603638,0.712097
152179644128,-0.108154,-0.69104,-0.0603638,0.712097
152179666673,-0.108154,-0.69104,-0.0604248,0.712097
152179689760,-0.108154,-0.69104,-0.0604248,0.712097
152179704180,-0.108093,-0.69104,-0.0602417,0.712097
152179726592,-0.108093,-0.69104,-0.0602417,0.712097
152179749845,-0.108093,-0.69104,-0.0602417,0.712158
152179764163,-0.108093,-0.69104,-0.0602417,0.712158
152179786645,-0.108093,-0.69104,-0.0602417,0.712158
152179809798,-0.108093,-0.69104,-0.0602417,0.712158
152179830836,-0.108093,-0.69104,-0.0602417,0.712158
152179846655,-0.108093,-0.69104,-0.0603027,0.712158
152179869777,-0.108093,-0.69104,-0.0603027,0.712158
152179890991,-0.108093,-0.69104,-0.0603027,0.712158
152179906728,-0.108032,-0.69104,-0.0603027,0.712158
152179929805,-0.108032,-0.69104,-0.0603027,0.712158
152179950873,-0.108032,-0.69104,-0.0603027,0.712158
152179966689,-0.108032,-0.69104,-0.0603027,0.712158
152179989816,-0.108032,-0.69104,-0.0603638,0.712158
152180010900,-0.108032,-0.69104,-0.0603638,0.712158
152180026722,-0.10791,-0.69104,-0.0601196,0.712158
152180049866,-0.107849,-0.691101,-0.0599365,0.712158
152180070911,-0.107788,-0.691101,-0.0596313,0.712158
152180086716,-0.107727,-0.691162,-0.0593262,0.712158
152180109825,-0.107666,-0.691223,-0.059021,0.712097
152180130720,-0.107605,-0.691284,-0.0586548,0.712158
152180146660,-0.107544,-0.691345,-0.0583496,0.712097
152180169203,-0.107422,-0.691406,-0.0580444,0.712097
152180190926,-0.1073,-0.691406,-0.0577393,0.712097
152180206707,-0.107178,-0.691467,-0.0574951,0.712097
152180229268,-0.107178,-0.691467,-0.0574951,0.712097
152180250878,-0.107178,-0.691467,-0.0574951,0.712097
152180266597,-0.107178,-0.691467,-0.0574951,0.712097
152180289149,-0.1073,-0.691467,-0.0576782,0.712097
152180312318,-0.1073,-0.691467,-0.0576782,0.712097
152180326659,-0.107422,-0.691528,-0.0578613,0.711975
152180349144,-0.107422,-0.691528,-0.0578613,0.711975
152180372316,-0.107422,-0.691528,-0.0578613,0.711975
152180386665,-0.107422,-0.691528,-0.0578613,0.711975
152180409110,-0.107422,-0.691528,-0.0578613,0.711975
152180432331,-0.107422,-0.691528,-0.0578613,0.711975
152180446741,-0.107361,-0.691528,-0.0578613,0.711975
152180469167,-0.107361,-0.691528,-0.0578613,0.711975
152180492297,-0.107361,-0.691528,-0.0579224,0.711975
152180506631,-0.107361,-0.691528,-0.0579224,0.712036
152180529176,-0.107361,-0.691528,-0.0579224,0.712036
152180552404,-0.107361,-0.691467,-0.0579224,0.712036
152180566712,-0.107361,-0.691467,-0.0579224,0.712036
152180589287,-0.107361,-0.691528,-0.0579224,0.712036
152180612365,-0.107361,-0.691528,-0.0579224,0.711975
152180626627,-0.107361,-0.691528,-0.0579224,0.712036
152180649104,-0.107361,-0.691528,-0.0579224,0.711975
152180672321,-0.107361,-0.691528,-0.0579224,0.711975
152180686722,-0.107422,-0.691406,-0.0581665,0.712036
152180709237,-0.107422,-0.691406,-0.0581665,0.712036
152180732402,-0.107544,-0.691345,-0.0584717,0.712097
152180746734,-0.107727,-0.691345,-0.0588379,0.712036
152180769140,-0.10791,-0.691223,-0.0591431,0.712097
152180792290,-0.107971,-0.691162,-0.0593262,0.712158
152180813462,-0.107971,-0.691162,-0.0593262,0.712097
152180829189,-0.108093,-0.69104,-0.0595093,0.712219
152180852346,-0.108276,-0.690735,-0.0596924,0.712524
152180873366,-0.108337,-0.689514,-0.0595093,0.713623
152180889177,-0.109131,-0.688416,-0.0603638,0.714539
152180912330,-0.109985,-0.687622,-0.0610962,0.715088
152180933392,-0.110779,-0.687134,-0.0617065,0.715393
152180949215,-0.111206,-0.68689,-0.0620728,0.715576
152180972394,-0.111328,-0.686646,-0.0623779,0.715698
152180993440,-0.111267,-0.686646,-0.0623779,0.715759
152181009227,-0.111267,-0.686646,-0.062439,0.715759
152181032380,-0.111267,-0.686584,-0.062439,0.715759
152181053464,-0.111267,-0.686584,-0.062439,0.715759
152181069222,-0.111023,-0.686646,-0.0625,0.715759
152181092324,-0.110779,-0.686707,-0.0626221,0.715759
152181113423,-0.110413,-0.686829,-0.0626221,0.715698
152181129134,-0.110229,-0.68689,-0.0627441,0.715576
152181151813,-0.110046,-0.687073,-0.0629272,0.715454
152181173433,-0.109863,-0.687256,-0.0630493,0.715332
152181189231,-0.109741,-0.687378,-0.0632324,0.71521
152181211729,-0.109558,-0.687439,-0.0634155,0.715088
152181234878,-0.109436,-0.6875,-0.0635986,0.715027
152181249213,-0.109375,-0.687439,-0.0637207,0.715149
152181271743,-0.109192,-0.687439,-0.0639038,0.715149
152181294801,-0.109131,-0.687439,-0.0639648,0.715149
152181309178,-0.109131,-0.687439,-0.0639648,0.715149
152181331760,-0.109131,-0.687439,-0.0639648,0.715149
152181354842,-0.109131,-0.687439,-0.0639648,0.715149
152181369144,-0.10907,-0.687378,-0.0640259,0.71521
152181391857,-0.109009,-0.687256,-0.0640259,0.715332
152181414866,-0.108887,-0.687134,-0.0640259,0.715454
152181429179,-0.108765,-0.687012,-0.0639648,0.715576
152181451740,-0.108582,-0.686951,-0.0640259,0.715698
152181474877,-0.108521,-0.686768,-0.0639038,0.715881
152181489147,-0.108459,-0.686646,-0.0637817,0.716003
152181511663,-0.108459,-0.686646,-0.0638428,0.716003
152181534885,-0.108459,-0.686646,-0.0638428,0.716003
152181548467,-0.108521,-0.686646,-0.0637817,0.716003
152181562807,-0.108398,-0.686523,-0.0635986,0.716187
152181585328,-0.108215,-0.686523,-0.0632324,0.716248
152181608481,-0.108215,-0.686523,-0.0632324,0.716248
152181622771,-0.108093,-0.686523,-0.0630493,0.716248
152181645266,-0.107971,-0.686523,-0.0629272,0.716309
152181668376,-0.10791,-0.686523,-0.0627441,0.716309
152181682758,-0.10791,-0.686523,-0.0627441,0.716309
152181705306,-0.107849,-0.686523,-0.0627441,0.716309
152181728431,-0.107788,-0.686523,-0.062561,0.716309
152181742829,-0.107788,-0.686523,-0.062561,0.716309
152181765310,-0.107666,-0.686584,-0.062439,0.71637
152181788483,-0.107544,-0.686584,-0.0623169,0.716309
152181802736,-0.107544,-0.686584,-0.0623169,0.71637
152181825326,-0.107544,-0.686584,-0.0623169,0.71637
152181848463,-0.107544,-0.686584,-0.0623169,0.71637
152181862844,-0.107544,-0.686584,-0.0623169,0.71637
152181885264,-0.107544,-0.686584,-0.0623169,0.71637
152181908527,-0.107544,-0.686584,-0.0622559,0.71637
152181922782,-0.107544,-0.686584,-0.0622559,0.71637
152181945251,-0.107544,-0.686584,-0.0622559,0.71637
152181968336,-0.107605,-0.686584,-0.0622559,0.71637
152181982816,-0.107605,-0.686523,-0.0622559,0.71637
152182005288,-0.107605,-0.686523,-0.0622559,0.71637
152182028440,-0.107605,-0.686523,-0.0622559,0.71637
152182042741,-0.107605,-0.686523,-0.0622559,0.71637
152182065357,-0.107605,-0.686584,-0.0622559,0.71637
152182088424,-0.107605,-0.686584,-0.0622559,0.71637
152182102848,-0.107605,-0.686584,-0.0622559,0.71637
152182125226,-0.107605,-0.686584,-0.0622559,0.71637
152182147822,-0.107605,-0.686584,-0.0622559,0.71637
152182162767,-0.107605,-0.686584,-0.0622559,0.71637
152182185321,-0.107605,-0.686584,-0.0622559,0.71637
152182207861,-0.107605,-0.686584,-0.0622559,0.71637
152182222816,-0.107605,-0.686584,-0.0621948,0.71637
152182245244,-0.107605,-0.686584,-0.0621948,0.71637
152182267768,-0.107605,-0.686584,-0.0621948,0.71637
152182282763,-0.107666,-0.686584,-0.0625,0.71637
152182305303,-0.107727,-0.686646,-0.0628662,0.716248
152182327811,-0.107788,-0.686646,-0.0631714,0.716187
152182342766,-0.10791,-0.686707,-0.0635986,0.716064
152182365292,-0.108032,-0.686768,-0.0640259,0.715942
152182387824,-0.108093,-0.686829,-0.0643311,0.715881
152182402733,-0.108154,-0.686829,-0.0646973,0.71582
152182425360,-0.108215,-0.686829,-0.0650635,0.715759
152182447747,-0.108276,-0.686829,-0.0653687,0.715698
152182462765,-0.108398,-0.686829,-0.0656738,0.715698
152182485249,-0.108521,-0.686829,-0.06604,0.715637
152182507783,-0.108582,-0.686768,-0.0663452,0.715698
152182522767,-0.108521,-0.686707,-0.0667114,0.715698
152182545290,-0.108521,-0.686768,-0.0670776,0.715637
152182567764,-0.108643,-0.686768,-0.0673218,0.715576
152182582767,-0.108643,-0.686768,-0.0673218,0.715576
152182605267,-0.108765,-0.686646,-0.067627,0.715637
152182627757,-0.108948,-0.686523,-0.0678711,0.715698
152182642830,-0.108948,-0.686523,-0.0678711,0.715698
152182665253,-0.108948,-0.686523,-0.0678711,0.715698
152182687741,-0.108948,-0.686523,-0.0678711,0.715698
152182702709,-0.109131,-0.686462,-0.0681152,0.715698
152182725257,-0.109131,-0.686462,-0.0680542,0.715698
152182747774,-0.109192,-0.68634,-0.0682983,0.71582
152182762780,-0.109253,-0.686218,-0.0685425,0.715881
152182785245,-0.109314,-0.686035,-0.0689087,0.716003
152182807776,-0.109436,-0.685669,-0.069519,0.716309
152182822758,-0.10968,-0.685364,-0.0699463,0.716492
152182845267,-0.109924,-0.684998,-0.0703125,0.716736
152182867785,-0.110229,-0.684692,-0.0707397,0.71698
152182885710,-0.110291,-0.684387,-0.0708008,0.717224
152182905264,-0.110474,-0.684021,-0.071167,0.717529
152182927752,-0.110718,-0.683655,-0.0712891,0.717834
152182942754,-0.110657,-0.683472,-0.0714111,0.718018
152182965266,-0.110535,-0.683289,-0.0715942,0.718201
152182987770,-0.110535,-0.683228,-0.0719604,0.718201
152183002715,-0.110413,-0.683105,-0.0723267,0.718262
152183025292,-0.110229,-0.683044,-0.0725708,0.718323
152183047769,-0.109863,-0.682861,-0.072876,0.718506
152183064179,-0.109619,-0.6828,-0.0732422,0.718628
152183085267,-0.109497,-0.682617,-0.0736694,0.71875
152183107777,-0.109314,-0.682434,-0.0739746,0.718933
152183124212,-0.109009,-0.68219,-0.0742798,0.719177
152183145286,-0.108826,-0.681885,-0.0745239,0.719482
152183167751,-0.108521,-0.68158,-0.0747681,0.719788
152183184193,-0.108398,-0.681213,-0.0750122,0.720154
152183205242,-0.108215,-0.680847,-0.0752563,0.720459
152183227767,-0.107971,-0.680359,-0.0755615,0.720947
152183244162,-0.107666,-0.679688,-0.0759277,0.721558
152183265210,-0.107422,-0.679199,-0.0762939,0.722046
152183287780,-0.107056,-0.678833,-0.0765991,0.722412
152183304201,-0.106567,-0.678467,-0.0770264,0.722778
152183325234,-0.10614,-0.67804,-0.0774536,0.723145
152183347738,-0.105652,-0.677612,-0.0778198,0.723633
152183364221,-0.105286,-0.677246,-0.0780029,0.723999
152183385231,-0.10498,-0.676819,-0.078064,0.724426
152183407764,-0.104797,-0.676514,-0.0780029,0.724731
152183424217,-0.104675,-0.676086,-0.0778198,0.72522
152183445321,-0.104736,-0.67572,-0.0775146,0.725586
152183467772,-0.104797,-0.675354,-0.0770264,0.725952
152183484160,-0.10498,-0.67511,-0.0764771,0.726196
152183505292,-0.105164,-0.674805,-0.0760498,0.726501
152183527769,-0.105408,-0.6745,-0.0756836,0.726807
152183544229,-0.10553,-0.674194,-0.0754395,0.727051
152183565240,-0.105713,-0.67395,-0.0751953,0.727295
152183587761,-0.105591,-0.673828,-0.0750122,0.727417
152183604221,-0.10553,-0.673645,-0.0748291,0.727661
152183625246,-0.105469,-0.673462,-0.074707,0.727844
152183647768,-0.105347,-0.673218,-0.074585,0.728088
152183664243,-0.105103,-0.672974,-0.074585,0.728394
152183685293,-0.104919,-0.672791,-0.0745239,0.728577
152183707804,-0.104614,-0.672546,-0.0744629,0.728821
152183724214,-0.104248,-0.672424,-0.0744019,0.729004
152183745298,-0.103699,-0.672302,-0.0744019,0.729187
152183767869,-0.103149,-0.672241,-0.0744019,0.729309
152183784243,-0.102722,-0.67218,-0.074707,0.729431
152183805386,-0.102966,-0.671936,-0.0761108,0.729431
152183827823,-0.102722,-0.671692,-0.0769653,0.729614
152183844274,-0.102234,-0.67157,-0.0773315,0.729736
152183865263,-0.101807,-0.671631,-0.0778809,0.729736
152183887777,-0.101562,-0.67157,-0.0783691,0.729736
152183904247,-0.101501,-0.671509,-0.0787964,0.729797
152183925290,-0.101318,-0.671387,-0.0791626,0.729858
152183947776,-0.101074,-0.671265,-0.0795898,0.72998
152183964197,-0.100769,-0.671204,-0.079895,0.730042
152183993518,-0.100464,-0.671204,-0.0803223,0.730042
152184007811,-0.10022,-0.671204,-0.0807495,0.730042
152184024239,-0.0996704,-0.671143,-0.0814819,0.730042
152184046807,-0.0994263,-0.671143,-0.0822754,0.730042
152184067812,-0.098999,-0.671204,-0.0829468,0.72998
152184084306,-0.0985718,-0.671326,-0.0834961,0.729797
152184106801,-0.0981445,-0.671509,-0.0840454,0.729675
152184127847,-0.0976562,-0.671509,-0.0846558,0.729614
152184144240,-0.097168,-0.671692,-0.0852051,0.729431
152184166717,-0.0967407,-0.671814,-0.0855713,0.72937
152184187757,-0.0963135,-0.672058,-0.0858765,0.729187
152184204263,-0.0959473,-0.672302,-0.0859985,0.729004
152184226803,-0.0956421,-0.672485,-0.0861206,0.728882
152184247843,-0.0953369,-0.672607,-0.0863037,0.72876
152184264202,-0.0951538,-0.672791,-0.0864868,0.728577
152184286736,-0.0950317,-0.672913,-0.0866089,0.728455
152184307794,-0.0949097,-0.673035,-0.0866699,0.728333
152184324250,-0.0947266,-0.673218,-0.086731,0.72821
152184346778,-0.0947266,-0.67334,-0.0869141,0.728088
152184367757,-0.0944824,-0.673401,-0.0869751,0.728027
152184384279,-0.0942993,-0.673584,-0.0870972,0.727905
152184406725,-0.0940552,-0.673706,-0.0871582,0.727783
152184427808,-0.093689,-0.673828,-0.0872803,0.727722
152184444262,-0.0933228,-0.673706,-0.086853,0.727966
152184466711,-0.0950928,-0.67157,-0.0862427,0.729736
152184487801,-0.0975342,-0.67041,-0.0869751,0.730408
152184504256,-0.0984497,-0.669861,-0.0872803,0.730774
152184526801,-0.0999756,-0.669006,-0.0874634,0.731262
152184547885,-0.104126,-0.666809,-0.0855103,0.732971
152184564238,-0.103699,-0.665039,-0.0847168,0.734741
152184586809,-0.101624,-0.664368,-0.0837402,0.735718
152184607750,-0.0984497,-0.664612,-0.0834351,0.736023
152184630270,-0.0958862,-0.664917,-0.0827026,0.736084
152184646803,-0.0935669,-0.664917,-0.0827637,0.736389
152184667803,-0.0927124,-0.66449,-0.0827026,0.736877
152184684315,-0.0914307,-0.664124,-0.0823364,0.737427
152184706804,-0.09021,-0.663574,-0.0821533,0.738098
152184727779,-0.0884399,-0.663208,-0.0818481,0.738708
152184744268,-0.086731,-0.662903,-0.0821533,0.739136
152184766727,-0.0845337,-0.662537,-0.0836182,0.739502
152184787766,-0.0820312,-0.662292,-0.0853882,0.739807
152184810265,-0.0782471,-0.662292,-0.0880127,0.739929
152184826747,-0.0734863,-0.662842,-0.0917358,0.739441
152184847786,-0.067688,-0.663391,-0.0961914,0.738953
152184864244,-0.0579834,-0.667358,-0.101562,0.735535
152184886713,-0.0494995,-0.668335,-0.110229,0.733948
152184907849,-0.0354004,-0.67334,-0.120972,0.728516
152184924303,-0.0206299,-0.678589,-0.132446,0.722168
152184946801,-0.00598145,-0.68219,-0.145325,0.716553
152184969233,0.00939941,-0.682678,-0.155945,0.713806
152184984298,0.0284424,-0.684998,-0.165894,0.708801
152185006751,0.0450439,-0.686218,-0.175903,0.704346
152185029278,0.0559692,-0.692322,-0.167542,0.699646
152185045714,0.0703125,-0.700439,-0.153198,0.693542
152185066826,0.0714111,-0.705688,-0.134644,0.691895
152185089301,0.0609131,-0.706238,-0.118958,0.695251
152185105720,0.0459595,-0.705566,-0.104858,0.699341
152185126759,0.0269775,-0.703613,-0.0877686,0.704651
152185149242,0.00952148,-0.702332,-0.0658569,0.70874
152185165722,-0.00213623,-0.702942,-0.0390625,0.710144
152185186760,-0.0110474,-0.703613,-0.0135498,0.710327
152185208501,-0.0199585,-0.701965,0.00866699,0.711914
152185230939,-0.0229492,-0.701233,0.0221558,0.712219
152185245993,-0.0171509,-0.704712,0.026001,0.708862
152185268447,-0.0090332,-0.705383,0.00836182,0.70874
152185290984,0.00140381,-0.708252,-0.00579834,0.705933
152185305971,0.0240479,-0.713806,-0.012146,0.699829
152185328519,0.0437012,-0.720947,-0.0223389,0.691223
152185351058,0.0613403,-0.728271,-0.0336914,0.681702
152185366007,0.0775146,-0.736572,-0.0450439,0.67041
152185388544,0.0963135,-0.744873,-0.0535278,0.65802
152185410965,0.112122,-0.750244,-0.0655518,0.648254
152185426030,0.125977,-0.755981,-0.076416,0.637756
152185448504,0.138672,-0.759888,-0.0863037,0.62915
152185471014,0.14978,-0.76001,-0.0933228,0.625488
152185486000,0.160889,-0.758911,-0.0977173,0.623413
152185508480,0.165283,-0.755981,-0.100281,0.625366
152185539171,0.164307,-0.755005,-0.109375,0.625366
152185545980,0.151978,-0.750671,-0.125977,0.630493
152185568536,0.145264,-0.744141,-0.167236,0.630249
152185590998,0.16803,-0.75061,-0.190918,0.609863
152185605997,0.189026,-0.752319,-0.22113,0.591125
152185628446,0.212219,-0.750671,-0.258789,0.569641
152185650967,0.227112,-0.740051,-0.302856,0.555908
152185666009,0.243408,-0.72821,-0.334412,0.546509
152185688483,0.257141,-0.721802,-0.341064,0.544617
152185710992,0.258606,-0.72467,-0.317444,0.55426
152185725961,0.257263,-0.72876,-0.282837,0.568054
152185748440,0.238098,-0.730591,-0.243958,0.591614
152185771007,0.198181,-0.727722,-0.20575,0.623596
152185785988,0.144653,-0.721924,-0.16272,0.656799
152185808593,0.088562,-0.713806,-0.107849,0.686279
152185831110,0.0360718,-0.702637,-0.0458374,0.709167
152185847428,-0.0137939,-0.686401,0.0158081,0.726929
152185868500,-0.0537109,-0.666382,0.0730591,0.740051
152185891040,-0.085144,-0.643433,0.12616,0.750183
152185906040,-0.105957,-0.623779,0.161804,0.757263
152185928282,-0.116882,-0.613037,0.181152,0.760071
152185951036,-0.120483,-0.612793,0.18219,0.75946
152185967462,-0.104248,-0.619202,0.179993,0.757202
152185988547,-0.115967,-0.657349,0.161865,0.726807
152186004325,-0.0137329,-0.698669,0.0900879,0.709595
152186027408,-0.0774536,-0.749451,0.0661621,0.654236
152186048522,-0.0701904,-0.766235,0.0360107,0.637695
152186064321,-0.0639038,-0.770813,0.019165,0.633545
152186087444,-0.0550537,-0.781738,-6.10352e-05,0.621216
152186108477,-0.0372925,-0.787231,-0.00811768,0.61554
152186124262,-0.0239868,-0.790039,-0.0149536,0.612427
152186154955,-0.0148926,-0.791504,-0.0151978,0.610779
152186168480,-0.00750732,-0.790405,-0.0165405,0.612366
152186184306,-0.00109863,-0.788452,-0.0166626,0.614929
152186214945,6.10352e-05,-0.788574,-0.0171509,0.614746
152186228567,0.00140381,-0.786743,-0.0199585,0.616943
152186244329,0.00183105,-0.783691,-0.0222168,0.620728
152186267470,0.00494385,-0.781433,-0.0256958,0.623413
152186288504,0.00720215,-0.781311,-0.0327759,0.62323
152186304311,0.00646973,-0.781921,-0.0441895,0.621826
152186327474,0.00854492,-0.782715,-0.0570068,0.619751
152186348612,0.0161743,-0.783386,-0.0688477,0.617493
152186364274,0.0273438,-0.784363,-0.0786133,0.614746
152186387506,0.0404663,-0.788696,-0.0888672,0.606995
152186408463,0.0550537,-0.793457,-0.101746,0.597473
152186424391,0.0662842,-0.796997,-0.124939,0.587219
152186447534,0.0761108,-0.797668,-0.153198,0.578308
152186468565,0.0950928,-0.797791,-0.180115,0.567505
152186484306,0.119141,-0.801758,-0.207092,0.547852
152186507894,0.142822,-0.803711,-0.215515,0.535889
152186528533,0.141052,-0.799316,-0.228943,0.537415
152186544275,0.137146,-0.79187,-0.23822,0.545349
152186567443,0.127075,-0.791016,-0.235229,0.550293
152186588495,0.117065,-0.789185,-0.229248,0.557678
152186604312,0.102905,-0.788696,-0.21106,0.568176
152186627531,0.0863037,-0.784302,-0.190308,0.584167
152186648611,0.0640259,-0.780029,-0.164429,0.600342
152186664357,0.0324097,-0.769897,-0.139648,0.621887
152186687513,-0.00292969,-0.756165,-0.113953,0.644409
152186708533,-0.0419312,-0.739075,-0.0889893,0.666382
152186724295,-0.0811157,-0.718811,-0.0592041,0.687927
152186747513,-0.11676,-0.695984,-0.0239868,0.70813
152186769949,-0.148132,-0.670532,0.0143433,0.726807
152186784284,-0.175171,-0.643921,0.0523682,0.74292
152186806855,-0.19928,-0.616211,0.090332,0.756592
152186828582,-0.217896,-0.593018,0.115723,0.766418
152186844333,-0.23053,-0.577454,0.129211,0.772461
152186866842,-0.227173,-0.568237,0.138306,0.778687
152186888510,-0.219055,-0.565186,0.140198,0.782898
152186904335,-0.254578,-0.556885,0.104309,0.783691
152186926881,-0.231628,-0.580688,0.115173,0.771973
152186950033,-0.224426,-0.58429,0.119141,0.770752
152186964317,-0.214539,-0.58252,0.0939331,0.778381
152186986796,-0.211914,-0.592102,0.0864868,0.772644
152187009737,-0.205811,-0.60437,0.0786743,0.765625
152187024311,-0.200806,-0.614258,0.0777588,0.759155
152187046791,-0.197754,-0.624695,0.0758057,0.751587
152187070005,-0.194092,-0.632202,0.0713501,0.746704
152187084381,-0.190735,-0.638123,0.0608521,0.743469
152187106873,-0.186951,-0.643127,0.0509033,0.740845
152187130029,-0.178223,-0.647339,0.0432129,0.739807
152187144337,-0.168518,-0.652222,0.0368652,0.738159
152187166829,-0.161316,-0.658142,0.0327148,0.73468
152187189949,-0.154053,-0.663269,0.0270996,0.731873
152187211029,-0.146179,-0.667114,0.0200195,0.730164
152187226852,-0.138,-0.671021,0.0130005,0.728394
152187250010,-0.130127,-0.675293,0.00579834,0.725952
152187271068,-0.122009,-0.680054,-0.000183105,0.722961
152187286802,-0.114258,-0.683777,-0.00726318,0.720703
152187309961,-0.106689,-0.687195,-0.0142212,0.718445
152187330975,-0.0988159,-0.690735,-0.0214844,0.716003
152187346740,-0.0913696,-0.694702,-0.0291748,0.712891
152187370070,-0.0828857,-0.698914,-0.0374756,0.709412
152187391081,-0.0739746,-0.703735,-0.0467529,0.705078
152187406814,-0.0631714,-0.708435,-0.0567627,0.700623
152187430056,-0.0501709,-0.712952,-0.0681152,0.696106
152187451103,-0.0361938,-0.718445,-0.0803833,0.689941
152187466830,-0.022522,-0.724487,-0.0933228,0.682556
152187490002,-0.00860596,-0.730652,-0.107056,0.674255
152187511091,0.00427246,-0.735962,-0.12384,0.665588
152187526829,0.0144043,-0.739563,-0.145325,0.657104
152187550013,0.0231934,-0.742126,-0.169617,0.64801
152187571067,0.0255737,-0.741272,-0.201538,0.639771
152187586826,0.0338745,-0.738831,-0.239624,0.628906
152187609970,0.0613403,-0.748962,-0.253113,0.609253
152187631109,0.0897827,-0.753784,-0.259216,0.597168
152187646878,0.0899048,-0.753235,-0.264404,0.59552
152187669991,0.0932007,-0.751587,-0.268982,0.595032
152187691047,0.0999146,-0.766113,-0.255737,0.581177
152187706830,0.0880127,-0.753967,-0.249695,0.601196
152187729988,0.0751953,-0.75238,-0.231445,0.612122
152187751116,0.0587158,-0.747681,-0.205078,0.628845
152187766844,0.0368042,-0.741089,-0.176819,0.646667
152187789359,0.00939941,-0.731995,-0.144287,0.665771
152187811072,-0.022644,-0.720093,-0.11145,0.684509
152187826819,-0.0561523,-0.706787,-0.0734253,0.701355
152187849311,-0.0880127,-0.692505,-0.0299683,0.715454
152187878556,-0.116455,-0.678223,0.00994873,0.725464
152187886874,-0.140076,-0.665039,0.0534668,0.731567
152187909360,-0.164917,-0.650085,0.090271,0.736206
152187932563,-0.184326,-0.635803,0.118408,0.740112
152187946835,-0.197083,-0.622864,0.141418,0.743774
152187969404,-0.196106,-0.614319,0.161194,0.74707
152187992551,-0.188232,-0.611694,0.175842,0.747986
152188006878,-0.16803,-0.61853,0.167175,0.749146
152188029386,-0.161194,-0.622559,0.16748,0.747253
152188052472,-0.14032,-0.629822,0.173096,0.74408
152188066813,-0.144409,-0.632446,0.165161,0.742859
152188089279,-0.131042,-0.640015,0.162598,0.739441
152188112493,-0.122009,-0.646484,0.155823,0.736816
152188126838,-0.118958,-0.651672,0.150391,0.733887
152188149311,-0.113586,-0.657104,0.145386,0.730896
152188172459,-0.111145,-0.659729,0.141907,0.729553
152188193497,-0.109497,-0.662598,0.139099,0.727722
152188209295,-0.107483,-0.665161,0.138062,0.725891
152188232577,-0.104492,-0.667786,0.136353,0.724243
152188253591,-0.102112,-0.670593,0.133667,0.722473
152188269335,-0.100098,-0.67334,0.129944,0.720886
152188292566,-0.0980225,-0.675354,0.125916,0.720032
152188313567,-0.095459,-0.677002,0.122131,0.719482
152188329260,-0.0925293,-0.678406,0.118408,0.719177
152188352459,-0.0895386,-0.67981,0.114868,0.71875
152188373515,-0.0865479,-0.681519,0.110046,0.718262
152188389414,-0.083252,-0.6828,0.103821,0.718384
152188412558,-0.0796509,-0.684021,0.0980225,0.718445
152188433585,-0.0752563,-0.684937,0.0925903,0.71875
152188449378,-0.0709839,-0.685913,0.0874023,0.718872
152188472486,-0.0672607,-0.687073,0.0827026,0.718689
152188493567,-0.0632935,-0.688477,0.0778809,0.718323
152188509471,-0.0593872,-0.690247,0.0740356,0.717346
152188532514,-0.0548706,-0.691956,0.0706787,0.71637
152188553585,-0.050354,-0.69342,0.0668335,0.715637
152188569378,-0.0461426,-0.695068,0.0638428,0.7146
152188592490,-0.0415649,-0.696655,0.0609741,0.713562
152188613505,-0.0366211,-0.698303,0.0582886,0.712524
152188629375,-0.0316772,-0.69989,0.0551147,0.711365
152188652511,-0.0261841,-0.701477,0.0522461,0.710266
152188681010,-0.0209961,-0.703125,0.0490723,0.709045
152188689313,-0.0162354,-0.704407,0.0462646,0.70813
152188711826,-0.0120239,-0.705627,0.043396,0.707153
152188733582,-0.00848389,-0.706665,0.0408936,0.706299
152188749381,-0.00524902,-0.707458,0.0388184,0.705688
152188771876,-0.00250244,-0.708252,0.0367432,0.705017
152188793624,0.000244141,-0.708923,0.0349121,0.704407
152188809335,0.00305176,-0.709412,0.0333252,0.704041
152188831885,0.0057373,-0.709717,0.0317993,0.703735
152188855084,0.00836182,-0.7099,0.0302734,0.703613
152188868605,0.0108032,-0.710083,0.0285645,0.70343
152188882958,0.0131226,-0.710205,0.0268555,0.703369
152188905404,0.0150757,-0.710327,0.0250244,0.703247
152188928658,0.0169067,-0.710205,0.0234375,0.703369
152188942957,0.0186768,-0.7099,0.0220337,0.703674
152188965437,0.0202637,-0.709534,0.0209961,0.704041
152188988616,0.0215454,-0.709229,0.0200195,0.704346
152189002937,0.0219727,-0.708923,0.0189819,0.704651
152189025418,0.0222778,-0.708679,0.0181274,0.704895
152189048585,0.0228882,-0.708313,0.0174561,0.705322
152189062933,0.0234985,-0.707886,0.0166626,0.705688
152189085460,0.0241089,-0.707581,0.0160522,0.706055
152189108650,0.0249023,-0.707275,0.015625,0.70636
152189122967,0.0258179,-0.706909,0.0152588,0.706665
152189145469,0.0266113,-0.706482,0.0147095,0.707031
152189168605,0.0273438,-0.70636,0.0144043,0.707153
152189182951,0.0279541,-0.706116,0.0139771,0.707397
152189205370,0.0284424,-0.705994,0.0134277,0.70752
152189228548,0.0288696,-0.705811,0.0127563,0.707703
152189242876,0.0292358,-0.705688,0.012146,0.707825
152189265388,0.0292358,-0.705566,0.0115356,0.707947
152189288517,0.0290527,-0.705444,0.0106201,0.708069
152189302849,0.0288086,-0.705383,0.00982666,0.70813
152189325386,0.0287476,-0.705261,0.00927734,0.708313
152189348629,0.0289917,-0.705139,0.00872803,0.708435
152189362907,0.0292358,-0.705139,0.00817871,0.708435
152189385412,0.0296021,-0.705139,0.0078125,0.708435
152189408650,0.0300903,-0.705139,0.00744629,0.708435
152189422960,0.0305176,-0.704956,0.00726318,0.708557
152189445462,0.0310059,-0.704895,0.00708008,0.708618
152189468663,0.0314331,-0.704773,0.00695801,0.708679
152189482908,0.0319214,-0.704712,0.00683594,0.70874
152189505447,0.0322266,-0.704712,0.00665283,0.70874
152189528607,0.0325317,-0.70459,0.0065918,0.708801
152189542975,0.032959,-0.704468,0.00646973,0.708923
152189565455,0.0332642,-0.704346,0.00634766,0.709045
152189588614,0.0335083,-0.704224,0.00616455,0.709167
152189602928,0.0336304,-0.704102,0.00604248,0.70929
152189625459,0.0338135,-0.703918,0.00592041,0.709473
152189648603,0.0339355,-0.703796,0.00585938,0.709595
152189662968,0.0340576,-0.703674,0.00585938,0.709717
152189685485,0.0341187,-0.703552,0.00579834,0.709778
152189708681,0.0340576,-0.703491,0.00579834,0.709839
152189722949,0.0341187,-0.703369,0.00585938,0.709961
152189745439,0.0340576,-0.703308,0.00585938,0.710083
152189768612,0.0341187,-0.703247,0.00592041,0.710144
152189782916,0.0339966,-0.703186,0.00592041,0.710144
152189805522,0.0338745,-0.703125,0.00598145,0.710205
152189827923,0.0336914,-0.703003,0.00604248,0.710327
152189842878,0.0334473,-0.703003,0.00610352,0.710388
152189865360,0.0332642,-0.702942,0.00622559,0.710449
152189887873,0.03302,-0.702881,0.00640869,0.71051
152189902884,0.0326538,-0.702881,0.0065918,0.71051
152189925420,0.0322266,-0.70282,0.00671387,0.710571
152189947968,0.0318604,-0.702759,0.00695801,0.710693
152189962895,0.0313721,-0.702759,0.00732422,0.710693
152189985357,0.0310669,-0.702759,0.00756836,0.710754
152190007883,0.0305786,-0.702698,0.0078125,0.710815
152190022891,0.0301514,-0.702637,0.00805664,0.710815
152190045403,0.0298462,-0.702576,0.00842285,0.710938
152190067917,0.02948,-0.702454,0.00872803,0.71106
152190082930,0.0290527,-0.702454,0.0090332,0.711121
152190105463,0.0288086,-0.702332,0.00946045,0.711182
152190127956,0.0283813,-0.702271,0.00976562,0.711243
152190142956,0.0279541,-0.702209,0.0101318,0.711304
152190165491,0.0274658,-0.701965,0.0105591,0.711609
152190187977,0.0269775,-0.701843,0.0109253,0.711731
152190202964,0.0265503,-0.701721,0.0112915,0.711853
152190225463,0.026062,-0.701599,0.0116577,0.711975
152190247944,0.0256958,-0.701599,0.0119629,0.712036
152190262977,0.0253296,-0.701477,0.0122681,0.712097
152190285475,0.0249634,-0.701538,0.0125732,0.712097
152190307885,0.0245361,-0.701477,0.0128174,0.712158
152190322949,0.024292,-0.701477,0.0130615,0.712158
152190345451,0.0240479,-0.701416,0.0133057,0.712219
152190367954,0.0238037,-0.701294,0.0135498,0.712341
152190383043,0.0234375,-0.701233,0.0137329,0.712402
152190405500,0.0231323,-0.701172,0.013916,0.712463
152190427936,0.0227661,-0.701111,0.0140991,0.712585
152190442976,0.0224609,-0.700928,0.0142212,0.712708
152190465463,0.0220337,-0.700867,0.0143433,0.712769
152190487982,0.0217285,-0.700806,0.0145874,0.712891
152190502978,0.0214233,-0.700745,0.0147095,0.712891
152190525466,0.0211182,-0.700745,0.0149536,0.712952
152190547970,0.020874,-0.700684,0.0149536,0.713013
152190562951,0.0206909,-0.700623,0.0151367,0.713074
152190585486,0.0206909,-0.700623,0.0151367,0.713074
152190607936,0.0206909,-0.700623,0.0150757,0.713074
152190624320,0.0206909,-0.700623,0.0151367,0.713074
152190645508,0.0206909,-0.700623,0.0150757,0.713074
152190667902,0.0206909,-0.700623,0.0151367,0.713074
152190684459,0.0206909,-0.700684,0.0150757,0.713013
152190705475,0.0206909,-0.700684,0.0150757,0.713013
152190727980,0.0206909,-0.700684,0.0150757,0.713013
152190744362,0.0205078,-0.700623,0.0151367,0.713074
152190765487,0.0202637,-0.7005,0.0151978,0.713196
152190787931,0.0200195,-0.700378,0.0151978,0.713318
152190804448,0.0197144,-0.700378,0.0151978,0.713318
152190825462,0.0194092,-0.700317,0.0152588,0.713379
152190847952,0.019104,-0.700195,0.0152588,0.713501
152190864392,0.0187988,-0.700134,0.0153198,0.713623
152190885458,0.0187988,-0.700134,0.0153198,0.713562
152190907957,0.0187988,-0.700134,0.0153198,0.713623
152190924416,0.0187378,-0.700134,0.0153198,0.713562
152190945480,0.0186768,-0.700073,0.0153809,0.713684
152190968035,0.0185547,-0.699951,0.0154419,0.713806
152190984433,0.0184937,-0.699768,0.0155029,0.713989
152191005440,0.0184326,-0.699646,0.015564,0.714111
152191028039,0.0184326,-0.699646,0.015564,0.71405
152191045036,0.0184326,-0.699646,0.015564,0.71405
152191065462,0.0184326,-0.699646,0.015564,0.71405
152191087963,0.0184326,-0.699646,0.015564,0.71405
152191104427,0.0181885,-0.699585,0.0155029,0.714172
152191125446,0.0180664,-0.699463,0.0155029,0.714294
152191147954,0.0178223,-0.699341,0.0155029,0.714417
152191164403,0.0175171,-0.699219,0.015564,0.714539
152191185436,0.0172729,-0.699097,0.015686,0.714661
152191207991,0.0169067,-0.698914,0.0157471,0.714783
152191224401,0.0164795,-0.698792,0.0159302,0.714905
152191245484,0.0161743,-0.698669,0.0160522,0.715088
152191267992,0.0158081,-0.698547,0.0161133,0.71521
152191284413,0.015625,-0.698364,0.0164185,0.715393
152191305440,0.0152588,-0.698303,0.0165405,0.715454
152191327962,0.0148926,-0.698181,0.0167236,0.715576
152191344366,0.0145264,-0.698059,0.0169067,0.715698
152191365433,0.0141602,-0.697937,0.0171509,0.71582
152191387912,0.013855,-0.697815,0.017334,0.715942
152191404418,0.0136108,-0.697632,0.0175781,0.716125
152191425401,0.0133057,-0.697571,0.0178223,0.716187
152191447913,0.0131226,-0.69751,0.0180664,0.716248
152191464414,0.0131226,-0.69751,0.0180664,0.716248
152191485448,0.0131226,-0.69751,0.0180664,0.716248
152191507982,0.0130615,-0.69751,0.0180664,0.716248
152191524508,0.0129395,-0.697449,0.0182495,0.716309
152191545513,0.0126343,-0.697388,0.0183716,0.71637
152191568030,0.0123901,-0.697327,0.0185547,0.716431
152191584435,0.0122681,-0.697144,0.0187378,0.716614
152191606942,0.0119629,-0.697083,0.0189209,0.716614
152191627951,0.0116577,-0.697021,0.0192871,0.716675
152191644436,0.0114136,-0.696899,0.0195923,0.716858
152191666899,0.0111084,-0.696716,0.0199585,0.71698
152191687979,0.0107422,-0.696655,0.0203857,0.717041
152191704406,0.010376,-0.696411,0.020752,0.717224
152191726904,0.00982666,-0.696289,0.0210571,0.717346
152191747978,0.00946045,-0.696167,0.0213623,0.717468
152191764446,0.00897217,-0.696106,0.0216064,0.71759
152191786920,0.00860596,-0.695984,0.0216675,0.717651
152191807889,0.00860596,-0.695984,0.0216675,0.717712
152191824369,0.00860596,-0.695984,0.0217285,0.717651
152191846939,0.00854492,-0.695984,0.0217285,0.717651
152191867991,0.00854492,-0.695984,0.0217285,0.717651
152191884339,0.00854492,-0.695984,0.0217285,0.717651
152191906900,0.00854492,-0.695984,0.0217896,0.717651
152191928004,0.00854492,-0.695984,0.0217896,0.717651
152191944447,0.00848389,-0.696045,0.0217896,0.717651
152191966939,0.00848389,-0.696045,0.0217896,0.717651
152191987996,0.00848389,-0.696045,0.0217896,0.717651
152192004518,0.00848389,-0.696045,0.0218506,0.71759
152192026935,0.00842285,-0.696045,0.0218506,0.71759
152192047955,0.00842285,-0.696045,0.0218506,0.71759
152192064489,0.00842285,-0.696045,0.0218506,0.71759
152192086886,0.00836182,-0.696045,0.0219116,0.71759
152192107988,0.00836182,-0.696045,0.0219116,0.71759
152192124481,0.00836182,-0.696228,0.0218506,0.717468
152192146958,0.00836182,-0.69635,0.0217285,0.717285
152192167986,0.00830078,-0.696594,0.0216675,0.717102
152192184408,0.00836182,-0.696777,0.0214844,0.716919
152192206976,0.00836182,-0.69696,0.0213623,0.716736
152192228020,0.00842285,-0.697144,0.0213623,0.716553
152192244466,0.00842285,-0.697388,0.0212402,0.716309
152192266880,0.00836182,-0.697388,0.0212402,0.716309
152192287979,0.00836182,-0.697388,0.0212402,0.716309
152192304379,0.00817871,-0.697571,0.0211792,0.716187
152192326942,0.00811768,-0.697571,0.0211792,0.716187
152192350954,0.00787354,-0.697693,0.0211182,0.716064
152192364475,0.00756836,-0.697815,0.0210571,0.715942
152192386891,0.00732422,-0.697937,0.020813,0.71582
152192408002,0.00708008,-0.697937,0.0205688,0.71582
152192424499,0.00695801,-0.69812,0.0203247,0.715698
152192446912,0.0067749,-0.698303,0.0200195,0.715515
152192470931,0.00671387,-0.698486,0.0198364,0.715271
152192484414,0.00665283,-0.69873,0.0192871,0.715088
152192507001,0.00683594,-0.698914,0.0189209,0.714905
152192530134,0.00720215,-0.699097,0.0185547,0.714783
152192543717,0.00738525,-0.699341,0.0183105,0.714478
152192567516,0.00750732,-0.699646,0.0178833,0.714172
152192588607,0.00744629,-0.699768,0.0174561,0.714111
152192603587,0.00750732,-0.699951,0.0170898,0.713928
152192626181,0.00738525,-0.700073,0.0166626,0.713806
152192656191,0.00732422,-0.700134,0.0162964,0.713745
152192665121,0.00720215,-0.700195,0.0161133,0.713684
152192687542,0.00720215,-0.700256,0.0161133,0.713684
152192716211,0.00720215,-0.700256,0.0161133,0.713684
152192725124,0.00720215,-0.700256,0.0161133,0.713684
152192746130,0.00720215,-0.700256,0.0161133,0.713623
152192776083,0.00720215,-0.700256,0.0161743,0.713623
152192785043,0.00720215,-0.700317,0.0161743,0.713623
152192806091,0.00720215,-0.700317,0.0161743,0.713623
152192828594,0.00714111,-0.700378,0.0161743,0.713562
152192845093,0.00714111,-0.700378,0.0161743,0.713562
152192873692,0.00714111,-0.700378,0.0161743,0.713562
152192888713,0.00714111,-0.700378,0.0161743,0.713562
152192905137,0.00714111,-0.700439,0.0161743,0.713501
152192927627,0.00714111,-0.700439,0.0161743,0.713501
152192957601,0.00714111,-0.700439,0.0162354,0.713501
152192965128,0.00714111,-0.700439,0.0162354,0.713501
152192986156,0.00708008,-0.700439,0.0162354,0.713501
152193008651,0.00708008,-0.700439,0.0162354,0.71344
152193025109,0.00708008,-0.700439,0.0162354,0.713501
152193046186,0.00708008,-0.700439,0.0162354,0.71344
152193068680,0.00720215,-0.700439,0.0164185,0.713501
152193085149,0.00720215,-0.700439,0.0164795,0.71344
152193106161,0.00714111,-0.7005,0.0164795,0.71344
152193128653,0.00726318,-0.700439,0.0167236,0.713501
152193152614,0.00726318,-0.700439,0.0167236,0.713501
152193166136,0.00726318,-0.700439,0.0167236,0.713501
152193188745,0.00726318,-0.700439,0.0167236,0.713501
152193205152,0.00726318,-0.700439,0.0167236,0.713501
152193226225,0.00726318,-0.700439,0.0167236,0.713501
152193248684,0.00720215,-0.700439,0.0167847,0.713501
152193265127,0.00720215,-0.700439,0.0167847,0.713501
152193286161,0.00720215,-0.700439,0.0167847,0.713501
152193308610,0.00720215,-0.700439,0.0167847,0.713501
152193325107,0.00720215,-0.700439,0.0167847,0.713501
152193346104,0.00714111,-0.700439,0.0168457,0.713501
152193368686,0.00714111,-0.700439,0.0168457,0.713501
152193385766,0.00714111,-0.700439,0.0168457,0.713501
152193406241,0.00714111,-0.700439,0.0168457,0.713501
152193428665,0.00708008,-0.700439,0.0169067,0.713501
152193444529,0.00708008,-0.700439,0.0169067,0.713501
152193467680,0.00701904,-0.700439,0.0169678,0.713501
152193488693,0.00701904,-0.700439,0.0169678,0.713501
152193504486,0.00701904,-0.700439,0.0169678,0.713501
152193526137,0.00695801,-0.700439,0.0170288,0.713501
152193548649,0.00695801,-0.700378,0.0170288,0.713501
152193564416,0.00695801,-0.700378,0.0170288,0.713501
152193586109,0.00689697,-0.700439,0.0170288,0.713501
152193608625,0.00689697,-0.700439,0.0170898,0.713501
152193624917,0.00689697,-0.700439,0.0170898,0.713501
152193647561,0.00689697,-0.700378,0.0170898,0.713501
152193676155,0.00689697,-0.700378,0.0170898,0.713501
152193684456,0.00683594,-0.700378,0.0171509,0.713501
152193707568,0.00683594,-0.700439,0.0171509,0.713501
152193736104,0.0067749,-0.700378,0.0171509,0.713501
152193744488,0.0067749,-0.700378,0.0172119,0.713501
152193767642,0.00646973,-0.700317,0.017334,0.713562
152193788710,0.00640869,-0.700317,0.017395,0.713562
152193804524,0.00640869,-0.700317,0.017395,0.713562
152193835100,0.00634766,-0.700317,0.017395,0.713562
152193848653,0.00634766,-0.700317,0.0174561,0.713562
152193864428,0.00634766,-0.700317,0.0174561,0.713623
152193887627,0.00628662,-0.700317,0.0178833,0.713623
152193908712,0.00604248,-0.700256,0.0181885,0.713623
152193924481,0.0057373,-0.700134,0.0185547,0.713745
152193947644,0.00531006,-0.700195,0.019043,0.713684
152193968642,0.00524902,-0.700195,0.019043,0.713684
152193984448,0.00524902,-0.700195,0.019043,0.713684
152194015051,0.00518799,-0.700134,0.019104,0.713684
152194028624,0.00518799,-0.700195,0.019104,0.713684
152194044418,0.00518799,-0.700195,0.019104,0.713684
152194067366,0.00512695,-0.700195,0.019165,0.713684
152194088614,0.00500488,-0.700073,0.0189819,0.713806
152194112598,0.00500488,-0.700073,0.019043,0.713806
152194128082,0.00500488,-0.700073,0.019043,0.713806
152194148759,0.00494385,-0.700073,0.019043,0.713806
152194164447,0.00494385,-0.700073,0.019104,0.713806
152194187633,0.00494385,-0.700073,0.019104,0.713806
152194208743,0.00488281,-0.700073,0.019104,0.713806
152194232620,0.00488281,-0.700073,0.019165,0.713806
152194247672,0.00488281,-0.700073,0.019165,0.713806
152194268753,0.00482178,-0.700012,0.019165,0.713806
152194291170,0.00482178,-0.700073,0.0192261,0.713806
152194307645,0.00482178,-0.700073,0.0192261,0.713806
152194336230,0.00482178,-0.700073,0.0192261,0.713806
152194344501,0.00482178,-0.700073,0.0192261,0.713806
152194367647,0.00476074,-0.700073,0.0192871,0.713806
152194388796,0.00476074,-0.700012,0.0192871,0.713806
152194404536,0.00476074,-0.700012,0.0192871,0.713867
152194427007,0.00469971,-0.700012,0.0193481,0.713806
152194450075,0.00469971,-0.700073,0.0193481,0.713806
152194464504,0.00469971,-0.700073,0.0193481,0.713806
152194486906,0.00463867,-0.700012,0.0193481,0.713806
152194508689,0.00463867,-0.700012,0.0193481,0.713867
152194524438,0.00463867,-0.700012,0.0194092,0.713867
152194546907,0.00463867,-0.700012,0.0194092,0.713867
152194570125,0.00463867,-0.700012,0.0194092,0.713867
152194584532,0.00463867,-0.700012,0.0194092,0.713867
152194607026,0.00476074,-0.699951,0.0193481,0.713867
152194630176,0.00494385,-0.700012,0.0193481,0.713867
152194644422,0.00506592,-0.699951,0.0192871,0.713928
152194666996,0.00506592,-0.699951,0.0192871,0.713928
152194690241,0.00500488,-0.699951,0.0193481,0.713928
152194704498,0.00500488,-0.699951,0.0193481,0.713928
152194727005,0.00500488,-0.699951,0.0193481,0.713928
152194750228,0.00500488,-0.699951,0.0193481,0.713928
152194764505,0.00500488,-0.699951,0.0193481,0.713928
152194787491,0.00500488,-0.699951,0.0193481,0.713928
152194817667,0.00500488,-0.699951,0.0193481,0.713928
152194824444,0.00500488,-0.699951,0.0193481,0.713928
152194846996,0.00494385,-0.699951,0.0194092,0.713928
152194870135,0.00494385,-0.699951,0.0194092,0.713928
152194884499,0.00494385,-0.699951,0.0194092,0.713928
152194907003,0.00494385,-0.699951,0.0194092,0.713928
152194930174,0.00494385,-0.699951,0.0194092,0.713928
152194944463,0.00494385,-0.69989,0.0194092,0.713928
152194967012,0.00494385,-0.69989,0.0194092,0.713928
152194990108,0.00494385,-0.69989,0.0194092,0.713989
152195004466,0.00494385,-0.69989,0.0194092,0.713928
152195026950,0.00494385,-0.69989,0.0194092,0.713928
152195050093,0.00494385,-0.69989,0.0194092,0.713928
152195071213,0.00494385,-0.69989,0.0194092,0.713989
152195093680,0.00494385,-0.69989,0.0194092,0.713989
152195110137,0.00494385,-0.69989,0.0194092,0.713989
152195131156,0.00494385,-0.69989,0.0194092,0.713989
152195146966,0.00494385,-0.69989,0.0194092,0.713989
152195170087,0.00469971,-0.699829,0.0195312,0.713989
152195191168,0.00445557,-0.699768,0.0195312,0.71405
152195206975,0.00421143,-0.699768,0.0194702,0.714111
152195230156,0.00402832,-0.699707,0.0192871,0.714172
152195251286,0.00402832,-0.699707,0.0192871,0.714172
152195266940,0.00402832,-0.699707,0.0192871,0.714172
152195290130,0.00402832,-0.699707,0.0192871,0.714172
152195311217,0.00402832,-0.699707,0.0192871,0.714172
152195327591,0.00402832,-0.699707,0.0192871,0.714172
152195349585,0.00396729,-0.699707,0.0192871,0.714172
152195371268,0.00396729,-0.699707,0.0193481,0.714172
152195387003,0.00396729,-0.699646,0.0193481,0.714172
152195409547,0.00396729,-0.699646,0.0193481,0.714172
152195431306,0.00396729,-0.699707,0.0193481,0.714172
152195446984,0.00396729,-0.699707,0.0193481,0.714172
152195469551,0.00396729,-0.699707,0.0193481,0.714172
152195492634,0.00396729,-0.699707,0.0193481,0.714172
152195506985,0.00396729,-0.699707,0.0193481,0.714172
152195529538,0.00396729,-0.699646,0.0193481,0.714172
152195552664,0.00396729,-0.699646,0.0193481,0.714172
152195567011,0.00396729,-0.699646,0.0193481,0.714172
152195589526,0.00396729,-0.699646,0.0193481,0.714172
152195612629,0.00396729,-0.699646,0.0193481,0.714172
152195626959,0.00396729,-0.699707,0.0193481,0.714172
152195649500,0.00396729,-0.699646,0.0193481,0.714172
152195680226,0.00390625,-0.699646,0.0193481,0.714172
152195686912,0.00390625,-0.699646,0.0193481,0.714172
152195709558,0.00390625,-0.699707,0.0194092,0.714172
152195732713,0.00390625,-0.699646,0.0193481,0.714172
152195746963,0.00390625,-0.699707,0.0194092,0.714172
152195769463,0.00390625,-0.699707,0.0193481,0.714172
152195792643,0.00396729,-0.699707,0.0193481,0.714172
152195806973,0.00396729,-0.699707,0.0193481,0.714172
152195829558,0.00396729,-0.699707,0.0193481,0.714172
152195852742,0.00396729,-0.699707,0.0193481,0.714172
152195866992,0.00396729,-0.699707,0.0193481,0.714172
152195889515,0.00390625,-0.699707,0.0194092,0.714172
152195912612,0.00390625,-0.699707,0.0194092,0.714172
152195927429,0.00390625,-0.699646,0.0194092,0.714172
152195956209,0.00390625,-0.699646,0.0194092,0.714172
152195972731,0.00390625,-0.699707,0.0194092,0.714172
152195993827,0.00390625,-0.699707,0.0194092,0.714172
152196009549,0.00390625,-0.699707,0.0194092,0.714172
152196032706,0.00390625,-0.699707,0.0194092,0.714172
152196053680,0.00402832,-0.699707,0.0192871,0.714172
152196069525,0.00421143,-0.699707,0.019165,0.714172
152196092696,0.0043335,-0.699646,0.0189209,0.714172
152196113853,0.0043335,-0.699707,0.0189209,0.714172
152196129577,0.0043335,-0.699707,0.0189209,0.714172
152196152697,0.0043335,-0.699707,0.0189209,0.714172
152196175181,0.0043335,-0.699707,0.0189209,0.714172
152196189538,0.0043335,-0.699707,0.0189209,0.714172
152196203095,0.0043335,-0.699707,0.0189209,0.714172
152196225654,0.0043335,-0.699707,0.0189209,0.714172
152196248780,0.0043335,-0.699707,0.0189209,0.714172
152196263034,0.0043335,-0.699707,0.0189209,0.714172
152196285558,0.0043335,-0.699707,0.0189209,0.714172
152196308807,0.00439453,-0.699707,0.0188599,0.714172
152196323088,0.00439453,-0.699707,0.0188599,0.714172
152196345602,0.00439453,-0.699707,0.0188599,0.714172
152196368781,0.00439453,-0.699707,0.0188599,0.714172
152196383014,0.00439453,-0.699707,0.0188599,0.714172
152196405531,0.00439453,-0.699707,0.0188599,0.714172
152196428716,0.00439453,-0.699707,0.0188599,0.714172
152196443141,0.00439453,-0.699768,0.0188599,0.714111
152196465591,0.00439453,-0.699707,0.0188599,0.714111
152196488766,0.00439453,-0.699768,0.0188599,0.714111
152196503029,0.00439453,-0.699768,0.0188599,0.714111
152196525585,0.00439453,-0.699768,0.0188599,0.714111
152196548856,0.00439453,-0.699768,0.0188599,0.714111
152196563127,0.00439453,-0.699768,0.0188599,0.714111
152196585624,0.0043335,-0.699768,0.0188599,0.714111
152196608717,0.0043335,-0.699768,0.0189209,0.714111
152196623081,0.0043335,-0.699768,0.0189209,0.714111
152196645623,0.0043335,-0.699768,0.0189209,0.714111
152196668736,0.0043335,-0.699829,0.0189209,0.71405
152196683088,0.0043335,-0.699829,0.0189209,0.71405
152196705550,0.0043335,-0.699829,0.0189209,0.71405
152196728765,0.0043335,-0.699829,0.0189209,0.71405
152196743156,0.0043335,-0.699829,0.0189209,0.71405
152196765609,0.00427246,-0.699829,0.0189209,0.71405
152196788840,0.00427246,-0.699829,0.0189819,0.71405
152196803114,0.00427246,-0.699829,0.0189819,0.71405
152196825701,0.00427246,-0.699829,0.0189819,0.71405
152196848862,0.00427246,-0.699829,0.0189819,0.71405
152196863158,0.00421143,-0.699829,0.0189819,0.71405
152196885590,0.00421143,-0.699829,0.019043,0.71405
152196908763,0.00421143,-0.699829,0.019043,0.71405
152196931278,0.00421143,-0.699829,0.019043,0.71405
152196945640,0.00415039,-0.699829,0.019043,0.71405
152196968814,0.00415039,-0.699829,0.019104,0.71405
152196983068,0.00415039,-0.699829,0.019104,0.713989
152197007058,0.00415039,-0.69989,0.019104,0.713989
152197028807,0.00415039,-0.69989,0.019104,0.713989
152197043161,0.00408936,-0.69989,0.019104,0.713989
152197065572,0.00408936,-0.69989,0.019165,0.713989
152197088813,0.00402832,-0.69989,0.019165,0.713989
152197103056,0.00402832,-0.699829,0.0192261,0.713989
152197125513,0.00402832,-0.69989,0.0192261,0.713989
152197148736,0.00396729,-0.699829,0.0192261,0.713989
152197163098,0.00396729,-0.699829,0.0192871,0.713989
152197187020,0.00396729,-0.699829,0.0192871,0.713989
152197208712,0.00390625,-0.699829,0.0192871,0.713989
152197223086,0.00390625,-0.699829,0.0193481,0.713989
152197245499,0.00390625,-0.699829,0.0193481,0.71405
152197268732,0.00384521,-0.699829,0.0193481,0.713989
152197283055,0.00384521,-0.699829,0.0194092,0.71405
152197313821,0.00384521,-0.699829,0.0194092,0.71405
152197328776,0.00384521,-0.699829,0.0194092,0.71405
152197343079,0.00378418,-0.699829,0.0194092,0.71405
152197365514,0.00378418,-0.699829,0.0194092,0.71405
152197388081,0.00378418,-0.699829,0.0194702,0.71405
152197403036,0.00372314,-0.699829,0.0194702,0.71405
152197425545,0.00372314,-0.699829,0.0194702,0.71405
152197448068,0.00341797,-0.699768,0.0197144,0.714111
152197463063,0.00317383,-0.699707,0.0198364,0.714172
152197485551,0.00292969,-0.699646,0.0200195,0.714233
152197508070,0.00268555,-0.699585,0.0203857,0.714233
152197523060,0.00250244,-0.699585,0.020813,0.714233
152197545566,0.0022583,-0.699585,0.0211182,0.714233
152197568109,0.00189209,-0.699585,0.0213623,0.714233
152197583045,0.00177002,-0.699646,0.0219116,0.714111
152197605614,0.00170898,-0.699646,0.0219727,0.714111
152197636890,0.00170898,-0.699646,0.0219727,0.714172
152197643108,0.00164795,-0.699585,0.0220337,0.714172
152197665530,0.00164795,-0.699646,0.0220337,0.714172
152197688044,0.00164795,-0.699646,0.0220337,0.714172
152197703072,0.00158691,-0.699646,0.0220337,0.714172
152197725553,0.00158691,-0.699646,0.0220947,0.714172
152197748051,0.00158691,-0.699646,0.0220947,0.714172
152197763074,0.00152588,-0.699646,0.0220947,0.714172
152197785527,0.00152588,-0.699585,0.0221558,0.714172
152197808067,0.00152588,-0.699585,0.0221558,0.714172
152197823028,0.00146484,-0.699646,0.0221558,0.714172
152197845612,0.00146484,-0.699646,0.0221558,0.714172
152197868100,0.00146484,-0.699646,0.0222168,0.714172
152197883039,0.00140381,-0.699585,0.0222168,0.714172
152197905572,0.00152588,-0.699585,0.0221558,0.714172
152197928043,0.00146484,-0.699585,0.0221558,0.714172
152197943067,0.00146484,-0.699585,0.0222168,0.714172
152197965590,0.00146484,-0.699585,0.0222168,0.714172
152197988094,0.00140381,-0.699646,0.0220947,0.714172
152198003012,0.00140381,-0.699646,0.0219116,0.714172
152198025519,0.00158691,-0.699646,0.0217896,0.714172
152198048061,0.00170898,-0.699646,0.0216675,0.714172
152198071224,0.00189209,-0.699585,0.0215454,0.714233
152198085581,0.0020752,-0.699585,0.0213623,0.714233
152198116908,0.0022583,-0.699585,0.0211792,0.714172
152198123096,0.00238037,-0.699646,0.0209961,0.714172
152198145608,0.00262451,-0.699524,0.020813,0.714294
152198168111,0.00280762,-0.699524,0.0205078,0.714355
152198184530,0.00317383,-0.699524,0.0202637,0.714294
152198205559,0.00354004,-0.699524,0.0200195,0.714294
152198228078,0.00384521,-0.699585,0.0197754,0.714294
152198244562,0.00402832,-0.699707,0.0195312,0.714172
152198265556,0.00427246,-0.699768,0.0192871,0.714111
152198288105,0.0045166,-0.699829,0.0189819,0.71405
152198304502,0.00469971,-0.69989,0.0187988,0.713989
152198325524,0.00494385,-0.699951,0.0184937,0.713928
152198348044,0.00512695,-0.700073,0.0182495,0.713806
152198364503,0.00531006,-0.700134,0.0180054,0.713745
152198385528,0.0055542,-0.700256,0.0178223,0.713623
152198408113,0.00567627,-0.700378,0.0177002,0.713562
152198426002,0.0057373,-0.700439,0.0175171,0.713501
152198445582,0.00585938,-0.7005,0.017395,0.71344
152198468081,0.00592041,-0.700562,0.0172729,0.713318
152198484523,0.00592041,-0.700623,0.0172729,0.713318
152198505602,0.00592041,-0.700623,0.017334,0.713318
152198528081,0.00585938,-0.700623,0.017334,0.713318
152198544552,0.00585938,-0.700623,0.017334,0.713318
152198565588,0.00585938,-0.700623,0.017334,0.713318
152198588122,0.00585938,-0.700623,0.017334,0.713257
152198604539,0.00585938,-0.700623,0.017334,0.713257
152198625601,0.00585938,-0.700684,0.017334,0.713257
152198648089,0.00585938,-0.700684,0.017395,0.713257
152198672033,0.00567627,-0.700623,0.0172729,0.713257
152198685602,0.00561523,-0.700562,0.0170898,0.713379
152198708055,0.00561523,-0.700623,0.0169678,0.713318
152198732078,0.00579834,-0.700684,0.0169067,0.713257
152198745618,0.00616455,-0.700806,0.0167236,0.713135
152198768085,0.00646973,-0.700806,0.0166016,0.713135
152198784557,0.00695801,-0.700928,0.0164795,0.713013
152198805665,0.00750732,-0.70105,0.0164185,0.712891
152198828129,0.00793457,-0.701111,0.0162964,0.712769
152198844602,0.00836182,-0.701172,0.0162964,0.712708
152198865633,0.0088501,-0.701233,0.0163574,0.712708
152198888155,0.00927734,-0.701294,0.0163574,0.712585
152198904640,0.00946045,-0.701416,0.0164795,0.712463
152198925687,0.00946045,-0.701416,0.0164795,0.712463
152198949594,0.00946045,-0.701416,0.0164795,0.712463
152198964672,0.00946045,-0.701416,0.0164795,0.712463
152198985647,0.00964355,-0.701477,0.0164795,0.712402
152199008177,0.0098877,-0.701538,0.0163574,0.712402
152199024585,0.0101929,-0.701538,0.0161133,0.712341
152199045590,0.010498,-0.701538,0.0159912,0.712341
152199068095,0.0107422,-0.701599,0.0158081,0.712341
152199084560,0.0109253,-0.70166,0.0157471,0.712219
152199105641,0.0109863,-0.701721,0.015625,0.712219
152199128094,0.0111084,-0.701721,0.0155029,0.712219
152199144579,0.0113525,-0.701721,0.0153198,0.712158
152199167059,0.0115356,-0.701782,0.0151978,0.712158
152199188074,0.0115356,-0.701782,0.0151978,0.712158
152199204543,0.0115356,-0.701782,0.0152588,0.712158
152199227058,0.0115356,-0.701782,0.0152588,0.712158
152199248222,0.0115356,-0.701782,0.0152588,0.712097
152199264634,0.0115356,-0.701782,0.0152588,0.712097
152199287030,0.0114746,-0.701782,0.0152588,0.712097
152199308128,0.0114746,-0.701843,0.0152588,0.712097
152199324625,0.0114746,-0.701843,0.0152588,0.712097
152199347064,0.0114746,-0.701843,0.0152588,0.712097
152199368153,0.0115356,-0.701843,0.0152588,0.712097
152199384598,0.0115356,-0.701843,0.0152588,0.712036
152199407061,0.0114746,-0.701843,0.0152588,0.712036
152199428163,0.0114746,-0.701843,0.0152588,0.712036
152199444543,0.0110474,-0.701843,0.0150146,0.712097
152199467018,0.0107422,-0.701782,0.0147705,0.712158
152199488134,0.0102539,-0.701721,0.0139771,0.712219
152199504600,0.00946045,-0.701782,0.0130615,0.712158
152199534626,0.00848389,-0.701782,0.0111694,0.71228
152199548127,0.00604248,-0.702026,0.00830078,0.712097
152199564600,0.00500488,-0.701904,0.00640869,0.712219
152199587102,0.00506592,-0.701843,0.00482178,0.712341
152199608181,0.00561523,-0.702026,0.00378418,0.712158
152199624613,0.00750732,-0.702209,0.003479,0.711975
152199647095,0.00994873,-0.702393,0.00323486,0.711731
152199668116,0.0123291,-0.702576,0.00286865,0.711487
152199684581,0.0147705,-0.702759,0.00256348,0.711243
152199707052,0.0172119,-0.702942,0.0022583,0.71106
152199728091,0.0195312,-0.703125,0.00183105,0.710815
152199744627,0.0216064,-0.703308,0.00109863,0.710571
152199767136,0.0236206,-0.70343,0.000305176,0.710388
152199788165,0.026001,-0.703552,-0.000305176,0.710144
152199804557,0.0285034,-0.703796,-0.0010376,0.709778
152199827046,0.0313721,-0.704224,-0.00195312,0.70929
152199848171,0.0342407,-0.704773,-0.00341797,0.708618
152199863901,0.0377197,-0.705505,-0.00494385,0.707703
152199886320,0.0418701,-0.70636,-0.00579834,0.706604
152199908866,0.0487061,-0.707336,-0.00665283,0.7052
152199923811,0.0543213,-0.708679,-0.00866699,0.703369
152199946212,0.0609741,-0.709778,-0.0119019,0.70166
152199968872,0.0691528,-0.71167,-0.015564,0.698914
152199983779,0.0765991,-0.713745,-0.020874,0.695862
152200006311,0.083252,-0.71582,-0.0262451,0.69281
152200028804,0.0919189,-0.717773,-0.0315552,0.689453
152200043719,0.0985718,-0.719238,-0.0360107,0.686829
152200066322,0.0931396,-0.71405,-0.0390625,0.69281
152200088808,0.0926514,-0.71051,-0.0462036,0.695984
152200103814,0.0991821,-0.707031,-0.0499268,0.698425
152200126347,0.107788,-0.701843,-0.0509033,0.702271
152200148829,0.120972,-0.695923,-0.0476685,0.706238
152200163798,0.132202,-0.689209,-0.0390015,0.711365
152200186286,0.143005,-0.681519,-0.0251465,0.717285
152200208754,0.154419,-0.673828,-0.00897217,0.722473
152200225222,0.166016,-0.6651,0.0117798,0.727966
152200246263,0.178162,-0.655334,0.0370483,0.733093
152200268865,0.191711,-0.645325,0.0673218,0.736389
152200285192,0.209351,-0.634094,0.10437,0.737
152200306370,0.231689,-0.621643,0.145386,0.734009
152200328796,0.25769,-0.608032,0.187561,0.727112
152200345322,0.283447,-0.593872,0.22644,0.718079
152200366333,0.30481,-0.583252,0.257507,0.70752
152200388767,0.319702,-0.573242,0.278137,0.701233
152200405275,0.32251,-0.583252,0.275574,0.692688
152200426265,0.302124,-0.595581,0.273987,0.692017
152200448861,0.296875,-0.59375,0.276367,0.694946
152200465221,0.29187,-0.589478,0.274841,0.701294
152200486368,0.287842,-0.58728,0.286072,0.700256
152200508841,0.286438,-0.58905,0.291138,0.697266
152200525299,0.280579,-0.594299,0.296265,0.692993
152200546313,0.276978,-0.597778,0.299866,0.689941
152200568863,0.273438,-0.600037,0.305786,0.686768
152200585286,0.271667,-0.601379,0.309875,0.684448
152200606336,0.267883,-0.603943,0.311707,0.682861
152200628847,0.263672,-0.607361,0.313965,0.68042
152200645830,0.260071,-0.611023,0.317017,0.677124
152200666284,0.256409,-0.613953,0.32074,0.674072
152200688740,0.253296,-0.617249,0.323853,0.670776
152200705242,0.25,-0.620483,0.326416,0.667786
152200726297,0.247131,-0.622925,0.329407,0.6651
152200748843,0.245422,-0.624817,0.333313,0.661987
152200765262,0.244202,-0.626343,0.337219,0.658997
152200786392,0.243652,-0.628357,0.340088,0.655823
152200808843,0.242554,-0.630798,0.341125,0.65332
152200825217,0.241089,-0.632935,0.341492,0.651611
152200846357,0.240051,-0.634766,0.340149,0.650879
152200868796,0.238159,-0.636475,0.339905,0.650085
152200885023,0.237366,-0.637695,0.339966,0.649109
152200906298,0.23645,-0.639038,0.34021,0.64801
152200928872,0.235474,-0.640381,0.340576,0.646912
152200945304,0.234741,-0.641541,0.341125,0.645691
152200966384,0.234314,-0.642395,0.341675,0.644775
152200988866,0.233826,-0.643127,0.341797,0.644104
152201005277,0.233154,-0.644104,0.341858,0.643372
152201026316,0.232727,-0.64447,0.342285,0.642883
152201048855,0.233459,-0.644531,0.342102,0.642639
152201064622,0.233948,-0.64502,0.341675,0.642212
152201086375,0.234863,-0.645264,0.341736,0.641602
152201108873,0.236755,-0.644897,0.341309,0.641479
152201124612,0.24054,-0.644531,0.342529,0.639832
152201146368,0.244019,-0.64447,0.344299,0.637634
152201170236,0.248535,-0.64325,0.344543,0.636963
152201184649,0.251038,-0.642273,0.34436,0.637085
152201207755,0.252747,-0.641418,0.344055,0.63739
152201228890,0.253174,-0.640869,0.344482,0.637573
