timestamp,x,y,z,w
71478378244,0.736023,-0.308716,0.592529,0.108582
71478402000,0.736206,-0.308655,0.592346,0.108582
71478417022,0.736328,-0.308594,0.592224,0.108582
71478438258,0.73645,-0.308533,0.592102,0.108582
71478468786,0.736572,-0.308533,0.59198,0.108521
71478476959,0.736694,-0.308411,0.591919,0.108276
71478522695,0.736938,-0.308289,0.591675,0.108154
71478524771,0.737183,-0.308167,0.591492,0.108154
71478536994,0.737183,-0.308105,0.591492,0.108154
71478559092,0.737183,-0.308105,0.591492,0.108215
71478582797,0.737183,-0.308044,0.591492,0.108276
71478597052,0.737244,-0.308044,0.591492,0.108276
71478640725,0.737244,-0.308044,0.591431,0.108276
71478650888,0.737244,-0.308044,0.591431,0.108276
71478657059,0.737183,-0.308044,0.591492,0.108276
71478678820,0.737183,-0.308044,0.591492,0.108276
71478701369,0.737122,-0.3078,0.591736,0.108215
71478715709,0.737122,-0.307495,0.591858,0.108215
71478738836,0.737122,-0.307495,0.591919,0.108276
71478761317,0.737122,-0.307434,0.591919,0.108337
71478775659,0.737061,-0.307434,0.591919,0.108337
71478798841,0.737122,-0.307434,0.591919,0.108337
71478821379,0.737061,-0.307373,0.591919,0.108398
71478835692,0.737183,-0.307129,0.591919,0.108582
71478858929,0.737183,-0.306946,0.59198,0.108826
71478881344,0.737305,-0.306641,0.591919,0.109009
71478895740,0.737427,-0.306274,0.591858,0.109436
71478918806,0.737488,-0.305969,0.591858,0.109863
71478941358,0.737549,-0.305542,0.59198,0.110229
71478955705,0.73761,-0.305237,0.59198,0.110657
71478978867,0.737793,-0.304932,0.591858,0.111084
71479001416,0.737854,-0.304749,0.591797,0.11145
71479023826,0.737854,-0.304443,0.591919,0.111694
71479038752,0.737854,-0.304382,0.591919,0.111755
71479061308,0.737854,-0.304382,0.591919,0.111755
71479077099,0.737854,-0.304382,0.591919,0.111755
71479098785,0.737854,-0.304321,0.59198,0.111816
71479121268,0.737793,-0.304321,0.59198,0.111877
71479137069,0.737793,-0.304321,0.59198,0.111877
71479158827,0.737549,-0.304321,0.592346,0.111572
71479181345,0.737671,-0.304016,0.592407,0.111328
71479197058,0.737976,-0.303589,0.592224,0.111511
71479218818,0.738281,-0.302979,0.592102,0.111938
71479248770,0.738525,-0.302429,0.59198,0.112366
71479265234,0.738831,-0.30188,0.591797,0.112671
71479278842,0.738953,-0.301392,0.591858,0.112854
71479301359,0.739014,-0.30072,0.592041,0.113098
71479317177,0.738892,-0.300049,0.592468,0.113525
71479338135,0.738892,-0.299377,0.592773,0.114136
71479361327,0.738892,-0.298645,0.592957,0.115112
71479377181,0.738708,-0.297668,0.59314,0.117249
71479398241,0.73822,-0.296936,0.593811,0.11908
71479421373,0.737671,-0.296082,0.594727,0.120239
71479445266,0.736938,-0.294678,0.595947,0.121704
71479458219,0.73584,-0.293213,0.597656,0.123718
71479481345,0.734802,-0.291992,0.599182,0.125488
71479497087,0.73407,-0.291138,0.600098,0.127014
71479518126,0.733337,-0.290527,0.600891,0.128906
71479541261,0.732422,-0.289429,0.602112,0.130798
71479557108,0.731262,-0.288086,0.603638,0.133118
71479579614,0.729736,-0.286438,0.605713,0.135925
71479601311,0.72821,-0.284485,0.60791,0.138367
71479617153,0.726624,-0.283203,0.609924,0.140442
71479639645,0.724976,-0.282349,0.611816,0.142273
71479662827,0.723389,-0.28125,0.613892,0.14386
71479683826,0.721313,-0.28064,0.616272,0.145142
71479699698,0.719727,-0.278931,0.618835,0.145386
71479722831,0.717651,-0.276184,0.622192,0.146667
71479743947,0.715271,-0.272827,0.626099,0.147888
71479759651,0.713989,-0.265137,0.631165,0.146667
71479782790,0.711975,-0.258606,0.636658,0.144287
71479803851,0.709534,-0.253784,0.641479,0.143616
71479819586,0.706665,-0.250183,0.646057,0.143372
71479842706,0.703674,-0.24646,0.650818,0.142944
71479857038,0.700317,-0.242004,0.656372,0.141846
71479878111,0.696777,-0.236816,0.662476,0.139648
71479901316,0.693481,-0.231018,0.668274,0.138123
71479917064,0.6828,-0.225708,0.681152,0.137146
71479938106,0.671875,-0.220459,0.693726,0.136536
71479961300,0.674133,-0.218811,0.694031,0.126221
71479977068,0.67865,-0.222595,0.690857,0.112183
71479999562,0.683899,-0.231873,0.684387,0.100342
71480021421,0.692078,-0.244934,0.672852,0.090332
71480037161,0.701599,-0.254211,0.661011,0.0784302
71480059601,0.712463,-0.264404,0.646423,0.0672607
71480088865,0.723206,-0.277527,0.629517,0.0597534
71480097093,0.733032,-0.288757,0.613403,0.0541382
71480119670,0.741272,-0.299133,0.598389,0.0537109
71480141361,0.745483,-0.30426,0.589905,0.0604248
71480165364,0.753296,-0.322144,0.570923,0.0530396
71480179689,0.752991,-0.328491,0.568604,0.0413818
71480201327,0.748901,-0.335449,0.569824,0.0432739
71480217085,0.743652,-0.342651,0.572266,0.0447998
71480239567,0.740173,-0.34668,0.574036,0.0488892
71480260634,0.741455,-0.351501,0.569458,0.0488281
71480283945,0.742493,-0.35437,0.566589,0.0457764
71480300172,0.742065,-0.361023,0.563232,0.0422974
71480320826,0.740662,-0.365112,0.562988,0.0334473
71480337116,0.740784,-0.368225,0.561157,0.0269165
71480359682,0.744202,-0.371704,0.554504,0.0229492
71480380821,0.750305,-0.373291,0.545166,0.0189819
71480397097,0.757568,-0.373718,0.535034,0.0120239
71480419574,0.764465,-0.373779,0.525208,0.00250244
71480440725,0.770142,-0.37384,0.516724,-0.00817871
71480457101,0.775085,-0.373474,0.509338,-0.0166626
71480479595,0.780334,-0.372498,0.50177,-0.0220947
71480500646,0.786133,-0.370605,0.493835,-0.0268555
71480523910,0.790955,-0.367737,0.487854,-0.03302
71480539690,0.795227,-0.36499,0.482422,-0.0404663
71480560743,0.799072,-0.362366,0.477478,-0.0456543
71480577205,0.803894,-0.358521,0.471924,-0.0494385
71480600165,0.809082,-0.353516,0.466553,-0.0514526
71480620832,0.813477,-0.347839,0.462891,-0.0545654
71480637205,0.817017,-0.34314,0.4599,-0.0570068
71480659738,0.820312,-0.340271,0.455994,-0.0575562
71480680831,0.822937,-0.337952,0.452942,-0.0579834
71480697078,0.824707,-0.335571,0.451477,-0.0581665
71480719569,0.82605,-0.333069,0.450928,-0.0571899
71480740673,0.827209,-0.329773,0.451477,-0.0557861
71480757086,0.828247,-0.327087,0.451721,-0.0539551
71480779719,0.829407,-0.324402,0.451721,-0.0521851
71480800716,0.829529,-0.323181,0.452515,-0.0512695
71480817178,0.828247,-0.321594,0.455994,-0.0509644
71480846392,0.827454,-0.319885,0.458984,-0.0476074
71480862167,0.825989,-0.316589,0.46405,-0.0455322
71480885293,0.824585,-0.310669,0.470215,-0.0488281
71480906419,0.823059,-0.305603,0.47583,-0.0518188
71480922138,0.821106,-0.301331,0.481689,-0.0540161
71480945296,0.820496,-0.299011,0.483887,-0.0561523
71480966340,0.821045,-0.299133,0.482849,-0.0564575
71480982086,0.822144,-0.298584,0.481445,-0.0552979
71481005338,0.823914,-0.297119,0.479431,-0.0547485
71481050880,0.82489,-0.296021,0.478333,-0.0547485
71481053273,0.8255,-0.293457,0.47876,-0.055603
71481072839,0.827026,-0.289185,0.479004,-0.0536499
71481086364,0.828735,-0.284119,0.478943,-0.0552368
71481102070,0.831177,-0.278564,0.477783,-0.0564575
71481132857,0.833557,-0.272644,0.476929,-0.0575562
71481153904,0.835876,-0.266968,0.476074,-0.0581055
71481162207,0.83844,-0.264954,0.472595,-0.0584717
71481192747,0.841675,-0.264465,0.467163,-0.0578003
71481206288,0.842896,-0.267639,0.462891,-0.0598145
71481222063,0.842834,-0.270752,0.460449,-0.0654907
71481235665,0.842773,-0.275574,0.457336,-0.0680542
71481259679,0.84436,-0.279846,0.451843,-0.0674438
71481281418,0.846741,-0.282837,0.446167,-0.0626221
71481295714,0.8479,-0.283997,0.443359,-0.0615845
71481318224,0.848633,-0.287537,0.43988,-0.0593872
71481341408,0.847473,-0.294067,0.437561,-0.0621948
71481355816,0.844543,-0.300354,0.437927,-0.0686646
71481378211,0.841492,-0.306702,0.439209,-0.0698853
71481411027,0.839905,-0.310364,0.439697,-0.069519
71481415724,0.837891,-0.313354,0.441284,-0.0707397
71481438200,0.835815,-0.316162,0.44281,-0.0732422
71481461317,0.834534,-0.320007,0.441772,-0.0769043
71481475693,0.833191,-0.325745,0.439514,-0.0802612
71481498235,0.833252,-0.332214,0.434875,-0.0787354
71481521407,0.833618,-0.338684,0.430054,-0.0734863
71481535836,0.833191,-0.344299,0.426819,-0.0709229
71481558242,0.832397,-0.350098,0.42395,-0.0690918
71481581410,0.831238,-0.355469,0.421753,-0.0691528
71481595722,0.829956,-0.359497,0.42041,-0.0717163
71481618244,0.828796,-0.362427,0.419556,-0.0749512
71481641419,0.827637,-0.365051,0.418762,-0.079834
71481655740,0.827209,-0.366699,0.417358,-0.0838013
71481678142,0.826782,-0.366943,0.417236,-0.0877686
71481701325,0.826355,-0.366333,0.417664,-0.0921631
71481715701,0.826355,-0.366028,0.41748,-0.0942993
71481738289,0.826538,-0.366394,0.416382,-0.0960083
71481761383,0.826355,-0.368103,0.414612,-0.0982056
71481775787,0.825928,-0.3703,0.412964,-0.100464
71481798260,0.825562,-0.372375,0.411987,-0.0996094
71481821449,0.824219,-0.373962,0.412903,-0.101318
71481835741,0.822632,-0.374023,0.4151,-0.104858
71481858247,0.821228,-0.372803,0.417847,-0.109436
71481881406,0.820618,-0.369995,0.420166,-0.114624
71481895688,0.82074,-0.366821,0.421448,-0.118958
71481918197,0.821533,-0.363647,0.421631,-0.122559
71481941321,0.822876,-0.361023,0.420715,-0.124512
71481963997,0.824402,-0.358948,0.419373,-0.125122
71481978243,0.825806,-0.356995,0.418396,-0.124573
71482001344,0.826721,-0.355469,0.417847,-0.124451
71482015825,0.826416,-0.354431,0.41864,-0.127014
71482038288,0.825195,-0.352173,0.420959,-0.133118
71482061381,0.825134,-0.349548,0.421997,-0.137329
71482075777,0.825745,-0.348145,0.420959,-0.140198
71482098216,0.827026,-0.346619,0.419006,-0.142334
71482121393,0.828369,-0.344177,0.417664,-0.144226
71482135761,0.829773,-0.340881,0.416809,-0.146423
71482158212,0.831299,-0.337158,0.416382,-0.147766
71482181317,0.832825,-0.333374,0.415955,-0.148865
71482195711,0.834106,-0.330078,0.415527,-0.150391
71482218174,0.834595,-0.327637,0.4151,-0.154053
71482240748,0.835266,-0.325134,0.414185,-0.158081
71482255881,0.836487,-0.322632,0.412659,-0.16095
71482278318,0.837585,-0.319519,0.411804,-0.163696
71482300794,0.838257,-0.315674,0.411926,-0.167297
71482315712,0.838745,-0.311401,0.412476,-0.171326
71482338237,0.83905,-0.3078,0.412598,-0.175781
71482360787,0.839478,-0.304504,0.412415,-0.180054
71482375825,0.839539,-0.300964,0.412964,-0.184509
71482398213,0.8396,-0.298035,0.412903,-0.189026
71482420805,0.839722,-0.295471,0.412415,-0.19342
71482435789,0.840088,-0.293335,0.411499,-0.197083
71482458279,0.840149,-0.291565,0.41095,-0.200684
71482480834,0.840454,-0.289307,0.410522,-0.203369
71482495783,0.840271,-0.287781,0.409729,-0.207703
71482518270,0.8396,-0.28656,0.408813,-0.213867
71482540790,0.838684,-0.285217,0.40863,-0.219788
71482555719,0.837708,-0.284119,0.407715,-0.226379
71482578233,0.836975,-0.28418,0.406128,-0.231934
71482600785,0.837952,-0.28418,0.403503,-0.232849
71482615796,0.840088,-0.2854,0.400146,-0.229492
71482638236,0.840637,-0.28717,0.397705,-0.22937
71482660782,0.840271,-0.290039,0.396057,-0.229919
71482675786,0.84021,-0.294373,0.393921,-0.228577
71482698273,0.839294,-0.300659,0.391418,-0.227844
71482720805,0.837341,-0.303528,0.392761,-0.229004
71482735792,0.836609,-0.306335,0.392639,-0.228088
71482782729,0.836304,-0.308838,0.391785,-0.227173
71482785187,0.835571,-0.310669,0.391846,-0.227478
71482795768,0.835083,-0.312134,0.391296,-0.228088
71482818208,0.835205,-0.312256,0.390564,-0.228699
71482840694,0.835205,-0.31073,0.391541,-0.229126
71482855732,0.83551,-0.309692,0.3927,-0.227417
71482878166,0.83551,-0.308899,0.39386,-0.226624
71482900831,0.8349,-0.308716,0.394531,-0.227905
71482915823,0.833374,-0.310242,0.395142,-0.230347
71482938292,0.832825,-0.312744,0.394226,-0.230469
71482960825,0.832275,-0.315613,0.393372,-0.22998
71482975754,0.831726,-0.318848,0.392517,-0.229065
71482998296,0.831421,-0.322083,0.391663,-0.227112
71483020734,0.830627,-0.324829,0.391602,-0.226074
71483035728,0.829102,-0.327271,0.392517,-0.226562
71483058242,0.828247,-0.330078,0.392517,-0.225647
71483080812,0.827393,-0.332581,0.392212,-0.225647
71483095792,0.826416,-0.335083,0.392578,-0.225098
71483118247,0.825073,-0.336853,0.394104,-0.224548
71483148917,0.82312,-0.338806,0.397339,-0.2229
71483157225,0.820496,-0.342957,0.399597,-0.222351
71483178239,0.818542,-0.34845,0.399353,-0.221375
71483200685,0.817749,-0.35376,0.398071,-0.218262
71483217160,0.816345,-0.357178,0.398987,-0.216309
71483238202,0.814636,-0.360107,0.400757,-0.214478
71483260736,0.812988,-0.362976,0.402222,-0.213257
71483277769,0.811951,-0.365723,0.402283,-0.212341
71483298224,0.811829,-0.367798,0.401367,-0.210938
71483322204,0.811951,-0.36853,0.401001,-0.2099
71483338744,0.812805,-0.368591,0.400635,-0.207214
71483358269,0.812317,-0.36908,0.40094,-0.207581
71483380819,0.811096,-0.36908,0.401611,-0.210999
71483397263,0.810791,-0.368164,0.401367,-0.214233
71483421157,0.811157,-0.36676,0.401123,-0.215759
71483440813,0.811462,-0.365112,0.401123,-0.217285
71483457204,0.811951,-0.363586,0.400757,-0.218872
71483478272,0.812378,-0.362183,0.39978,-0.221252
71483500789,0.813599,-0.360474,0.39801,-0.222778
71483517228,0.815308,-0.358643,0.39563,-0.223755
71483538288,0.816833,-0.356567,0.393555,-0.225098
71483560742,0.817627,-0.354553,0.392212,-0.227905
71483577214,0.817932,-0.352417,0.391357,-0.231445
71483598372,0.818054,-0.350586,0.390442,-0.235413
71483620793,0.818542,-0.349243,0.389038,-0.238037
71483637178,0.81897,-0.348267,0.387817,-0.23999
71483658229,0.819458,-0.347351,0.386597,-0.241394
71483680732,0.820435,-0.346252,0.384888,-0.242554
71483697144,0.821655,-0.345276,0.382874,-0.243042
71483718285,0.822754,-0.344421,0.380981,-0.243591
71483750323,0.823547,-0.343689,0.379272,-0.244507
71483757235,0.824097,-0.343079,0.377869,-0.245605
71483778263,0.825012,-0.342529,0.376099,-0.246033
71483808951,0.826294,-0.341919,0.373901,-0.245972
71483817158,0.828308,-0.341064,0.371338,-0.244263
71483838193,0.829956,-0.340759,0.369019,-0.242493
71483860788,0.830139,-0.339661,0.36853,-0.244263
71483877218,0.829651,-0.338806,0.368652,-0.246948
71483898322,0.829285,-0.338379,0.368713,-0.248596
71483920803,0.829285,-0.338562,0.368469,-0.248718
71483937181,0.829041,-0.33905,0.368103,-0.249268
71483958319,0.828552,-0.339905,0.368042,-0.250061
71483990391,0.827332,-0.340942,0.368408,-0.252014
71483997233,0.826416,-0.341736,0.368896,-0.253174
71484018270,0.825684,-0.34259,0.369202,-0.254089
71484040737,0.825195,-0.34314,0.369263,-0.254761
71484057258,0.824951,-0.343445,0.369324,-0.255127
71484079782,0.824646,-0.343384,0.369507,-0.255859
71484100746,0.824707,-0.343384,0.369446,-0.255737
71484117223,0.825073,-0.343567,0.368713,-0.255249
71484147138,0.8255,-0.343872,0.367798,-0.254944
71484168878,0.825989,-0.344116,0.366943,-0.254211
71484184721,0.827026,-0.34436,0.365845,-0.252258
71484199686,0.827881,-0.344604,0.364563,-0.250732
71484220720,0.827942,-0.344543,0.364197,-0.251221
71484237217,0.827637,-0.344238,0.36438,-0.252502
71484259753,0.827698,-0.343506,0.364441,-0.253113
71484280817,0.828064,-0.342712,0.364197,-0.253357
71484297238,0.828247,-0.341553,0.364258,-0.254211
71484327271,0.828613,-0.340149,0.364319,-0.254761
71484348912,0.828979,-0.338928,0.364197,-0.255493
71484364763,0.829041,-0.338074,0.364014,-0.256592
71484379784,0.829102,-0.336853,0.364197,-0.257751
71484400818,0.829041,-0.335632,0.364502,-0.259216
71484417232,0.828613,-0.334412,0.364929,-0.261475
71484439749,0.828308,-0.333496,0.365112,-0.263367
71484460850,0.828247,-0.332642,0.365051,-0.264771
71484477156,0.82843,-0.331787,0.364502,-0.265869
71484499777,0.828857,-0.331299,0.363953,-0.266052
71484520859,0.829102,-0.330627,0.363464,-0.266663
71484537259,0.829407,-0.330078,0.362915,-0.267212
71484559752,0.829529,-0.32959,0.362488,-0.267944
71484580773,0.829651,-0.329163,0.362244,-0.268494
71484597238,0.829773,-0.329163,0.361633,-0.26886
71484619785,0.830078,-0.329895,0.360413,-0.268738
71484640786,0.830322,-0.330627,0.359192,-0.268799
71484657206,0.830627,-0.331055,0.357971,-0.268799
71484679841,0.831055,-0.331177,0.357056,-0.268677
71484700823,0.831482,-0.330872,0.356262,-0.268738
71484717256,0.832092,-0.330444,0.355408,-0.268433
71484739735,0.832642,-0.329956,0.354492,-0.268616
71484760812,0.833069,-0.329407,0.35376,-0.268921
71484777327,0.833374,-0.329041,0.353088,-0.269226
71484806902,0.83374,-0.329041,0.352112,-0.26947
71484822927,0.834045,-0.329407,0.351074,-0.269348
71484852093,0.834351,-0.329651,0.350281,-0.269104
71484858982,0.834839,-0.330017,0.349304,-0.268433
71484881557,0.835205,-0.330261,0.348572,-0.268066
71484896493,0.835449,-0.330383,0.347778,-0.268005
71484919001,0.835327,-0.3302,0.347351,-0.269165
71484941524,0.835571,-0.329712,0.346863,-0.269775
71484956473,0.835938,-0.328918,0.346313,-0.270264
71485026748,0.836304,-0.327881,0.345886,-0.270874
71485032731,0.836731,-0.326904,0.34552,-0.27124
71485038914,0.837585,-0.325684,0.344482,-0.271484
71485061462,0.837891,-0.325439,0.343994,-0.271484
71485076468,0.838074,-0.325378,0.343506,-0.271545
71485098974,0.838257,-0.325439,0.343079,-0.271362
71485121424,0.83844,-0.325623,0.34259,-0.271362
71485136490,0.838562,-0.325806,0.342041,-0.27124
71485158971,0.838684,-0.325989,0.341675,-0.271179
71485181920,0.838989,-0.32605,0.341248,-0.270691
71485221797,0.839172,-0.326172,0.340881,-0.270386
71485227195,0.839478,-0.326111,0.340576,-0.270081
71485241484,0.839661,-0.326111,0.340271,-0.269897
71485256490,0.839722,-0.32605,0.340027,-0.269897
71485278940,0.839966,-0.32605,0.339844,-0.269531
71485301529,0.840088,-0.326172,0.339661,-0.269226
71485316525,0.840271,-0.326233,0.339355,-0.269043
71485338983,0.840332,-0.326172,0.33905,-0.269165
71485379208,0.840698,-0.325745,0.338806,-0.268921
71485384001,0.840942,-0.325317,0.338623,-0.268738
71485399029,0.841248,-0.325073,0.338501,-0.268433
71485421501,0.841492,-0.325134,0.338135,-0.268005
71485436564,0.841614,-0.325134,0.337952,-0.267822
71485459021,0.841492,-0.325134,0.337952,-0.26825
71485481485,0.841492,-0.325134,0.337952,-0.26825
71485496455,0.841492,-0.325073,0.338013,-0.26825
71485580971,0.841492,-0.325012,0.337952,-0.268372
71485583342,0.841614,-0.324768,0.33783,-0.268433
71485589302,0.841736,-0.32428,0.33783,-0.268555
71485601490,0.841858,-0.322998,0.338257,-0.269165
71485616468,0.841858,-0.322266,0.338684,-0.269592
71485638827,0.841797,-0.321655,0.338989,-0.270081
71485661497,0.841736,-0.321228,0.339111,-0.270691
71485677873,0.841736,-0.320679,0.339172,-0.27124
71485699008,0.841736,-0.320068,0.339417,-0.271729
71485721550,0.841614,-0.319275,0.339905,-0.272278
71485737921,0.841736,-0.318604,0.340515,-0.271973
71485758957,0.841797,-0.31842,0.34082,-0.271606
71485781493,0.841797,-0.31842,0.34082,-0.271667
71485797920,0.84198,-0.31842,0.340698,-0.27124
71485819013,0.842102,-0.318237,0.340759,-0.271057
71485858522,0.842163,-0.318054,0.340942,-0.270691
71485860891,0.842224,-0.318176,0.340942,-0.270447
71485894661,0.842407,-0.31842,0.340698,-0.269958
71485901505,0.842407,-0.318604,0.340637,-0.269714
71485916503,0.842407,-0.318359,0.340881,-0.269836
71485938988,0.842407,-0.318298,0.340942,-0.269775
71485961483,0.842407,-0.318298,0.340942,-0.269775
71485975843,0.842529,-0.318604,0.340759,-0.269165
71485999049,0.842651,-0.319153,0.340515,-0.268555
71486044454,0.842651,-0.31958,0.340271,-0.268188
71486055004,0.842712,-0.320007,0.340088,-0.267822
71486060430,0.842896,-0.320312,0.339905,-0.267029
71486081573,0.843018,-0.320557,0.339905,-0.266418
71486095896,0.84314,-0.320679,0.339844,-0.265991
71486118968,0.843262,-0.32074,0.339661,-0.265808
71486141466,0.843445,-0.320679,0.339478,-0.265503
71486155814,0.843567,-0.320557,0.339355,-0.265381
71486178985,0.84375,-0.320557,0.339111,-0.265137
71486209672,0.843933,-0.320679,0.338745,-0.264832
71486215811,0.844055,-0.320801,0.33844,-0.264771
71486249325,0.844116,-0.320862,0.338257,-0.264709
71486261444,0.844055,-0.32074,0.338257,-0.264954
71486275776,0.844116,-0.32074,0.338196,-0.265015
71486298916,0.844116,-0.32074,0.338196,-0.265015
71486321399,0.844055,-0.320801,0.337952,-0.265381
71486335827,0.844116,-0.320862,0.337646,-0.265564
71486358923,0.844055,-0.32074,0.337585,-0.265808
71486382484,0.844116,-0.32074,0.337585,-0.265747
71486403927,0.844116,-0.32074,0.337585,-0.265747
71486419003,0.844116,-0.32074,0.337585,-0.265686
71486441507,0.844055,-0.320618,0.337646,-0.265808
71486455787,0.844116,-0.320618,0.337646,-0.265808
71486479052,0.844055,-0.320862,0.337524,-0.265869
71486501544,0.844055,-0.321045,0.337402,-0.265747
71486515855,0.844055,-0.321289,0.33728,-0.265686
71486538959,0.844055,-0.321533,0.337097,-0.265625
71486562894,0.844116,-0.321716,0.336853,-0.265442
71486592130,0.844116,-0.321838,0.336853,-0.26532
71486606495,0.844116,-0.321838,0.336792,-0.26532
71486636886,0.844116,-0.321838,0.336792,-0.265259
71486645405,0.844116,-0.321838,0.336792,-0.26532
71486691718,0.843994,-0.322021,0.336975,-0.265381
71486728452,0.843872,-0.322144,0.337219,-0.265259
71486730859,0.843689,-0.322205,0.337524,-0.265381
71486767523,0.843506,-0.322266,0.337769,-0.265503
71486772794,0.843384,-0.322388,0.338013,-0.265564
71486778695,0.84314,-0.322632,0.338379,-0.265442
71486808944,0.84314,-0.322632,0.338379,-0.265442
71486841738,0.843018,-0.322388,0.338684,-0.265686
71486846424,0.842957,-0.322205,0.338867,-0.26593
71486861463,0.843018,-0.322083,0.338928,-0.26593
71486877215,0.843079,-0.322083,0.338867,-0.265625
71486899714,0.843201,-0.322388,0.338623,-0.265198
71486922873,0.843262,-0.322632,0.33844,-0.265137
71486937215,0.84314,-0.322876,0.338257,-0.265442
71486959717,0.842957,-0.322998,0.338135,-0.266052
71486982902,0.842834,-0.323181,0.338013,-0.266296
71486997245,0.842773,-0.323242,0.337952,-0.266479
71487019742,0.842651,-0.323242,0.338013,-0.266663
71487042876,0.842529,-0.323303,0.338013,-0.267029
71487057206,0.842407,-0.323364,0.338074,-0.267334
71487079692,0.842285,-0.323364,0.338074,-0.2677
71487126735,0.842224,-0.323303,0.338196,-0.267822
71487140267,0.842041,-0.323364,0.33844,-0.268005
71487142692,0.841797,-0.323364,0.338684,-0.268372
71487162919,0.841675,-0.323425,0.338806,-0.268616
71487177701,0.841553,-0.323425,0.338989,-0.268738
71487201162,0.841431,-0.323486,0.339172,-0.26886
71487221468,0.84137,-0.323669,0.339172,-0.268799
71487237195,0.841248,-0.32373,0.339294,-0.268982
71487258289,0.841064,-0.32373,0.339539,-0.269226
71487281481,0.840942,-0.323792,0.339722,-0.269287
71487297215,0.840881,-0.323853,0.339722,-0.269409
71487318268,0.840759,-0.323914,0.339722,-0.269592
71487341474,0.840698,-0.323914,0.339905,-0.269775
71487365382,0.840698,-0.323853,0.339966,-0.269714
71487378289,0.840576,-0.323792,0.340149,-0.269897
71487401430,0.840576,-0.323792,0.34021,-0.269836
71487417214,0.840576,-0.323792,0.34021,-0.269836
71487438320,0.840515,-0.323608,0.340515,-0.269897
71487461496,0.840515,-0.323608,0.340515,-0.269897
71487477299,0.840393,-0.323486,0.340698,-0.270081
71487499760,0.840454,-0.323486,0.340698,-0.27002
71487522870,0.840454,-0.323486,0.340759,-0.27002
71487537221,0.840393,-0.323486,0.340759,-0.27002
71487559771,0.84021,-0.323425,0.340942,-0.270386
71487581445,0.840149,-0.323364,0.341064,-0.270691
71487597277,0.840149,-0.323242,0.341187,-0.270691
71487619821,0.840088,-0.323181,0.341248,-0.270813
71487634842,0.840088,-0.323181,0.341248,-0.270813
71487657305,0.840088,-0.32312,0.341309,-0.270752
71487679745,0.840088,-0.32312,0.341309,-0.270752
71487694787,0.840088,-0.32312,0.341309,-0.270752
71487717239,0.840027,-0.323059,0.341431,-0.270813
71487739753,0.840088,-0.322998,0.341492,-0.270752
71487754749,0.840088,-0.322998,0.341492,-0.270691
71487783989,0.840088,-0.322998,0.341492,-0.270691
71487799749,0.840088,-0.322998,0.341553,-0.270691
71487814749,0.840088,-0.322998,0.341553,-0.270691
71487837245,0.840088,-0.322998,0.341553,-0.270691
71487859713,0.840088,-0.322998,0.341553,-0.270691
71487874785,0.840088,-0.322998,0.341553,-0.27063
71487897248,0.840088,-0.322998,0.341553,-0.27063
71487919734,0.840088,-0.322937,0.341553,-0.27063
71487934743,0.840088,-0.322693,0.341858,-0.27063
71487957222,0.840088,-0.322693,0.341919,-0.27063
71487979757,0.839966,-0.32251,0.342163,-0.270691
71487994766,0.839966,-0.32251,0.342407,-0.27063
71488017265,0.839966,-0.322449,0.342468,-0.270569
71488039857,0.839905,-0.322388,0.342651,-0.270569
71488060835,0.839905,-0.322327,0.342896,-0.270325
71488077329,0.839905,-0.322327,0.342896,-0.270325
71488099834,0.839905,-0.322327,0.342896,-0.270325
71488122303,0.839905,-0.322327,0.342896,-0.270325
71488145506,0.839844,-0.322449,0.343018,-0.270081
71488159833,0.839905,-0.322449,0.343018,-0.270081
71488182331,0.839905,-0.322449,0.343018,-0.270081
71488205437,0.839905,-0.322449,0.343018,-0.27002
71488219832,0.839905,-0.322388,0.343079,-0.27002
71488242256,0.839905,-0.322388,0.343079,-0.27002
71488265487,0.839905,-0.322388,0.343079,-0.269958
71488279856,0.839905,-0.322388,0.34314,-0.269958
71488302316,0.839905,-0.322327,0.34314,-0.269958
71488325461,0.839905,-0.322327,0.34314,-0.269958
71488339076,0.839905,-0.322327,0.34314,-0.269897
71488353376,0.839905,-0.322327,0.34314,-0.269897
71488376573,0.840027,-0.322449,0.34314,-0.26947
71488399073,0.839966,-0.322754,0.34314,-0.269165
71488413430,0.840027,-0.323059,0.343018,-0.26886
71488436562,0.840027,-0.323425,0.342896,-0.268555
71488459111,0.840149,-0.323669,0.342896,-0.267944
71488473455,0.840149,-0.324158,0.342712,-0.267456
71488496529,0.840271,-0.324707,0.342346,-0.266907
71488519074,0.840332,-0.325317,0.341919,-0.266602
71488533375,0.840393,-0.325745,0.341553,-0.266235
71488556582,0.840454,-0.326111,0.341431,-0.265869
71488579041,0.840637,-0.326416,0.341248,-0.265198
71488593358,0.840698,-0.326843,0.341125,-0.264526
71488616572,0.84082,-0.327087,0.341003,-0.263977
71488638997,0.840942,-0.327393,0.340881,-0.263489
71488653431,0.841003,-0.327698,0.340881,-0.262878
71488676555,0.841064,-0.328064,0.340881,-0.262207
71488699034,0.841125,-0.328674,0.340759,-0.261353
71488713446,0.841064,-0.329224,0.340881,-0.260742
71488736619,0.840942,-0.329773,0.341003,-0.260193
71488759075,0.84082,-0.3302,0.341248,-0.259888
71488773446,0.840698,-0.330566,0.341614,-0.259338
71488796467,0.840515,-0.330872,0.342041,-0.258972
71488819066,0.840271,-0.331238,0.342346,-0.258789
71488833366,0.839966,-0.331421,0.342773,-0.258911
71488856515,0.840027,-0.331543,0.343079,-0.258301
71488879103,0.839905,-0.331543,0.343506,-0.258057
71488893437,0.839783,-0.331482,0.343933,-0.257935
71488916570,0.839844,-0.331421,0.344299,-0.257385
71488939000,0.839844,-0.33136,0.344727,-0.256958
71488953382,0.839783,-0.331238,0.345093,-0.256775
71488976586,0.839783,-0.331421,0.345276,-0.256165
71488999116,0.839783,-0.331787,0.345337,-0.255737
71489013407,0.839722,-0.332153,0.345398,-0.255371
71489036564,0.839539,-0.332336,0.345703,-0.25531
71489060517,0.839539,-0.332336,0.345703,-0.255249
71489073424,0.8396,-0.332458,0.345825,-0.254883
71489096559,0.839661,-0.332581,0.345703,-0.254456
71489119010,0.839661,-0.332581,0.345703,-0.254456
71489133458,0.839661,-0.332581,0.345703,-0.254456
71489156510,0.839661,-0.332581,0.345764,-0.254456
71489179101,0.839722,-0.332581,0.345764,-0.254395
71489193367,0.839722,-0.33252,0.345764,-0.254395
71489216599,0.839722,-0.33252,0.345764,-0.254333
71489239025,0.839722,-0.33252,0.345764,-0.254272
71489253391,0.8396,-0.332825,0.346008,-0.254089
71489276539,0.839417,-0.33313,0.346313,-0.253906
71489298985,0.839294,-0.333557,0.346436,-0.25354
71489313383,0.839172,-0.333923,0.34668,-0.253113
71489335924,0.839172,-0.334229,0.346802,-0.252625
71489358446,0.839111,-0.334656,0.346985,-0.252075
71489373428,0.83905,-0.334961,0.347046,-0.251648
71489395871,0.839111,-0.33551,0.346985,-0.250793
71489418405,0.839233,-0.336243,0.346802,-0.249756
71489433390,0.839417,-0.337097,0.346619,-0.248047
71489455940,0.8396,-0.338074,0.346619,-0.246155
71489478431,0.839844,-0.339233,0.346497,-0.243774
71489493418,0.839966,-0.340576,0.346313,-0.241821
71489515845,0.840149,-0.34198,0.345947,-0.239807
71489538372,0.840393,-0.343262,0.345703,-0.237488
71489553371,0.840637,-0.344666,0.345459,-0.234863
71489575943,0.84082,-0.346313,0.345276,-0.231873
71489599096,0.841187,-0.348267,0.344543,-0.228821
71489621605,0.841614,-0.350159,0.343689,-0.225708
71489635924,0.842285,-0.351685,0.342651,-0.222412
71489659144,0.843201,-0.353027,0.341492,-0.218445
71489681600,0.844116,-0.354187,0.340454,-0.2146
71489695924,0.844971,-0.355042,0.339355,-0.211487
71489719043,0.845764,-0.355713,0.338196,-0.209167
71489741588,0.84668,-0.356384,0.336975,-0.206238
71489755886,0.847656,-0.357849,0.335449,-0.202271
71489779052,0.848572,-0.35968,0.333679,-0.197998
71489801570,0.849426,-0.361755,0.331848,-0.193298
71489815920,0.85022,-0.363831,0.330505,-0.188293
71489839015,0.850586,-0.365662,0.330139,-0.183655
71489861564,0.850952,-0.367371,0.330017,-0.178711
71489875917,0.851379,-0.369019,0.3302,-0.172791
71489899091,0.851929,-0.370361,0.330933,-0.165894
71489921510,0.853333,-0.370972,0.331299,-0.156311
71489935954,0.854797,-0.371521,0.331299,-0.146729
71489959796,0.855957,-0.371338,0.332397,-0.137512
71489981633,0.8573,-0.370239,0.333862,-0.128296
71489995990,0.857971,-0.366699,0.337708,-0.123657
71490019057,0.85791,-0.363525,0.342651,-0.119934
71490042189,0.857117,-0.361511,0.348694,-0.114075
71490055907,0.856262,-0.361145,0.354126,-0.10437
71490078858,0.856079,-0.360657,0.358704,-0.0911865
71490101588,0.856384,-0.359131,0.362915,-0.0765991
71490124060,0.856323,-0.356995,0.367615,-0.0639648
71490139060,0.855835,-0.354919,0.372192,-0.0552368
71490161560,0.854858,-0.352722,0.377319,-0.0487061
71490175948,0.85321,-0.35083,0.383423,-0.0428467
71490199108,0.851257,-0.348206,0.390808,-0.0366211
71490221540,0.849426,-0.345337,0.397949,-0.0292969
71490235943,0.847778,-0.34198,0.404602,-0.0235596
71490259087,0.845459,-0.338196,0.41272,-0.0209961
71490281512,0.842896,-0.334961,0.420471,-0.0205688
71490295890,0.840576,-0.332764,0.42688,-0.0195312
71490319092,0.838379,-0.331116,0.432556,-0.0169067
71490341573,0.836182,-0.329895,0.437927,-0.0131226
71490357417,0.833862,-0.329346,0.44281,-0.00793457
71490378395,0.832092,-0.328918,0.446533,-0.00183105
71490401609,0.830444,-0.326904,0.450989,0.00396729
71490415878,0.82843,-0.322937,0.457458,0.00830078
71490438441,0.82605,-0.317993,0.465027,0.0127563
71490477945,0.822998,-0.313049,0.473694,0.0161133
71490480396,0.819763,-0.308533,0.482056,0.0197754
71490498454,0.816406,-0.304382,0.490112,0.0240479
71490521523,0.812927,-0.300171,0.49823,0.0280762
71490544125,0.809326,-0.295532,0.506531,0.0320435
71490558405,0.805481,-0.289185,0.515869,0.0372925
71490580986,0.801331,-0.28241,0.525513,0.0430908
71490604082,0.797363,-0.275574,0.534851,0.0462036
71490618441,0.793518,-0.268982,0.543945,0.0455322
71490640946,0.788452,-0.26178,0.554932,0.0421753
71490655912,0.782898,-0.255798,0.565674,0.0402832
71490678411,0.777588,-0.252563,0.57428,0.041626
71490700875,0.773499,-0.251465,0.580078,0.0440063
71490725542,0.770569,-0.25238,0.583435,0.0457153
71490746571,0.766724,-0.253662,0.587952,0.0452271
71490760932,0.76239,-0.254211,0.593384,0.0441284
71490798904,0.756958,-0.254822,0.600098,0.0437012
71490809546,0.752869,-0.258179,0.603699,0.0445557
71490820912,0.749023,-0.262512,0.606384,0.0472412
71490838836,0.74469,-0.26709,0.609741,0.0472412
71490858443,0.739868,-0.267944,0.615295,0.046814
71490883816,0.734497,-0.268677,0.621338,0.046936
71490898025,0.730835,-0.268188,0.625854,0.0465698
71490918437,0.727234,-0.267212,0.630371,0.0476074
71490940980,0.723572,-0.266296,0.634949,0.0482788
71490957378,0.719543,-0.264404,0.64032,0.0475464
71490978392,0.71521,-0.261108,0.646545,0.046936
71491000940,0.711609,-0.258667,0.651428,0.0475464
71491018010,0.707947,-0.257385,0.655945,0.0475464
71491038436,0.705505,-0.255127,0.659485,0.0472412
71491060961,0.703552,-0.253235,0.66217,0.0480957
71491077344,0.701965,-0.251709,0.66449,0.0482788
71491098505,0.700317,-0.248413,0.667358,0.0485229
71491120956,0.698181,-0.246277,0.670471,0.0482788
71491137380,0.697083,-0.244507,0.672302,0.0477295
71491158419,0.695251,-0.243103,0.674561,0.048645
71491180910,0.691956,-0.242493,0.678162,0.0493774
71491197357,0.688721,-0.238892,0.682739,0.0491333
71491218352,0.685486,-0.235718,0.687073,0.0492554
71491240952,0.682312,-0.233398,0.690979,0.0494385
71491257348,0.679504,-0.231201,0.694397,0.0499268
71491278446,0.676697,-0.228271,0.69812,0.0499878
71491294820,0.674133,-0.22522,0.70166,0.0493774
71491317361,0.671448,-0.221497,0.705444,0.0489502
71491338352,0.668945,-0.217957,0.708862,0.0494385
71491360843,0.66748,-0.214539,0.711182,0.0509644
71491377312,0.666687,-0.212097,0.712646,0.0510864
71491398368,0.666016,-0.209595,0.713989,0.0505981
71491414817,0.665283,-0.209229,0.714783,0.0509033
71491446286,0.664429,-0.208862,0.715637,0.052002
71491469411,0.66333,-0.208557,0.716614,0.0540161
71491474885,0.662292,-0.20874,0.717407,0.0549316
71491497376,0.662048,-0.209351,0.717407,0.0559082
71491518463,0.661316,-0.210327,0.717712,0.0570679
71491534915,0.661011,-0.209778,0.718079,0.0581055
71491558841,0.660522,-0.208984,0.718689,0.0592041
71491580548,0.660217,-0.206726,0.719482,0.0603027
71491594866,0.660095,-0.203613,0.720398,0.0609741
71491617376,0.659668,-0.20105,0.721436,0.0616455
71491646524,0.65863,-0.198425,0.723083,0.0622559
71491654819,0.656799,-0.195984,0.725342,0.0632324
71491677321,0.655884,-0.194214,0.726562,0.064209
71491699802,0.655762,-0.1922,0.727173,0.0648804
71491714807,0.655212,-0.189697,0.72821,0.0657959
71491737405,0.652161,-0.184021,0.732361,0.0662842
71491759883,0.648682,-0.177979,0.736816,0.0675659
71491776304,0.646301,-0.17395,0.739746,0.0691528
71491797389,0.643433,-0.169495,0.743225,0.069519
71491819888,0.642029,-0.163635,0.745667,0.0698242
71491836388,0.64093,-0.158325,0.74762,0.0714111
71491857409,0.641052,-0.153992,0.74823,0.0737305
71491879865,0.64093,-0.151428,0.748596,0.0765991
71491901531,0.640808,-0.149902,0.748718,0.0792236
71491916537,0.64093,-0.148743,0.748596,0.081543
71491939031,0.641602,-0.147705,0.747925,0.0838013
71491963083,0.64325,-0.14679,0.74646,0.0861816
71491976634,0.64502,-0.145874,0.744812,0.0883179
71491999173,0.646301,-0.145203,0.743591,0.0905151
71492015541,0.646606,-0.144836,0.743103,0.0930786
71492036564,0.6474,-0.144775,0.742188,0.0950928
71492066675,0.648865,-0.145752,0.740417,0.097168
71492081623,0.650574,-0.14801,0.738098,0.0997925
71492096652,0.652222,-0.150757,0.73584,0.101746
71492119115,0.653748,-0.153076,0.733704,0.103699
71492143007,0.654846,-0.156738,0.731567,0.106628
71492156596,0.655273,-0.161133,0.729675,0.110229
71492179045,0.65564,-0.165405,0.727905,0.113586
71492201523,0.65564,-0.168945,0.726562,0.116516
71492216556,0.655884,-0.17157,0.725342,0.118958
71492239044,0.65625,-0.172852,0.724487,0.120667
71492261535,0.656799,-0.173401,0.723633,0.121826
71492276674,0.657043,-0.174194,0.723022,0.123047
71492299063,0.657227,-0.175171,0.722412,0.124268
71492315486,0.65741,-0.176147,0.721802,0.125183
71492336649,0.657471,-0.176819,0.721497,0.125549
71492359089,0.657593,-0.177002,0.721313,0.125977
71492375616,0.658142,-0.177063,0.720825,0.126038
71492396674,0.658691,-0.17688,0.720398,0.125671
71492419118,0.659302,-0.176575,0.720032,0.125
71492435521,0.659973,-0.176453,0.719543,0.12439
71492458035,0.660522,-0.176697,0.719116,0.123779
71492479088,0.660828,-0.176514,0.719055,0.122498
71492495490,0.661499,-0.176025,0.71875,0.121338
71492516533,0.662109,-0.175598,0.718384,0.120789
71492539052,0.66272,-0.17572,0.717896,0.120544
71492555470,0.663452,-0.175598,0.717224,0.120422
71492584050,0.664124,-0.175537,0.716675,0.119934
71492599075,0.664734,-0.175049,0.716492,0.11853
71492614835,0.664978,-0.174316,0.716675,0.117004
71492638086,0.665161,-0.174072,0.716797,0.115845
71492659121,0.665344,-0.174072,0.716736,0.115295
71492674866,0.665405,-0.174377,0.716553,0.115417
71492698057,0.665161,-0.17511,0.716614,0.115356
71492719183,0.6651,-0.175354,0.716675,0.114624
71492734892,0.665039,-0.175476,0.716858,0.113953
71492758078,0.664734,-0.176025,0.717041,0.113586
71492779105,0.66449,-0.176208,0.717285,0.11322
71492794824,0.664246,-0.176025,0.717651,0.112915
71492817975,0.663757,-0.175781,0.718201,0.11261
71492839067,0.663269,-0.175476,0.71875,0.112305
71492854865,0.66272,-0.175232,0.71936,0.112
71492878013,0.662109,-0.174683,0.720093,0.111633
71492899033,0.66156,-0.174133,0.720764,0.111511
71492914837,0.661072,-0.17395,0.721191,0.111694
71492938476,0.660706,-0.17395,0.721558,0.111877
71492959189,0.660217,-0.174011,0.721985,0.111694
71492975330,0.65979,-0.173889,0.722473,0.111145
71492998010,0.659363,-0.173584,0.723022,0.110413
71493019194,0.659058,-0.173157,0.723572,0.109741
71493034952,0.658813,-0.172607,0.723999,0.109131
71493058108,0.658752,-0.172058,0.724304,0.108459
71493079143,0.65863,-0.171753,0.724548,0.107788
71493094888,0.658508,-0.171814,0.724792,0.106995
71493118003,0.658203,-0.171753,0.725159,0.10614
71493139116,0.657959,-0.171265,0.725647,0.105347
71493154872,0.657959,-0.170715,0.725891,0.104675
71493178492,0.65802,-0.169922,0.726135,0.104126
71493199058,0.657898,-0.169495,0.726379,0.103638
71493214842,0.657776,-0.16925,0.726624,0.102844
71493238029,0.657715,-0.169067,0.726868,0.102051
71493259022,0.657532,-0.169373,0.727051,0.101501
71493275004,0.657227,-0.169617,0.727295,0.101196
71493298069,0.657166,-0.169617,0.727417,0.100952
71493319155,0.657166,-0.169556,0.727417,0.100647
71493334886,0.656982,-0.169678,0.727661,0.100037
71493358024,0.656494,-0.169861,0.728088,0.0996094
71493379122,0.655884,-0.170288,0.728638,0.0994873
71493394924,0.655273,-0.170593,0.729004,0.0997314
71493418017,0.654663,-0.171021,0.729492,0.0998535
71493439129,0.654175,-0.171021,0.729919,0.0997925
71493454838,0.653625,-0.170898,0.730469,0.0996094
71493477991,0.653198,-0.170532,0.731018,0.0991821
71493499045,0.652771,-0.170166,0.731506,0.0991211
71493514815,0.652039,-0.170288,0.732056,0.0993042
71493537378,0.651245,-0.170288,0.732727,0.0993042
71493559182,0.650513,-0.1698,0.733582,0.0991211
71493574916,0.649963,-0.169006,0.734253,0.098938
71493597385,0.649353,-0.168579,0.734863,0.098999
71493620608,0.648438,-0.168518,0.735718,0.098877
71493643090,0.647461,-0.168274,0.736633,0.0986938
71493657427,0.646179,-0.168152,0.737793,0.098877
71493680633,0.644592,-0.167908,0.739197,0.0991211
71493694954,0.643433,-0.167236,0.740356,0.0992432
71493717387,0.64209,-0.166626,0.741577,0.0994873
71493741053,0.640381,-0.166382,0.743103,0.0996704
71493754850,0.638611,-0.166077,0.74469,0.0999146
71493777441,0.636658,-0.165588,0.746399,0.100037
71493808014,0.634338,-0.164673,0.748657,0.0995483
71493814857,0.632568,-0.163025,0.75061,0.0991211
71493837355,0.630737,-0.162781,0.752075,0.0999756
71493860514,0.628479,-0.163513,0.753601,0.101135
71493883047,0.626465,-0.16394,0.755127,0.101685
71493897387,0.624634,-0.164001,0.756592,0.102051
71493920614,0.622986,-0.164124,0.757874,0.102356
71493934919,0.621521,-0.164185,0.759033,0.102356
71493957431,0.620422,-0.164185,0.76001,0.10199
71493980546,0.61969,-0.164124,0.760742,0.10144
71493994937,0.618958,-0.164124,0.761414,0.100952
71494017481,0.618469,-0.164062,0.761841,0.100403
71494040571,0.618225,-0.164062,0.762146,0.0996094
71494054975,0.617859,-0.16394,0.762634,0.0986938
71494077492,0.617615,-0.163574,0.763,0.0979004
71494100612,0.617432,-0.163513,0.763184,0.0975952
71494121571,0.617249,-0.163635,0.763367,0.0973511
71494144102,0.616699,-0.163757,0.763794,0.0969849
71494160536,0.616089,-0.163269,0.764465,0.0963135
71494181583,0.615845,-0.163208,0.764709,0.0958252
71494213042,0.615417,-0.163635,0.765015,0.095459
71494220583,0.615234,-0.164062,0.765198,0.0946655
71494241716,0.615234,-0.164307,0.765259,0.0939331
71494257442,0.615234,-0.164734,0.765198,0.0933838
71494280572,0.615051,-0.165344,0.76532,0.0927734
71494303057,0.615051,-0.165649,0.76532,0.0921021
71494325638,0.615234,-0.166077,0.765198,0.0911865
71494340609,0.615295,-0.166687,0.765076,0.0906372
71494361640,0.615234,-0.167175,0.765015,0.0903931
71494377445,0.614868,-0.167542,0.76532,0.0899658
71494400543,0.614319,-0.167725,0.765747,0.0895386
71494421619,0.613708,-0.168213,0.766174,0.0891113
71494437401,0.612854,-0.168518,0.766846,0.088562
71494459922,0.612488,-0.168396,0.767334,0.0874634
71494481593,0.612305,-0.168274,0.767517,0.0870972
71494497465,0.611694,-0.16925,0.767822,0.0869141
71494519961,0.611023,-0.169739,0.768311,0.0859985
71494541680,0.610535,-0.17041,0.768799,0.0839844
71494557461,0.610718,-0.169983,0.768921,0.0820923
71494579916,0.611145,-0.169983,0.768738,0.0809937
71494603049,0.611328,-0.170166,0.768677,0.0800781
71494617394,0.611816,-0.169861,0.768433,0.0792236
71494639953,0.612183,-0.169983,0.768188,0.078186
71494663034,0.612427,-0.170471,0.768005,0.0770264
71494677379,0.61261,-0.171021,0.767944,0.0754395
71494699857,0.613098,-0.171631,0.767578,0.0739136
71494730599,0.613403,-0.172424,0.767334,0.0720825
71494737418,0.613342,-0.172119,0.767578,0.0705566
71494759986,0.612976,-0.173157,0.7677,0.0697632
71494783131,0.612488,-0.174438,0.767883,0.0686035
71494797411,0.612366,-0.175537,0.767883,0.0673828
71494819969,0.611938,-0.17688,0.768005,0.06604
71494843069,0.611694,-0.177917,0.768066,0.0646362
71494857458,0.611328,-0.180176,0.767883,0.0640259
71494879912,0.610962,-0.182129,0.767822,0.0629883
71494903076,0.611206,-0.183228,0.767456,0.0620117
71494917392,0.61145,-0.183899,0.767151,0.0609741
71494939869,0.611511,-0.183716,0.767273,0.0596924
71494963078,0.611206,-0.183472,0.767639,0.0584106
71494977429,0.610779,-0.183899,0.767944,0.057373
71495000406,0.610291,-0.184448,0.76825,0.0567017
71495022907,0.610413,-0.185181,0.768005,0.0559692
71495037492,0.610718,-0.186035,0.767639,0.0550537
71495059985,0.611084,-0.186829,0.767273,0.053833
71495083139,0.611572,-0.187988,0.766663,0.0529175
71495104093,0.612122,-0.18927,0.765991,0.0516968
71495119906,0.613281,-0.189453,0.765137,0.0499878
71495143015,0.614197,-0.189087,0.764587,0.0480347
71495164043,0.614929,-0.187683,0.764526,0.0460815
71495179924,0.615601,-0.187073,0.76416,0.0446167
71495203552,0.616516,-0.187561,0.763428,0.043457
71495224219,0.61731,-0.188171,0.762695,0.041748
71495239957,0.617737,-0.187927,0.762512,0.0389404
71495263117,0.619324,-0.186096,0.761902,0.0355835
71495284180,0.618774,-0.182129,0.763428,0.0335083
71495299999,0.608887,-0.165649,0.775146,0.0290527
71495323117,0.606567,-0.154236,0.779541,0.0236816
71495344159,0.605896,-0.148926,0.781189,0.0205688
71495359907,0.605408,-0.147827,0.781799,0.0189819
71495383120,0.605713,-0.148865,0.781372,0.0180664
71495404107,0.606506,-0.15094,0.780396,0.0170288
71495419859,0.606934,-0.152405,0.779846,0.0152588
71495442485,0.608459,-0.152344,0.778625,0.0131836
71495456032,0.611877,-0.152954,0.77594,0.0108643
71495479188,0.615295,-0.154053,0.77301,0.00933838
71495493486,0.61853,-0.155151,0.770203,0.00836182
71495516048,0.61969,-0.156189,0.769043,0.00817871
71495539095,0.624878,-0.157715,0.764526,0.00762939
71495554969,0.629944,-0.162415,0.759338,0.00799561
71495575992,0.635132,-0.169189,0.75354,0.00952148
71495599285,0.640869,-0.176819,0.746826,0.012146
71495613529,0.646118,-0.184998,0.740234,0.0153198
71495636034,0.650452,-0.192505,0.734497,0.0174561
71495659214,0.65564,-0.198486,0.728271,0.0188599
71495673508,0.661133,-0.203979,0.72168,0.0198975
71495696044,0.666504,-0.208008,0.715515,0.0205078
71495719210,0.671692,-0.211365,0.709717,0.0205078
71495733513,0.676331,-0.215637,0.703979,0.0206909
71495756038,0.681335,-0.220032,0.697754,0.0203857
71495779201,0.687012,-0.223999,0.690857,0.0211182
71495793486,0.692627,-0.228577,0.683655,0.0228882
71495816032,0.69873,-0.233459,0.675659,0.0256348
71495839189,0.705261,-0.238586,0.666992,0.0274048
71495853561,0.712463,-0.241577,0.658142,0.0283203
71495876046,0.719666,-0.245178,0.648865,0.0300903
71495899213,0.726562,-0.248962,0.639587,0.0317993
71495913506,0.733582,-0.251892,0.630371,0.0314331
71495936015,0.740479,-0.253174,0.621826,0.0291748
71495959216,0.74707,-0.254028,0.613586,0.0272827
71495973509,0.753479,-0.254578,0.605591,0.0264282
71495996092,0.759705,-0.2547,0.597595,0.0283813
71496019215,0.765503,-0.254639,0.589905,0.0333862
71496033596,0.769592,-0.253479,0.584717,0.038147
71496056040,0.773376,-0.250427,0.580811,0.0421753
71496079192,0.782898,-0.252625,0.566711,0.0452881
71496093569,0.795593,-0.259644,0.545227,0.0476074
71496116016,0.808533,-0.264404,0.523743,0.0447998
71496139213,0.820251,-0.266418,0.504517,0.039917
71496153593,0.830383,-0.267883,0.487122,0.0370483
71496176051,0.83606,-0.26532,0.479309,0.0289307
71496199260,0.838135,-0.261414,0.477966,0.0266113
71496213548,0.837769,-0.253845,0.482727,0.0238647
71496237441,0.835388,-0.246948,0.490112,0.0291748
71496259239,0.828247,-0.241394,0.504517,0.0338745
71496273561,0.819458,-0.233643,0.522156,0.0344849
71496295955,0.807007,-0.224365,0.545105,0.0341187
71496319193,0.791199,-0.212952,0.572266,0.0333252
71496333510,0.771851,-0.199585,0.6026,0.034729
71496356046,0.749756,-0.184509,0.634216,0.0394897
71496379186,0.724121,-0.170288,0.666443,0.0491333
71496393562,0.695312,-0.155762,0.699036,0.0596313
71496416033,0.664185,-0.13916,0.731201,0.0687256
71496439200,0.631348,-0.122009,0.761658,0.0789795
71496453475,0.597534,-0.104614,0.789978,0.0886841
71496475962,0.561829,-0.0864868,0.817017,0.0962524
71496498467,0.524719,-0.0657959,0.842529,0.101929
71496513462,0.486145,-0.0475464,0.865906,0.107056
71496536017,0.447876,-0.0300293,0.886597,0.111145
71496558665,0.411377,-0.0176392,0.903809,0.116455
71496573627,0.378113,-0.0130005,0.917358,0.123352
71496596042,0.34729,-0.0150757,0.928101,0.132996
71496618534,0.332031,-0.0245972,0.93219,0.141724
71496633579,0.333679,-0.0339966,0.930969,0.143799
71496656010,0.346558,-0.0387573,0.926758,0.139221
71496678574,0.367676,-0.0435791,0.9198,0.129639
71496693515,0.389404,-0.043396,0.912781,0.115295
71496715962,0.404724,-0.0237427,0.909363,0.0927734
71496738483,0.415161,-0.0100098,0.906006,0.0811157
71496753473,0.43689,-0.00805664,0.89679,0.0688477
71496776025,0.457825,-0.0185547,0.886841,0.0587158
71496798591,0.474792,-0.0393677,0.877747,0.0501709
71496813590,0.490173,-0.0440063,0.869812,0.0344849
71496836085,0.499817,-0.0480347,0.864441,0.0229492
71496858559,0.512512,-0.0494385,0.857056,0.0174561
71496873510,0.524353,-0.0582275,0.849365,0.0141602
71496896035,0.533936,-0.0671997,0.842773,0.00994873
71496918572,0.542786,-0.0704346,0.836853,0.003479
71496933599,0.54895,-0.0752563,0.832397,0.00012207
71496956062,0.554626,-0.0865479,0.827515,0.000915527
71496978601,0.561646,-0.0952759,0.821838,0.00146484
71496993502,0.569153,-0.102112,0.815796,0.00146484
71497016041,0.577209,-0.107178,0.809509,0.000549316
71497038517,0.585205,-0.112732,0.802917,6.10352e-05
71497053557,0.592712,-0.119385,0.796448,0.00012207
71497076022,0.599792,-0.127625,0.789856,0.00152588
71497098455,0.607056,-0.137024,0.782715,0.00354004
71497113464,0.614746,-0.146729,0.774841,0.00537109
71497135960,0.622864,-0.156189,0.766479,0.00762939
71497167428,0.630798,-0.167175,0.757568,0.0106201
71497173580,0.638428,-0.177429,0.748779,0.0109863
71497196059,0.647644,-0.185791,0.738831,0.00927734
71497218549,0.658325,-0.192444,0.7276,0.00567627
71497233585,0.6698,-0.197998,0.715576,0.000183105
71497255998,0.681702,-0.203125,0.70282,-0.00427246
71497278483,0.694153,-0.209351,0.68866,-0.00604248
71497293567,0.706787,-0.218079,0.672913,-0.00518799
71497316051,0.719788,-0.225586,0.656494,-0.00494385
71497338504,0.733459,-0.231323,0.639038,-0.00585938
71497354887,0.747009,-0.237122,0.621033,-0.00561523
71497375950,0.760498,-0.244812,0.601379,-0.00231934
71497398494,0.777161,-0.256287,0.574707,0.00244141
71497414942,0.791443,-0.262634,0.55188,-0.00366211
71497436040,0.8078,-0.260132,0.528381,-0.0231323
71497466692,0.823975,-0.260132,0.502014,-0.0357056
71497475022,0.835571,-0.257446,0.482727,-0.0500488
71497496029,0.843994,-0.249207,0.471191,-0.059021
71497518559,0.846191,-0.244385,0.470337,-0.053894
71497535024,0.846619,-0.236328,0.474792,-0.0431519
71497556085,0.841492,-0.231201,0.487366,-0.0281372
71497578538,0.832581,-0.225464,0.505615,-0.0148926
71497594967,0.818909,-0.219116,0.530396,-0.00128174
71497615994,0.800842,-0.209473,0.560913,0.00726318
71497638518,0.778748,-0.196167,0.595642,0.0147095
71497654918,0.753479,-0.18042,0.631714,0.024231
71497676090,0.724426,-0.164978,0.668152,0.038147
71497698542,0.692261,-0.148926,0.703979,0.0542603
71497715015,0.657593,-0.131958,0.738403,0.0700073
71497736012,0.620789,-0.113892,0.771057,0.0842285
71497758534,0.583069,-0.0925903,0.801392,0.0958252
71497775023,0.54303,-0.069397,0.8302,0.104431
71497796099,0.50238,-0.0437622,0.856689,0.10791
71497818608,0.463318,-0.0186768,0.879395,0.107544
71497835028,0.426514,0.0010376,0.898071,0.107117
71497856051,0.390137,0.0124512,0.913757,0.112305
71497878660,0.362549,0.00738525,0.923706,0.12323
71497895055,0.352844,-0.0133667,0.925598,0.135986
71497918927,0.359863,-0.0341187,0.921692,0.140564
71497938533,0.378113,-0.0435791,0.914795,0.134827
71497954957,0.403076,-0.017395,0.907959,0.112854
71497976025,0.426086,-0.00714111,0.899658,0.0941162
71497998516,0.460754,-0.0065918,0.884155,0.0762329
71498014971,0.488708,-0.0184937,0.869995,0.0618286
71498036014,0.513977,-0.0285034,0.85614,0.0435181
71498058553,0.532837,-0.032959,0.844971,0.0300903
71498074914,0.55011,-0.0421143,0.833679,0.0234375
71498096124,0.565857,-0.0518188,0.822571,0.0203857
71498118496,0.579773,-0.0592651,0.812378,0.017395
71498135031,0.591003,-0.0645752,0.803955,0.0118408
71498156066,0.600464,-0.0682373,0.796631,0.00531006
71498178543,0.608948,-0.0753174,0.789551,0.00262451
71498195037,0.617188,-0.0886841,0.781738,0.0045166
71498216035,0.625305,-0.103027,0.773499,0.00695801
71498238535,0.632568,-0.113708,0.765991,0.00756836
71498255040,0.63855,-0.12262,0.759705,0.00708008
71498277547,0.644165,-0.131348,0.753479,0.00653076
71498298520,0.650024,-0.138916,0.74707,0.00640869
71498315064,0.65686,-0.14502,0.739868,0.0065918
71498345030,0.664978,-0.149963,0.731567,0.00695801
71498360682,0.673279,-0.154968,0.722839,0.00720215
71498374976,0.681335,-0.161072,0.713928,0.00665283
71498399394,0.689148,-0.166931,0.705078,0.00622559
71498418511,0.697327,-0.173279,0.695435,0.00732422
71498434912,0.705688,-0.17981,0.685181,0.00891113
71498457493,0.714844,-0.185425,0.674133,0.0106812
71498478568,0.725708,-0.189331,0.661255,0.0123291
71498494954,0.738037,-0.192749,0.646484,0.0102539
71498517502,0.751282,-0.194946,0.630493,0.0057373
71498538502,0.764893,-0.197449,0.613098,0.000732422
71498554989,0.778259,-0.201599,0.594604,-0.00140381
71498577468,0.793274,-0.209473,0.571655,0.00311279
71498598637,0.809509,-0.221252,0.543274,0.0220947
71498614978,0.825867,-0.236145,0.51062,0.036499
71498637542,0.842102,-0.239563,0.481934,0.0332642
71498658566,0.858459,-0.238708,0.45343,0.0209961
71498675075,0.869202,-0.229797,0.437683,-0.000244141
71498697547,0.872192,-0.219238,0.436951,-0.0144043
71498718471,0.872131,-0.209106,0.441772,-0.0200195
71498735056,0.869019,-0.196838,0.45343,-0.0188599
71498757463,0.860474,-0.19458,0.470703,-0.00836182
71498778515,0.848083,-0.188538,0.495117,-0.00396729
71498802564,0.829895,-0.180969,0.52771,0.00128174
71498819027,0.805542,-0.172607,0.56665,0.0090332
71498838561,0.776245,-0.16217,0.608948,0.0172729
71498855061,0.744324,-0.150452,0.650085,0.0256958
71498877599,0.709656,-0.139893,0.689514,0.0369263
71498898654,0.672363,-0.129395,0.727051,0.0502319
71498915018,0.63269,-0.11969,0.76239,0.0635376
71498937524,0.592102,-0.107117,0.794983,0.0767212
71498958537,0.550171,-0.0962524,0.824402,0.0914917
71498974942,0.507568,-0.0848999,0.851013,0.104187
71498996654,0.465881,-0.0704956,0.874573,0.11377
71499019205,0.426819,-0.0564575,0.894226,0.121887
71499034132,0.389038,-0.0415039,0.911255,0.128418
71499056721,0.359497,-0.0292969,0.92334,0.131287
71499079183,0.343201,-0.024353,0.929626,0.13147
71499094200,0.344299,-0.0299683,0.929199,0.130737
71499116735,0.358398,-0.0365601,0.924194,0.126221
71499139337,0.384338,-0.0390625,0.914856,0.116943
71499154229,0.406067,-0.0263672,0.908142,0.0983887
71499176697,0.415222,-0.0230713,0.90509,0.0883179
71499199317,0.446411,-0.0234375,0.89093,0.0795288
71499214261,0.475769,-0.0217896,0.877441,0.0562134
71499236784,0.499329,-0.0343018,0.864624,0.0422363
71499259283,0.516174,-0.0406494,0.854858,0.0317383
71499274287,0.531433,-0.0494995,0.845215,0.0258179
71499296748,0.542236,-0.0560913,0.838013,0.022583
71499319211,0.550659,-0.0651245,0.831787,0.022522
71499334221,0.558838,-0.0704956,0.825989,0.0204468
71499356717,0.565857,-0.0748901,0.820862,0.0164795
71499379302,0.572632,-0.0794678,0.815796,0.0134888
71499394272,0.576111,-0.0869751,0.812561,0.0137939
71499416828,0.579346,-0.0949707,0.809326,0.0145264
71499439218,0.583984,-0.101746,0.805176,0.0150757
71499455739,0.590027,-0.108337,0.799927,0.0150757
71499476826,0.59729,-0.115173,0.793518,0.0146484
71499499237,0.606201,-0.123291,0.785522,0.0140991
71499514244,0.616089,-0.131592,0.776428,0.0125122
71499536810,0.627319,-0.139282,0.766052,0.0109253
71499559336,0.639526,-0.147156,0.754456,0.0105591
71499574282,0.6521,-0.15686,0.741577,0.0111694
71499596806,0.664001,-0.166443,0.728821,0.0110474
71499619163,0.675354,-0.174744,0.71637,0.0106201
71499634268,0.685913,-0.181519,0.70459,0.00958252
71499656780,0.695984,-0.187622,0.692993,0.00836182
71499679236,0.706177,-0.193115,0.681091,0.00756836
71499694270,0.716675,-0.19751,0.668762,0.00671387
71499716822,0.728149,-0.201233,0.65509,0.00384521
71499739216,0.740051,-0.204468,0.640625,0.00012207
71499755757,0.752319,-0.208374,0.624939,-0.00189209
71499776715,0.764526,-0.213501,0.608154,-0.000793457
71499799237,0.776428,-0.218994,0.59082,0.00457764
71499814224,0.790527,-0.22522,0.569275,0.0136719
71499836758,0.804565,-0.237732,0.543518,0.0267334
71499859253,0.820068,-0.245911,0.516174,0.0224609
71499875768,0.833557,-0.24762,0.493408,0.0177612
71499896829,0.845215,-0.250793,0.471558,0.0157471
71499919231,0.849182,-0.243896,0.468262,0.00341797
71499935728,0.845703,-0.235168,0.478943,-0.00476074
71499964230,0.843628,-0.224731,0.487366,-0.012146
71499979241,0.83667,-0.212646,0.504578,-0.0109253
71499995748,0.826355,-0.205994,0.524048,-0.00488281
71500016733,0.811096,-0.197021,0.550659,-0.000427246
71500039242,0.791138,-0.185974,0.582581,0.0045166
71500055723,0.76709,-0.173828,0.617432,0.010437
71500078186,0.738281,-0.160583,0.654785,0.0192261
71500099245,0.705627,-0.144958,0.692871,0.0303955
71500115791,0.670227,-0.129639,0.72937,0.0438232
71500144232,0.632446,-0.117126,0.763306,0.0601196
71500159332,0.592407,-0.105896,0.795044,0.0756226
71500175083,0.551697,-0.09198,0.824158,0.088562
71500196782,0.510498,-0.0770264,0.850464,0.100647
71500219318,0.469482,-0.0622559,0.873718,0.110657
71500235085,0.430603,-0.0476074,0.893311,0.119019
71500258203,0.395691,-0.0352783,0.909119,0.125183
71500279285,0.362488,-0.0239258,0.922546,0.129761
71500295011,0.339233,-0.0161743,0.931152,0.132385
71500318201,0.333069,-0.015686,0.933228,0.133301
71500346740,0.341614,-0.0176392,0.930725,0.129272
71500355099,0.358215,-0.0202026,0.925415,0.121704
71500378243,0.38208,-0.0227661,0.917419,0.108582
71500399288,0.401001,0.00311279,0.911987,0.0857544
71500414992,0.417664,0.00665283,0.905457,0.074585
71500438029,0.443542,0.00537109,0.893982,0.0626831
71500459267,0.46814,-0.0022583,0.882202,0.0494385
71500475014,0.490112,-0.0164185,0.870728,0.0356445
71500498167,0.507874,-0.0133667,0.861084,0.0183716
71500519330,0.523743,-0.0169678,0.851624,0.00970459
71500535123,0.536377,-0.02771,0.843445,0.00701904
71500558225,0.548645,-0.0408936,0.834961,0.00836182
71500579323,0.559875,-0.0475464,0.827148,0.00488281
71500595069,0.571045,-0.0489502,0.819397,-0.00280762
71500618150,0.580933,-0.050293,0.812317,-0.00878906
71500639306,0.591309,-0.0597534,0.804138,-0.00927734
71500655149,0.601135,-0.0742798,0.795593,-0.00756836
71500678272,0.609375,-0.085144,0.788208,-0.00732422
71500699321,0.616455,-0.0908203,0.782043,-0.00909424
71500715082,0.622375,-0.0957031,0.776733,-0.0106201
71500739255,0.628906,-0.101135,0.770752,-0.0114136
71500759237,0.635681,-0.106567,0.764404,-0.0130005
71500774981,0.643311,-0.110596,0.757385,-0.0144043
71500798137,0.651489,-0.115173,0.749634,-0.0153809
71500819272,0.65979,-0.12085,0.741455,-0.0162964
71500835016,0.66925,-0.126526,0.731934,-0.0172729
71500858167,0.678711,-0.133118,0.721985,-0.0177002
71500879211,0.688232,-0.141113,0.711426,-0.0164795
71500894993,0.697815,-0.149902,0.700195,-0.0147095
71500918156,0.707764,-0.158203,0.688293,-0.0130005
71500939202,0.718689,-0.16449,0.675415,-0.0111694
71500955035,0.731506,-0.170227,0.660095,-0.0111694
71500978223,0.745361,-0.174866,0.643188,-0.0122681
71500999283,0.759888,-0.179993,0.624451,-0.0127563
71501015045,0.774841,-0.18457,0.604431,-0.0108032
71501038202,0.790649,-0.188843,0.582336,-0.00695801
71501059300,0.80719,-0.19635,0.55658,0.00134277
71501075000,0.825012,-0.204285,0.526794,0.00512695
71501097622,0.839844,-0.207703,0.501465,0.00415039
71501119317,0.852783,-0.210999,0.477722,0.00500488
71501135059,0.861694,-0.209167,0.462219,-0.00732422
71501157616,0.864685,-0.199707,0.460449,-0.0194092
71501180802,0.861572,-0.190674,0.469543,-0.0274658
71501195083,0.857788,-0.178528,0.480591,-0.0350952
71501217579,0.848511,-0.171387,0.499512,-0.0332642
71501240787,0.836182,-0.164185,0.522278,-0.0316772
71501263742,0.818542,-0.156738,0.551819,-0.0288086
71501278055,0.795593,-0.14978,0.586548,-0.0219116
71501300737,0.767334,-0.139648,0.62561,-0.0151978
71501315054,0.735779,-0.128052,0.664978,-0.00512695
71501337591,0.701538,-0.117554,0.702759,0.010376
71501360750,0.665466,-0.108032,0.737976,0.027832
71501375095,0.626709,-0.0993652,0.771545,0.0448608
71501397572,0.587036,-0.0888062,0.802429,0.0592651
71501420740,0.546021,-0.0735474,0.831421,0.0712891
71501441767,0.503662,-0.057251,0.857849,0.0838623
71501456071,0.46106,-0.0407715,0.881165,0.0961914
71501479244,0.419678,-0.0271606,0.900818,0.107483
71501495017,0.378113,-0.0140381,0.918396,0.115112
71501516094,0.34375,-0.00354004,0.931519,0.118469
71501539257,0.324951,0.000976562,0.937988,0.120422
71501555053,0.328125,0.00256348,0.937134,0.118103
71501577528,0.344299,0.000610352,0.932007,0.112732
71501599246,0.370361,-0.003479,0.922852,0.10498
71501614993,0.390991,-0.000915527,0.915405,0.0950317
71501636056,0.408447,-0.00305176,0.907959,0.0931396
71501659255,0.434021,-0.00738525,0.896484,0.0882568
71501675015,0.463623,-0.00109863,0.883545,0.06604
71501696127,0.484741,-0.0143433,0.87262,0.0568237
71501719254,0.503479,-0.0133667,0.862976,0.0380859
71501735032,0.521545,-0.0106812,0.852783,0.024231
71501757508,0.536804,-0.0147095,0.843384,0.0159302
71501779031,0.548096,-0.0218506,0.835999,0.0137329
71501795044,0.557495,-0.0328369,0.829346,0.0159912
71501817536,0.565735,-0.0432739,0.823242,0.0159302
71501839255,0.572571,-0.0479126,0.818359,0.010376
71501855019,0.578186,-0.0512085,0.814209,0.00500488
71501877515,0.583801,-0.0582886,0.809753,0.00341797
71501899275,0.589661,-0.0718994,0.804382,0.00585938
71501915031,0.596558,-0.0845337,0.798035,0.00756836
71501937524,0.603271,-0.0942993,0.79187,0.00708008
71501959275,0.609985,-0.100769,0.78595,0.00482178
71501982477,0.617188,-0.10791,0.779297,0.0045166
71501997518,0.624939,-0.117065,0.77179,0.00744629
71502019975,0.632874,-0.126404,0.763733,0.0101318
71502035073,0.641418,-0.135132,0.755066,0.0117188
71502057493,0.649719,-0.143066,0.74646,0.0119629
71502078565,0.658081,-0.150818,0.737549,0.0101318
71502101770,0.667419,-0.157593,0.727722,0.00836182
71502117520,0.677673,-0.164917,0.716553,0.00909424
71502138578,0.687866,-0.173096,0.704773,0.0100708
71502155087,0.698425,-0.179199,0.692749,0.00952148
71502177528,0.709595,-0.183899,0.680115,0.0088501
71502198617,0.721558,-0.189575,0.665771,0.00848389
71502215039,0.734009,-0.194763,0.650513,0.00787354
71502237592,0.746948,-0.199341,0.634216,0.00762939
71502258640,0.759888,-0.203979,0.617065,0.00939941
71502275004,0.773132,-0.207764,0.59906,0.013855
71502297606,0.788818,-0.211792,0.57666,0.0179443
71502318600,0.805542,-0.218262,0.550232,0.024353
71502335024,0.823914,-0.22467,0.519775,0.0202637
71502357519,0.836609,-0.228333,0.497559,0.0167847
71502378601,0.849731,-0.23175,0.473206,0.0165405
71502403165,0.853516,-0.225952,0.469421,0.0020752
71502417541,0.851379,-0.217712,0.477173,-0.00488281
71502440049,0.850708,-0.21228,0.480774,-0.00531006
71502463191,0.844055,-0.202148,0.496582,-0.00128174
71502484274,0.833862,-0.197937,0.515076,0.00708008
71502500032,0.818787,-0.190735,0.541382,0.00939941
71502523166,0.798889,-0.17981,0.573853,0.00946045
71502545689,0.773682,-0.166931,0.611023,0.0109863
71502559279,0.744568,-0.151428,0.649963,0.0128174
71502582448,0.711914,-0.133728,0.689148,0.0172119
71502596072,0.676636,-0.116699,0.726501,0.0257568
71502619249,0.638977,-0.10083,0.761658,0.0371094
71502633616,0.598999,-0.0864258,0.794373,0.0510864
71502656106,0.558044,-0.0703735,0.824341,0.0631714
71502679251,0.515503,-0.0495605,0.852356,0.0723267
71502693598,0.472046,-0.0298462,0.877319,0.0806885
71502716104,0.430237,-0.0119019,0.898499,0.0854492
71502739315,0.392517,0.00238037,0.915466,0.0881348
71502753588,0.35553,0.0112305,0.929932,0.0930176
71502776157,0.32959,0.00720215,0.938721,0.100342
71502799300,0.323425,-0.00415039,0.940186,0.106384
71502813659,0.333374,-0.0126343,0.936768,0.105469
71502845006,0.355469,-0.0213623,0.929138,0.0992432
71502859530,0.380127,-0.0259399,0.920166,0.0897827
71502873672,0.400269,-0.00762939,0.913696,0.0697632
71502896217,0.414307,-0.00140381,0.908264,0.0581055
71502919370,0.442749,0.0065918,0.895508,0.0438843
71502933715,0.468567,0.0180054,0.882996,0.0178833
71502956168,0.493347,0.0128174,0.86969,0.003479
71502979338,0.513245,0.012085,0.858032,-0.0101318
71502993667,0.531433,0.0055542,0.846924,-0.0150757
71503016197,0.545105,-0.00860596,0.838135,-0.0145874
71503039333,0.55603,-0.024231,0.830627,-0.0140381
71503053679,0.567749,-0.0336914,0.822327,-0.0163574
71503076185,0.577393,-0.0423584,0.815063,-0.0211182
71503099393,0.586426,-0.0507812,0.807983,-0.0253296
71503113686,0.592529,-0.0601196,0.802856,-0.0257568
71503136206,0.597412,-0.0696411,0.798462,-0.0253906
71503159301,0.60376,-0.0772095,0.792969,-0.0253296
71503173619,0.611267,-0.0827026,0.786621,-0.0257568
71503196050,0.619385,-0.088623,0.779602,-0.0253296
71503219218,0.628479,-0.0970459,0.771301,-0.0234375
71503235065,0.638123,-0.106201,0.762207,-0.0217285
71503256166,0.648315,-0.115417,0.752258,-0.0204468
71503279314,0.658508,-0.125549,0.74176,-0.0196533
71503293675,0.669067,-0.13501,0.73053,-0.0192261
71503316167,0.679016,-0.143127,0.719727,-0.0187378
71503339346,0.68866,-0.150513,0.708984,-0.0184937
71503353636,0.698608,-0.156067,0.697998,-0.0177002
71503376207,0.708679,-0.162292,0.68634,-0.0160522
71503399317,0.717896,-0.167603,0.675415,-0.015564
71503413664,0.727539,-0.171997,0.663879,-0.0152588
71503436205,0.737671,-0.175049,0.651855,-0.0144043
71503459343,0.748718,-0.17804,0.638306,-0.0146484
71503473728,0.760193,-0.180237,0.623962,-0.015625
71503496232,0.772156,-0.182556,0.608398,-0.0151978
71503519393,0.783997,-0.186646,0.591919,-0.0109863
71503533686,0.798096,-0.193237,0.570618,-0.00286865
71503556199,0.813782,-0.20166,0.544922,0.00866699
71503579386,0.831116,-0.211731,0.514099,0.010437
71503593657,0.845703,-0.213196,0.489136,0.0020752
71503616249,0.859314,-0.214417,0.464233,0.00250244
71503639290,0.86676,-0.210083,0.452148,-0.00964355
71503653697,0.867432,-0.197998,0.45575,-0.0236816
71503676197,0.865906,-0.189148,0.461792,-0.0339355
71503699294,0.860779,-0.174805,0.476624,-0.0361938
71503713636,0.852112,-0.16803,0.49469,-0.0292969
71503736166,0.838013,-0.159729,0.521057,-0.0258789
71503768220,0.819092,-0.149414,0.553345,-0.0231323
71503773714,0.79541,-0.138428,0.589661,-0.0192871
71503796219,0.767395,-0.126282,0.628418,-0.0123901
71503819350,0.736572,-0.113647,0.666626,-0.00506592
71503833680,0.703369,-0.098877,0.703857,0.00244141
71503856221,0.668213,-0.0861816,0.73877,0.0136108
71503879381,0.631592,-0.0755615,0.771118,0.0252075
71503893687,0.593994,-0.0637817,0.801086,0.0355225
71503916211,0.555054,-0.0529175,0.828735,0.0471802
71503939329,0.516113,-0.0454102,0.853271,0.0584717
71503953672,0.477844,-0.0380249,0.875061,0.0668945
71503976154,0.44104,-0.0319824,0.893738,0.0747681
71503998781,0.407227,-0.0270996,0.909302,0.0806274
71504013717,0.379028,-0.0244751,0.920959,0.086792
71504036252,0.356079,-0.0259399,0.929382,0.0932007
71504058702,0.348206,-0.0331421,0.931702,0.0973511
71504073611,0.354919,-0.0405884,0.929138,0.0947876
71504096128,0.372192,-0.0429688,0.923157,0.0858154
71504118698,0.399048,-0.0314941,0.914062,0.0648193
71504133762,0.411865,-0.00860596,0.910217,0.0413818
71504156160,0.4375,-0.00262451,0.898621,0.0320435
71504178629,0.465881,0.00762939,0.884766,0.00598145
71504193638,0.490173,-0.015625,0.87146,-0.000183105
71504216174,0.510742,-0.0159302,0.859375,-0.0162354
71504238773,0.526855,-0.0153198,0.849365,-0.027771
71504253721,0.539917,-0.0239258,0.840759,-0.03125
71504276224,0.554626,-0.0380859,0.830627,-0.0303345
71504298723,0.568237,-0.0457764,0.820801,-0.0341797
71504313720,0.580627,-0.052002,0.811462,-0.039978
71504336245,0.591675,-0.0585938,0.802734,-0.0448608
71504358748,0.60199,-0.0700684,0.794128,-0.0443115
71504373707,0.612061,-0.0855103,0.785095,-0.0402222
71504396195,0.6203,-0.0983887,0.777222,-0.0380859
71504418725,0.626648,-0.106018,0.771057,-0.0385132
71504441859,0.632568,-0.112427,0.765259,-0.0384521
71504456221,0.638184,-0.119629,0.759644,-0.036499
71504480140,0.644714,-0.125427,0.753174,-0.0361938
71504493704,0.651794,-0.131958,0.74585,-0.0362549
71504516197,0.659485,-0.137085,0.738159,-0.0367432
71504538732,0.668091,-0.142639,0.72937,-0.0361938
71504553733,0.677246,-0.14801,0.719849,-0.0343628
71504576114,0.686035,-0.154114,0.710327,-0.0315552
71504598691,0.694519,-0.160645,0.700684,-0.0291748
71504613737,0.703613,-0.165955,0.690308,-0.02771
71504636146,0.713745,-0.169373,0.679077,-0.0267944
71504658726,0.725159,-0.173218,0.665833,-0.0272217
71504673753,0.737671,-0.17572,0.651184,-0.02948
71504696189,0.75116,-0.177368,0.634949,-0.0331421
71504718703,0.765076,-0.179749,0.617188,-0.0359497
71504733711,0.778748,-0.185791,0.598206,-0.0333862
71504756243,0.794678,-0.196716,0.57373,-0.0238647
71504778709,0.812195,-0.212769,0.543091,-0.00482178
71504793601,0.830322,-0.228821,0.508057,0.00311279
71504816186,0.844299,-0.232605,0.482666,-0.000183105
71504838682,0.857605,-0.239441,0.455139,0.00177002
71504853745,0.865112,-0.235291,0.44281,-0.00952148
71504876189,0.863342,-0.227783,0.449768,-0.0203857
71504898742,0.863403,-0.217407,0.454346,-0.0289307
71504915118,0.858582,-0.203979,0.46936,-0.0296631
71504936177,0.849976,-0.196228,0.48822,-0.0234985
71504958731,0.836365,-0.187744,0.514587,-0.0183105
71504975193,0.817993,-0.176636,0.547119,-0.0145874
71504996216,0.795471,-0.164551,0.58313,-0.00958252
71505018766,0.768616,-0.151245,0.621521,-0.00292969
71505035186,0.738525,-0.136597,0.660156,0.00244141
71505056259,0.705444,-0.120911,0.698303,0.00561523
71505078798,0.670349,-0.104065,0.734619,0.00842285
71505095129,0.632812,-0.0892944,0.768921,0.0137329
71505116199,0.593994,-0.0744629,0.800598,0.0231934
71505138687,0.553833,-0.0605469,0.829529,0.0369873
71505155113,0.51239,-0.0497437,0.855652,0.0526123
71505176253,0.471252,-0.0378418,0.878723,0.0653687
71505198697,0.432373,-0.0275269,0.898193,0.0742798
71505215177,0.398132,-0.0186157,0.913696,0.0784302
71505236210,0.368225,-0.0117188,0.926025,0.0814819
71505258748,0.355835,-0.0145264,0.930542,0.0844727
71505275181,0.360352,-0.0218506,0.928772,0.0834961
71505296131,0.375732,-0.027832,0.923096,0.0766602
71505318627,0.399292,-0.0289307,0.914124,0.0636597
71505335115,0.418701,0.00494385,0.907227,0.038269
71505356117,0.43811,0.00878906,0.898376,0.0281982
71505378762,0.471008,0.00909424,0.881958,0.0101929
71505395065,0.49646,-0.0172729,0.867859,0.00201416
71505416184,0.523804,-0.0322266,0.851074,-0.0114746
71505439340,0.545044,-0.0363159,0.837158,-0.0262451
71505455108,0.562134,-0.0471802,0.825073,-0.0302734
71505476166,0.578125,-0.0609741,0.812988,-0.0310059
71505492651,0.592468,-0.0689087,0.801941,-0.0326538
71505515146,0.603088,-0.0757446,0.793213,-0.0350342
71505536286,0.612061,-0.0794067,0.785767,-0.0395508
71505554147,0.619324,-0.0842896,0.77948,-0.0410767
71505575195,0.623474,-0.0935059,0.775208,-0.0393677
71505596273,0.625183,-0.0996094,0.773071,-0.0387573
71505612653,0.627441,-0.103271,0.770752,-0.0385742
71505635178,0.630981,-0.107605,0.767273,-0.0385742
71505656268,0.635559,-0.113342,0.762634,-0.0385742
71505674070,0.64093,-0.120239,0.75708,-0.0389404
71505695143,0.647766,-0.126221,0.750183,-0.0401611
71505716248,0.655518,-0.131409,0.742554,-0.0404053
71505732781,0.663879,-0.137573,0.734009,-0.0389404
71505755183,0.672729,-0.144592,0.72467,-0.036438
71505776231,0.681702,-0.15155,0.714844,-0.0350952
71505792648,0.690979,-0.156982,0.704651,-0.0358276
71505815214,0.700439,-0.162781,0.693909,-0.0357666
71505837704,0.710938,-0.169434,0.681641,-0.0345459
71505852789,0.723755,-0.175171,0.666443,-0.0352173
71505875127,0.73822,-0.178406,0.649292,-0.0388184
71505897699,0.753479,-0.180542,0.630615,-0.0438843
71505912719,0.768188,-0.183594,0.611389,-0.0477295
71505935095,0.781738,-0.190247,0.592163,-0.0446167
71505957601,0.797241,-0.203735,0.5672,-0.0325317
71505972718,0.813599,-0.224121,0.536377,-0.00817871
71505995203,0.83075,-0.23761,0.503235,-0.00622559
71506017646,0.845886,-0.236938,0.477661,-0.0088501
71506032650,0.856567,-0.239136,0.457092,-0.0102539
71506063382,0.858459,-0.228394,0.458618,-0.0222778
71506077744,0.853455,-0.218323,0.472107,-0.0314941
71506092627,0.849609,-0.203552,0.484253,-0.0465698
71506114391,0.840637,-0.190491,0.504517,-0.0487671
71506136942,0.827698,-0.179932,0.529419,-0.046814
71506159424,0.810181,-0.168579,0.559326,-0.0471191
71506174412,0.787659,-0.154968,0.594299,-0.0487061
71506196927,0.761475,-0.142517,0.630737,-0.0444336
71506219437,0.731812,-0.130981,0.667725,-0.0371094
71506234439,0.69873,-0.11908,0.704834,-0.0270996
71506256877,0.661743,-0.109863,0.741455,-0.0112915
71506279423,0.623169,-0.10144,0.775391,0.00762939
71506294446,0.583191,-0.0942383,0.806274,0.0294189
71506316950,0.542419,-0.0864258,0.834106,0.0502319
71506339391,0.501648,-0.0750122,0.85907,0.0678711
71506354384,0.461609,-0.0621948,0.880981,0.0824585
71506376918,0.42334,-0.050415,0.899597,0.0940552
71506399381,0.385681,-0.0380249,0.916138,0.102173
71506414440,0.355835,-0.0267944,0.928101,0.105652
71506436854,0.337769,-0.0197754,0.934937,0.106506
71506459418,0.336975,-0.0215454,0.935303,0.105408
71506474362,0.350098,-0.0258789,0.931091,0.0987549
71506496859,0.374512,-0.0310059,0.922485,0.0877686
71506519453,0.391602,-0.0098877,0.917419,0.069519
71506534328,0.417847,-0.0201416,0.905884,0.0651245
71506556905,0.449219,-0.0239258,0.891907,0.0449829
71506579451,0.480408,-0.0362549,0.875793,0.0286865
71506594447,0.507446,-0.0430908,0.860474,0.00976562
71506616861,0.526672,-0.036438,0.849182,-0.00811768
71506639441,0.543579,-0.0406494,0.838196,-0.0150146
71506654449,0.55896,-0.0471802,0.827637,-0.0171509
71506676912,0.574219,-0.0562134,0.816528,-0.0171509
71506699431,0.587952,-0.0661011,0.805969,-0.0178223
71506714443,0.598877,-0.0750122,0.796997,-0.0203857
71506736948,0.607361,-0.081543,0.789856,-0.0237427
71506759430,0.61322,-0.09198,0.784119,-0.0231323
71506774458,0.618225,-0.101807,0.779053,-0.0196533
71506796945,0.622925,-0.109802,0.774292,-0.0167847
71506819428,0.627625,-0.114014,0.769897,-0.0166626
71506834433,0.632751,-0.116333,0.765259,-0.019165
71506856885,0.637817,-0.118958,0.760559,-0.0228882
71506871245,0.643005,-0.121216,0.755676,-0.0269775
71506894407,0.649902,-0.123108,0.74939,-0.0292358
71506916949,0.65802,-0.126038,0.741821,-0.0286865
71506931258,0.666382,-0.130981,0.733459,-0.0270386
71506954432,0.674683,-0.135681,0.725037,-0.0257568
71506976946,0.683105,-0.141052,0.716064,-0.0247192
71506991264,0.692261,-0.146606,0.706116,-0.0234375
71507014364,0.702454,-0.15271,0.694763,-0.0216064
71507036937,0.714539,-0.15863,0.68103,-0.0200195
71507052693,0.727844,-0.162964,0.66571,-0.0200806
71507074414,0.742188,-0.166199,0.648865,-0.0206909
71507096839,0.757141,-0.170166,0.630371,-0.0197144
71507111234,0.772339,-0.175476,0.610229,-0.0153198
71507134353,0.789673,-0.18396,0.585205,-0.00744629
71507156887,0.807617,-0.194458,0.556641,0.00421143
71507171289,0.826782,-0.205078,0.523682,0.00860596
71507194423,0.841553,-0.210022,0.49762,0.0055542
71507216913,0.855652,-0.212158,0.471985,0.00244141
71507231271,0.863586,-0.20697,0.459595,-0.00939941
71507254366,0.863098,-0.199951,0.463318,-0.0187378
71507276939,0.862122,-0.195374,0.466858,-0.0248413
71507291260,0.856812,-0.182617,0.481262,-0.0285645
71507314423,0.846863,-0.173767,0.50177,-0.02771
71507336867,0.831909,-0.163208,0.52948,-0.0303345
71507351195,0.811096,-0.150391,0.564209,-0.0332031
71507374212,0.785461,-0.133728,0.602905,-0.0401001
71507396916,0.756836,-0.117188,0.641663,-0.0405884
71507412755,0.725769,-0.100586,0.679321,-0.0393677
71507434444,0.6922,-0.0854492,0.715637,-0.0355835
71507456902,0.655823,-0.0718384,0.750854,-0.0286865
71507472780,0.616882,-0.0603638,0.784485,-0.0186768
71507494454,0.575745,-0.0483398,0.816101,-0.00695801
71507516945,0.532959,-0.0350952,0.845337,0.00634766
71507532647,0.489868,-0.022522,0.871216,0.0199585
71507554382,0.447998,-0.0108032,0.893372,0.0320435
71507576894,0.409363,-0.00256348,0.911377,0.041748
71507592641,0.372498,0.00201416,0.926697,0.0493774
71507615912,0.347046,-0.000671387,0.936157,0.0557861
71507636932,0.34137,-0.00921631,0.937927,0.0598145
71507652782,0.350647,-0.0162964,0.93457,0.0571289
71507675883,0.373474,-0.0203247,0.926025,0.0494995
71507696946,0.396484,-0.00537109,0.917419,0.0314941
71507712784,0.421875,-0.000915527,0.90625,0.0252686
71507741865,0.451172,-0.00708008,0.892151,0.0192261
71507756816,0.479858,-0.00177002,0.877258,-0.00524902
71507779329,0.505127,-0.0214233,0.86261,-0.0158691
71507795186,0.523376,-0.0199585,0.851196,-0.0325928
71507818348,0.538757,-0.0250854,0.841125,-0.0391235
71507832689,0.553284,-0.0338745,0.831177,-0.0418091
71507855109,0.56604,-0.0403442,0.822083,-0.0460205
71507878296,0.577515,-0.0443115,0.813599,-0.050354
71507892693,0.586609,-0.0487671,0.806458,-0.0549927
71507915170,0.59436,-0.0558472,0.800171,-0.0576782
71507938342,0.599976,-0.0644531,0.795349,-0.0560913
71507952704,0.602966,-0.0723267,0.792664,-0.0531616
71507975237,0.605713,-0.0779419,0.790161,-0.0516357
71507998405,0.609009,-0.0820923,0.787231,-0.0509033
71508012785,0.613464,-0.0874634,0.783203,-0.0494995
71508035243,0.619446,-0.0949097,0.777771,-0.0473633
71508058360,0.626892,-0.102295,0.770935,-0.0459595
71508079423,0.635437,-0.10968,0.762939,-0.0452881
71508095245,0.644531,-0.117676,0.754089,-0.0452271
71508125854,0.654236,-0.125732,0.744385,-0.045166
71508139440,0.663818,-0.133545,0.734497,-0.0445557
71508155148,0.673767,-0.140137,0.724243,-0.0427856
71508178359,0.684204,-0.147461,0.713074,-0.0393677
71508199450,0.694824,-0.155212,0.701172,-0.0373535
71508215233,0.705505,-0.160278,0.689209,-0.0387573
71508238337,0.717346,-0.164001,0.675842,-0.0407104
71508259456,0.730164,-0.169312,0.660645,-0.0408936
71508275202,0.744141,-0.173706,0.643677,-0.0415649
71508298358,0.758911,-0.177124,0.625122,-0.0422363
71508319442,0.773865,-0.18158,0.605347,-0.0410767
71508335250,0.788086,-0.186523,0.58551,-0.0354004
71508358421,0.80426,-0.193298,0.561218,-0.0280151
71508379364,0.820129,-0.205505,0.533752,-0.0139771
71508395226,0.836426,-0.213928,0.504333,-0.0143433
71508418354,0.849304,-0.212036,0.483093,-0.013916
71508439462,0.858765,-0.215332,0.464661,-0.0126343
71508455189,0.862305,-0.210083,0.46051,-0.012085
71508478392,0.860107,-0.210754,0.464478,-0.00488281
71508499394,0.856567,-0.206055,0.473083,-0.00354004
71508515252,0.847656,-0.198181,0.492065,-0.000915527
71508538457,0.835205,-0.18988,0.516052,0.000671387
71508560905,0.818542,-0.179016,0.545776,-0.00305176
71508575196,0.797363,-0.166443,0.580017,-0.00512695
71508598352,0.771362,-0.152649,0.617737,-0.00317383
71508626982,0.741394,-0.138245,0.656555,0.00292969
71508635240,0.708191,-0.123047,0.695068,0.0106201
71508658341,0.672546,-0.108704,0.731628,0.0216675
71508679489,0.634277,-0.0948486,0.766418,0.0339966
71508695268,0.594666,-0.0820312,0.79834,0.046936
71508724423,0.554199,-0.0688477,0.827454,0.0577393
71508740894,0.512878,-0.0521851,0.854431,0.0643311
71508755231,0.473022,-0.0343628,0.877808,0.0670776
71508777737,0.436401,-0.017395,0.896973,0.0680542
71508800879,0.403931,-0.00585938,0.912109,0.0690918
71508815284,0.37439,0.000488281,0.924377,0.0722656
71508837782,0.358032,-0.000244141,0.930664,0.0751343
71508860907,0.358765,-0.00830078,0.930237,0.0761719
71508875275,0.372925,-0.0167847,0.924866,0.0717163
71508897727,0.39801,-0.00665283,0.915527,0.0567627
71508920812,0.426208,-0.00213623,0.903381,0.0460815
71508935306,0.456055,-6.10352e-05,0.889221,0.0346069
71508957735,0.482849,0.000549316,0.875549,0.0117798
71508980879,0.508301,-0.0149536,0.861023,-0.000976562
71508995876,0.52832,-0.0109253,0.848694,-0.0202637
71509017729,0.544556,-0.00390625,0.838013,-0.0325928
71509040843,0.55658,-0.0136108,0.829956,-0.0331421
71509061941,0.568848,-0.0290527,0.821289,-0.0308838
71509077778,0.581238,-0.0389404,0.812073,-0.0334473
71509100866,0.592773,-0.0432129,0.803101,-0.0413208
71509121909,0.603149,-0.0452271,0.7948,-0.0487061
71509137779,0.612366,-0.0527954,0.787231,-0.0484619
71509160907,0.619934,-0.0673828,0.780457,-0.0439453
71509181973,0.626831,-0.078125,0.774048,-0.041687
71509197737,0.632812,-0.0834961,0.768555,-0.0424805
71509212734,0.638977,-0.0862427,0.763,-0.0449829
71509235194,0.644836,-0.0892944,0.757629,-0.046814
71509256318,0.651733,-0.0928345,0.751221,-0.0475464
71509272781,0.659058,-0.0961304,0.744324,-0.0477295
71509295195,0.666809,-0.100525,0.736816,-0.0477295
71509317821,0.674805,-0.105103,0.728821,-0.0482178
71509332788,0.6828,-0.109863,0.720642,-0.0483398
71509355157,0.691101,-0.114746,0.711975,-0.0474854
71509377740,0.69989,-0.120911,0.702454,-0.0450439
71509392744,0.709351,-0.127869,0.691833,-0.041748
71509415165,0.719604,-0.134827,0.679993,-0.0393677
71509437793,0.731689,-0.140808,0.665833,-0.0371704
71509452737,0.7453,-0.146057,0.649536,-0.0353394
71509475253,0.759644,-0.150024,0.631836,-0.0346069
71509497748,0.774475,-0.153503,0.612671,-0.0342407
71509512773,0.789612,-0.157959,0.592041,-0.0315552
71509535235,0.80481,-0.163696,0.570007,-0.022644
71509557782,0.820618,-0.172363,0.544739,-0.0065918
71509579466,0.837524,-0.183533,0.514465,0.0112305
71509595214,0.85199,-0.187988,0.488342,0.0136719
71509617745,0.867004,-0.18811,0.461304,0.00256348
71509638820,0.878113,-0.182617,0.441711,-0.0202026
71509654409,0.885315,-0.170776,0.430481,-0.0410156
71509677009,0.886658,-0.166321,0.428772,-0.0476074
71509691311,0.886292,-0.15564,0.433777,-0.0452881
71509714449,0.881042,-0.149231,0.447144,-0.0389404
71509737043,0.871826,-0.141907,0.467224,-0.0385132
71509751309,0.857849,-0.133179,0.494568,-0.0408936
71509774439,0.839355,-0.121399,0.527832,-0.0452881
71509796937,0.816101,-0.10791,0.565735,-0.0465088
71509811333,0.788879,-0.0947876,0.605591,-0.0427856
71509834500,0.757874,-0.0829468,0.646057,-0.0361938
71509856940,0.724426,-0.0717773,0.684875,-0.0289917
71509871353,0.688293,-0.0606689,0.722473,-0.0223389
71509894406,0.650635,-0.0494385,0.757568,-0.0153809
71509916921,0.611572,-0.0346069,0.790344,-0.00946045
71509931315,0.570496,-0.019043,0.821045,-0.003479
71509954485,0.528809,-0.00421143,0.848694,0.00134277
71509976981,0.488342,0.0108643,0.872498,0.0022583
71509991334,0.451111,0.0239868,0.89209,-0.00012207
71510014475,0.418396,0.036377,0.907471,-0.00415039
71510037027,0.389343,0.0458984,0.919861,-0.00622559
71510051289,0.375244,0.0449829,0.925781,-0.00402832
71510074486,0.378723,0.0359497,0.924744,-0.00146484
71510097050,0.393188,0.0244141,0.919067,-0.00152588
71510111290,0.416016,0.0193481,0.909058,-0.00897217
71510134504,0.430481,0.0272827,0.901794,-0.0244751
71510157684,0.457336,0.0286865,0.888123,-0.03479
71510171338,0.48822,0.0374146,0.869873,-0.059082
71510193873,0.517517,0.024231,0.852112,-0.0733643
71510216998,0.540161,0.0246582,0.836243,-0.0905762
71510231312,0.556213,0.022583,0.824585,-0.100403
71510262634,0.571594,0.0113525,0.814087,-0.101562
71510277015,0.585938,-0.000732422,0.804016,-0.100769
71510291321,0.599487,-0.00817871,0.793701,-0.102295
71510313883,0.610229,-0.0105591,0.784668,-0.108337
71510336994,0.620056,-0.0106812,0.776306,-0.112976
71510351355,0.629211,-0.0166626,0.76886,-0.112305
71510373845,0.637817,-0.0299072,0.761902,-0.107971
71510396987,0.645325,-0.0409546,0.755432,-0.105469
71510411299,0.650879,-0.0477905,0.750305,-0.105103
71510433753,0.656067,-0.0534668,0.745483,-0.104309
71510456975,0.661255,-0.0604248,0.74054,-0.102905
71510471282,0.667114,-0.0673828,0.734985,-0.101074
71510493870,0.673584,-0.0728149,0.728638,-0.10022
71510516990,0.681274,-0.076416,0.721008,-0.10022
71510531313,0.689575,-0.0802612,0.712646,-0.100769
71510553866,0.69696,-0.0847778,0.704651,-0.102478
71510576939,0.704834,-0.0878296,0.696045,-0.104736
71510591314,0.714111,-0.0915527,0.686218,-0.10321
71510613770,0.724609,-0.0971069,0.674927,-0.0994263
71510636310,0.735168,-0.101929,0.663025,-0.097168
71510651311,0.747437,-0.105469,0.64856,-0.0973511
71510673865,0.760986,-0.108032,0.63208,-0.0980835
71510696309,0.775513,-0.111145,0.613647,-0.0977783
71510711302,0.790649,-0.11554,0.59375,-0.0945435
71510733818,0.805298,-0.119202,0.573975,-0.0880737
71510756338,0.821655,-0.123291,0.55072,-0.079834
71510771371,0.839844,-0.133972,0.522034,-0.0645752
71510793801,0.857361,-0.14209,0.490967,-0.0606079
71510816290,0.869995,-0.15033,0.466553,-0.0528564
71510831338,0.879517,-0.154419,0.447144,-0.0511475
71510853852,0.881409,-0.153137,0.44342,-0.0547485
71510876311,0.876343,-0.153809,0.45343,-0.0524292
71510891334,0.871582,-0.150635,0.462646,-0.059082
71510913839,0.860596,-0.141052,0.484375,-0.0690918
71510945185,0.84668,-0.135681,0.508972,-0.0751953
71510966815,0.827393,-0.126709,0.540833,-0.0823364
71510992981,0.802917,-0.115173,0.578308,-0.0871582
71511005141,0.774353,-0.103088,0.618286,-0.0860596
71511011312,0.742859,-0.0900879,0.658691,-0.078186
71511033809,0.709473,-0.0786743,0.697327,-0.064209
71511056367,0.674316,-0.069458,0.733582,-0.0473633
71511071335,0.636841,-0.0609131,0.767944,-0.0304565
71511093897,0.598145,-0.0512085,0.7995,-0.0170288
71511116368,0.557861,-0.0369263,0.829041,-0.00842285
71511131358,0.516174,-0.0209351,0.85614,-0.0022583
71511153861,0.474915,-0.00396729,0.880005,0.00152588
71511176336,0.436401,0.0106201,0.899658,0.0032959
71511191367,0.402771,0.0195312,0.915039,0.00500488
71511213824,0.37207,0.0230713,0.927856,0.00915527
71511236336,0.355164,0.019165,0.934448,0.0151367
71511251322,0.355652,0.0119629,0.934326,0.0183105
71511282013,0.367981,0.00317383,0.929626,0.0168457
71511296396,0.391113,-0.000610352,0.920288,0.00817871
71511311395,0.411804,0.0297241,0.910583,-0.0149536
71511333791,0.43042,0.0307617,0.901611,-0.0279541
71511356313,0.462158,0.0369263,0.88501,-0.0421753
71511371314,0.491699,0.0350342,0.867981,-0.0595093
71511393829,0.518738,0.0168457,0.851685,-0.0715942
71511416320,0.540344,0.0253296,0.836121,-0.0905151
71511431331,0.557129,0.0213013,0.824341,-0.0975952
71511453865,0.574707,0.0123291,0.812317,-0.0980225
71511476310,0.592041,0.00946045,0.800049,-0.0962524
71511494201,0.606873,0.00408936,0.789001,-0.0953369
71511513799,0.618408,-0.00250244,0.779602,-0.0986938
71511536307,0.628235,-0.0055542,0.770813,-0.105103
71511552804,0.638123,-0.0139771,0.76239,-0.106018
71511573887,0.64679,-0.0285034,0.755188,-0.102173
71511596342,0.654724,-0.039978,0.748413,-0.0978394
71511612739,0.661133,-0.0490723,0.742554,-0.0948486
71511633895,0.667603,-0.0541992,0.736389,-0.0950317
71511657765,0.675232,-0.0592041,0.729065,-0.0947876
71511672798,0.684265,-0.0656128,0.720154,-0.0935669
71511696738,0.693787,-0.0722046,0.710449,-0.0928955
71511716337,0.703918,-0.0778809,0.699707,-0.0934448
71511732760,0.714783,-0.0817871,0.687988,-0.0944824
71511753834,0.725952,-0.0853271,0.675903,-0.0936279
71511776359,0.737183,-0.088623,0.663513,-0.0915527
71511792749,0.749084,-0.0932617,0.649658,-0.0897827
71511813867,0.761047,-0.0980835,0.63501,-0.0887451
71511836328,0.77356,-0.101196,0.619202,-0.0889893
71511852783,0.786987,-0.105591,0.601318,-0.0882568
71511873810,0.801575,-0.111938,0.580994,-0.0855103
71511896318,0.817078,-0.119202,0.558228,-0.0809326
71511912761,0.83313,-0.127319,0.533325,-0.0718994
71511933892,0.851013,-0.137695,0.503174,-0.0599365
71511956319,0.865845,-0.145081,0.476013,-0.0509033
71511972759,0.881226,-0.145203,0.446655,-0.0531006
71511993878,0.890625,-0.140442,0.427734,-0.0637207
71512016384,0.897583,-0.136719,0.412292,-0.0748901
71512032793,0.899719,-0.129395,0.407471,-0.0874023
71512053859,0.898132,-0.132202,0.407959,-0.0965576
71512076408,0.895142,-0.118958,0.418213,-0.0981445
71512092743,0.886536,-0.113831,0.43988,-0.0864258
71512113888,0.874451,-0.111694,0.465454,-0.0780029
71512136317,0.857544,-0.108154,0.49762,-0.0717773
71512152784,0.835022,-0.102234,0.536194,-0.0684204
71512184883,0.807983,-0.0947876,0.577942,-0.0637817
71512196366,0.777588,-0.0845947,0.619873,-0.0618286
71512212796,0.744385,-0.0722046,0.66095,-0.0608521
71512233837,0.708618,-0.0601196,0.700562,-0.0581665
71512256328,0.670959,-0.0480347,0.737915,-0.0535278
71512272830,0.631287,-0.03479,0.773315,-0.0461426
71512293901,0.588684,-0.0219727,0.807251,-0.0352783
71512316366,0.543823,-0.00836182,0.838745,-0.0247803
71512332786,0.49823,0.00469971,0.866821,-0.0161133
71512353852,0.454651,0.0147095,0.890442,-0.0110474
71512376373,0.411621,0.0257568,0.910889,-0.00946045
71512392736,0.377258,0.0344238,0.925354,-0.00915527
71512413874,0.362549,0.0326538,0.931335,-0.00604248
71512436358,0.367615,0.0267334,0.929565,-0.00610352
71512452792,0.384949,0.0251465,0.922485,-0.0115967
71512475311,0.411011,0.0256348,0.910889,-0.0236206
71512496362,0.430725,0.0535278,0.899597,-0.0478516
71512512827,0.452942,0.0588379,0.887573,-0.0593262
71512535348,0.49054,0.0679321,0.864929,-0.0809326
71512556336,0.526611,0.0566406,0.842651,-0.0966187
71512572792,0.557434,0.0466919,0.821655,-0.108948
71512612143,0.578796,0.041687,0.805969,-0.116821
71512619256,0.597656,0.0297852,0.792786,-0.11554
71512640303,0.614075,0.020813,0.780334,-0.116089
71512655324,0.628784,0.0154419,0.768372,-0.11792
71512676376,0.643433,0.0102539,0.755859,-0.120239
71512692828,0.655334,0.00427246,0.745239,-0.122803
71512715275,0.664368,-0.00299072,0.737305,-0.122253
71512736369,0.671448,-0.0147095,0.731567,-0.117188
71512752801,0.677124,-0.024231,0.726501,-0.114136
71512775259,0.68219,-0.02948,0.721802,-0.112854
71512796270,0.687622,-0.0321655,0.716492,-0.112854
71512812802,0.693115,-0.0352783,0.710999,-0.113159
71512835245,0.699585,-0.0394897,0.704407,-0.112793
71512856345,0.70752,-0.0438843,0.696289,-0.112427
71512872802,0.716492,-0.0481567,0.686829,-0.111633
71512895264,0.725952,-0.0530396,0.676636,-0.110718
71512924519,0.735535,-0.0584106,0.665649,-0.111389
71512932766,0.744995,-0.0616455,0.654663,-0.112244
71512955346,0.755188,-0.0651855,0.642883,-0.109985
71512976403,0.766296,-0.0689087,0.629761,-0.106628
71512992811,0.778748,-0.072937,0.614197,-0.104736
71513015243,0.792236,-0.0762939,0.596252,-0.104736
71513036309,0.806885,-0.0804443,0.575684,-0.104919
71513052830,0.822266,-0.0863647,0.553162,-0.101746
71513076734,0.839722,-0.0960083,0.526367,-0.0924683
71513096427,0.856201,-0.108459,0.499817,-0.0726929
71513112747,0.875,-0.120117,0.46637,-0.0488892
71513135360,0.886536,-0.12146,0.443909,-0.0460205
71513156370,0.897949,-0.121582,0.419434,-0.0541382
71513180307,0.903809,-0.112793,0.406067,-0.0739136
71513195309,0.902405,-0.103943,0.409058,-0.0861816
71513225167,0.900879,-0.0923462,0.414246,-0.0909424
71513231977,0.89386,-0.0859375,0.431396,-0.0863647
71513254535,0.881836,-0.0818481,0.45697,-0.0821533
71513285188,0.864624,-0.0764771,0.489624,-0.0822754
71513292069,0.840759,-0.067627,0.530212,-0.0853271
71513314537,0.813599,-0.0585938,0.572083,-0.0852051
71513337043,0.783203,-0.0483398,0.613892,-0.0857544
71513359974,0.749573,-0.0388794,0.655518,-0.0828857
71513374489,0.713989,-0.031189,0.694946,-0.0792847
71513397051,0.676758,-0.0219116,0.731934,-0.0757446
71513412004,0.638123,-0.0124512,0.766724,-0.0684814
71513434280,0.597778,-0.00219727,0.799377,-0.0599365
71513457007,0.555786,0.00964355,0.829651,-0.0516357
71513472047,0.513,0.0214233,0.856934,-0.043335
71513494480,0.470886,0.0320435,0.880737,-0.0375977
71513517057,0.431213,0.0429688,0.900391,-0.0378418
71513532020,0.39624,0.0565796,0.915405,-0.041687
71513554515,0.366394,0.0661011,0.927002,-0.0441895
71513577069,0.351685,0.0650024,0.9328,-0.0432739
71513592045,0.354797,0.0559082,0.932312,-0.0414429
71513614512,0.369263,0.0499878,0.926941,-0.0430908
71513637099,0.394165,0.0454102,0.916565,-0.0482788
71513652021,0.417603,0.0515137,0.905212,-0.0593262
71513674564,0.428406,0.0593262,0.898499,-0.074585
71513697022,0.450806,0.0710449,0.885742,-0.0845947
71513719572,0.481018,0.0856934,0.865112,-0.112976
71513734918,0.512939,0.0667725,0.847595,-0.118042
71513757042,0.53656,0.0615845,0.831238,-0.13147
71513772040,0.555237,0.0552368,0.818481,-0.136597
71513794575,0.571228,0.0498657,0.807251,-0.139648
71513817100,0.58728,0.0453491,0.79541,-0.142517
71513831994,0.60083,0.0438232,0.78479,-0.145325
71513854571,0.61084,0.0406494,0.776733,-0.147644
71513877063,0.618103,0.0374756,0.770752,-0.149719
71513892082,0.623657,0.03125,0.766602,-0.149231
71513914489,0.629456,0.0206909,0.763062,-0.145142
71513937029,0.63623,0.00878906,0.758423,-0.140808
71513952048,0.644043,-0.00164795,0.752563,-0.136963
71513974574,0.652405,-0.010498,0.745667,-0.13501
71514005185,0.660217,-0.0164185,0.738647,-0.134827
71514012063,0.667419,-0.0220337,0.731873,-0.135498
71514034581,0.674927,-0.0262451,0.724426,-0.137329
71514057016,0.682739,-0.0296021,0.716797,-0.13855
71514072113,0.690552,-0.0341797,0.708862,-0.139343
71514094600,0.698303,-0.038147,0.700806,-0.14032
71514125228,0.706177,-0.0418091,0.692749,-0.140076
71514132041,0.7146,-0.0465088,0.684082,-0.13855
71514154513,0.724121,-0.0508423,0.674072,-0.136414
71514177046,0.734497,-0.0544434,0.663086,-0.133362
71514192018,0.745178,-0.0578003,0.651245,-0.131042
71514214562,0.757324,-0.0609131,0.636902,-0.130249
71514237060,0.770081,-0.0638428,0.621521,-0.128601
71514253551,0.783081,-0.0671997,0.605652,-0.124146
71514276640,0.797852,-0.0730591,0.587158,-0.114929
71514296980,0.814636,-0.0830078,0.566711,-0.0910034
71514313488,0.833862,-0.104675,0.538086,-0.0635986
71514334562,0.853394,-0.112061,0.504578,-0.0671387
71514357015,0.867676,-0.115417,0.478882,-0.0668335
71514372852,0.877686,-0.117188,0.459534,-0.0684204
71514397481,0.879578,-0.110535,0.457581,-0.0687866
71514417062,0.876343,-0.109619,0.464233,-0.0666504
71514432821,0.869934,-0.0980225,0.477722,-0.0732422
71514455961,0.859802,-0.0866089,0.49707,-0.0778198
71514478539,0.844666,-0.0800781,0.523376,-0.0782471
71514492812,0.824585,-0.0701904,0.554932,-0.0839233
71514516030,0.79895,-0.0567017,0.591858,-0.0899658
71514536998,0.767029,-0.0429077,0.633301,-0.0929565
71514552862,0.732117,-0.0310059,0.674255,-0.0914307
71514576011,0.695129,-0.0198364,0.713013,-0.0893555
71514597084,0.656067,-0.00738525,0.749512,-0.0872803
71514620950,0.615723,-0.00012207,0.783813,-0.0803223
71514635979,0.574585,0.00585938,0.815247,-0.0715332
71514657022,0.532349,0.012146,0.844116,-0.0625
71514671417,0.489929,0.0186768,0.869751,-0.0548096
71514694566,0.449585,0.0259399,0.891418,-0.0498657
71514717059,0.41217,0.0320435,0.909302,-0.0469971
71514731375,0.379211,0.0354614,0.923401,-0.0461426
71514755829,0.349365,0.0344849,0.935181,-0.0456543
71514777032,0.330322,0.0315552,0.9422,-0.0457153
71514791360,0.327271,0.0253296,0.94342,-0.0465088
71514814535,0.353516,0.0130615,0.933838,-0.0515747
71514837091,0.372131,0.0127563,0.926208,-0.0583496
71514851432,0.397095,0.0186157,0.914795,-0.0713501
71514874535,0.408752,0.0432129,0.906372,-0.0976562
71514896997,0.426941,0.050293,0.896851,-0.104065
71514911400,0.453796,0.0616455,0.880371,-0.122925
71514934563,0.479004,0.0681152,0.86377,-0.140381
71514958440,0.50116,0.0656128,0.848999,-0.15387
71514971338,0.517883,0.0698853,0.836487,-0.164612
71514994598,0.533447,0.0667114,0.826843,-0.1651
71515017092,0.547852,0.0553589,0.818848,-0.161926
71515032826,0.561218,0.0425415,0.810974,-0.159424
71515054568,0.571167,0.0396729,0.803162,-0.16449
71515077034,0.579346,0.0388184,0.796082,-0.170471
71515099539,0.58783,0.0343018,0.789673,-0.172241
71515124548,0.596619,0.0227051,0.78418,-0.168884
71515137059,0.605896,0.010498,0.778198,-0.164673
71515152809,0.614258,0.00274658,0.771973,-0.163147
71515174600,0.622131,-0.0032959,0.765808,-0.162537
71515197029,0.629822,-0.0106812,0.759827,-0.160461
71515212832,0.637878,-0.0199585,0.753845,-0.156189
71515234563,0.645813,-0.02948,0.747559,-0.151917
71515257067,0.653503,-0.0368652,0.741028,-0.149414
71515272845,0.661987,-0.043457,0.733459,-0.147766
71515293926,0.671631,-0.0494995,0.724487,-0.146484
71515317024,0.68158,-0.0545044,0.715088,-0.144836
71515332854,0.692566,-0.0596924,0.704651,-0.142212
71515353899,0.703613,-0.0649414,0.69397,-0.138245
71515377066,0.71521,-0.0698242,0.682129,-0.135071
71515392819,0.727478,-0.0739746,0.668884,-0.133606
71515413838,0.740234,-0.0767822,0.654541,-0.132874
71515437092,0.753784,-0.0789185,0.639038,-0.13092
71515452915,0.767944,-0.0812378,0.622314,-0.127686
71515473929,0.782532,-0.0834961,0.60437,-0.12384
71515497100,0.799072,-0.0855103,0.58252,-0.121277
71515512837,0.816406,-0.0881958,0.558533,-0.117126
71515542099,0.833801,-0.0957642,0.532715,-0.108093
71515557125,0.852783,-0.102051,0.501221,-0.104858
71515572882,0.867859,-0.10791,0.474731,-0.0984497
71515593969,0.87854,-0.108765,0.454346,-0.0993042
71515616862,0.88031,-0.0997314,0.450745,-0.108826
71515632873,0.875977,-0.0953979,0.458862,-0.113647
71515653935,0.870483,-0.0848389,0.468567,-0.124268
71515677121,0.860229,-0.0744019,0.488281,-0.126343
71515692878,0.846924,-0.0688477,0.51239,-0.124023
71515713910,0.827881,-0.0613403,0.54364,-0.123474
71515744521,0.80365,-0.0509644,0.579773,-0.123962
71515769221,0.774048,-0.0400391,0.619873,-0.122314
71515773908,0.73999,-0.0267334,0.66156,-0.118164
71515804598,0.70282,-0.0149536,0.703003,-0.107178
71515812854,0.663269,-0.00817871,0.742859,-0.0898438
71515833939,0.621033,-0.00292969,0.780334,-0.0724487
71515857152,0.577148,0.00244141,0.814575,-0.0570679
71515872886,0.531311,0.0111084,0.845764,-0.0465698
71515893848,0.484192,0.0255737,0.873596,-0.0412598
71515917033,0.438721,0.0443726,0.896545,-0.0414429
71515933578,0.393738,0.0640259,0.915833,-0.0446167
71515955343,0.355835,0.0769043,0.930115,-0.0479126
71515978536,0.329346,0.0773315,0.939819,-0.046936
71515999589,0.324463,0.0649414,0.942688,-0.0421753
71516015354,0.335632,0.0552979,0.939453,-0.0411377
71516038591,0.356445,0.0493774,0.931946,-0.043457
71516059601,0.378723,0.0704346,0.920898,-0.0592041
71516075386,0.397034,0.0690308,0.912598,-0.0682373
71516098492,0.425232,0.0755005,0.89856,-0.0772095
71516119597,0.452271,0.0844727,0.88269,-0.0956421
71516135355,0.479248,0.0681763,0.868469,-0.106812
71516158456,0.497742,0.0764771,0.854736,-0.125488
71516179614,0.514709,0.0852051,0.842102,-0.136414
71516195421,0.529968,0.0813599,0.83252,-0.13916
71516218598,0.542969,0.0709839,0.825256,-0.137634
71516239578,0.554993,0.0592651,0.818604,-0.135376
71516255391,0.56488,0.0523682,0.81189,-0.137756
71516284407,0.573486,0.0526733,0.804688,-0.144226
71516302477,0.58252,0.0505981,0.797485,-0.148499
71516315401,0.592346,0.0429077,0.790894,-0.147339
71516337815,0.6026,0.0294189,0.784424,-0.143372
71516361007,0.611206,0.0203857,0.778381,-0.141724
71516375360,0.619385,0.0154419,0.77179,-0.1427
71516397913,0.627563,0.0127563,0.764893,-0.144592
71516421041,0.635559,0.00848389,0.758301,-0.144775
71516435847,0.64386,0.00219727,0.751465,-0.143738
71516472747,0.652222,-0.00354004,0.744324,-0.143311
71516480959,0.660706,-0.00933838,0.736938,-0.142273
71516495291,0.670044,-0.0151978,0.728577,-0.141296
71516517790,0.68042,-0.0206909,0.718994,-0.139832
71516542399,0.691589,-0.0265503,0.708618,-0.137085
71516555300,0.703613,-0.0327759,0.697205,-0.13324
71516577818,0.715637,-0.039856,0.685181,-0.12915
71516616721,0.729431,-0.0446777,0.670837,-0.125793
71516622039,0.744141,-0.0477905,0.654846,-0.122742
71516637829,0.75946,-0.0506592,0.637512,-0.119019
71516660964,0.775391,-0.0535889,0.618713,-0.114197
71516682035,0.790588,-0.053833,0.599915,-0.109802
71516697794,0.808167,-0.0546265,0.576843,-0.105469
71516721018,0.827942,-0.0614624,0.5495,-0.0928955
71516742069,0.848999,-0.0689697,0.517212,-0.0824585
71516757028,0.863281,-0.0741577,0.49408,-0.0709229
71516772820,0.875977,-0.0812378,0.471375,-0.0617676
71516793866,0.878052,-0.0789795,0.466675,-0.0700073
71516817024,0.873535,-0.0790405,0.473633,-0.0792847
71516831356,0.869019,-0.0727539,0.480957,-0.0899048
71516853899,0.858643,-0.0645142,0.499023,-0.0971069
71516877080,0.844849,-0.0593872,0.521423,-0.103577
71516891398,0.825378,-0.0517578,0.550659,-0.11322
71516913930,0.800659,-0.0426636,0.585083,-0.121216
71516937087,0.770508,-0.0319824,0.623901,-0.126404
71516951338,0.736328,-0.0203247,0.66449,-0.12561
71516973925,0.698853,-0.0108643,0.705261,-0.118713
71516997105,0.658752,-0.00543213,0.744751,-0.106262
71517011429,0.615662,-0.00213623,0.782471,-0.0926514
71517049981,0.570557,0.000488281,0.817505,-0.0778198
71517058392,0.524353,0.00384521,0.848999,-0.0646362
71517071407,0.476807,0.0120239,0.877136,-0.0552368
71517093845,0.431274,0.0231323,0.900513,-0.0499268
71517117032,0.386902,0.0342407,0.920227,-0.0474854
71517131385,0.349854,0.0413818,0.934509,-0.0493774
71517199421,0.321594,0.0452271,0.944336,-0.0517578
71517233176,0.309998,0.0474854,0.947876,-0.0552368
71517239813,0.315186,0.0514526,0.945679,-0.0600586
71517240723,0.331726,0.0499268,0.939819,-0.0640869
71517241503,0.358093,0.0443115,0.929932,-0.0701294
71517251416,0.3797,0.0514526,0.919922,-0.0825195
71517273922,0.392517,0.0603027,0.913635,-0.0866699
71517297060,0.415466,0.0645142,0.90271,-0.0911255
71517311409,0.440613,0.0807495,0.886963,-0.112
71517333894,0.464905,0.0680542,0.874817,-0.117981
71517357076,0.482788,0.0718384,0.862671,-0.132324
71517371387,0.497437,0.0788574,0.852051,-0.142151
71517393914,0.511292,0.0755005,0.843567,-0.145569
71517417057,0.523376,0.0672607,0.836853,-0.145264
71517439361,0.535156,0.0581665,0.830322,-0.143799
71517470259,0.545227,0.0532837,0.82373,-0.146057
71517477478,0.553284,0.0535889,0.817444,-0.150879
71517493508,0.561218,0.0496826,0.811707,-0.153809
71517516802,0.569519,0.0411377,0.806519,-0.153015
71517546137,0.578613,0.0290527,0.801025,-0.150452
71517552870,0.58783,0.019165,0.794861,-0.148987
71517608061,0.596985,0.0119629,0.788208,-0.148682
71517629847,0.605835,0.00689697,0.781067,-0.15094
71517631486,0.615906,-0.000610352,0.773193,-0.150757
71517659868,0.62561,-0.00872803,0.765686,-0.149048
71517665186,0.635071,-0.0148926,0.758118,-0.147156
71517671390,0.645081,-0.0209351,0.75,-0.144531
71517702782,0.654907,-0.0275879,0.741577,-0.142395
71517724991,0.6651,-0.0340576,0.732422,-0.141479
71517742486,0.676636,-0.0408325,0.721558,-0.140625
71517753924,0.688782,-0.0471191,0.710022,-0.138489
71517777080,0.701782,-0.053772,0.697449,-0.134521
71517791404,0.715454,-0.0603638,0.683594,-0.130493
71517813954,0.730042,-0.0657349,0.668335,-0.126709
71517837101,0.745361,-0.0697632,0.651489,-0.123047
71517851442,0.760925,-0.0731812,0.633606,-0.118713
71517873881,0.776245,-0.0753174,0.615662,-0.112366
71517897084,0.79248,-0.076355,0.595642,-0.106445
71517911387,0.809631,-0.0789185,0.57312,-0.098877
71517935403,0.828003,-0.0865479,0.546387,-0.0909424
71517957138,0.844849,-0.090271,0.519104,-0.0925293
71517971476,0.857422,-0.0941772,0.498474,-0.0860596
71517993924,0.867493,-0.102112,0.480713,-0.0769653
71518017104,0.868591,-0.100281,0.478821,-0.0785522
71518031469,0.864258,-0.103943,0.485535,-0.0802612
71518053973,0.857544,-0.0956421,0.498352,-0.0838623
71518077131,0.847107,-0.0923462,0.516785,-0.0821533
71518091469,0.832336,-0.088562,0.540344,-0.0853271
71518114019,0.811523,-0.0811768,0.571472,-0.0904541
71518137178,0.784973,-0.0721436,0.608093,-0.093689
71518151487,0.754395,-0.0593872,0.646606,-0.0958862
71518174018,0.721252,-0.0477905,0.684814,-0.0919189
71518196389,0.684387,-0.0371704,0.723328,-0.0837402
71518211486,0.644653,-0.0275879,0.760376,-0.0735474
71518233980,0.602722,-0.0172729,0.795166,-0.0632935
71518256481,0.559509,-0.00738525,0.827087,-0.0524902
71518279622,0.513916,0.00622559,0.856689,-0.0435181
71518293962,0.467346,0.0216064,0.882996,-0.0361938
71518316433,0.422607,0.0379028,0.904846,-0.0335693
71518331439,0.378845,0.0533447,0.923279,-0.0341187
71518353974,0.342102,0.0631104,0.936829,-0.0355225
71518393543,0.318054,0.0615234,0.945374,-0.0342407
71518395908,0.314636,0.0548706,0.947021,-0.0318604
71518414022,0.326904,0.0462646,0.943359,-0.0313721
71518436489,0.347229,0.0367432,0.936462,-0.0330811
71518451488,0.372009,0.0424805,0.92627,-0.041626
71518473941,0.389709,0.0480957,0.918396,-0.0479126
71518496503,0.416321,0.0548706,0.905762,-0.0563354
71518511477,0.445618,0.0733032,0.888611,-0.079834
71518534036,0.470764,0.0646973,0.875122,-0.0909424
71518556406,0.489807,0.0703735,0.862183,-0.108093
71518571500,0.506287,0.0775757,0.85083,-0.116943
71518593952,0.521423,0.0680542,0.842346,-0.117676
71518616461,0.53418,0.057312,0.835327,-0.116516
71518631458,0.545837,0.046875,0.828552,-0.115234
71518654025,0.555359,0.0422974,0.821838,-0.119507
71518676587,0.563904,0.0411987,0.815125,-0.125977
71518691463,0.572266,0.038269,0.808716,-0.130188
71518714028,0.581787,0.0293579,0.802551,-0.128418
71518736500,0.591553,0.0153198,0.796631,-0.123108
71518751480,0.599854,0.00628662,0.79071,-0.121582
71518773996,0.608276,0.00421143,0.783875,-0.12439
71518796490,0.615967,0.00256348,0.777405,-0.126953
71518811454,0.623413,-0.00219727,0.771301,-0.128052
71518835456,0.632629,-0.00866699,0.763794,-0.127563
71518856501,0.641663,-0.0161133,0.756348,-0.12616
71518872929,0.650635,-0.0239868,0.748596,-0.124817
71518894022,0.660767,-0.0310669,0.739563,-0.123901
71518916543,0.671265,-0.0376587,0.72998,-0.12262
71518931483,0.681824,-0.0435791,0.720215,-0.120117
71518954069,0.692627,-0.0502319,0.710022,-0.116516
71518976495,0.703796,-0.0564575,0.699036,-0.112915
71518991462,0.716675,-0.0616455,0.686035,-0.109192
71519015429,0.730713,-0.0657349,0.671204,-0.105713
71519036457,0.745483,-0.0689087,0.654968,-0.101929
71519051462,0.760864,-0.0719604,0.637451,-0.09729
71519074034,0.776001,-0.0738525,0.619446,-0.0925293
71519096498,0.792786,-0.0753174,0.598389,-0.0874634
71519112907,0.810059,-0.0786133,0.575378,-0.0804443
71519133957,0.828979,-0.0879517,0.548096,-0.0675049
71519156499,0.847473,-0.0953369,0.518616,-0.0606689
71519172929,0.861084,-0.101379,0.495544,-0.0510254
71519193989,0.871521,-0.105469,0.476562,-0.0469971
71519216411,0.873413,-0.101318,0.473267,-0.0531616
71519232934,0.869385,-0.0988159,0.480774,-0.0566406
71519254026,0.863464,-0.0905151,0.492126,-0.0634155
71519277959,0.852417,-0.0834961,0.511597,-0.0682983
71519299028,0.838257,-0.0756226,0.534546,-0.076355
71519316884,0.818542,-0.0657349,0.564209,-0.0848999
71519336518,0.793457,-0.0545654,0.599304,-0.0904541
71519352992,0.763306,-0.041687,0.637695,-0.0946045
71519374007,0.729736,-0.0290527,0.676575,-0.0942383
71519396534,0.693176,-0.0180054,0.714966,-0.0894165
71519413586,0.653503,-0.00946045,0.752502,-0.0805664
71519433971,0.611328,-0.00311279,0.788269,-0.0695801
71519464714,0.567566,0.0022583,0.821106,-0.0596924
71519472934,0.522949,0.010498,0.850647,-0.0529785
71519496856,0.477112,0.0219727,0.877197,-0.048645
71519541021,0.4328,0.0335693,0.899597,-0.046875
71519543415,0.392029,0.0448608,0.917603,-0.0472412
71519553991,0.353516,0.0518799,0.932739,-0.0473633
71519576513,0.325134,0.0539551,0.942871,-0.0477905
71519592981,0.314026,0.0524902,0.946716,-0.0475464
71519614013,0.320679,0.0490723,0.94458,-0.0498047
71519630479,0.338013,0.0439453,0.938538,-0.0541382
71519654406,0.361633,0.0419922,0.929199,-0.0630493
71519673920,0.382446,0.0662231,0.917725,-0.0841064
71519696453,0.400452,0.0735474,0.908691,-0.0917358
71519714429,0.429138,0.0758057,0.894226,-0.101562
71519742231,0.456482,0.0787964,0.878296,-0.118103
71519757957,0.479614,0.0716553,0.864441,-0.132141
71519772981,0.494812,0.0811768,0.852295,-0.148499
71519796880,0.511292,0.079834,0.841553,-0.154846
71519810411,0.524597,0.0737305,0.833374,-0.157288
71519832912,0.539368,0.0661621,0.825012,-0.154846
71519863634,0.552429,0.0588379,0.81665,-0.156189
71519870381,0.564148,0.0546265,0.807922,-0.160889
71519892987,0.572571,0.0507202,0.801453,-0.164734
71519913945,0.579407,0.0427856,0.797058,-0.164551
71519930520,0.585938,0.0311279,0.793335,-0.162109
71519952980,0.593445,0.0223389,0.788391,-0.160278
71519974044,0.600952,0.0158081,0.782898,-0.159851
71519991923,0.609558,0.00915527,0.776489,-0.159241
71520014398,0.620117,0.000427246,0.768616,-0.156738
71520035441,0.630737,-0.00952148,0.760498,-0.153992
71520050440,0.640747,-0.0184937,0.752075,-0.152954
71520072938,0.651367,-0.0247803,0.742798,-0.15271
71520095408,0.66272,-0.0307007,0.732788,-0.151062
71520111859,0.67395,-0.0365601,0.722717,-0.148438
71520132953,0.685181,-0.0424194,0.712463,-0.145264
71520155510,0.69635,-0.0476685,0.701782,-0.142395
71520171899,0.707886,-0.0514526,0.690491,-0.139282
71520193018,0.719543,-0.0548706,0.678711,-0.136108
71520215464,0.731995,-0.0582886,0.665405,-0.133972
71520231937,0.745361,-0.0610352,0.650574,-0.131958
71520254369,0.75946,-0.0627441,0.634216,-0.130249
71520274677,0.773865,-0.0650024,0.617249,-0.125793
71520297192,0.788269,-0.0703735,0.600342,-0.114624
71520312135,0.806519,-0.0800781,0.57782,-0.0957031
71520336130,0.826599,-0.0977783,0.549377,-0.0722046
71520357161,0.846802,-0.107666,0.516174,-0.0697021
71520387832,0.860657,-0.106873,0.492615,-0.0713501
71520401877,0.870728,-0.107178,0.473511,-0.0780029
71520417218,0.871338,-0.0960693,0.472168,-0.0924683
71520432252,0.866821,-0.0864258,0.480408,-0.101318
71520454693,0.86084,-0.0723267,0.492004,-0.107422
71520477212,0.851624,-0.0649414,0.509766,-0.103027
71520492181,0.836975,-0.057312,0.534912,-0.100037
71520514681,0.817383,-0.0478516,0.565369,-0.0997314
71520537882,0.792114,-0.0363159,0.600952,-0.100159
71520552234,0.762512,-0.0253906,0.638977,-0.0977783
71520576137,0.729736,-0.013855,0.677002,-0.0944824
71520597169,0.692505,-0.00201416,0.715698,-0.0899658
71520612175,0.652283,0.00817871,0.753235,-0.0838013
71520634640,0.609863,0.0176392,0.788391,-0.078186
71520657189,0.565857,0.0256958,0.820923,-0.0717773
71520672194,0.52063,0.0344849,0.850464,-0.065918
71520694670,0.473694,0.0444336,0.87738,-0.06073
71520717185,0.427429,0.0521851,0.900757,-0.0556641
71520732140,0.384827,0.0565796,0.9198,-0.0508423
71520754711,0.344116,0.0551147,0.936218,-0.0445557
71520777135,0.313416,0.0466919,0.947632,-0.0388794
71520792137,0.303162,0.0376587,0.951477,-0.0366821
71520814695,0.310913,0.0365601,0.948792,-0.0412598
71520837208,0.328735,0.0376587,0.942322,-0.0498047
71520852275,0.352234,0.0437622,0.932556,-0.0648804
71520874691,0.372559,0.0751953,0.920288,-0.0925903
71520897192,0.386475,0.0864868,0.912598,-0.101501
71520912230,0.413757,0.0863037,0.899475,-0.110535
71520934635,0.441101,0.0950317,0.882874,-0.129761
71520957118,0.465515,0.0804443,0.8703,-0.139099
71520972179,0.481323,0.0860596,0.858826,-0.15271
71520994750,0.497437,0.0846558,0.848877,-0.157227
71521017161,0.512024,0.0770264,0.840881,-0.157227
71521032163,0.526184,0.067749,0.833252,-0.155396
71521054730,0.536621,0.0629272,0.826538,-0.157715
71521070456,0.544067,0.0618896,0.820679,-0.162842
71521093632,0.552124,0.0601807,0.814575,-0.166992
71521114725,0.559937,0.053894,0.80957,-0.167419
71521130545,0.568726,0.0432739,0.804688,-0.164551
71521153635,0.577637,0.0343628,0.799072,-0.162964
71521175367,0.585693,0.0283203,0.793335,-0.163391
71521198622,0.593811,0.0228882,0.787354,-0.164001
71521214151,0.602844,0.0160522,0.780701,-0.163696
71521236125,0.612976,0.00817871,0.773071,-0.162598
71521250390,0.623108,0.0010376,0.765259,-0.161194
71521281158,0.634094,-0.00512695,0.756348,-0.1604
71521294767,0.646057,-0.00994873,0.746399,-0.159119
71521310499,0.65863,-0.0151978,0.735718,-0.156799
71521333608,0.671692,-0.0219727,0.724365,-0.153442
71521354696,0.684509,-0.0299683,0.712769,-0.149719
71521370436,0.697571,-0.0367432,0.700195,-0.147278
71521393682,0.710815,-0.0414429,0.68689,-0.145142
71521416074,0.724426,-0.0465698,0.673096,-0.141113
71521430451,0.738525,-0.0516968,0.658447,-0.135376
71521453593,0.752991,-0.0553589,0.6427,-0.129639
71521482224,0.767578,-0.0576172,0.626038,-0.124756
71521498602,0.781616,-0.0579834,0.609314,-0.120117
71521521157,0.798828,-0.0595703,0.587036,-0.116638
71521534509,0.817444,-0.0678101,0.561646,-0.107666
71521551978,0.836365,-0.0764771,0.532532,-0.104675
71521574115,0.85199,-0.0855103,0.507874,-0.0936279
71521594726,0.864197,-0.0969849,0.486572,-0.0831299
71521619041,0.865967,-0.100586,0.482605,-0.0834961
71521633580,0.860596,-0.103943,0.492126,-0.0794678
71521656973,0.855347,-0.0999756,0.50177,-0.0808716
71521677261,0.84491,-0.0991821,0.519653,-0.0788574
71521694118,0.830688,-0.0986938,0.54187,-0.0807495
71521714735,0.811157,-0.0928955,0.570435,-0.0889282
71521730442,0.7854,-0.0827026,0.605164,-0.10022
71521761189,0.754456,-0.0687866,0.643555,-0.108887
71521774709,0.71991,-0.0541992,0.683105,-0.109924
71521790465,0.682007,-0.0407715,0.722778,-0.103577
71521813604,0.641907,-0.0307007,0.760681,-0.0913696
71521834732,0.599182,-0.0236816,0.796509,-0.0768433
71521850477,0.554626,-0.0181274,0.829529,-0.0621948
71521872179,0.508118,-0.0101318,0.859619,-0.0515137
71521894652,0.459412,0.00317383,0.887024,-0.0447998
71521910406,0.411865,0.0202026,0.909973,-0.0426636
71521931506,0.364624,0.0390625,0.92926,-0.0441284
71521954726,0.325073,0.0537109,0.942932,-0.0469971
71521970472,0.298401,0.0581055,0.951416,-0.0484009
71521991569,0.294556,0.0530396,0.952881,-0.0480957
71522014724,0.306946,0.0491943,0.949036,-0.0515137
71522030460,0.328674,0.0482788,0.941406,-0.0574951
71522051551,0.349243,0.0723267,0.931335,-0.072998
71522074742,0.370728,0.0667114,0.922974,-0.0785522
71522090517,0.402954,0.0714722,0.907898,-0.09021
71522111540,0.430176,0.0673218,0.894287,-0.103027
71522134714,0.453613,0.0628052,0.881042,-0.118042
71522150526,0.469482,0.0732422,0.869507,-0.13446
71522171603,0.487488,0.0748291,0.858337,-0.141357
71522194690,0.502563,0.0689087,0.849915,-0.142334
71522210536,0.516724,0.0574341,0.842773,-0.139099
71522231506,0.528442,0.0472412,0.836182,-0.138733
71522254688,0.536316,0.0458984,0.830322,-0.144104
71522270449,0.543579,0.0458984,0.824524,-0.149841
71522291574,0.549133,0.0415039,0.820923,-0.150879
71522314706,0.554871,0.0322876,0.817932,-0.148315
71522330482,0.561401,0.024353,0.81427,-0.145447
71522351535,0.567322,0.0195312,0.810425,-0.144714
71522399789,0.57373,0.0160522,0.805786,-0.145386
71522405398,0.58075,0.0117188,0.800781,-0.145569
71522419722,0.588501,0.00579834,0.79541,-0.144653
71522443663,0.597168,-0.0010376,0.789062,-0.143677
71522450482,0.607544,-0.0078125,0.78125,-0.142822
71522472987,0.620117,-0.0152588,0.771484,-0.141418
71522494780,0.635376,-0.0214233,0.759338,-0.138245
71522510500,0.650879,-0.031189,0.746765,-0.13269
71522531594,0.667053,-0.041748,0.732849,-0.127136
71522554688,0.683228,-0.050354,0.717834,-0.123474
71522593530,0.699463,-0.0561523,0.701965,-0.12146
71522595953,0.715576,-0.0606689,0.685425,-0.119751
71522622181,0.731567,-0.0643311,0.668457,-0.117004
71522630487,0.747925,-0.0683594,0.650635,-0.111755
71522659680,0.764343,-0.0714111,0.63208,-0.105286
71522674688,0.779663,-0.0734863,0.614136,-0.097168
71522698576,0.797852,-0.0786743,0.591553,-0.0853882
71522712993,0.816833,-0.0883789,0.56543,-0.0718384
71522734651,0.837097,-0.0917969,0.533936,-0.0754395
71522750465,0.852844,-0.0896606,0.50824,-0.0787964
71522774484,0.864258,-0.0881348,0.488403,-0.0821533
71522794715,0.867065,-0.0822144,0.482483,-0.0924683
71522810921,0.865051,-0.0789185,0.484802,-0.101868
71522832974,0.861084,-0.072876,0.491028,-0.109558
71522856195,0.850403,-0.0606079,0.509399,-0.116394
71522877237,0.836975,-0.052124,0.53186,-0.117615
71522892973,0.817749,-0.0405884,0.560974,-0.12207
71522915497,0.792786,-0.0291748,0.596313,-0.122131
71522938652,0.762634,-0.0178833,0.635376,-0.119507
71522974477,0.728699,-0.00640869,0.675415,-0.112671
71523006687,0.692261,0.00109863,0.714478,-0.101379
71523009082,0.653015,0.0055542,0.751953,-0.0898438
71523014423,0.611023,0.0116577,0.78717,-0.0825195
71523035428,0.567017,0.0188599,0.819763,-0.078064
71523058632,0.521362,0.0288086,0.849304,-0.0770874
71523073043,0.474243,0.0420532,0.875793,-0.0787354
71523119109,0.429871,0.0512085,0.897949,-0.0786743
71523149213,0.385864,0.0562134,0.917542,-0.0770264
71523151630,0.348511,0.0562744,0.932617,-0.0740356
71523157007,0.320801,0.0487671,0.943359,-0.0688477
71523178622,0.308472,0.0370483,0.948242,-0.0645752
71523193033,0.312134,0.0292358,0.947266,-0.0653687
71523215472,0.326111,0.0291748,0.942017,-0.0730591
71523238748,0.345764,0.0380859,0.933289,-0.0886841
71523259834,0.364563,0.079834,0.920044,-0.118896
71523275532,0.378235,0.0964966,0.911255,-0.131042
71523323221,0.411072,0.0975952,0.895325,-0.140808
71523328618,0.440857,0.105896,0.877197,-0.157654
71523335473,0.468384,0.0943604,0.86261,-0.166016
71523358681,0.487244,0.0951538,0.850403,-0.17395
71523379746,0.505981,0.0852661,0.840271,-0.174927
71523395566,0.522339,0.0779419,0.830933,-0.174805
71523418784,0.539307,0.0733032,0.820679,-0.173828
71523439763,0.553833,0.0664062,0.811279,-0.174927
71523487488,0.566345,0.0615234,0.802429,-0.177429
71523492891,0.577271,0.0560913,0.794678,-0.178833
71523499735,0.585571,0.0473022,0.789368,-0.178101
71523515509,0.593689,0.0385132,0.783997,-0.176941
71523538646,0.601074,0.0327148,0.778564,-0.177185
71523559817,0.607605,0.0300293,0.77301,-0.179626
71523575482,0.614807,0.0285645,0.766907,-0.181519
71523598784,0.622742,0.0252075,0.760498,-0.182007
71523619791,0.631287,0.0214233,0.75354,-0.182068
71523651662,0.640747,0.017334,0.745667,-0.181763
71523666129,0.650452,0.0131226,0.737427,-0.181335
71523681160,0.661011,0.00823975,0.72821,-0.180786
71523695500,0.671936,0.003479,0.718384,-0.179871
71523718817,0.683411,-0.00158691,0.707947,-0.177979
71523739786,0.695251,-0.00726318,0.69696,-0.175293
71523755544,0.707886,-0.0120239,0.684998,-0.171509
71523778640,0.721802,-0.0166016,0.671143,-0.167969
71523799713,0.73645,-0.0198364,0.655823,-0.164551
71523840021,0.752197,-0.0228271,0.638672,-0.160339
71523852013,0.768372,-0.0254517,0.620422,-0.154968
71523861764,0.784302,-0.0269165,0.602051,-0.147095
71523874795,0.80249,-0.0296631,0.579895,-0.137085
71523889096,0.822205,-0.0375366,0.554871,-0.120972
71523911610,0.843567,-0.0428467,0.523254,-0.112549
71523934738,0.860413,-0.0493164,0.496338,-0.104065
71523948986,0.872681,-0.0529175,0.475403,-0.0979614
71523971582,0.875671,-0.0504761,0.468933,-0.103455
71523994794,0.871033,-0.0502319,0.475891,-0.110413
71524026624,0.866882,-0.0478516,0.482483,-0.115479
71524043295,0.855835,-0.0365601,0.501038,-0.122925
71524054523,0.84137,-0.0301514,0.524536,-0.126282
71524069109,0.82135,-0.0220947,0.554321,-0.132629
71524091585,0.796265,-0.0144653,0.589233,-0.135864
71524114790,0.765869,-0.00592041,0.628052,-0.13739
71524129111,0.731689,0.00494385,0.667908,-0.135803
71524151628,0.69519,0.0133667,0.707031,-0.128723
71524197654,0.656067,0.0198975,0.745117,-0.117737
71524222441,0.614868,0.0250854,0.781128,-0.105286
71524227273,0.572083,0.0292969,0.81427,-0.0935669
71524234817,0.527771,0.0365601,0.844238,-0.0855103
71524249112,0.482056,0.0477905,0.870972,-0.081604
71524271606,0.437256,0.0620728,0.893433,-0.081665
71524294684,0.395813,0.0766602,0.911133,-0.0845337
71524309021,0.356812,0.0875854,0.925964,-0.086853
71524331593,0.328125,0.09021,0.936218,-0.086853
71524371068,0.31543,0.0841675,0.941467,-0.0837402
71524373514,0.320862,0.0741577,0.940735,-0.0806885
71524403245,0.338013,0.0630493,0.935547,-0.0803833
71524414757,0.363953,0.0578003,0.925537,-0.0864258
71524429072,0.377808,0.0757446,0.917297,-0.100098
71524451625,0.403259,0.0742188,0.905884,-0.105469
71524474822,0.433472,0.0854492,0.888245,-0.12561
71524489086,0.462036,0.0748291,0.872986,-0.136902
71524511597,0.483582,0.0784912,0.858337,-0.152222
71524551130,0.501221,0.0809326,0.84613,-0.161743
71524553450,0.515869,0.0756226,0.837158,-0.1651
71524590787,0.529053,0.0703735,0.829285,-0.165588
71524596190,0.53949,0.0661621,0.822693,-0.166321
71524609136,0.547058,0.0620117,0.817322,-0.169617
71524631606,0.551941,0.059021,0.813354,-0.174072
71524654792,0.556213,0.0536499,0.810547,-0.175354
71524669077,0.560303,0.0454712,0.808594,-0.173401
71524691633,0.565125,0.038269,0.806152,-0.170776
71524722050,0.570618,0.0331421,0.802917,-0.168945
71524731986,0.576599,0.0288696,0.799072,-0.167725
71524767858,0.583435,0.0229492,0.794617,-0.166138
71524774819,0.591492,0.0169067,0.789001,-0.1651
71524789119,0.599976,0.0132446,0.782654,-0.165039
71524811586,0.609131,0.0098877,0.775696,-0.16449
71524834163,0.620239,0.00598145,0.767273,-0.162537
71524849008,0.631653,6.10352e-05,0.758606,-0.159668
71524871555,0.643433,-0.00683594,0.748962,-0.158081
71524919019,0.656921,-0.0115967,0.737061,-0.157898
71524934042,0.672485,-0.0187988,0.723022,-0.15686
71524947905,0.690491,-0.0263062,0.705872,-0.15564
71524953976,0.7099,-0.0341187,0.686401,-0.15387
71524969039,0.728943,-0.0411377,0.66626,-0.151489
71524991588,0.747864,-0.0481567,0.645203,-0.14856
71525014137,0.766418,-0.0549927,0.623413,-0.144592
71525029151,0.784668,-0.0598145,0.601013,-0.139404
71525051555,0.803589,-0.0648804,0.57666,-0.132141
71525082735,0.821838,-0.0670166,0.551697,-0.124939
71525105443,0.840088,-0.071228,0.525696,-0.113159
71525111666,0.853882,-0.0714722,0.503601,-0.109924
71525134046,0.867981,-0.0708618,0.480286,-0.104126
71525149089,0.877991,-0.0718384,0.462341,-0.100525
71525171591,0.881165,-0.0680542,0.456726,-0.101013
71525194159,0.877197,-0.0679932,0.463257,-0.10614
71525209122,0.871887,-0.0594482,0.47168,-0.117249
71525231670,0.862549,-0.0522461,0.487427,-0.125122
71525262843,0.849365,-0.0431519,0.508667,-0.133972
71525288340,0.831421,-0.03302,0.536621,-0.140015
71525301168,0.809143,-0.0244141,0.570312,-0.139343
71525314047,0.783081,-0.0170288,0.607178,-0.133301
71525329111,0.753357,-0.0100708,0.645447,-0.124939
71525351626,0.720093,-0.00494385,0.684509,-0.113098
71525374130,0.684265,-0.00274658,0.72229,-0.0997314
71525389085,0.645081,0.00012207,0.75885,-0.0895386
71525411588,0.603516,0.0055542,0.792847,-0.0842285
71525442908,0.560364,0.0144653,0.82373,-0.0844727
71525449093,0.514893,0.0285645,0.852051,-0.0892334
71525479759,0.468933,0.0440674,0.877014,-0.0942383
71525494157,0.424866,0.057373,0.898132,-0.09729
71525509117,0.386597,0.0667114,0.914673,-0.0968018
71525531584,0.351501,0.0706787,0.928833,-0.0928955
71525554106,0.33197,0.0633545,0.937256,-0.0848389
71525569119,0.333374,0.0524902,0.937988,-0.0789795
71525591659,0.3479,0.0457153,0.933044,-0.0786743
71525614096,0.368591,0.0442505,0.924622,-0.0846558
71525637313,0.389832,0.0605469,0.913208,-0.101624
71525651593,0.402527,0.0665894,0.905762,-0.114197
71525674113,0.431763,0.065979,0.891296,-0.121277
71525689090,0.45874,0.0733643,0.874268,-0.140808
71525711547,0.484802,0.0643921,0.858643,-0.153259
71525734152,0.502563,0.0668335,0.845703,-0.16626
71525750592,0.521057,0.0617065,0.833984,-0.170654
71525771616,0.53772,0.0542603,0.823792,-0.170959
71525794090,0.552246,0.0476074,0.814209,-0.172485
71525810628,0.563232,0.0454712,0.805725,-0.177368
71525831648,0.572083,0.0454712,0.798096,-0.183228
71525854097,0.581238,0.041626,0.791016,-0.186096
71525870556,0.591003,0.0319214,0.784546,-0.184631
71525891613,0.60144,0.0200806,0.777649,-0.181763
71525914161,0.611511,0.0108643,0.770142,-0.180725
71525930638,0.620239,0.00561523,0.763123,-0.18103
71525951738,0.629211,0.00012207,0.756409,-0.178467
71525982386,0.637085,-0.00646973,0.750061,-0.177307
71525990588,0.645447,-0.0106812,0.74292,-0.17688
71526011590,0.654175,-0.0130005,0.735168,-0.177002
71526034191,0.66394,-0.0150146,0.726501,-0.176208
71526050618,0.674377,-0.0184326,0.717163,-0.174438
71526079800,0.68457,-0.0229492,0.70752,-0.173706
71526094116,0.694153,-0.0266113,0.697937,-0.17395
71526110578,0.703918,-0.0303955,0.688354,-0.17218
71526131636,0.714539,-0.0354614,0.677979,-0.168457
71526154154,0.726135,-0.0404663,0.666138,-0.165222
71526170569,0.738647,-0.0437012,0.652527,-0.163147
71526199786,0.752258,-0.0459595,0.637085,-0.161194
