timestamp,x,y,z,w
65245229799,0.143982,-0.0446777,0.00463867,0.988525
65245260621,0.14093,-0.0349121,0.00921631,0.989319
65245261329,0.137634,-0.0248413,0.0136719,0.990051
65245291110,0.133301,-0.0146484,0.0183105,0.990784
65245297957,0.127808,-0.00445557,0.0230713,0.991455
65245320475,0.121643,0.00579834,0.0281372,0.992126
65245334956,0.11554,0.0161133,0.0332031,0.992554
65245358132,0.109985,0.0257568,0.0375366,0.992859
65245388783,0.10498,0.0340576,0.0408936,0.993042
65245394878,0.100525,0.0410767,0.0436401,0.993103
65245418186,0.0968628,0.0473633,0.0461426,0.993042
65245440680,0.0946655,0.0529175,0.0480957,0.99292
65245454951,0.0941772,0.0579224,0.0493774,0.992615
65245477988,0.0948486,0.0626831,0.050415,0.992188
65245500632,0.0955811,0.0671997,0.0512695,0.99176
65245515007,0.0951538,0.0710449,0.0522461,0.991516
65245538183,0.0941772,0.0743408,0.0534058,0.991272
65245560731,0.0938721,0.0773926,0.0545044,0.991028
65245575019,0.0940552,0.0802002,0.055603,0.990723
65245597994,0.0939941,0.0830688,0.0564575,0.990479
65245620534,0.0932617,0.0855103,0.0568848,0.990295
65245634843,0.0925293,0.0871582,0.0570679,0.990234
65245665560,0.0923462,0.0883789,0.057312,0.990112
65245680598,0.0924072,0.0899048,0.0578003,0.989929
65245694871,0.0927124,0.0913696,0.0581055,0.989746
65245717959,0.0926514,0.0925293,0.0581665,0.989624
65245740685,0.0922241,0.0933228,0.0581665,0.989624
65245756344,0.0922852,0.0939941,0.0580444,0.989563
65245779449,0.0928345,0.0946045,0.0576782,0.989441
65245800607,0.0934448,0.0952759,0.0570068,0.98938
65245815029,0.0942383,0.0957642,0.0559692,0.989319
65245838088,0.0950317,0.0958252,0.0546875,0.989319
65245860592,0.0961304,0.0955811,0.0533447,0.989319
65245875113,0.0977783,0.0951538,0.0518799,0.989258
65245898135,0.0998535,0.0943604,0.0502319,0.989197
65245920673,0.102112,0.0929565,0.0484009,0.989197
65245936337,0.104492,0.0913086,0.0465698,0.989197
65245958002,0.106934,0.0894165,0.0447998,0.989197
65245980590,0.10968,0.0872803,0.0429688,0.989136
65245996284,0.112732,0.085083,0.0410156,0.989075
65246017981,0.11615,0.0828247,0.0390015,0.988953
65246040552,0.119629,0.0805664,0.0369263,0.988831
65246056266,0.123047,0.078186,0.0349121,0.988647
65246078104,0.126526,0.0755615,0.0331421,0.988464
65246100554,0.130127,0.072937,0.0314941,0.988281
65246118350,0.134155,0.0702515,0.0297852,0.987976
65246138167,0.138367,0.0672607,0.0278931,0.987671
65246160617,0.1427,0.0641479,0.026123,0.987305
65246176334,0.146484,0.0609131,0.0244751,0.987
65246198228,0.149475,0.0576172,0.022644,0.986816
65246220687,0.152466,0.0539551,0.0203857,0.986572
65246236290,0.155945,0.0499878,0.0179443,0.986328
65246258832,0.159729,0.0456543,0.0153809,0.985962
65246280529,0.163818,0.0408936,0.0128784,0.985535
65246296259,0.167603,0.0358276,0.0103149,0.985107
65246318761,0.171265,0.0303955,0.00750732,0.98468
65246340329,0.174988,0.0246582,0.00439453,0.984192
65246356261,0.178894,0.0186768,0.00109863,0.983643
65246378772,0.183167,0.012207,-0.00250244,0.982971
65246401954,0.187317,0.00567627,-0.00598145,0.982239
65246416372,0.191528,-0.000671387,-0.00952148,0.981384
65246438804,0.195862,-0.00695801,-0.0133667,0.980469
65246461972,0.200317,-0.0133667,-0.0172729,0.979431
65246476341,0.205017,-0.0199585,-0.0214233,0.978271
65246498851,0.209412,-0.0264893,-0.0253296,0.977112
65246521959,0.213623,-0.0327759,-0.0291748,0.975891
65246536207,0.217346,-0.0390015,-0.0330811,0.974731
65246558762,0.220825,-0.0453491,-0.0369263,0.973511
65246581904,0.224487,-0.0518188,-0.0405273,0.972229
65246596312,0.227905,-0.0582886,-0.0439453,0.970886
65246618782,0.230652,-0.0645142,-0.0473022,0.969727
65246641963,0.233215,-0.0704346,-0.0507202,0.968506
65246663008,0.235596,-0.0761108,-0.053894,0.967346
65246678775,0.23822,-0.081604,-0.0568237,0.966064
65246701981,0.241028,-0.0870972,-0.0594482,0.964722
65246723240,0.243774,-0.0924072,-0.0620728,0.963379
65246738859,0.246094,-0.09729,-0.0644531,0.962158
65246761966,0.248047,-0.101685,-0.0664673,0.96106
65246783210,0.250183,-0.105835,-0.0683594,0.959961
65246798837,0.252319,-0.109863,-0.0698853,0.958801
65246821975,0.254333,-0.113708,-0.0712891,0.957703
65246842996,0.255981,-0.11731,-0.0723877,0.956787
65246858821,0.25708,-0.120361,-0.0731201,0.956055
65246881941,0.258118,-0.123169,-0.0737305,0.955383
65246903001,0.25946,-0.125854,-0.0740967,0.95459
65246918839,0.261597,-0.128113,-0.0739136,0.953735
65246942013,0.264282,-0.129883,-0.0733643,0.95282
65246963092,0.266663,-0.130737,-0.0725708,0.952087
65246978868,0.268433,-0.131104,-0.0720825,0.951599
65247001980,0.269531,-0.131348,-0.0717163,0.951294
65247023053,0.270691,-0.131226,-0.071228,0.950989
65247038861,0.271912,-0.130798,-0.0704956,0.950745
65247062844,0.272705,-0.130188,-0.0697632,0.950684
65247083669,0.272888,-0.129639,-0.0691528,0.950745
65247098803,0.272583,-0.129395,-0.0684814,0.950867
65247121929,0.2724,-0.129272,-0.0678711,0.950989
65247143235,0.2724,-0.129395,-0.0667725,0.95105
65247158862,0.272461,-0.129395,-0.0653687,0.951172
65247181961,0.27179,-0.129456,-0.0639648,0.951416
65247203057,0.270325,-0.129822,-0.062561,0.951904
65247218863,0.268433,-0.129944,-0.060791,0.952515
65247241340,0.267029,-0.130066,-0.0587769,0.953064
65247263046,0.266235,-0.130371,-0.0563965,0.953369
65247278812,0.265442,-0.130676,-0.0542603,0.953613
65247301305,0.264343,-0.131287,-0.0526733,0.953979
65247323038,0.262756,-0.132019,-0.0516968,0.954346
65247338814,0.261169,-0.132751,-0.0512695,0.954712
65247361299,0.260437,-0.133362,-0.0509033,0.954834
65247384491,0.260864,-0.133789,-0.0505371,0.954712
65247398749,0.262146,-0.13446,-0.0506592,0.954224
65247421373,0.263916,-0.135376,-0.0510864,0.953613
65247444636,0.265625,-0.135925,-0.0513306,0.953003
65247458853,0.266907,-0.136292,-0.0516357,0.952576
65247481379,0.268066,-0.136658,-0.052002,0.952209
65247504587,0.268677,-0.137024,-0.052002,0.951965
65247518841,0.269287,-0.137024,-0.0517578,0.951843
65247541349,0.27002,-0.136902,-0.0512695,0.95166
65247572417,0.270691,-0.136963,-0.0507812,0.951477
65247578788,0.271179,-0.136902,-0.0501709,0.951416
65247601324,0.271484,-0.136658,-0.0496216,0.951355
65247624520,0.271667,-0.136475,-0.0492554,0.951355
65247638897,0.27179,-0.136536,-0.0490112,0.951355
65247661409,0.272095,-0.13623,-0.048584,0.951294
65247684576,0.272766,-0.135559,-0.0480347,0.951233
65247698893,0.273682,-0.135132,-0.0474854,0.95105
65247721338,0.274231,-0.134766,-0.046936,0.950989
65247744537,0.274231,-0.134338,-0.0463257,0.951111
65247758825,0.273926,-0.133911,-0.0458374,0.951233
65247781357,0.273682,-0.133728,-0.0454102,0.951355
65247804531,0.273743,-0.133362,-0.0449829,0.951416
65247818811,0.27417,-0.132874,-0.0445557,0.951416
65247841351,0.274719,-0.132507,-0.0443115,0.951294
65247864498,0.275391,-0.132263,-0.0442505,0.951111
65247885744,0.27594,-0.131897,-0.0440674,0.95105
65247901759,0.276733,-0.131104,-0.0439453,0.950928
65247924620,0.27771,-0.13031,-0.0440063,0.950745
65247945604,0.278931,-0.129272,-0.0439453,0.9505
65247969537,0.280334,-0.127808,-0.0438232,0.950317
65247984525,0.281738,-0.126099,-0.0435181,0.950134
65248005332,0.282837,-0.124512,-0.0436401,0.950012
65248022778,0.28363,-0.123169,-0.0441284,0.949951
65248044484,0.284241,-0.121948,-0.0448608,0.94989
65248065548,0.285095,-0.120483,-0.0449219,0.949829
65248081284,0.287231,-0.118713,-0.0448608,0.949402
65248104511,0.289062,-0.117188,-0.045166,0.948975
65248125815,0.289917,-0.115967,-0.0458374,0.948853
65248140761,0.2901,-0.115051,-0.0466919,0.948853
65248155031,0.289673,-0.114624,-0.0476074,0.948975
65248177561,0.289246,-0.114502,-0.0482178,0.949158
65248200777,0.288574,-0.114075,-0.0482788,0.949402
65248215027,0.28772,-0.113159,-0.0479736,0.949768
65248237580,0.286499,-0.112183,-0.0473022,0.950256
65248260755,0.28418,-0.110779,-0.0463867,0.951172
65248275189,0.279968,-0.108887,-0.0452881,0.952698
65248297527,0.27417,-0.106506,-0.0445557,0.954712
65248320757,0.267639,-0.104187,-0.0443115,0.956787
65248335057,0.262146,-0.101746,-0.0437012,0.958618
65248357388,0.258484,-0.0984497,-0.0421753,0.960022
65248380655,0.255249,-0.0943604,-0.0401001,0.961365
65248394967,0.251099,-0.0894775,-0.0380859,0.963013
65248417476,0.245605,-0.0839233,-0.0357056,0.965027
65248440705,0.239746,-0.0774536,-0.0327148,0.967163
65248455035,0.234314,-0.069519,-0.0288086,0.969177
65248477612,0.229248,-0.0599976,-0.024353,0.971191
65248500741,0.223938,-0.0490723,-0.0197754,0.973145
65248515115,0.218811,-0.0371704,-0.0151978,0.974915
65248537539,0.214417,-0.0252686,-0.0111084,0.976318
65248560792,0.210999,-0.0135498,-0.00708008,0.977295
65248575109,0.208008,-0.0010376,-0.00323486,0.978088
65248597405,0.204224,0.0127563,6.10352e-05,0.978821
65248620721,0.199463,0.0272217,0.00250244,0.979492
65248635091,0.194458,0.0409546,0.00390625,0.980042
65248657487,0.190002,0.0530396,0.00445557,0.980286
65248680633,0.186768,0.0640869,0.0043335,0.980286
65248695010,0.183411,0.0759277,0.0043335,0.980042
65248717577,0.178711,0.0883179,0.00488281,0.979858
65248740764,0.172241,0.0996704,0.00402832,0.979919
65248754979,0.166138,0.109009,0.0010376,0.980042
65248777607,0.161438,0.11792,-0.00274658,0.979797
65248800699,0.155457,0.128113,-0.00720215,0.979431
65248814956,0.146912,0.137939,-0.0129395,0.97937
65248837383,0.138611,0.144836,-0.0206299,0.979431
65248860597,0.13324,0.149475,-0.0284424,0.979309
65248874940,0.130981,0.152527,-0.0363159,0.978882
65248897366,0.1297,0.154419,-0.0442505,0.978394
65248920568,0.127319,0.15625,-0.052124,0.978027
65248934972,0.123047,0.159119,-0.0593262,0.977722
65248957383,0.117126,0.164062,-0.0658569,0.977234
65248980618,0.111328,0.170654,-0.0716553,0.976379
65248996375,0.106873,0.177612,-0.0773315,0.975159
65249017409,0.10437,0.184937,-0.083252,0.973633
65249040828,0.103699,0.19342,-0.0880737,0.971619
65249055139,0.103699,0.202759,-0.0913696,0.96936
65249077596,0.102722,0.212036,-0.093689,0.967285
65249100589,0.100403,0.221008,-0.0951538,0.965393
65249114892,0.0984497,0.227539,-0.097168,0.963867
65249137582,0.0995483,0.234314,-0.0991821,0.961914
65249160823,0.102478,0.243286,-0.0986328,0.959412
65249175106,0.104492,0.251953,-0.0966797,0.957153
65249197496,0.103577,0.258972,-0.0958252,0.955505
65249220582,0.102173,0.263733,-0.0953979,0.954346
65249235014,0.101135,0.267212,-0.0962524,0.95343
65249257608,0.102478,0.271729,-0.0958252,0.952026
65249280000,0.104431,0.278137,-0.0944824,0.950134
65249295044,0.10614,0.284363,-0.0932007,0.948242
65249317491,0.106262,0.290283,-0.0916138,0.946594
65249339949,0.104675,0.297668,-0.0890503,0.944702
65249356021,0.10553,0.305908,-0.0874023,0.942078
65249377418,0.108032,0.315735,-0.0863037,0.93866
65249399900,0.110229,0.324097,-0.0861816,0.935547
65249415053,0.112366,0.329895,-0.086792,0.933228
65249437637,0.113403,0.334595,-0.0880737,0.931335
65249460111,0.112976,0.338928,-0.0899658,0.929626
65249475025,0.11261,0.342712,-0.0930176,0.927979
65249497503,0.113831,0.346008,-0.0973511,0.926147
65249520128,0.117859,0.349182,-0.102173,0.92395
65249535091,0.124573,0.352966,-0.107544,0.921021
65249573876,0.132568,0.357971,-0.114136,0.917175
65249579910,0.139893,0.36377,-0.120911,0.912903
65249595014,0.144592,0.370056,-0.128052,0.908691
65249618844,0.147888,0.376587,-0.135071,0.904419
65249639875,0.151001,0.383362,-0.141541,0.900085
65249654886,0.154236,0.390503,-0.147461,0.895508
65249677490,0.159119,0.398926,-0.153564,0.889893
65249699926,0.165039,0.409668,-0.158569,0.882996
65249717829,0.169861,0.423523,-0.162415,0.874817
65249737447,0.172119,0.437866,-0.16571,0.866638
65249768958,0.173523,0.451416,-0.16864,0.858826
65249775062,0.175659,0.463562,-0.172485,0.851135
65249797500,0.180847,0.473816,-0.178284,0.843201
65249820115,0.18988,0.481812,-0.185913,0.834961
65249835116,0.199768,0.488281,-0.194031,0.827026
65249857557,0.208618,0.493713,-0.201294,0.819824
65249879944,0.216125,0.498291,-0.20752,0.813538
65249894993,0.221497,0.502747,-0.212769,0.807983
65249917587,0.22522,0.507751,-0.217224,0.802612
65249939902,0.228394,0.512512,-0.221313,0.797546
65249956357,0.231567,0.516235,-0.225281,0.793152
65249977451,0.235596,0.519043,-0.229248,0.78894
65249999938,0.239441,0.521973,-0.232361,0.784973
65250014934,0.241882,0.524963,-0.234314,0.781616
65250037423,0.242554,0.528442,-0.234619,0.778992
65250059911,0.241211,0.531494,-0.233887,0.777527
65250076342,0.239136,0.533875,-0.233032,0.776794
65250097397,0.23761,0.5354,-0.232483,0.776367
65250121491,0.236267,0.536255,-0.232056,0.776306
65250136340,0.234314,0.536865,-0.230957,0.776794
65250157570,0.231445,0.537598,-0.229248,0.77771
65250179997,0.228638,0.53833,-0.227722,0.778503
65250196341,0.226746,0.538879,-0.226929,0.77887
65250217609,0.225464,0.538879,-0.226501,0.779297
65250240169,0.224243,0.539001,-0.226135,0.779724
65250256404,0.223206,0.53949,-0.225952,0.779724
65250277523,0.222778,0.539856,-0.226501,0.77948
65250300054,0.223389,0.53894,-0.228333,0.779419
65250316472,0.224609,0.537231,-0.230774,0.77948
65250337528,0.225342,0.534485,-0.233948,0.780212
65250360114,0.225708,0.53064,-0.237915,0.781555
65250376478,0.225769,0.52533,-0.243042,0.783508
65250397581,0.226807,0.518799,-0.24884,0.785767
65250420110,0.229187,0.51062,-0.255127,0.788391
65250436353,0.232361,0.500549,-0.261414,0.791809
65250457576,0.233643,0.488586,-0.267273,0.796997
65250479957,0.231873,0.475708,-0.272278,0.803589
65250496405,0.227173,0.46167,-0.2771,0.811401
65250517619,0.22229,0.446106,-0.283142,0.819336
65250539913,0.219299,0.427368,-0.291382,0.827209
65250556362,0.218506,0.406006,-0.300903,0.834717
65250577372,0.219482,0.382996,-0.31073,0.841736
65250599928,0.220947,0.358704,-0.32019,0.848511
65250616361,0.221436,0.333496,-0.329041,0.855225
65250637439,0.220337,0.307861,-0.337158,0.861938
65250660111,0.21759,0.282654,-0.34375,0.868652
65250676451,0.213074,0.257935,-0.349182,0.875244
65250697464,0.206787,0.232605,-0.354431,0.881775
65250720078,0.199707,0.206299,-0.360046,0.887634
65250736443,0.193909,0.178894,-0.365906,0.892456
65250757675,0.189758,0.150757,-0.371399,0.89624
65250788284,0.18396,0.122498,-0.375916,0.899902
65250796354,0.174561,0.0950928,-0.380371,0.903198
65250817617,0.163147,0.0684814,-0.385071,0.905762
65250841398,0.152649,0.041748,-0.389771,0.907166
65250856427,0.144714,0.0140381,-0.393311,0.907837
65250877455,0.137756,-0.0142822,-0.396301,0.907593
65250899947,0.129944,-0.0415649,-0.399414,0.906555
65250916398,0.121094,-0.0668335,-0.402588,0.904846
65250937447,0.112122,-0.09021,-0.405457,0.90271
65250960093,0.103638,-0.112,-0.407776,0.900208
65250976472,0.0943604,-0.132263,-0.409851,0.897522
65250998958,0.0846558,-0.15094,-0.41217,0.89447
65251020671,0.0759888,-0.167908,-0.414307,0.891235
65251036403,0.0692139,-0.183716,-0.415894,0.887939
65251060393,0.0648193,-0.197449,-0.41748,0.884583
65251079986,0.0612183,-0.209961,-0.419128,0.881165
65251096417,0.0566406,-0.220764,-0.421265,0.877808
65251118977,0.0519409,-0.23053,-0.423889,0.874329
65251139965,0.0474243,-0.239441,-0.426758,0.870789
65251156484,0.0443726,-0.248291,-0.429688,0.867004
65251180326,0.043396,-0.25647,-0.431885,0.863586
65251199971,0.0429077,-0.263,-0.434082,0.860535
65251216382,0.0410767,-0.2677,-0.437073,0.857666
65251238825,0.038208,-0.271423,-0.440735,0.854736
65251262837,0.0355225,-0.275024,-0.444458,0.851807
65251277860,0.03479,-0.279053,-0.44751,0.848877
65251298963,0.0356445,-0.283264,-0.449646,0.846313
65251320161,0.0367432,-0.286926,-0.451538,0.844055
65251350793,0.0373535,-0.288757,-0.453613,0.842285
65251366462,0.0374756,-0.288818,-0.456116,0.840881
65251388284,0.0380859,-0.288086,-0.458618,0.839783
65251396389,0.039917,-0.287292,-0.460327,0.838989
65251419009,0.0431519,-0.286682,-0.461304,0.838562
65251440016,0.0472412,-0.286194,-0.462036,0.838074
65251456403,0.0513306,-0.285828,-0.463318,0.837219
65251478902,0.0544434,-0.285278,-0.465576,0.835999
65251499948,0.0565186,-0.284363,-0.468445,0.834595
65251516463,0.0582886,-0.282959,-0.471375,0.833252
65251538947,0.0601196,-0.281738,-0.474121,0.832031
65251560081,0.0621948,-0.281006,-0.476562,0.830688
65251576409,0.06427,-0.280823,-0.478882,0.829285
65251598860,0.065979,-0.280945,-0.481079,0.82782
65251621551,0.0675049,-0.281677,-0.483032,0.826294
65251643978,0.0688477,-0.282349,-0.484619,0.825012
65251658854,0.0698853,-0.282837,-0.486084,0.823914
65251680015,0.0703735,-0.283508,-0.487244,0.822937
65251696370,0.0703735,-0.28418,-0.488159,0.822205
65251718958,0.0702515,-0.285095,-0.488647,0.821594
65251739960,0.0702515,-0.286011,-0.488647,0.821289
65251756427,0.0702515,-0.286804,-0.488403,0.821167
65251778911,0.0701904,-0.287415,-0.488098,0.821106
65251800709,0.0698853,-0.287781,-0.487732,0.821228
65251817204,0.0692749,-0.287598,-0.487427,0.821533
65251838269,0.0687866,-0.287354,-0.487061,0.821899
65251860827,0.0688477,-0.287109,-0.486572,0.822205
65251877096,0.069397,-0.287048,-0.485901,0.822571
65251898156,0.0698853,-0.286682,-0.485168,0.82312
65251920818,0.0701904,-0.28595,-0.484436,0.823792
65251937041,0.0703735,-0.284729,-0.483765,0.824585
65251958120,0.0706177,-0.283386,-0.48291,0.8255
65251988789,0.0714722,-0.282104,-0.481934,0.826477
65251995560,0.0722656,-0.280396,-0.480774,0.827637
65252018168,0.0727539,-0.277954,-0.479736,0.829041
65252042036,0.0733032,-0.274719,-0.478943,0.830505
65252055635,0.0737915,-0.270996,-0.478027,0.832214
65252078072,0.0751343,-0.266907,-0.47699,0.834045
65252100629,0.0773315,-0.262451,-0.475586,0.83606
65252117185,0.0799561,-0.256592,-0.473938,0.838562
65252138188,0.0827637,-0.248962,-0.47229,0.841492
65252160860,0.0859985,-0.240051,-0.470886,0.844543
65252177157,0.0899048,-0.230713,-0.468872,0.847839
65252198264,0.095459,-0.221008,-0.466003,0.851379
65252220834,0.102295,-0.210083,-0.462585,0.855225
65252237180,0.109253,-0.196838,-0.459229,0.859314
65252258336,0.116089,-0.181335,-0.456055,0.863464
65252280640,0.123779,-0.164429,-0.452759,0.867554
65252297074,0.13324,-0.146301,-0.448975,0.871338
65252319600,0.143188,-0.12616,-0.445129,0.874878
65252340608,0.153381,-0.103577,-0.441345,0.878052
65252357096,0.164429,-0.0784302,-0.437561,0.880493
65252378112,0.177673,-0.0526123,-0.433228,0.882019
65252400710,0.192627,-0.0263672,-0.428101,0.882568
65252417144,0.207458,0.00140381,-0.422791,0.882141
65252453858,0.221741,0.0314331,-0.41687,0.88092
65252460828,0.235107,0.0626221,-0.409851,0.879089
65252477123,0.246765,0.0928955,-0.401672,0.877014
65252498304,0.256836,0.120911,-0.393494,0.874329
65252520858,0.265503,0.147278,-0.385681,0.871216
65252537177,0.272156,0.172974,-0.377991,0.867798
65252558138,0.275818,0.198303,-0.370239,0.864563
65252580703,0.277893,0.222778,-0.363281,0.860901
65252597081,0.280518,0.245911,-0.3573,0.856201
65252619564,0.2854,0.267883,-0.351868,0.85022
65252640780,0.292725,0.288757,-0.346985,0.842896
65252657194,0.301086,0.309021,-0.341431,0.834961
65252678106,0.308777,0.32959,-0.334473,0.827148
65252700645,0.314514,0.350586,-0.325928,0.819702
65252717071,0.317932,0.370728,-0.3172,0.812927
65252738100,0.319397,0.389587,-0.308716,0.806763
65252760803,0.319397,0.407471,-0.300781,0.800903
65252777143,0.318726,0.424194,-0.293579,0.795105
65252798373,0.316956,0.438721,-0.288269,0.789856
65252820791,0.31604,0.451843,-0.284546,0.78418
65252843329,0.317139,0.46344,-0.282349,0.777771
65252858324,0.32019,0.473511,-0.28125,0.770752
65252880641,0.323608,0.482239,-0.280579,0.76416
65252896419,0.325928,0.489929,-0.279785,0.758545
65252919574,0.327515,0.497131,-0.278687,0.75354
65252940635,0.328491,0.503967,-0.277039,0.749207
65252956503,0.328003,0.510559,-0.274231,0.745911
65252978135,0.325745,0.51709,-0.27002,0.744019
65253008188,0.322388,0.522949,-0.265137,0.743103
65253018201,0.319275,0.52771,-0.260498,0.742737
65253038135,0.316345,0.531555,-0.256531,0.742615
65253060818,0.313232,0.534302,-0.253418,0.743042
65253076451,0.309814,0.536072,-0.251038,0.744019
65253099695,0.306763,0.536804,-0.249939,0.745117
65253120732,0.304565,0.536743,-0.25,0.746033
65253136578,0.303162,0.536011,-0.250854,0.746826
65253160082,0.301636,0.53479,-0.251587,0.748108
65253188327,0.299744,0.533386,-0.252075,0.749695
65253196419,0.297729,0.531799,-0.252441,0.751465
65253219684,0.296387,0.529846,-0.252991,0.753235
65253242121,0.295776,0.527344,-0.253662,0.754944
65253256488,0.295593,0.524414,-0.2547,0.756714
65253293831,0.295227,0.520874,-0.255615,0.759033
65253300637,0.294678,0.516541,-0.256836,0.761719
65253316487,0.294128,0.510925,-0.258728,0.765137
65253339627,0.292114,0.503418,-0.260254,0.770325
65253360644,0.288879,0.495483,-0.261841,0.776123
65253376424,0.286865,0.486328,-0.265137,0.781555
65253399691,0.28656,0.474915,-0.269714,0.787109
65253420632,0.285095,0.461365,-0.274109,0.794128
65253443320,0.281433,0.446533,-0.278503,0.802368
65253459674,0.276184,0.430176,-0.283813,0.811218
65253480686,0.270874,0.412109,-0.289978,0.820129
65253496456,0.266296,0.391724,-0.297424,0.828918
65253519603,0.262695,0.369019,-0.305786,0.837402
65253540834,0.258972,0.344604,-0.314209,0.845825
65253556486,0.254272,0.319092,-0.322083,0.854248
65253579566,0.248352,0.293091,-0.329712,0.862366
65253600741,0.242371,0.266296,-0.337402,0.869751
65253616620,0.237671,0.238159,-0.345398,0.876038
65253639642,0.234009,0.209351,-0.352722,0.88147
65253660694,0.228943,0.180542,-0.359314,0.886475
65253676506,0.221619,0.151978,-0.365723,0.891052
65253699627,0.213257,0.123779,-0.372314,0.894714
65253720694,0.205811,0.0958862,-0.378235,0.8974
65253736523,0.199158,0.0680542,-0.38324,0.899353
65253759595,0.191345,0.0414429,-0.388062,0.900574
65253780659,0.181824,0.0167236,-0.392944,0.901245
65253796419,0.17041,-0.00604248,-0.39801,0.901367
65253819656,0.158936,-0.02771,-0.402893,0.900879
65253840820,0.148926,-0.0489502,-0.407043,0.899841
65253856583,0.140686,-0.0697021,-0.410583,0.898193
65253878967,0.133789,-0.0899048,-0.413574,0.896057
65253908678,0.127869,-0.109192,-0.41626,0.893555
65253916526,0.121765,-0.12738,-0.418823,0.890808
65253938976,0.115051,-0.144043,-0.420898,0.888184
65253960778,0.1073,-0.158813,-0.423462,0.885376
65253976575,0.0997925,-0.171082,-0.426453,0.882568
65254005706,0.0928345,-0.181946,-0.428528,0.880127
65254022100,0.0869751,-0.192078,-0.430237,0.877747
65254036519,0.0822754,-0.201904,-0.431946,0.875122
65254059001,0.078064,-0.210999,-0.434143,0.872314
65254083570,0.0737305,-0.218506,-0.43634,0.869751
65254096415,0.0698242,-0.224731,-0.438477,0.867371
65254118954,0.0670166,-0.230225,-0.440796,0.86499
65254142163,0.0658569,-0.235229,-0.442871,0.862671
65254156495,0.0657959,-0.239868,-0.44458,0.860535
65254179049,0.065979,-0.24353,-0.446533,0.858459
65254202149,0.0655518,-0.246399,-0.448853,0.856445
65254216571,0.0647583,-0.248596,-0.451172,0.854675
65254247136,0.0643311,-0.25061,-0.453125,0.853088
65254262206,0.0645752,-0.252319,-0.454346,0.851868
65254283208,0.0648804,-0.253296,-0.4552,0.851074
65254298991,0.0648804,-0.253662,-0.456116,0.850525
65254322113,0.0646362,-0.253296,-0.456909,0.85022
65254336533,0.0647583,-0.252747,-0.457458,0.850098
65254359056,0.0651855,-0.252502,-0.45752,0.850098
65254382196,0.0658569,-0.252197,-0.45752,0.850098
65254396509,0.065918,-0.252136,-0.457581,0.850098
65254419564,0.065979,-0.252014,-0.457581,0.850159
65254442109,0.0664062,-0.25177,-0.457764,0.850098
65254456429,0.0668335,-0.251892,-0.457825,0.849976
65254479017,0.0667725,-0.252075,-0.457764,0.849976
65254509608,0.0664673,-0.252075,-0.457764,0.850037
65254522963,0.0662842,-0.25238,-0.45752,0.850037
65254538979,0.0662842,-0.25293,-0.457031,0.850159
65254562138,0.0667725,-0.253662,-0.456421,0.85022
65254583176,0.0668335,-0.253906,-0.45575,0.850525
65254598999,0.0668945,-0.253662,-0.455261,0.85083
65254622122,0.0668335,-0.253174,-0.454773,0.851257
65254643232,0.0672607,-0.252686,-0.454102,0.851685
65254658972,0.0682373,-0.25238,-0.453308,0.852112
65254682811,0.0689087,-0.251892,-0.452515,0.852661
65254703180,0.0696411,-0.25116,-0.451843,0.853149
65254718967,0.0702515,-0.250244,-0.451233,0.853699
65254742104,0.0709839,-0.24939,-0.450684,0.854187
65254763181,0.0718384,-0.248657,-0.450134,0.854614
65254778967,0.0725098,-0.247986,-0.449707,0.85498
65254801497,0.0726929,-0.24707,-0.449646,0.855225
65254823256,0.0726929,-0.246338,-0.449768,0.855408
65254839000,0.072998,-0.245728,-0.450012,0.855469
65254861486,0.0736084,-0.2453,-0.450073,0.855469
65254883180,0.0745239,-0.244568,-0.450012,0.855652
65254898965,0.0755615,-0.24353,-0.449951,0.855896
65254921506,0.0767822,-0.242493,-0.449951,0.856079
65254943190,0.0779419,-0.241333,-0.44989,0.856323
65254958973,0.0791016,-0.239929,-0.449585,0.85675
65254981520,0.0806274,-0.238159,-0.449158,0.8573
65255004592,0.0822754,-0.236267,-0.448792,0.85791
65255018977,0.0839844,-0.234314,-0.448364,0.858459
65255041495,0.0855103,-0.232422,-0.447754,0.859131
65255064691,0.0869751,-0.230225,-0.447083,0.859924
65255078998,0.0881348,-0.228149,-0.446533,0.860657
65255101491,0.0894775,-0.22644,-0.445923,0.861328
65255124617,0.0910645,-0.22522,-0.445007,0.861938
65255138999,0.0924072,-0.224182,-0.444031,0.86261
65255161485,0.0930176,-0.223267,-0.442993,0.863281
65255184692,0.0930176,-0.222656,-0.441833,0.864014
65255198966,0.0928345,-0.222412,-0.44043,0.864807
65255221520,0.0923462,-0.222534,-0.439026,0.86554
65255245020,0.0916748,-0.222717,-0.437378,0.866394
65255258997,0.0910034,-0.222778,-0.435791,0.867249
65255281531,0.0903931,-0.2229,-0.434265,0.868042
65255304658,0.0901489,-0.223267,-0.432861,0.868713
65255318973,0.090332,-0.223694,-0.431519,0.869263
65255341498,0.0906982,-0.224121,-0.430054,0.869812
65255364644,0.0908813,-0.224304,-0.428894,0.8703
65255378964,0.0909424,-0.224426,-0.427917,0.870789
65255401502,0.0911865,-0.224548,-0.426819,0.871277
65255425167,0.0915527,-0.224976,-0.425659,0.871643
65255445781,0.0922241,-0.225647,-0.424133,0.872192
65255461488,0.0928955,-0.226135,-0.422424,0.872803
65255484647,0.0933838,-0.226501,-0.420715,0.873474
65255497546,0.0936279,-0.226807,-0.418823,0.874268
65255522128,0.0940552,-0.227112,-0.416626,0.875183
65255535057,0.0946655,-0.227539,-0.41394,0.876282
65255557571,0.0953369,-0.227844,-0.41095,0.877563
65255580680,0.0960083,-0.228149,-0.40741,0.879028
65255595060,0.0967407,-0.228271,-0.403381,0.880798
65255617546,0.09729,-0.228516,-0.398987,0.88269
65255640668,0.0977783,-0.228882,-0.394104,0.884705
65255655030,0.0981445,-0.229065,-0.388672,0.887024
65255677530,0.0983887,-0.229004,-0.382629,0.889648
65255700905,0.0983887,-0.228821,-0.376038,0.892456
65255714998,0.0981445,-0.228821,-0.368774,0.895569
65255737532,0.0977783,-0.22876,-0.36084,0.898804
65255760720,0.09729,-0.22876,-0.352234,0.902283
65255775055,0.0966187,-0.228638,-0.343079,0.905884
65255797545,0.0957031,-0.228577,-0.333557,0.909546
65255820752,0.0944214,-0.228455,-0.323486,0.91333
65255835058,0.0928345,-0.22821,-0.312866,0.917297
65255857570,0.0909424,-0.227966,-0.301819,0.921204
65255880712,0.0891113,-0.227966,-0.290405,0.925049
65255895099,0.0874634,-0.228088,-0.278564,0.928833
65255917553,0.0858765,-0.22821,-0.266235,0.932556
65255940490,0.0844116,-0.228271,-0.253601,0.936157
65255955058,0.0828857,-0.228088,-0.24054,0.939819
65255977520,0.0813599,-0.2276,-0.227478,0.943298
65256000743,0.0797729,-0.227295,-0.21405,0.946655
65256015042,0.0787964,-0.226807,-0.200317,0.949829
65256037556,0.0786743,-0.226196,-0.186584,0.95282
65256060692,0.0789795,-0.225342,-0.172607,0.955566
65256075110,0.079834,-0.223877,-0.158691,0.958252
65256097597,0.0806885,-0.221802,-0.144836,0.960876
65256120727,0.081604,-0.21936,-0.130981,0.963318
65256135084,0.0825195,-0.21637,-0.117065,0.965698
65256157585,0.0836792,-0.213196,-0.102722,0.967957
65256180833,0.085083,-0.209534,-0.0879517,0.970093
65256195156,0.086731,-0.205261,-0.072876,0.972107
65256217602,0.0888672,-0.2005,-0.0575562,0.973938
65256240714,0.0913696,-0.195251,-0.0422363,0.975525
65256255095,0.093811,-0.189758,-0.0267944,0.976929
65256277558,0.0961304,-0.184082,-0.0111694,0.978088
65256300743,0.0985718,-0.177917,0.00457764,0.979065
65256315083,0.101257,-0.171082,0.0203857,0.979797
65256339061,0.103516,-0.164429,0.0363159,0.980225
65256360751,0.105042,-0.157959,0.0530396,0.980408
65256375080,0.106018,-0.150696,0.0701294,0.980347
65256397537,0.106567,-0.143188,0.0875854,0.97998
65256420938,0.106995,-0.135803,0.105103,0.979309
65256435101,0.106812,-0.12915,0.122681,0.978149
65256457583,0.106018,-0.123291,0.140808,0.976562
65256480553,0.104919,-0.116638,0.15918,0.97467
65256495301,0.103821,-0.109436,0.177429,0.972473
65256517758,0.102783,-0.102112,0.195374,0.96991
65256540905,0.101868,-0.0945435,0.212891,0.967102
65256555197,0.100952,-0.0866699,0.229736,0.96405
65256577819,0.0994263,-0.0787964,0.245728,0.960938
65256600919,0.0971069,-0.0715942,0.261108,0.957703
65256615162,0.0948486,-0.0648804,0.275818,0.954285
65256637777,0.0927734,-0.0584106,0.289978,0.950684
65256660991,0.0908203,-0.0521851,0.303467,0.947021
65256675125,0.0888062,-0.0461426,0.31604,0.94342
65256697541,0.0864868,-0.0406494,0.327576,0.939941
65256720719,0.0842896,-0.0359497,0.338135,0.936584
65256735038,0.0824585,-0.0316162,0.347778,0.93335
65256757565,0.0811768,-0.0274048,0.356445,0.930359
65256780771,0.0800171,-0.0236206,0.363953,0.927612
65256795236,0.0787964,-0.0205078,0.370361,0.925232
65256817769,0.0775146,-0.0180054,0.375977,0.923157
65256840209,0.0765991,-0.0157471,0.38092,0.921265
65256855161,0.0761719,-0.013916,0.385437,0.919434
65256877779,0.0761108,-0.0123291,0.389648,0.917664
65256900272,0.0758057,-0.0108643,0.393555,0.916077
65256915091,0.0753784,-0.00958252,0.396851,0.914673
65256937587,0.074585,-0.00842285,0.399414,0.913635
65256960067,0.0737305,-0.00750732,0.401611,0.912781
65256975072,0.0731812,-0.00653076,0.403625,0.911926
65256997649,0.0734863,-0.00512695,0.405518,0.911072
65257020201,0.0739136,-0.00366211,0.40741,0.910156
65257035297,0.0741577,-0.00238037,0.409302,0.909302
65257057756,0.0737915,-0.00115967,0.411377,0.908447
65257080128,0.072937,-0.000244141,0.413513,0.907532
65257095254,0.0718384,0.000366211,0.415649,0.906616
65257117754,0.0701904,0.000732422,0.41748,0.905884
65257140268,0.0681152,0.000732422,0.418762,0.905518
65257155217,0.065979,-6.10352e-05,0.419373,0.905334
65257177721,0.0644531,-0.0010376,0.419617,0.905334
65257200657,0.0638428,-0.00152588,0.419373,0.905518
65257218011,0.0637207,-0.00170898,0.418396,0.905945
65257237801,0.0634155,-0.0022583,0.416748,0.906738
65257260175,0.0628662,-0.00335693,0.414368,0.907898
65257275283,0.0622559,-0.0043335,0.411377,0.909302
65257297633,0.0616455,-0.00524902,0.407776,0.91095
65257320249,0.0610352,-0.0065918,0.403442,0.912903
65257335343,0.0605469,-0.00836182,0.398499,0.9151
65257357766,0.0604248,-0.0101929,0.393066,0.917419
65257380146,0.0605469,-0.0117798,0.386902,0.920044
65257395068,0.0606079,-0.0134888,0.379883,0.922913
65257417580,0.0605469,-0.0152588,0.372009,0.926086
65257440068,0.0604248,-0.0172119,0.363403,0.929443
65257455238,0.0604858,-0.019165,0.354248,0.932922
65257477607,0.0608521,-0.0210571,0.344421,0.936584
65257500080,0.0614014,-0.0229492,0.333923,0.940308
65257515137,0.0615234,-0.0245972,0.322327,0.944275
65257537781,0.0610962,-0.0265503,0.309631,0.948486
65257560277,0.0602417,-0.0291748,0.296021,0.952759
65257575293,0.0596924,-0.0317993,0.281799,0.957031
65257597619,0.0599976,-0.0339355,0.266846,0.961243
65257620241,0.0601807,-0.0353394,0.250793,0.965454
65257637478,0.060791,-0.0367432,0.233276,0.969788
65257657634,0.0613403,-0.0387573,0.214844,0.973938
65257680122,0.0628052,-0.0413818,0.196411,0.9776
65257696488,0.0657959,-0.0432129,0.178101,0.980835
65257717785,0.069519,-0.0444946,0.159302,0.983704
65257740265,0.0731201,-0.0462646,0.139709,0.986389
65257756608,0.0760498,-0.0485229,0.119751,0.988647
65257777772,0.0786743,-0.0505981,0.0999146,0.99054
65257800312,0.0817261,-0.0523071,0.079834,0.992065
65257816548,0.0846558,-0.0540161,0.0595703,0.993103
65257837784,0.0872803,-0.0562134,0.0394287,0.993774
65257860241,0.0898438,-0.0585327,0.0197144,0.994019
65257876521,0.0927124,-0.0608521,0.000305176,0.993774
65257897539,0.0955811,-0.0634155,-0.0184937,0.993225
65257920117,0.0980835,-0.0663452,-0.036377,0.992249
65257936523,0.100586,-0.0686646,-0.0534668,0.991089
65257957610,0.102539,-0.0708618,-0.069519,0.989746
65257980101,0.104248,-0.0731201,-0.0848999,0.988159
65257996576,0.105225,-0.0755615,-0.0994263,0.986572
65258017580,0.105164,-0.0779419,-0.112976,0.984924
65258040377,0.104309,-0.0802612,-0.125793,0.983276
65258056612,0.103271,-0.0826416,-0.138062,0.981506
65258077797,0.102539,-0.085144,-0.149841,0.979675
65258100323,0.102173,-0.0878906,-0.161133,0.977661
65258116575,0.102173,-0.0904541,-0.172058,0.975586
65258137681,0.102112,-0.0927124,-0.182739,0.973389
65258168299,0.102112,-0.0950317,-0.19281,0.971252
65258176490,0.102661,-0.0973511,-0.202087,0.969055
65258197611,0.104065,-0.0996094,-0.210388,0.966919
65258220138,0.10553,-0.101257,-0.21814,0.964844
65258236511,0.106323,-0.102051,-0.22583,0.962952
65258257521,0.106628,-0.10199,-0.233398,0.961121
65258280159,0.106995,-0.101196,-0.24054,0.959412
65258296576,0.108337,-0.0999146,-0.246643,0.957825
65258317695,0.111511,-0.0980225,-0.251953,0.956299
65258340251,0.115601,-0.0950317,-0.256592,0.954834
65258356655,0.119507,-0.0908813,-0.26123,0.953491
65258377791,0.123108,-0.085144,-0.265625,0.952393
65258400220,0.126831,-0.0782471,-0.269409,0.951416
65258416675,0.131287,-0.0704346,-0.272522,0.9505
65258437613,0.136719,-0.0620728,-0.274841,0.949646
65258461012,0.142822,-0.0525513,-0.276489,0.948853
65258476578,0.148804,-0.0412598,-0.278137,0.948059
65258497606,0.15448,-0.0280762,-0.280151,0.947021
65258520170,0.159424,-0.0136108,-0.282776,0.94574
65258536538,0.164978,0.00128174,-0.286255,0.943787
65258557649,0.172485,0.0162964,-0.290344,0.941101
65258581568,0.180908,0.0317383,-0.295105,0.937622
65258596622,0.188721,0.0479126,-0.300476,0.933655
65258619108,0.195984,0.0643921,-0.306396,0.92926
65258640198,0.203918,0.0808105,-0.312195,0.924316
65258656579,0.213501,0.0961304,-0.316528,0.919189
65258679154,0.224548,0.110718,-0.319397,0.91394
65258700330,0.235291,0.125427,-0.321228,0.908691
65258716539,0.242065,0.141174,-0.322388,0.904114
65258739011,0.244019,0.158264,-0.323059,0.900513
65258760042,0.243896,0.176208,-0.323547,0.897034
65258776541,0.244629,0.19342,-0.323425,0.893372
65258799010,0.247131,0.209412,-0.323608,0.888977
65258820282,0.25177,0.224548,-0.324158,0.883789
65258836635,0.256287,0.239929,-0.324585,0.878235
65258859107,0.259521,0.25592,-0.32489,0.87262
65258880216,0.262329,0.271667,-0.325012,0.867004
65258896611,0.265015,0.286133,-0.325378,0.861389
65258919072,0.269348,0.299255,-0.326172,0.855225
65258940271,0.275208,0.311523,-0.327148,0.848572
65258956553,0.280701,0.324341,-0.327942,0.841675
65258979079,0.284729,0.338318,-0.327576,0.834961
65259003019,0.286804,0.353394,-0.325745,0.828674
65259016559,0.287476,0.367798,-0.324219,0.822754
65259039051,0.289673,0.380188,-0.323059,0.816772
65259060309,0.294067,0.390808,-0.32135,0.810852
65259076653,0.297485,0.400024,-0.319092,0.805969
65259099108,0.298828,0.408752,-0.315552,0.80249
65259120171,0.297791,0.417786,-0.310425,0.800232
65259136616,0.295227,0.427063,-0.303894,0.798767
65259160618,0.291931,0.436218,-0.296631,0.797729
65259180213,0.28772,0.445007,-0.288879,0.797241
65259196617,0.282471,0.45282,-0.281677,0.797363
65259218334,0.276123,0.459595,-0.274475,0.798218
65259241003,0.268616,0.465393,-0.267029,0.799927
65259255925,0.260193,0.470642,-0.259277,0.802185
65259278499,0.251587,0.475464,-0.251953,0.804443
65259300956,0.244202,0.47937,-0.245544,0.806335
65259315858,0.238647,0.482849,-0.23999,0.807556
65259338502,0.234375,0.486206,-0.235107,0.808289
65259361005,0.230469,0.489502,-0.23053,0.808716
65259375948,0.226685,0.492737,-0.226196,0.809021
65259405983,0.223328,0.495544,-0.2229,0.809204
65259421001,0.220947,0.497742,-0.220642,0.809143
65259435808,0.219971,0.499146,-0.219421,0.808838
65259458388,0.219971,0.500122,-0.218933,0.808411
65259480801,0.220093,0.501038,-0.218628,0.807861
65259495971,0.219666,0.501953,-0.218262,0.807495
65259518530,0.218506,0.50238,-0.217896,0.807678
65259541011,0.217468,0.502319,-0.217896,0.807983
65259555913,0.217163,0.501404,-0.21875,0.80835
65259578507,0.217957,0.499573,-0.220398,0.808899
65259600995,0.218933,0.497253,-0.222168,0.80957
65259615905,0.219666,0.494812,-0.224121,0.810303
65259638506,0.22052,0.49176,-0.226562,0.811279
65259661021,0.221802,0.487915,-0.229492,0.812378
65259675954,0.223511,0.483459,-0.233032,0.813599
65259698380,0.225464,0.478333,-0.23645,0.815063
65259720839,0.227051,0.472229,-0.239624,0.817261
65259737217,0.228516,0.464844,-0.242737,0.82019
65259758492,0.230408,0.456055,-0.246277,0.823547
65259780882,0.233032,0.445862,-0.250183,0.827148
65259797305,0.235046,0.433594,-0.253845,0.83197
65259818498,0.235718,0.4198,-0.256897,0.837952
65259840982,0.235718,0.404785,-0.26001,0.84436
65259864756,0.235962,0.388062,-0.263733,0.850952
65259878348,0.23645,0.369568,-0.268372,0.857544
65259900876,0.236633,0.349365,-0.273071,0.864502
65259917283,0.236145,0.32782,-0.277222,0.871704
65259938447,0.235168,0.304749,-0.280945,0.879089
65259960999,0.23407,0.280212,-0.284729,0.886292
65259977294,0.232727,0.255249,-0.288452,0.893005
65259998288,0.230408,0.229736,-0.291565,0.899475
65260021021,0.226685,0.203186,-0.293823,0.906067
65260037260,0.222473,0.174805,-0.2948,0.912659
65260058287,0.218201,0.145447,-0.294189,0.919067
65260080820,0.214294,0.115479,-0.292542,0.924683
65260097235,0.210938,0.0852051,-0.291565,0.929077
65260118283,0.20697,0.0546265,-0.291626,0.932251
65260142249,0.201233,0.0244751,-0.291992,0.934692
65260157279,0.19342,-0.00463867,-0.291992,0.936584
65260178366,0.184265,-0.0328369,-0.291199,0.938171
65260200955,0.175537,-0.0610962,-0.290466,0.938599
65260224791,0.168579,-0.0895996,-0.28949,0.937927
65260238307,0.163147,-0.118042,-0.287964,0.936218
65260260956,0.158081,-0.145386,-0.286072,0.933838
65260277333,0.151306,-0.170715,-0.284729,0.93103
65260298304,0.1427,-0.19458,-0.283569,0.928101
65260320914,0.132935,-0.216919,-0.28241,0.924927
65260337242,0.123718,-0.238586,-0.280945,0.921326
65260358233,0.114685,-0.259583,-0.279846,0.917114
65260380771,0.106873,-0.279968,-0.279846,0.912048
65260397274,0.100159,-0.299438,-0.27887,0.906921
65260418369,0.0936279,-0.318115,-0.276917,0.901855
65260440779,0.0875244,-0.336304,-0.27478,0.896484
65260457248,0.0809326,-0.353943,-0.273438,0.890747
65260478346,0.0736694,-0.369934,-0.272644,0.885071
65260500824,0.0663452,-0.383423,-0.2724,0.880005
65260516548,0.0586548,-0.395935,-0.2724,0.874939
65260538336,0.0508423,-0.408325,-0.271851,0.869934
65260560875,0.0430298,-0.420471,-0.27063,0.864929
65260576624,0.0366821,-0.431702,-0.268982,0.860168
65260598284,0.0307617,-0.442017,-0.267578,0.855591
65260620859,0.0250244,-0.451172,-0.266479,0.851379
65260636648,0.0192261,-0.458679,-0.265564,0.847778
65260667258,0.0131226,-0.465576,-0.264893,0.844299
65260680912,0.00817871,-0.473206,-0.263489,0.840576
65260696635,0.00494385,-0.481018,-0.260803,0.836975
65260719757,0.00280762,-0.487671,-0.257629,0.834167
65260740890,0.000732422,-0.492371,-0.255676,0.83197
65260756671,-0.0032959,-0.49585,-0.255493,0.829956
65260779860,-0.0078125,-0.498718,-0.255981,0.828064
65260800994,-0.0114136,-0.501526,-0.25592,0.826355
65260816629,-0.013916,-0.504028,-0.255249,0.825012
65260840245,-0.0148315,-0.506531,-0.254211,0.823792
65260861030,-0.0151978,-0.509155,-0.253113,0.822449
65260876897,-0.015625,-0.512085,-0.252075,0.820984
65260901296,-0.0159912,-0.514648,-0.25116,0.819641
65260920812,-0.0161133,-0.516418,-0.250793,0.818604
65260943335,-0.0161133,-0.517883,-0.250793,0.817688
65260959763,-0.0158081,-0.519287,-0.250977,0.816772
65260980873,-0.0155029,-0.520935,-0.250793,0.815796
65260996638,-0.0147095,-0.522278,-0.250305,0.815063
65261019773,-0.0137329,-0.523071,-0.250061,0.814636
65261040951,-0.0133057,-0.523499,-0.250427,0.814331
65261056674,-0.0131836,-0.523926,-0.250977,0.813843
65261079816,-0.0133057,-0.524048,-0.251587,0.813599
65261101021,-0.0134277,-0.523865,-0.252136,0.813477
65261116703,-0.0131226,-0.523621,-0.252563,0.813538
65261139856,-0.012146,-0.523193,-0.252686,0.813782
65261161091,-0.0108643,-0.522827,-0.252563,0.814087
65261176658,-0.00970459,-0.522034,-0.252258,0.814697
65261199820,-0.00866699,-0.520752,-0.252075,0.815613
65261220998,-0.00769043,-0.519043,-0.252197,0.81665
65261236604,-0.00720215,-0.517029,-0.25238,0.817871
65261259802,-0.00695801,-0.514709,-0.252747,0.819214
65261288522,-0.00695801,-0.512085,-0.252991,0.820801
65261296644,-0.00671387,-0.509094,-0.253479,0.82251
65261327237,-0.00628662,-0.506104,-0.25415,0.824158
65261340523,-0.0055542,-0.502808,-0.254822,0.825928
65261356596,-0.00421143,-0.499084,-0.255554,0.828003
65261379107,-0.0022583,-0.495056,-0.256104,0.830261
65261400838,0.000183105,-0.490662,-0.256531,0.832764
65261416597,0.00286865,-0.48584,-0.256775,0.835449
65261439584,0.0055542,-0.480347,-0.25708,0.838562
65261461021,0.00872803,-0.473999,-0.25769,0.841919
65261476762,0.0126953,-0.466919,-0.25885,0.845459
65261499086,0.0169067,-0.459778,-0.259949,0.848938
65261520950,0.0213623,-0.45282,-0.260376,0.852478
65261536644,0.0262451,-0.44574,-0.260437,0.856079
65261559154,0.0316772,-0.437866,-0.260437,0.859924
65261580932,0.0375366,-0.428955,-0.260742,0.864075
65261596639,0.0432739,-0.419373,-0.262268,0.868042
65261619238,0.0488892,-0.409363,-0.264526,0.871765
65261642441,0.0548096,-0.39856,-0.266846,0.875732
65261656724,0.0623779,-0.386902,-0.268921,0.879822
65261679204,0.0721436,-0.375488,-0.270508,0.883545
65261702266,0.0830078,-0.36438,-0.271606,0.886902
65261716636,0.0932007,-0.35144,-0.272888,0.890686
65261739225,0.102539,-0.335876,-0.275452,0.894836
65261762336,0.112061,-0.319458,-0.278809,0.898682
65261776692,0.12207,-0.302856,-0.282471,0.901978
65261799111,0.13385,-0.287354,-0.285034,0.904541
65261822314,0.146667,-0.271179,-0.286987,0.906921
65261836666,0.159302,-0.253479,-0.289673,0.909058
65261859154,0.171631,-0.234497,-0.293396,0.910767
65261889870,0.183533,-0.215027,-0.297424,0.911926
65261903452,0.195007,-0.194824,-0.301147,0.912842
65261919268,0.206787,-0.173523,-0.303955,0.913635
65261942327,0.217468,-0.15094,-0.306458,0.914307
65261963448,0.226929,-0.127808,-0.30896,0.914673
65261979210,0.236206,-0.105225,-0.312195,0.914124
65262002252,0.2453,-0.0819702,-0.314941,0.913147
65262023459,0.2547,-0.0577393,-0.317566,0.911499
65262039266,0.263428,-0.0334473,-0.319824,0.909485
65262062304,0.270691,-0.00933838,-0.32251,0.906982
65262083401,0.277161,0.0150146,-0.326111,0.903625
65262099190,0.283142,0.039978,-0.32959,0.89978
65262122312,0.288879,0.0649414,-0.332092,0.895569
65262143613,0.294983,0.0895996,-0.332703,0.891174
65262159223,0.300842,0.114197,-0.332153,0.886597
65262182314,0.305725,0.139343,-0.331055,0.881714
65262203558,0.308777,0.165527,-0.330078,0.876526
65262219206,0.31073,0.192505,-0.329163,0.870605
65262242267,0.312988,0.218445,-0.326416,0.864685
65262263432,0.315674,0.242615,-0.322083,0.858887
65262279191,0.319458,0.265625,-0.3172,0.852478
65262302299,0.322876,0.288269,-0.312012,0.845703
65262323277,0.324036,0.311401,-0.306274,0.839111
65262339164,0.322388,0.334351,-0.299438,0.833435
65262361676,0.31958,0.356201,-0.292542,0.827881
65262383391,0.317383,0.376099,-0.286621,0.82196
65262399190,0.316284,0.394165,-0.281372,0.815735
65262421679,0.315308,0.41095,-0.276367,0.809448
65262443566,0.313171,0.426331,-0.272095,0.803772
65262459219,0.310059,0.440308,-0.268188,0.798767
65262481647,0.306824,0.452759,-0.264648,0.794189
65262503404,0.30426,0.463562,-0.262207,0.789734
65262527233,0.302429,0.473022,-0.260742,0.785278
65262541644,0.300476,0.481384,-0.259705,0.781311
65262564809,0.297546,0.489075,-0.258179,0.778137
65262579147,0.293884,0.496277,-0.256042,0.775696
65262601627,0.289978,0.502686,-0.253845,0.773743
65262624767,0.286499,0.508118,-0.251831,0.772156
65262639134,0.283447,0.512756,-0.250122,0.770752
65262661690,0.280334,0.516235,-0.248779,0.77002
65262684887,0.277344,0.518494,-0.247986,0.769836
65262699153,0.27478,0.519531,-0.248169,0.77002
65262721739,0.273193,0.519531,-0.249329,0.770203
65262744804,0.272522,0.518494,-0.251465,0.770447
65262759242,0.272583,0.516296,-0.254395,0.770935
65262781605,0.272583,0.513184,-0.257385,0.772034
65262804889,0.272339,0.509094,-0.260193,0.773865
65262826120,0.272339,0.504089,-0.262878,0.776245
65262841763,0.272522,0.49823,-0.265381,0.779114
65262864816,0.272705,0.491577,-0.267517,0.782532
65262886047,0.273132,0.484375,-0.269592,0.786133
65262901595,0.274292,0.476257,-0.271912,0.789917
65262915200,0.27594,0.46698,-0.274231,0.794067
65262937823,0.277954,0.456665,-0.276184,0.798645
65262960860,0.279602,0.445801,-0.277039,0.803894
65262975215,0.280334,0.434814,-0.277405,0.809509
65262997667,0.280273,0.423157,-0.277466,0.815674
65263020920,0.279663,0.410095,-0.277649,0.822449
65263035229,0.279175,0.395752,-0.278381,0.829346
65263057928,0.279114,0.38092,-0.279419,0.835999
65263080907,0.279114,0.365295,-0.280151,0.842651
65263095429,0.278992,0.348511,-0.280945,0.849548
65263117898,0.279358,0.330444,-0.281433,0.856445
65263141509,0.280029,0.311707,-0.281616,0.863159
65263156462,0.278992,0.293091,-0.281616,0.869995
65263177932,0.275635,0.274475,-0.281433,0.877197
65263201079,0.270508,0.255615,-0.281311,0.88446
65263215220,0.264832,0.236633,-0.281677,0.891296
65263237684,0.259277,0.216614,-0.282715,0.897705
65263260907,0.252808,0.195312,-0.284485,0.90387
65263275218,0.244812,0.173035,-0.286926,0.90979
65263297720,0.235413,0.14978,-0.289917,0.915466
65263320907,0.22583,0.125366,-0.293152,0.920471
65263335183,0.217346,0.0993652,-0.296692,0.924561
65263357694,0.210266,0.0721436,-0.300354,0.927551
65263380909,0.204346,0.0440674,-0.304077,0.929382
65263395216,0.198242,0.0161743,-0.308594,0.930115
65263419125,0.191345,-0.0115356,-0.313049,0.930176
65263448182,0.183716,-0.0385132,-0.317017,0.929626
65263458220,0.17572,-0.0643921,-0.319824,0.928772
65263477883,0.166931,-0.0891724,-0.32251,0.927429
65263500946,0.157227,-0.113098,-0.325867,0.925354
65263515266,0.148132,-0.13678,-0.328979,0.922546
65263537904,0.140625,-0.160339,-0.330688,0.919312
65263561085,0.134277,-0.183411,-0.33075,0.915894
65263575404,0.128235,-0.205627,-0.329956,0.912354
65263597737,0.121338,-0.227112,-0.329346,0.908386
65263621018,0.113098,-0.247437,-0.328674,0.904419
65263635390,0.103271,-0.266296,-0.328125,0.900391
65263657887,0.0913086,-0.283752,-0.327148,0.896729
65263680916,0.0783081,-0.300476,-0.325928,0.892944
65263695414,0.0658569,-0.316528,-0.323486,0.889282
65263717902,0.0548706,-0.331726,-0.320679,0.885498
65263741087,0.0460205,-0.345276,-0.318359,0.881653
65263755225,0.0380249,-0.357605,-0.317139,0.877563
65263777809,0.0291138,-0.368347,-0.31665,0.873596
65263801094,0.0204468,-0.377136,-0.31665,0.870117
65263815342,0.0146484,-0.385071,-0.316223,0.866882
65263837890,0.0117798,-0.392578,-0.315063,0.864014
65263861081,0.010437,-0.399475,-0.314087,0.861206
65263875444,0.00836182,-0.40509,-0.314697,0.858398
65263897825,0.00488281,-0.40918,-0.316284,0.855835
65263921021,0.00128174,-0.412415,-0.317932,0.853699
65263935251,-0.000793457,-0.416077,-0.318359,0.851746
65263957756,-0.00140381,-0.420288,-0.3172,0.850159
65263980942,-0.000854492,-0.424255,-0.315674,0.848755
65263995315,0.000366211,-0.427307,-0.314575,0.847595
65264017893,0.00146484,-0.429688,-0.314209,0.846558
65264041003,0.00213623,-0.431213,-0.314148,0.845764
65264055254,0.00250244,-0.431824,-0.314392,0.845398
65264077946,0.00262451,-0.432129,-0.314758,0.845093
65264092980,0.00323486,-0.43219,-0.314758,0.845093
65264115302,0.00463867,-0.432251,-0.313965,0.845276
65264137752,0.00634766,-0.432678,-0.313049,0.845398
65264152923,0.0078125,-0.433167,-0.312256,0.845459
65264175422,0.00842285,-0.433105,-0.312012,0.845581
65264197836,0.00842285,-0.433044,-0.312012,0.845581
65264212791,0.00860596,-0.432861,-0.311768,0.845764
65264236526,0.00909424,-0.433167,-0.311157,0.845825
65264265924,0.00976562,-0.433411,-0.310425,0.845947
65264274202,0.0100708,-0.433533,-0.309875,0.84613
65264295213,0.0101929,-0.433594,-0.309509,0.846191
65264317757,0.010498,-0.433533,-0.309204,0.846375
65264334138,0.0109863,-0.433533,-0.308777,0.846558
65264355260,0.0113525,-0.433289,-0.308167,0.846863
65264377727,0.0115967,-0.432922,-0.307556,0.847229
65264394169,0.0115356,-0.432678,-0.307251,0.847473
65264415289,0.0112915,-0.432556,-0.306824,0.847717
65264437723,0.0109863,-0.432495,-0.306396,0.8479
65264454195,0.0107422,-0.432373,-0.30603,0.848083
65264475394,0.010498,-0.43219,-0.305969,0.848206
65264499258,0.010498,-0.432129,-0.305969,0.848267
65264514147,0.010437,-0.432068,-0.305969,0.848267
65264535358,0.010376,-0.432068,-0.305969,0.848328
65264557936,0.0100708,-0.431519,-0.305908,0.848572
65264574288,0.0098877,-0.430908,-0.306091,0.848816
65264595409,0.0100708,-0.430359,-0.306152,0.84906
65264617954,0.0106812,-0.429688,-0.306091,0.849426
65264634238,0.0112915,-0.428955,-0.306091,0.849854
65264655322,0.0117188,-0.427551,-0.306335,0.850403
65264677733,0.0119019,-0.425598,-0.306763,0.851257
65264694176,0.0123901,-0.423218,-0.307251,0.852234
65264715253,0.0136108,-0.420532,-0.307678,0.853394
65264737919,0.0154419,-0.417358,-0.308167,0.854797
65264760252,0.0178833,-0.413391,-0.308716,0.856445
65264775248,0.0210571,-0.40863,-0.309448,0.858398
65264797845,0.0257568,-0.403015,-0.310059,0.860657
65264820366,0.0322876,-0.396729,-0.310669,0.863159
65264835301,0.0395508,-0.389587,-0.31134,0.865845
65264857828,0.0463867,-0.38092,-0.312134,0.86908
65264880509,0.0524292,-0.370422,-0.312866,0.872986
65264895381,0.0587158,-0.358215,-0.313538,0.877441
65264917964,0.0661621,-0.345215,-0.313782,0.882019
65264940414,0.0753784,-0.332458,-0.313416,0.886292
65264955401,0.085083,-0.319214,-0.3125,0.890625
65264977933,0.0942383,-0.304993,-0.311829,0.894897
65265000366,0.1026,-0.289124,-0.312073,0.89917
65265015311,0.109863,-0.272095,-0.31311,0.903198
65265037765,0.117493,-0.254822,-0.314453,0.90686
65265060407,0.127563,-0.237549,-0.315735,0.909729
65265075433,0.138916,-0.21936,-0.317261,0.912109
65265099208,0.149841,-0.19928,-0.319641,0.914124
65265120463,0.160217,-0.177429,-0.323242,0.915588
65265138168,0.171204,-0.15509,-0.327026,0.916321
65265157859,0.183044,-0.133179,-0.330139,0.916382
65265180254,0.19696,-0.112732,-0.333557,0.914978
65265195212,0.211426,-0.0910645,-0.33728,0.912781
65265217826,0.223083,-0.0657349,-0.340698,0.91095
65265248468,0.23291,-0.0387573,-0.343811,0.908813
65265256769,0.240845,-0.0126953,-0.346313,0.906555
65265277792,0.249084,0.0117188,-0.348633,0.903442
65265300277,0.258179,0.0365601,-0.350159,0.899658
65265316794,0.265747,0.0634766,-0.351074,0.895569
65265337958,0.271729,0.0915527,-0.351868,0.890991
65265360289,0.276306,0.119019,-0.352295,0.886169
65265384877,0.278687,0.145691,-0.351562,0.881714
65265397898,0.278442,0.171936,-0.348755,0.878174
65265420398,0.278748,0.197449,-0.34436,0.874451
65265436775,0.280029,0.221069,-0.340454,0.869934
65265457953,0.282349,0.243042,-0.33905,0.863831
65265480432,0.2854,0.264404,-0.337952,0.856934
65265496737,0.288147,0.285706,-0.336914,0.849548
65265517880,0.290527,0.306458,-0.33606,0.841858
65265540303,0.29303,0.326538,-0.334534,0.833984
65265556684,0.296448,0.345764,-0.33197,0.825989
65265577700,0.300537,0.363647,-0.329041,0.817993
65265600262,0.304321,0.380066,-0.325989,0.810303
65265616691,0.306702,0.395996,-0.322205,0.803223
65265637752,0.306824,0.411621,-0.317078,0.797424
65265660245,0.304626,0.427185,-0.310791,0.79248
65265676666,0.300964,0.442383,-0.303711,0.78833
65265697778,0.296875,0.455872,-0.296997,0.784729
65265720422,0.293396,0.467102,-0.291199,0.781555
65265736667,0.29071,0.476257,-0.286438,0.778809
65265757950,0.287842,0.483887,-0.282288,0.776672
65265780408,0.284058,0.490417,-0.278259,0.775391
65265796681,0.279602,0.496033,-0.274719,0.774719
65265817822,0.27594,0.500549,-0.272156,0.774048
65265840304,0.273987,0.503845,-0.27063,0.773132
65265856801,0.273315,0.506226,-0.269775,0.772156
65265877962,0.273132,0.507996,-0.26886,0.771362
65265900336,0.272705,0.509583,-0.267334,0.770996
65265916748,0.271973,0.510681,-0.265686,0.771118
65265939274,0.271362,0.510925,-0.264282,0.771606
65265954318,0.271301,0.510071,-0.263062,0.772583
65265976767,0.271057,0.508362,-0.261658,0.774292
65265997848,0.27002,0.505493,-0.260315,0.776978
65266020301,0.268677,0.501404,-0.259338,0.780457
65266036766,0.267273,0.495972,-0.25885,0.784546
65266057932,0.265991,0.488953,-0.259094,0.789246
65266089894,0.264771,0.480469,-0.259399,0.794739
65266102887,0.263367,0.471069,-0.259644,0.800781
65266117813,0.26178,0.460938,-0.259827,0.807129
65266140458,0.259827,0.450256,-0.260071,0.81366
65266156759,0.257812,0.438904,-0.260498,0.820312
65266180684,0.255737,0.426575,-0.261292,0.827209
65266200358,0.254028,0.41333,-0.262756,0.833984
65266216704,0.253113,0.399475,-0.264709,0.840393
65266239281,0.253052,0.38501,-0.266541,0.846558
65266260306,0.252991,0.36969,-0.267944,0.852905
65266276775,0.251953,0.354065,-0.268677,0.859558
65266307422,0.249817,0.338684,-0.269043,0.866272
65266320279,0.246887,0.323486,-0.268921,0.872925
65266336721,0.243103,0.307922,-0.268738,0.879639
65266360710,0.239502,0.290894,-0.269348,0.88623
65266383225,0.236938,0.272522,-0.271179,0.892212
65266396724,0.235229,0.253052,-0.273376,0.897705
65266419282,0.233459,0.23291,-0.275513,0.902954
65266443268,0.230835,0.211792,-0.278198,0.907959
65266456687,0.227539,0.189819,-0.281738,0.912598
65266479329,0.223694,0.167419,-0.285461,0.916687
65266500336,0.219055,0.145081,-0.289001,0.920532
65266516780,0.213745,0.122375,-0.292908,0.923828
65266539239,0.209167,0.0987549,-0.296875,0.926453
65266560370,0.20575,0.074707,-0.300781,0.928223
65266576914,0.202454,0.0507812,-0.304382,0.929382
65266606704,0.197266,0.027771,-0.307678,0.930359
65266620474,0.190491,0.00579834,-0.311401,0.930908
65266635947,0.184509,-0.0160522,-0.315735,0.930603
65266658277,0.180115,-0.0379028,-0.319641,0.929443
65266680997,0.17627,-0.0591431,-0.32251,0.928101
65266696115,0.172058,-0.0791016,-0.324768,0.926636
65266718509,0.167847,-0.0980225,-0.327026,0.924805
65266741189,0.164124,-0.116028,-0.329468,0.922485
65266756007,0.160339,-0.132812,-0.331665,0.920105
65266778643,0.155334,-0.146973,-0.33374,0.918091
65266800937,0.149109,-0.159424,-0.33606,0.916199
65266815947,0.143677,-0.171509,-0.338623,0.91394
65266838635,0.14032,-0.183777,-0.340271,0.911438
65266861161,0.138306,-0.195679,-0.340698,0.909119
65266876115,0.136169,-0.206543,-0.341064,0.906921
65266898520,0.133179,-0.215759,-0.342041,0.904846
65266921123,0.129578,-0.224121,-0.343506,0.902771
65266936206,0.125916,-0.231873,-0.344482,0.90094
65266958567,0.122803,-0.238831,-0.344971,0.899353
65266981075,0.120483,-0.2453,-0.345154,0.897827
65266996137,0.118408,-0.251892,-0.34552,0.896179
65267018452,0.116455,-0.258362,-0.345886,0.89447
65267040984,0.114441,-0.264404,-0.34613,0.892822
65267055903,0.112122,-0.270081,-0.346619,0.891235
65267078730,0.109009,-0.275208,-0.347778,0.889648
65267101031,0.104858,-0.280457,-0.349609,0.887756
65267117458,0.100342,-0.285767,-0.351318,0.885925
65267138628,0.0964966,-0.290894,-0.352661,0.884155
65267161095,0.09375,-0.295654,-0.353821,0.882385
65267175997,0.0916748,-0.300171,-0.354858,0.880676
65267198526,0.0906372,-0.304443,-0.355591,0.879028
65267221143,0.0905762,-0.308289,-0.356079,0.877502
65267236140,0.0911865,-0.31134,-0.356567,0.876099
65267258571,0.0916748,-0.313416,-0.3573,0.875
65267281074,0.0916138,-0.314392,-0.358276,0.874329
65267297412,0.0915527,-0.314758,-0.35907,0.87384
65267318447,0.092041,-0.314941,-0.359375,0.873596
65267334303,0.0930176,-0.31488,-0.359192,0.873596
65267357476,0.0942383,-0.314575,-0.358582,0.87384
65267378658,0.0949097,-0.314087,-0.358093,0.874084
65267394337,0.0950317,-0.313477,-0.35791,0.87439
65267417412,0.0944824,-0.312744,-0.357727,0.874817
65267438626,0.0936279,-0.311768,-0.357483,0.875305
65267454284,0.0932617,-0.310669,-0.357239,0.875854
65267477506,0.0932617,-0.309448,-0.357117,0.876343
65267498474,0.0935669,-0.308105,-0.356873,0.876892
65267514320,0.0941162,-0.306458,-0.356567,0.877502
65267537483,0.0950928,-0.304443,-0.356445,0.878174
65267558445,0.0960693,-0.301941,-0.356384,0.878967
65267574255,0.0974731,-0.298706,-0.356384,0.879944
65267597247,0.0993652,-0.294861,-0.356384,0.881042
65267618941,0.101746,-0.290527,-0.356323,0.882202
65267641144,0.104187,-0.285889,-0.356262,0.883423
65267657494,0.106628,-0.280579,-0.356384,0.884827
65267678627,0.109314,-0.274536,-0.356445,0.886353
65267701135,0.112183,-0.267639,-0.356506,0.888062
65267717434,0.115479,-0.260132,-0.356934,0.889709
65267738547,0.11969,-0.252075,-0.357544,0.891235
65267762808,0.125122,-0.243652,-0.358337,0.892456
65267777473,0.131714,-0.234863,-0.358948,0.893677
65267799318,0.139221,-0.224915,-0.359558,0.894836
65267821007,0.147217,-0.214294,-0.359985,0.895996
65267837411,0.154724,-0.202393,-0.360474,0.897278
65267858464,0.161926,-0.189392,-0.361084,0.898621
65267882430,0.168701,-0.17572,-0.361572,0.899963
65267897414,0.175476,-0.161316,-0.361694,0.901306
65267918459,0.18158,-0.145996,-0.360962,0.903015
65267940930,0.187012,-0.129944,-0.359741,0.904846
65267973051,0.19165,-0.113525,-0.358215,0.906677
65267978639,0.196533,-0.0969849,-0.356262,0.908325
65268000963,0.201477,-0.0804443,-0.353699,0.909851
65268017429,0.205505,-0.0631714,-0.350586,0.911499
65268038541,0.207458,-0.045166,-0.347717,0.913208
65268061052,0.20752,-0.0266724,-0.344971,0.914978
65268076873,0.207642,-0.00842285,-0.341797,0.916504
65268100023,0.209351,0.00842285,-0.338867,0.917175
65268121080,0.212708,0.0239868,-0.336487,0.916992
65268136737,0.215088,0.039978,-0.33429,0.916687
65268158727,0.214966,0.057251,-0.332458,0.916504
65268181115,0.212952,0.0752563,-0.331299,0.916077
65268196793,0.211365,0.0915527,-0.330505,0.915222
65268219931,0.212524,0.105408,-0.329773,0.913696
65268241166,0.217468,0.117615,-0.329224,0.911316
65268256775,0.223511,0.129883,-0.328369,0.908447
65268279997,0.226624,0.14386,-0.326904,0.906128
65268302416,0.225647,0.159485,-0.325378,0.904297
65268316972,0.223328,0.174805,-0.324097,0.902466
65268340035,0.22229,0.188843,-0.32251,0.900452
65268361090,0.22406,0.201111,-0.320923,0.897949
65268376759,0.227417,0.212463,-0.31897,0.895203
65268399896,0.229553,0.224304,-0.316162,0.892761
65268421164,0.229309,0.23761,-0.312134,0.890747
65268436851,0.22699,0.25238,-0.307434,0.888916
65268459776,0.224304,0.267273,-0.303162,0.886719
65268488708,0.223328,0.281128,-0.299988,0.883789
65268496853,0.224854,0.294556,-0.298035,0.8797
65268519991,0.228699,0.308105,-0.296326,0.874573
65268548522,0.233765,0.322327,-0.294128,0.868835
65268556805,0.239136,0.336792,-0.291809,0.86261
65268586139,0.244507,0.350769,-0.289307,0.856384
65268601039,0.249573,0.363831,-0.286743,0.850342
65268616851,0.253601,0.376282,-0.283936,0.844666
65268640008,0.255371,0.387756,-0.281189,0.839783
65268661212,0.255371,0.398132,-0.278503,0.835876
65268676881,0.254517,0.407288,-0.27594,0.83252
65268699934,0.253235,0.414917,-0.27417,0.829712
65268721202,0.251892,0.421143,-0.27301,0.827393
65268736841,0.250366,0.426636,-0.272339,0.825256
65268759958,0.24823,0.431763,-0.27179,0.823425
65268781450,0.245789,0.436768,-0.271301,0.821655
65268796851,0.243408,0.441284,-0.271301,0.819946
65268826263,0.242004,0.444763,-0.271912,0.818298
65268841085,0.241455,0.447327,-0.272827,0.816772
65268856803,0.241272,0.449524,-0.273499,0.815369
65268880077,0.240723,0.451355,-0.273621,0.814453
65268901079,0.239258,0.453247,-0.272705,0.814148
65268916843,0.237183,0.455078,-0.271484,0.814209
65268940041,0.235107,0.456299,-0.270325,0.814453
65268961052,0.233398,0.457031,-0.269409,0.81488
65268976840,0.231995,0.457397,-0.268677,0.815308
65268999292,0.230652,0.457642,-0.268005,0.815735
65269021053,0.229614,0.457703,-0.267456,0.816162
65269036788,0.228882,0.457458,-0.267212,0.816589
65269059346,0.228516,0.457031,-0.267151,0.816956
65269080973,0.228149,0.456543,-0.267029,0.817383
65269096840,0.227661,0.455933,-0.267029,0.817871
65269119390,0.227051,0.455261,-0.267029,0.81842
65269141221,0.226562,0.454346,-0.267212,0.81897
65269156903,0.226318,0.453308,-0.267517,0.819519
65269179340,0.226501,0.452209,-0.267822,0.820007
65269202467,0.226685,0.451172,-0.267944,0.820496
65269216849,0.226685,0.450256,-0.267822,0.820984
65269239375,0.226807,0.449707,-0.267456,0.821411
65269262459,0.22699,0.44928,-0.26709,0.821716
65269276858,0.227173,0.448853,-0.266724,0.822021
65269299295,0.227295,0.448486,-0.266418,0.822266
65269322864,0.227478,0.44812,-0.266357,0.822449
65269336829,0.227844,0.447632,-0.266541,0.822571
65269359332,0.228333,0.447144,-0.266663,0.822632
65269382426,0.228821,0.446594,-0.266846,0.822754
65269396800,0.229065,0.446106,-0.266907,0.822937
65269419298,0.229126,0.445801,-0.266785,0.82312
65269442494,0.229187,0.445435,-0.266724,0.823303
65269456789,0.229431,0.445007,-0.266724,0.823486
65269479290,0.229858,0.444458,-0.266724,0.823669
65269502416,0.230164,0.443726,-0.266724,0.823975
65269516786,0.230225,0.443176,-0.266663,0.824219
65269539282,0.230225,0.442688,-0.266663,0.824524
65269562515,0.230103,0.4422,-0.266602,0.824829
65269576843,0.229919,0.441589,-0.266785,0.825134
65269599265,0.229797,0.440857,-0.26709,0.8255
65269622467,0.229309,0.440247,-0.267334,0.825867
65269636793,0.228394,0.439636,-0.267578,0.826355
65269659306,0.2276,0.438904,-0.268066,0.826843
65269682533,0.226929,0.437988,-0.268799,0.827271
65269703561,0.226318,0.436707,-0.269653,0.82782
65269719255,0.225586,0.435242,-0.270569,0.828491
65269742418,0.22467,0.433472,-0.271606,0.829346
65269763572,0.223755,0.431458,-0.272766,0.8302
65269779272,0.223572,0.428711,-0.274414,0.831177
65269802495,0.22406,0.425293,-0.27655,0.832092
65269823570,0.224182,0.421265,-0.278809,0.833374
65269839302,0.223267,0.416565,-0.281006,0.835205
65269862527,0.221924,0.411011,-0.283447,0.837524
65269883536,0.221191,0.403809,-0.286011,0.840332
65269899276,0.221252,0.395325,-0.288574,0.843445
65269922543,0.221558,0.385742,-0.291016,0.846924
65269943548,0.220947,0.375305,-0.293152,0.851074
65269959326,0.21875,0.364197,-0.295349,0.855713
65269981819,0.216125,0.35199,-0.298096,0.860474
65270003573,0.214478,0.338379,-0.30188,0.865051
65270019288,0.214172,0.323181,-0.30603,0.869446
65270041771,0.214417,0.306885,-0.309998,0.873901
65270063584,0.21405,0.290344,-0.313477,0.878418
65270079293,0.212769,0.273926,-0.316589,0.882812
65270101783,0.210327,0.256897,-0.319885,0.887329
65270123564,0.207947,0.239319,-0.323608,0.891479
65270139270,0.205627,0.221375,-0.326721,0.895508
65270161795,0.202393,0.203247,-0.329346,0.899536
65270184995,0.198059,0.184814,-0.332031,0.903503
65270201488,0.193298,0.165588,-0.334839,0.907227
65270221797,0.189514,0.145325,-0.338074,0.910278
65270245394,0.186768,0.124756,-0.341248,0.91272
65270259253,0.182922,0.104736,-0.343689,0.9151
65270281834,0.176758,0.0855103,-0.346191,0.917358
65270305005,0.169434,0.0664673,-0.349121,0.919189
65270319290,0.162537,0.0471802,-0.352295,0.92041
65270341040,0.157104,0.027832,-0.355286,0.921021
65270355342,0.1521,0.00915527,-0.357849,0.921265
65270378521,0.146667,-0.00866699,-0.360352,0.921143
65270401023,0.140869,-0.026123,-0.363159,0.920654
65270415364,0.136108,-0.0429688,-0.366333,0.919434
65270438550,0.132019,-0.0578003,-0.369202,0.918091
65270461091,0.128052,-0.0713501,-0.371765,0.916687
65270475383,0.123352,-0.0835571,-0.374451,0.915161
65270498541,0.118164,-0.0946655,-0.377441,0.913574
65270521028,0.113892,-0.105042,-0.380432,0.911743
65270535370,0.111023,-0.114441,-0.383179,0.90979
65270558546,0.108459,-0.122498,-0.385742,0.907959
65270581097,0.105774,-0.129028,-0.388611,0.906128
65270595368,0.103394,-0.134521,-0.391846,0.904236
65270618586,0.102234,-0.139343,-0.395142,0.902222
65270641057,0.102417,-0.143738,-0.398315,0.900085
65270655436,0.103271,-0.147095,-0.401184,0.898193
65270678566,0.103577,-0.149353,-0.404175,0.896423
65270701063,0.103455,-0.150757,-0.407349,0.894775
65270715364,0.103699,-0.151672,-0.410034,0.893372
65270746694,0.105042,-0.152283,-0.411621,0.892334
65270761044,0.1073,-0.152649,-0.412537,0.891602
65270784245,0.109253,-0.152588,-0.413147,0.891113
65270798560,0.110352,-0.151855,-0.413879,0.890747
65270812914,0.110779,-0.150696,-0.414368,0.890686
65270835375,0.111328,-0.149597,-0.41449,0.890747
65270858556,0.111877,-0.148499,-0.414551,0.890808
65270881055,0.111755,-0.147461,-0.414978,0.890808
65270895407,0.111389,-0.146667,-0.415344,0.890808
65270918560,0.111084,-0.145874,-0.415588,0.890869
65270932836,0.111084,-0.145264,-0.415588,0.890991
65270955399,0.111206,-0.144714,-0.415405,0.891113
65270978563,0.111389,-0.144104,-0.415222,0.891296
65270992917,0.111694,-0.143433,-0.414917,0.891479
65271015371,0.111633,-0.142578,-0.414551,0.891846
65271038558,0.111267,-0.141663,-0.414307,0.892151
65271052886,0.110718,-0.140747,-0.414185,0.892395
65271075416,0.110229,-0.139709,-0.414246,0.892578
65271097894,0.109924,-0.138733,-0.414185,0.892822
65271112932,0.109619,-0.137939,-0.414124,0.893005
65271135374,0.109131,-0.13739,-0.414001,0.893188
65271157890,0.108276,-0.137207,-0.414001,0.893311
65271172868,0.107239,-0.13739,-0.414185,0.893311
65271195385,0.105957,-0.137573,-0.414551,0.893311
65271217936,0.104858,-0.137695,-0.414856,0.89325
65271232836,0.104126,-0.137939,-0.415161,0.893188
65271255371,0.103394,-0.138245,-0.415405,0.893066
65271277897,0.102173,-0.138855,-0.415955,0.892883
65271292889,0.100647,-0.139282,-0.416565,0.8927
65271315392,0.0991821,-0.139465,-0.417236,0.892517
65271338086,0.0982666,-0.139832,-0.417969,0.892212
65271353043,0.0979614,-0.140198,-0.418579,0.891907
65271375565,0.0979614,-0.140686,-0.419312,0.891479
65271398068,0.0979004,-0.140869,-0.420044,0.891113
65271413072,0.0974731,-0.140503,-0.421082,0.890747
65271436881,0.0970459,-0.140015,-0.42218,0.89032
65271458110,0.0969238,-0.139648,-0.423279,0.889893
65271472959,0.0970459,-0.139404,-0.424316,0.889404
65271495635,0.0969238,-0.138916,-0.425354,0.889038
65271518063,0.0966187,-0.138367,-0.426392,0.888611
65271532955,0.0962524,-0.137939,-0.427612,0.888184
65271555572,0.0958252,-0.137695,-0.428772,0.887695
65271578030,0.09552,-0.137634,-0.429932,0.887146
65271593159,0.0953369,-0.137756,-0.431213,0.886536
65271615461,0.0948486,-0.137756,-0.432495,0.885986
65271638113,0.0944214,-0.137634,-0.433899,0.885315
65271654448,0.0941772,-0.137695,-0.435364,0.884644
65271675504,0.0942383,-0.137878,-0.436707,0.883972
65271698103,0.0944214,-0.138062,-0.438171,0.883179
65271713043,0.0946045,-0.138367,-0.439514,0.882446
65271735549,0.0948486,-0.138489,-0.440613,0.881836
65271758011,0.0955811,-0.138489,-0.441284,0.88147
65271772995,0.0966187,-0.138306,-0.441406,0.881287
65271795640,0.0978394,-0.137878,-0.44104,0.881409
65271818102,0.0993652,-0.137146,-0.439941,0.881897
65271832884,0.10083,-0.136719,-0.437622,0.882935
65271855487,0.101929,-0.136658,-0.433533,0.884827
65271878092,0.102905,-0.136597,-0.427795,0.887512
65271901088,0.103699,-0.136047,-0.420532,0.890991
65271915517,0.10376,-0.134766,-0.412231,0.895081
65271938073,0.102173,-0.132324,-0.403137,0.899719
65271961234,0.0996704,-0.129272,-0.393311,0.904785
65271975439,0.0969849,-0.126404,-0.38269,0.910034
65271997977,0.0949097,-0.124451,-0.37146,0.915161
65272020465,0.093811,-0.12323,-0.359436,0.920227
65272035576,0.0933838,-0.121887,-0.347168,0.92511
65272058121,0.0932617,-0.120544,-0.335205,0.929688
65272080589,0.0928345,-0.119263,-0.323425,0.934082
65272095580,0.0927124,-0.118164,-0.311462,0.938293
65272117998,0.0930176,-0.117065,-0.299316,0.942322
65272141928,0.09375,-0.116028,-0.287292,0.946167
65272156912,0.0941162,-0.114929,-0.275452,0.949768
65272178148,0.0938721,-0.113708,-0.263855,0.953186
65272200444,0.0935059,-0.112732,-0.252319,0.956482
65272215451,0.0932617,-0.111938,-0.240479,0.959656
65272238066,0.0935059,-0.111023,-0.228455,0.962646
65272260613,0.0939941,-0.109924,-0.21637,0.965515
65272275615,0.0945435,-0.108582,-0.204285,0.968262
65272297980,0.0950928,-0.106995,-0.192139,0.970825
65272321902,0.0957031,-0.105042,-0.179565,0.973389
65272335477,0.0965576,-0.102722,-0.166931,0.97583
65272358043,0.0974121,-0.100464,-0.154419,0.978027
65272380516,0.0983276,-0.0982056,-0.141968,0.980042
65272395643,0.0994873,-0.0957642,-0.129333,0.981934
65272417901,0.100708,-0.0933838,-0.116821,0.983582
65272441848,0.101929,-0.0912476,-0.104553,0.985046
65272455591,0.103333,-0.0895386,-0.0923462,0.986267
65272478057,0.105164,-0.0881348,-0.0800171,0.987305
65272500484,0.107239,-0.086731,-0.067627,0.988098
65272515458,0.109192,-0.0849609,-0.0553589,0.988831
65272538073,0.110535,-0.0828857,-0.043335,0.989441
65272560614,0.111145,-0.0809937,-0.03125,0.98999
65272575629,0.111633,-0.0794067,-0.0189209,0.990356
65272599369,0.112488,-0.0779419,-0.00610352,0.99054
65272620575,0.113281,-0.0765991,0.00701904,0.99054
65272643741,0.113586,-0.0753784,0.0202026,0.990417
65272658102,0.113281,-0.0742188,0.0334473,0.990173
65272680576,0.112183,-0.0731812,0.0467529,0.989868
65272695450,0.110779,-0.0720825,0.0603638,0.98938
65272717965,0.109375,-0.0710449,0.0742188,0.988647
65272740614,0.108154,-0.0699463,0.0882568,0.987671
65272755572,0.106873,-0.0687256,0.102356,0.986572
65272778146,0.105225,-0.0675659,0.116089,0.985291
65272800475,0.103271,-0.0664062,0.129639,0.983887
65272816884,0.101135,-0.0652466,0.143066,0.982361
65272838161,0.0993652,-0.0640259,0.156433,0.98053
65272860553,0.0978394,-0.0629272,0.169495,0.978577
65272876871,0.0962524,-0.0618286,0.182312,0.976501
65272898120,0.0942383,-0.06073,0.19458,0.974426
65272920614,0.0916748,-0.0596924,0.206238,0.972351
65272936902,0.0890503,-0.059021,0.217163,0.970215
65272957946,0.0863037,-0.0587158,0.227417,0.96814
65272980364,0.0840454,-0.0584106,0.237305,0.966003
65272996844,0.0819092,-0.0582275,0.246765,0.963806
65273017917,0.0795288,-0.0581055,0.25592,0.961609
65273040529,0.0769043,-0.0575562,0.264465,0.959534
65273058339,0.0740967,-0.0570679,0.272339,0.957581
65273077932,0.0710449,-0.0570068,0.279541,0.95575
65273100407,0.0682373,-0.0569458,0.28595,0.954102
65273116860,0.0653076,-0.0563965,0.291443,0.952637
65273139068,0.0620728,-0.0558472,0.295471,0.95166
65273160562,0.0587158,-0.0558472,0.298157,0.95105
65273176919,0.0560913,-0.0557251,0.299683,0.950745
65273198082,0.0552979,-0.0551147,0.300476,0.950562
65273220599,0.0559082,-0.0545654,0.300476,0.950562
65273236918,0.0570068,-0.0540771,0.299683,0.950745
65273257925,0.0579224,-0.0534058,0.298035,0.951233
65273280625,0.0580444,-0.0528564,0.295532,0.952026
65273296860,0.0576172,-0.0527954,0.291687,0.953247
65273318094,0.0571899,-0.0531006,0.286682,0.954834
65273340558,0.0569458,-0.0532837,0.281006,0.956482
65273356894,0.0574341,-0.0533447,0.274902,0.958252
65273380892,0.0584717,-0.0536499,0.267822,0.960144
65273400448,0.0594482,-0.0546875,0.259827,0.962219
65273416861,0.0601196,-0.0560303,0.251221,0.964417
65273437933,0.0604858,-0.0574341,0.242004,0.966614
65273460521,0.0606079,-0.059021,0.2323,0.968933
65273476961,0.0602417,-0.0609741,0.222046,0.971191
65273498078,0.0598145,-0.0628662,0.211304,0.973511
65273520610,0.0597534,-0.0646973,0.19989,0.97583
65273544465,0.0602417,-0.0662842,0.187866,0.978088
65273558141,0.0609131,-0.0678711,0.174866,0.980347
65273580536,0.0616455,-0.0692749,0.16095,0.982544
65273596885,0.0625,-0.0704956,0.146301,0.98468
65273617918,0.0637207,-0.0718994,0.130981,0.986694
65273640499,0.0655518,-0.0734253,0.115051,0.988403
65273656832,0.067627,-0.0748291,0.098938,0.989929
65273677929,0.0698242,-0.0759888,0.0823975,0.991211
65273700393,0.0718994,-0.0772095,0.0654297,0.992249
65273716847,0.0736694,-0.0787354,0.0484009,0.992981
65273739333,0.0754395,-0.0800781,0.0314331,0.993408
65273760379,0.0775146,-0.0809937,0.0144043,0.99353
65273776860,0.0791626,-0.0817871,-0.00274658,0.993469
65273799379,0.0805054,-0.0830078,-0.0205688,0.993042
65273820463,0.081604,-0.0842896,-0.0388184,0.99231
65273836888,0.0830688,-0.0860596,-0.0570679,0.99115
65273859442,0.085022,-0.0878906,-0.0750122,0.989624
65273880619,0.0870972,-0.0894775,-0.0925903,0.987793
65273896977,0.0886841,-0.0910034,-0.110107,0.985718
65273919394,0.0897217,-0.0921021,-0.127747,0.983398
65273936322,0.0900879,-0.093689,-0.145142,0.980835
65273958377,0.090332,-0.0951538,-0.162231,0.977966
65273979475,0.0903931,-0.0960693,-0.179077,0.974915
65274000495,0.0903931,-0.0968018,-0.195862,0.971619
65274016869,0.09021,-0.0978394,-0.212402,0.968079
65274039417,0.0899048,-0.098999,-0.228271,0.964355
65274061324,0.0900269,-0.0999146,-0.243774,0.960449
65274076156,0.0900269,-0.100525,-0.259155,0.95636
65274098743,0.0892944,-0.100586,-0.274658,0.952087
65274121293,0.0883179,-0.100037,-0.29071,0.947449
65274136241,0.0878296,-0.0992432,-0.306946,0.942444
65274158735,0.0878296,-0.0986938,-0.322693,0.937195
65274181230,0.0889893,-0.098877,-0.33783,0.931763
65274196319,0.0915527,-0.0997314,-0.352783,0.925842
65274219309,0.0943604,-0.101013,-0.367493,0.919678
65274242591,0.0966797,-0.102112,-0.381714,0.913513
65274256286,0.0988159,-0.102661,-0.395325,0.90741
65274278825,0.100891,-0.10321,-0.408264,0.901367
65274301145,0.102539,-0.104126,-0.420227,0.895569
65274316195,0.103577,-0.105469,-0.43103,0.890137
65274338719,0.104431,-0.106506,-0.440796,0.885132
65274361217,0.105347,-0.107239,-0.449768,0.880371
65274376351,0.105591,-0.107422,-0.457764,0.876221
65274398790,0.105408,-0.107239,-0.464966,0.872437
65274421173,0.105408,-0.107117,-0.471375,0.869019
65274436251,0.105957,-0.107178,-0.476929,0.865906
65274460133,0.106812,-0.107239,-0.48175,0.863159
65274481172,0.1073,-0.107178,-0.485962,0.860718
65274496256,0.107422,-0.106995,-0.489624,0.858643
65274518774,0.107605,-0.106628,-0.492676,0.856934
65274541284,0.108093,-0.106079,-0.495056,0.855591
65274556114,0.108765,-0.105286,-0.496765,0.854553
65274578778,0.109558,-0.10437,-0.498047,0.853821
65274594460,0.110046,-0.103088,-0.498962,0.853394
65274616150,0.110413,-0.101379,-0.499756,0.853088
65274638780,0.110291,-0.0995483,-0.500732,0.852783
65274654506,0.110168,-0.0977173,-0.501587,0.852478
65274676238,0.110596,-0.0963135,-0.502319,0.852173
65274698728,0.111877,-0.0953369,-0.50293,0.851746
65274714472,0.113525,-0.0946045,-0.503357,0.851379
65274737652,0.11499,-0.0933838,-0.503601,0.851135
65274758816,0.116272,-0.0916138,-0.503784,0.851013
65274774453,0.117798,-0.0894775,-0.504028,0.850891
65274796307,0.119995,-0.0877075,-0.504456,0.850525
65274818769,0.122375,-0.0859375,-0.504456,0.850403
65274834435,0.124878,-0.0838623,-0.503723,0.850647
65274857671,0.127136,-0.081604,-0.503113,0.850891
65274878827,0.128723,-0.0787964,-0.502441,0.851318
65274894518,0.13031,-0.0759277,-0.501953,0.851624
65274917600,0.132324,-0.0733643,-0.501709,0.851685
65274938813,0.134399,-0.0712891,-0.501465,0.851685
65274962691,0.136475,-0.0686646,-0.501465,0.851562
65274977977,0.138855,-0.0664673,-0.501892,0.851074
65274998832,0.140808,-0.0648804,-0.502075,0.85083
65275014428,0.143188,-0.0632324,-0.502136,0.850525
65275061465,0.144897,-0.0617065,-0.502197,0.850281
65275066127,0.145325,-0.0601807,-0.501587,0.850647
65275074437,0.145691,-0.0588379,-0.500977,0.851074
65275105024,0.144409,-0.0577393,-0.500366,0.851746
65275119048,0.142456,-0.0570679,-0.499634,0.852539
65275144733,0.139587,-0.0552368,-0.498779,0.853638
65275165480,0.138794,-0.0541992,-0.497925,0.854309
65275187606,0.139343,-0.0536499,-0.495667,0.855591
65275208606,0.138916,-0.0551758,-0.49353,0.85675
65275217569,0.136292,-0.0560303,-0.491516,0.858337
65275247549,0.13147,-0.0539551,-0.489502,0.860352
65275254402,0.127686,-0.0510864,-0.487427,0.862244
65275285035,0.126526,-0.0504761,-0.485229,0.863708
65275300036,0.127136,-0.0511475,-0.482788,0.864929
65275329423,0.127136,-0.0512085,-0.480652,0.866089
65275360156,0.126282,-0.050354,-0.479309,0.867065
65275390759,0.124573,-0.048584,-0.478149,0.867981
65275391597,0.123596,-0.0473022,-0.477173,0.868774
65275405550,0.123413,-0.046875,-0.476196,0.869385
65275433651,0.123535,-0.0464478,-0.474854,0.870056
65275464729,0.123779,-0.0458984,-0.473572,0.870789
65275470901,0.123352,-0.045105,-0.472168,0.871643
65275481515,0.122437,-0.0435791,-0.470764,0.87262
65275502553,0.121582,-0.0422363,-0.469604,0.873413
65275541399,0.121582,-0.0418091,-0.468384,0.874084
65275547238,0.122314,-0.0424194,-0.466919,0.874756
65275584323,0.122803,-0.043396,-0.465393,0.875488
65275585075,0.122864,-0.0449219,-0.463684,0.876282
65275607555,0.123291,-0.0477905,-0.462036,0.876953
65275630118,0.124329,-0.0521851,-0.46051,0.877319
65275652540,0.12561,-0.0574951,-0.458862,0.877686
65275674451,0.126587,-0.0629883,-0.457092,0.878113
65275720745,0.12738,-0.069519,-0.4552,0.878479
65275721565,0.129028,-0.0776367,-0.453308,0.87854
65275735032,0.131287,-0.0870972,-0.451294,0.878357
65275757638,0.133423,-0.0969238,-0.448975,0.878174
65275758512,0.135315,-0.107056,-0.446411,0.877991
65275786190,0.136536,-0.118164,-0.443726,0.877747
65275802565,0.137573,-0.130188,-0.44043,0.877563
65275816925,0.138123,-0.142334,-0.436768,0.877441
65275840788,0.138,-0.154114,-0.433167,0.877258
65275854402,0.137695,-0.166077,-0.429565,0.876892
65275876989,0.137817,-0.178711,-0.425781,0.876221
65275900150,0.138733,-0.191467,-0.421692,0.875366
65275945856,0.139587,-0.203613,-0.41748,0.874512
65275946675,0.14032,-0.215027,-0.41333,0.873596
65275961157,0.141174,-0.226257,-0.409546,0.872437
65275998950,0.142578,-0.237793,-0.405762,0.870911
65276005064,0.143677,-0.249084,-0.401245,0.869629
65276035137,0.144775,-0.260498,-0.396362,0.868347
65276050040,0.146851,-0.269287,-0.39209,0.867249
65276103179,0.1474,-0.278503,-0.386963,0.866577
65276105517,0.147217,-0.288818,-0.381104,0.865845
65276110875,0.146484,-0.299133,-0.375122,0.865051
65276116931,0.145691,-0.308044,-0.369629,0.864441
65276147710,0.145691,-0.314148,-0.365479,0.864014
65276161194,0.144836,-0.321655,-0.361267,0.863159
65276176990,0.143555,-0.329529,-0.356628,0.862305
65276215578,0.142517,-0.337463,-0.352295,0.861206
65276222641,0.141174,-0.345154,-0.348389,0.859985
65276236946,0.139404,-0.351685,-0.344788,0.85907
65276259906,0.137695,-0.35791,-0.341797,0.857971
65276282562,0.13678,-0.365295,-0.33905,0.856079
65276303695,0.136108,-0.373108,-0.336182,0.853943
65276326039,0.135376,-0.379639,-0.333435,0.852234
65276341185,0.135193,-0.385315,-0.331299,0.850586
65276372539,0.13501,-0.392029,-0.329529,0.848206
65276380118,0.135132,-0.399719,-0.327148,0.84552
65276401115,0.135254,-0.406982,-0.324402,0.84314
65276416973,0.135132,-0.412354,-0.322021,0.841431
65276440672,0.134338,-0.416382,-0.320557,0.840088
65276461162,0.132935,-0.420898,-0.319641,0.83844
65276483634,0.131042,-0.425964,-0.31842,0.83667
65276507590,0.128723,-0.430542,-0.317139,0.835144
65276528865,0.125977,-0.434204,-0.316162,0.834045
65276536948,0.122925,-0.438049,-0.315735,0.832642
65276560102,0.11969,-0.442444,-0.31543,0.830872
65276598930,0.115906,-0.446716,-0.315063,0.829285
65276603693,0.112671,-0.450012,-0.314697,0.828064
65276619572,0.109619,-0.452148,-0.314636,0.827393
65276650096,0.107178,-0.453796,-0.314697,0.826721
65276665108,0.105591,-0.45636,-0.314941,0.825439
65276680014,0.104248,-0.458496,-0.315063,0.824402
65276708589,0.103333,-0.459534,-0.315552,0.823792
65276719079,0.102539,-0.459717,-0.316406,0.823425
65276739560,0.102295,-0.460022,-0.317139,0.822998
65276761405,0.102783,-0.460205,-0.317566,0.822693
65276777718,0.103699,-0.459656,-0.317627,0.822815
65276799519,0.104919,-0.458557,-0.318054,0.82312
65276830804,0.106018,-0.45752,-0.31842,0.823425
65276836979,0.106995,-0.456177,-0.318542,0.823975
65276890676,0.107849,-0.454346,-0.318542,0.82489
65276897540,0.108276,-0.451904,-0.318726,0.826111
65276899963,0.108276,-0.449219,-0.319214,0.827393
65276926141,0.108398,-0.446838,-0.319702,0.828491
65276943044,0.108582,-0.44458,-0.320129,0.829468
65276956925,0.108826,-0.442139,-0.320801,0.830505
65276979942,0.109314,-0.439697,-0.321655,0.831421
65277002591,0.109619,-0.437317,-0.322571,0.832275
65277016979,0.109741,-0.435059,-0.323364,0.83313
65277049025,0.109985,-0.433167,-0.323975,0.833862
65277062610,0.110107,-0.431519,-0.324341,0.834534
65277077473,0.110168,-0.429626,-0.324585,0.835388
65277099518,0.109985,-0.426941,-0.325073,0.836609
65277123077,0.109741,-0.423523,-0.326111,0.838013
65277143702,0.109192,-0.4198,-0.327393,0.839417
65277173784,0.109314,-0.416077,-0.328552,0.84082
65277182559,0.109863,-0.411743,-0.32959,0.842468
65277204465,0.110596,-0.406982,-0.330811,0.844177
65277227651,0.111816,-0.4021,-0.332153,0.845825
65277250140,0.113525,-0.397705,-0.333801,0.847046
65277263651,0.115051,-0.392578,-0.33551,0.848572
65277279506,0.116516,-0.38562,-0.33728,0.850891
65277318923,0.117737,-0.377441,-0.339233,0.853577
65277323679,0.118896,-0.369568,-0.341553,0.855957
65277339514,0.120117,-0.362244,-0.343811,0.857971
65277362687,0.121338,-0.353271,-0.345947,0.860718
65277383695,0.122498,-0.342529,-0.348816,0.863708
65277407648,0.124146,-0.331909,-0.352173,0.866272
65277436822,0.126282,-0.322266,-0.355469,0.868225
65277451143,0.128296,-0.312683,-0.358093,0.870361
65277459494,0.129578,-0.301453,-0.360291,0.87323
65277483094,0.13031,-0.288879,-0.36261,0.876404
65277505882,0.130493,-0.276245,-0.365479,0.879272
65277543993,0.131287,-0.265015,-0.369385,0.88092
65277548788,0.132019,-0.253784,-0.373169,0.882507
65277564118,0.13208,-0.239807,-0.376709,0.884949
65277593825,0.131653,-0.224976,-0.380005,0.887451
65277601965,0.131958,-0.210999,-0.382935,0.889587
65277631224,0.133911,-0.19812,-0.386047,0.89093
65277646616,0.134888,-0.183777,-0.388977,0.892578
65277670129,0.133606,-0.165588,-0.393127,0.894531
65277684093,0.131409,-0.145813,-0.398621,0.895874
65277721654,0.129333,-0.128723,-0.403687,0.896484
65277744329,0.130188,-0.114258,-0.405579,0.897461
65277762237,0.134521,-0.0994873,-0.405701,0.89856
65277783188,0.138062,-0.0836792,-0.406372,0.899292
65277784827,0.138855,-0.0663452,-0.409119,0.899414
65277828087,0.137634,-0.0494995,-0.412537,0.899109
65277836287,0.137512,-0.0346069,-0.414612,0.898865
65277841176,0.140015,-0.0210571,-0.415344,0.89856
65277864865,0.143921,-0.00921631,-0.415894,0.897888
65277902522,0.147278,0.00189209,-0.417358,0.896729
65277910805,0.149231,0.0122681,-0.418823,0.89563
65277915568,0.149292,0.0223389,-0.419434,0.895142
65277946876,0.148071,0.0324097,-0.41864,0.895386
65277953239,0.145691,0.0423584,-0.416504,0.896362
65277975562,0.142029,0.0516968,-0.414124,0.897583
65277998831,0.137512,0.0601807,-0.411865,0.898804
65278020929,0.13208,0.0681763,-0.409546,0.900085
65278038420,0.126038,0.0762329,-0.407227,0.901367
65278058762,0.120056,0.0839233,-0.404785,0.902588
65278081420,0.115112,0.0896606,-0.401733,0.904053
65278135818,0.111328,0.0924683,-0.399292,0.905334
65278138175,0.109009,0.0941162,-0.39679,0.906494
65278173966,0.107117,0.0958862,-0.39447,0.907593
65278180706,0.104858,0.0979004,-0.392639,0.908386
65278183074,0.102356,0.0997314,-0.391113,0.909119
65278201233,0.10083,0.100586,-0.390381,0.909546
65278225023,0.100769,0.100281,-0.390808,0.909424
65278238702,0.101746,0.0994873,-0.391968,0.908875
65278253030,0.102905,0.098877,-0.393616,0.908081
65278276950,0.104492,0.09729,-0.39563,0.907227
65278298701,0.106384,0.0946045,-0.397766,0.906372
65278314506,0.108765,0.0916748,-0.399536,0.905579
65278336968,0.110779,0.088501,-0.401306,0.904907
65278359854,0.111389,0.0853882,-0.403076,0.904297
65278381233,0.110779,0.0822754,-0.404602,0.903992
65278395522,0.109802,0.0792236,-0.405701,0.90387
65278428292,0.109802,0.0761719,-0.406372,0.90387
65278441865,0.110107,0.0727539,-0.407104,0.903748
65278466211,0.109436,0.0697632,-0.407898,0.903748
65278504001,0.108215,0.0671997,-0.408752,0.903687
65278548220,0.107117,0.06427,-0.409912,0.903503
65278550611,0.107117,0.0608521,-0.411438,0.903076
65278563393,0.107849,0.0571899,-0.413269,0.902405
65278564223,0.108826,0.0539551,-0.414795,0.901733
65278575587,0.10968,0.0513306,-0.416138,0.901184
65278615621,0.110046,0.0490723,-0.417358,0.900696
65278637559,0.110046,0.0472412,-0.418518,0.900269
65278639970,0.109863,0.0458984,-0.419495,0.899902
65278658051,0.109497,0.0449219,-0.420471,0.899536
65278681781,0.109009,0.0439453,-0.421814,0.898987
65278697073,0.108826,0.0430298,-0.423706,0.898193
65278735614,0.108521,0.0419922,-0.426086,0.897156
65278757548,0.107727,0.0408936,-0.429077,0.895874
65278760003,0.107056,0.0394287,-0.432495,0.894409
65278778260,0.106506,0.0371704,-0.436279,0.8927
65278793019,0.105957,0.0343018,-0.440308,0.890869
65278839137,0.105713,0.0313721,-0.444519,0.888916
65278862228,0.105774,0.0287476,-0.448669,0.886902
65278870791,0.106079,0.0264893,-0.452881,0.884827
65278883656,0.106262,0.0248413,-0.457153,0.882629
65278898057,0.105957,0.0237427,-0.461487,0.880432
65278922646,0.105591,0.022583,-0.466125,0.878113
65278952893,0.10498,0.0204468,-0.471313,0.875427
65278976551,0.104309,0.0174561,-0.47699,0.872498
65278996867,0.103943,0.0145264,-0.483093,0.869263
65279006645,0.103821,0.0117188,-0.489502,0.865723
65279026896,0.104614,0.0090332,-0.495789,0.862061
65279033055,0.106384,0.00628662,-0.501892,0.858337
65279058527,0.108765,0.00305176,-0.507507,0.854736
65279081634,0.110657,0.000183105,-0.512634,0.85144
65279110757,0.111694,-0.00170898,-0.517334,0.84845
65279118503,0.111694,-0.00305176,-0.521667,0.845764
65279138114,0.111267,-0.00421143,-0.525513,0.843445
65279171409,0.111206,-0.00567627,-0.528809,0.84137
65279175604,0.111328,-0.0078125,-0.531982,0.839355
65279216531,0.111084,-0.00994873,-0.535095,0.837341
65279221413,0.110901,-0.0116577,-0.538086,0.835449
65279253865,0.111145,-0.0130615,-0.540771,0.833679
65279276484,0.111694,-0.0146484,-0.543152,0.832031
65279289192,0.112244,-0.0157471,-0.545105,0.830627
65279297036,0.112061,-0.0162964,-0.546814,0.829529
65279327633,0.111145,-0.0166626,-0.548584,0.828491
65279332999,0.109436,-0.0167847,-0.550354,0.827515
65279364235,0.107727,-0.0177002,-0.552734,0.826172
65279389804,0.106689,-0.0184937,-0.555176,0.824646
65279395152,0.1073,-0.0186768,-0.557434,0.822998
65279415596,0.109192,-0.0188599,-0.559937,0.821045
65279462406,0.110962,-0.0184937,-0.562622,0.819031
65279493414,0.111389,-0.0172729,-0.565735,0.816833
65279495733,0.110291,-0.0158081,-0.569214,0.814575
65279501630,0.109192,-0.0149536,-0.572632,0.812378
65279522761,0.110229,-0.0153198,-0.5755,0.810181
65279535564,0.112976,-0.015564,-0.577698,0.808228
65279558225,0.114746,-0.0150146,-0.579895,0.806458
65279575287,0.114197,-0.0144653,-0.582886,0.804382
65279595539,0.113037,-0.0144043,-0.585999,0.802246
65279618133,0.112976,-0.0155029,-0.588623,0.800293
65279634500,0.113281,-0.0178833,-0.590942,0.798523
65279655751,0.112732,-0.0214844,-0.593384,0.796692
65279678105,0.112122,-0.026062,-0.595947,0.794739
65279694604,0.111511,-0.0308228,-0.598083,0.79303
65279715753,0.110291,-0.0366211,-0.600647,0.791016
65279738297,0.108459,-0.0406494,-0.60199,0.790039
65279754576,0.107178,-0.0438232,-0.602417,0.789734
65279775787,0.106262,-0.0480957,-0.602661,0.789429
65279798282,0.105408,-0.0529785,-0.601868,0.789795
65279814591,0.10376,-0.0576172,-0.600464,0.790833
65279835640,0.100586,-0.0615234,-0.598938,0.792053
65279858223,0.097229,-0.0650635,-0.597168,0.793518
65279874565,0.0949707,-0.0683594,-0.594666,0.79541
65279895661,0.0938721,-0.0717163,-0.591431,0.797607
65279918100,0.0927124,-0.0753784,-0.587708,0.800232
65279934551,0.0913086,-0.0800171,-0.583862,0.802734
65279955654,0.0894775,-0.0856323,-0.580261,0.804932
65279978193,0.0873413,-0.0916138,-0.576782,0.807007
65279994604,0.0856934,-0.0976562,-0.572876,0.809265
65280015660,0.0846558,-0.10321,-0.568604,0.811707
65280039507,0.0834961,-0.108398,-0.564087,0.81427
65280054536,0.0818481,-0.111755,-0.558838,0.817627
65280075762,0.0806274,-0.113892,-0.553101,0.82135
65280098256,0.0800781,-0.118103,-0.547913,0.82428
65280114616,0.0796509,-0.125061,-0.543884,0.825928
65280135593,0.0786133,-0.132568,-0.540344,0.827209
65280158199,0.0767822,-0.137756,-0.536377,0.829102
65280174567,0.0767822,-0.142029,-0.532349,0.830933
65280195701,0.0793457,-0.147095,-0.527771,0.832764
65280218125,0.0839233,-0.154114,-0.523804,0.833557
65280234494,0.0874023,-0.161743,-0.520264,0.833984
65280255665,0.0895386,-0.165955,-0.515991,0.835571
65280278272,0.0922852,-0.166321,-0.511658,0.83783
65280294588,0.0968628,-0.167175,-0.507568,0.839661
65280318554,0.102905,-0.170898,-0.503662,0.840515
65280338244,0.109558,-0.175293,-0.498779,0.841736
65280354607,0.116333,-0.17865,-0.493164,0.843384
65280376988,0.12262,-0.180664,-0.487732,0.845215
65280398133,0.128235,-0.181458,-0.482971,0.846985
65280414563,0.132202,-0.180969,-0.478577,0.848938
65280437110,0.135071,-0.179077,-0.474487,0.851196
65280458264,0.138916,-0.176941,-0.470642,0.853149
65280474582,0.144348,-0.174744,-0.466492,0.85498
65280497124,0.150879,-0.172302,-0.463196,0.85614
65280518121,0.156738,-0.170166,-0.46106,0.856689
65280534516,0.161438,-0.168335,-0.460571,0.856384
65280557118,0.165405,-0.167297,-0.460938,0.855652
65280578247,0.169312,-0.166687,-0.461914,0.854492
65280594638,0.173889,-0.165588,-0.462341,0.853577
65280617015,0.179626,-0.164734,-0.462891,0.852234
65280638064,0.185852,-0.164551,-0.463501,0.850586
65280656323,0.191895,-0.164124,-0.46405,0.848999
65280677126,0.197327,-0.163452,-0.464661,0.847595
65280698348,0.202209,-0.162781,-0.465088,0.846375
65280714502,0.206787,-0.162781,-0.465271,0.845093
65280737030,0.209351,-0.163025,-0.465881,0.844116
65280758316,0.209229,-0.162292,-0.466309,0.844055
65280774586,0.207642,-0.159912,-0.466553,0.844727
65280796999,0.206238,-0.157288,-0.466858,0.845398
65280818120,0.205933,-0.155273,-0.467102,0.845703
65280834524,0.206482,-0.153564,-0.467285,0.845825
65280857050,0.207275,-0.15155,-0.467163,0.846069
65280878132,0.208313,-0.149719,-0.466614,0.846375
65280894587,0.2099,-0.148254,-0.465881,0.846741
65280924565,0.211731,-0.146423,-0.464905,0.847107
65280938285,0.212646,-0.143311,-0.46405,0.847839
65280954616,0.21228,-0.139587,-0.463562,0.848816
65280977083,0.211243,-0.136414,-0.462769,0.850037
65280998133,0.21106,-0.133728,-0.461304,0.851318
65281014557,0.211182,-0.131348,-0.459717,0.852539
65281037021,0.210693,-0.129089,-0.458252,0.85376
65281058244,0.209534,-0.126831,-0.457153,0.85498
65281074526,0.208008,-0.124817,-0.456299,0.856079
65281103093,0.20697,-0.122986,-0.455627,0.856995
65281118106,0.206665,-0.122009,-0.455078,0.857483
65281134548,0.206604,-0.12207,-0.454468,0.857788
65281163219,0.206909,-0.121887,-0.453857,0.858093
65281178156,0.206665,-0.121094,-0.45343,0.858459
65281194652,0.205444,-0.119812,-0.453308,0.859009
65281217043,0.203918,-0.118835,-0.453125,0.859619
65281238058,0.202881,-0.11792,-0.452637,0.860229
65281262044,0.202209,-0.116333,-0.451965,0.860962
65281278521,0.201416,-0.11377,-0.451294,0.861877
65281298149,0.200317,-0.110291,-0.45105,0.862671
65281314533,0.198975,-0.106628,-0.451172,0.863403
65281337065,0.198059,-0.10321,-0.451477,0.863831
65281361054,0.197937,-0.0999756,-0.451782,0.864136
65281374616,0.198181,-0.0966187,-0.452271,0.864197
65281397793,0.198242,-0.0933228,-0.453308,0.864014
65281427670,0.197815,-0.090332,-0.454407,0.863831
65281434521,0.197876,-0.0876465,-0.455627,0.863464
65281457091,0.198792,-0.0853271,-0.456726,0.862854
65281479573,0.19989,-0.083313,-0.458069,0.862122
65281496069,0.200745,-0.081665,-0.459534,0.861267
65281517046,0.201294,-0.0799561,-0.460999,0.860596
65281538961,0.201782,-0.0782471,-0.462219,0.859924
65281555262,0.201965,-0.0767822,-0.463196,0.859497
65281576425,0.202209,-0.0755615,-0.464233,0.859009
65281598818,0.201965,-0.0744629,-0.465271,0.858582
65281615298,0.201172,-0.0734863,-0.466309,0.858276
65281637732,0.19989,-0.0722656,-0.467285,0.858154
65281660283,0.198547,-0.0713501,-0.46814,0.858093
65281675334,0.197571,-0.0710449,-0.46875,0.857971
65281696457,0.197327,-0.0717163,-0.46936,0.857666
65281718777,0.197205,-0.072876,-0.470032,0.857239
65281735227,0.196777,-0.0739136,-0.470947,0.85675
65281756435,0.195557,-0.0744019,-0.472046,0.856384
65281778896,0.194031,-0.0745239,-0.473083,0.85614
65281795237,0.19281,-0.074585,-0.473938,0.855896
65281816471,0.192261,-0.074646,-0.474487,0.855774
65281838960,0.191895,-0.0744629,-0.474854,0.855652
65281855242,0.190796,-0.0737915,-0.475403,0.855652
65281876449,0.189209,-0.0731812,-0.475952,0.855713
65281898979,0.187866,-0.072998,-0.476318,0.855835
65281921479,0.187134,-0.0732422,-0.476746,0.855713
65281936234,0.186584,-0.0733032,-0.477173,0.855591
65281960257,0.185974,-0.072876,-0.4776,0.855591
65281975669,0.18512,-0.0725098,-0.478027,0.85553
65281996405,0.184204,-0.0724487,-0.478455,0.855469
65282020220,0.183472,-0.0720825,-0.478638,0.855591
65282035260,0.183044,-0.0718994,-0.47876,0.855591
65282071992,0.182251,-0.0719604,-0.478882,0.855713
65282078747,0.18158,-0.0720215,-0.478943,0.855835
65282095186,0.180847,-0.0720215,-0.47876,0.856079
65282131935,0.179932,-0.0720825,-0.478638,0.856323
65282138752,0.178955,-0.0720825,-0.478455,0.856628
65282162764,0.178162,-0.0718994,-0.478271,0.856934
65282177859,0.177612,-0.0718994,-0.478088,0.857117
65282198951,0.177307,-0.0717773,-0.477905,0.8573
65282215265,0.177246,-0.0718384,-0.477783,0.857361
65282237781,0.177307,-0.0722656,-0.477844,0.8573
65282258989,0.177307,-0.0725098,-0.477722,0.857361
65282274660,0.177185,-0.072876,-0.477661,0.857361
65282303985,0.176819,-0.0730591,-0.4776,0.857483
65282318848,0.176453,-0.0733032,-0.477478,0.857605
65282334523,0.17627,-0.0736084,-0.477295,0.857727
65282356351,0.176208,-0.0737915,-0.477112,0.857788
65282378955,0.176208,-0.0737915,-0.477112,0.857788
65282394615,0.176208,-0.0737305,-0.477112,0.857788
65282416376,0.176208,-0.0739136,-0.477051,0.857849
65282438922,0.176453,-0.0740967,-0.47699,0.857788
65282454656,0.176636,-0.0743408,-0.47699,0.857727
65282478271,0.176636,-0.0745239,-0.477051,0.857727
65282499742,0.176575,-0.074585,-0.477051,0.857727
65282514624,0.176514,-0.0745239,-0.477051,0.857727
65282537752,0.176514,-0.0745239,-0.477051,0.857727
65282559022,0.176453,-0.074707,-0.477051,0.857727
65282574660,0.176392,-0.074707,-0.477051,0.857727
65282597852,0.176086,-0.074585,-0.477051,0.857788
65282618798,0.175903,-0.0742798,-0.477051,0.857849
65282634599,0.175842,-0.0742188,-0.477051,0.85791
65282657771,0.175659,-0.0744019,-0.477051,0.85791
65282678809,0.175659,-0.0744019,-0.477051,0.85791
65282694581,0.175659,-0.0744019,-0.477051,0.85791
65282717778,0.175598,-0.0744019,-0.477051,0.85791
65282738974,0.175598,-0.0744019,-0.477051,0.85791
65282754623,0.175659,-0.0743408,-0.477051,0.85791
65282777757,0.175537,-0.0744629,-0.477112,0.85791
65282798934,0.175476,-0.0744629,-0.477112,0.85791
65282814597,0.175476,-0.0744629,-0.477051,0.85791
65282837749,0.178223,-0.0767212,-0.476929,0.857239
65282859005,0.180298,-0.0778198,-0.476135,0.857178
65282874662,0.179871,-0.0765381,-0.475586,0.857666
65282897753,0.177368,-0.0748901,-0.476074,0.858032
65282918837,0.174438,-0.072876,-0.476685,0.858521
65282938815,0.173462,-0.0720215,-0.476562,0.858826
65282957820,0.174927,-0.072876,-0.476074,0.858704
65282980287,0.176636,-0.0740356,-0.475708,0.858521
65282994581,0.176758,-0.0740967,-0.475647,0.858521
65283017788,0.175598,-0.0735474,-0.475891,0.858643
65283038998,0.174744,-0.0733643,-0.476013,0.858765
65283062704,0.17511,-0.0738525,-0.475769,0.858765
65283077841,0.175842,-0.074707,-0.475342,0.858826
65283099016,0.175964,-0.0752563,-0.474915,0.858948
65283114649,0.175171,-0.0750122,-0.47467,0.859253
65283145197,0.174072,-0.0743408,-0.474487,0.859619
65283158821,0.173584,-0.0740356,-0.474304,0.859863
65283174560,0.173584,-0.0743408,-0.474121,0.859985
65283197024,0.173706,-0.074646,-0.473938,0.859985
65283218844,0.173645,-0.074646,-0.473938,0.860046
65283234564,0.173035,-0.0743408,-0.473938,0.860168
65283257139,0.172424,-0.0742798,-0.47406,0.860229
65283278892,0.17218,-0.0745239,-0.473999,0.860291
65283294693,0.172302,-0.0747681,-0.473877,0.860291
65283325241,0.172302,-0.074707,-0.473877,0.860291
65283338836,0.172058,-0.074707,-0.473877,0.860352
65283354674,0.171753,-0.0748901,-0.473999,0.860352
65283377072,0.171448,-0.0753174,-0.47406,0.860352
65283400247,0.171082,-0.0753784,-0.473938,0.860474
65283414694,0.170898,-0.0750122,-0.473877,0.860596
65283437134,0.170898,-0.0749512,-0.473877,0.860596
65283460256,0.170898,-0.0750122,-0.473938,0.860535
65283474664,0.171143,-0.0753174,-0.474121,0.860352
65283497105,0.171265,-0.0755615,-0.474243,0.860229
65283520227,0.171326,-0.0755005,-0.474243,0.860229
65283534547,0.171387,-0.0755005,-0.474243,0.860229
65283557181,0.171692,-0.0756226,-0.474182,0.860229
65283580348,0.172058,-0.0759277,-0.473999,0.860168
65283594631,0.171997,-0.0761719,-0.473816,0.860291
65283617105,0.171875,-0.0757446,-0.473389,0.860596
65283646312,0.171875,-0.0751343,-0.472961,0.86084
65283654641,0.171936,-0.0750122,-0.472656,0.861023
65283677052,0.172241,-0.0754395,-0.472229,0.861145
65283700224,0.172302,-0.0759888,-0.471802,0.861328
65283721533,0.171814,-0.0758667,-0.471375,0.861694
65283737157,0.171143,-0.0751343,-0.471069,0.862061
65283760255,0.170837,-0.074707,-0.470947,0.862244
65283774623,0.170654,-0.0744629,-0.470703,0.862366
65283797126,0.169922,-0.0737305,-0.470825,0.862549
65283820254,0.169128,-0.0736694,-0.471008,0.86261
65283834557,0.169006,-0.0736694,-0.471008,0.86261
65283857206,0.168762,-0.0733643,-0.470703,0.862854
65283880384,0.169128,-0.0733032,-0.470642,0.862854
65283901294,0.169556,-0.0731201,-0.470825,0.862671
65283917081,0.169617,-0.072998,-0.471252,0.862427
65283940327,0.169617,-0.072876,-0.471802,0.862122
65283961311,0.170044,-0.072876,-0.472107,0.861877
65283983848,0.171021,-0.0732422,-0.47229,0.861572
65284000313,0.171631,-0.0739136,-0.472351,0.861328
65284021363,0.171814,-0.0739746,-0.472168,0.861389
65284037123,0.171692,-0.0734253,-0.472046,0.861572
65284060303,0.17157,-0.0731201,-0.471985,0.861633
65284088875,0.171814,-0.0734253,-0.471802,0.861633
65284097069,0.172363,-0.0741577,-0.471558,0.861633
65284120319,0.172668,-0.074646,-0.471313,0.861633
65284141434,0.172302,-0.074585,-0.471008,0.861877
65284157172,0.171814,-0.0744019,-0.470764,0.862183
65284179648,0.171753,-0.0744019,-0.470459,0.862305
65284201394,0.172241,-0.0745239,-0.470093,0.862427
65284217161,0.172302,-0.0737305,-0.469849,0.86261
65284239677,0.171753,-0.0727539,-0.469849,0.862793
65284261488,0.171387,-0.0719604,-0.469971,0.862854
65284277134,0.171631,-0.0717163,-0.469788,0.862915
65284299683,0.171936,-0.0717773,-0.469849,0.862854
65284322874,0.172058,-0.0718384,-0.469788,0.862854
65284337134,0.17218,-0.0719604,-0.469849,0.862793
65284359646,0.172302,-0.0722656,-0.46991,0.862671
65284382820,0.172363,-0.0725098,-0.470032,0.86261
65284397133,0.172241,-0.0726318,-0.470154,0.862549
65284419705,0.171936,-0.0725098,-0.470337,0.862488
65284442835,0.171814,-0.0725708,-0.470581,0.862427
65284457124,0.171875,-0.0727539,-0.470642,0.862305
65284479600,0.172241,-0.072937,-0.470642,0.862244
65284502725,0.172424,-0.0725708,-0.470642,0.862244
65284517088,0.172302,-0.0720825,-0.470825,0.862183
65284539591,0.172302,-0.0720215,-0.470825,0.862183
65284562770,0.172424,-0.0722046,-0.470947,0.862122
65284577129,0.172485,-0.0722046,-0.470947,0.862122
65284599589,0.172485,-0.0722656,-0.470947,0.862122
65284628802,0.172424,-0.0722046,-0.470947,0.862122
65284637096,0.172424,-0.0720825,-0.470886,0.862183
65284659604,0.172729,-0.0717773,-0.470825,0.862183
65284682768,0.172852,-0.0714111,-0.470825,0.862122
65284697076,0.172913,-0.071167,-0.471008,0.862061
65284726356,0.173157,-0.071167,-0.471191,0.861938
65284742812,0.173462,-0.0713501,-0.471252,0.861816
65284757104,0.173706,-0.0714722,-0.471252,0.861755
65284779595,0.173767,-0.0714111,-0.471252,0.861755
65284802510,0.173584,-0.071228,-0.47113,0.861877
65284817095,0.173462,-0.071167,-0.470947,0.862
65284839594,0.173523,-0.0709839,-0.470703,0.862122
65284862767,0.173584,-0.0707397,-0.47052,0.862244
65284883826,0.173584,-0.0707397,-0.47052,0.862244
65284899589,0.173584,-0.0706787,-0.47052,0.862244
65284923249,0.173584,-0.0706787,-0.47052,0.862244
65284943841,0.173584,-0.0706787,-0.47052,0.862244
65284959597,0.173523,-0.0706177,-0.47052,0.862244
65284982757,0.173523,-0.0706177,-0.47052,0.862244
65285003820,0.173584,-0.0704956,-0.470398,0.862305
65285019591,0.173584,-0.0702515,-0.470337,0.862366
65285042794,0.173584,-0.0702515,-0.470337,0.862366
65285063862,0.173584,-0.0702515,-0.470337,0.862366
65285079597,0.173279,-0.0700684,-0.470337,0.862427
65285108821,0.173218,-0.0700684,-0.470337,0.862427
65285123866,0.173218,-0.0700684,-0.470337,0.862427
65285139607,0.173218,-0.0700684,-0.470337,0.862427
65285162095,0.173218,-0.0700684,-0.470337,0.862427
65285183843,0.173218,-0.0700684,-0.470337,0.862488
65285199604,0.173157,-0.0700684,-0.470337,0.862488
65285222074,0.173157,-0.0700684,-0.470337,0.862488
65285243822,0.173157,-0.0700073,-0.470337,0.862488
65285259623,0.173096,-0.0700073,-0.470337,0.862488
65285273196,0.173218,-0.0700073,-0.470215,0.862549
65285295695,0.173218,-0.0700073,-0.470215,0.862549
65285318826,0.17334,-0.0701294,-0.470215,0.862488
65285342813,0.173401,-0.0705566,-0.470276,0.862427
65285355756,0.17334,-0.0705566,-0.470276,0.862427
65285378893,0.173279,-0.0702515,-0.470154,0.862549
65285393148,0.173584,-0.0701904,-0.470032,0.862549
65285415758,0.173828,-0.0701294,-0.46991,0.862549
65285438857,0.17395,-0.0700684,-0.469971,0.862549
65285453209,0.17395,-0.0700073,-0.469971,0.862549
