timestamp,roll,pitch,yaw
60014396981,-3.04875,1.3903,1.94885
60014411979,-3.04941,1.38817,1.94732
60014433383,-3.04984,1.38656,1.94541
60014448321,-3.05199,1.38615,1.94238
60014472057,-3.05328,1.38515,1.94067
60014493439,-3.05435,1.38333,1.9399
60014532010,-3.05237,1.38191,1.94321
60014540112,-3.04988,1.38034,1.94527
60014554007,-3.04872,1.37782,1.945
60014577657,-3.05424,1.37566,1.93937
60014592782,-3.05912,1.37373,1.93691
60014614068,-3.06285,1.37131,1.93759
60014650709,-3.06541,1.36945,1.93915
60014660782,-3.06767,1.36833,1.93986
60014674693,-3.07096,1.36827,1.93864
60014689627,-3.07753,1.36843,1.93346
60014712146,-3.08081,1.36909,1.9312
60014734698,-3.08361,1.36986,1.92867
60014749631,-3.0885,1.37027,1.92462
60014772182,-3.09435,1.37081,1.91995
60014794598,-3.10107,1.37201,1.91478
60014809639,-3.108,1.37276,1.90708
60014831287,-3.1157,1.37399,1.89854
60014853780,-3.12236,1.375,1.89178
60014876276,-3.12846,1.37569,1.88656
60014891276,-3.13496,1.37745,1.88171
60014914194,3.14091,1.37912,1.87572
60014936384,3.13272,1.38124,1.86842
60014951350,3.12353,1.38343,1.85945
60014973866,3.11467,1.38611,1.85078
60014996402,3.10756,1.38819,1.84321
60015012733,3.10262,1.39017,1.83775
60015033937,3.09964,1.39172,1.83374
60015056399,3.09738,1.39265,1.83027
60015071415,3.09638,1.39296,1.82818
60015093880,3.09566,1.39287,1.82675
60015116324,3.09658,1.3928,1.8271
60015131306,3.09696,1.39326,1.82657
60015153780,3.09951,1.39346,1.82909
60015176280,3.10357,1.39317,1.83311
60015191334,3.11134,1.39406,1.84161
60015213756,3.11834,1.39394,1.84841
60015236316,3.12518,1.39361,1.85524
60015251311,3.13224,1.39296,1.86259
60015273777,3.14006,1.39278,1.8709
60015296287,-3.13747,1.39195,1.87591
60015318858,-3.13481,1.39175,1.87845
60015333914,-3.13131,1.39264,1.88254
60015356262,-3.1298,1.39321,1.88381
60015371369,-3.12553,1.3947,1.8889
60015403472,-3.11972,1.39501,1.8941
60015408201,-3.11447,1.39581,1.89842
60015431376,-3.11052,1.39651,1.90142
60015453808,-3.10534,1.39681,1.90569
60015468224,-3.10085,1.39781,1.90993
60015498825,-3.09797,1.3983,1.91237
60015513801,-3.09645,1.39838,1.91316
60015528155,-3.09502,1.3992,1.91508
60015551326,-3.09298,1.40057,1.91814
60015573779,-3.09107,1.40074,1.91969
60015588208,-3.08772,1.40113,1.92379
60015611382,-3.08345,1.40161,1.92893
60015633787,-3.07868,1.4016,1.93337
60015649578,-3.07631,1.40179,1.93589
60015672731,-3.07429,1.40182,1.93801
60015693848,-3.0729,1.40212,1.94039
60015709632,-3.07027,1.40264,1.94401
60015732752,-3.06946,1.40246,1.94493
60015753805,-3.06906,1.40314,1.946
60015769595,-3.06906,1.40314,1.946
60015792846,-3.06845,1.40339,1.94588
60015813971,-3.0677,1.40389,1.9464
60015829656,-3.06628,1.40406,1.94703
60015852849,-3.06531,1.4039,1.947
60015873876,-3.06574,1.40419,1.94683
60015889673,-3.06589,1.40436,1.94697
60015912818,-3.06611,1.40398,1.94625
60015933849,-3.06644,1.40444,1.94635
60015949600,-3.06599,1.40477,1.94703
60015972791,-3.06701,1.40494,1.94651
60015993852,-3.06709,1.40357,1.94596
60016009582,-3.06661,1.40374,1.94764
60016032752,-3.0652,1.40257,1.94845
60016053762,-3.06524,1.40243,1.9489
60016069553,-3.06578,1.40174,1.94878
60016092781,-3.06525,1.40148,1.95022
60016113804,-3.06482,1.4012,1.95038
60016129607,-3.06437,1.40152,1.95104
60016152765,-3.06437,1.40152,1.95104
60016173940,-3.06563,1.40171,1.95042
60016189673,-3.06734,1.40157,1.94914
60016212754,-3.06598,1.40136,1.95085
60016234543,-3.06598,1.40136,1.95085
60016249660,-3.06598,1.40136,1.95085
60016272164,-3.06545,1.40129,1.95146
60016293926,-3.06758,1.40143,1.95002
60016309694,-3.06758,1.40143,1.95002
60016332140,-3.06779,1.40106,1.94931
60016353910,-3.06899,1.40146,1.94859
60016369669,-3.07098,1.40214,1.9463
60016392172,-3.07241,1.40235,1.94403
60016413820,-3.07211,1.40252,1.94387
60016429582,-3.07115,1.40179,1.94351
60016452096,-3.07031,1.40189,1.94397
60016475241,-3.07069,1.40178,1.94322
60016496385,-3.0708,1.40181,1.94213
60016512104,-3.07111,1.4024,1.94176
60016535259,-3.0706,1.40319,1.94345
60016549611,-3.0688,1.40514,1.94561
60016572136,-3.06475,1.4079,1.94611
60016595286,-3.06177,1.41077,1.94611
60016609725,-3.05822,1.41261,1.94759
60016632223,-3.05548,1.41341,1.94782
60016655371,-3.05595,1.41431,1.94558
60016669646,-3.05888,1.41497,1.94167
60016692195,-3.05888,1.41497,1.94167
60016715305,-3.05924,1.41545,1.94179
60016729694,-3.06172,1.41543,1.93932
60016752222,-3.06428,1.41495,1.9372
60016775380,-3.06414,1.41415,1.93844
60016789644,-3.06042,1.41306,1.94198
60016812104,-3.05906,1.41197,1.94192
60016835262,-3.0597,1.4116,1.94077
60016849576,-3.05962,1.41088,1.93975
60016872130,-3.06006,1.41049,1.93803
60016895289,-3.06055,1.40986,1.93639
60016909606,-3.06044,1.4095,1.93653
60016932148,-3.05978,1.40857,1.93818
60016955307,-3.05711,1.40813,1.94228
60016976425,-3.05287,1.40745,1.94753
60016992179,-3.04961,1.40615,1.95152
60017015346,-3.04559,1.40509,1.95718
60017036349,-3.0425,1.40394,1.96179
60017052130,-3.03818,1.40359,1.96796
60017075320,-3.03564,1.40311,1.97229
60017096348,-3.0328,1.40218,1.97649
60017112118,-3.02759,1.40208,1.98322
60017135310,-3.02297,1.4017,1.98884
60017163818,-3.01796,1.40106,1.99408
60017172142,-3.01561,1.40066,1.99677
60017194638,-3.0151,1.40057,1.99786
60017216396,-3.01465,1.40029,1.99804
60017232128,-3.0124,1.40091,2.00027
60017262838,-3.0124,1.40091,2.00027
60017276320,-3.0124,1.40091,2.00027
60017292104,-3.01256,1.40054,1.99959
60017314633,-3.01144,1.40054,2.00153
60017336312,-3.01049,1.40017,2.0028
60017352135,-3.01049,1.40017,2.0028
60017374645,-3.01049,1.40017,2.0028
60017397783,-3.01002,1.39988,2.0035
60017412156,-3.00955,1.40018,2.00468
60017434609,-3.00955,1.40018,2.00468
60017457773,-3.00955,1.40018,2.00468
60017472151,-3.01119,1.40065,2.00229
60017501382,-3.01193,1.40117,2.00073
60017517781,-3.01328,1.4018,1.99868
60017532167,-3.01391,1.40271,1.99728
60017554645,-3.01504,1.40371,1.9953
60017577778,-3.01677,1.40421,1.99232
60017592122,-3.01821,1.40464,1.98984
60017614657,-3.0173,1.40569,1.9907
60017638468,-3.01835,1.40586,1.989
60017652134,-3.01868,1.40632,1.98912
60017674645,-3.01965,1.40582,1.98797
60017697795,-3.0202,1.40667,1.98863
60017712108,-3.02018,1.40743,1.98927
60017734660,-3.01739,1.40779,1.9918
60017757832,-3.01658,1.40805,1.99187
60017772139,-3.01658,1.40805,1.99187
60017794631,-3.01706,1.4081,1.9918
60017817834,-3.01664,1.40822,1.9921
60017832137,-3.01758,1.40857,1.99185
60017854606,-3.01826,1.40825,1.99222
60017877828,-3.02055,1.40719,1.99093
60017898876,-3.02377,1.40589,1.99008
60017914632,-3.03169,1.40477,1.98539
60017945296,-3.03502,1.40359,1.98697
60017958867,-3.03469,1.40181,1.99011
60017974625,-3.03441,1.40102,1.99319
60017998241,-3.03783,1.40177,1.99264
60018018864,-3.04176,1.40305,1.9927
60018034650,-3.04863,1.40386,1.98951
60018057822,-3.05091,1.40446,1.98899
60018078819,-3.05307,1.40581,1.98858
60018094640,-3.06692,1.40797,1.97605
60018117115,-3.08663,1.41134,1.96044
60018138863,-3.10764,1.41418,1.94333
60018154664,-3.12128,1.41686,1.93107
60018177100,3.13917,1.42022,1.90828
60018198864,3.10555,1.4229,1.87863
60018214631,3.07249,1.4272,1.85469
60018237183,3.05216,1.42974,1.84245
60018258659,3.02616,1.4314,1.81861
60018274633,3.00152,1.43263,1.79271
60018297100,2.97989,1.43421,1.76956
60018320404,2.97735,1.43348,1.76535
60018334670,2.96736,1.43298,1.74979
60018357150,2.93898,1.42952,1.71921
60018380314,2.90755,1.42696,1.69034
60018394634,2.87636,1.42658,1.66308
60018417184,2.86318,1.42462,1.65083
60018440184,2.84597,1.42256,1.63177
60018454774,2.82073,1.42107,1.60674
60018477276,2.79817,1.42121,1.58524
60018500436,2.77948,1.42165,1.56627
60018513951,2.77303,1.42216,1.55684
60018528333,2.77732,1.42242,1.55546
60018550750,2.77669,1.4198,1.55111
60018582079,2.77513,1.41805,1.55122
60018588253,2.77733,1.4161,1.5563
60018610732,2.78187,1.41468,1.56291
60018633893,2.78781,1.41455,1.57026
60018648230,2.79199,1.41435,1.57427
60018670674,2.79581,1.4148,1.58113
60018693855,2.79918,1.41457,1.58811
60018708221,2.80855,1.41408,1.59945
60018730875,2.81442,1.41159,1.60397
60018753925,2.82049,1.40836,1.60884
60018768249,2.82608,1.4042,1.61438
60018799663,2.832,1.39928,1.62099
60018813947,2.83873,1.39538,1.62987
60018828346,2.84199,1.38997,1.63402
60018859645,2.83937,1.38836,1.63189
60018873971,2.84154,1.38801,1.63348
60018888306,2.84682,1.38696,1.6375
60018912191,2.85376,1.38611,1.64304
60018933939,2.8638,1.38601,1.65151
60018948258,2.87287,1.38459,1.65984
60018970750,2.87709,1.38413,1.66523
60018993896,2.87869,1.38255,1.66839
60019008214,2.87805,1.38137,1.66964
60019032217,2.87906,1.38033,1.67219
60019054008,2.8816,1.37899,1.67482
60019068254,2.8829,1.37867,1.67412
60019090778,2.88144,1.37787,1.66907
60019113931,2.87651,1.37713,1.66138
60019128277,2.86889,1.37584,1.65221
60019150806,2.8617,1.37415,1.64481
60019173894,2.8586,1.37317,1.64237
60019188275,2.85666,1.37194,1.64019
60019210763,2.85466,1.3711,1.63877
60019233982,2.85218,1.37003,1.6365
60019248338,2.84892,1.36892,1.63294
60019270776,2.85031,1.36812,1.63407
60019293243,2.85155,1.36697,1.63531
60019311803,2.85103,1.36621,1.63615
60019330679,2.85156,1.36541,1.63752
60019353208,2.85054,1.36451,1.63606
60019368251,2.84829,1.36367,1.63332
60019390798,2.84869,1.36215,1.63374
60019413353,2.85042,1.36052,1.63556
60019428381,2.85046,1.35815,1.63708
60019450828,2.85116,1.35502,1.6407
60019473273,2.85428,1.35244,1.64717
60019488275,2.85872,1.35196,1.65172
60019510803,2.86201,1.35203,1.65495
60019533360,2.86681,1.35227,1.65957
60019548265,2.86744,1.35221,1.66024
60019578891,2.86718,1.35225,1.66106
60019593310,2.86647,1.35198,1.66084
60019616479,2.86302,1.35189,1.6569
60019630808,2.86016,1.35177,1.65356
60019654731,2.85826,1.35028,1.6501
60019668258,2.85778,1.34961,1.64956
60019692254,2.85861,1.34825,1.65062
60019713321,2.85934,1.34671,1.6526
60019728354,2.86057,1.34519,1.65673
60019750781,2.86192,1.34303,1.66129
60019773339,2.86227,1.34027,1.66514
60019788333,2.86141,1.33703,1.66766
60019810802,2.86086,1.33386,1.66991
60019833303,2.85992,1.3312,1.67016
60019848360,2.85857,1.32777,1.66962
60019870795,2.85651,1.32498,1.66955
60019893308,2.85619,1.32293,1.67061
60019908364,2.85601,1.32169,1.67132
60019930798,2.85597,1.32099,1.67255
60019962171,2.85601,1.32032,1.6742
60019968260,2.85775,1.32043,1.6773
60019998954,2.85979,1.32007,1.68032
60020013356,2.86211,1.31991,1.68343
60020029784,2.8642,1.31981,1.68565
60020050759,2.8642,1.31981,1.68565
60020081446,2.8642,1.31981,1.68565
60020089690,2.86432,1.31965,1.68569
60020110734,2.86411,1.31996,1.68571
60020133213,2.86441,1.32019,1.68605
60020149673,2.86496,1.31991,1.68598
60020170749,2.86573,1.32001,1.6863
60020193330,2.86895,1.31957,1.68912
60020217282,2.87422,1.3195,1.69383
60020230784,2.87838,1.31844,1.69757
60020253322,2.87723,1.31749,1.69856
60020275776,2.87816,1.31707,1.70179
60020290812,2.88132,1.31732,1.7068
60020313338,2.88593,1.317,1.71308
60020329764,2.89351,1.31739,1.7228
60020350747,2.89905,1.31788,1.73036
60020373259,2.90289,1.31822,1.73619
60020391114,2.90639,1.31884,1.74159
60020410814,2.9077,1.31939,1.74335
60020433345,2.9085,1.32255,1.74208
60020449796,2.90802,1.32525,1.73538
60020470867,2.90894,1.32708,1.73189
60020493332,2.91181,1.32681,1.73168
60020509802,2.91504,1.32558,1.73458
60020530867,2.91952,1.32458,1.74061
60020553257,2.92176,1.32354,1.74484
60020577219,2.92483,1.32321,1.7492
60020590703,2.92937,1.32322,1.75431
60020613233,2.92994,1.32294,1.75613
60020629691,2.93048,1.32293,1.75885
60020650762,2.93197,1.32282,1.76175
60020673215,2.93214,1.3223,1.76283
60020689738,2.93393,1.32273,1.76565
60020710703,2.93567,1.32255,1.76763
60020733311,2.93672,1.32176,1.76863
60020749836,2.93844,1.32152,1.77116
60020770838,2.94044,1.321,1.77404
60020793351,2.9418,1.32091,1.77677
60020809750,2.94399,1.32043,1.78019
60020830834,2.94529,1.32026,1.78232
60020853297,2.94529,1.32026,1.78232
60020869785,2.9441,1.32035,1.78068
60020890804,2.94171,1.31989,1.7775
60020913301,2.94015,1.31991,1.7756
60020929729,2.93804,1.31969,1.77437
60020950718,2.93689,1.31958,1.77401
60020973304,2.93547,1.31972,1.77308
60020989725,2.9346,1.31996,1.77296
60021012185,2.9346,1.31996,1.77296
60021033347,2.9346,1.31996,1.77296
60021055819,2.93476,1.3198,1.77302
60021072240,2.93507,1.32002,1.77338
60021093327,2.93507,1.32002,1.77338
60021111234,2.93393,1.32026,1.772
60021132275,2.93237,1.32087,1.76976
60021153355,2.92964,1.32122,1.7661
60021169760,2.92702,1.32281,1.76331
60021192230,2.92547,1.32394,1.76026
60021216206,2.9248,1.32504,1.75781
60021229712,2.92439,1.32514,1.75603
60021252203,2.92404,1.32532,1.75485
60021273314,2.92294,1.32588,1.75313
60021289689,2.92154,1.32641,1.75151
60021312233,2.92015,1.32662,1.75032
60021333407,2.91942,1.32721,1.75024
60021349776,2.91748,1.32808,1.74895
60021372254,2.91748,1.32808,1.74895
60021393293,2.91717,1.32781,1.74835
60021409822,2.91695,1.32814,1.74838
60021432316,2.91711,1.32797,1.74843
60021461583,2.91711,1.32797,1.74843
60021469772,2.91651,1.32767,1.74876
60021499820,2.91529,1.32692,1.74835
60021513253,2.91514,1.32652,1.74888
60021529681,2.91429,1.3256,1.74807
60021552226,2.91419,1.32564,1.74816
60021573270,2.91165,1.32518,1.74557
60021589803,2.90913,1.32547,1.7437
60021612332,2.90692,1.32579,1.74174
60021633357,2.90432,1.32576,1.73856
60021649825,2.90088,1.32632,1.73515
60021672292,2.90057,1.32609,1.73479
60021701433,2.89804,1.32634,1.73267
60021709759,2.89704,1.32634,1.73167
60021739769,2.89542,1.32635,1.72972
60021753258,2.89242,1.32654,1.72718
60021769768,2.89188,1.32676,1.7268
60021792225,2.89089,1.32722,1.72557
60021813351,2.88935,1.32708,1.72354
60021829765,2.88935,1.32708,1.72354
60021853709,2.88935,1.32708,1.72354
60021873273,2.88935,1.32708,1.72354
60021889728,2.88935,1.32708,1.72354
60021912312,2.88927,1.3274,1.72382
60021934774,2.88858,1.32762,1.72318
60021949829,2.88873,1.32746,1.72323
60021972278,2.88905,1.32832,1.72357
60021994752,2.88983,1.32897,1.72338
60022011182,2.88796,1.32987,1.72092
60022032272,2.88632,1.33049,1.71866
60022056223,2.88506,1.33137,1.71714
60022077225,2.88425,1.33208,1.71534
60022092208,2.88272,1.33322,1.71332
60022114709,2.88314,1.33426,1.71247
60022131175,2.88098,1.33588,1.70747
60022152327,2.87923,1.33798,1.70374
60022174821,2.87659,1.34005,1.69976
60022191266,2.87391,1.34145,1.6973
60022211510,2.87127,1.34213,1.69472
60022234005,2.86655,1.34248,1.68966
60022249793,2.86128,1.34222,1.68403
60022271537,2.85774,1.342,1.68065
60022293998,2.85404,1.34116,1.67652
60022309809,2.84961,1.34081,1.67235
60022331467,2.84557,1.33988,1.66802
60022353962,2.84116,1.33972,1.66431
60022369710,2.83614,1.3398,1.66038
60022391493,2.8311,1.33935,1.65644
60022414042,2.82627,1.33906,1.65218
60022437973,2.81889,1.3394,1.64451
60022451569,2.81313,1.33944,1.63789
60022473992,2.80731,1.33971,1.63146
60022489774,2.80257,1.33978,1.62575
60022511520,2.79989,1.3401,1.62238
60022533997,2.79805,1.33973,1.62026
60022549793,2.79558,1.33889,1.61744
60022571468,2.79421,1.33861,1.61563
60022594071,2.79121,1.33813,1.6115
60022609792,2.78694,1.33774,1.60611
60022631478,2.78355,1.33804,1.60148
60022653990,2.78294,1.33846,1.59895
60022669724,2.78203,1.33897,1.59582
60022691485,2.78141,1.33996,1.59369
60022713958,2.78093,1.34136,1.59195
60022730403,2.77665,1.34299,1.58742
60022751482,2.77212,1.34446,1.58347
60022773941,2.76813,1.3464,1.57985
60022790405,2.76443,1.34712,1.57609
60022811453,2.7597,1.34707,1.5709
60022833945,2.75642,1.34753,1.56777
60022850462,2.75342,1.34803,1.56466
60022871561,2.74893,1.34971,1.56018
60022894066,2.74649,1.35155,1.5568
60022909782,2.74797,1.35318,1.55667
60022931526,2.74864,1.35504,1.55551
60022954069,2.74554,1.35652,1.55297
60022969763,2.74312,1.35748,1.55242
60022991533,2.74084,1.3595,1.55059
60023021478,2.73751,1.36118,1.54532
60023029752,2.73592,1.36231,1.54252
60023060403,2.73352,1.36335,1.53992
60023073976,2.73685,1.36453,1.54296
60023089760,2.74308,1.36586,1.54843
60023112914,2.74927,1.36678,1.55361
60023134008,2.75935,1.36781,1.56203
60023149785,2.76808,1.36899,1.56676
60023172975,2.77183,1.37008,1.56719
60023201601,2.77729,1.37138,1.57057
60023209777,2.78035,1.37278,1.57069
60023232983,2.78482,1.3737,1.57069
60023261599,2.78814,1.3744,1.56763
60023269848,2.79023,1.37627,1.56271
60023293006,2.79287,1.37957,1.55762
60023314038,2.7909,1.38511,1.54782
60023329856,2.77477,1.39755,1.51946
60023352920,2.75796,1.40823,1.48553
60023373976,2.7544,1.41858,1.45979
60023389766,2.76413,1.42473,1.44256
60023412903,2.75622,1.42927,1.41075
60023435415,2.7463,1.43169,1.38003
60023449754,2.74123,1.43367,1.35711
60023472965,2.74249,1.43516,1.34249
60023494112,2.75475,1.43643,1.34287
60023509784,2.76785,1.43967,1.34977
60023533001,2.76394,1.44085,1.34501
60023554009,2.75327,1.44121,1.33555
60023576460,2.7381,1.43868,1.32194
60023593020,2.72847,1.43383,1.31547
60023621599,2.72232,1.42972,1.31132
60023629842,2.7053,1.42438,1.2937
60023653588,2.68224,1.42016,1.27297
60023673997,2.66216,1.41757,1.2602
60023689742,2.65298,1.41243,1.261
60023712986,2.64836,1.40812,1.26515
60023734061,2.64314,1.40544,1.2645
60023749848,2.62647,1.40385,1.25053
60023772971,2.59691,1.40479,1.22223
60023794064,2.53236,1.41484,1.15431
60023809817,2.48198,1.42187,1.09749
60023832371,2.42499,1.42305,1.0412
60023854019,2.37903,1.42334,1.00108
60023869828,2.34903,1.42386,0.976106
60023900401,2.32355,1.42212,0.956143
60023913961,2.30509,1.42081,0.943299
60023929748,2.27701,1.41847,0.916934
60023952232,2.26109,1.41276,0.906285
60023975405,2.27128,1.40591,0.922868
60024005469,2.28292,1.39799,0.938956
60024012359,2.292,1.39138,0.953611
60024035504,2.30006,1.38579,0.966522
60024058025,2.31157,1.38164,0.978672
60024072358,2.31353,1.37669,0.982077
60024095527,2.30798,1.37199,0.981468
60024109841,2.30259,1.36741,0.981496
60024132376,2.2967,1.36342,0.976679
60024155493,2.29041,1.3605,0.970366
60024169824,2.28366,1.35754,0.961352
60024192293,2.27401,1.35528,0.948466
60024215431,2.25829,1.35499,0.927869
60024229798,2.23482,1.35687,0.896841
60024252385,2.20056,1.3595,0.855475
60024275531,2.16776,1.35956,0.821712
60024296550,2.1375,1.35828,0.793372
60024312381,2.11405,1.35674,0.772453
60024335521,2.10103,1.35492,0.761694
60024356551,2.08864,1.35202,0.752938
60024380531,2.08077,1.34832,0.750289
60024395470,2.08216,1.34415,0.756934
60024416506,2.08904,1.34028,0.77037
60024432259,2.09831,1.33449,0.786363
60024455444,2.10743,1.32889,0.804924
60024476464,2.11539,1.32511,0.822034
60024492232,2.12764,1.32206,0.840745
60024522988,2.15144,1.3188,0.871284
60024536582,2.17357,1.31566,0.899498
60024552326,2.19804,1.31241,0.930241
60024575538,2.22414,1.31055,0.958739
60024596574,2.25495,1.30764,0.989459
60024612337,2.28896,1.30453,1.02325
60024635503,2.30927,1.29964,1.04257
60024658032,2.34465,1.29311,1.08034
60024672362,2.38185,1.28561,1.11809
60024695469,2.42015,1.27813,1.1564
60024716491,2.45817,1.26995,1.19356
60024732334,2.49415,1.26106,1.22638
60024754798,2.52627,1.24963,1.25522
60024776465,2.56827,1.23559,1.29372
60024792303,2.61769,1.22114,1.33669
60024823000,2.66374,1.20494,1.37328
60024836630,2.7053,1.18803,1.40625
60024852349,2.74942,1.16942,1.44302
60024874822,2.7919,1.15256,1.47823
60024896553,2.83348,1.13505,1.51097
60024912296,2.87856,1.1174,1.54523
60024934803,2.92582,1.10073,1.57946
60024958003,2.96988,1.08417,1.61286
60024972292,3.02082,1.05463,1.65444
60024994923,3.07665,1.02302,1.69771
60025018012,3.13383,0.989929,1.73546
60025032342,-3.09137,0.951241,1.76478
60025054787,-3.05782,0.899851,1.78769
60025077903,-3.03662,0.854976,1.80665
60025092307,-3.024,0.819423,1.81902
60025114797,-3.01271,0.786505,1.82298
60025137957,-3.01134,0.762904,1.82453
60025152288,-3.01117,0.762014,1.82888
60025174758,-2.99878,0.78649,1.82954
60025198034,-3.00498,0.809815,1.82732
60025219110,-3.01298,0.845389,1.81975
60025234852,-3.02811,0.890041,1.80958
60025258016,-3.05074,0.949426,1.79323
60025279019,-3.081,1.02168,1.76609
60025294925,-3.13081,1.10176,1.72718
60025317976,3.08766,1.18452,1.67504
60025332317,3.00091,1.26694,1.59862
60025354870,2.85591,1.34747,1.45981
60025369750,2.56104,1.4216,1.16945
60025392291,1.87788,1.46615,0.496117
60025414817,1.06579,1.43921,-0.297031
60025429800,0.678052,1.36639,-0.66109
60025452304,0.501385,1.2827,-0.813718
60025474906,0.405995,1.19756,-0.883965
60025491268,0.351356,1.12002,-0.91343
60025512380,0.315229,1.05609,-0.919021
60025534852,0.292797,1.00759,-0.916383
60025549898,0.282642,0.974,-0.915965
60025572400,0.312651,1.00374,-0.907392
60025594771,0.363389,1.03078,-0.894528
60025609860,0.431979,1.09075,-0.857869
60025632345,0.474633,1.12392,-0.833459
60025654873,0.498079,1.1506,-0.815638
60025676516,0.482153,1.20466,-0.785903
60025692324,0.521992,1.24785,-0.72969
60025714798,0.601564,1.28249,-0.632224
60025735871,0.692767,1.31155,-0.514896
60025752282,0.748402,1.32585,-0.440183
60025774825,0.823102,1.34378,-0.373043
60025795963,0.946712,1.36445,-0.26535
60025812332,1.05777,1.37686,-0.151098
60025834875,1.14872,1.38882,-0.0439526
60025855933,1.24432,1.39709,0.0527709
60025872381,1.35807,1.39921,0.15398
60025894163,1.48593,1.40058,0.268914
60025908487,1.58663,1.40005,0.368346
60025931664,1.67473,1.40112,0.462796
60025954137,1.75759,1.40174,0.555078
60025968455,1.84715,1.40403,0.646647
60025991539,1.94028,1.39955,0.738968
60026014070,2.0348,1.39565,0.840923
60026028439,2.09635,1.39144,0.907932
60026052982,2.14885,1.38449,0.964266
60026074034,2.21114,1.37627,1.0338
60026088435,2.29946,1.36595,1.13004
60026111585,2.39718,1.35563,1.23506
60026142275,2.48749,1.33845,1.32911
60026148441,2.56104,1.32087,1.40743
60026171639,2.63636,1.30184,1.48604
60026194002,2.71223,1.27834,1.56817
60026208448,2.77296,1.24883,1.63704
60026231659,2.82314,1.21483,1.69965
60026254139,2.86162,1.17704,1.75586
60026268503,2.89558,1.13677,1.80368
60026291664,2.93289,1.09752,1.84447
60026322240,2.97772,1.06167,1.88644
60026328437,3.04339,1.02731,1.93366
60026359719,3.12455,0.982726,1.97644
60026373994,-3.11147,0.932727,2.00663
60026388408,-3.08823,0.876176,2.01976
60026410877,-3.06584,0.824244,2.02579
60026434027,-3.04884,0.781344,2.02262
60026456381,-3.04907,0.743323,1.9975
60026470994,-3.07867,0.734609,1.96518
60026494065,-3.10658,0.740412,1.94083
60026508537,-3.12791,0.762705,1.91973
60026530985,3.14105,0.794582,1.89963
60026554499,3.1292,0.83846,1.88017
60026568511,3.10839,0.884055,1.85523
60026590902,3.08644,0.94047,1.83158
60026614235,3.06181,1.0074,1.80718
60026628432,3.02981,1.08319,1.77781
60026650960,2.98503,1.16382,1.73917
60026674084,2.92209,1.24746,1.68154
60026688477,2.81568,1.33186,1.5815
60026710896,2.59466,1.41255,1.37008
60026733408,2.02946,1.47339,0.814309
60026748363,1.08636,1.46528,-0.120691
60026770910,0.625066,1.39938,-0.58161
60026793524,0.457082,1.32036,-0.752155
60026816650,0.389207,1.24369,-0.82317
60026830956,0.354947,1.17137,-0.859067
60026853553,0.333999,1.11015,-0.875346
60026868497,0.325458,1.06246,-0.879876
60026890865,0.324122,1.03353,-0.879228
60026913415,0.346509,1.05434,-0.860933
60026928511,0.38407,1.0981,-0.829804
60026950928,0.426405,1.15414,-0.785267
60026973499,0.452703,1.1941,-0.747996
60026988445,0.49401,1.20467,-0.721688
60027010924,0.462036,1.23232,-0.728485
60027033505,0.440316,1.28742,-0.692992
60027056551,0.552776,1.32886,-0.591443
60027070901,0.742894,1.3649,-0.402317
60027093459,0.884655,1.39543,-0.230395
60027108398,1.06787,1.41547,-0.0381809
60027130939,1.26647,1.42707,0.147629
60027154827,1.51261,1.43787,0.374618
60027168417,1.7606,1.43008,0.611256
60027190868,1.93174,1.41929,0.797643
60027213352,2.04667,1.41005,0.936289
60027228424,2.14429,1.40082,1.04764
60027251667,2.22713,1.39114,1.12933
60027274111,2.27405,1.37796,1.17261
60027288496,2.309,1.36539,1.2121
60027310994,2.34737,1.35378,1.25529
60027334042,2.38296,1.3431,1.28799
60027348384,2.4139,1.33365,1.31492
60027379041,2.44474,1.3253,1.34155
60027394115,2.47811,1.31515,1.36773
60027408511,2.51212,1.30183,1.39665
60027430996,2.54966,1.28749,1.42931
60027462309,2.58866,1.27163,1.46316
60027468544,2.62637,1.25539,1.49653
60027490974,2.66186,1.23739,1.52876
60027514189,2.70303,1.21953,1.56571
60027528411,2.74464,1.19995,1.59986
60027550990,2.78306,1.17975,1.63134
60027574178,2.81806,1.15814,1.66312
60027588443,2.85226,1.13657,1.6909
60027610973,2.88587,1.11473,1.71732
60027634068,2.92078,1.09321,1.74973
60027649912,2.95491,1.0694,1.77894
60027671038,2.99233,1.03844,1.8079
60027694129,3.03369,1.00507,1.83696
60027709844,3.08585,0.973036,1.86978
60027730973,-3.14008,0.942165,1.90306
60027754101,-3.09997,0.90485,1.9259
60027769918,-3.08409,0.861556,1.94588
60027790963,-3.07432,0.823569,1.96769
60027814163,-3.05714,0.795222,1.98156
60027829913,-3.04139,0.771204,2.00084
60027851012,-3.02291,0.757297,2.02004
60027875515,-2.97528,0.765793,2.03567
60027889850,-2.92423,0.764184,2.04291
60027910898,-2.88016,0.776678,2.04665
60027934043,-2.88107,0.805565,2.03021
60027949861,-2.91245,0.844004,2.01344
60027970920,-2.96302,0.892388,2.0082
60027994091,-2.99534,0.944847,2.00642
60028009861,-2.99137,1.00027,1.99994
60028030922,-2.97779,1.05907,1.99479
60028054106,-2.97178,1.12221,1.98973
60028069895,-2.98776,1.1895,1.97813
60028099127,-3.0307,1.2597,1.95242
60028114106,-3.1137,1.33094,1.89844
60028129854,3.03435,1.40017,1.79843
60028150964,2.80601,1.46196,1.59878
60028174051,2.28611,1.50688,1.09475
60028189804,1.38444,1.51214,0.197361
60028210914,0.912695,1.48617,-0.274635
60028233431,0.858016,1.47211,-0.328618
60028249860,0.880243,1.47223,-0.300242
60028270942,1.04874,1.48467,-0.130747
60028293466,1.43231,1.49816,0.253103
60028309858,1.56617,1.48695,0.379638
60028330920,1.58801,1.4781,0.405363
60028353460,1.57266,1.48158,0.407837
60028369834,1.65079,1.48093,0.483702
60028390954,1.70169,1.47827,0.531703
60028413445,1.74035,1.47216,0.572357
60028429885,1.74907,1.46879,0.586299
60028450930,1.74615,1.46567,0.584103
60028473459,1.73758,1.46084,0.57275
60028489855,1.72719,1.45514,0.562048
60028510957,1.71688,1.45005,0.55545
60028533440,1.70662,1.44744,0.550946
60028549880,1.69466,1.44517,0.54363
60028572413,1.6991,1.44246,0.550512
60028593412,1.70385,1.44013,0.555404
60028609902,1.70559,1.4373,0.557484
60028632419,1.72165,1.43575,0.573887
60028653436,1.73807,1.43335,0.589838
60028669887,1.75105,1.43204,0.603503
60028692426,1.76367,1.43098,0.616382
60028713473,1.77409,1.42948,0.627787
60028729862,1.781,1.42857,0.637267
60028752442,1.79405,1.42806,0.653582
60028773462,1.80872,1.42712,0.670501
60028789859,1.81778,1.42579,0.683392
60028812440,1.83914,1.42471,0.708599
60028833432,1.86461,1.42339,0.738658
60028849874,1.88414,1.42145,0.763317
60028872469,1.90148,1.42023,0.785438
60028893461,1.92635,1.41892,0.816632
60028909871,1.9462,1.41688,0.843178
60028932431,1.9545,1.41578,0.858205
60028953443,1.96933,1.41515,0.876731
60028969856,1.98471,1.41436,0.893894
60028992428,1.99086,1.41441,0.901428
60029013438,1.9964,1.41405,0.909379
60029029851,2.00624,1.41365,0.921046
60029052409,2.00692,1.41317,0.922976
60029073474,2.00558,1.41225,0.924839
60029089915,2.01019,1.41304,0.931277
60029112439,2.01088,1.41281,0.932083
60029133457,2.00839,1.4128,0.930811
60029149879,2.00554,1.41329,0.928887
60029172454,2.00498,1.41305,0.928224
60029193470,2.00356,1.41345,0.926286
60029209890,1.99994,1.41338,0.923594
60029232444,1.99612,1.41367,0.92009
60029253455,1.99194,1.41322,0.916218
60029269904,1.99051,1.41376,0.914788
60029292411,1.98668,1.41329,0.910043
60029313425,1.98394,1.41371,0.90649
60029329854,1.98231,1.41327,0.903937
60029352407,1.9823,1.41281,0.903728
60029373448,1.98158,1.41298,0.9026
60029389862,1.97902,1.41254,0.899338
60029412437,1.97745,1.41261,0.897348
60029433455,1.97525,1.41227,0.895467
60029452011,1.97445,1.41268,0.895141
60029472463,1.9731,1.41305,0.894988
60029494975,1.97332,1.4127,0.895816
60029511503,1.97045,1.41231,0.893768
60029532466,1.97116,1.41214,0.894892
60029554958,1.97111,1.41228,0.895363
60029569875,1.97111,1.41228,0.895363
60029591598,1.96407,1.41202,0.88829
60029614181,1.95451,1.4117,0.879632
60029630653,1.94637,1.41192,0.871805
60029651677,1.94024,1.41257,0.865897
60029674152,1.93303,1.41273,0.858727
60029691279,1.92451,1.41277,0.849438
60029711651,1.9175,1.41357,0.842001
60029734235,1.90751,1.41412,0.83143
60029758119,1.90117,1.41524,0.82398
60029771717,1.89456,1.41548,0.817424
60029794175,1.88729,1.41568,0.810704
60029818084,1.88182,1.41602,0.804075
60029831649,1.87596,1.41644,0.796355
60029854143,1.86591,1.41683,0.785426
60029870594,1.85571,1.41716,0.774057
60029891706,1.84801,1.41743,0.765965
60029914202,1.84011,1.41707,0.758947
60029930586,1.83854,1.4168,0.757536
60029951638,1.83748,1.41677,0.756467
60029974094,1.83262,1.41718,0.751247
60029996589,1.82661,1.41728,0.745774
60030011609,1.8194,1.41735,0.739591
60030034115,1.81154,1.41811,0.73247
60030050539,1.80601,1.41846,0.727297
60030071657,1.79703,1.41873,0.717909
60030094154,1.78856,1.4184,0.708341
60030110623,1.77808,1.41925,0.697615
60030131688,1.77274,1.41958,0.692138
60030154179,1.76402,1.4199,0.682752
60030170611,1.75396,1.42032,0.672293
60030191692,1.73732,1.41996,0.654597
60030214133,1.71794,1.4203,0.633258
60030230482,1.69528,1.42022,0.609553
60030251612,1.67002,1.41992,0.582968
60030274229,1.64665,1.41935,0.558141
60030290688,1.62194,1.41844,0.532168
60030311625,1.59864,1.41829,0.507988
60030343497,1.57915,1.41752,0.487294
60030352007,1.56209,1.41656,0.469148
60030371655,1.5435,1.41578,0.45136
60030394079,1.52629,1.41562,0.434062
60030410556,1.50703,1.41508,0.413635
60030431604,1.48773,1.41427,0.393113
60030455595,1.46662,1.41433,0.370541
60030469917,1.44437,1.41301,0.34683
60030491671,1.4206,1.41047,0.322468
60030514153,1.39647,1.40839,0.297528
60030529911,1.37561,1.40727,0.277236
60030551734,1.35332,1.40636,0.25536
60030574167,1.33171,1.40619,0.232545
60030589920,1.31042,1.40492,0.210868
60030613050,1.29029,1.40336,0.190667
60030634134,1.26657,1.40195,0.169765
60030650445,1.23909,1.3999,0.14265
60030673091,1.21351,1.39776,0.115458
60030694144,1.19705,1.39538,0.0953235
60030709876,1.18166,1.39224,0.0782324
60030733062,1.1665,1.38768,0.0625171
60030754792,1.14799,1.38516,0.0456452
60030769934,1.13387,1.38243,0.0319131
60030793098,1.12383,1.379,0.0217342
60030814147,1.11017,1.37433,0.0103241
60030829902,1.0925,1.36822,-0.0024496
60030853061,1.07668,1.36267,-0.0134012
60030881636,1.06052,1.36038,-0.0259914
60030889873,1.04865,1.36092,-0.0374407
60030913096,1.05858,1.3582,-0.0316001
60030934154,1.06385,1.35492,-0.0211278
60030949918,1.06288,1.35003,-0.0158668
60030973109,1.05949,1.34767,-0.0182815
60030994224,1.07007,1.3444,-0.0121821
60031009926,1.07067,1.33999,-0.0115794
60031033048,1.06937,1.33344,-0.00945632
60031054122,1.05997,1.32771,-0.0156134
60031069900,1.04239,1.32133,-0.0351483
60031093051,1.02876,1.31823,-0.0620962
60031114103,1.03711,1.31293,-0.0653883
60031129884,1.0422,1.30751,-0.0617979
60031153115,1.04643,1.30596,-0.0521617
60031174262,1.05203,1.30439,-0.0423326
60031189974,1.05863,1.30287,-0.0340021
60031213172,1.07097,1.30175,-0.0196618
60031234246,1.0688,1.30148,-0.0184164
60031249988,1.07664,1.30118,-0.0132418
60031273151,1.0799,1.30162,-0.00928643
60031294225,1.09379,1.29962,0.00204955
60031310020,1.10783,1.29885,0.0168195
60031333083,1.12333,1.29793,0.034917
60031354162,1.13597,1.2996,0.0510501
60031369901,1.14538,1.30223,0.0660486
60031392561,1.1514,1.30638,0.0775378
60031413976,1.16366,1.30838,0.0932824
60031430072,1.17289,1.30909,0.1081
60031452468,1.18996,1.31154,0.131557
60031474205,1.20239,1.31487,0.148966
60031489971,1.21717,1.31608,0.169215
60031512449,1.22155,1.31974,0.181647
60031534199,1.22434,1.32164,0.189105
60031550027,1.2282,1.32375,0.194974
60031572400,1.23873,1.32486,0.205841
60031595559,1.24868,1.32479,0.214173
60031609929,1.2599,1.32309,0.223114
60031632450,1.26766,1.32086,0.232673
60031655632,1.2714,1.32008,0.237253
60031669996,1.28159,1.31864,0.245853
60031692459,1.29249,1.31677,0.257702
60031715584,1.3001,1.31595,0.268869
60031730007,1.30557,1.31527,0.277722
60031752524,1.30905,1.31461,0.285235
60031775671,1.31593,1.31733,0.296071
60031789987,1.33057,1.32103,0.313022
60031812414,1.34494,1.32258,0.330399
60031835592,1.35248,1.32253,0.344598
60031864017,1.35303,1.32366,0.351752
60031874015,1.36328,1.32581,0.368328
60031895679,1.3851,1.32777,0.395906
60031916711,1.41952,1.32873,0.438811
60031932506,1.46493,1.32992,0.495953
60031955679,1.5182,1.32906,0.561437
60031976730,1.5635,1.32887,0.617944
60031992549,1.59235,1.32808,0.654047
60032015712,1.61026,1.32738,0.675436
60032036727,1.62913,1.32753,0.698474
60032052485,1.64487,1.32603,0.719686
60032075577,1.6593,1.32557,0.739155
60032096609,1.67395,1.32531,0.756396
60032112457,1.68497,1.32599,0.76631
60032135685,1.69471,1.32651,0.774923
60032156710,1.70735,1.32701,0.788693
60032172557,1.72043,1.32744,0.803453
60032195646,1.73882,1.32686,0.822966
60032216724,1.75498,1.32677,0.838326
60032232499,1.76718,1.32569,0.848607
60032255692,1.78035,1.32378,0.8605
60032276724,1.79349,1.32267,0.87359
60032292562,1.80442,1.32062,0.884695
60032323098,1.8159,1.31978,0.897634
60032336635,1.82784,1.31851,0.910199
60032352425,1.83789,1.31848,0.91985
60032375013,1.84522,1.31769,0.926465
60032396738,1.85846,1.31736,0.939069
60032412552,1.87033,1.31578,0.948605
60032435048,1.8788,1.31319,0.954489
60032456756,1.88396,1.31196,0.957114
60032472546,1.88396,1.3122,0.950907
60032503130,1.88439,1.31271,0.945891
60032524233,1.88421,1.31253,0.93859
60032532525,1.88148,1.31278,0.928342
60032554990,1.88008,1.31187,0.920817
60032578172,1.88554,1.31215,0.925008
60032592551,1.88885,1.31237,0.927432
60032615085,1.88123,1.31361,0.9159
60032638113,1.87615,1.31531,0.905802
60032660682,1.87544,1.31614,0.902232
60032675045,1.87763,1.31673,0.902454
60032705631,1.88169,1.31714,0.906048
60032712495,1.88524,1.31682,0.908803
60032735026,1.88809,1.31573,0.911783
60032758170,1.89415,1.31554,0.918693
60032772464,1.90024,1.31504,0.92555
60032795091,1.90382,1.31517,0.931097
60032818223,1.90735,1.31606,0.937738
60032839261,1.91392,1.31729,0.946251
60032855031,1.92361,1.31802,0.957663
60032878207,1.93621,1.31752,0.972782
60032892571,1.95056,1.31553,0.99141
60032915078,1.96492,1.31466,1.00983
60032938188,1.97445,1.31407,1.0201
60032952583,1.98194,1.31391,1.0268
60032975017,1.98719,1.31331,1.032
60032998173,1.97798,1.31508,1.01742
60033019218,1.93923,1.3225,0.956655
60033035026,1.91765,1.32594,0.922171
60033058219,1.91394,1.32655,0.911349
60033079260,1.91514,1.32578,0.909815
60033095053,1.92265,1.32493,0.916889
60033118187,1.93167,1.32486,0.926309
60033139250,1.93664,1.32564,0.931824
60033155025,1.94325,1.32688,0.938804
60033178191,1.94842,1.32791,0.942649
60033199286,1.95507,1.32785,0.94831
60033215076,1.9608,1.32705,0.953405
60033238150,1.96831,1.32705,0.960599
60033259186,1.97173,1.32568,0.962531
60033275052,1.97239,1.32425,0.962503
60033288693,1.97403,1.32472,0.963078
60033311078,1.9763,1.32473,0.963562
60033334168,1.97989,1.32431,0.965826
60033348639,1.98472,1.32405,0.969641
60033371136,1.99013,1.32328,0.974205
60033394258,2.00114,1.32316,0.985693
60033408632,2.01074,1.32289,0.995175
60033431092,2.0209,1.32197,1.00517
60033454312,2.03136,1.32071,1.01672
60033468561,2.04325,1.31998,1.03026
60033491113,2.05539,1.31928,1.04294
60033514238,2.06708,1.31872,1.0542
60033528577,2.07995,1.31733,1.06398
60033551081,2.09305,1.31578,1.07387
60033574259,2.10301,1.31445,1.08043
60033588560,2.11714,1.31356,1.0919
60033611105,2.12762,1.31234,1.09897
60033634225,2.13731,1.31114,1.10589
60033648604,2.14612,1.31016,1.11224
60033671135,2.15241,1.30749,1.11723
60033694278,2.15855,1.30703,1.12439
60033708550,2.16533,1.30843,1.13132
60033731027,2.17214,1.30963,1.1377
60033754311,2.17975,1.31073,1.14347
60033768558,2.18765,1.31107,1.1492
60033791037,2.18546,1.31086,1.14459
60033814719,2.19211,1.30929,1.15212
60033828571,2.1963,1.30792,1.1568
60033852523,2.20074,1.30727,1.16051
60033874274,2.20479,1.307,1.16426
60033888614,2.20659,1.30605,1.16558
60033914008,2.20456,1.30665,1.16219
60033934290,2.20429,1.30716,1.15953
60033948599,2.20663,1.30646,1.15979
60033971112,2.21074,1.30633,1.16303
60033994323,2.21396,1.30551,1.16543
60034016754,2.22004,1.30434,1.17227
60034031153,2.22555,1.30287,1.17762
60034054241,2.23045,1.30143,1.18126
60034076734,2.2353,1.29889,1.1848
60034091040,2.24024,1.29677,1.18973
60034114202,2.2473,1.29481,1.19831
60034128608,2.25745,1.2933,1.21057
60034151105,2.26742,1.29215,1.22133
60034174272,2.27574,1.2917,1.22958
60034188740,2.27971,1.29164,1.23373
60034211168,2.28269,1.2918,1.23598
60034234301,2.28538,1.29194,1.23725
60034248646,2.28729,1.29112,1.23743
60034271098,2.28697,1.28971,1.23573
60034295681,2.28749,1.28854,1.23618
60034308601,2.28964,1.28794,1.2376
60034331091,2.2908,1.28751,1.23766
60034354214,2.29185,1.28692,1.23765
60034369991,2.29234,1.28656,1.23735
60034399184,2.29141,1.28552,1.23563
60034422343,2.29058,1.28465,1.23399
60034428534,2.29131,1.28337,1.234
60034451039,2.29231,1.28203,1.23497
60034473579,2.29353,1.2801,1.23652
60034488611,2.29558,1.27934,1.23893
60034511118,2.29763,1.27828,1.24158
60034533635,2.29778,1.27695,1.24312
60034551579,2.29975,1.27613,1.24736
60034571106,2.30303,1.27587,1.2521
60034593639,2.30487,1.27637,1.25452
60034608601,2.30667,1.27747,1.25673
60034631133,2.30741,1.27803,1.25803
60034653627,2.30752,1.27746,1.25828
60034668588,2.30725,1.2764,1.25881
60034691040,2.30797,1.27623,1.26027
60034713529,2.30862,1.27549,1.26215
60034728478,2.31063,1.27508,1.26618
60034751060,2.31217,1.27444,1.26965
60034773498,2.31419,1.27348,1.27333
60034796859,2.31701,1.27271,1.27774
60034811132,2.31694,1.27083,1.27906
60034833663,2.31773,1.26923,1.28116
60034856791,2.31735,1.26817,1.28052
60034871138,2.31545,1.26789,1.27729
60034893641,2.31424,1.26789,1.27501
60034908667,2.31322,1.26815,1.27288
60034931130,2.31265,1.2684,1.27207
60034953690,2.31107,1.26838,1.27121
60034968570,2.31224,1.26852,1.27321
60034991115,2.31203,1.26866,1.27366
60035013622,2.31203,1.26866,1.27366
60035028605,2.31357,1.26862,1.27557
60035051079,2.31329,1.26782,1.27585
60035073526,2.31313,1.26676,1.27616
60035088533,2.31345,1.26582,1.27674
60035112480,2.31238,1.26481,1.27576
60035133530,2.31252,1.26337,1.27699
60035151487,2.31184,1.26318,1.27741
60035171127,2.3119,1.26326,1.27746
60035201694,2.31146,1.26303,1.27692
60035210093,2.3107,1.26384,1.27663
60035231126,2.30988,1.26314,1.27636
60035253626,2.30828,1.26354,1.27394
60035270066,2.30722,1.26393,1.27153
60035291188,2.30623,1.26374,1.2699
60035313596,2.30623,1.26374,1.2699
60035330056,2.30611,1.26399,1.26988
60035351086,2.30496,1.26358,1.2692
60035373604,2.30496,1.26358,1.2692
60035390033,2.30487,1.26351,1.26861
60035411089,2.30487,1.26351,1.26861
60035433571,2.30305,1.26429,1.26585
60035449979,2.30154,1.26444,1.2629
60035471061,2.3011,1.26395,1.26153
60035493564,2.30044,1.26303,1.26079
60035510010,2.30073,1.26266,1.26118
60035531104,2.30008,1.26249,1.26109
60035553631,2.30004,1.26175,1.26125
60035577571,2.30017,1.26107,1.26124
60035599284,2.30148,1.26072,1.26244
60035613659,2.3015,1.25965,1.26259
60035630109,2.30171,1.25875,1.2634
60035651061,2.30098,1.25829,1.26297
60035673662,2.30046,1.25787,1.26292
60035690713,2.29996,1.25797,1.2624
60035711079,2.2998,1.25848,1.26103
60035733537,2.29885,1.25876,1.25841
60035756078,2.29722,1.25897,1.25516
60035771014,2.29569,1.25882,1.25245
60035793540,2.29426,1.25814,1.25083
60035810128,2.29311,1.25785,1.25047
60035831172,2.29209,1.25765,1.24883
60035853660,2.29211,1.2581,1.24836
60035877594,2.29211,1.2581,1.24836
60035891134,2.29199,1.25835,1.24833
60035913683,2.29156,1.25812,1.2478
60035930095,2.29156,1.25812,1.2478
60035951150,2.29144,1.25797,1.24719
60035981761,2.2892,1.25829,1.24416
60035990035,2.28722,1.25879,1.24049
60036011059,2.28617,1.25908,1.23863
60036033688,2.28557,1.25867,1.238
60036050053,2.28341,1.25902,1.23608
60036071190,2.28216,1.25958,1.2352
60036093623,2.28091,1.26003,1.23403
60036110041,2.28073,1.26095,1.23322
60036132651,2.27967,1.2609,1.23131
60036153680,2.27878,1.2614,1.23062
60036170105,2.27616,1.26175,1.22791
60036192556,2.27464,1.26243,1.22501
60036213677,2.27288,1.26339,1.22227
60036230028,2.27213,1.26407,1.22083
60036252540,2.27122,1.26446,1.21983
60036273541,2.27165,1.26497,1.22063
60036290017,2.27264,1.26501,1.22249
60036314009,2.27384,1.26493,1.22475
60036333546,2.27516,1.26534,1.22683
60036350029,2.27674,1.26496,1.2287
60036374093,2.27816,1.26539,1.23085
60036393663,2.27835,1.26532,1.23175
60036410104,2.278,1.26543,1.2305
60036432564,2.27756,1.26566,1.22948
60036453630,2.27728,1.26583,1.2288
60036470104,2.27732,1.26615,1.22859
60036492631,2.27732,1.26615,1.22859
60036513665,2.27809,1.26618,1.22953
60036530098,2.27927,1.26612,1.23124
60036552558,2.28141,1.26562,1.23422
60036589040,2.28375,1.26487,1.23729
60036598969,2.28507,1.26426,1.23929
60036612498,2.28662,1.26326,1.24163
60036633544,2.28819,1.26225,1.24452
60036650685,2.28851,1.26199,1.2444
60036672574,2.28986,1.26245,1.24543
60036701780,2.29009,1.26283,1.24505
60036710042,2.29051,1.26313,1.24557
60036732596,2.29051,1.26313,1.24557
60036756521,2.29252,1.26299,1.24797
60036770135,2.29298,1.26257,1.24871
60036794047,2.29451,1.26181,1.25079
60036813679,2.29479,1.26139,1.25224
60036830157,2.2939,1.26144,1.25204
60036852579,2.29403,1.26265,1.25008
60036873561,2.29468,1.26381,1.2492
60036890050,2.2952,1.26424,1.24926
60036912549,2.29589,1.26437,1.25044
60036933566,2.29634,1.26461,1.25098
60036950052,2.29752,1.26413,1.25264
60036973234,2.29899,1.2631,1.25546
60036994304,2.30037,1.26283,1.25831
60037010825,2.30135,1.26237,1.26012
60037032284,2.3035,1.26242,1.26208
60037054132,2.30595,1.26234,1.26419
60037069310,2.30783,1.26179,1.26674
60037091885,2.3101,1.26145,1.27033
60037114310,2.31229,1.26089,1.27357
60037129340,2.3145,1.26089,1.27717
60037151806,2.31663,1.26048,1.28013
60037174267,2.31834,1.25996,1.28285
60037189333,2.31985,1.25905,1.28568
60037211896,2.32256,1.25797,1.28992
60037234350,2.32527,1.25673,1.29494
60037249324,2.32914,1.25611,1.30093
60037271848,2.33295,1.25486,1.30704
60037294369,2.33338,1.2543,1.30853
60037310451,2.33554,1.25499,1.30977
60037331800,2.33574,1.25485,1.30877
60037354340,2.33574,1.25485,1.30877
60037370712,2.33551,1.25478,1.30945
60037399261,2.33693,1.25465,1.31179
60037421767,2.33807,1.25423,1.31449
60037438184,2.34118,1.25367,1.32008
60037451777,2.3457,1.25223,1.32842
60037481933,2.34952,1.24959,1.3375
60037490728,2.35365,1.24753,1.34657
60037511804,2.3563,1.24521,1.35318
60037534328,2.35824,1.24475,1.35708
60037550752,2.35943,1.24447,1.35927
60037571873,2.36031,1.2446,1.36138
60037594368,2.36236,1.24442,1.36403
60037610745,2.3628,1.24431,1.36452
60037631807,2.36369,1.2441,1.36601
60037654334,2.36361,1.24403,1.36651
60037670729,2.36369,1.24411,1.36656
60037691777,2.36412,1.24434,1.36765
60037715741,2.36412,1.24434,1.36765
60037730861,2.36427,1.2443,1.36744
60037751881,2.36416,1.24453,1.3669
60037774385,2.36491,1.24455,1.36728
60037790760,2.36479,1.24479,1.36726
60037811862,2.36438,1.24457,1.36675
60037834399,2.36496,1.24495,1.36684
60037850790,2.365,1.24535,1.36585
60037871852,2.36464,1.24554,1.36489
60037894365,2.36464,1.24554,1.36489
60037910818,2.36464,1.24554,1.36489
60037931759,2.36474,1.24562,1.36496
60037954232,2.36509,1.24542,1.36482
60037978231,2.36456,1.24544,1.36429
60037993204,2.36464,1.24553,1.36434
60038014319,2.3638,1.24543,1.3639
60038030125,2.36395,1.24592,1.36353
60038051912,2.36395,1.24592,1.36353
60038074370,2.36377,1.24575,1.36341
60038090121,2.36383,1.24616,1.36352
60038113276,2.36365,1.24599,1.36339
60038134355,2.36383,1.24616,1.36352
60038150202,2.36342,1.24594,1.363
60038171854,2.36342,1.24594,1.363
60038194324,2.36342,1.24594,1.363
60038210086,2.3626,1.24605,1.36287
60038233212,2.3628,1.24624,1.36411
60038254379,2.36348,1.24651,1.36507
60038270168,2.36374,1.24709,1.36534
60038293300,2.36443,1.24881,1.36333
60038314342,2.36406,1.25025,1.35962
60038330178,2.36175,1.25112,1.35507
60038359367,2.36072,1.25159,1.35298
60038374381,2.36046,1.25187,1.35318
60038390091,2.36049,1.25242,1.35415
60038420803,2.35983,1.25282,1.35555
60038434365,2.36096,1.25312,1.35841
60038450057,2.36171,1.25415,1.36013
60038473230,2.36124,1.25459,1.35971
60038494277,2.36175,1.25469,1.36056
60038510055,2.36157,1.25452,1.36043
60038533334,2.36194,1.25487,1.36124
60038554330,2.36186,1.25478,1.36119
60038570133,2.36153,1.25432,1.36063
60038593350,2.35969,1.25401,1.35906
60038614380,2.35999,1.25341,1.3599
60038630190,2.36051,1.25263,1.36084
60038653332,2.3618,1.25223,1.36334
60038674317,2.36188,1.25214,1.36472
60038690121,2.3623,1.25161,1.36567
60038720787,2.36248,1.25146,1.36571
60038734373,2.36193,1.25095,1.36531
60038750586,2.36231,1.25043,1.3662
60038773237,2.36224,1.24982,1.36687
60038794387,2.36315,1.24995,1.36902
60038810576,2.3636,1.25,1.37093
60038839463,2.36403,1.25069,1.37244
60038854327,2.36576,1.25192,1.37472
60038870155,2.36673,1.25278,1.37598
60038893381,2.36641,1.25299,1.37615
60038914383,2.36629,1.25324,1.37614
60038930173,2.36611,1.25307,1.37601
60038952662,2.36577,1.25293,1.37553
60038981823,2.36626,1.2525,1.37652
60038990075,2.36724,1.25305,1.37825
60039012562,2.36724,1.25305,1.37825
60039034294,2.36724,1.25305,1.37825
60039058218,2.36724,1.25305,1.37825
60039072659,2.36795,1.25318,1.37837
60039094294,2.36835,1.25285,1.3785
60039110110,2.36952,1.25323,1.3803
60039132586,2.36957,1.25325,1.38089
60039155758,2.37,1.25412,1.38106
60039170132,2.37233,1.25572,1.38016
60039192587,2.37158,1.25748,1.37688
60039221761,2.37022,1.25908,1.37323
60039230083,2.36863,1.26011,1.37043
60039252586,2.36647,1.26008,1.36791
60039275795,2.36616,1.26016,1.36776
60039290105,2.36484,1.25963,1.36751
60039312602,2.36501,1.25908,1.36912
60039335768,2.36626,1.25792,1.37144
60039350114,2.36638,1.25594,1.37268
60039380799,2.36668,1.25308,1.37493
60039395797,2.3674,1.25133,1.37764
60039410099,2.36631,1.25002,1.37786
60039432620,2.36596,1.24937,1.37808
60039455737,2.3674,1.24947,1.38022
60039470079,2.36802,1.24933,1.38107
60039492575,2.37013,1.24902,1.38345
60039515775,2.37085,1.24883,1.38406
60039530112,2.36989,1.24797,1.3828
60039552581,2.36989,1.24797,1.3828
60039575755,2.37023,1.24813,1.38383
60039590091,2.37027,1.24881,1.38458
60039612559,2.36984,1.24892,1.38412
60039635760,2.36989,1.24812,1.38367
60039656871,2.36804,1.24884,1.38013
60039672635,2.36732,1.2503,1.37566
60039695754,2.3663,1.25269,1.36989
60039716836,2.36697,1.25453,1.36765
60039732631,2.36862,1.25586,1.36854
60039755793,2.37102,1.25626,1.37156
60039776864,2.37136,1.25567,1.37353
60039792639,2.3718,1.25485,1.37604
60039815757,2.36859,1.25415,1.37395
60039844305,2.36576,1.25472,1.3704
60039852618,2.3656,1.25563,1.36998
60039875741,2.36518,1.25541,1.36945
60039896835,2.3654,1.25594,1.37078
60039912601,2.36563,1.25559,1.37222
60039935123,2.36456,1.25515,1.37293
60039958309,2.36545,1.25383,1.37642
60039972584,2.3643,1.2536,1.37829
60039995096,2.35867,1.25649,1.37161
60040016839,2.35279,1.26037,1.3611
60040032601,2.34277,1.2655,1.34724
60040055081,2.33567,1.27026,1.33388
60040076846,2.33083,1.27449,1.32516
60040092614,2.32478,1.27766,1.3161
60040115092,2.32011,1.28036,1.3107
60040138323,2.31251,1.28292,1.30225
60040152611,2.30797,1.28519,1.29623
60040175134,2.30568,1.28781,1.29343
60040198256,2.30532,1.28956,1.29351
60040212586,2.30066,1.29071,1.29054
60040235120,2.29572,1.29217,1.2883
60040258283,2.29567,1.29301,1.29292
60040272632,2.2963,1.29203,1.29962
60040295144,2.29611,1.29124,1.30678
60040318259,2.29631,1.28959,1.3146
60040332619,2.29037,1.28862,1.31636
60040355083,2.28413,1.28736,1.31737
60040378289,2.2737,1.28838,1.31307
60040399416,2.26473,1.29055,1.30594
60040415167,2.25187,1.29292,1.29436
60040438317,2.23764,1.29629,1.28206
60040453258,2.21987,1.29882,1.26646
60040475083,2.20164,1.30183,1.25142
60040498232,2.17033,1.31196,1.21373
60040519356,2.13888,1.31984,1.17358
60040535122,2.1079,1.32602,1.13985
60040558679,2.08184,1.33206,1.11236
60040579406,2.06088,1.33642,1.09028
60040595209,2.04195,1.34049,1.07043
60040618365,2.02869,1.34351,1.05578
60040639380,2.01848,1.34461,1.04398
60040655225,2.00935,1.34383,1.03412
60040668727,2.00464,1.34134,1.02798
60040691256,1.99843,1.33833,1.02001
60040714382,1.99596,1.33704,1.0148
60040728802,1.99386,1.33456,1.0089
60040751196,1.99301,1.33181,1.0057
60040774400,1.99805,1.33004,1.01072
60040788671,2.00002,1.32723,1.01379
60040820034,2.00871,1.32547,1.02681
60040834392,2.02611,1.3249,1.04701
60040848800,2.04908,1.32514,1.0704
60040871284,2.07387,1.32315,1.09603
60040894475,2.09619,1.31945,1.12261
60040908833,2.11906,1.3171,1.15
60040931196,2.14345,1.31452,1.17701
60040954428,2.16668,1.31395,1.20076
60040968704,2.18354,1.3152,1.2186
60040991238,2.19443,1.31647,1.23105
60041014341,2.20672,1.31877,1.24562
60041028657,2.22372,1.31881,1.26072
60041059994,2.23871,1.31839,1.26756
60041074293,2.2494,1.31578,1.27254
60041088657,2.25482,1.31651,1.27518
60041111150,2.26041,1.31722,1.27619
60041134401,2.26809,1.31542,1.27953
60041156945,2.27986,1.31283,1.28769
60041171280,2.2961,1.31092,1.3011
60041194547,2.30328,1.30784,1.3061
60041208768,2.30915,1.30562,1.31507
60041231227,2.31988,1.3047,1.32822
60041254455,2.3306,1.30432,1.34031
60041268855,2.3413,1.30509,1.3521
60041291223,2.35056,1.30668,1.36133
60041314411,2.35835,1.3082,1.368
60041328710,2.36298,1.30759,1.37022
60041351216,2.36968,1.30628,1.37487
60041374341,2.37287,1.30353,1.37674
60041388679,2.37741,1.30039,1.38131
60041412626,2.37937,1.29719,1.38372
60041434375,2.38204,1.29415,1.38662
60041448794,2.38514,1.2929,1.38913
60041471258,2.38559,1.29179,1.38877
60041494396,2.38443,1.29179,1.38669
60041508803,2.3853,1.2927,1.38571
60041531324,2.38505,1.29315,1.38315
60041554460,2.38408,1.29282,1.38027
60041568767,2.38507,1.29255,1.37988
60041591256,2.38477,1.29175,1.37834
60041614461,2.38472,1.29186,1.37719
60041628805,2.38525,1.29133,1.37622
60041651337,2.38596,1.29175,1.37646
60041674351,2.38781,1.292,1.37788
60041688674,2.38875,1.29201,1.37899
60041711273,2.38875,1.29201,1.37899
60041734437,2.38982,1.29247,1.37942
60041748752,2.38935,1.29221,1.37882
60041771310,2.38887,1.29269,1.3784
60041794104,2.38729,1.29367,1.37694
60041808747,2.38569,1.29489,1.37468
60041831229,2.38434,1.29627,1.37263
60041862531,2.38293,1.2967,1.37055
60041868680,2.38293,1.2967,1.37055
60041891152,2.38274,1.29689,1.37105
60041914351,2.38288,1.29711,1.37204
60041928730,2.38149,1.29746,1.37164
60041951289,2.38029,1.29857,1.37016
60041974551,2.37928,1.3,1.36826
60041988809,2.37915,1.30063,1.3678
60042011252,2.37736,1.30068,1.36564
60042033801,2.37409,1.30035,1.36226
60042048786,2.37409,1.30035,1.36226
60042071280,2.37388,1.30016,1.36209
60042093842,2.37338,1.29993,1.36202
60042108834,2.37308,1.29966,1.36233
60042139513,2.37219,1.29891,1.36162
60042153731,2.37315,1.29807,1.36224
60042168748,2.37339,1.29779,1.36256
60042191256,2.3718,1.29699,1.3617
60042213829,2.37166,1.29728,1.36168
60042228885,2.3716,1.29798,1.36072
60042251300,2.37123,1.29826,1.35919
60042273757,2.37007,1.29819,1.35734
60042288749,2.3686,1.29732,1.35572
60042311334,2.3661,1.29603,1.35337
60042333850,2.36417,1.29494,1.35171
60042348764,2.36227,1.29409,1.34985
60042371379,2.36122,1.29386,1.3492
60042393733,2.35971,1.29483,1.348
60042408773,2.35996,1.29557,1.34807
60042431275,2.35964,1.29645,1.34698
60042455181,2.35904,1.29695,1.3459
60042468744,2.35904,1.29695,1.3459
60042491267,2.3583,1.29604,1.34556
60042515219,2.35761,1.29623,1.34519
60042528791,2.35801,1.29638,1.34573
60042551333,2.35752,1.29612,1.34513
60042573783,2.35761,1.29623,1.34519
60042588827,2.35761,1.29623,1.34519
60042611279,2.35808,1.29646,1.34524
60042633809,2.35899,1.29684,1.34642
60042648760,2.35975,1.29716,1.34835
60042671335,2.3608,1.29778,1.35052
60042693720,2.36087,1.29752,1.35136
60042708761,2.36265,1.29763,1.35438
60042731269,2.36601,1.29724,1.35874
60042753812,2.37064,1.29677,1.36439
60042770238,2.37412,1.2967,1.36861
60042791252,2.3785,1.29663,1.37337
60042813759,2.38098,1.29653,1.37588
60042830238,2.38287,1.29548,1.37838
60042851244,2.38366,1.29509,1.37983
60042873756,2.38469,1.29447,1.38082
60042890190,2.38521,1.29408,1.38072
60042911159,2.38652,1.2933,1.38205
60042933730,2.38699,1.29191,1.38359
60042950151,2.38805,1.29052,1.38664
60042971227,2.39118,1.28949,1.39204
60042993780,2.39532,1.28912,1.39737
60043010279,2.39635,1.28913,1.39912
60043031279,2.39873,1.28995,1.40074
60043053808,2.39859,1.29066,1.39914
60043070250,2.39813,1.2906,1.39743
60043091344,2.39768,1.29042,1.39574
60043113826,2.39559,1.29078,1.39267
60043130172,2.39383,1.2914,1.3893
60043154189,2.39427,1.2921,1.38865
60043173867,2.3945,1.29215,1.3885
60043190269,2.39525,1.29236,1.39012
60043211304,2.39478,1.2921,1.38952
60043233790,2.39575,1.29272,1.39052
60043251672,2.39606,1.29289,1.39132
60043271318,2.39776,1.29349,1.39416
60043293796,2.39872,1.29374,1.39539
60043310213,2.40121,1.29409,1.39779
60043331301,2.40136,1.29417,1.39791
60043353783,2.40121,1.29446,1.39789
60043370204,2.40128,1.29457,1.39794
60043391312,2.40003,1.29439,1.39691
60043413778,2.39929,1.29495,1.39639
60043430251,2.3998,1.29627,1.39655
60043460905,2.40119,1.29763,1.39779
60043473774,2.40097,1.29892,1.3978
60043490255,2.4012,1.29957,1.39731
60043511281,2.39932,1.30025,1.39473
60043533782,2.3984,1.30011,1.39418
60043550305,2.39796,1.30099,1.39446
60043571306,2.39731,1.30175,1.39378
60043601924,2.39814,1.30266,1.39457
60043610253,2.39904,1.30368,1.39541
60043631304,2.39816,1.30379,1.39522
60043653794,2.39748,1.30387,1.39543
60043670169,2.3964,1.30403,1.39486
60043691195,2.39656,1.30411,1.39499
60043713696,2.39539,1.3043,1.39434
60043730158,2.39501,1.305,1.39378
60043752663,2.39435,1.30486,1.39223
60043776702,2.39254,1.3047,1.39083
60043790294,2.39254,1.3047,1.39083
60043812775,2.39239,1.30461,1.39071
60043833837,2.392,1.30493,1.39004
60043850252,2.39207,1.30543,1.3902
60043872799,2.39047,1.3063,1.38839
60043893824,2.38788,1.30662,1.38498
60043910218,2.38563,1.30699,1.38209
60043932793,2.38545,1.30713,1.38116
60043953825,2.38552,1.30687,1.38112
60043970267,2.38622,1.30633,1.38194
60043992773,2.38722,1.30611,1.383
60044016663,2.38761,1.30556,1.3839
60044030241,2.38827,1.30454,1.38515
60044052705,2.38923,1.30423,1.38673
60044073809,2.39015,1.30375,1.3874
60044091681,2.39108,1.30351,1.38786
60044112761,2.39037,1.30305,1.38706
60044133838,2.38949,1.30293,1.38676
60044150259,2.38949,1.30293,1.38676
60044172751,2.38935,1.30322,1.38674
60044193872,2.38956,1.30342,1.38692
60044210273,2.38949,1.30331,1.38686
60044232813,2.38886,1.30295,1.38612
60044256642,2.38886,1.30295,1.38612
60044270184,2.38826,1.303,1.38607
60044292648,2.38763,1.30303,1.38543
60044313785,2.38763,1.30303,1.38543
60044330152,2.38763,1.30303,1.38543
60044352704,2.38756,1.30291,1.38537
60044374430,2.3841,1.30405,1.38056
60044389530,2.38236,1.30548,1.37684
60044412004,2.38017,1.30683,1.37397
60044434511,2.37923,1.30802,1.37292
60044449545,2.37895,1.30794,1.37246
60044472043,2.37909,1.30803,1.37258
60044502626,2.3778,1.3076,1.3714
60044509535,2.37733,1.30772,1.37055
60044531991,2.37711,1.30752,1.37038
60044562741,2.37599,1.30782,1.37009
60044569576,2.37803,1.30858,1.37267
60044591936,2.38032,1.30941,1.37512
60044614449,2.38032,1.30941,1.37512
60044629414,2.38046,1.30949,1.37524
60044651919,2.38046,1.30949,1.37524
60044674403,2.37967,1.30896,1.37459
60044689430,2.37967,1.30896,1.37459
60044711918,2.37917,1.30868,1.37396
60044734534,2.37917,1.30868,1.37396
60044749552,2.37902,1.30898,1.37393
60044772010,2.37969,1.30881,1.37427
60044794535,2.37969,1.30881,1.37427
60044809501,2.37969,1.30881,1.37427
60044832022,2.37921,1.30864,1.37311
60044854536,2.37907,1.30855,1.37299
60044871011,2.37907,1.30855,1.37299
60044892074,2.37944,1.30869,1.37297
60044915970,2.37966,1.3089,1.37315
60044930917,2.37944,1.30869,1.37297
60044952006,2.3798,1.30788,1.37352
60044974515,2.37879,1.30762,1.37257
60044990934,2.37879,1.30762,1.37257
60045012007,2.37892,1.30775,1.37322
60045034555,2.37911,1.30794,1.37371
60045050957,2.37991,1.30824,1.37426
60045079479,2.38048,1.30848,1.37495
60045094512,2.38048,1.30848,1.37495
60045110889,2.382,1.30863,1.37644
60045131919,2.38337,1.30831,1.37772
60045154509,2.38466,1.30787,1.37893
60045170955,2.38493,1.30771,1.3796
60045199535,2.38471,1.30751,1.37942
60045214501,2.38471,1.30751,1.37942
60045230970,2.38493,1.30771,1.3796
60045252034,2.38486,1.30759,1.37954
60045274535,2.38493,1.30809,1.3797
60045290928,2.38493,1.30809,1.3797
60045311977,2.38421,1.30762,1.37889
60045335912,2.38443,1.30782,1.37906
60045350910,2.38443,1.30782,1.37906
60045371948,2.38443,1.30782,1.37906
60045394432,2.38505,1.30769,1.38025
60045410851,2.3849,1.30799,1.38023
60045431958,2.38601,1.30831,1.38071
60045454492,2.38663,1.30874,1.38067
60045470881,2.38663,1.30952,1.38087
60045491949,2.38771,1.30988,1.38222
60045514579,2.38793,1.31008,1.3824
60045530945,2.38771,1.31027,1.38232
60045551928,2.38771,1.31027,1.38232
60045574536,2.38728,1.31011,1.38174
60045590377,2.38765,1.31001,1.38194
60045611984,2.38817,1.31037,1.38237
60045634526,2.38983,1.31089,1.38464
60045650326,2.39098,1.31113,1.38627
60045672055,2.39152,1.31135,1.38639
60045694527,2.39152,1.31135,1.38639
60045718410,2.39175,1.31155,1.38657
60045731950,2.39148,1.31172,1.3859
60045754438,2.39111,1.31183,1.3857
60045770180,2.3906,1.31155,1.38506
60045793403,2.39251,1.31198,1.38688
60045814452,2.39202,1.31248,1.38645
60045830201,2.39408,1.31314,1.38873
60045853417,2.39416,1.31271,1.3887
60045874467,2.39613,1.31316,1.39113
60045890241,2.39698,1.31285,1.39241
60045913406,2.39697,1.3126,1.39262
60045934530,2.39763,1.31296,1.3934
60045950328,2.39898,1.31239,1.39488
60045973443,2.40014,1.31193,1.39741
60045994553,2.40257,1.31117,1.40147
60046010260,2.40451,1.30957,1.4058
60046033497,2.40793,1.30648,1.41397
60046054528,2.41368,1.30218,1.42904
60046070354,2.41957,1.29755,1.4452
60046093465,2.41874,1.29552,1.45068
60046114502,2.41649,1.29554,1.45351
60046130288,2.41343,1.29524,1.45581
60046153414,2.41298,1.2947,1.46157
60046174450,2.411,1.29358,1.46716
60046190229,2.40724,1.29344,1.47249
60046220884,2.40145,1.29486,1.47563
60046234434,2.3939,1.29711,1.47509
60046250211,2.3822,1.29937,1.46926
60046273443,2.36882,1.3029,1.46047
60046294478,2.35505,1.30567,1.44931
60046310263,2.34178,1.30936,1.43862
60046333439,2.32362,1.31307,1.42326
60046354546,2.30435,1.31778,1.40675
60046370329,2.2895,1.32291,1.39297
60046393502,2.27643,1.32892,1.37956
60046414542,2.25709,1.33264,1.35771
60046430330,2.24004,1.33741,1.34027
60046453457,2.22725,1.34062,1.32771
60046474536,2.21546,1.34354,1.31684
60046490329,2.19654,1.34644,1.29685
60046513497,2.17909,1.35082,1.27739
60046534506,2.15148,1.35675,1.24525
60046550315,2.09818,1.36486,1.18096
60046572850,2.05377,1.37293,1.12367
60046594518,2.01744,1.37939,1.07836
60046610351,1.98777,1.38207,1.04192
60046632841,1.96657,1.38377,1.01799
60046654556,1.95165,1.38615,1.00084
60046670348,1.93777,1.38909,0.984577
60046692783,1.92912,1.39176,0.972445
60046714476,1.92015,1.39365,0.960475
60046730256,1.91476,1.3942,0.952185
60046752732,1.91746,1.39616,0.952999
60046775895,1.9346,1.39771,0.96893
60046790242,1.95007,1.39785,0.983615
60046820898,1.96593,1.39645,1.00156
60046835938,1.98719,1.39569,1.02667
60046858419,2.01019,1.39628,1.05106
60046872811,2.02532,1.39497,1.06475
60046895993,2.04361,1.39401,1.08523
60046918499,2.0656,1.39535,1.10884
60046932765,2.08381,1.3964,1.1265
60046956024,2.09712,1.39692,1.13935
60046970298,2.10942,1.39717,1.15311
60046992844,2.12266,1.39837,1.16784
60047016053,2.13225,1.39911,1.17729
60047030291,2.1435,1.39953,1.18789
60047052804,2.15662,1.39933,1.20198
60047075935,2.16922,1.39983,1.21545
60047090305,2.17226,1.39893,1.21714
60047112771,2.17785,1.39895,1.22289
60047136007,2.18408,1.39993,1.22632
60047150286,2.18068,1.40009,1.22082
60047172825,2.17925,1.39825,1.21839
60047195966,2.18473,1.39649,1.2223
60047210361,2.18795,1.39457,1.22117
60047232792,2.185,1.39195,1.2142
60047255944,2.18157,1.39124,1.20995
60047276993,2.18369,1.39054,1.21257
60047292766,2.18758,1.38938,1.21573
60047315976,2.18815,1.38803,1.21599
60047336965,2.1916,1.38772,1.21891
60047352826,2.19885,1.38651,1.22492
60047376003,2.20683,1.38579,1.23113
60047397086,2.21205,1.38411,1.2363
60047412813,2.21759,1.38282,1.24077
60047443506,2.21958,1.38197,1.24199
60047457050,2.21898,1.38074,1.24234
60047472834,2.22156,1.37958,1.24514
60047495383,2.22486,1.37823,1.24868
60047517105,2.2286,1.3774,1.25256
60047532903,2.23466,1.37582,1.2591
60047555349,2.24123,1.37503,1.26637
60047577130,2.24527,1.37409,1.27132
60047592764,2.24879,1.37357,1.27568
60047615308,2.25378,1.37307,1.28132
60047637053,2.25541,1.3719,1.2828
60047660973,2.25647,1.37129,1.28397
60047675330,2.25676,1.37077,1.28437
60047698482,2.25611,1.36931,1.28306
60047712880,2.26003,1.36857,1.28638
60047735310,2.26107,1.3676,1.28594
60047758469,2.26297,1.3663,1.28753
60047772800,2.26375,1.36573,1.28824
60047795303,2.26538,1.36502,1.28946
60047818409,2.26284,1.36492,1.28749
60047832775,2.26294,1.365,1.28758
60047863401,2.26272,1.36464,1.28705
60047878443,2.2623,1.3643,1.2867
60047892758,2.25904,1.36397,1.28332
60047915276,2.2587,1.36365,1.28305
60047938438,2.25876,1.36369,1.28217
60047952790,2.25598,1.36295,1.27935
60047975264,2.25315,1.36287,1.27692
60047998536,2.24961,1.36359,1.27323
60048019580,2.24323,1.3633,1.26636
60048035362,2.23602,1.36341,1.25932
60048058582,2.23055,1.36442,1.2529
60048072116,2.22538,1.36376,1.24676
60048094568,2.2235,1.36354,1.24492
60048108937,2.22026,1.36344,1.2404
60048132014,2.21358,1.36336,1.23338
60048154563,2.21031,1.36416,1.23106
60048168932,2.20567,1.36457,1.22691
60048192744,2.20128,1.36536,1.22234
60048214597,2.19661,1.36557,1.21783
60048228917,2.19379,1.36592,1.21513
60048252055,2.19146,1.36639,1.21306
60048274587,2.1886,1.3667,1.20942
60048288891,2.18398,1.36667,1.2037
60048312034,2.17822,1.36671,1.19757
60048334534,2.17264,1.36701,1.19214
60048348891,2.16675,1.3675,1.18595
60048372076,2.16079,1.36737,1.17966
60048394601,2.15704,1.36772,1.17603
60048408876,2.15297,1.36809,1.17189
60048432111,2.14982,1.36837,1.16924
60048454576,2.14667,1.36882,1.16658
60048477019,2.14216,1.36989,1.16276
60048492079,2.13907,1.37069,1.15985
60048514583,2.13546,1.37057,1.15687
60048528903,2.13197,1.37068,1.15337
