timestamp,roll,pitch,yaw
41747968736,0.667761,-0.164628,1.66417
41747983795,0.662816,-0.166837,1.6605
41748007440,0.659881,-0.168534,1.65759
41748028737,0.658308,-0.170031,1.65514
41748043848,0.656451,-0.170916,1.65278
41748067410,0.654219,-0.172204,1.65061
41748098160,0.650389,-0.173049,1.64872
41748107407,0.647811,-0.173519,1.64767
41748128150,0.647662,-0.173614,1.64683
41748149513,0.647842,-0.173861,1.64565
41748164489,0.645864,-0.174445,1.64433
41748188034,0.643216,-0.17489,1.64289
41748216179,0.642187,-0.175235,1.64194
41748228619,0.641887,-0.175334,1.64123
41748246838,0.641284,-0.176019,1.64033
41748269284,0.64001,-0.176832,1.63956
41748284282,0.63882,-0.177577,1.63889
41748306826,0.640038,-0.178254,1.63884
41748329377,0.641951,-0.178617,1.6387
41748343699,0.643157,-0.178964,1.63874
41748366754,0.643096,-0.179261,1.63826
41748389310,0.641853,-0.179412,1.63788
41748404291,0.641316,-0.1798,1.63746
41748426776,0.642161,-0.180048,1.63723
41748449330,0.643172,-0.180163,1.6371
41748464339,0.643676,-0.180422,1.6364
41748486827,0.641763,-0.180855,1.63537
41748509294,0.639632,-0.181391,1.63465
41748523653,0.639504,-0.182043,1.63388
41748546834,0.640041,-0.182966,1.63301
41748569361,0.639083,-0.184,1.63213
41748583727,0.637515,-0.184945,1.63147
41748608213,0.636913,-0.185691,1.63076
41748629347,0.637236,-0.186197,1.63033
41748651854,0.637236,-0.186197,1.63033
41748666769,0.637435,-0.186207,1.63036
41748689290,0.637418,-0.186172,1.63019
41748703610,0.638038,-0.185834,1.63044
41748726776,0.639448,-0.185411,1.63111
41748749746,0.64108,-0.184887,1.63147
41748763604,0.641682,-0.184737,1.63168
41748788203,0.641208,-0.184311,1.63185
41748809261,0.641121,-0.184258,1.63202
41748823608,0.641854,-0.184175,1.63223
41748846858,0.642639,-0.184,1.63231
41748869384,0.642639,-0.184,1.63231
41748883715,0.642639,-0.184,1.63231
41748906818,0.642339,-0.184511,1.6325
41748929380,0.642996,-0.184615,1.63245
41748943614,0.643443,-0.184766,1.63254
41748966784,0.644272,-0.184902,1.63253
41748989325,0.644196,-0.184793,1.63253
41749003662,0.644292,-0.184716,1.63257
41749026768,0.644196,-0.184793,1.63253
41749049430,0.644196,-0.184793,1.63253
41749063705,0.644196,-0.184793,1.63253
41749086839,0.644292,-0.184716,1.63257
41749109311,0.644275,-0.184681,1.63239
41749123723,0.644371,-0.184603,1.63243
41749146813,0.644371,-0.184603,1.63243
41749169340,0.644371,-0.184603,1.63243
41749183684,0.64481,-0.184588,1.63256
41749206171,0.645364,-0.184309,1.63277
41749228619,0.645978,-0.184104,1.6328
41749251811,0.646701,-0.184374,1.63294
41749266112,0.646701,-0.184374,1.63294
41749288688,0.646797,-0.184296,1.63298
41749305143,0.647067,-0.184029,1.63293
41749326176,0.647067,-0.184029,1.63293
41749348649,0.647095,-0.184007,1.63292
41749363715,0.647095,-0.184007,1.63292
41749386142,0.647638,-0.184081,1.63305
41749408658,0.647621,-0.184046,1.63288
41749423667,0.647725,-0.184134,1.63288
41749446164,0.647725,-0.184134,1.63288
41749468625,0.647725,-0.184134,1.63288
41749483704,0.647821,-0.184056,1.63292
41749506105,0.647821,-0.184056,1.63292
41749528578,0.647821,-0.184056,1.63292
41749543683,0.647717,-0.183968,1.63292
41749566156,0.647717,-0.183968,1.63292
41749588688,0.64808,-0.184141,1.63279
41749603677,0.648555,-0.184567,1.63262
41749626085,0.648651,-0.184489,1.63266
41749648556,0.648755,-0.184577,1.63266
41749671744,0.649211,-0.184893,1.6327
41749686115,0.65011,-0.184974,1.63274
41749710024,0.650835,-0.185245,1.63287
41749723591,0.650835,-0.185245,1.63287
41749746108,0.650835,-0.185245,1.63287
41749768610,0.651379,-0.185318,1.633
41749785076,0.652653,-0.185219,1.63299
41749806095,0.653515,-0.185113,1.63285
41749828579,0.65277,-0.185029,1.63268
41749845150,0.651307,-0.184765,1.63273
41749866193,0.651307,-0.184765,1.63273
41749888699,0.65169,-0.184751,1.63264
41749905076,0.651873,-0.184726,1.63251
41749926123,0.651261,-0.185005,1.63208
41749948666,0.65037,-0.185386,1.63174
41749965155,0.650119,-0.185763,1.63157
41749986172,0.650855,-0.186273,1.63127
41750008703,0.651704,-0.18674,1.63118
41750025090,0.651704,-0.18674,1.63118
41750046198,0.651242,-0.187163,1.63115
41750068727,0.651324,-0.187364,1.6315
41750085187,0.652021,-0.187656,1.63164
41750106233,0.652021,-0.187656,1.63164
41750128688,0.651675,-0.187815,1.63169
41750145034,0.650562,-0.188003,1.63192
41750166179,0.650562,-0.188003,1.63192
41750188628,0.650562,-0.188003,1.63192
41750205129,0.650562,-0.188003,1.63192
41750226349,0.650534,-0.188024,1.63192
41750248643,0.650638,-0.188112,1.63192
41750265057,0.650562,-0.188003,1.63192
41750286239,0.651117,-0.18802,1.63187
41750308683,0.651768,-0.187959,1.63186
41750325128,0.652459,-0.187864,1.6319
41750346150,0.653195,-0.187782,1.63211
41750368699,0.653195,-0.187782,1.63211
41750385107,0.653195,-0.187782,1.63211
41750406219,0.653269,-0.187818,1.6325
41750428685,0.653977,-0.187758,1.63272
41750445192,0.654081,-0.187846,1.63272
41750466115,0.653585,-0.187607,1.63285
41750488649,0.653481,-0.187519,1.63286
41750505029,0.653481,-0.187519,1.63286
41750526173,0.653576,-0.187442,1.6329
41750548678,0.653576,-0.187442,1.6329
41750565081,0.653221,-0.187435,1.63298
41750586237,0.652646,-0.187604,1.63299
41750608586,0.652446,-0.187594,1.63296
41750625154,0.652748,-0.187914,1.63313
41750646243,0.652852,-0.188002,1.63313
41750668673,0.652277,-0.188171,1.63314
41750685113,0.652182,-0.188249,1.6331
41750707625,0.652277,-0.188171,1.63314
41750728698,0.652382,-0.188259,1.63314
41750745188,0.652382,-0.188259,1.63314
41750767643,0.652277,-0.188171,1.63314
41750788728,0.652996,-0.187759,1.63343
41750805123,0.65435,-0.187252,1.63355
41750827668,0.654977,-0.186401,1.63392
41750848710,0.655384,-0.185726,1.63422
41750865182,0.656096,-0.18515,1.63456
41750887620,0.656089,-0.184689,1.63485
41750908747,0.655864,-0.184183,1.63494
41750925111,0.6567,-0.183803,1.63506
41750947679,0.6567,-0.183803,1.63506
41750968728,0.656251,-0.183651,1.63497
41750985145,0.656251,-0.183651,1.63497
41751007693,0.656251,-0.183651,1.63497
41751028749,0.656807,-0.183669,1.63493
41751045129,0.656807,-0.183669,1.63493
41751067614,0.656979,-0.183701,1.63497
41751088668,0.6568,-0.183208,1.63522
41751111110,0.657129,-0.182942,1.6354
41751127575,0.657582,-0.182577,1.63561
41751148640,0.657563,-0.182469,1.63583
41751165093,0.65745,-0.182143,1.63626
41751187564,0.657597,-0.181902,1.63657
41751208593,0.657866,-0.181857,1.63666
41751225057,0.658213,-0.1817,1.63662
41751247696,0.658213,-0.1817,1.63662
41751269359,0.658213,-0.1817,1.63662
41751284287,0.65831,-0.181622,1.63666
41751306865,0.658304,-0.182067,1.63692
41751329393,0.658937,-0.182195,1.63688
41751345831,0.658945,-0.18236,1.63684
41751366880,0.658101,-0.182278,1.63702
41751389453,0.65789,-0.182251,1.63754
41751404380,0.659397,-0.182118,1.6382
41751426871,0.660923,-0.182093,1.63864
41751449376,0.660897,-0.18182,1.6389
41751464345,0.660897,-0.18182,1.6389
41751486917,0.660881,-0.181417,1.63938
41751509345,0.661947,-0.180688,1.63968
41751524385,0.662692,-0.180166,1.63963
41751546873,0.662082,-0.1797,1.63919
41751569391,0.662033,-0.17964,1.63879
41751584336,0.661937,-0.179717,1.63875
41751606765,0.66212,-0.179693,1.63862
41751630752,0.66212,-0.179693,1.63862
41751644467,0.662217,-0.179616,1.63866
41751666952,0.662217,-0.179616,1.63866
41751689385,0.66212,-0.179693,1.63862
41751704428,0.66212,-0.179693,1.63862
41751726804,0.662562,-0.179682,1.63875
41751749304,0.662659,-0.179604,1.63879
41751764277,0.661668,-0.179762,1.63866
41751786811,0.661129,-0.17985,1.63848
41751809337,0.661789,-0.179957,1.63844
41751825720,0.663058,-0.179993,1.63823
41751846820,0.663058,-0.179993,1.63823
41751869389,0.662677,-0.179785,1.63818
41751885797,0.662705,-0.179762,1.63818
41751906913,0.663137,-0.179808,1.63849
41751929344,0.663945,-0.179676,1.63875
41751945841,0.664522,-0.179508,1.63875
41751966893,0.664495,-0.17953,1.63875
41751989485,0.664322,-0.179497,1.63871
41752005872,0.664322,-0.179497,1.63871
41752026901,0.665245,-0.179395,1.6388
41752049393,0.665245,-0.179395,1.6388
41752065807,0.665245,-0.179395,1.6388
41752086892,0.665245,-0.179395,1.6388
41752109284,0.665245,-0.179395,1.6388
41752125734,0.665141,-0.179307,1.6388
41752146942,0.665479,-0.179209,1.63893
41752169395,0.665479,-0.179209,1.63893
41752185861,0.665479,-0.179209,1.63893
41752207336,0.665576,-0.179131,1.63898
41752229289,0.665576,-0.179131,1.63898
41752245737,0.665828,-0.17898,1.63928
41752266796,0.666648,-0.178719,1.63976
41752289300,0.667415,-0.17828,1.64013
41752305783,0.667415,-0.17828,1.64013
41752326808,0.667443,-0.178258,1.64012
41752349386,0.667966,-0.178064,1.64052
41752365734,0.669576,-0.177932,1.64084
41752386806,0.671503,-0.177842,1.64103
41752409353,0.672661,-0.177779,1.6414
41752425726,0.674178,-0.177656,1.64207
41752446872,0.677217,-0.17726,1.64291
41752469395,0.681644,-0.176635,1.6442
41752485776,0.685344,-0.17596,1.6455
41752506844,0.68801,-0.175066,1.64715
41752536890,0.691733,-0.174166,1.64897
41752545769,0.697313,-0.173665,1.65106
41752566883,0.703408,-0.172403,1.65396
41752589392,0.71116,-0.17106,1.65727
41752605080,0.720173,-0.170079,1.6606
41752626853,0.729248,-0.169338,1.66412
41752649403,0.73758,-0.168432,1.66772
41752665137,0.745301,-0.167194,1.67126
41752686841,0.75387,-0.166073,1.67455
41752709433,0.764538,-0.164417,1.67949
41752731845,0.779223,-0.161647,1.68647
41752746869,0.795779,-0.158474,1.69337
41752769416,0.811871,-0.155984,1.69952
41752785141,0.824045,-0.154382,1.70538
41752808247,0.831283,-0.152714,1.71066
41752829365,0.834483,-0.150481,1.71528
41752845205,0.83817,-0.147781,1.72014
41752868307,0.8461,-0.145122,1.72586
41752889388,0.857935,-0.142583,1.73125
41752905148,0.871415,-0.140899,1.73567
41752928239,0.883526,-0.139903,1.74003
41752949342,0.893106,-0.138787,1.74454
41752965085,0.900134,-0.137298,1.74906
41752988348,0.907182,-0.135575,1.75293
41753010789,0.915947,-0.13408,1.75716
41753025118,0.925195,-0.132476,1.76143
41753048254,0.935058,-0.130897,1.7655
41753069395,0.9443,-0.129376,1.76968
41753085160,0.951901,-0.127881,1.77368
41753108310,0.957068,-0.126245,1.77777
41753129397,0.961478,-0.124654,1.7814
41753145173,0.965912,-0.123022,1.78418
41753168263,0.970635,-0.121946,1.78595
41753189405,0.97443,-0.121317,1.78745
41753205115,0.976755,-0.120791,1.78865
41753228275,0.978466,-0.120203,1.78981
41753249388,0.980098,-0.119572,1.79113
41753265108,0.982387,-0.119137,1.79239
41753288246,0.985087,-0.118859,1.79353
41753309326,0.987883,-0.11874,1.79442
41753325149,0.98997,-0.118746,1.79552
41753348394,0.991696,-0.118518,1.79669
41753369364,0.993497,-0.118228,1.7978
41753385161,0.99524,-0.11777,1.79889
41753408333,0.996457,-0.117484,1.79983
41753429331,0.996981,-0.117029,1.80044
41753445099,0.997107,-0.116612,1.80122
41753468351,0.997751,-0.116261,1.80225
41753489375,0.999665,-0.115984,1.80319
41753505136,1.00169,-0.115711,1.80395
41753527625,1.00321,-0.115392,1.80491
41753549382,1.00394,-0.115198,1.80567
41753565118,1.00397,-0.115041,1.80646
41753587625,1.00355,-0.11503,1.8072
41753610798,1.00369,-0.114809,1.80806
41753625142,1.00437,-0.114936,1.80896
41753647676,1.0058,-0.114902,1.80964
41753669373,1.00669,-0.11512,1.81034
41753685182,1.00757,-0.115146,1.81098
41753707642,1.00965,-0.115316,1.8116
41753730801,1.01331,-0.115956,1.8123
41753745120,1.01827,-0.116637,1.81292
41753767638,1.02434,-0.117082,1.81359
41753790793,1.03175,-0.117342,1.8148
41753805185,1.04204,-0.117423,1.81599
41753827634,1.05481,-0.117271,1.81748
41753850801,1.06562,-0.115721,1.81992
41753865123,1.07549,-0.113134,1.82249
41753887618,1.08614,-0.111012,1.82514
41753910769,1.09612,-0.108038,1.82859
41753925138,1.10497,-0.103433,1.83435
41753947640,1.11335,-0.0970825,1.84104
41753970849,1.12443,-0.0907931,1.8477
41753991892,1.13982,-0.0858245,1.85422
41754007613,1.15446,-0.081621,1.86145
41754030799,1.1656,-0.0767131,1.86969
41754051895,1.17477,-0.0725162,1.87949
41754067705,1.18295,-0.0694297,1.89077
41754090832,1.19117,-0.0667359,1.90185
41754111899,1.20069,-0.0644713,1.91232
41754127637,1.21107,-0.063171,1.92234
41754150853,1.22168,-0.0628019,1.93186
41754171838,1.23317,-0.0641188,1.9412
41754187642,1.24458,-0.0663381,1.95025
41754210847,1.2547,-0.0694514,1.95915
41754231823,1.26377,-0.0727549,1.96817
41754247646,1.27103,-0.0755202,1.9764
41754270807,1.27628,-0.0766463,1.98438
41754291834,1.28115,-0.0765272,1.99245
41754307619,1.28574,-0.0739922,2.00048
41754330827,1.28815,-0.0687757,2.00786
41754351955,1.29083,-0.0632182,2.01451
41754367731,1.29538,-0.058382,2.01992
41754390883,1.30073,-0.0546122,2.02365
41754411945,1.30557,-0.0516075,2.02554
41754427678,1.30704,-0.0499582,2.02623
41754450916,1.3063,-0.051441,2.02567
41754471974,1.30925,-0.05561,2.02505
41754487753,1.312,-0.0612907,2.02506
41754510245,1.31286,-0.0680806,2.02446
41754531941,1.31402,-0.0760043,2.02338
41754547692,1.31744,-0.085171,2.02135
41754570247,1.325,-0.0962367,2.01957
41754591997,1.33368,-0.107998,2.01869
41754607745,1.33478,-0.117063,2.01902
41754630211,1.32694,-0.122686,2.01827
41754651961,1.31499,-0.127465,2.01662
41754675859,1.30284,-0.13095,2.01456
41754690248,1.29375,-0.133253,2.01233
41754713429,1.28882,-0.135454,2.00966
41754727732,1.28507,-0.138202,2.00724
41754750232,1.27991,-0.141473,2.0059
41754773459,1.27397,-0.14507,2.00618
41754787699,1.26929,-0.147719,2.0075
41754810263,1.26741,-0.148868,2.00965
41754833449,1.26886,-0.148786,2.01206
41754847721,1.2727,-0.14788,2.01451
41754870176,1.27717,-0.146666,2.01704
41754893346,1.28085,-0.145674,2.01952
41754907662,1.28286,-0.144846,2.02149
41754930121,1.28378,-0.14381,2.02319
41754953351,1.28395,-0.142192,2.02418
41754967668,1.28379,-0.140245,2.02471
41754990148,1.28356,-0.138729,2.02522
41755013338,1.28347,-0.137579,2.02561
41755035878,1.28338,-0.137434,2.0256
41755050197,1.28316,-0.137706,2.02606
41755073458,1.28418,-0.138681,2.02567
41755086962,1.28738,-0.139692,2.02481
41755109440,1.29106,-0.139773,2.02457
41755123834,1.29367,-0.13959,2.02461
41755146996,1.2949,-0.139409,2.02515
41755169445,1.29623,-0.13909,2.02551
41755183762,1.29742,-0.138512,2.02618
41755206980,1.29939,-0.137411,2.02679
41755229496,1.30247,-0.136159,2.02707
41755243726,1.30539,-0.134347,2.02696
41755266831,1.30442,-0.132744,2.02476
41755289403,1.29838,-0.133732,2.01972
41755303679,1.2818,-0.139057,2.01628
41755326267,1.25213,-0.145918,2.01691
41755349391,1.2195,-0.149612,2.02179
41755363757,1.19527,-0.152142,2.03245
41755386322,1.17719,-0.153882,2.04871
41755409492,1.1528,-0.154543,2.07059
41755423889,1.12195,-0.153405,2.09989
41755446269,1.0923,-0.152341,2.1379
41755469476,1.07065,-0.151334,2.18176
41755483698,1.04974,-0.150915,2.22783
41755506359,1.0278,-0.150132,2.27569
41755529474,1.00877,-0.14841,2.32332
41755543815,0.994557,-0.145319,2.36883
41755566288,0.984854,-0.144032,2.4102
41755589431,0.984537,-0.144213,2.44323
41755603762,0.978058,-0.146863,2.46923
41755626211,0.964356,-0.149064,2.49032
41755649384,0.949926,-0.150472,2.50692
41755663755,0.938581,-0.151567,2.51817
41755686381,0.930299,-0.151691,2.52468
41755709487,0.92451,-0.150105,2.52823
41755723819,0.921312,-0.147941,2.53153
41755746271,0.919321,-0.146635,2.53521
41755769520,0.916578,-0.145843,2.53861
41755783789,0.914748,-0.144811,2.54085
41755806226,0.91486,-0.143749,2.54325
41755829482,0.91597,-0.142492,2.54639
41755843846,0.918409,-0.140986,2.54978
41755866253,0.921726,-0.139265,2.55258
41755889352,0.926323,-0.138161,2.55437
41755903705,0.930971,-0.13785,2.55545
41755926228,0.934927,-0.13812,2.5558
41755949404,0.936703,-0.138776,2.55574
41755963721,0.936545,-0.139478,2.55503
41755986235,0.936554,-0.14011,2.55395
41756009486,0.938102,-0.140579,2.55281
41756023873,0.940151,-0.140269,2.55214
41756046262,0.941578,-0.139331,2.55131
41756069545,0.943376,-0.137552,2.55018
41756083815,0.946302,-0.135376,2.54883
41756106280,0.948765,-0.133278,2.54744
41756129491,0.950691,-0.131264,2.54592
41756143836,0.952046,-0.129387,2.54409
41756166366,0.952061,-0.127493,2.54234
41756189420,0.951585,-0.125784,2.54072
41756203757,0.951214,-0.124473,2.53905
41756226235,0.951778,-0.124214,2.53683
41756249436,0.952735,-0.124039,2.53411
41756265270,0.953689,-0.12431,2.53139
41756286375,0.953361,-0.125066,2.52894
41756309510,0.951623,-0.126292,2.52663
41756323742,0.950192,-0.12778,2.52438
41756346307,0.951598,-0.129955,2.52227
41756369527,0.95643,-0.132092,2.51997
41756383807,0.965561,-0.133372,2.51529
41756406409,0.981,-0.134975,2.50547
41756429562,1.00087,-0.137854,2.48835
41756443814,1.01977,-0.144205,2.46192
41756474523,1.03732,-0.149475,2.42568
41756489486,1.05222,-0.155259,2.3822
41756503867,1.06774,-0.159937,2.33586
41756526373,1.07757,-0.162203,2.29101
41756548797,1.07858,-0.161812,2.24951
41756563910,1.07392,-0.161012,2.21134
41756586339,1.07371,-0.160521,2.17882
41756608811,1.08183,-0.160429,2.15282
41756623871,1.09745,-0.158589,2.13299
41756646250,1.11916,-0.155377,2.11896
41756668805,1.14189,-0.152468,2.11085
41756683770,1.15728,-0.149696,2.10682
41756706274,1.16661,-0.146094,2.10282
41756728872,1.17581,-0.142571,2.09709
41756743873,1.18719,-0.141718,2.0905
41756766297,1.19743,-0.143698,2.08384
41756788821,1.20354,-0.148128,2.0769
41756803880,1.20413,-0.152929,2.06987
41756826361,1.20086,-0.157738,2.06416
41756848872,1.19998,-0.162878,2.05998
41756863825,1.2023,-0.168185,2.05808
41756886369,1.20659,-0.172761,2.05671
41756908881,1.21232,-0.176361,2.05585
41756923836,1.21709,-0.178171,2.05631
41756946362,1.21736,-0.179214,2.05785
41756968792,1.21405,-0.179882,2.05932
41756983837,1.21317,-0.180716,2.0601
41757006393,1.2177,-0.181623,2.06066
41757028817,1.22365,-0.182227,2.06162
41757043862,1.22716,-0.181578,2.06246
41757066377,1.22846,-0.181047,2.0633
41757088898,1.22992,-0.180686,2.06418
41757103851,1.23277,-0.180387,2.06554
41757126338,1.23626,-0.17973,2.06689
41757148796,1.24044,-0.17884,2.06793
41757163834,1.24409,-0.177627,2.06858
41757186354,1.24789,-0.176827,2.06936
41757208852,1.25237,-0.176303,2.07164
41757223894,1.25713,-0.17506,2.07413
41757246251,1.26286,-0.173771,2.07598
41757268877,1.27004,-0.172462,2.07737
41757283831,1.27699,-0.171612,2.07837
41757314441,1.28227,-0.171476,2.07963
41757328801,1.2851,-0.171532,2.08078
41757353336,1.28495,-0.171226,2.08197
41757366243,1.28333,-0.170403,2.08324
41757390342,1.283,-0.169487,2.08376
41757405318,1.28367,-0.169117,2.08397
41757426393,1.28485,-0.169058,2.08425
41757448926,1.28606,-0.168985,2.08463
41757465249,1.28668,-0.168853,2.08491
41757486318,1.28623,-0.168809,2.08493
41757508826,1.28583,-0.169149,2.08493
41757525312,1.28629,-0.169548,2.08476
41757546331,1.2878,-0.169828,2.08451
41757568792,1.28934,-0.170035,2.08441
41757585221,1.28946,-0.170215,2.08476
41757606267,1.28859,-0.170262,2.08521
41757628796,1.28859,-0.170262,2.08521
41757645162,1.28967,-0.169861,2.08493
41757666374,1.2909,-0.169816,2.08473
41757688926,1.29089,-0.16998,2.08495
41757705261,1.29089,-0.16998,2.08495
41757727796,1.29201,-0.169551,2.08496
41757748865,1.29312,-0.169182,2.08502
41757765303,1.29313,-0.169122,2.08497
41757786350,1.29325,-0.169033,2.08492
41757808899,1.29325,-0.169033,2.08492
41757825342,1.29325,-0.169033,2.08492
41757846373,1.2939,-0.169256,2.08495
41757868796,1.29428,-0.169612,2.08494
41757885255,1.29361,-0.170557,2.08473
41757906269,1.29218,-0.171205,2.08433
41757928915,1.29068,-0.171692,2.08412
41757945321,1.28999,-0.171767,2.08421
41757966409,1.29067,-0.171338,2.08437
41757988857,1.29203,-0.171105,2.08486
41758005254,1.29299,-0.170945,2.08505
41758026330,1.29354,-0.170771,2.08549
41758048873,1.29359,-0.170578,2.08556
41758065258,1.2921,-0.17021,2.08392
41758086388,1.29334,-0.170333,2.07897
41758108851,1.29567,-0.172651,2.07015
41758125227,1.29682,-0.179941,2.06043
41758146231,1.28606,-0.189676,2.05192
41758168802,1.26129,-0.193566,2.04358
41758185234,1.23688,-0.186108,2.03492
41758206439,1.22394,-0.172645,2.02759
41758228946,1.21747,-0.157315,2.0217
41758245324,1.21169,-0.138568,2.01378
41758267796,1.2016,-0.114629,2.00671
41758288830,1.1876,-0.0865336,2.00375
41758305250,1.17129,-0.0569267,2.00383
41758327862,1.1562,-0.0287118,2.00371
41758348828,1.1403,-0.00319902,2.00159
41758365293,1.12095,0.0219247,1.99856
41758387862,1.10342,0.0452916,1.99515
41758408815,1.08652,0.0643508,1.99276
41758425277,1.0694,0.0786437,1.99107
41758447714,1.055,0.0887049,1.98947
41758468812,1.03893,0.0948468,1.98956
41758485389,1.02237,0.0986568,1.98895
41758507816,1.02032,0.0995475,1.9862
41758528847,1.03076,0.0952196,1.9842
41758545268,1.04056,0.0885632,1.98387
41758567797,1.04421,0.083104,1.98431
41758588850,1.04231,0.0786489,1.9858
41758605312,1.03966,0.0747134,1.98835
41758627833,1.04183,0.0711146,1.99129
41758648833,1.04338,0.0676882,1.99461
41758665286,1.04175,0.0643163,1.99768
41758687709,1.03784,0.0609391,2.0005
41758708838,1.03659,0.0576652,2.00327
41758725217,1.0385,0.0538408,2.00574
41758747881,1.04323,0.049716,2.00783
41758768921,1.0491,0.0460912,2.00917
41758786777,1.05127,0.0430967,2.01069
41758807795,1.04742,0.0410297,2.0134
41758828812,1.04156,0.0401257,2.01651
41758845322,1.03965,0.0392912,2.01869
41758867811,1.04351,0.0380257,2.01994
41758888849,1.04863,0.0368216,2.02134
41758904518,1.05138,0.0360025,2.02261
41758927026,1.05043,0.0352935,2.02419
41758949456,1.0494,0.0348116,2.02559
41758964415,1.05028,0.0345205,2.02648
41758986939,1.05222,0.0340483,2.02714
41759009574,1.05407,0.0330488,2.02746
41759024508,1.05483,0.0322203,2.02769
41759047102,1.05384,0.0318468,2.02784
41759069612,1.05219,0.031788,2.02786
41759084538,1.05196,0.0309441,2.02765
41759107051,1.05264,0.0291108,2.02697
41759129622,1.05322,0.0271061,2.02653
41759144580,1.05344,0.0255689,2.02629
41759167105,1.05416,0.0241045,2.02607
41759189556,1.0563,0.0222634,2.02614
41759204544,1.05781,0.0200582,2.02673
41759227001,1.05683,0.0178024,2.02785
41759249519,1.05447,0.015811,2.029
41759264584,1.05437,0.0136397,2.02976
41759287004,1.05666,0.0110017,2.03017
41759309548,1.0597,0.00838236,2.03055
41759324569,1.06167,0.00643973,2.03109
41759347057,1.06239,0.00499799,2.03265
41759369518,1.06325,0.0044523,2.03532
41759384616,1.06607,0.00593284,2.03887
41759407021,1.07335,0.0106307,2.04154
41759429555,1.08739,0.017993,2.04315
41759446045,1.10719,0.0251723,2.04419
41759467024,1.13161,0.0287104,2.04545
41759489458,1.16171,0.0268404,2.04714
41759505898,1.20174,0.0118276,2.04831
41759526988,1.24186,-0.0185514,2.05789
41759549440,1.24831,-0.0614945,2.07142
41759565866,1.25307,-0.101603,2.07908
41759587137,1.27706,-0.141601,2.08246
41759609568,1.29669,-0.181564,2.09013
41759626039,1.30734,-0.221923,2.09958
41759647014,1.32293,-0.242084,2.10672
41759669523,1.33891,-0.250115,2.11319
41759685952,1.34461,-0.251527,2.12171
41759714604,1.34045,-0.248433,2.13097
41759729571,1.33365,-0.243091,2.13851
41759745994,1.32798,-0.237921,2.144
41759766990,1.32268,-0.233501,2.14843
41759789463,1.31756,-0.230162,2.15191
41759805907,1.31224,-0.227521,2.15489
41759826995,1.30522,-0.227143,2.15739
41759849485,1.29728,-0.228047,2.15928
41759865935,1.29148,-0.229201,2.16089
41759886977,1.2896,-0.231159,2.16241
41759909538,1.28993,-0.233687,2.16408
41759925971,1.29105,-0.235218,2.16566
41759947119,1.29219,-0.235897,2.16678
41759969594,1.29376,-0.236355,2.16795
41759986039,1.29524,-0.236556,2.16892
41760007034,1.2959,-0.236967,2.16938
41760029606,1.29601,-0.237633,2.1696
41760045949,1.2962,-0.238231,2.16932
41760067035,1.29678,-0.238357,2.16839
41760089578,1.29802,-0.23793,2.16729
41760105951,1.29967,-0.237402,2.16633
41760127005,1.30001,-0.236644,2.16576
41760149628,1.30043,-0.235298,2.16473
41760165348,1.3015,-0.233299,2.16315
41760187087,1.30369,-0.230814,2.16115
41760209297,1.30624,-0.228186,2.15898
41760225283,1.308,-0.225346,2.15672
41760247518,1.30804,-0.22285,2.1544
41760269595,1.30711,-0.220257,2.15175
41760285388,1.30768,-0.217715,2.14893
41760308528,1.30948,-0.214761,2.1459
41760329603,1.31036,-0.211793,2.14301
41760345266,1.31039,-0.208982,2.1402
41760368392,1.31074,-0.206266,2.13728
41760389495,1.3107,-0.203702,2.13434
41760405388,1.30924,-0.200555,2.1321
41760428492,1.30765,-0.19698,2.12995
41760449568,1.30579,-0.193706,2.12799
41760465373,1.30367,-0.190671,2.12619
41760488514,1.30168,-0.188239,2.12453
41760509565,1.29979,-0.186743,2.12347
41760525419,1.29833,-0.18597,2.12339
41760548552,1.29708,-0.185713,2.12494
41760569575,1.29589,-0.185126,2.12729
41760585324,1.29739,-0.184315,2.1295
41760608534,1.30022,-0.184441,2.13203
41760631042,1.30269,-0.185536,2.13594
41760645346,1.30516,-0.186536,2.13969
41760668419,1.30809,-0.187557,2.14328
41760689464,1.3086,-0.189708,2.14647
41760705262,1.30727,-0.193058,2.14915
41760728462,1.30606,-0.196812,2.15092
41760749577,1.30673,-0.199452,2.1517
41760765351,1.30781,-0.201031,2.15203
41760788503,1.30866,-0.201436,2.15291
41760809622,1.30943,-0.201171,2.15381
41760825291,1.30994,-0.200452,2.15467
41760848516,1.30974,-0.199454,2.15494
41760869607,1.31006,-0.198575,2.15494
41760885481,1.31139,-0.197879,2.15411
41760908524,1.31247,-0.196928,2.15183
41760929604,1.31186,-0.19399,2.14846
41760945366,1.30941,-0.187618,2.142
41760968516,1.3045,-0.175582,2.1353
41760989529,1.3002,-0.155816,2.12986
41761005359,1.29397,-0.12724,2.126
41761028439,1.28482,-0.0904685,2.12451
41761049493,1.27556,-0.050736,2.12534
41761065268,1.26626,-0.00809097,2.12711
41761088427,1.25328,0.0343131,2.13064
41761109495,1.23372,0.0802946,2.13642
41761125252,1.21326,0.121815,2.14508
41761147909,1.19373,0.158895,2.15616
41761169576,1.1777,0.194836,2.16725
41761185449,1.1653,0.228464,2.1772
41761207899,1.15719,0.255056,2.1873
41761229629,1.15315,0.27195,2.19842
41761245449,1.1487,0.284378,2.21005
41761267942,1.13973,0.296598,2.22053
41761291083,1.12949,0.30643,2.22915
41761305374,1.12466,0.310996,2.23614
41761327947,1.12815,0.309567,2.24132
41761351095,1.13443,0.303292,2.24769
41761365442,1.13465,0.295427,2.2542
41761387915,1.12578,0.287673,2.26018
41761411081,1.11493,0.275556,2.26594
41761432196,1.10578,0.259756,2.2709
41761447822,1.09873,0.244197,2.27329
41761470990,1.09208,0.233532,2.27209
41761485451,1.08815,0.225938,2.26833
41761507813,1.08747,0.216975,2.26447
41761531073,1.08221,0.206283,2.26221
41761552096,1.07069,0.194441,2.26109
41761569325,1.05394,0.18226,2.26091
41761590966,1.03908,0.169709,2.26163
41761612091,1.02867,0.155297,2.26366
41761627935,1.02191,0.142628,2.26495
41761651090,1.01957,0.134201,2.26435
41761672136,1.02315,0.127125,2.26362
41761687910,1.03061,0.119268,2.26404
41761711045,1.0325,0.111295,2.26596
41761732110,1.02946,0.103847,2.26828
41761747911,1.0294,0.0949269,2.27096
41761770997,1.02635,0.0924213,2.27272
41761795002,1.00231,0.100681,2.2704
41761807923,0.983549,0.106408,2.26678
41761831077,0.986744,0.105067,2.26466
41761852095,0.990618,0.10217,2.26182
41761867931,0.974929,0.102052,2.25983
41761891041,0.958856,0.105127,2.259
41761912063,0.956055,0.105923,2.25886
41761927873,0.957715,0.103058,2.25877
41761950996,0.95417,0.100939,2.25804
41761972102,0.948518,0.100277,2.2577
41761987914,0.947926,0.0999357,2.25699
41762011075,0.945333,0.0978192,2.25631
41762032035,0.93724,0.0957344,2.25519
41762047808,0.928012,0.0941832,2.25343
41762070342,0.92312,0.0920317,2.25239
41762092082,0.923863,0.0902292,2.25192
41762107786,0.926006,0.0893816,2.25156
41762130265,0.925934,0.0881374,2.25101
41762152139,0.923214,0.087015,2.25117
41762167866,0.920146,0.0862169,2.25152
41762190409,0.920264,0.086164,2.25171
41762213589,0.922078,0.086057,2.25134
41762227924,0.920072,0.0860391,2.25058
41762250458,0.914291,0.0864863,2.25027
41762273476,0.908499,0.0870375,2.25063
41762287852,0.90811,0.0877066,2.25097
41762310372,0.911645,0.0884053,2.25159
41762333604,0.913708,0.0889574,2.25221
41762347901,0.913238,0.0893675,2.25304
41762377019,0.912859,0.0902311,2.25358
41762393457,0.914366,0.0905004,2.25395
41762407803,0.915303,0.0905815,2.2544
41762430350,0.915162,0.0905321,2.25433
41762453535,0.915571,0.0907728,2.25485
41762467882,0.9168,0.0911464,2.25562
41762491773,0.918793,0.0917184,2.25585
41762513550,0.920001,0.0916415,2.25596
41762527889,0.919488,0.0913556,2.25599
41762550441,0.918736,0.0912075,2.25648
41762573497,0.919497,0.091438,2.25677
41762587905,0.920352,0.0919789,2.25651
41762610457,0.920352,0.0919789,2.25651
41762633524,0.919462,0.0920971,2.25688
41762647948,0.919473,0.0921483,2.25682
41762670429,0.920155,0.0925467,2.25696
41762693540,0.920096,0.0926448,2.25699
41762707893,0.91916,0.0930851,2.25702
41762729678,0.917573,0.093506,2.25697
41762743895,0.915898,0.0937894,2.25716
41762766449,0.914372,0.0941124,2.25707
41762797713,0.912493,0.0947372,2.25667
41762803860,0.911009,0.0948868,2.25612
41762826364,0.912928,0.0940562,2.25521
41762849612,0.920115,0.0926333,2.25385
41762863948,0.933456,0.0927103,2.25339
41762886502,0.947011,0.0939227,2.25269
41762909622,0.958277,0.0952663,2.25188
41762924056,0.969019,0.0953345,2.24988
41762946449,0.975897,0.0944431,2.24863
41762969584,0.975251,0.0941967,2.24712
41762983968,0.970781,0.0956142,2.2446
41763006393,0.969668,0.0987491,2.24141
41763029567,0.972781,0.102916,2.23802
41763043864,0.977633,0.109301,2.23505
41763066392,0.985237,0.118941,2.2326
41763089500,0.995712,0.131119,2.23001
41763103887,1.00619,0.145889,2.22679
41763126412,1.01365,0.163651,2.22189
41763149567,1.01696,0.182586,2.21526
41763163943,1.01711,0.202407,2.20797
41763195240,1.01373,0.224427,2.2002
41763209660,1.00857,0.249457,2.19052
41763224040,1.00406,0.275569,2.17799
41763246378,1.00145,0.300815,2.16181
41763277803,0.999044,0.327234,2.14283
41763283969,0.991662,0.356892,2.121
41763306518,0.981257,0.387231,2.09916
41763329634,0.96955,0.417012,2.07749
41763343945,0.954712,0.447029,2.05387
41763366445,0.93676,0.478565,2.02781
41763389675,0.916865,0.510315,2.00045
41763403968,0.89752,0.541153,1.97221
41763435240,0.878069,0.570585,1.94318
41763449574,0.854628,0.599345,1.91295
41763463887,0.826241,0.627012,1.88093
41763486409,0.797537,0.652331,1.84841
41763509656,0.769994,0.675773,1.81571
41763523894,0.740879,0.697592,1.7821
41763555321,0.708055,0.718439,1.74696
41763569645,0.676232,0.737414,1.71126
41763584092,0.646271,0.754851,1.67546
41763606469,0.61658,0.770842,1.63978
41763629667,0.585157,0.785688,1.6036
41763644010,0.550935,0.799603,1.56629
41763666455,0.516445,0.81228,1.52847
41763689564,0.481026,0.822811,1.49052
41763703954,0.446431,0.831679,1.45405
41763726496,0.411006,0.83967,1.41774
41763749571,0.373235,0.847677,1.37999
41763764064,0.33567,0.855295,1.34307
41763786504,0.299915,0.861639,1.30804
41763809649,0.267056,0.866328,1.27607
41763823972,0.238098,0.869752,1.24718
41763846499,0.211006,0.872096,1.21922
41763877840,0.185248,0.873917,1.19324
41763884013,0.159046,0.875366,1.16929
41763906514,0.134759,0.876088,1.14783
41763929634,0.110629,0.876434,1.12774
41763944046,0.0837688,0.877144,1.10815
41763966471,0.0576281,0.877527,1.09043
41763989649,0.0339507,0.877657,1.07347
41764004012,0.0115796,0.877785,1.05712
41764026423,-0.0103987,0.878033,1.04159
41764049652,-0.0320985,0.87881,1.02701
41764063974,-0.052709,0.879382,1.0139
41764086402,-0.0707176,0.879011,1.00187
41764109649,-0.0865929,0.877907,0.991312
41764123933,-0.0992398,0.876764,0.982648
41764146446,-0.106442,0.875783,0.978268
41764168999,-0.111257,0.875296,0.976925
41764184020,-0.118742,0.875486,0.974794
41764206494,-0.12867,0.87543,0.971022
41764228928,-0.138974,0.875309,0.965976
41764243989,-0.146891,0.875298,0.961137
41764266466,-0.152586,0.875381,0.956773
41764290457,-0.159525,0.876608,0.952438
41764304015,-0.16677,0.877416,0.94829
41764326434,-0.173058,0.87798,0.943152
41764348992,-0.178628,0.879083,0.938134
41764364011,-0.186162,0.880517,0.933241
41764389145,-0.194185,0.881915,0.928047
41764408895,-0.20009,0.88312,0.923473
41764423946,-0.206256,0.881585,0.917362
41764446638,-0.205837,0.887688,0.912314
41764468921,-0.20123,0.879784,0.915897
41764483883,-0.193041,0.885576,0.921981
41764506422,-0.198741,0.894948,0.919221
41764528948,-0.199578,0.894676,0.922039
41764543930,-0.20543,0.895745,0.921205
41764566484,-0.210233,0.895523,0.919081
41764588891,-0.213261,0.895329,0.916338
41764603887,-0.218324,0.895755,0.912733
41764626470,-0.228594,0.896098,0.907324
41764649002,-0.241405,0.895969,0.900076
41764666928,-0.252022,0.895548,0.893753
41764686530,-0.260365,0.894094,0.888427
41764708990,-0.268885,0.892679,0.882586
41764723937,-0.277294,0.891424,0.876561
41764746475,-0.28538,0.890405,0.870527
41764769042,-0.294265,0.890311,0.865547
41764784040,-0.303703,0.890684,0.86157
41764806496,-0.313921,0.891107,0.857034
41764829052,-0.321836,0.890811,0.852688
41764843998,-0.32846,0.890558,0.849459
41764866557,-0.334666,0.890338,0.846909
41764888956,-0.340247,0.890434,0.844563
41764905495,-0.345909,0.890757,0.842707
41764926505,-0.350966,0.890895,0.84121
41764948943,-0.354331,0.89061,0.840112
41764965355,-0.355036,0.8904,0.840133
41764987965,-0.354315,0.890479,0.84129
41765008937,-0.353547,0.890516,0.842464
41765025429,-0.352108,0.890733,0.843847
41765046524,-0.349557,0.891143,0.845348
41765069046,-0.347448,0.891947,0.847256
41765085414,-0.345645,0.892138,0.849085
41765106476,-0.341987,0.892025,0.851457
41765129024,-0.335999,0.891718,0.854657
41765145452,-0.330713,0.891987,0.858434
41765166544,-0.326986,0.892258,0.861608
41765188989,-0.322336,0.892276,0.864276
41765205438,-0.31586,0.892148,0.867928
41765226567,-0.308953,0.892784,0.872309
41765249007,-0.301157,0.894605,0.876844
41765265478,-0.290899,0.896762,0.880634
41765286459,-0.276928,0.898926,0.885906
41765308949,-0.26328,0.902232,0.891821
41765325380,-0.252361,0.90429,0.898086
41765346405,-0.24323,0.90458,0.904299
41765368947,-0.233189,0.903984,0.910688
41765386861,-0.22209,0.904117,0.917943
41765406413,-0.209914,0.905438,0.927438
41765428975,-0.198446,0.906825,0.937012
41765445449,-0.185334,0.907759,0.94715
41765466478,-0.170417,0.907723,0.957148
41765489040,-0.152435,0.907893,0.96991
41765505500,-0.135011,0.908943,0.984263
41765526588,-0.118835,0.910127,0.998719
41765549019,-0.100577,0.910428,1.01393
41765565463,-0.0754954,0.909966,1.03288
41765586524,-0.0435388,0.909898,1.05852
41765608941,-0.00736968,0.910175,1.09038
41765625443,0.0258132,0.911252,1.12456
41765646496,0.0592716,0.911419,1.1608
41765669012,0.0989801,0.909395,1.20146
41765685428,0.147365,0.905834,1.24851
41765706531,0.198762,0.900902,1.29937
41765728979,0.254266,0.894824,1.35427
41765745392,0.312568,0.885733,1.41069
41765766497,0.375166,0.873176,1.47044
41765788961,0.439328,0.857586,1.53368
41765805402,0.501484,0.838756,1.597
41765826445,0.562192,0.815419,1.65772
41765849077,0.625255,0.787466,1.71655
41765865448,0.68878,0.755312,1.77393
41765888125,0.745568,0.720785,1.82889
41765908917,0.794632,0.68452,1.87974
41765925378,0.839552,0.646472,1.92798
41765947897,0.877357,0.608596,1.97321
41765969013,0.906294,0.572398,2.01296
41765992931,0.932284,0.536306,2.0462
41766007927,0.959519,0.500216,2.07541
41766029025,0.983394,0.467646,2.10074
41766045499,0.999469,0.43925,2.12085
41766067917,1.01004,0.416766,2.13631
41766089052,1.0222,0.397042,2.15005
41766105412,1.03688,0.37765,2.16314
41766127936,1.05116,0.358337,2.17562
41766149101,1.06403,0.338038,2.18701
41766165427,1.07625,0.315633,2.1975
41766188066,1.08801,0.293841,2.20676
41766208992,1.09599,0.273474,2.21568
41766225443,1.09775,0.253664,2.22479
41766247970,1.09759,0.23406,2.23368
41766268928,1.09944,0.216637,2.24055
41766285431,1.10429,0.202753,2.24568
41766307907,1.11255,0.19103,2.25005
41766330457,1.12468,0.179854,2.25508
41766345512,1.13605,0.169012,2.26049
41766368010,1.14432,0.159682,2.2658
41766389075,1.14784,0.151806,2.27018
41766405413,1.1504,0.144117,2.27396
41766427936,1.15462,0.135602,2.27682
41766448991,1.15897,0.12873,2.27854
41766466920,1.15896,0.124843,2.27942
41766487985,1.1543,0.125253,2.2796
41766511918,1.14872,0.128011,2.27965
41766525476,1.14594,0.129959,2.27891
41766554734,1.14706,0.130073,2.27856
41766569719,1.14917,0.127699,2.27904
41766584678,1.14826,0.1242,2.28002
41766607139,1.14396,0.121594,2.28223
41766629710,1.13746,0.121494,2.28521
41766644740,1.1315,0.122422,2.28751
41766667202,1.13074,0.123372,2.28909
41766689710,1.13441,0.123514,2.29037
41766704623,1.13637,0.122835,2.2917
41766727219,1.13376,0.121936,2.29325
41766749675,1.12937,0.121874,2.29494
41766764666,1.12627,0.121966,2.29634
41766787257,1.1256,0.121414,2.2974
41766809750,1.127,0.120569,2.29857
41766824715,1.12933,0.119847,2.29944
41766847253,1.13084,0.118897,2.30035
41766869678,1.12933,0.118664,2.30105
41766886235,1.12691,0.119536,2.30079
41766907209,1.1269,0.120531,2.30045
41766930442,1.12828,0.120089,2.30026
41766944624,1.12897,0.118936,2.30058
41766967279,1.12886,0.117728,2.30117
41766989781,1.128,0.116854,2.30165
41767006151,1.12687,0.115992,2.30195
41767027268,1.12533,0.115288,2.30212
41767049682,1.124,0.114935,2.30214
41767066157,1.12315,0.114586,2.30232
41767087230,1.12209,0.114673,2.3026
41767109613,1.12208,0.115764,2.30287
41767126227,1.12374,0.116725,2.30278
41767147241,1.12617,0.117161,2.3027
41767169740,1.12771,0.117657,2.30283
41767186188,1.12756,0.117611,2.30276
41767207176,1.12708,0.118121,2.30262
41767229679,1.12678,0.118687,2.30225
41767246167,1.12645,0.118696,2.30151
41767267178,1.12559,0.118396,2.30085
41767289749,1.1246,0.11827,2.30058
41767306119,1.12341,0.118045,2.30052
41767327261,1.12341,0.118045,2.30052
41767357219,1.12423,0.11808,2.30035
41767366159,1.12488,0.118141,2.30026
41767388627,1.12488,0.118141,2.30026
41767409652,1.12414,0.118391,2.30031
41767426071,1.12328,0.118585,2.30007
41767447131,1.12283,0.11856,2.30003
41767469686,1.12239,0.118789,2.30004
41767486087,1.12234,0.118945,2.30002
41767507152,1.12219,0.119106,2.29965
41767529679,1.12174,0.119143,2.29955
41767546059,1.12174,0.119143,2.29955
41767567141,1.12159,0.119097,2.29947
41767590075,1.12153,0.119191,2.29951
41767607379,1.12154,0.119253,2.29945
41767628636,1.12154,0.119253,2.29945
41767649649,1.1208,0.119053,2.29942
41767666058,1.11977,0.118874,2.29944
41767687194,1.11913,0.118875,2.29947
41767709694,1.11898,0.118829,2.29939
41767725424,1.11856,0.119037,2.29951
41767747194,1.11741,0.119046,2.29961
41767769663,1.11578,0.11905,2.29956
41767785432,1.11534,0.118988,2.29885
41767807155,1.11986,0.117572,2.29572
41767829651,1.12631,0.115218,2.29233
41767845431,1.13317,0.11281,2.28813
41767867168,1.14113,0.111262,2.28198
41767889429,1.14575,0.112065,2.27627
41767905422,1.1437,0.114453,2.27303
41767934687,1.13732,0.11831,2.27101
41767949678,1.13541,0.125717,2.26765
41767965456,1.13601,0.136151,2.26247
41767988590,1.13493,0.14988,2.25631
41768009669,1.12933,0.167677,2.24966
41768033349,1.11974,0.190127,2.24118
41768048631,1.10877,0.216607,2.22965
41768069695,1.09701,0.245235,2.21615
41768085452,1.08218,0.277152,2.20063
41768108619,1.06373,0.312631,2.18269
41768129698,1.04277,0.350459,2.16224
41768145428,1.02117,0.389871,2.13896
41768168595,0.998603,0.432358,2.11213
41768189672,0.972749,0.477091,2.0807
41768205460,0.944435,0.52128,2.04622
41768228665,0.915564,0.563563,2.01064
41768249667,0.881755,0.605155,1.97277
41768265432,0.840418,0.646808,1.93156
41768288593,0.793871,0.686402,1.88748
41768311124,0.745233,0.721939,1.84064
41768325458,0.697156,0.752452,1.79241
41768348620,0.648512,0.779817,1.74369
41768369679,0.593165,0.805907,1.69287
41768385546,0.531524,0.829596,1.63954
41768408665,0.471445,0.848697,1.58667
41768429692,0.420169,0.861994,1.53652
41768445456,0.371591,0.872646,1.48881
41768468619,0.323029,0.881593,1.44078
41768489689,0.281891,0.886924,1.39678
41768505465,0.247811,0.889241,1.35783
41768528623,0.217599,0.888243,1.32211
41768549913,0.188874,0.88253,1.29009
41768565502,0.156163,0.889144,1.25731
41768596127,0.122682,0.879869,1.22915
41768609688,0.108729,0.874743,1.21118
41768625479,0.0872431,0.875644,1.18498
41768648575,0.0690419,0.874937,1.16178
41768669645,0.0544442,0.874101,1.14237
41768685486,0.0468065,0.872397,1.12863
41768707963,0.0409961,0.87107,1.11754
41768729753,0.0344938,0.870044,1.10721
41768745515,0.0243887,0.868988,1.09472
41768768024,0.0142632,0.867991,1.0836
41768789744,0.00464207,0.866499,1.07333
41768805452,-0.0029438,0.864595,1.06528
41768828001,-0.0118355,0.862778,1.05714
41768849702,-0.0227025,0.861222,1.0494
41768872185,-0.03126,0.860575,1.04413
41768887998,-0.0350422,0.860275,1.04285
41768911092,-0.0371704,0.859951,1.04287
41768925443,-0.0379408,0.859513,1.04352
41768947984,-0.0421746,0.860231,1.04118
41768971124,-0.0518739,0.861423,1.0349
41768985461,-0.0643604,0.862351,1.02585
41769007994,-0.0757845,0.86237,1.01658
41769031145,-0.0869942,0.86173,1.00834
41769045427,-0.0965092,0.860595,1.00223
41769067933,-0.104357,0.859345,0.997449
41769091144,-0.112972,0.857919,0.992187
41769112201,-0.12205,0.856539,0.987248
41769127974,-0.130747,0.854816,0.982434
41769151131,-0.140065,0.853315,0.977272
41769165481,-0.14963,0.851912,0.97205
41769187932,-0.158719,0.850844,0.967314
41769211161,-0.169693,0.850424,0.96237
41769232202,-0.176943,0.850078,0.960022
41769248110,-0.179905,0.850161,0.959398
41769271183,-0.182958,0.850949,0.957975
41769292153,-0.18927,0.851361,0.954951
41769307960,-0.198068,0.851848,0.950286
41769331175,-0.207983,0.852963,0.945275
41769352278,-0.216501,0.854852,0.940952
41769368071,-0.224065,0.856981,0.937198
41769391253,-0.231512,0.859309,0.932998
41769412309,-0.237432,0.86157,0.929759
41769428052,-0.242553,0.864266,0.928253
41769451209,-0.248384,0.867251,0.92692
41769472278,-0.254986,0.87025,0.924394
41769488066,-0.261168,0.873065,0.922013
41769517221,-0.267201,0.875499,0.919698
41769532239,-0.27383,0.877283,0.917498
41769547986,-0.279513,0.878131,0.915389
41769571234,-0.282552,0.878452,0.914166
41769592300,-0.284734,0.878715,0.913695
41769608075,-0.28705,0.878842,0.914213
41769630496,-0.288287,0.878907,0.914969
41769652287,-0.286216,0.878804,0.916574
41769668003,-0.284161,0.878722,0.917401
41769690562,-0.284287,0.878956,0.917426
41769712213,-0.284687,0.879654,0.917142
41769728041,-0.283825,0.880177,0.917048
41769750544,-0.281764,0.880888,0.918014
41769772329,-0.278345,0.881973,0.920458
41769787983,-0.273376,0.88316,0.923893
41769810478,-0.26603,0.884193,0.928856
41769833632,-0.255092,0.885685,0.935757
41769847962,-0.238987,0.888143,0.945923
41769870464,-0.215783,0.890505,0.959212
41769893621,-0.189207,0.890975,0.971129
41769914802,-0.162034,0.890559,0.979417
41769930462,-0.136296,0.891147,0.987546
41769953742,-0.115826,0.893568,0.995086
41769968034,-0.102685,0.898361,0.999939
41769990543,-0.0924052,0.903212,1.00382
41770013674,-0.077509,0.90705,1.00968
41770028047,-0.0556895,0.910027,1.01916
41770050558,-0.0303289,0.913122,1.03134
41770073789,-0.00370556,0.91592,1.04526
41770094755,0.0280554,0.917998,1.06134
41770110545,0.0649235,0.921059,1.08045
41770133636,0.103667,0.925211,1.10439
41770154787,0.140094,0.930671,1.13038
41770170528,0.177091,0.936497,1.15939
41770193801,0.217103,0.941334,1.19225
41770214781,0.259048,0.945506,1.22912
41770230588,0.299794,0.949105,1.2694
41770253732,0.338864,0.951063,1.31163
41770274726,0.382663,0.949829,1.35848
41770290537,0.432843,0.946067,1.41128
41770313762,0.484585,0.939317,1.46582
41770334842,0.533737,0.93042,1.52002
41770350579,0.584924,0.918054,1.57511
41770373673,0.639531,0.901555,1.62974
41770386595,0.696784,0.881697,1.68549
41770409758,0.751561,0.858292,1.74151
41770424130,0.800481,0.832799,1.79429
41770446616,0.845483,0.805389,1.84284
41770469743,0.888199,0.775335,1.88922
41770484150,0.93098,0.742239,1.93421
41770506583,0.971995,0.707276,1.97663
41770529813,1.00675,0.672714,2.01501
41770544035,1.03453,0.638586,2.05022
41770566634,1.06109,0.602732,2.08262
41770589736,1.09072,0.565717,2.11217
41770604051,1.11762,0.531948,2.1378
41770626533,1.13704,0.501541,2.16001
41770649733,1.15247,0.474666,2.17883
41770672252,1.17157,0.447649,2.1963
41770686572,1.1946,0.419493,2.21261
41770709721,1.21378,0.392843,2.22678
41770724119,1.22292,0.368887,2.23896
41770746607,1.22771,0.345319,2.24962
41770770269,1.23424,0.319858,2.25962
41770784106,1.24155,0.294675,2.26869
41770806557,1.24399,0.273235,2.27721
41770829789,1.24278,0.255126,2.28431
41770844027,1.2461,0.238711,2.29092
41770866636,1.25511,0.223036,2.2969
41770889827,1.26396,0.209245,2.30241
41770904192,1.26759,0.199223,2.30699
41770926653,1.26941,0.190838,2.31079
41770949832,1.27195,0.181933,2.31437
41770964156,1.27312,0.172953,2.31739
41770986700,1.27234,0.165576,2.31956
41771009835,1.27225,0.16105,2.32144
41771024127,1.27674,0.158138,2.32302
41771046657,1.28315,0.156428,2.32463
41771069869,1.28442,0.157345,2.32635
41771084143,1.28179,0.159663,2.32783
41771106609,1.28247,0.160898,2.32879
41771129807,1.28704,0.159347,2.32919
41771144102,1.28992,0.156313,2.32987
41771175394,1.28654,0.15405,2.33179
41771189767,1.28054,0.153597,2.33459
41771204100,1.27479,0.153998,2.33733
41771226609,1.27151,0.155307,2.33914
41771249757,1.27175,0.156135,2.34031
41771264167,1.273,0.155955,2.34177
41771286648,1.2728,0.155406,2.34344
41771309793,1.27072,0.155822,2.34435
41771324176,1.2673,0.157191,2.34388
41771346649,1.26367,0.157991,2.34224
41771369846,1.25754,0.156985,2.3397
41771384209,1.24771,0.154936,2.33688
41771406631,1.23789,0.152416,2.33423
41771429819,1.23017,0.150101,2.33241
41771444142,1.22438,0.148252,2.33096
41771466602,1.21899,0.147116,2.32973
41771489808,1.21472,0.146256,2.32876
41771504175,1.21092,0.145566,2.32764
41771526660,1.20657,0.146114,2.32621
41771549807,1.20381,0.147152,2.32423
41771564251,1.20296,0.147472,2.32229
41771586699,1.20179,0.146815,2.32132
41771609118,1.19781,0.14687,2.32124
41771624269,1.1922,0.147837,2.32103
41771646568,1.18911,0.148951,2.32021
41771669731,1.18983,0.14914,2.31981
41771684081,1.18929,0.149298,2.31963
41771706529,1.18692,0.150211,2.31925
41771729101,1.1844,0.15126,2.31892
41771744052,1.18277,0.151937,2.3184
41771766710,1.18192,0.151632,2.31758
41771789172,1.18072,0.151225,2.31712
41771804162,1.17888,0.151072,2.31673
41771826668,1.17701,0.150772,2.31679
41771849143,1.17594,0.150769,2.3172
41771864120,1.17285,0.150809,2.31774
41771886637,1.1686,0.15093,2.31829
41771909193,1.16575,0.151115,2.319
41771924221,1.16432,0.151957,2.31954
41771946674,1.16588,0.15257,2.32014
41771969132,1.16884,0.153206,2.32133
41771984151,1.1697,0.154087,2.32243
41772006821,1.16939,0.154713,2.32363
41772029143,1.16868,0.155307,2.32434
41772044172,1.16736,0.155903,2.32485
41772066659,1.16491,0.156186,2.325
41772089243,1.16362,0.156269,2.32495
41772104152,1.16436,0.155945,2.32498
41772126760,1.16493,0.155779,2.32495
41772149215,1.16645,0.155943,2.32436
41772164121,1.16837,0.155819,2.32404
41772186681,1.17278,0.155192,2.32366
41772209173,1.17751,0.154528,2.32358
41772224190,1.18025,0.155169,2.3234
41772246724,1.18185,0.155767,2.32182
41772269146,1.1835,0.155823,2.32011
41772284198,1.18386,0.156865,2.31952
41772306696,1.18219,0.161604,2.32014
41772329212,1.18041,0.168676,2.32187
41772344174,1.17898,0.175836,2.3251
41772366710,1.17708,0.182084,2.3283
41772389187,1.17658,0.187975,2.33118
41772405677,1.17535,0.195016,2.33417
41772426699,1.17403,0.201936,2.33724
41772449147,1.1719,0.208042,2.34023
41772465668,1.16765,0.213728,2.34236
41772486777,1.16147,0.219499,2.34404
41772509240,1.15489,0.225713,2.34639
41772525553,1.14999,0.230963,2.34998
41772546697,1.1482,0.23588,2.35437
41772569217,1.14842,0.241698,2.35913
41772585654,1.15026,0.24787,2.36444
41772606678,1.15156,0.252578,2.37063
41772629218,1.15154,0.255223,2.37733
41772645580,1.15091,0.256306,2.38434
41772666623,1.15195,0.256923,2.39227
41772689165,1.15639,0.256938,2.40062
41772705633,1.16199,0.255834,2.40935
41772726695,1.1654,0.253198,2.41807
41772749165,1.16819,0.249387,2.42726
41772765644,1.17102,0.245969,2.43735
41772786699,1.17417,0.243425,2.4484
41772809235,1.17872,0.240051,2.4598
41772825642,1.18634,0.234574,2.47124
41772846710,1.19422,0.227421,2.48218
41772869236,1.20097,0.220071,2.49196
41772885519,1.20647,0.21348,2.50202
41772906633,1.21097,0.208076,2.51345
41772929216,1.21538,0.20293,2.52633
41772945695,1.2207,0.197143,2.54044
41772966635,1.22654,0.191401,2.55527
41772989214,1.23238,0.183572,2.56757
41773005637,1.24062,0.172636,2.57858
41773026561,1.2488,0.160435,2.5907
41773049068,1.25162,0.148349,2.60407
41773065554,1.25233,0.13736,2.61767
41773086541,1.25435,0.127615,2.6297
41773109147,1.25782,0.118118,2.63964
41773125622,1.26217,0.107449,2.64811
41773146648,1.26636,0.0957237,2.65577
41773169174,1.26747,0.0841845,2.66341
41773185597,1.26422,0.0741183,2.67085
41773206782,1.25737,0.0648749,2.67676
41773229224,1.25176,0.0541483,2.68107
41773245661,1.24897,0.042096,2.68503
41773266659,1.2486,0.0306491,2.68883
41773289132,1.2486,0.020803,2.69284
41773313030,1.2503,0.0124783,2.69684
41773326594,1.2545,0.00429942,2.70028
41773349236,1.25994,-0.00358457,2.70346
41773365587,1.26392,-0.0102603,2.70697
41773386607,1.2654,-0.0152934,2.71047
41773409141,1.26612,-0.0190654,2.71393
41773425672,1.26771,-0.0222609,2.71705
41773448147,1.27103,-0.0251044,2.71955
41773469216,1.273,-0.0281071,2.72099
41773485573,1.27368,-0.0310219,2.72093
41773508130,1.27322,-0.0339812,2.72015
41773529190,1.27348,-0.0365903,2.71848
41773545620,1.27403,-0.0383065,2.7159
41773568117,1.27393,-0.0393598,2.71265
41773589148,1.27322,-0.0395327,2.70909
41773605587,1.27343,-0.0389638,2.7054
41773628122,1.27334,-0.0376338,2.70082
41773649122,1.27278,-0.0360236,2.69595
41773681314,1.27134,-0.0337156,2.68985
41773688107,1.26808,-0.0304656,2.68234
41773709256,1.26155,-0.0259265,2.67131
41773725640,1.25207,-0.0192642,2.65519
41773748159,1.23705,-0.0108853,2.63306
41773769245,1.21607,-0.00275734,2.60549
41773785692,1.19301,0.00549279,2.57568
41773808184,1.1688,0.0160044,2.54617
41773829172,1.14028,0.0280715,2.51623
41773845648,1.10393,0.0380771,2.48413
41773868148,1.06603,0.0471371,2.45005
41773889192,1.02984,0.0561218,2.41508
41773905649,0.997203,0.0657564,2.3774
41773928079,0.965389,0.0750784,2.33797
41773949150,0.935085,0.0826678,2.29695
41773965705,0.9079,0.0879226,2.25478
41773988106,0.88236,0.0918379,2.21135
41774009210,0.853278,0.0936678,2.16709
41774025645,0.822791,0.0936227,2.1212
41774048115,0.79544,0.0924761,2.07488
41774069219,0.771166,0.0897639,2.02982
41774085642,0.745048,0.0838803,1.98464
41774108124,0.715218,0.0746492,1.93857
41774129236,0.684688,0.063824,1.89377
41774145675,0.659709,0.0521968,1.85215
41774168170,0.640219,0.0392729,1.81419
41774189202,0.623519,0.02414,1.77937
41774204899,0.605782,0.00723648,1.74745
41774227414,0.587201,-0.00869059,1.71788
41774249784,0.570415,-0.0229689,1.69091
41774264832,0.558645,-0.0348519,1.66545
41774287323,0.548901,-0.0459794,1.64105
41774309861,0.53777,-0.056916,1.61885
41774324797,0.523939,-0.0662421,1.59892
41774347369,0.512828,-0.0734088,1.58059
41774369881,0.505959,-0.0800021,1.56332
41774384824,0.500401,-0.0868251,1.54865
41774407398,0.493125,-0.0934538,1.5367
41774429913,0.483378,-0.0990885,1.52712
41774444856,0.475963,-0.104198,1.51998
41774467401,0.472986,-0.109147,1.51481
41774489856,0.47101,-0.113654,1.51168
41774506319,0.465564,-0.117233,1.5087
41774527382,0.459307,-0.119879,1.50475
41774549928,0.456682,-0.122934,1.49961
41774566318,0.455678,-0.126191,1.49471
41774587335,0.45306,-0.129037,1.49018
41774609844,0.447523,-0.130837,1.48611
41774626311,0.442784,-0.132518,1.48187
41774647416,0.440361,-0.13442,1.47812
41774669891,0.439051,-0.136321,1.47488
41774686347,0.437647,-0.137661,1.47224
41774707308,0.435055,-0.138477,1.46987
41774729954,0.432023,-0.139426,1.46762
41774746264,0.429009,-0.140733,1.46531
41774767441,0.427682,-0.142141,1.46339
41774789924,0.427661,-0.143631,1.46162
41774806386,0.42696,-0.14442,1.46022
41774827296,0.425583,-0.145041,1.4591
41774849849,0.424278,-0.145611,1.45817
41774866225,0.423746,-0.146148,1.45769
41774887239,0.424118,-0.146073,1.4574
41774909804,0.425016,-0.145781,1.45705
41774926249,0.425633,-0.145235,1.45669
41774947303,0.425716,-0.145146,1.45672
41774969779,0.426265,-0.144512,1.45671
41774986258,0.427127,-0.143761,1.45677
41775007342,0.427099,-0.143566,1.45662
41775029817,0.427099,-0.143566,1.45662
41775046265,0.427713,-0.143467,1.45671
41775067449,0.428835,-0.14337,1.45686
41775089913,0.429493,-0.142904,1.45736
41775106309,0.429868,-0.142304,1.4575
41775127346,0.429951,-0.142215,1.45753
41775149916,0.42985,-0.142134,1.45752
41775166371,0.430099,-0.141868,1.4576
41775187528,0.430949,-0.141661,1.45756
41775209925,0.431055,-0.141561,1.4576
41775226295,0.430751,-0.141317,1.45759
41775247239,0.430732,-0.141147,1.45762
41775269865,0.43137,-0.141038,1.45772
41775286365,0.43279,-0.141098,1.45738
41775308938,0.43279,-0.141098,1.45738
41775329820,0.432527,-0.141012,1.45736
41775345683,0.432527,-0.141012,1.45736
41775367467,0.433686,-0.141255,1.45747
41775389951,0.434755,-0.141443,1.45775
41775405693,0.435844,-0.141738,1.45767
41775427384,0.436217,-0.142049,1.45749
41775449837,0.436079,-0.142421,1.45759
41775465702,0.436518,-0.142474,1.45746
41775488828,0.436499,-0.142304,1.45749
41775509898,0.435915,-0.142147,1.4571
41775525737,0.435607,-0.142427,1.45667
41775548874,0.435415,-0.142752,1.45609
41775569900,0.434619,-0.142751,1.45514
41775585727,0.433801,-0.142374,1.45407
41775608838,0.431786,-0.141806,1.45305
41775629832,0.430059,-0.141314,1.45207
41775645729,0.428649,-0.140119,1.45124
41775668873,0.427418,-0.138306,1.45035
41775689941,0.424333,-0.136428,1.45043
41775705707,0.421432,-0.13505,1.4513
41775728840,0.421486,-0.13438,1.45107
41775749901,0.42215,-0.134096,1.449
41775766203,0.418731,-0.132846,1.44522
41775788858,0.415632,-0.131313,1.44053
41775809864,0.414884,-0.130088,1.43525
41775825663,0.415068,-0.128848,1.42926
41775848842,0.41367,-0.126806,1.42239
41775869962,0.411532,-0.125205,1.41523
41775885684,0.409531,-0.123279,1.40684
41775908830,0.407884,-0.120918,1.39678
41775929948,0.406815,-0.118535,1.38586
41775945630,0.405492,-0.116787,1.37438
41775968819,0.404687,-0.115909,1.36207
41775991472,0.40193,-0.115142,1.3488
41776005733,0.397384,-0.114789,1.33502
41776028890,0.39382,-0.114417,1.32196
41776049909,0.393321,-0.114285,1.30937
41776065750,0.39297,-0.113698,1.29772
41776088843,0.390253,-0.1123,1.28619
41776109913,0.388544,-0.110305,1.27538
41776125703,0.388401,-0.108205,1.26555
41776148859,0.390378,-0.10665,1.25603
41776169718,0.392558,-0.106276,1.24637
41776185680,0.392927,-0.108041,1.23672
41776208868,0.391854,-0.111625,1.2268
41776229944,0.394582,-0.118037,1.21711
41776245681,0.397276,-0.123903,1.20735
41776268150,0.397739,-0.129303,1.19736
41776289914,0.397291,-0.134193,1.18803
41776305666,0.398224,-0.14,1.18007
41776328228,0.402347,-0.147569,1.17109
41776349889,0.401931,-0.156505,1.16244
41776365771,0.394108,-0.165351,1.1536
41776388211,0.38709,-0.175773,1.14488
41776409965,0.377215,-0.183555,1.14019
41776425783,0.367289,-0.189174,1.13736
41776448159,0.359716,-0.193128,1.13716
41776471333,0.359852,-0.193949,1.13962
41776485629,0.362511,-0.192165,1.14197
41776508150,0.362364,-0.189205,1.14475
41776531390,0.365258,-0.186459,1.14862
41776545689,0.369467,-0.184291,1.15306
41776568249,0.372199,-0.183076,1.15811
41776597435,0.37641,-0.182183,1.1629
41776605729,0.382123,-0.182235,1.16733
41776628217,0.38809,-0.182161,1.17165
41776651399,0.393636,-0.181379,1.1755
41776665702,0.39744,-0.179751,1.17879
41776688204,0.401121,-0.177631,1.18215
41776711270,0.405839,-0.175127,1.18535
41776725739,0.410388,-0.172645,1.18839
41776748215,0.414103,-0.169874,1.19149
41776771405,0.417435,-0.166772,1.19476
41776785704,0.421014,-0.163383,1.19814
41776808207,0.423753,-0.160491,1.20093
41776831371,0.425553,-0.1581,1.20359
41776845623,0.426496,-0.156074,1.20601
41776868254,0.427447,-0.154431,1.20803
41776891458,0.428999,-0.153195,1.20942
41776905775,0.430876,-0.152403,1.21063
41776928165,0.433076,-0.15177,1.21153
41776951382,0.435207,-0.151237,1.2124
41776972483,0.437538,-0.150855,1.21326
41776988230,0.439708,-0.150963,1.2142
41777011434,0.441832,-0.150878,1.21499
41777032441,0.444058,-0.150929,1.2161
41777048208,0.446167,-0.150673,1.21695
41777071322,0.447679,-0.150562,1.21755
41777092505,0.449297,-0.150282,1.21789
41777108178,0.450241,-0.149838,1.2182
41777131438,0.450753,-0.149168,1.21882
41777152482,0.451102,-0.14849,1.21928
41777168211,0.453467,-0.148282,1.2197
41777198889,0.455664,-0.148442,1.21954
41777212481,0.455664,-0.148442,1.21954
41777228205,0.456541,-0.147885,1.21973
41777250693,0.457757,-0.147283,1.21996
41777272469,0.458427,-0.146762,1.2201
41777288254,0.459337,-0.146345,1.22011
41777310723,0.460136,-0.145857,1.22011
41777332417,0.460547,-0.145716,1.22017
41777348148,0.461079,-0.14558,1.21993
41777370778,0.461583,-0.145494,1.21954
41777393921,0.462348,-0.145433,1.219
41777408214,0.462885,-0.145487,1.21843
41777430683,0.462229,-0.145687,1.218
41777453865,0.46174,-0.145685,1.21766
41777476404,0.461251,-0.145896,1.2174
41777490662,0.460993,-0.146275,1.21732
41777513778,0.460993,-0.146275,1.21732
41777528134,0.461764,-0.146548,1.21751
41777550664,0.462539,-0.146566,1.21772
41777573812,0.463187,-0.146337,1.21798
41777588158,0.463187,-0.146337,1.21798
41777610681,0.463187,-0.146337,1.21798
41777633827,0.463075,-0.146267,1.21798
41777648119,0.464104,-0.146161,1.21825
41777670621,0.46638,-0.146062,1.21863
41777693829,0.468853,-0.145712,1.21924
41777708190,0.471457,-0.145047,1.22055
41777730664,0.474401,-0.144252,1.22271
41777753845,0.476745,-0.142049,1.22618
41777774923,0.479378,-0.138267,1.23078
41777790714,0.485121,-0.13307,1.23713
41777813906,0.494249,-0.127665,1.24524
41777834943,0.504214,-0.121218,1.25555
41777850702,0.517136,-0.113408,1.26738
41777873929,0.536309,-0.104293,1.2809
41777894911,0.561695,-0.0947535,1.29833
41777910747,0.58832,-0.0836516,1.31865
41777933852,0.608015,-0.0722712,1.34261
41777954940,0.620144,-0.0608467,1.36924
41777970821,0.626569,-0.0489736,1.39972
41777993919,0.63772,-0.0369688,1.43134
41778014940,0.647802,-0.0259108,1.46514
41778029978,0.655329,-0.0197149,1.50011
41778044282,0.66767,-0.0215403,1.53445
41778066826,0.682326,-0.0264321,1.56823
41778089976,0.686398,-0.0310333,1.60073
41778104301,0.682928,-0.039605,1.63303
41778126820,0.683372,-0.0516998,1.66593
41778149966,0.690954,-0.0679243,1.69791
41778164336,0.700415,-0.0848132,1.72712
41778186818,0.705654,-0.101751,1.75701
41778210015,0.708075,-0.118743,1.78805
41778224301,0.71267,-0.134543,1.81886
41778246796,0.718132,-0.14763,1.84896
41778270013,0.726655,-0.157702,1.87933
41778284300,0.7403,-0.164872,1.90539
41778306784,0.754798,-0.170427,1.93003
41778329924,0.765353,-0.173681,1.95342
41778345781,0.772158,-0.175515,1.97834
41778366807,0.778468,-0.178383,2.00453
41778390034,0.784053,-0.182314,2.02908
41778404292,0.788254,-0.185586,2.05173
41778426805,0.793508,-0.188997,2.07337
41778449981,0.802681,-0.193837,2.09489
41778464323,0.813203,-0.199092,2.11377
41778486788,0.822381,-0.205234,2.12961
41778509948,0.828912,-0.21164,2.14342
41778524292,0.831916,-0.217819,2.15505
41778546882,0.83262,-0.222727,2.16447
41778569958,0.83543,-0.226806,2.1708
41778584287,0.840382,-0.230575,2.17459
41778606859,0.845107,-0.232834,2.17699
41778630024,0.848665,-0.234281,2.17906
41778644290,0.8511,-0.235316,2.18144
41778666760,0.852509,-0.237145,2.18415
41778689999,0.853202,-0.239415,2.18787
41778704339,0.856273,-0.242777,2.19241
41778726909,0.862641,-0.247411,2.19769
41778750585,0.870696,-0.252344,2.2028
41778764329,0.878637,-0.256427,2.20668
41778786797,0.880175,-0.257859,2.20989
41778810029,0.878339,-0.255316,2.21157
41778824245,0.875815,-0.251215,2.2129
41778854751,0.879815,-0.247385,2.21146
41778870101,0.88765,-0.242571,2.20748
41778884344,0.893357,-0.235201,2.20085
41778906825,0.895388,-0.223966,2.19092
41778929928,0.897735,-0.210613,2.17664
41778944332,0.901231,-0.196382,2.15866
41778966829,0.901509,-0.18174,2.13816
41778989927,0.896269,-0.166241,2.11605
41779004309,0.88854,-0.150257,2.09319
41779026745,0.881955,-0.135474,2.07085
41779049974,0.877934,-0.122136,2.04952
41779064335,0.872313,-0.110021,2.02784
41779086815,0.864856,-0.0988176,2.00543
41779111439,0.856544,-0.089411,1.98291
41779124321,0.846766,-0.0842987,1.96077
41779146764,0.83654,-0.0821432,1.93963
41779178118,0.826727,-0.0813963,1.91946
41779184311,0.816777,-0.0807943,1.90111
41779206882,0.808934,-0.0813052,1.88411
41779229918,0.8034,-0.0842192,1.86768
41779252478,0.799642,-0.0896844,1.85159
41779266741,0.797423,-0.0975242,1.83806
41779289404,0.796045,-0.108812,1.82853
41779304332,0.792764,-0.122418,1.82227
41779326809,0.78854,-0.13531,1.81598
41779349243,0.788441,-0.147114,1.80946
41779364193,0.795768,-0.157859,1.80511
41779386746,0.808803,-0.167201,1.80167
41779409357,0.820069,-0.175651,1.79612
41779424265,0.823179,-0.184249,1.78928
41779446828,0.816704,-0.190227,1.78202
41779469293,0.807071,-0.194065,1.77589
41779484328,0.800513,-0.196987,1.76935
41779506781,0.797329,-0.200853,1.76341
41779530742,0.795624,-0.205482,1.75885
41779544316,0.792119,-0.21033,1.7558
41779566838,0.785473,-0.215566,1.75364
41779589309,0.777095,-0.220156,1.75332
41779604351,0.76967,-0.223537,1.75441
41779626812,0.766988,-0.225548,1.75497
41779650774,0.768889,-0.227774,1.75335
41779664337,0.770535,-0.23076,1.75007
41779686773,0.766813,-0.233705,1.7469
41779709387,0.760104,-0.23626,1.74431
41779724238,0.755975,-0.238244,1.7426
41779746793,0.755655,-0.239591,1.74086
41779778142,0.75688,-0.241177,1.73934
41779784297,0.756736,-0.243031,1.73794
41779806792,0.754982,-0.244813,1.73721
41779829361,0.753326,-0.246055,1.73736
41779844292,0.754753,-0.246557,1.73758
41779866857,0.757425,-0.246058,1.73848
41779889323,0.759568,-0.245351,1.73903
41779904325,0.759628,-0.244601,1.73969
41779926816,0.758545,-0.243789,1.74059
41779949359,0.758578,-0.242847,1.74172
41779964374,0.760499,-0.241647,1.74297
41779986788,0.763404,-0.240343,1.74416
41780009281,0.765276,-0.239276,1.74454
41780024309,0.764933,-0.238665,1.74457
41780046787,0.762567,-0.238243,1.74448
41780069382,0.76087,-0.2381,1.74472
41780085776,0.76088,-0.237653,1.74504
41780106812,0.762366,-0.237394,1.74526
41780129342,0.763569,-0.237157,1.74538
41780145733,0.763676,-0.23725,1.74537
41780166893,0.762893,-0.237283,1.74572
41780189401,0.762686,-0.237043,1.74613
41780205769,0.763732,-0.236407,1.74628
41780226845,0.764817,-0.235677,1.74622
41780249287,0.764611,-0.235263,1.7461
41780265797,0.76379,-0.235083,1.74623
41780288241,0.763684,-0.234991,1.74623
41780309358,0.764646,-0.234465,1.7465
41780325755,0.765577,-0.233805,1.74684
41780346899,0.766253,-0.233139,1.74706
41780369313,0.766158,-0.232601,1.74739
41780385797,0.765845,-0.232108,1.74786
41780406907,0.765932,-0.231619,1.74824
41780429365,0.766315,-0.231041,1.74854
41780445772,0.766315,-0.231041,1.74854
41780466852,0.765941,-0.230848,1.74867
41780489326,0.765257,-0.231027,1.7486
41780505827,0.765257,-0.231027,1.7486
41780526868,0.765257,-0.231027,1.7486
41780549405,0.764992,-0.231088,1.74866
41780565772,0.764488,-0.231154,1.7487
41780586857,0.764488,-0.231154,1.7487
41780609336,0.764592,-0.231084,1.74875
41780625769,0.764621,-0.231057,1.74873
41780646878,0.763653,-0.231257,1.74856
41780669409,0.762431,-0.231613,1.74822
41780685698,0.761963,-0.232139,1.74809
41780706913,0.761939,-0.23249,1.74801
41780729370,0.762042,-0.23242,1.74805
41780745705,0.762146,-0.23235,1.7481
41780766814,0.761314,-0.232616,1.74791
41780789283,0.760738,-0.232888,1.74784
41780805773,0.761461,-0.233083,1.74806
41780826836,0.762744,-0.23313,1.74815
41780849398,0.763417,-0.233018,1.7484
41780865814,0.763501,-0.232908,1.74827
41780886859,0.763311,-0.232926,1.7484
41780909334,0.76334,-0.232899,1.74839
41780925814,0.764173,-0.232633,1.74858
41780946749,0.765015,-0.232301,1.74859
41780969428,0.765015,-0.232301,1.74859
41780985689,0.76468,-0.232014,1.7485
41781008189,0.76385,-0.231725,1.74828
41781029228,0.763126,-0.231529,1.74805
41781045697,0.762299,-0.231403,1.74777
41781068256,0.761854,-0.231404,1.74719
41781089315,0.761343,-0.231393,1.74695
41781105717,0.760317,-0.231353,1.74699
41781128189,0.760862,-0.230945,1.74713
41781149277,0.762412,-0.230244,1.74724
41781171891,0.762977,-0.229703,1.74701
41781188254,0.762849,-0.229276,1.74702
41781209411,0.761968,-0.228825,1.74728
41781225802,0.762341,-0.228314,1.74777
41781248347,0.76358,-0.227661,1.74779
41781269275,0.764299,-0.227225,1.74771
41781285794,0.763544,-0.226895,1.74755
41781308251,0.762633,-0.226879,1.7474
41781329305,0.762633,-0.226879,1.7474
41781345836,0.762527,-0.226787,1.7474
41781368329,0.76228,-0.226714,1.74709
41781389402,0.761415,-0.226683,1.74702
41781405756,0.761415,-0.226683,1.74702
41781428329,0.761919,-0.226617,1.74698
41781449397,0.762612,-0.226532,1.74681
41781465768,0.762554,-0.226279,1.74643
41781488283,0.761804,-0.226274,1.74617
41781509333,0.761214,-0.226288,1.74638
41781525735,0.76149,-0.226333,1.74667
41781548279,0.762313,-0.226134,1.74705
41781569337,0.763146,-0.225868,1.74724
41781585735,0.763531,-0.225453,1.74749
41781608287,0.763531,-0.225453,1.74749
41781629388,0.763531,-0.225453,1.74749
41781645783,0.763425,-0.225361,1.7475
41781668301,0.763425,-0.225361,1.7475
41781689452,0.763425,-0.225361,1.7475
41781705727,0.763425,-0.225361,1.7475
41781728271,0.763167,-0.225193,1.74743
41781749412,0.762784,-0.224893,1.7472
41781765831,0.762784,-0.224893,1.7472
41781788306,0.762917,-0.224796,1.74723
41781809418,0.762917,-0.224796,1.74723
41781825787,0.762917,-0.224796,1.74723
41781848336,0.762917,-0.224796,1.74723
41781870036,0.762811,-0.224704,1.74723
41781885031,0.762811,-0.224704,1.74723
41781907575,0.762706,-0.224612,1.74724
41781929962,0.761915,-0.224231,1.74681
