timestamp,x,y,z,w
41618577179,-0.262756,-0.451294,-0.77417,-0.357788
41618598498,-0.26239,-0.451599,-0.774109,-0.357849
41618622143,-0.26239,-0.452637,-0.773499,-0.357849
41618637120,-0.262634,-0.454224,-0.772461,-0.357971
41618658474,-0.262878,-0.456177,-0.771118,-0.358093
41618682222,-0.263,-0.457581,-0.770203,-0.358276
41618721120,-0.263184,-0.458374,-0.769592,-0.358398
41618722762,-0.263306,-0.458374,-0.769531,-0.358521
41618742785,-0.263367,-0.457825,-0.769714,-0.358765
41618759857,-0.263611,-0.457458,-0.769714,-0.35907
41618778456,-0.264099,-0.457336,-0.769592,-0.35907
41618802081,-0.264343,-0.456665,-0.77002,-0.358948
41618831432,-0.264648,-0.455566,-0.77063,-0.358704
41618841895,-0.265259,-0.454529,-0.771179,-0.358459
41618861462,-0.266113,-0.453308,-0.771851,-0.357849
41618875809,-0.266785,-0.451782,-0.772949,-0.356873
41618899019,-0.26709,-0.449768,-0.774414,-0.356018
41618921491,-0.266968,-0.44751,-0.776123,-0.355286
41618935801,-0.266602,-0.445496,-0.777649,-0.354797
41618958978,-0.266113,-0.444092,-0.778809,-0.354248
41618981490,-0.265259,-0.443176,-0.779846,-0.353821
41618995836,-0.26416,-0.4422,-0.780945,-0.353455
41619019020,-0.263062,-0.441223,-0.781982,-0.35321
41619041529,-0.262085,-0.440491,-0.782776,-0.353088
41619055850,-0.261536,-0.440308,-0.783081,-0.352966
41619078957,-0.261536,-0.440613,-0.783081,-0.352661
41619101512,-0.261597,-0.440979,-0.78302,-0.352356
41619115820,-0.26178,-0.441284,-0.782837,-0.352234
41619146552,-0.262634,-0.441833,-0.782349,-0.35199
41619161514,-0.263123,-0.442566,-0.78186,-0.351624
41619184009,-0.263855,-0.445068,-0.780762,-0.350464
41619198934,-0.264832,-0.449036,-0.779053,-0.348572
41619221609,-0.265442,-0.453003,-0.777344,-0.34668
41619244097,-0.265503,-0.456299,-0.776001,-0.345276
41619258275,-0.265137,-0.458557,-0.775208,-0.344421
41619281564,-0.264832,-0.460144,-0.774597,-0.343811
41619304008,-0.264404,-0.46167,-0.77417,-0.34314
41619318300,-0.264099,-0.464355,-0.773254,-0.341919
41619341487,-0.263672,-0.468262,-0.771851,-0.339966
41619363978,-0.263123,-0.472534,-0.770386,-0.337769
41619378394,-0.262451,-0.476257,-0.769226,-0.335754
41619401515,-0.261841,-0.47937,-0.76825,-0.333923
41619424078,-0.261536,-0.482239,-0.767273,-0.332336
41619438368,-0.261475,-0.48468,-0.766235,-0.331177
41619461549,-0.261536,-0.48645,-0.765442,-0.330383
41619484052,-0.261597,-0.487244,-0.765015,-0.330139
41619498488,-0.261902,-0.487793,-0.764648,-0.329895
41619521523,-0.262695,-0.489319,-0.763733,-0.329224
41619544116,-0.26355,-0.492188,-0.762146,-0.327881
41619558341,-0.264282,-0.496094,-0.760132,-0.326111
41619581456,-0.264771,-0.500244,-0.758118,-0.324097
41619603926,-0.265076,-0.504333,-0.756226,-0.32196
41619618282,-0.265381,-0.50824,-0.754395,-0.319824
41619641502,-0.265686,-0.511597,-0.752747,-0.317993
41619664017,-0.265808,-0.514404,-0.751404,-0.316589
41619678321,-0.265564,-0.516235,-0.750549,-0.315918
41619701538,-0.265076,-0.517273,-0.750122,-0.315552
41619723980,-0.264893,-0.518311,-0.749573,-0.315369
41619738389,-0.264954,-0.519714,-0.74884,-0.314758
41619761592,-0.265015,-0.521729,-0.747925,-0.313477
41619784058,-0.264954,-0.524597,-0.746582,-0.31189
41619798467,-0.264893,-0.528198,-0.744873,-0.310059
41619820850,-0.264832,-0.531921,-0.742981,-0.308289
41619843341,-0.264832,-0.535583,-0.741028,-0.30658
41619858315,-0.264832,-0.538574,-0.739441,-0.305115
41619880961,-0.264771,-0.54071,-0.738281,-0.30426
41619903451,-0.264587,-0.541748,-0.73761,-0.304138
41619918523,-0.264404,-0.541626,-0.73761,-0.304565
41619940788,-0.264099,-0.540771,-0.738037,-0.305237
41619957236,-0.263977,-0.540161,-0.738342,-0.305847
41619978315,-0.264221,-0.540039,-0.738159,-0.306274
41620000833,-0.264648,-0.540222,-0.737793,-0.306458
41620017275,-0.265137,-0.540527,-0.737366,-0.306519
41620046573,-0.265625,-0.541138,-0.736755,-0.306458
41620060907,-0.265686,-0.541626,-0.736328,-0.306519
41620077338,-0.265503,-0.541626,-0.736267,-0.306885
41620098392,-0.265259,-0.541443,-0.736328,-0.307312
41620120949,-0.265198,-0.541504,-0.736206,-0.307556
41620137330,-0.26532,-0.541931,-0.73584,-0.307434
41620158413,-0.265808,-0.542908,-0.735107,-0.30719
41620180887,-0.266541,-0.544067,-0.734131,-0.306702
41620197328,-0.266968,-0.544678,-0.733643,-0.306458
41620218457,-0.266968,-0.544739,-0.733582,-0.306458
41620240866,-0.266907,-0.544495,-0.733704,-0.306763
41620257218,-0.266846,-0.543762,-0.734009,-0.307312
41620278356,-0.266785,-0.542786,-0.734619,-0.307739
41620300822,-0.266663,-0.541748,-0.735291,-0.307983
41620317238,-0.266541,-0.540894,-0.735962,-0.308105
41620339872,-0.266602,-0.540466,-0.736267,-0.308044
41620360931,-0.266907,-0.540527,-0.736084,-0.307983
41620377349,-0.267334,-0.540894,-0.735657,-0.307983
41620398343,-0.267822,-0.54126,-0.735168,-0.308105
41620420845,-0.26825,-0.541443,-0.734863,-0.308228
41620437376,-0.268494,-0.541382,-0.734802,-0.308289
41620458480,-0.268494,-0.541382,-0.734802,-0.308289
41620480989,-0.268494,-0.541382,-0.734802,-0.308289
41620497444,-0.268433,-0.541199,-0.734924,-0.308289
41620519883,-0.268311,-0.540955,-0.735107,-0.30835
41620542306,-0.26825,-0.54071,-0.735291,-0.308411
41620557443,-0.26825,-0.540649,-0.735291,-0.308472
41620581317,-0.26825,-0.540649,-0.735352,-0.308472
41620600985,-0.268372,-0.540833,-0.735168,-0.308411
41620617312,-0.268372,-0.540833,-0.735168,-0.308411
41620639881,-0.268372,-0.540833,-0.735168,-0.308411
41620660991,-0.26825,-0.540588,-0.735352,-0.308472
41620677437,-0.268188,-0.540344,-0.735535,-0.308533
41620699843,-0.268127,-0.540039,-0.735718,-0.308716
41620720942,-0.268066,-0.540039,-0.735718,-0.308716
41620737458,-0.268188,-0.540283,-0.735474,-0.308777
41620759867,-0.268372,-0.540466,-0.735291,-0.308716
41620780924,-0.268372,-0.540466,-0.735291,-0.308716
41620797467,-0.268433,-0.540283,-0.735474,-0.308716
41620819833,-0.268433,-0.540039,-0.735596,-0.308777
41620840913,-0.268433,-0.539978,-0.735596,-0.308777
41620857318,-0.268372,-0.539978,-0.735657,-0.308777
41620879895,-0.268616,-0.5401,-0.735474,-0.308777
41620900964,-0.26886,-0.540283,-0.735229,-0.308777
41620917298,-0.268982,-0.540405,-0.735107,-0.308777
41620939761,-0.268982,-0.540405,-0.735107,-0.308777
41620960828,-0.268982,-0.540466,-0.735046,-0.308777
41620977294,-0.269104,-0.54071,-0.734863,-0.308777
41620999742,-0.269104,-0.540955,-0.734619,-0.308777
41621020819,-0.269104,-0.54126,-0.734436,-0.308777
41621037267,-0.269043,-0.541382,-0.734375,-0.308777
41621059735,-0.268982,-0.541443,-0.734375,-0.308777
41621080822,-0.269043,-0.541748,-0.73407,-0.308777
41621097341,-0.269287,-0.542297,-0.733643,-0.308655
41621119878,-0.269531,-0.542725,-0.733337,-0.308533
41621140911,-0.269531,-0.542725,-0.733276,-0.308533
41621157438,-0.269409,-0.542236,-0.733643,-0.308655
41621179838,-0.269348,-0.541809,-0.733887,-0.308838
41621200874,-0.269531,-0.541565,-0.733948,-0.30896
41621217399,-0.269775,-0.541077,-0.734192,-0.309082
41621239867,-0.269775,-0.539917,-0.734863,-0.309387
41621260931,-0.269592,-0.53833,-0.735901,-0.309998
41621277443,-0.269348,-0.536499,-0.736877,-0.310974
41621299907,-0.269348,-0.534729,-0.737671,-0.312256
41621329147,-0.269531,-0.532532,-0.738525,-0.313721
41621343453,-0.269653,-0.529175,-0.740112,-0.315613
41621359824,-0.269409,-0.523865,-0.742737,-0.318542
41621380927,-0.26886,-0.516479,-0.746277,-0.322693
41621403404,-0.268311,-0.508423,-0.749878,-0.327576
41621419819,-0.268005,-0.500671,-0.753174,-0.332214
41621442261,-0.266724,-0.49115,-0.757263,-0.338135
41621464775,-0.264709,-0.480225,-0.761841,-0.344971
41621479769,-0.262085,-0.468994,-0.766541,-0.35199
41621502280,-0.259033,-0.459412,-0.769897,-0.359375
41621523417,-0.25592,-0.450317,-0.773132,-0.366211
41621539789,-0.253601,-0.442444,-0.775574,-0.372192
41621562334,-0.251648,-0.435791,-0.777466,-0.37738
41621583356,-0.250244,-0.430481,-0.778809,-0.381653
41621599862,-0.248962,-0.42511,-0.780212,-0.385681
41621622421,-0.247498,-0.419373,-0.781372,-0.390381
41621643487,-0.246094,-0.412781,-0.782776,-0.395447
41621659887,-0.24469,-0.406372,-0.783936,-0.400696
41621682438,-0.243286,-0.400513,-0.78479,-0.405701
41621703411,-0.242065,-0.395813,-0.785339,-0.409973
41621719885,-0.240906,-0.391113,-0.78595,-0.414001
41621742372,-0.239624,-0.385925,-0.786804,-0.41803
41621763360,-0.238647,-0.380798,-0.787415,-0.421997
41621779785,-0.238403,-0.376526,-0.787781,-0.425354
41621802282,-0.238586,-0.372803,-0.787964,-0.428101
41621823387,-0.23938,-0.369995,-0.787842,-0.43042
41621839888,-0.239502,-0.366394,-0.788208,-0.432739
41621862381,-0.239563,-0.363464,-0.788452,-0.434631
41621883486,-0.240234,-0.362732,-0.788086,-0.435547
41621899120,-0.24054,-0.361084,-0.788147,-0.436707
41621921587,-0.240295,-0.358582,-0.788208,-0.438782
41621944152,-0.240356,-0.356323,-0.788208,-0.440552
41621958995,-0.24115,-0.354919,-0.787903,-0.441895
41621981580,-0.241394,-0.353027,-0.788025,-0.442993
41622012183,-0.241394,-0.35144,-0.788269,-0.443848
41622018785,-0.241821,-0.350952,-0.788147,-0.444092
41622041521,-0.242554,-0.350708,-0.787903,-0.444397
41622072281,-0.242798,-0.349609,-0.787842,-0.44519
41622079134,-0.242737,-0.348267,-0.787964,-0.446167
41622101503,-0.242859,-0.347412,-0.787964,-0.446716
41622124113,-0.243103,-0.347046,-0.788025,-0.446777
41622139145,-0.243164,-0.346802,-0.788086,-0.446777
41622161590,-0.243164,-0.346497,-0.788208,-0.446838
41622184175,-0.243286,-0.346191,-0.78833,-0.446777
41622199097,-0.24353,-0.346069,-0.78833,-0.446716
41622221645,-0.243896,-0.346008,-0.788269,-0.446716
41622244153,-0.243958,-0.345764,-0.78833,-0.446716
41622259004,-0.243958,-0.34552,-0.78833,-0.446899
41622281647,-0.244202,-0.345154,-0.788269,-0.447144
41622304138,-0.244324,-0.344543,-0.788269,-0.447571
41622319083,-0.244629,-0.34375,-0.788391,-0.447876
41622341542,-0.245117,-0.342834,-0.788513,-0.44812
41622364036,-0.245911,-0.342163,-0.788513,-0.44812
41622379043,-0.246948,-0.342407,-0.788086,-0.44812
41622401544,-0.24762,-0.342041,-0.787903,-0.448303
41622424166,-0.247742,-0.34137,-0.788086,-0.448425
41622439793,-0.248047,-0.341125,-0.788208,-0.448242
41622461649,-0.248352,-0.341431,-0.788208,-0.447815
41622484090,-0.248962,-0.342468,-0.787964,-0.447144
41622499150,-0.249268,-0.34314,-0.787903,-0.446594
41622521617,-0.248718,-0.343018,-0.788147,-0.446594
41622537445,-0.24823,-0.342834,-0.78833,-0.446655
41622559141,-0.247803,-0.342529,-0.788574,-0.446777
41622581574,-0.247742,-0.342896,-0.788452,-0.446594
41622597415,-0.248047,-0.343872,-0.788208,-0.446167
41622620491,-0.247986,-0.34436,-0.788147,-0.445984
41622641583,-0.247498,-0.344238,-0.78833,-0.445984
41622657352,-0.247253,-0.344482,-0.788269,-0.446045
41622680466,-0.247131,-0.344788,-0.788269,-0.445923
41622701526,-0.246887,-0.345093,-0.788269,-0.44574
41622717465,-0.246948,-0.345581,-0.788269,-0.445374
41622740502,-0.246826,-0.345947,-0.78833,-0.445007
41622761639,-0.246765,-0.346375,-0.788269,-0.444824
41622777476,-0.246765,-0.346741,-0.788208,-0.444641
41622800605,-0.246826,-0.347168,-0.788086,-0.444458
41622821605,-0.246826,-0.347656,-0.787964,-0.444336
41622837394,-0.246826,-0.348022,-0.787903,-0.444214
41622860482,-0.246643,-0.348267,-0.787903,-0.444031
41622881642,-0.246399,-0.348511,-0.787903,-0.44397
41622897409,-0.246338,-0.348694,-0.787842,-0.44397
41622920514,-0.246338,-0.348877,-0.78772,-0.444031
41622941518,-0.246643,-0.349182,-0.787537,-0.444031
41622957339,-0.246948,-0.349426,-0.787354,-0.44397
41622980436,-0.247131,-0.349792,-0.787231,-0.443787
41623001522,-0.247192,-0.350098,-0.78717,-0.443665
41623017366,-0.247131,-0.350098,-0.78717,-0.443665
41623040499,-0.247131,-0.350098,-0.78717,-0.443665
41623061650,-0.247131,-0.350098,-0.78717,-0.443665
41623077440,-0.24707,-0.350403,-0.787109,-0.443604
41623100616,-0.247131,-0.35083,-0.786926,-0.443481
41623121591,-0.247131,-0.35083,-0.786926,-0.443481
41623137423,-0.247131,-0.351013,-0.786926,-0.44342
41623160586,-0.247253,-0.351135,-0.786865,-0.443298
41623181551,-0.247498,-0.35144,-0.786743,-0.443176
41623197431,-0.247803,-0.351624,-0.78656,-0.443115
41623220533,-0.24762,-0.351318,-0.786621,-0.443359
41623241529,-0.247437,-0.351196,-0.78656,-0.443665
41623257343,-0.247681,-0.35144,-0.786438,-0.443604
41623280502,-0.248047,-0.352051,-0.786194,-0.443359
41623301548,-0.248291,-0.352539,-0.786011,-0.443115
41623317370,-0.248291,-0.352539,-0.786011,-0.443115
41623339921,-0.24823,-0.352356,-0.786072,-0.443176
41623361632,-0.24823,-0.352356,-0.786072,-0.443176
41623377452,-0.24823,-0.3526,-0.786072,-0.443054
41623399952,-0.248291,-0.352783,-0.786011,-0.442932
41623421646,-0.248291,-0.352722,-0.786011,-0.442932
41623437492,-0.24823,-0.352722,-0.786011,-0.442993
41623459921,-0.24823,-0.352722,-0.786072,-0.442993
41623481590,-0.248352,-0.352722,-0.786011,-0.442932
41623497435,-0.248596,-0.352966,-0.78595,-0.44281
41623520381,-0.24884,-0.353333,-0.785828,-0.442505
41623543075,-0.24884,-0.353638,-0.785767,-0.442383
41623557436,-0.24884,-0.353577,-0.785767,-0.442383
41623579885,-0.24884,-0.353577,-0.785828,-0.442383
41623603422,-0.248779,-0.35376,-0.785828,-0.4422
41623617353,-0.24884,-0.354126,-0.785767,-0.441895
41623639848,-0.248901,-0.354553,-0.785706,-0.441711
41623662985,-0.248901,-0.354553,-0.785706,-0.441711
41623677423,-0.248657,-0.354309,-0.785767,-0.441956
41623699935,-0.248657,-0.354248,-0.785767,-0.442017
41623723128,-0.249023,-0.354492,-0.785645,-0.441833
41623737405,-0.24939,-0.35498,-0.7854,-0.44165
41623759920,-0.24939,-0.355042,-0.7854,-0.44165
41623783073,-0.249268,-0.354858,-0.785461,-0.441711
41623797428,-0.249023,-0.354675,-0.785522,-0.441833
41623819971,-0.248962,-0.354614,-0.785583,-0.441833
41623843107,-0.249084,-0.354858,-0.785522,-0.441711
41623864177,-0.249084,-0.354858,-0.785522,-0.441711
41623879886,-0.249084,-0.354858,-0.785522,-0.441711
41623902991,-0.249084,-0.354858,-0.785522,-0.441711
41623917361,-0.249207,-0.355103,-0.785461,-0.441528
41623939876,-0.24939,-0.35553,-0.7854,-0.441284
41623963000,-0.24939,-0.35553,-0.785339,-0.441284
41623977385,-0.249329,-0.35553,-0.785339,-0.441284
41623999892,-0.249268,-0.355652,-0.7854,-0.441223
41624023077,-0.249329,-0.355957,-0.785339,-0.440979
41624044140,-0.249451,-0.356384,-0.785278,-0.440674
41624059950,-0.249573,-0.356689,-0.785278,-0.440369
41624083080,-0.249512,-0.356995,-0.785278,-0.440186
41624104197,-0.249512,-0.356995,-0.785278,-0.440186
41624119912,-0.249512,-0.356934,-0.785278,-0.440186
41624143131,-0.249573,-0.357117,-0.785278,-0.440002
41624164070,-0.25,-0.35791,-0.785095,-0.439453
41624179886,-0.25061,-0.359192,-0.784851,-0.438477
41624203081,-0.251221,-0.360718,-0.784607,-0.437317
41624224178,-0.251892,-0.362488,-0.784363,-0.435913
41624239913,-0.252625,-0.364563,-0.784119,-0.434143
41624262406,-0.253662,-0.367065,-0.783997,-0.431763
41624284149,-0.255127,-0.370544,-0.783569,-0.42865
41624299957,-0.257202,-0.375488,-0.782532,-0.424927
41624330576,-0.259827,-0.381531,-0.781128,-0.420532
41624344134,-0.262573,-0.388062,-0.779358,-0.416077
41624359886,-0.265503,-0.39502,-0.777222,-0.411743
41624382419,-0.26825,-0.4021,-0.77478,-0.407593
41624404012,-0.270142,-0.408264,-0.772888,-0.403809
41624419892,-0.271423,-0.413574,-0.771362,-0.400452
41624442814,-0.272644,-0.41925,-0.769653,-0.397095
41624465528,-0.273926,-0.425842,-0.767273,-0.393677
41624479868,-0.274963,-0.432495,-0.764954,-0.390259
41624502369,-0.275696,-0.438843,-0.762817,-0.386902
41624525568,-0.276489,-0.445129,-0.760498,-0.383606
41624539985,-0.277283,-0.450989,-0.758423,-0.38031
41624562471,-0.277893,-0.457153,-0.756042,-0.377136
41624585646,-0.278198,-0.463501,-0.75354,-0.374207
41624599973,-0.278015,-0.469604,-0.751099,-0.371704
41624622448,-0.27771,-0.475342,-0.748779,-0.369324
41624645586,-0.277283,-0.480286,-0.746765,-0.36731
41624659911,-0.276489,-0.484436,-0.745056,-0.365845
41624682468,-0.275879,-0.488159,-0.743347,-0.364868
41624705554,-0.275452,-0.490784,-0.742188,-0.364075
41624719860,-0.275024,-0.492432,-0.741455,-0.363586
41624742347,-0.274841,-0.49353,-0.740967,-0.363342
41624765533,-0.274475,-0.494141,-0.740784,-0.363159
41624779824,-0.274109,-0.494202,-0.740967,-0.362976
41624802398,-0.273682,-0.494202,-0.741089,-0.362915
41624825594,-0.273132,-0.49469,-0.741089,-0.362671
41624839980,-0.272705,-0.495544,-0.740967,-0.362122
41624869160,-0.272217,-0.496338,-0.741089,-0.361267
41624885603,-0.271545,-0.49707,-0.741394,-0.360046
41624899937,-0.270935,-0.497742,-0.74176,-0.358826
41624922413,-0.270325,-0.498535,-0.742004,-0.357727
41624945670,-0.269775,-0.49939,-0.742126,-0.35675
41624966653,-0.269165,-0.500488,-0.742065,-0.355774
41624982460,-0.268738,-0.502014,-0.741699,-0.354675
41625005535,-0.268616,-0.503784,-0.74115,-0.353333
41625026592,-0.268494,-0.505493,-0.740723,-0.35199
41625042344,-0.26825,-0.507141,-0.740295,-0.350525
41625065501,-0.268066,-0.50885,-0.739929,-0.34906
41625086668,-0.268066,-0.510559,-0.739441,-0.347534
41625102376,-0.268433,-0.512451,-0.73877,-0.345947
41625126031,-0.26886,-0.514343,-0.737976,-0.344421
41625146564,-0.269287,-0.516052,-0.737244,-0.343079
41625162408,-0.269714,-0.5177,-0.73645,-0.34198
41625185552,-0.270264,-0.51947,-0.735535,-0.340942
41625206627,-0.270996,-0.52179,-0.734131,-0.339783
41625222473,-0.271729,-0.52417,-0.732788,-0.338379
41625244930,-0.272461,-0.526611,-0.731506,-0.336914
41625266645,-0.273132,-0.529114,-0.730164,-0.335327
41625282410,-0.273804,-0.531555,-0.728882,-0.33374
41625304930,-0.274475,-0.533997,-0.727661,-0.33197
41625326694,-0.274902,-0.536072,-0.726685,-0.3302
41625342403,-0.275024,-0.53772,-0.726135,-0.328796
41625364858,-0.274963,-0.538574,-0.725891,-0.327881
41625386629,-0.274841,-0.539185,-0.725952,-0.326965
41625402373,-0.274658,-0.540283,-0.725708,-0.325806
41625424846,-0.274719,-0.542053,-0.724976,-0.324341
41625448004,-0.274902,-0.543884,-0.724243,-0.322754
41625462394,-0.274963,-0.545654,-0.723572,-0.321228
41625484965,-0.274841,-0.547058,-0.723083,-0.320068
41625508135,-0.274536,-0.547974,-0.722778,-0.319397
41625522499,-0.273926,-0.548035,-0.722961,-0.319458
41625544969,-0.273376,-0.54718,-0.723511,-0.32019
41625568053,-0.272949,-0.545532,-0.724365,-0.32135
41625582362,-0.272705,-0.543945,-0.72522,-0.322449
41625604955,-0.272705,-0.542419,-0.725891,-0.323486
41625628074,-0.272827,-0.541138,-0.726379,-0.324341
41625642422,-0.272949,-0.5401,-0.726807,-0.325012
41625664924,-0.273193,-0.539246,-0.727112,-0.325623
41625688055,-0.273193,-0.538269,-0.727539,-0.326233
41625701594,-0.27301,-0.537842,-0.727722,-0.326721
41625716063,-0.272888,-0.538086,-0.727539,-0.326843
41625738403,-0.272827,-0.538574,-0.727295,-0.326599
41625761678,-0.272522,-0.539307,-0.727112,-0.32605
41625775945,-0.271973,-0.539795,-0.727356,-0.325195
41625798535,-0.271606,-0.540344,-0.727539,-0.324097
41625821714,-0.272034,-0.541565,-0.726807,-0.323303
41625836028,-0.272278,-0.542786,-0.726074,-0.322815
41625858490,-0.271179,-0.54248,-0.726685,-0.322815
41625881755,-0.26947,-0.541077,-0.728271,-0.32312
41625896052,-0.268311,-0.540588,-0.729187,-0.322754
41625918476,-0.268005,-0.541443,-0.729126,-0.321716
41625941725,-0.267578,-0.542358,-0.728455,-0.322021
41625956098,-0.267395,-0.542786,-0.7276,-0.323425
41625978567,-0.267334,-0.542297,-0.727051,-0.3255
41626001605,-0.268005,-0.542664,-0.726013,-0.32666
41626016091,-0.268799,-0.543884,-0.724609,-0.327148
41626038534,-0.26886,-0.546143,-0.722839,-0.327209
41626061103,-0.268921,-0.548645,-0.720703,-0.327698
41626084241,-0.269958,-0.552368,-0.717651,-0.327271
41626098580,-0.271484,-0.555542,-0.714966,-0.326477
41626121132,-0.272034,-0.556458,-0.71405,-0.326477
41626144260,-0.27124,-0.556458,-0.714172,-0.326843
41626158580,-0.27063,-0.557068,-0.713562,-0.327759
41626180935,-0.271423,-0.557495,-0.712463,-0.328735
41626196021,-0.272888,-0.55719,-0.711609,-0.329834
41626218473,-0.273865,-0.556213,-0.711365,-0.331177
41626241634,-0.274292,-0.554749,-0.711731,-0.332581
41626255993,-0.274109,-0.554138,-0.711853,-0.333374
41626278473,-0.273926,-0.554016,-0.711792,-0.333923
41626301595,-0.273987,-0.554077,-0.711487,-0.334351
41626315971,-0.274353,-0.554077,-0.711304,-0.334534
41626338490,-0.274719,-0.553833,-0.711182,-0.334839
41626360979,-0.27478,-0.553955,-0.710999,-0.334961
41626376054,-0.274658,-0.554504,-0.710632,-0.334961
41626398457,-0.274536,-0.554993,-0.710266,-0.335022
41626420938,-0.274536,-0.555481,-0.710022,-0.334778
41626436025,-0.274597,-0.556152,-0.709656,-0.334473
41626466663,-0.274597,-0.556763,-0.709412,-0.333801
41626481038,-0.274109,-0.556824,-0.709778,-0.333374
41626496059,-0.272827,-0.556335,-0.710999,-0.332764
41626518563,-0.271423,-0.555542,-0.712646,-0.331543
41626541066,-0.270203,-0.555115,-0.714233,-0.329895
41626555954,-0.269043,-0.554932,-0.715576,-0.328125
41626578446,-0.267273,-0.554321,-0.717529,-0.326416
41626600957,-0.265076,-0.553101,-0.720032,-0.324768
41626624244,-0.262329,-0.55072,-0.723267,-0.323853
41626638588,-0.259583,-0.547302,-0.727051,-0.323364
41626661081,-0.257568,-0.544067,-0.730713,-0.322205
41626684181,-0.256409,-0.541443,-0.734009,-0.320007
41626698548,-0.255066,-0.538757,-0.73761,-0.317444
41626721105,-0.25293,-0.534851,-0.742188,-0.315002
41626744262,-0.250732,-0.529419,-0.747864,-0.312622
41626758604,-0.248108,-0.523132,-0.754272,-0.309692
41626781033,-0.245789,-0.518372,-0.759949,-0.305725
41626804158,-0.243408,-0.515076,-0.764954,-0.30072
41626818417,-0.240173,-0.512268,-0.769836,-0.295471
41626840950,-0.235779,-0.509094,-0.77533,-0.290161
41626864136,-0.230103,-0.5047,-0.781799,-0.284851
41626878459,-0.224121,-0.500732,-0.788086,-0.279358
41626901058,-0.218689,-0.498352,-0.793274,-0.273254
41626924238,-0.213379,-0.497253,-0.797668,-0.266479
41626938586,-0.20752,-0.496216,-0.802246,-0.259277
41626961064,-0.201172,-0.494629,-0.807312,-0.251526
41626984257,-0.194641,-0.492371,-0.812683,-0.243469
41626998563,-0.18866,-0.49054,-0.817627,-0.235229
41627020995,-0.183289,-0.489807,-0.821716,-0.226685
41627044200,-0.178223,-0.489563,-0.825256,-0.218018
41627058544,-0.173157,-0.488708,-0.829041,-0.209656
41627080998,-0.167542,-0.486816,-0.833374,-0.201477
41627104137,-0.162109,-0.484314,-0.837769,-0.193481
41627118423,-0.157104,-0.482422,-0.841553,-0.185669
41627141005,-0.152405,-0.481689,-0.844482,-0.178101
41627164135,-0.148071,-0.481262,-0.846985,-0.170837
41627178500,-0.143738,-0.480774,-0.849304,-0.164124
41627200926,-0.139587,-0.480103,-0.851624,-0.157715
41627224128,-0.135376,-0.479126,-0.853943,-0.151672
41627238533,-0.131165,-0.478943,-0.855652,-0.146057
41627260977,-0.12738,-0.479736,-0.856689,-0.140808
41627283482,-0.124084,-0.48114,-0.857117,-0.136169
41627298422,-0.121033,-0.4823,-0.857544,-0.132324
41627320946,-0.117798,-0.482849,-0.858093,-0.129333
41627343428,-0.114563,-0.482788,-0.858948,-0.126892
41627358571,-0.111938,-0.482727,-0.859619,-0.124939
41627381066,-0.110168,-0.483459,-0.859619,-0.123474
41627403605,-0.108887,-0.484741,-0.859253,-0.122375
41627418570,-0.107544,-0.485596,-0.859009,-0.121643
41627441032,-0.106201,-0.485413,-0.859314,-0.121399
41627457491,-0.105042,-0.484558,-0.859985,-0.121277
41627478597,-0.104187,-0.484192,-0.860291,-0.121277
41627501099,-0.103638,-0.484497,-0.860168,-0.121338
41627517518,-0.103333,-0.484924,-0.859924,-0.121582
41627538528,-0.103516,-0.484863,-0.859863,-0.122253
41627561011,-0.103943,-0.484375,-0.859985,-0.123047
41627577452,-0.10437,-0.483704,-0.860168,-0.123962
41627598485,-0.104858,-0.48291,-0.860413,-0.124878
41627621033,-0.105103,-0.482117,-0.860718,-0.125732
41627637403,-0.105408,-0.481445,-0.860901,-0.126404
41627658579,-0.105652,-0.480896,-0.861145,-0.127014
41627681037,-0.105835,-0.480286,-0.861328,-0.127686
41627697477,-0.105896,-0.479736,-0.861572,-0.128235
41627718562,-0.106018,-0.479187,-0.861816,-0.12854
41627741078,-0.10614,-0.478638,-0.862061,-0.128845
41627757565,-0.106262,-0.478394,-0.862122,-0.12915
41627778560,-0.106506,-0.478333,-0.862122,-0.129333
41627801123,-0.106812,-0.478027,-0.862244,-0.129272
41627817579,-0.106995,-0.477783,-0.862366,-0.12915
41627838580,-0.1073,-0.477783,-0.862366,-0.128906
41627861123,-0.107422,-0.477905,-0.862305,-0.128662
41627877567,-0.107483,-0.477966,-0.862366,-0.128296
41627898581,-0.107483,-0.478149,-0.862305,-0.127869
41627921045,-0.107544,-0.478638,-0.862061,-0.127502
41627937496,-0.107727,-0.479065,-0.861816,-0.12738
41627958546,-0.108154,-0.479309,-0.861633,-0.12738
41627981047,-0.108765,-0.479065,-0.861633,-0.127808
41627997395,-0.109558,-0.478516,-0.861755,-0.128479
41628018471,-0.110596,-0.477844,-0.861877,-0.129333
41628041028,-0.111633,-0.47699,-0.862,-0.130371
41628057426,-0.112793,-0.47644,-0.862,-0.131775
41628079924,-0.114014,-0.475769,-0.861938,-0.13324
41628100967,-0.115295,-0.47522,-0.861877,-0.134583
41628117550,-0.116699,-0.475098,-0.861572,-0.135864
41628139978,-0.118225,-0.475281,-0.861084,-0.137085
41628161132,-0.119995,-0.476257,-0.860046,-0.13855
41628177487,-0.12207,-0.477478,-0.858765,-0.140564
41628200043,-0.123169,-0.476318,-0.858826,-0.142944
41628221035,-0.123169,-0.4729,-0.860352,-0.145325
41628243629,-0.123352,-0.470581,-0.861145,-0.147827
41628261411,-0.124634,-0.470764,-0.860535,-0.149841
41628281074,-0.126404,-0.472961,-0.858765,-0.151428
41628303544,-0.127991,-0.476624,-0.856323,-0.152527
41628319928,-0.129395,-0.481506,-0.853271,-0.153015
41628341007,-0.130005,-0.485657,-0.85083,-0.153198
41628363478,-0.129761,-0.489868,-0.848328,-0.153687
41628379932,-0.129822,-0.495361,-0.845032,-0.154175
41628400950,-0.131042,-0.502197,-0.840698,-0.154785
41628423600,-0.132751,-0.508545,-0.836365,-0.156128
41628440080,-0.134705,-0.512817,-0.833069,-0.15802
41628461109,-0.137207,-0.516235,-0.830139,-0.160278
41628483606,-0.140747,-0.519714,-0.826904,-0.162537
41628500069,-0.144653,-0.523865,-0.823059,-0.165222
41628521098,-0.148926,-0.528992,-0.818359,-0.168396
41628543643,-0.153381,-0.533936,-0.81366,-0.171631
41628559925,-0.157898,-0.537964,-0.809509,-0.174744
41628581093,-0.162354,-0.541199,-0.805847,-0.177368
41628603582,-0.166687,-0.545349,-0.801636,-0.179626
41628619943,-0.171143,-0.55127,-0.796143,-0.181824
41628640975,-0.175659,-0.558105,-0.789795,-0.184448
41628663544,-0.180237,-0.563721,-0.784058,-0.187317
41628679925,-0.184692,-0.567627,-0.77948,-0.190308
41628700991,-0.188904,-0.570251,-0.775757,-0.193481
41628723625,-0.193115,-0.573364,-0.771545,-0.19696
41628739999,-0.19751,-0.577087,-0.766724,-0.200378
41628761099,-0.202209,-0.581055,-0.761658,-0.203735
41628783621,-0.206726,-0.58429,-0.757019,-0.207031
41628800061,-0.210754,-0.586182,-0.75354,-0.210449
41628821154,-0.2146,-0.587036,-0.750732,-0.213989
41628843567,-0.218872,-0.588257,-0.747681,-0.217285
41628859974,-0.223328,-0.590088,-0.744019,-0.220093
41628881122,-0.227478,-0.591736,-0.740784,-0.222412
41628903604,-0.230591,-0.592102,-0.738831,-0.22467
41628919981,-0.233215,-0.591187,-0.737976,-0.227173
41628940988,-0.236206,-0.589478,-0.737671,-0.22937
41628963536,-0.239807,-0.587463,-0.737549,-0.231323
41628979947,-0.243713,-0.585327,-0.73761,-0.232361
41629002456,-0.247437,-0.583496,-0.737793,-0.232483
41629023489,-0.250671,-0.581787,-0.73822,-0.232117
41629039955,-0.252808,-0.580627,-0.738525,-0.231628
41629062487,-0.254028,-0.580444,-0.738464,-0.230957
41629083671,-0.253784,-0.580933,-0.738342,-0.230347
41629100029,-0.253113,-0.581787,-0.737976,-0.230042
41629122553,-0.252747,-0.582825,-0.737366,-0.22998
41629154676,-0.252563,-0.583252,-0.737,-0.230103
41629159990,-0.252258,-0.582886,-0.737305,-0.230408
41629182591,-0.252319,-0.582397,-0.737671,-0.230408
41629198972,-0.252441,-0.582947,-0.737488,-0.229431
41629219971,-0.252136,-0.584717,-0.736633,-0.22821
41629242557,-0.251343,-0.586731,-0.735474,-0.227539
41629258921,-0.250916,-0.588196,-0.734558,-0.227112
41629287494,-0.250854,-0.589172,-0.733948,-0.226746
41629302493,-0.250916,-0.589844,-0.733521,-0.226318
41629319055,-0.250732,-0.590271,-0.733276,-0.226196
41629339988,-0.250305,-0.590576,-0.733093,-0.226379
41629362555,-0.250122,-0.590942,-0.732727,-0.226807
41629378995,-0.250427,-0.591187,-0.732361,-0.22699
41629399940,-0.250854,-0.591492,-0.731934,-0.227051
41629422462,-0.250916,-0.591553,-0.731934,-0.227051
41629438983,-0.250916,-0.591614,-0.731873,-0.22699
41629459976,-0.250916,-0.592163,-0.731506,-0.226807
41629482458,-0.250916,-0.593018,-0.730896,-0.226562
41629503508,-0.251038,-0.594116,-0.730103,-0.226074
41629519200,-0.251221,-0.594727,-0.729614,-0.225769
41629541758,-0.251282,-0.594604,-0.729553,-0.226135
41629564245,-0.251465,-0.594116,-0.729736,-0.226685
41629579257,-0.251648,-0.59375,-0.72998,-0.226562
41629601716,-0.251465,-0.594055,-0.729919,-0.226196
41629624268,-0.251038,-0.595154,-0.72937,-0.225647
41629639249,-0.250793,-0.596558,-0.728455,-0.225037
41629661756,-0.250793,-0.597717,-0.727661,-0.224548
41629692437,-0.250977,-0.598083,-0.727356,-0.224487
41629699315,-0.251099,-0.597656,-0.7276,-0.224731
41629721657,-0.251343,-0.596985,-0.727905,-0.225159
41629744284,-0.251526,-0.596802,-0.727905,-0.225525
41629759287,-0.251404,-0.596924,-0.727661,-0.225952
41629781756,-0.251343,-0.596924,-0.727661,-0.225952
41629804203,-0.251343,-0.596924,-0.727661,-0.226013
41629819322,-0.251343,-0.596924,-0.727661,-0.226013
41629841789,-0.251587,-0.596802,-0.727722,-0.226074
41629864273,-0.251709,-0.59668,-0.727722,-0.226196
41629879265,-0.251709,-0.596741,-0.727661,-0.226196
41629901706,-0.251648,-0.596985,-0.727539,-0.226074
41629924153,-0.251648,-0.597473,-0.727234,-0.225769
41629939189,-0.251709,-0.598083,-0.726807,-0.225464
41629961700,-0.251709,-0.59845,-0.726562,-0.225281
41629984240,-0.251648,-0.59845,-0.726501,-0.225281
41629999188,-0.251831,-0.598389,-0.72644,-0.225586
41630021709,-0.252014,-0.598022,-0.726501,-0.226013
41630044344,-0.252197,-0.597595,-0.726685,-0.226562
41630059343,-0.252197,-0.597229,-0.726868,-0.227112
41630081854,-0.252014,-0.596802,-0.727112,-0.227478
41630104292,-0.252014,-0.596802,-0.727112,-0.227539
41630119314,-0.252075,-0.59729,-0.726746,-0.227356
41630141794,-0.25238,-0.598083,-0.726135,-0.226929
41630157526,-0.252441,-0.598572,-0.725769,-0.226562
41630180708,-0.252502,-0.598633,-0.725769,-0.226562
41630201762,-0.252441,-0.598633,-0.725769,-0.226562
41630217611,-0.252441,-0.598633,-0.725708,-0.226562
41630240665,-0.252502,-0.598877,-0.725464,-0.226562
41630261771,-0.252686,-0.599365,-0.725098,-0.226318
41630284322,-0.252747,-0.600037,-0.724731,-0.22583
41630300657,-0.252686,-0.60083,-0.724243,-0.22522
41630321691,-0.252563,-0.601929,-0.723633,-0.224548
41630337463,-0.252502,-0.603088,-0.7229,-0.223877
41630360605,-0.252563,-0.604004,-0.722229,-0.223328
41630381723,-0.252502,-0.60437,-0.721985,-0.223145
41630397499,-0.252258,-0.604126,-0.72229,-0.223267
41630420676,-0.252075,-0.60376,-0.722595,-0.223389
41630441737,-0.251953,-0.60376,-0.722595,-0.22345
41630457598,-0.251831,-0.603882,-0.722534,-0.223511
41630480657,-0.25177,-0.603882,-0.722534,-0.223511
41630501834,-0.251709,-0.603882,-0.722534,-0.223572
41630517575,-0.251892,-0.603638,-0.722656,-0.223755
41630540736,-0.252319,-0.603455,-0.722656,-0.223816
41630561775,-0.252991,-0.603333,-0.722534,-0.223755
41630577600,-0.253601,-0.60321,-0.722412,-0.223633
41630600659,-0.254517,-0.603149,-0.722229,-0.223389
41630621819,-0.255493,-0.602661,-0.722473,-0.222961
41630644322,-0.256348,-0.60144,-0.723206,-0.222778
41630660796,-0.256897,-0.600281,-0.723999,-0.222717
41630681804,-0.257568,-0.59967,-0.724365,-0.22229
41630697478,-0.258423,-0.599609,-0.724365,-0.221558
41630720749,-0.259155,-0.599731,-0.724243,-0.220764
41630741703,-0.259583,-0.599548,-0.724487,-0.219849
41630757503,-0.259888,-0.598877,-0.72522,-0.219177
41630780668,-0.259949,-0.598083,-0.725952,-0.218689
41630801721,-0.260132,-0.597351,-0.726624,-0.218323
41630817471,-0.260498,-0.596863,-0.727051,-0.217773
41630840632,-0.260864,-0.596558,-0.727356,-0.217102
41630861806,-0.261597,-0.596069,-0.727783,-0.216187
41630877611,-0.262756,-0.595276,-0.728333,-0.214905
41630900087,-0.264038,-0.594971,-0.728577,-0.213501
41630921761,-0.265747,-0.594604,-0.728699,-0.211914
41630937617,-0.267029,-0.592896,-0.72998,-0.210754
41630960107,-0.267456,-0.590332,-0.731995,-0.210388
41630981807,-0.267273,-0.587463,-0.73407,-0.211426
41630997632,-0.267151,-0.584473,-0.736206,-0.212524
41631020111,-0.267273,-0.579285,-0.740051,-0.213135
41631041835,-0.266968,-0.572876,-0.744751,-0.214478
41631064288,-0.266907,-0.566772,-0.748779,-0.216553
41631080060,-0.266846,-0.560547,-0.752808,-0.218994
41631103141,-0.265564,-0.553101,-0.758118,-0.221191
41631124172,-0.262207,-0.544678,-0.764587,-0.223755
41631139975,-0.257141,-0.538208,-0.769958,-0.22699
41631163215,-0.251282,-0.532959,-0.774536,-0.230347
41631184237,-0.24469,-0.528076,-0.778931,-0.233826
41631200048,-0.237244,-0.521667,-0.784485,-0.237244
41631229227,-0.229065,-0.512817,-0.791687,-0.240601
41631244328,-0.220337,-0.503235,-0.799133,-0.244446
41631260101,-0.211304,-0.494873,-0.805359,-0.248901
41631283202,-0.201538,-0.486694,-0.81134,-0.25354
41631304277,-0.191711,-0.478088,-0.817322,-0.258423
41631320031,-0.182251,-0.468506,-0.823547,-0.263
41631343270,-0.173035,-0.458496,-0.829712,-0.267517
41631364323,-0.164124,-0.449402,-0.834961,-0.272034
41631380114,-0.15564,-0.441956,-0.839172,-0.276306
41631403171,-0.1474,-0.436279,-0.842407,-0.280029
41631424226,-0.138855,-0.431091,-0.845337,-0.283386
41631439975,-0.130005,-0.426208,-0.848145,-0.286682
41631463194,-0.122131,-0.423828,-0.849548,-0.28949
41631484251,-0.114868,-0.422668,-0.850464,-0.291443
41631506727,-0.107544,-0.421143,-0.851501,-0.293396
41631523162,-0.100952,-0.419678,-0.852478,-0.295105
41631544256,-0.0959473,-0.419861,-0.852478,-0.296387
41631560046,-0.0925903,-0.421631,-0.851746,-0.29718
41631583229,-0.090332,-0.421204,-0.852173,-0.29718
41631604336,-0.0883789,-0.418396,-0.85376,-0.29718
41631620063,-0.0875244,-0.41626,-0.854858,-0.297363
41631643276,-0.0878906,-0.415466,-0.855286,-0.297119
41631664288,-0.088623,-0.415222,-0.855469,-0.296631
41631680092,-0.0893555,-0.415222,-0.855652,-0.295837
41631703144,-0.0900269,-0.414368,-0.856323,-0.294922
41631724335,-0.0908203,-0.412842,-0.8573,-0.294067
41631740158,-0.0919189,-0.41217,-0.857727,-0.293335
41631763318,-0.0933228,-0.41217,-0.857849,-0.29248
41631784344,-0.0940552,-0.411072,-0.858643,-0.291443
41631800055,-0.0941772,-0.409668,-0.85968,-0.290527
41631823279,-0.0942383,-0.409058,-0.860229,-0.289612
41631844341,-0.0944214,-0.408997,-0.860596,-0.288513
41631860121,-0.0948486,-0.409363,-0.86084,-0.28717
41631882565,-0.0950928,-0.409973,-0.860901,-0.286072
41631904269,-0.0948486,-0.410706,-0.860901,-0.285095
41631920049,-0.0946045,-0.411194,-0.860962,-0.284302
41631942632,-0.0941772,-0.411255,-0.861145,-0.283813
41631964376,-0.093689,-0.410889,-0.861389,-0.283752
41631980162,-0.093689,-0.410706,-0.86145,-0.283875
41632010742,-0.0942383,-0.410889,-0.861267,-0.283936
41632026206,-0.0947876,-0.410767,-0.861267,-0.283875
41632048295,-0.0947876,-0.40979,-0.861816,-0.283691
41632062627,-0.0947876,-0.408997,-0.862244,-0.283447
41632085647,-0.095459,-0.409546,-0.862122,-0.282959
41632100061,-0.0965576,-0.410706,-0.861633,-0.282227
41632122582,-0.09729,-0.41156,-0.861389,-0.281494
41632145805,-0.0975952,-0.412292,-0.861267,-0.280762
41632160173,-0.0980225,-0.413208,-0.860901,-0.280273
41632182582,-0.0986938,-0.414368,-0.860413,-0.280029
41632205808,-0.0996094,-0.415588,-0.859802,-0.279663
41632220043,-0.100403,-0.416321,-0.859497,-0.279297
41632242526,-0.101318,-0.416931,-0.859192,-0.278931
41632265687,-0.102661,-0.418335,-0.858459,-0.278625
41632280036,-0.104187,-0.420227,-0.857422,-0.27832
41632302522,-0.105469,-0.421936,-0.856506,-0.278076
41632325694,-0.106812,-0.424255,-0.855286,-0.277832
41632346735,-0.108398,-0.42749,-0.853638,-0.277344
41632362573,-0.110229,-0.430969,-0.851868,-0.276611
41632385717,-0.112671,-0.434631,-0.850098,-0.27533
41632406799,-0.116028,-0.438782,-0.848083,-0.27356
41632422528,-0.120117,-0.44342,-0.845703,-0.271729
41632445680,-0.124634,-0.44873,-0.842834,-0.269775
41632466741,-0.129272,-0.453796,-0.840088,-0.267822
41632482531,-0.13385,-0.457825,-0.837769,-0.265869
41632505768,-0.138916,-0.461792,-0.83551,-0.263733
41632526819,-0.144714,-0.46637,-0.832703,-0.261292
41632542538,-0.151245,-0.471313,-0.829651,-0.258484
41632565699,-0.157654,-0.475098,-0.827087,-0.25592
41632586718,-0.163391,-0.476318,-0.825867,-0.253906
41632602527,-0.169434,-0.47583,-0.825256,-0.252869
41632625668,-0.176514,-0.476257,-0.823669,-0.252319
41632646766,-0.184204,-0.478394,-0.821045,-0.251343
41632662568,-0.191162,-0.480652,-0.818604,-0.249878
41632685711,-0.19751,-0.483643,-0.815857,-0.248108
41632706821,-0.203735,-0.488892,-0.81189,-0.245728
41632722543,-0.2099,-0.495972,-0.806885,-0.24292
41632745703,-0.215637,-0.503113,-0.802002,-0.239502
41632766833,-0.22052,-0.508179,-0.798401,-0.236206
41632782584,-0.225586,-0.512695,-0.794739,-0.233948
41632805080,-0.231689,-0.516907,-0.791077,-0.231201
41632826807,-0.237671,-0.51886,-0.788696,-0.228943
41632842551,-0.24292,-0.521057,-0.785828,-0.228149
41632865031,-0.248047,-0.524048,-0.782227,-0.22821
41632886754,-0.252686,-0.52594,-0.779297,-0.22876
41632902520,-0.256226,-0.526123,-0.777527,-0.230408
41632933165,-0.259399,-0.526489,-0.775696,-0.232178
41632946756,-0.262695,-0.527527,-0.773499,-0.233521
41632962557,-0.265686,-0.528687,-0.771301,-0.234619
41632985065,-0.268188,-0.530151,-0.769165,-0.235718
41633008223,-0.270447,-0.532349,-0.766663,-0.236267
41633022554,-0.272156,-0.534119,-0.764526,-0.237122
41633045084,-0.273743,-0.536377,-0.762024,-0.238342
41633068166,-0.276001,-0.538208,-0.759644,-0.239258
41633082524,-0.278076,-0.53833,-0.758362,-0.240662
41633105101,-0.28009,-0.538574,-0.756897,-0.24231
41633128259,-0.28241,-0.540039,-0.754639,-0.24353
41633142560,-0.284363,-0.541199,-0.752869,-0.244019
41633165060,-0.284973,-0.541321,-0.752441,-0.244263
41633188227,-0.284363,-0.542236,-0.752014,-0.244324
41633202569,-0.283264,-0.54541,-0.750244,-0.243896
41633225078,-0.282776,-0.551147,-0.746887,-0.242065
41633248239,-0.281555,-0.555359,-0.744873,-0.239929
41633269272,-0.279602,-0.557739,-0.744263,-0.238647
41633285057,-0.278137,-0.559448,-0.743713,-0.238037
41633308207,-0.277405,-0.560669,-0.743225,-0.237488
41633329286,-0.276428,-0.560425,-0.743774,-0.237549
41633344303,-0.275391,-0.559448,-0.744568,-0.238464
41633358598,-0.275146,-0.558594,-0.744995,-0.239441
41633381794,-0.275208,-0.557007,-0.74585,-0.240479
41633404334,-0.275391,-0.554932,-0.746948,-0.241638
41633418611,-0.275818,-0.552979,-0.747925,-0.242737
41633441748,-0.276672,-0.551514,-0.748352,-0.243652
41633464321,-0.27771,-0.549927,-0.748901,-0.244324
41633478649,-0.27887,-0.548279,-0.749573,-0.24469
41633501769,-0.279907,-0.546692,-0.750366,-0.244629
41633524320,-0.280762,-0.545715,-0.750793,-0.244507
41633538683,-0.281372,-0.545105,-0.751038,-0.244446
41633561811,-0.281677,-0.544434,-0.751282,-0.244751
41633584292,-0.281982,-0.543457,-0.751831,-0.244934
41633598694,-0.282288,-0.542236,-0.752563,-0.244995
41633621789,-0.282471,-0.541138,-0.753357,-0.244934
41633644317,-0.282166,-0.540283,-0.754089,-0.244873
41633658656,-0.281677,-0.539673,-0.7547,-0.244812
41633681792,-0.281128,-0.539185,-0.755249,-0.244812
41633704750,-0.281128,-0.539307,-0.755249,-0.244568
41633718593,-0.281494,-0.540161,-0.754761,-0.243835
41633741810,-0.281799,-0.540955,-0.754395,-0.242859
41633764312,-0.281799,-0.541809,-0.754028,-0.242004
41633778684,-0.281555,-0.542664,-0.753723,-0.241272
41633801809,-0.281128,-0.543335,-0.753662,-0.24054
41633824351,-0.28064,-0.543945,-0.753662,-0.239807
41633838665,-0.280457,-0.544678,-0.753418,-0.239075
41633861178,-0.280151,-0.545593,-0.753052,-0.238403
41633884307,-0.27948,-0.546326,-0.752869,-0.238159
41633898655,-0.278809,-0.546753,-0.752808,-0.23822
41633921172,-0.278198,-0.546753,-0.752991,-0.238281
41633944367,-0.277771,-0.546143,-0.753601,-0.238342
41633958584,-0.277405,-0.545227,-0.754272,-0.238647
41633981127,-0.277039,-0.54425,-0.755005,-0.239014
41634004263,-0.277039,-0.543579,-0.755432,-0.239258
41634018646,-0.277039,-0.543091,-0.755737,-0.239502
41634041165,-0.2771,-0.542847,-0.755859,-0.239441
41634064293,-0.2771,-0.542786,-0.755981,-0.239136
41634078642,-0.277039,-0.542969,-0.756042,-0.238464
41634101158,-0.276978,-0.54303,-0.756348,-0.237671
41634124297,-0.276855,-0.542847,-0.756714,-0.236877
41634138725,-0.276428,-0.542664,-0.757263,-0.236145
41634161261,-0.275757,-0.542419,-0.757874,-0.235535
41634184452,-0.274902,-0.541931,-0.758789,-0.234802
41634198653,-0.27417,-0.541199,-0.759766,-0.234009
41634221109,-0.273743,-0.54071,-0.760559,-0.233093
41634244325,-0.273865,-0.540588,-0.760925,-0.232178
41634258603,-0.274109,-0.540649,-0.760986,-0.231323
41634281082,-0.274353,-0.540833,-0.761047,-0.230713
41634304356,-0.274292,-0.540588,-0.761292,-0.230286
41634318621,-0.274109,-0.539856,-0.761963,-0.230103
41634341232,-0.273804,-0.538879,-0.762817,-0.229858
41634364392,-0.273804,-0.538208,-0.763428,-0.229431
41634378709,-0.273804,-0.53772,-0.763977,-0.228821
41634401220,-0.273743,-0.537598,-0.764282,-0.22821
41634424371,-0.273621,-0.53772,-0.764404,-0.2276
41634438656,-0.273621,-0.537964,-0.764404,-0.227051
41634461248,-0.273438,-0.538147,-0.764465,-0.226562
41634484375,-0.273254,-0.538147,-0.764648,-0.226135
41634498677,-0.273132,-0.538208,-0.764771,-0.22583
41634521132,-0.273071,-0.538208,-0.764771,-0.225891
41634544289,-0.272888,-0.537964,-0.764893,-0.226135
41634558607,-0.272705,-0.537476,-0.765198,-0.226562
41634581107,-0.272705,-0.536804,-0.765503,-0.227051
41634604295,-0.272766,-0.536194,-0.765869,-0.227295
41634618672,-0.273071,-0.535645,-0.766113,-0.227356
41634641209,-0.273499,-0.535339,-0.766235,-0.227234
41634664329,-0.274048,-0.535156,-0.766235,-0.226929
41634678661,-0.274597,-0.535034,-0.766174,-0.226624
41634701183,-0.275024,-0.53479,-0.766235,-0.226501
41634724353,-0.275391,-0.534546,-0.766296,-0.22644
41634738685,-0.275635,-0.534485,-0.766296,-0.226318
41634761093,-0.275818,-0.534424,-0.766296,-0.226257
41634784309,-0.27594,-0.53418,-0.766418,-0.226257
41634798688,-0.27594,-0.533936,-0.766541,-0.22644
41634821170,-0.276062,-0.533813,-0.766541,-0.226685
41634844396,-0.276245,-0.533691,-0.766479,-0.22699
41634858634,-0.276428,-0.533386,-0.766541,-0.227112
41634881132,-0.276611,-0.532959,-0.766785,-0.227112
41634903664,-0.276917,-0.532471,-0.767029,-0.227051
41634918669,-0.277405,-0.532043,-0.767212,-0.226807
41634942623,-0.278198,-0.531433,-0.767456,-0.22644
41634963767,-0.279114,-0.530884,-0.767578,-0.226196
41634978764,-0.280212,-0.530457,-0.767517,-0.226135
41635001219,-0.281189,-0.529663,-0.767578,-0.226562
41635023739,-0.281982,-0.528381,-0.767944,-0.227417
41635038765,-0.282654,-0.526733,-0.768433,-0.228577
41635061142,-0.283691,-0.525146,-0.76886,-0.229614
41635083747,-0.284973,-0.523804,-0.769043,-0.23053
41635098747,-0.285889,-0.522278,-0.769409,-0.231506
41635121150,-0.286255,-0.520325,-0.770264,-0.232666
41635143671,-0.286743,-0.518616,-0.770813,-0.234131
41635158691,-0.287537,-0.517517,-0.770874,-0.235168
41635181296,-0.28833,-0.516479,-0.771179,-0.235596
41635203715,-0.288879,-0.516174,-0.771301,-0.235229
41635218706,-0.287903,-0.515442,-0.772095,-0.235352
41635241144,-0.285828,-0.514221,-0.773499,-0.235901
41635263787,-0.283936,-0.512939,-0.774963,-0.236328
41635278757,-0.283203,-0.511108,-0.776367,-0.23645
41635301269,-0.28302,-0.507446,-0.778625,-0.237183
41635323779,-0.283142,-0.503784,-0.780762,-0.237732
41635346869,-0.282715,-0.502502,-0.78186,-0.237488
41635361166,-0.281372,-0.502686,-0.781982,-0.238159
41635383624,-0.278503,-0.501587,-0.783325,-0.239502
41635398668,-0.275513,-0.501709,-0.784241,-0.239624
41635421160,-0.273682,-0.503052,-0.784241,-0.239075
41635443626,-0.272278,-0.506165,-0.78302,-0.237976
41635458635,-0.272339,-0.508423,-0.781921,-0.236694
41635481147,-0.274658,-0.509583,-0.780823,-0.235291
41635503688,-0.277161,-0.508179,-0.780823,-0.235291
41635518730,-0.278564,-0.505371,-0.781799,-0.23645
41635541190,-0.27887,-0.50177,-0.78363,-0.23761
41635563710,-0.278625,-0.498718,-0.785706,-0.23761
41635578795,-0.279236,-0.499084,-0.785645,-0.236267
41635601318,-0.281006,-0.501587,-0.783936,-0.234558
41635623796,-0.282349,-0.503357,-0.782532,-0.233704
41635640161,-0.282654,-0.503662,-0.782288,-0.233643
41635661233,-0.28186,-0.502869,-0.783081,-0.233643
41635683684,-0.28064,-0.502502,-0.78363,-0.233948
41635700151,-0.279358,-0.502197,-0.784058,-0.234802
41635722586,-0.278259,-0.501587,-0.784485,-0.235962
41635746386,-0.278015,-0.501404,-0.784485,-0.236694
41635747158,-0.278015,-0.501404,-0.784485,-0.236694
41635747969,-0.278625,-0.498718,-0.785706,-0.23761
41635753201,-0.279236,-0.499084,-0.785645,-0.236267
41635771159,-0.278015,-0.501404,-0.784485,-0.236694
41635777986,-0.278748,-0.501831,-0.783875,-0.236877
41635782665,-0.279602,-0.502136,-0.783325,-0.236938
41635803700,-0.280151,-0.502319,-0.783081,-0.236877
41635820088,-0.280151,-0.502197,-0.783142,-0.237
41635841193,-0.279663,-0.501953,-0.783325,-0.237366
41635863776,-0.27948,-0.50177,-0.783447,-0.23761
41635880177,-0.279785,-0.501953,-0.783142,-0.237732
41635902621,-0.280334,-0.502319,-0.782654,-0.237915
41635923721,-0.280884,-0.502686,-0.782227,-0.238037
41635940134,-0.28125,-0.502747,-0.782043,-0.238037
41635961257,-0.281494,-0.502441,-0.782166,-0.237976
41635983771,-0.281921,-0.502258,-0.782104,-0.238037
41636000218,-0.282654,-0.502502,-0.781738,-0.237915
41636021282,-0.283508,-0.50293,-0.78125,-0.23761
41636043714,-0.284119,-0.503052,-0.781128,-0.237061
41636060111,-0.284546,-0.503296,-0.781006,-0.23645
41636081190,-0.284912,-0.504028,-0.780518,-0.235962
41636103704,-0.285278,-0.505066,-0.779724,-0.235779
41636120098,-0.285767,-0.505798,-0.779236,-0.235535
41636141252,-0.285767,-0.505798,-0.779175,-0.235535
41636163723,-0.285461,-0.50531,-0.779663,-0.235352
41636180149,-0.284973,-0.504944,-0.78009,-0.235291
41636201141,-0.284851,-0.50531,-0.779968,-0.235229
41636223743,-0.284973,-0.505981,-0.77948,-0.235046
41636240216,-0.284973,-0.506287,-0.779358,-0.234924
41636261176,-0.284851,-0.506042,-0.779541,-0.234985
41636283814,-0.284607,-0.505737,-0.779785,-0.235107
41636300162,-0.284607,-0.505676,-0.779846,-0.235107
41636321291,-0.284607,-0.505676,-0.779846,-0.235107
41636343692,-0.284729,-0.505981,-0.779602,-0.235046
41636360243,-0.284851,-0.506104,-0.779541,-0.234802
41636381281,-0.284973,-0.506226,-0.77948,-0.23468
41636403774,-0.285156,-0.506531,-0.779236,-0.234558
41636420104,-0.2854,-0.506775,-0.779053,-0.234375
41636441307,-0.2854,-0.506775,-0.779053,-0.234375
41636463731,-0.285217,-0.506531,-0.779236,-0.234436
41636480125,-0.285156,-0.506104,-0.779541,-0.234497
41636501123,-0.285156,-0.506104,-0.779541,-0.234497
41636523663,-0.285156,-0.506104,-0.779541,-0.234497
41636540070,-0.285156,-0.506042,-0.779602,-0.234497
41636561210,-0.285156,-0.506042,-0.779602,-0.234497
41636583705,-0.285034,-0.505676,-0.779785,-0.23468
41636600206,-0.284973,-0.505127,-0.78009,-0.234863
41636622681,-0.285217,-0.504761,-0.780212,-0.234985
41636643823,-0.285583,-0.504761,-0.78009,-0.234985
41636660248,-0.285767,-0.5047,-0.780029,-0.235107
41636682717,-0.285828,-0.504578,-0.78009,-0.235168
41636703754,-0.285828,-0.504517,-0.78009,-0.235168
41636720246,-0.285828,-0.5047,-0.779968,-0.235352
41636742705,-0.285828,-0.5047,-0.779968,-0.235352
41636763700,-0.28595,-0.504822,-0.779846,-0.235291
41636780128,-0.286011,-0.504761,-0.779846,-0.235291
41636802673,-0.286011,-0.504761,-0.779846,-0.235291
41636823793,-0.285828,-0.504578,-0.779968,-0.235474
41636840164,-0.285828,-0.504578,-0.779968,-0.235474
41636862723,-0.285828,-0.504578,-0.779968,-0.235474
41636883756,-0.285828,-0.504517,-0.779968,-0.235474
41636900218,-0.285828,-0.504517,-0.780029,-0.235474
41636922709,-0.285889,-0.5047,-0.779907,-0.235352
41636943736,-0.285889,-0.505127,-0.779663,-0.235291
41636960163,-0.28595,-0.505798,-0.779236,-0.235229
41636982637,-0.285767,-0.506226,-0.778992,-0.235229
41637003620,-0.28595,-0.506958,-0.778503,-0.235046
41637021641,-0.286499,-0.508545,-0.777466,-0.234375
41637042683,-0.286987,-0.510376,-0.776306,-0.233765
41637063717,-0.286865,-0.510559,-0.776062,-0.234192
41637080171,-0.286316,-0.509644,-0.776428,-0.235657
41637102664,-0.286377,-0.509399,-0.776306,-0.236633
41637123760,-0.286438,-0.509033,-0.776367,-0.237
41637140200,-0.286499,-0.50885,-0.776428,-0.237183
41637161911,-0.286377,-0.508972,-0.776306,-0.237427
41637184498,-0.286072,-0.509521,-0.775879,-0.237915
41637199474,-0.286377,-0.510437,-0.775024,-0.238464
41637221902,-0.286926,-0.511963,-0.773743,-0.238708
41637244452,-0.286621,-0.513306,-0.772766,-0.239258
41637259518,-0.285217,-0.513611,-0.772705,-0.240601
41637281947,-0.283569,-0.513916,-0.772522,-0.242432
41637304463,-0.282166,-0.514893,-0.771851,-0.244141
41637319427,-0.279358,-0.516235,-0.771362,-0.246155
41637341912,-0.274536,-0.517761,-0.771179,-0.248901
41637372611,-0.268433,-0.519531,-0.771057,-0.252197
41637379522,-0.261536,-0.521423,-0.770874,-0.256104
41637401840,-0.254578,-0.524109,-0.769836,-0.260681
41637424457,-0.247437,-0.526917,-0.768555,-0.265503
41637439494,-0.239563,-0.529175,-0.767822,-0.270447
41637461939,-0.230591,-0.530518,-0.767761,-0.275696
41637484492,-0.220703,-0.531067,-0.768127,-0.281677
41637499489,-0.210022,-0.530884,-0.76886,-0.288086
41637521949,-0.199036,-0.530945,-0.769287,-0.294617
41637544409,-0.188354,-0.531921,-0.768982,-0.300598
41637559499,-0.178528,-0.534363,-0.7677,-0.30542
41637581920,-0.168213,-0.536316,-0.766907,-0.309814
41637604410,-0.157349,-0.537476,-0.766846,-0.313721
41637619470,-0.145752,-0.537903,-0.767456,-0.317078
41637641943,-0.133911,-0.537476,-0.768494,-0.320557
41637664506,-0.122375,-0.537048,-0.769409,-0.323608
41637679495,-0.11261,-0.537659,-0.769653,-0.325623
41637701876,-0.104858,-0.538086,-0.769897,-0.326843
41637724441,-0.0984497,-0.537415,-0.770996,-0.327332
41637740905,-0.0924072,-0.535889,-0.772888,-0.327087
41637761918,-0.0874634,-0.535217,-0.77478,-0.325195
41637784390,-0.0848999,-0.535889,-0.776001,-0.321716
41637800862,-0.0838013,-0.537231,-0.776733,-0.318115
41637821822,-0.0820312,-0.539124,-0.776489,-0.315857
41637844388,-0.0799561,-0.541138,-0.776001,-0.314209
41637860851,-0.079895,-0.545044,-0.774536,-0.311035
41637881900,-0.0805664,-0.549805,-0.772522,-0.307495
41637904435,-0.0794067,-0.552063,-0.771912,-0.305298
41637920789,-0.0767212,-0.552185,-0.772888,-0.303284
41637941929,-0.0752563,-0.552673,-0.773804,-0.300476
41637964504,-0.0760498,-0.554688,-0.773682,-0.296753
41637980919,-0.0772095,-0.558044,-0.772339,-0.29364
41638001899,-0.0770264,-0.560974,-0.770874,-0.291992
41638024507,-0.0765991,-0.563477,-0.76947,-0.291016
41638040883,-0.0769043,-0.566223,-0.767944,-0.289612
41638061916,-0.0775146,-0.567566,-0.767639,-0.287598
41638084465,-0.0787964,-0.567566,-0.768372,-0.285156
41638100870,-0.0805664,-0.566895,-0.769714,-0.282471
41638121994,-0.0825806,-0.566528,-0.770752,-0.279724
41638144446,-0.0853882,-0.5672,-0.771057,-0.276855
41638160909,-0.0890503,-0.568298,-0.770935,-0.273621
41638181920,-0.0930176,-0.569397,-0.770813,-0.270264
41638204494,-0.0963745,-0.569763,-0.771301,-0.267029
41638220826,-0.0995483,-0.569885,-0.771912,-0.263794
41638242025,-0.103088,-0.570129,-0.772339,-0.260559
41638264460,-0.10614,-0.570068,-0.772827,-0.258179
41638280913,-0.106201,-0.567505,-0.774841,-0.25769
41638301857,-0.104126,-0.563171,-0.777954,-0.258545
41638324407,-0.103027,-0.560608,-0.779846,-0.258972
41638340854,-0.104126,-0.561096,-0.779419,-0.258606
41638361893,-0.105835,-0.561829,-0.778992,-0.257812
41638384433,-0.106445,-0.559937,-0.780518,-0.257019
41638400836,-0.106079,-0.556519,-0.783203,-0.256348
41638421973,-0.105835,-0.554138,-0.785156,-0.255737
41638444587,-0.106262,-0.553345,-0.785828,-0.255188
41638460928,-0.106506,-0.55365,-0.785767,-0.2547
41638482007,-0.106323,-0.553894,-0.785706,-0.254272
41638504500,-0.106628,-0.554077,-0.785645,-0.254028
41638520226,-0.107361,-0.554688,-0.785156,-0.253784
41638542025,-0.108276,-0.556091,-0.784119,-0.253601
41638564446,-0.109253,-0.557861,-0.782776,-0.253296
41638580258,-0.109802,-0.558716,-0.782166,-0.253052
41638601909,-0.109741,-0.558167,-0.782593,-0.253113
41638624434,-0.109619,-0.556824,-0.783447,-0.253418
41638640197,-0.109436,-0.555786,-0.784119,-0.253723
41638663340,-0.109314,-0.555115,-0.784668,-0.253601
41638684366,-0.109192,-0.55426,-0.785339,-0.253479
41638700189,-0.108887,-0.553223,-0.786072,-0.253418
41638723384,-0.108582,-0.552673,-0.786499,-0.253601
41638744422,-0.108459,-0.552673,-0.786438,-0.253784
41638760193,-0.108276,-0.552795,-0.786377,-0.253845
41638783392,-0.108215,-0.55249,-0.78656,-0.253784
41638804498,-0.108215,-0.552063,-0.786926,-0.253723
41638820263,-0.108093,-0.551697,-0.78717,-0.253723
41638843439,-0.108032,-0.551453,-0.787354,-0.253723
41638864582,-0.108093,-0.551331,-0.787476,-0.253601
41638880306,-0.108093,-0.551331,-0.787476,-0.253601
41638903404,-0.108093,-0.551331,-0.787476,-0.253601
41638924454,-0.108032,-0.551331,-0.787476,-0.253601
41638940257,-0.107971,-0.551514,-0.787354,-0.253723
41638963491,-0.107971,-0.552124,-0.786926,-0.253723
41638984571,-0.10791,-0.552551,-0.786621,-0.253723
41639000253,-0.107849,-0.552551,-0.786621,-0.253723
41639023416,-0.107849,-0.55249,-0.786621,-0.253723
41639044418,-0.107727,-0.552734,-0.786438,-0.253906
41639060204,-0.107727,-0.553406,-0.78595,-0.253967
41639083438,-0.107788,-0.553833,-0.785583,-0.254089
41639104477,-0.107788,-0.553955,-0.785522,-0.25415
41639120230,-0.107727,-0.553711,-0.785706,-0.254089
41639143453,-0.107483,-0.553467,-0.785889,-0.25415
41639164485,-0.1073,-0.553589,-0.785828,-0.25415
41639180232,-0.1073,-0.554016,-0.785522,-0.254211
41639203410,-0.107361,-0.554443,-0.785217,-0.254272
41639224540,-0.1073,-0.554382,-0.785217,-0.254272
41639240288,-0.1073,-0.554382,-0.785217,-0.254272
41639263404,-0.106995,-0.554321,-0.785278,-0.254272
41639284462,-0.106812,-0.554688,-0.785034,-0.254333
41639300277,-0.106812,-0.555298,-0.784607,-0.254456
41639323430,-0.106689,-0.555542,-0.784363,-0.2547
41639344466,-0.106445,-0.555603,-0.784302,-0.254761
41639360309,-0.106445,-0.555603,-0.784302,-0.254761
41639383464,-0.10614,-0.555603,-0.784302,-0.254822
41639404468,-0.105835,-0.555908,-0.784119,-0.254944
41639420198,-0.105652,-0.556335,-0.783813,-0.255127
41639442685,-0.105652,-0.556763,-0.783447,-0.255188
41639464536,-0.105591,-0.556824,-0.783386,-0.255249
41639480216,-0.105408,-0.556946,-0.783325,-0.255493
41639509426,-0.105408,-0.557495,-0.782837,-0.255615
41639524430,-0.105469,-0.558044,-0.78241,-0.255676
41639540293,-0.105469,-0.558044,-0.78241,-0.255676
41639570933,-0.105164,-0.557739,-0.782654,-0.255798
41639584530,-0.105042,-0.557739,-0.782532,-0.256104
41639600303,-0.105957,-0.558594,-0.781738,-0.256409
41639622805,-0.107239,-0.560303,-0.780334,-0.256287
41639645957,-0.108521,-0.562134,-0.778809,-0.256409
41639660306,-0.109863,-0.564026,-0.777283,-0.256409
41639690928,-0.11084,-0.565491,-0.776062,-0.256348
41639705626,-0.111816,-0.567383,-0.774536,-0.256348
41639728335,-0.113037,-0.56897,-0.773132,-0.256714
41639742668,-0.114807,-0.570679,-0.771362,-0.257324
41639765840,-0.116211,-0.572449,-0.769714,-0.257751
41639780133,-0.116516,-0.573853,-0.768555,-0.257996
41639802714,-0.116211,-0.574341,-0.768127,-0.25824
41639825847,-0.115967,-0.574402,-0.768005,-0.258545
41639840170,-0.116211,-0.574524,-0.7677,-0.259155
41639862696,-0.117126,-0.574829,-0.767029,-0.26001
41639885853,-0.118103,-0.576355,-0.765503,-0.260803
41639901639,-0.118103,-0.578186,-0.763794,-0.261658
41639922835,-0.11731,-0.579529,-0.762573,-0.262634
41639945952,-0.116272,-0.579712,-0.762024,-0.264282
41639960275,-0.115723,-0.579712,-0.761414,-0.266235
41639982720,-0.114929,-0.579834,-0.76062,-0.268555
41640005953,-0.113281,-0.579956,-0.759705,-0.271545
41640026954,-0.110901,-0.579956,-0.75885,-0.275085
41640042689,-0.107788,-0.579224,-0.75824,-0.279419
41640065986,-0.104492,-0.577881,-0.757812,-0.284607
41640087008,-0.101074,-0.576416,-0.757019,-0.29071
41640102741,-0.097229,-0.575439,-0.755676,-0.297485
41640125944,-0.0930176,-0.574402,-0.754089,-0.304688
41640146993,-0.0883789,-0.572998,-0.752625,-0.312317
41640162773,-0.0830688,-0.571045,-0.751099,-0.320923
41640185967,-0.0768433,-0.569031,-0.748962,-0.330872
41640206995,-0.0700684,-0.567383,-0.745911,-0.341858
41640222798,-0.0635986,-0.566467,-0.741821,-0.353455
41640245885,-0.0574341,-0.565796,-0.737122,-0.365173
41640266998,-0.050354,-0.564453,-0.732422,-0.377563
41640282766,-0.041748,-0.561951,-0.727966,-0.390747
41640305911,-0.0324707,-0.558655,-0.723511,-0.404358
41640326998,-0.0236816,-0.555542,-0.718689,-0.417664
41640342741,-0.0152588,-0.552673,-0.713196,-0.43103
41640365306,-0.00616455,-0.549377,-0.707336,-0.444946
41640387094,0.00323486,-0.545654,-0.701355,-0.45874
41640402737,0.0114746,-0.542297,-0.695068,-0.471985
41640425190,0.0184326,-0.539673,-0.688293,-0.484497
41640446962,0.0258789,-0.536743,-0.681763,-0.496521
41640462697,0.034668,-0.532654,-0.675598,-0.508667
41640485218,0.0435181,-0.528015,-0.669373,-0.520935
41640506974,0.0505981,-0.52417,-0.662415,-0.532898
41640522801,0.0559082,-0.521179,-0.655029,-0.544312
41640545229,0.0609741,-0.518066,-0.647705,-0.55542
41640568466,0.0665283,-0.514099,-0.640625,-0.566528
41640582766,0.0720215,-0.509949,-0.633911,-0.577087
41640613434,0.0768433,-0.506042,-0.627319,-0.587036
41640628466,0.0812988,-0.502075,-0.620789,-0.59668
41640650969,0.0865479,-0.497498,-0.614502,-0.606201
41640665736,0.0919189,-0.492798,-0.608398,-0.615356
41640688441,0.0965576,-0.488892,-0.602234,-0.623779
41640702743,0.101135,-0.485229,-0.596008,-0.631836
41640725259,0.106445,-0.481201,-0.589844,-0.639709
41640748428,0.111511,-0.477539,-0.583557,-0.647339
41640762720,0.115479,-0.473999,-0.577454,-0.654663
41640785252,0.119019,-0.47052,-0.571777,-0.661499
41640808380,0.122253,-0.466858,-0.566772,-0.667847
41640829516,0.12561,-0.463074,-0.56189,-0.673889
41640845282,0.129211,-0.459106,-0.557007,-0.679993
41640868406,0.132812,-0.455017,-0.552551,-0.685669
41640889450,0.135437,-0.451294,-0.548584,-0.690735
41640905280,0.13739,-0.448425,-0.544434,-0.695496
41640928344,0.13916,-0.446045,-0.540344,-0.69989
41640949926,0.141846,-0.442932,-0.537109,-0.703796
41640966599,0.144348,-0.444275,-0.53186,-0.70636
41640978766,0.144104,-0.438171,-0.530334,-0.711426
41641001425,0.142395,-0.437744,-0.527344,-0.714233
41641024542,0.145691,-0.440308,-0.522156,-0.715759
41641038826,0.147034,-0.438416,-0.519653,-0.718506
41641061307,0.148132,-0.437439,-0.517517,-0.720398
41641084517,0.149902,-0.436523,-0.515625,-0.721924
41641098879,0.152771,-0.434937,-0.514221,-0.723328
41641121339,0.155273,-0.433655,-0.512878,-0.724487
41641144549,0.156067,-0.433228,-0.51178,-0.725403
41641158879,0.156128,-0.433105,-0.511353,-0.725708
41641182016,0.157227,-0.432312,-0.511108,-0.726074
41641204420,0.159424,-0.430969,-0.510925,-0.726562
41641218893,0.161987,-0.429565,-0.51062,-0.727051
41641242009,0.16449,-0.427795,-0.510315,-0.727722
41641264496,0.166565,-0.426025,-0.510254,-0.728333
41641278900,0.168457,-0.424561,-0.510071,-0.728882
41641301308,0.171387,-0.422913,-0.509827,-0.72937
41641324528,0.175049,-0.421082,-0.50946,-0.729736
41641338792,0.178833,-0.418762,-0.509338,-0.730286
41641361454,0.182678,-0.416077,-0.50946,-0.730774
41641384552,0.186584,-0.413147,-0.509766,-0.731262
41641398864,0.190369,-0.410095,-0.509949,-0.731873
41641421271,0.194214,-0.407043,-0.510254,-0.732361
41641444561,0.198303,-0.403748,-0.510986,-0.732544
41641458766,0.201843,-0.400574,-0.512146,-0.732544
41641481388,0.2052,-0.397522,-0.513062,-0.732666
41641504491,0.208679,-0.394287,-0.513977,-0.732727
41641518857,0.21228,-0.391357,-0.514771,-0.732727
41641541274,0.216064,-0.388611,-0.515259,-0.732727
41641564576,0.220215,-0.385803,-0.515442,-0.732849
41641578823,0.22406,-0.38324,-0.515381,-0.733093
41641601352,0.227966,-0.380676,-0.515259,-0.733276
41641624558,0.232056,-0.377991,-0.515137,-0.733459
41641638804,0.236145,-0.375244,-0.514954,-0.733704
41641661408,0.240112,-0.372681,-0.514771,-0.733887
41641684553,0.244019,-0.370422,-0.514648,-0.733826
41641698847,0.247986,-0.368164,-0.514587,-0.733643
41641721324,0.251648,-0.366211,-0.514526,-0.733459
41641744558,0.255249,-0.364258,-0.514404,-0.733215
41641758948,0.258301,-0.362183,-0.514343,-0.733215
41641781372,0.260681,-0.360413,-0.514343,-0.733276
41641804472,0.263245,-0.358765,-0.514343,-0.733154
41641818865,0.266479,-0.357056,-0.514221,-0.73291
41641841214,0.269531,-0.35553,-0.513977,-0.732727
41641864485,0.271729,-0.354553,-0.513428,-0.732727
41641878743,0.273926,-0.353333,-0.513184,-0.732666
41641901255,0.276184,-0.352051,-0.513062,-0.732544
41641924433,0.278198,-0.351196,-0.512756,-0.732422
41641938793,0.280029,-0.350891,-0.512329,-0.732178
41641961321,0.281555,-0.350342,-0.512024,-0.732056
41641984432,0.282532,-0.349609,-0.51178,-0.732178
41641998879,0.283508,-0.349121,-0.511536,-0.732239
41642021317,0.284851,-0.348572,-0.511536,-0.731995
41642044534,0.286316,-0.3479,-0.511414,-0.731812
41642058826,0.286987,-0.347473,-0.51123,-0.731873
41642081452,0.287109,-0.347351,-0.511108,-0.731995
41642104473,0.287415,-0.346985,-0.51123,-0.731934
41642118935,0.287781,-0.346497,-0.511414,-0.731873
41642141362,0.287781,-0.346252,-0.511475,-0.731995
41642164494,0.287415,-0.346191,-0.511353,-0.732239
41642178812,0.287415,-0.346191,-0.511353,-0.732178
41642201325,0.287781,-0.346069,-0.511353,-0.732117
41642224491,0.287964,-0.346069,-0.511292,-0.732117
41642238888,0.288025,-0.346069,-0.511292,-0.732117
41642261409,0.288208,-0.345825,-0.511353,-0.732117
41642284571,0.288025,-0.345581,-0.511353,-0.732239
41642298952,0.288025,-0.345642,-0.511414,-0.732239
41642321350,0.288452,-0.34552,-0.511353,-0.732117
41642344481,0.289001,-0.345459,-0.51123,-0.732056
41642358840,0.289429,-0.345398,-0.510864,-0.732117
41642389527,0.28949,-0.345276,-0.510498,-0.732422
41642404583,0.289307,-0.345276,-0.510193,-0.732666
41642418876,0.28949,-0.345215,-0.510254,-0.732605
41642441448,0.289978,-0.345032,-0.510498,-0.732361
41642463809,0.289978,-0.345032,-0.510498,-0.732361
41642478884,0.289795,-0.345093,-0.510437,-0.732422
41642501395,0.289429,-0.345154,-0.510376,-0.732544
41642523836,0.289429,-0.345154,-0.510376,-0.732605
41642538899,0.289673,-0.345032,-0.510498,-0.732483
41642561465,0.289734,-0.345215,-0.510315,-0.732483
41642583887,0.289429,-0.34552,-0.510254,-0.732544
41642598922,0.28949,-0.345459,-0.510193,-0.732544
41642621405,0.289429,-0.345459,-0.510254,-0.732544
41642643830,0.289429,-0.345703,-0.510254,-0.732422
41642658855,0.289246,-0.346069,-0.510193,-0.732361
41642681500,0.288818,-0.346252,-0.510132,-0.732483
41642703876,0.28833,-0.346436,-0.510071,-0.732605
41642718882,0.288025,-0.346497,-0.510193,-0.732666
41642741373,0.288025,-0.346497,-0.510193,-0.732605
41642763934,0.28772,-0.346558,-0.510315,-0.732666
41642778896,0.28717,-0.34668,-0.510376,-0.732727
41642801380,0.286011,-0.347046,-0.510376,-0.733032
41642823904,0.284912,-0.347473,-0.510498,-0.733215
41642838912,0.284119,-0.347656,-0.510742,-0.733276
41642861379,0.283203,-0.348145,-0.511047,-0.733154
41642883870,0.281921,-0.348999,-0.511475,-0.73291
41642898869,0.280396,-0.349976,-0.511963,-0.732727
41642921360,0.278442,-0.351013,-0.512512,-0.732605
41642943885,0.275879,-0.352478,-0.513123,-0.732422
41642967030,0.272888,-0.354553,-0.513855,-0.731995
41642981368,0.269958,-0.35675,-0.514648,-0.731506
41643003927,0.266846,-0.359009,-0.515259,-0.731079
41643018900,0.263123,-0.361633,-0.51593,-0.730652
41643041448,0.258911,-0.364685,-0.516724,-0.730103
41643063903,0.255188,-0.367676,-0.517639,-0.729248
41643078820,0.250793,-0.370667,-0.518372,-0.72876
41643101361,0.244873,-0.374268,-0.519287,-0.728271
41643123873,0.238525,-0.378357,-0.520325,-0.727539
41643138938,0.233643,-0.381287,-0.52179,-0.726562
41643161450,0.228882,-0.383118,-0.522888,-0.726318
41643183873,0.22229,-0.385559,-0.522827,-0.727112
41643198909,0.215515,-0.388672,-0.522888,-0.727417
41643221315,0.210388,-0.391602,-0.523315,-0.727051
41643243902,0.205872,-0.394714,-0.523254,-0.726685
41643260298,0.201233,-0.398254,-0.522522,-0.726624
41643281436,0.196289,-0.401611,-0.522095,-0.72644
41643303878,0.191528,-0.404541,-0.522339,-0.725891
41643320342,0.187561,-0.40686,-0.523071,-0.725098
41643341419,0.184631,-0.408997,-0.524048,-0.723938
41643363928,0.181702,-0.41156,-0.525146,-0.722473
41643380311,0.178589,-0.414734,-0.526428,-0.720459
41643401357,0.175354,-0.418213,-0.52832,-0.717896
41643423986,0.172607,-0.421265,-0.530884,-0.714844
41643440356,0.169617,-0.424561,-0.53363,-0.711548
41643461466,0.166504,-0.428467,-0.536621,-0.707703
41643483872,0.16333,-0.433228,-0.539856,-0.703064
41643500364,0.160095,-0.438599,-0.543335,-0.697754
41643521289,0.157043,-0.444092,-0.547363,-0.691772
41643543879,0.153625,-0.449707,-0.551758,-0.685425
41643560336,0.149658,-0.455322,-0.556763,-0.678528
41643581394,0.145142,-0.461365,-0.561951,-0.671082
41643603923,0.140625,-0.467346,-0.567078,-0.663574
41643620342,0.136108,-0.473083,-0.572144,-0.656067
41643641442,0.131165,-0.478943,-0.577271,-0.648254
41643663827,0.125549,-0.484741,-0.58313,-0.639771
41643680334,0.11969,-0.490295,-0.589783,-0.630493
41643701365,0.114502,-0.495117,-0.596619,-0.621155
41643723855,0.110046,-0.499207,-0.603577,-0.611938
41643740235,0.104919,-0.503479,-0.610596,-0.602356
41643761373,0.0983276,-0.50824,-0.617859,-0.591919
41643783821,0.0908203,-0.513489,-0.625244,-0.58075
41643800251,0.0844116,-0.518188,-0.632874,-0.569092
41643821299,0.0793457,-0.521729,-0.641113,-0.557312
41643843835,0.0737915,-0.525208,-0.649353,-0.545105
41643860265,0.0666504,-0.529602,-0.65741,-0.531982
41643881398,0.0588989,-0.534241,-0.665161,-0.518433
41643903846,0.0525513,-0.537964,-0.672852,-0.505188
41643920301,0.046875,-0.541199,-0.679993,-0.492615
41643949610,0.039978,-0.545044,-0.686035,-0.480408
41643963871,0.0317993,-0.550232,-0.690979,-0.467896
41643980303,0.0241089,-0.555115,-0.695801,-0.4552
41644001426,0.0184937,-0.55835,-0.701294,-0.442932
41644023873,0.013916,-0.560608,-0.706848,-0.431213
41644040424,0.00769043,-0.563416,-0.711792,-0.419434
41644061407,-0.000305176,-0.567444,-0.715759,-0.407166
41644085292,-0.00793457,-0.571167,-0.71936,-0.395386
41644100398,-0.0149536,-0.574463,-0.722656,-0.384216
41644121410,-0.0224609,-0.578186,-0.725281,-0.373108
41644143972,-0.0308838,-0.582153,-0.727478,-0.361938
41644176015,-0.038147,-0.585144,-0.729919,-0.351379
41644182854,-0.0438232,-0.586792,-0.732788,-0.341797
41644203822,-0.0488892,-0.587646,-0.735901,-0.332947
41644220286,-0.0545654,-0.58905,-0.738281,-0.324219
41644242849,-0.0606689,-0.591125,-0.739746,-0.315857
41644263872,-0.0664673,-0.593384,-0.740662,-0.308228
41644280380,-0.0720215,-0.59552,-0.741272,-0.30127
41644309592,-0.0772705,-0.597412,-0.742004,-0.294373
41644323876,-0.0820923,-0.598755,-0.742859,-0.288147
41644340455,-0.0859985,-0.599365,-0.743958,-0.282837
41644364276,-0.0895386,-0.599548,-0.745117,-0.278259
41644383999,-0.0928345,-0.599609,-0.746277,-0.273987
41644400339,-0.0957031,-0.59906,-0.74762,-0.270325
41644422810,-0.0980225,-0.598145,-0.749146,-0.267395
41644443984,-0.100098,-0.596802,-0.750854,-0.264709
41644460366,-0.102051,-0.595886,-0.752197,-0.262268
41644482870,-0.103516,-0.595703,-0.752747,-0.260498
41644503890,-0.103394,-0.595215,-0.753357,-0.259949
41644520372,-0.102112,-0.593689,-0.754639,-0.260315
41644542839,-0.10083,-0.592285,-0.755737,-0.260803
41644563882,-0.100281,-0.591858,-0.756042,-0.260986
41644580438,-0.100586,-0.59137,-0.756531,-0.260559
41644602903,-0.101074,-0.590271,-0.75769,-0.259521
41644626807,-0.101135,-0.588562,-0.75946,-0.25824
41644640383,-0.100769,-0.585571,-0.762207,-0.257141
41644662877,-0.0999756,-0.581421,-0.765625,-0.256592
41644683960,-0.0992432,-0.576599,-0.769409,-0.25647
41644700398,-0.0985107,-0.572632,-0.772461,-0.256531
41644722874,-0.0980835,-0.570557,-0.773987,-0.256653
41644743946,-0.0979614,-0.570251,-0.774292,-0.25647
41644760430,-0.0979614,-0.570251,-0.774475,-0.256042
41644782135,-0.0977173,-0.569824,-0.774902,-0.255615
41644804556,-0.09729,-0.568909,-0.775696,-0.255493
41644819599,-0.0968628,-0.567688,-0.776611,-0.255676
41644842146,-0.0963745,-0.565796,-0.777771,-0.256409
41644864637,-0.0963745,-0.563171,-0.779297,-0.257629
41644879596,-0.0969238,-0.560242,-0.780884,-0.259033
41644902026,-0.0971069,-0.556763,-0.782776,-0.260742
41644924498,-0.0969849,-0.553528,-0.784607,-0.262207
41644939651,-0.0969849,-0.551636,-0.785645,-0.262939
41644962035,-0.0971069,-0.550659,-0.786316,-0.262939
41644984603,-0.0970459,-0.55011,-0.786804,-0.262756
41644999647,-0.0967407,-0.549622,-0.78717,-0.262634
41645022064,-0.0964355,-0.549377,-0.787354,-0.262817
41645044578,-0.0969238,-0.549622,-0.787109,-0.262817
41645059569,-0.0975342,-0.55011,-0.786682,-0.262817
41645082045,-0.0977783,-0.55011,-0.786682,-0.262817
41645104620,-0.0977783,-0.549744,-0.786926,-0.262817
41645119602,-0.0977783,-0.549316,-0.787231,-0.262756
41645142096,-0.0977783,-0.549255,-0.787231,-0.262756
41645164588,-0.0976562,-0.549561,-0.787048,-0.262939
41645179530,-0.0975952,-0.550232,-0.786377,-0.263428
41645201995,-0.0980225,-0.551208,-0.785583,-0.263672
41645224609,-0.0985718,-0.552002,-0.784912,-0.263733
41645239646,-0.098877,-0.552368,-0.784607,-0.263855
41645262146,-0.098877,-0.552185,-0.784729,-0.263916
41645284615,-0.0986938,-0.551636,-0.785095,-0.263977
41645301057,-0.0986938,-0.551636,-0.785095,-0.263977
41645322117,-0.098877,-0.551819,-0.784912,-0.263977
41645344594,-0.0991821,-0.551941,-0.784851,-0.263916
41645361061,-0.0991821,-0.551941,-0.784851,-0.263916
41645382079,-0.0992432,-0.551575,-0.785034,-0.264038
41645404641,-0.0993652,-0.551086,-0.785339,-0.264221
41645420992,-0.0994873,-0.550598,-0.785583,-0.264343
41645442148,-0.0996704,-0.550293,-0.785767,-0.264526
41645464624,-0.0999146,-0.549988,-0.785889,-0.264587
41645480962,-0.100037,-0.549744,-0.786011,-0.264648
41645502026,-0.10022,-0.549805,-0.78595,-0.264587
41645524631,-0.100342,-0.550293,-0.785645,-0.264526
41645547145,-0.100403,-0.550598,-0.7854,-0.264587
41645562074,-0.100342,-0.550598,-0.7854,-0.264587
41645584712,-0.100342,-0.550598,-0.7854,-0.264587
41645600986,-0.100342,-0.550598,-0.7854,-0.264587
41645622158,-0.100464,-0.550293,-0.785645,-0.264526
41645644633,-0.100708,-0.549988,-0.785828,-0.264465
41645661038,-0.100952,-0.549622,-0.786072,-0.264404
41645682073,-0.101257,-0.549011,-0.786499,-0.264404
41645704584,-0.101624,-0.548523,-0.786743,-0.264404
41645721040,-0.102051,-0.548462,-0.786804,-0.264282
41645742154,-0.102112,-0.548462,-0.786804,-0.264221
41645764600,-0.102112,-0.548462,-0.786804,-0.264221
41645781043,-0.102112,-0.548462,-0.786804,-0.264221
41645802032,-0.102112,-0.548462,-0.786804,-0.264221
41645824565,-0.102051,-0.548462,-0.786804,-0.264282
41645841182,-0.102112,-0.548645,-0.786621,-0.264404
41645862151,-0.102356,-0.548767,-0.786499,-0.264343
41645884693,-0.102356,-0.548767,-0.786499,-0.264343
41645901009,-0.102234,-0.548523,-0.786682,-0.264343
41645922103,-0.102234,-0.548462,-0.786743,-0.264404
41645944579,-0.102417,-0.548645,-0.78656,-0.264404
41645961056,-0.102539,-0.548706,-0.786499,-0.264465
41645982144,-0.1026,-0.54895,-0.786255,-0.264648
41646004643,-0.1026,-0.549316,-0.785889,-0.264954
41646020985,-0.102905,-0.55011,-0.785278,-0.265015
41646042093,-0.10321,-0.55072,-0.78479,-0.264954
41646064507,-0.103271,-0.55072,-0.78479,-0.264954
41646080450,-0.10321,-0.550537,-0.784973,-0.264832
41646102027,-0.103027,-0.550354,-0.785156,-0.264771
41646124600,-0.103027,-0.550293,-0.785217,-0.264771
41646140472,-0.102966,-0.550293,-0.785217,-0.264832
41646162130,-0.102905,-0.550415,-0.785095,-0.264893
41646184672,-0.103027,-0.550659,-0.784973,-0.264771
41646200445,-0.103088,-0.550659,-0.784973,-0.264771
41646222048,-0.102966,-0.550293,-0.785217,-0.264771
41646244593,-0.102783,-0.549988,-0.785461,-0.264771
41646260335,-0.102783,-0.549988,-0.785461,-0.264832
41646283490,-0.102966,-0.550293,-0.785156,-0.264832
41646304544,-0.10321,-0.550659,-0.784912,-0.264771
41646320340,-0.103271,-0.550903,-0.784729,-0.264832
41646343448,-0.103271,-0.550842,-0.78479,-0.264832
41646364546,-0.103271,-0.550842,-0.78479,-0.264832
41646380342,-0.103577,-0.551453,-0.784302,-0.264832
41646403497,-0.104004,-0.552185,-0.783752,-0.264709
41646424580,-0.104309,-0.55249,-0.783569,-0.264587
41646440355,-0.104248,-0.552246,-0.783752,-0.264587
41646463585,-0.104126,-0.551758,-0.784119,-0.264526
41646484713,-0.104004,-0.551514,-0.784302,-0.264587
41646500453,-0.104004,-0.551453,-0.784302,-0.264587
41646523531,-0.104065,-0.551697,-0.784119,-0.264648
41646544640,-0.104065,-0.551636,-0.78418,-0.264648
41646560449,-0.104004,-0.551392,-0.784363,-0.264648
41646583561,-0.103821,-0.551025,-0.784607,-0.264709
41646604655,-0.103821,-0.551025,-0.784607,-0.264709
41646620372,-0.103821,-0.551025,-0.784607,-0.264709
41646643643,-0.103821,-0.550903,-0.784729,-0.264648
41646664647,-0.10376,-0.550659,-0.784912,-0.264587
41646680463,-0.10376,-0.550659,-0.784912,-0.264587
41646703515,-0.10376,-0.550659,-0.784912,-0.264587
41646724620,-0.10376,-0.550659,-0.784912,-0.264648
41646740507,-0.103699,-0.550598,-0.784973,-0.264648
41646763634,-0.103699,-0.550598,-0.784973,-0.264648
41646784655,-0.103577,-0.550842,-0.78479,-0.264771
41646800454,-0.103577,-0.550781,-0.78479,-0.264771
41646823564,-0.103577,-0.550781,-0.78479,-0.264771
41646844644,-0.103577,-0.550781,-0.78479,-0.264771
41646860861,-0.103455,-0.550476,-0.784973,-0.264954
41646883659,-0.103333,-0.549927,-0.785278,-0.265137
41646904667,-0.103333,-0.549377,-0.785706,-0.265198
41646920390,-0.10321,-0.548767,-0.786133,-0.265076
41646943622,-0.103027,-0.54834,-0.786438,-0.265137
41646964594,-0.103027,-0.54834,-0.786438,-0.265137
41646980364,-0.10321,-0.548584,-0.786255,-0.265137
41647002907,-0.10321,-0.548645,-0.786255,-0.265076
41647024668,-0.10321,-0.548523,-0.786316,-0.265076
41647040364,-0.10321,-0.548523,-0.786316,-0.265076
41647062921,-0.103027,-0.548279,-0.786499,-0.265198
41647084614,-0.103027,-0.548218,-0.786499,-0.265198
41647100460,-0.102966,-0.548218,-0.786499,-0.265198
41647122905,-0.103027,-0.54834,-0.786377,-0.265259
41647144684,-0.103088,-0.548645,-0.786194,-0.26532
41647160414,-0.103271,-0.548889,-0.78595,-0.265381
41647182947,-0.103699,-0.549316,-0.785522,-0.265625
41647206060,-0.10498,-0.550476,-0.784363,-0.266174
41647220386,-0.106628,-0.552917,-0.78241,-0.266296
41647242947,-0.108276,-0.55481,-0.780701,-0.266602
41647266064,-0.109436,-0.556152,-0.779419,-0.26709
41647280421,-0.110107,-0.55719,-0.77832,-0.267822
41647302915,-0.110657,-0.558838,-0.776794,-0.268677
41647326056,-0.111023,-0.560364,-0.77533,-0.26947
41647340415,-0.111938,-0.562012,-0.773804,-0.270081
41647362923,-0.112671,-0.564331,-0.771851,-0.270569
41647386047,-0.112244,-0.566589,-0.769836,-0.271606
41647408533,-0.111023,-0.567871,-0.768555,-0.273193
41647422847,-0.110107,-0.567749,-0.76825,-0.274597
41647446038,-0.109558,-0.567261,-0.768188,-0.276062
41647460376,-0.108887,-0.566711,-0.768066,-0.277893
41647482902,-0.107971,-0.566467,-0.767456,-0.280273
41647506027,-0.106506,-0.566223,-0.766663,-0.283447
41647527131,-0.103943,-0.565979,-0.765747,-0.287415
41647542876,-0.100403,-0.565613,-0.764709,-0.292175
41647566027,-0.0963745,-0.565002,-0.76355,-0.297607
41647587050,-0.092041,-0.564392,-0.762146,-0.303589
41647602830,-0.0874023,-0.563965,-0.760437,-0.310059
41647626073,-0.0822754,-0.563721,-0.758118,-0.317444
41647647124,-0.0769653,-0.563721,-0.755371,-0.325317
41647662892,-0.0714722,-0.563904,-0.752075,-0.33374
41647686197,-0.0654907,-0.563843,-0.748535,-0.342896
41647707090,-0.0591431,-0.563416,-0.744751,-0.352844
41647722821,-0.0526123,-0.562683,-0.740784,-0.36322
41647746052,-0.0454712,-0.561768,-0.73645,-0.374268
41647767110,-0.0374146,-0.560364,-0.731873,-0.386108
41647782929,-0.0285034,-0.558167,-0.727051,-0.398865
41647806006,-0.0195923,-0.556091,-0.721619,-0.411987
41647827113,-0.0106812,-0.553772,-0.71582,-0.425293
41647842864,-0.00128174,-0.550964,-0.7099,-0.438843
41647866032,0.00805664,-0.547974,-0.70343,-0.452698
41647887100,0.0172119,-0.545166,-0.696289,-0.466675
41647902875,0.0254517,-0.542908,-0.688599,-0.480103
41647925382,0.032959,-0.540649,-0.680969,-0.49292
41647947120,0.0408936,-0.537537,-0.674194,-0.504944
41647969609,0.0499878,-0.532959,-0.668213,-0.516785
41647985352,0.0588989,-0.528076,-0.662109,-0.528564
41648007137,0.0658569,-0.524719,-0.654907,-0.539978
41648022850,0.071228,-0.522461,-0.647095,-0.55072
41648045350,0.0767212,-0.519897,-0.639587,-0.561157
41648067127,0.0828247,-0.516357,-0.63269,-0.571289
41648082887,0.0888672,-0.513123,-0.625916,-0.580627
41648105368,0.0936279,-0.510742,-0.61908,-0.589233
41648128503,0.0975342,-0.508545,-0.612549,-0.59729
41648142872,0.101257,-0.506348,-0.606506,-0.604614
41648165369,0.105286,-0.504028,-0.601257,-0.611084
41648188582,0.109619,-0.50177,-0.596558,-0.616821
41648202846,0.11377,-0.499451,-0.592285,-0.622009
41648225351,0.117249,-0.497498,-0.587769,-0.627136
41648248508,0.119568,-0.496155,-0.58252,-0.63269
41648262859,0.121155,-0.4953,-0.576965,-0.638123
41648293502,0.122986,-0.494385,-0.571289,-0.643555
41648308560,0.125916,-0.492554,-0.565735,-0.649292
41648331016,0.128845,-0.490723,-0.559753,-0.655273
41648345544,0.130066,-0.488037,-0.554871,-0.661133
41648368568,0.13501,-0.484924,-0.548706,-0.667603
41648382906,0.134155,-0.479675,-0.545715,-0.673889
41648405370,0.134033,-0.479797,-0.540771,-0.677856
41648436083,0.137878,-0.475586,-0.536804,-0.683167
41648442843,0.140076,-0.473022,-0.532471,-0.687866
41648465393,0.141968,-0.470825,-0.528381,-0.692139
41648488562,0.143555,-0.46875,-0.524597,-0.696106
41648509650,0.145142,-0.466736,-0.520996,-0.699829
41648525391,0.147217,-0.4646,-0.5177,-0.703247
41648548559,0.149597,-0.462402,-0.514343,-0.706665
41648569590,0.152283,-0.460266,-0.511108,-0.709839
41648585381,0.155029,-0.458008,-0.508301,-0.712646
41648598928,0.157776,-0.455627,-0.506165,-0.715149
41648621437,0.160034,-0.45343,-0.504211,-0.717407
41648644658,0.161133,-0.451355,-0.502991,-0.719299
41648658921,0.16217,-0.449463,-0.50238,-0.720703
41648681522,0.163757,-0.447754,-0.502014,-0.72168
41648704635,0.165588,-0.446411,-0.501526,-0.722412
41648719004,0.166626,-0.445557,-0.501648,-0.722595
41648741459,0.167419,-0.44458,-0.50238,-0.722534
41648764657,0.169067,-0.443054,-0.502991,-0.722595
41648779009,0.171631,-0.441223,-0.503357,-0.7229
41648802161,0.17395,-0.439697,-0.503357,-0.723267
41648824666,0.176147,-0.438293,-0.502808,-0.723999
41648839017,0.179382,-0.436096,-0.502197,-0.724915
41648861442,0.183105,-0.433655,-0.501648,-0.72583
41648884645,0.186279,-0.431458,-0.500916,-0.726868
41648907098,0.189758,-0.428894,-0.500671,-0.727661
41648921431,0.193054,-0.42627,-0.500793,-0.72821
41648944658,0.196411,-0.423645,-0.50061,-0.728943
41648958971,0.19989,-0.420959,-0.500366,-0.729797
41648981514,0.203735,-0.418274,-0.500061,-0.730469
41649004616,0.207581,-0.415466,-0.500061,-0.730957
41649018984,0.211548,-0.412903,-0.500244,-0.731201
41649041496,0.215576,-0.410339,-0.500366,-0.731323
41649064649,0.219849,-0.40802,-0.500427,-0.731323
41649079012,0.223816,-0.405945,-0.500549,-0.731201
41649101418,0.2276,-0.403748,-0.500977,-0.730957
41649124680,0.231262,-0.40155,-0.501465,-0.730652
41649138975,0.235229,-0.399536,-0.50177,-0.730347
41649161514,0.239563,-0.397461,-0.502014,-0.729858
41649184726,0.243347,-0.395447,-0.502075,-0.729675
41649199064,0.246094,-0.39386,-0.502136,-0.729553
41649221434,0.249023,-0.392212,-0.502136,-0.729431
41649244772,0.252625,-0.390259,-0.502014,-0.72937
41649259045,0.256348,-0.388428,-0.501648,-0.729248
41649281589,0.259399,-0.387207,-0.500916,-0.729309
41649304626,0.261719,-0.386414,-0.500366,-0.729309
41649319017,0.263672,-0.385803,-0.500061,-0.729126
41649341497,0.266113,-0.38501,-0.5,-0.72876
41649364662,0.268311,-0.384094,-0.499634,-0.728638
41649378998,0.269897,-0.383362,-0.499329,-0.728699
41649401528,0.270935,-0.382996,-0.499084,-0.728638
41649424667,0.272156,-0.382568,-0.499268,-0.728271
41649439046,0.273499,-0.382019,-0.49939,-0.727966
41649461590,0.274536,-0.381714,-0.499451,-0.727722
41649484709,0.275024,-0.381592,-0.49939,-0.727661
41649499011,0.27533,-0.381226,-0.499817,-0.727417
41649521556,0.275635,-0.381104,-0.499878,-0.727356
41649544794,0.275818,-0.381226,-0.499695,-0.727356
41649559014,0.276062,-0.381531,-0.499329,-0.727295
41649581506,0.276306,-0.381897,-0.499146,-0.727173
41649604691,0.276367,-0.382324,-0.498901,-0.727051
41649619081,0.276367,-0.382568,-0.498657,-0.727112
41649641566,0.276367,-0.382629,-0.498413,-0.727234
41649664659,0.276062,-0.382812,-0.498108,-0.727478
41649678943,0.275574,-0.382935,-0.497925,-0.727722
41649701487,0.275574,-0.382935,-0.497925,-0.727722
41649724656,0.275818,-0.382507,-0.497925,-0.727844
41649739030,0.275818,-0.382324,-0.49762,-0.728149
41649762930,0.275269,-0.382507,-0.497559,-0.728333
41649784630,0.274658,-0.382751,-0.497498,-0.728455
41649798943,0.27417,-0.382812,-0.497498,-0.728638
41649821454,0.273682,-0.382874,-0.497559,-0.728699
41649844627,0.273193,-0.383057,-0.497803,-0.728638
41649858948,0.272278,-0.383484,-0.498047,-0.728577
41649881472,0.270813,-0.383972,-0.498169,-0.72876
41649904708,0.268982,-0.384705,-0.498291,-0.729004
41649919081,0.266907,-0.385376,-0.498657,-0.729126
41649941541,0.264954,-0.386047,-0.499268,-0.729065
41649964666,0.262939,-0.386902,-0.499695,-0.729065
41649979101,0.26062,-0.387756,-0.5,-0.729248
41650001453,0.258057,-0.388733,-0.500244,-0.729492
41650024016,0.255554,-0.389709,-0.500549,-0.729614
41650039019,0.253235,-0.390869,-0.500854,-0.729614
41650061609,0.250793,-0.392151,-0.500977,-0.729675
41650084100,0.248169,-0.393494,-0.501038,-0.729797
41650099019,0.245544,-0.395142,-0.50116,-0.729736
41650121485,0.243103,-0.396912,-0.501709,-0.729187
41650144057,0.241028,-0.398743,-0.502563,-0.728333
41650159016,0.23822,-0.40094,-0.503418,-0.727417
41650181568,0.235046,-0.403687,-0.504517,-0.726196
41650204040,0.231873,-0.407227,-0.505676,-0.724426
41650219067,0.22998,-0.410767,-0.506714,-0.72229
41650241514,0.228333,-0.413452,-0.507568,-0.720703
41650264026,0.225037,-0.416626,-0.507996,-0.719543
41650279074,0.22052,-0.419983,-0.508118,-0.718994
41650301529,0.217346,-0.422729,-0.508545,-0.718018
41650324057,0.215088,-0.424988,-0.509155,-0.716919
41650339066,0.212402,-0.427612,-0.509644,-0.71582
41650361553,0.208862,-0.430786,-0.510193,-0.714539
41650383981,0.205994,-0.43396,-0.511047,-0.71283
41650399121,0.204224,-0.436462,-0.512451,-0.710815
41650421589,0.201538,-0.438599,-0.513794,-0.70929
41650444047,0.197937,-0.441406,-0.515503,-0.707336
41650459004,0.194458,-0.44458,-0.517944,-0.704529
41650481568,0.192261,-0.44751,-0.521179,-0.700867
41650504031,0.190247,-0.450562,-0.52478,-0.696777
41650519054,0.187561,-0.453735,-0.528503,-0.692627
41650541516,0.184326,-0.457214,-0.53241,-0.688171
41650564091,0.180481,-0.461426,-0.536743,-0.683044
41650579033,0.17572,-0.466064,-0.541687,-0.677185
41650601513,0.170227,-0.471191,-0.54718,-0.670593
41650624063,0.164917,-0.476624,-0.553101,-0.663208
41650647230,0.1604,-0.481934,-0.559631,-0.654968
41650661538,0.156189,-0.487183,-0.56665,-0.645935
41650685456,0.150818,-0.493103,-0.573853,-0.636292
41650699056,0.143555,-0.500244,-0.58075,-0.626099
41650721505,0.135803,-0.507874,-0.587341,-0.615417
41650744045,0.128723,-0.515076,-0.593994,-0.604431
41650759074,0.121643,-0.52179,-0.600769,-0.593384
41650781534,0.113525,-0.528809,-0.607117,-0.582214
41650804041,0.104858,-0.535767,-0.613403,-0.57074
41650820483,0.0968018,-0.541931,-0.620056,-0.559082
41650841554,0.0894775,-0.546814,-0.626892,-0.547791
41650864118,0.081665,-0.551147,-0.63385,-0.53656
41650880437,0.0720825,-0.556335,-0.640259,-0.524902
41650901572,0.0623169,-0.561462,-0.646606,-0.512756
41650924041,0.0540161,-0.565613,-0.653137,-0.500671
41650940469,0.0464478,-0.56897,-0.659546,-0.489075
41650961603,0.0375977,-0.572754,-0.665283,-0.4776
41650985517,0.0273438,-0.577209,-0.670105,-0.465942
41651000497,0.0180054,-0.581055,-0.675049,-0.454407
41651021522,0.010376,-0.583435,-0.680237,-0.443726
41651044097,0.00262451,-0.58606,-0.684692,-0.433411
41651060417,-0.00671387,-0.589661,-0.688293,-0.422668
41651081653,-0.0158081,-0.592834,-0.692017,-0.411621
41651104173,-0.022644,-0.594421,-0.696472,-0.40155
41651120457,-0.0281372,-0.595581,-0.700378,-0.392517
41651141528,-0.0346069,-0.597595,-0.703186,-0.383728
41651164064,-0.0420532,-0.600281,-0.705322,-0.374817
41651181956,-0.0484009,-0.602173,-0.707825,-0.366272
41651201624,-0.0527344,-0.602844,-0.710876,-0.358582
41651224064,-0.0564575,-0.603271,-0.713623,-0.351685
41651240467,-0.0615234,-0.604675,-0.715332,-0.344971
41651261550,-0.0673828,-0.60675,-0.716309,-0.338135
41651284032,-0.0720825,-0.608337,-0.717407,-0.331909
41651300545,-0.0751343,-0.609131,-0.718811,-0.32666
41651321506,-0.0780029,-0.609924,-0.720032,-0.321716
41651344065,-0.081604,-0.611084,-0.720886,-0.316772
41651360505,-0.085083,-0.611877,-0.721802,-0.312195
41651381505,-0.0869751,-0.611694,-0.723145,-0.308838
41651412270,-0.0880737,-0.611572,-0.724243,-0.306274
41651420530,-0.0895386,-0.611877,-0.724854,-0.303833
41651441593,-0.0912476,-0.612488,-0.725098,-0.301392
41651464074,-0.0926514,-0.612549,-0.72583,-0.299194
41651480566,-0.093689,-0.612305,-0.726685,-0.29718
41651501504,-0.0949097,-0.612183,-0.727478,-0.295166
41651524017,-0.0968018,-0.612366,-0.728088,-0.292664
41651540474,-0.098999,-0.61261,-0.728638,-0.289978
41651569828,-0.100891,-0.61261,-0.729431,-0.287292
41651584107,-0.102722,-0.612488,-0.730347,-0.284607
41651600493,-0.105469,-0.612549,-0.731079,-0.281677
41651621535,-0.108765,-0.612976,-0.731445,-0.278442
41651644165,-0.111755,-0.613464,-0.731628,-0.275696
41651660522,-0.112366,-0.613159,-0.732361,-0.274292
41651681629,-0.109985,-0.610474,-0.73468,-0.274963
41651704125,-0.107056,-0.608337,-0.736328,-0.276428
41651720555,-0.105957,-0.608948,-0.735657,-0.277222
41651742988,-0.106384,-0.61084,-0.734192,-0.276917
41651764071,-0.106934,-0.611877,-0.733521,-0.276123
41651780508,-0.10675,-0.611511,-0.73407,-0.275513
41651802973,-0.106018,-0.610291,-0.735291,-0.27533
41651824149,-0.10553,-0.608948,-0.736389,-0.27533
41651840544,-0.105469,-0.608398,-0.736938,-0.275269
41651863055,-0.105408,-0.608521,-0.736938,-0.274963
41651884080,-0.104797,-0.609009,-0.736694,-0.27478
41651900512,-0.10376,-0.609436,-0.736511,-0.27478
41651923037,-0.102478,-0.609741,-0.736511,-0.274536
41651944159,-0.101379,-0.609924,-0.736694,-0.274048
41651960560,-0.100769,-0.610352,-0.736694,-0.273376
41651983032,-0.100281,-0.611084,-0.736328,-0.272888
41652004043,-0.0997314,-0.611267,-0.736267,-0.272827
41652020552,-0.0993042,-0.611145,-0.73645,-0.272766
41652042974,-0.0992432,-0.610962,-0.736633,-0.272522
41652064015,-0.0990601,-0.610779,-0.737,-0.272278
41652088010,-0.0986328,-0.61084,-0.737061,-0.271973
41652102944,-0.0983276,-0.611511,-0.736572,-0.271851
41652124057,-0.0983276,-0.612366,-0.735962,-0.271667
41652140470,-0.0986938,-0.613281,-0.735291,-0.27124
41652162984,-0.0988159,-0.613831,-0.735046,-0.270752
41652184102,-0.0983276,-0.613708,-0.735168,-0.270691
41652200527,-0.0978394,-0.613708,-0.735229,-0.270813
41652223055,-0.0977173,-0.614075,-0.734985,-0.270691
41652244137,-0.0978394,-0.614624,-0.734619,-0.270447
41652260477,-0.0980835,-0.615234,-0.734192,-0.270081
41652283021,-0.0982666,-0.615723,-0.733887,-0.269775
41652304019,-0.0982666,-0.616028,-0.733704,-0.269531
41652320513,-0.0980835,-0.61615,-0.733704,-0.269409
41652343088,-0.0980225,-0.616394,-0.733521,-0.269226
41652364073,-0.0981445,-0.617004,-0.733093,-0.26886
41652380638,-0.0981445,-0.617554,-0.732788,-0.268555
41652402998,-0.0981445,-0.618225,-0.7323,-0.268433
41652424741,-0.0981445,-0.618835,-0.73175,-0.268433
41652439742,-0.0980835,-0.619385,-0.731262,-0.268494
41652462273,-0.0980835,-0.619873,-0.730896,-0.268433
41652484784,-0.0981445,-0.620544,-0.730347,-0.268311
41652499769,-0.0983276,-0.621399,-0.729614,-0.268188
41652522159,-0.0985107,-0.622253,-0.728943,-0.268066
41652544670,-0.0985718,-0.622742,-0.728516,-0.268005
41652559763,-0.0987549,-0.623108,-0.72821,-0.267944
41652582289,-0.0991211,-0.623901,-0.7276,-0.2677
41652604721,-0.0993652,-0.624878,-0.726807,-0.267334
41652619768,-0.0994873,-0.625854,-0.726135,-0.266968
41652642255,-0.0995483,-0.626465,-0.725647,-0.266724
41652664819,-0.0996704,-0.627319,-0.724976,-0.266602
41652679769,-0.100037,-0.62854,-0.723938,-0.266418
41652702211,-0.100159,-0.629639,-0.723083,-0.266052
41652724821,-0.100098,-0.630676,-0.722229,-0.266052
41652739679,-0.0998535,-0.631592,-0.721375,-0.266235
41652762271,-0.0998535,-0.632202,-0.720703,-0.266479
41652784784,-0.10022,-0.632996,-0.71991,-0.266602
41652799785,-0.100647,-0.633423,-0.719543,-0.266602
41652822320,-0.10083,-0.633362,-0.719482,-0.266724
41652844801,-0.100891,-0.63324,-0.719421,-0.267029
41652861262,-0.101196,-0.633362,-0.719177,-0.267456
41652882287,-0.101257,-0.633484,-0.718872,-0.267883
41652904726,-0.101257,-0.633545,-0.718628,-0.268372
41652921227,-0.101318,-0.633667,-0.718384,-0.268799
41652942384,-0.101379,-0.633423,-0.718323,-0.269409
41652964754,-0.101501,-0.633179,-0.718323,-0.27002
41652981206,-0.101807,-0.633118,-0.71814,-0.270569
41653002166,-0.101929,-0.632935,-0.718018,-0.271057
41653024769,-0.101868,-0.632385,-0.718384,-0.271667
41653042653,-0.101562,-0.631348,-0.718994,-0.272583
41653062269,-0.101624,-0.630859,-0.719116,-0.273315
41653084793,-0.101929,-0.630493,-0.719238,-0.273743
41653101151,-0.102295,-0.630127,-0.719421,-0.273865
41653122244,-0.102417,-0.6297,-0.719788,-0.273865
41653144545,-0.102417,-0.629395,-0.720032,-0.273926
41653161209,-0.102356,-0.629333,-0.720093,-0.273926
41653182333,-0.102661,-0.6297,-0.719788,-0.273682
41653204759,-0.102905,-0.630127,-0.719482,-0.273499
41653221222,-0.103088,-0.63031,-0.71936,-0.273376
41653242423,-0.103027,-0.630188,-0.719421,-0.273438
41653264804,-0.102783,-0.629761,-0.719788,-0.273499
41653281255,-0.102661,-0.629272,-0.720276,-0.273376
41653302181,-0.102661,-0.628845,-0.720764,-0.273193
41653324690,-0.1026,-0.628235,-0.721375,-0.273071
41653341213,-0.102539,-0.627747,-0.721863,-0.272888
41653362332,-0.102478,-0.627258,-0.72229,-0.272827
41653384814,-0.102417,-0.626831,-0.722717,-0.272766
41653401192,-0.102234,-0.626404,-0.723083,-0.272705
41653422221,-0.102112,-0.625977,-0.72345,-0.272766
41653444791,-0.102112,-0.625732,-0.723755,-0.272705
41653461210,-0.102112,-0.625732,-0.723755,-0.272705
41653482197,-0.102295,-0.625488,-0.723938,-0.272583
41653504803,-0.102417,-0.625244,-0.724182,-0.272522
41653521246,-0.102417,-0.624817,-0.724487,-0.272583
41653542319,-0.102356,-0.624268,-0.724976,-0.272705
41653564767,-0.102356,-0.623779,-0.725342,-0.272827
41653581240,-0.102173,-0.62323,-0.725769,-0.272949
41653602306,-0.102112,-0.623169,-0.725769,-0.27301
41653624816,-0.102417,-0.623474,-0.725525,-0.272949
41653640566,-0.102539,-0.623535,-0.725403,-0.273071
41653662306,-0.102539,-0.622986,-0.72583,-0.273254
41653684831,-0.102539,-0.622253,-0.72644,-0.273193
41653707272,-0.102417,-0.621948,-0.726746,-0.273315
41653722373,-0.101624,-0.620667,-0.727661,-0.274048
41653744834,-0.101013,-0.619507,-0.728394,-0.274902
41653760531,-0.100891,-0.619202,-0.728455,-0.275513
41653782349,-0.101196,-0.619263,-0.728271,-0.275635
41653804708,-0.10144,-0.61908,-0.728516,-0.275452
41653820586,-0.101379,-0.618469,-0.729004,-0.275513
41653843686,-0.101196,-0.617798,-0.729431,-0.275879
41653864804,-0.101135,-0.61731,-0.729736,-0.276245
41653880537,-0.101379,-0.617004,-0.729919,-0.276367
41653903707,-0.101196,-0.61615,-0.730591,-0.27655
41653924764,-0.100769,-0.615051,-0.731445,-0.276917
41653940503,-0.100464,-0.614258,-0.731934,-0.277405
41653963704,-0.100647,-0.614258,-0.731873,-0.277588
41653986318,-0.100647,-0.614258,-0.73175,-0.277832
41654000618,-0.10022,-0.613342,-0.732361,-0.278503
41654023733,-0.100037,-0.611816,-0.733459,-0.279053
41654044780,-0.100098,-0.610657,-0.734192,-0.27948
41654060523,-0.100037,-0.609741,-0.73468,-0.280273
41654083703,-0.100098,-0.609741,-0.734314,-0.281189
41654104842,-0.100647,-0.610596,-0.733459,-0.281433
41654120592,-0.101501,-0.612183,-0.731934,-0.281616
41654145126,-0.101807,-0.613281,-0.730469,-0.282837
41654164811,-0.102173,-0.613708,-0.728943,-0.285767
41654180504,-0.102539,-0.613403,-0.727722,-0.289368
41654203708,-0.101746,-0.612854,-0.726807,-0.293091
41654224787,-0.098938,-0.610962,-0.727051,-0.297424
41654240645,-0.0942383,-0.606812,-0.728882,-0.302856
41654263731,-0.0895996,-0.602417,-0.730591,-0.30896
41654284801,-0.0861816,-0.598267,-0.731567,-0.315613
41654300578,-0.0834351,-0.59436,-0.732117,-0.322388
41654323667,-0.0808716,-0.589783,-0.732849,-0.329651
41654344746,-0.0782471,-0.583557,-0.734619,-0.337402
41654360467,-0.0756836,-0.575623,-0.737305,-0.345581
41654383660,-0.0738525,-0.567139,-0.739929,-0.35437
41654404790,-0.0731201,-0.558716,-0.741882,-0.363586
41654420497,-0.0734253,-0.551758,-0.74231,-0.373169
41654443650,-0.0733032,-0.544312,-0.742737,-0.383179
41654464697,-0.0733032,-0.536133,-0.743469,-0.393066
41654480983,-0.0727539,-0.528503,-0.744324,-0.401917
41654503631,-0.0719604,-0.52124,-0.745117,-0.409912
41654524737,-0.0718994,-0.515137,-0.744751,-0.418213
41654540499,-0.0741577,-0.511658,-0.742126,-0.426697
41654563701,-0.0792236,-0.510742,-0.737061,-0.435486
41654584756,-0.0863647,-0.510681,-0.730835,-0.444641
41654600499,-0.093689,-0.509827,-0.724976,-0.453735
41654623103,-0.10022,-0.506653,-0.720581,-0.462708
41654644766,-0.10553,-0.500366,-0.718018,-0.47229
41654660539,-0.109741,-0.489746,-0.717529,-0.483032
41654683145,-0.114197,-0.476562,-0.717712,-0.494751
41654704720,-0.1203,-0.463623,-0.717102,-0.506409
41654720558,-0.12854,-0.452332,-0.715149,-0.517273
41654743049,-0.138306,-0.440491,-0.71283,-0.528015
41654766267,-0.147522,-0.425171,-0.711914,-0.539185
41654780621,-0.155823,-0.407959,-0.712036,-0.549866
41654803051,-0.163452,-0.390869,-0.712219,-0.559753
41654826279,-0.170532,-0.374146,-0.712341,-0.568909
41654840565,-0.177551,-0.356873,-0.712769,-0.577209
41654863100,-0.185547,-0.340393,-0.713013,-0.584351
41654886217,-0.194763,-0.325928,-0.712524,-0.590149
41654900557,-0.205566,-0.314209,-0.71106,-0.594543
41654923111,-0.215881,-0.304138,-0.709412,-0.598145
41654946268,-0.224426,-0.294739,-0.708008,-0.601318
41654960610,-0.231995,-0.286011,-0.706726,-0.604187
41654983088,-0.239502,-0.27887,-0.705078,-0.606506
41655006299,-0.247009,-0.273254,-0.702881,-0.608582
41655027315,-0.25415,-0.268738,-0.7005,-0.610352
41655043106,-0.261353,-0.266724,-0.697998,-0.611084
41655066235,-0.266357,-0.268127,-0.69574,-0.610901
41655087228,-0.266418,-0.269714,-0.69519,-0.61084
41655103060,-0.262817,-0.269897,-0.695679,-0.611755
41655126172,-0.259888,-0.271301,-0.695679,-0.612366
41655147316,-0.258545,-0.273438,-0.695496,-0.612183
41655163128,-0.258057,-0.274902,-0.695251,-0.612
41655186281,-0.25885,-0.27594,-0.694641,-0.611938
41655200608,-0.260559,-0.276062,-0.693909,-0.612
41655223097,-0.262146,-0.273987,-0.693604,-0.61261
41655246188,-0.262695,-0.27002,-0.69342,-0.614258
41655267286,-0.263,-0.26532,-0.692871,-0.616821
41655283118,-0.263428,-0.260498,-0.692017,-0.619629
41655306193,-0.263428,-0.25531,-0.690918,-0.623047
41655327336,-0.262634,-0.249756,-0.689392,-0.627258
41655343071,-0.261108,-0.24408,-0.687927,-0.631775
41655366245,-0.259216,-0.238892,-0.686646,-0.635864
41655387389,-0.257935,-0.235046,-0.685608,-0.638977
41655403076,-0.257385,-0.232788,-0.684875,-0.640808
41655426284,-0.256775,-0.231445,-0.684509,-0.641907
41655447379,-0.256348,-0.231079,-0.684448,-0.642273
41655463100,-0.25647,-0.231262,-0.68457,-0.641968
41655486265,-0.257141,-0.232056,-0.684753,-0.641296
41655507283,-0.258179,-0.233154,-0.684814,-0.640442
41655523076,-0.258911,-0.234131,-0.684753,-0.639832
41655545624,-0.259155,-0.234619,-0.684631,-0.639648
41655567370,-0.258911,-0.234558,-0.684631,-0.639832
41655583116,-0.258423,-0.233948,-0.684631,-0.640198
41655605631,-0.257935,-0.233154,-0.684692,-0.640625
41655627357,-0.257996,-0.232727,-0.684631,-0.640869
41655643120,-0.258545,-0.232605,-0.684509,-0.640808
41655665617,-0.259216,-0.232727,-0.684387,-0.640625
41655687348,-0.25946,-0.232605,-0.684387,-0.640564
41655703057,-0.259583,-0.232361,-0.684326,-0.640625
41655725595,-0.259583,-0.2323,-0.684265,-0.640747
41655748747,-0.259705,-0.232422,-0.684082,-0.640869
41655763099,-0.260071,-0.232666,-0.683838,-0.640869
41655785607,-0.260071,-0.232727,-0.683777,-0.640869
41655808763,-0.260071,-0.232788,-0.683777,-0.640869
41655823136,-0.260071,-0.233032,-0.683716,-0.640869
41655853792,-0.260254,-0.233337,-0.683533,-0.640869
41655868762,-0.260498,-0.233521,-0.683411,-0.640808
41655883132,-0.260498,-0.233521,-0.683411,-0.640808
41655905610,-0.26062,-0.233643,-0.683472,-0.640686
41655928806,-0.260986,-0.234131,-0.683472,-0.64032
41655943106,-0.261353,-0.23468,-0.683411,-0.640076
41655965586,-0.261719,-0.235229,-0.683289,-0.639893
41655988758,-0.262024,-0.235657,-0.683167,-0.639648
41656003109,-0.26239,-0.236084,-0.683105,-0.639465
41656025695,-0.262573,-0.23645,-0.682983,-0.639343
41656048775,-0.262573,-0.23645,-0.682983,-0.639343
41656063092,-0.262573,-0.23645,-0.682983,-0.639343
41656085563,-0.262451,-0.236389,-0.682861,-0.639587
41656108728,-0.262329,-0.236084,-0.6828,-0.639832
41656123063,-0.262268,-0.23584,-0.682678,-0.640015
41656145655,-0.262268,-0.235657,-0.682617,-0.640137
41656168741,-0.262512,-0.235718,-0.682495,-0.640198
41656183082,-0.262634,-0.235718,-0.682312,-0.64032
41656205635,-0.262573,-0.235535,-0.682251,-0.640503
41656228770,-0.262634,-0.235352,-0.68219,-0.640564
41656241624,-0.262573,-0.234863,-0.682312,-0.640686
41656264853,-0.262756,-0.234619,-0.68219,-0.640808
41656279179,-0.263184,-0.23468,-0.681946,-0.640869
41656301629,-0.263184,-0.234558,-0.681824,-0.641052
41656324841,-0.263184,-0.234558,-0.681824,-0.641052
41656339155,-0.263428,-0.234924,-0.681824,-0.640869
41656361725,-0.263672,-0.235413,-0.681763,-0.640625
41656384861,-0.263733,-0.235779,-0.681702,-0.640503
41656399228,-0.263855,-0.236084,-0.681641,-0.640442
41656421628,-0.263794,-0.236084,-0.681641,-0.640442
41656444895,-0.263733,-0.236328,-0.681641,-0.64032
41656459217,-0.263733,-0.236633,-0.681641,-0.640259
41656481801,-0.263733,-0.236694,-0.681641,-0.640259
41656504879,-0.263672,-0.236694,-0.681641,-0.640259
41656519283,-0.263672,-0.236694,-0.681641,-0.640259
41656541608,-0.263611,-0.236694,-0.681641,-0.640259
41656564822,-0.263733,-0.236877,-0.681519,-0.640259
41656579203,-0.263733,-0.236877,-0.681519,-0.640259
41656601571,-0.263489,-0.236633,-0.68158,-0.640381
41656624872,-0.263245,-0.236389,-0.68158,-0.640564
41656639168,-0.263245,-0.236389,-0.68158,-0.640564
41656661661,-0.263245,-0.236389,-0.68158,-0.640564
41656684832,-0.263062,-0.236267,-0.681641,-0.640686
41656699171,-0.262695,-0.236084,-0.681641,-0.640869
41656721700,-0.262634,-0.236084,-0.681641,-0.64093
41656744891,-0.262756,-0.236328,-0.681641,-0.640808
41656759215,-0.262817,-0.236572,-0.681641,-0.640686
41656781768,-0.262756,-0.236572,-0.681641,-0.640686
41656804851,-0.262451,-0.23645,-0.68158,-0.640869
41656819205,-0.262451,-0.236389,-0.681396,-0.641113
41656841652,-0.261902,-0.236023,-0.681213,-0.641663
41656864849,-0.260559,-0.235107,-0.681213,-0.642578
41656879178,-0.259094,-0.23407,-0.681274,-0.643494
41656901640,-0.257935,-0.233093,-0.68103,-0.644531
41656933022,-0.256287,-0.231323,-0.680847,-0.646057
41656939145,-0.253662,-0.228271,-0.680664,-0.648315
41656961730,-0.250427,-0.223999,-0.680359,-0.651428
41656984841,-0.246887,-0.219116,-0.679871,-0.654907
41656999225,-0.243591,-0.214294,-0.679382,-0.658264
41657021734,-0.23999,-0.208984,-0.678711,-0.661926
41657044848,-0.23645,-0.203369,-0.677917,-0.665771
41657059193,-0.233948,-0.198181,-0.677002,-0.669128
41657081674,-0.232727,-0.19397,-0.675964,-0.671875
41657104851,-0.2323,-0.190613,-0.674866,-0.674011
41657119248,-0.232544,-0.188232,-0.673889,-0.675659
41657141761,-0.232971,-0.186523,-0.673035,-0.676819
41657164838,-0.232849,-0.184509,-0.672607,-0.677856
41657179231,-0.232666,-0.182678,-0.67218,-0.678772
41657201618,-0.233276,-0.181885,-0.671692,-0.679321
41657224902,-0.234436,-0.181702,-0.671204,-0.679443
41657239204,-0.235352,-0.181641,-0.670837,-0.679443
41657261685,-0.235657,-0.181519,-0.670593,-0.679626
41657284836,-0.235657,-0.181213,-0.670593,-0.679749
41657299216,-0.235962,-0.181396,-0.670593,-0.679565
41657321726,-0.236938,-0.18219,-0.670532,-0.679077
41657344872,-0.238037,-0.182983,-0.670532,-0.678528
41657359193,-0.238403,-0.18335,-0.670532,-0.678223
41657381727,-0.238403,-0.18335,-0.670532,-0.678284
41657404881,-0.23822,-0.183472,-0.670654,-0.678223
41657419148,-0.238647,-0.183899,-0.670593,-0.677979
41657441726,-0.23938,-0.184448,-0.670593,-0.677551
41657464879,-0.239746,-0.18457,-0.670654,-0.677368
41657479192,-0.239868,-0.18457,-0.670715,-0.677185
41657501603,-0.240234,-0.184875,-0.670715,-0.677002
41657524947,-0.240479,-0.185181,-0.670654,-0.67688
41657539183,-0.240479,-0.185364,-0.670654,-0.67688
41657561716,-0.240479,-0.185364,-0.670654,-0.67688
41657584859,-0.240601,-0.185547,-0.670715,-0.676697
41657599174,-0.241089,-0.186218,-0.670654,-0.676453
41657621779,-0.241394,-0.18689,-0.670593,-0.676147
41657644265,-0.241516,-0.187317,-0.670654,-0.675964
41657659262,-0.241638,-0.187622,-0.670593,-0.675903
41657681691,-0.241638,-0.187561,-0.670593,-0.675903
41657704183,-0.241821,-0.187988,-0.670593,-0.675781
41657719144,-0.241943,-0.188293,-0.670593,-0.675598
41657741701,-0.241943,-0.188293,-0.670593,-0.675598
41657764204,-0.241882,-0.188293,-0.670532,-0.675659
41657779205,-0.242065,-0.188416,-0.670532,-0.675598
41657801738,-0.242371,-0.188599,-0.670471,-0.675476
41657825654,-0.242615,-0.188782,-0.67041,-0.675415
41657839217,-0.242676,-0.188782,-0.67041,-0.675415
41657861701,-0.242615,-0.188782,-0.67041,-0.675415
41657884254,-0.242615,-0.188782,-0.67041,-0.675415
41657899239,-0.242859,-0.188965,-0.67041,-0.675293
41657921723,-0.243042,-0.189209,-0.67041,-0.67511
41657944166,-0.243042,-0.189209,-0.67041,-0.67511
41657960659,-0.242737,-0.189148,-0.67041,-0.675232
41657981723,-0.24231,-0.188904,-0.67041,-0.675476
41658004187,-0.24231,-0.188843,-0.67041,-0.675476
41658019249,-0.242798,-0.189087,-0.670349,-0.675293
41658041731,-0.243164,-0.189453,-0.670288,-0.67511
41658064222,-0.243469,-0.189636,-0.670227,-0.674988
41658079215,-0.243408,-0.189636,-0.670227,-0.674988
41658101757,-0.243408,-0.189636,-0.670227,-0.675049
41658124201,-0.243347,-0.189636,-0.670288,-0.675049
41658139238,-0.24353,-0.189758,-0.670227,-0.674927
41658161741,-0.243652,-0.189941,-0.670166,-0.674927
41658184211,-0.243652,-0.189941,-0.670166,-0.674927
41658199246,-0.243713,-0.189941,-0.670166,-0.674927
41658221770,-0.243469,-0.189697,-0.670166,-0.675049
41658244205,-0.243469,-0.189697,-0.670166,-0.675049
41658259196,-0.243591,-0.189758,-0.670166,-0.675049
41658281740,-0.243835,-0.189819,-0.670105,-0.674988
41658304250,-0.243835,-0.18988,-0.670105,-0.674988
41658327372,-0.243774,-0.18988,-0.670105,-0.674988
41658341695,-0.243774,-0.18988,-0.670105,-0.674988
41658365667,-0.243774,-0.18988,-0.670105,-0.674988
41658380633,-0.243774,-0.18988,-0.670044,-0.674988
41658401646,-0.243774,-0.18988,-0.670044,-0.674988
41658424306,-0.243774,-0.18988,-0.670105,-0.674988
41658440647,-0.243713,-0.18988,-0.670105,-0.674988
41658461719,-0.243713,-0.18988,-0.670105,-0.675049
41658485648,-0.243652,-0.18988,-0.670105,-0.675049
41658500626,-0.243774,-0.189941,-0.670105,-0.674927
41658521717,-0.24408,-0.190186,-0.670044,-0.674805
41658544220,-0.244385,-0.19043,-0.669983,-0.674683
41658560750,-0.244385,-0.19043,-0.670044,-0.674683
41658581735,-0.244385,-0.19043,-0.670044,-0.674683
41658604235,-0.244385,-0.19043,-0.670044,-0.674683
41658620725,-0.244385,-0.19043,-0.670044,-0.674683
41658641740,-0.244324,-0.19043,-0.670044,-0.674683
41658664300,-0.244263,-0.19043,-0.670044,-0.674744
41658680700,-0.244263,-0.19043,-0.670044,-0.674744
41658701660,-0.244507,-0.190613,-0.669922,-0.674683
41658724290,-0.244507,-0.190613,-0.669922,-0.674683
41658740604,-0.244507,-0.190613,-0.669922,-0.674683
41658761738,-0.244995,-0.190918,-0.6698,-0.6745
41658784249,-0.245056,-0.190979,-0.6698,-0.6745
41658800690,-0.244385,-0.190613,-0.669922,-0.674683
41658821715,-0.244507,-0.190857,-0.669861,-0.674683
41658844175,-0.244751,-0.190979,-0.669739,-0.674683
41658860666,-0.244568,-0.190857,-0.669739,-0.674744
41658881760,-0.244507,-0.190857,-0.669739,-0.674744
41658904218,-0.244507,-0.190857,-0.669739,-0.674744
41658920734,-0.244629,-0.190979,-0.6698,-0.674683
41658941706,-0.244629,-0.190918,-0.6698,-0.674683
41658964212,-0.244629,-0.190918,-0.6698,-0.674683
41658980594,-0.244629,-0.190918,-0.6698,-0.674683
41659001647,-0.244629,-0.190918,-0.6698,-0.674683
41659024191,-0.244568,-0.190918,-0.6698,-0.674683
41659040673,-0.244507,-0.190918,-0.6698,-0.674683
41659061743,-0.244507,-0.190918,-0.6698,-0.674744
41659084262,-0.244507,-0.190918,-0.6698,-0.674744
41659100650,-0.244507,-0.190918,-0.6698,-0.674744
41659121789,-0.244446,-0.190918,-0.6698,-0.674744
41659144244,-0.244446,-0.190918,-0.6698,-0.674744
41659162120,-0.244446,-0.190918,-0.6698,-0.674744
41659181787,-0.244385,-0.190918,-0.6698,-0.674744
41659204215,-0.244385,-0.190918,-0.6698,-0.674744
41659220674,-0.244446,-0.191101,-0.6698,-0.674683
41659249890,-0.244629,-0.191284,-0.669861,-0.6745
41659264176,-0.244751,-0.19165,-0.669922,-0.674316
41659295605,-0.244751,-0.19165,-0.669861,-0.674316
41659301654,-0.24469,-0.19165,-0.669922,-0.674377
41659324242,-0.244629,-0.19165,-0.669922,-0.674377
41659340648,-0.244934,-0.191895,-0.669922,-0.674194
41659363167,-0.245178,-0.192139,-0.669861,-0.674072
41659384287,-0.245178,-0.192139,-0.6698,-0.674072
41659400708,-0.244995,-0.191956,-0.669861,-0.674194
41659423173,-0.244995,-0.191895,-0.669861,-0.674194
41659444204,-0.245056,-0.192078,-0.669861,-0.674133
41659460638,-0.245239,-0.192322,-0.6698,-0.674011
41659483170,-0.245239,-0.192322,-0.6698,-0.674072
41659504273,-0.245239,-0.192322,-0.6698,-0.674072
41659520715,-0.245239,-0.192383,-0.6698,-0.674011
41659543166,-0.245544,-0.192749,-0.6698,-0.673828
41659564214,-0.245789,-0.193115,-0.6698,-0.673645
41659580682,-0.245789,-0.193115,-0.6698,-0.673645
41659603203,-0.245789,-0.193115,-0.6698,-0.673645
41659624230,-0.245728,-0.193115,-0.6698,-0.673645
41659640652,-0.24585,-0.193237,-0.6698,-0.673584
41659663170,-0.246033,-0.193481,-0.6698,-0.673462
41659684170,-0.246033,-0.193481,-0.669739,-0.673462
41659700739,-0.245972,-0.193481,-0.669739,-0.673462
41659723119,-0.245972,-0.193481,-0.6698,-0.673462
41659744215,-0.245911,-0.193481,-0.6698,-0.673462
41659766756,-0.246033,-0.193665,-0.669739,-0.673401
41659783181,-0.246033,-0.193665,-0.669739,-0.673401
41659804192,-0.246033,-0.193665,-0.669739,-0.673462
41659820680,-0.245972,-0.193665,-0.669739,-0.673462
41659843177,-0.245972,-0.193604,-0.6698,-0.673462
41659864224,-0.246155,-0.193848,-0.669739,-0.67334
41659880790,-0.246155,-0.193848,-0.669739,-0.67334
41659903169,-0.246094,-0.193848,-0.669739,-0.67334
41659924190,-0.246094,-0.193848,-0.669739,-0.67334
41659940722,-0.246277,-0.19397,-0.669739,-0.673279
41659963176,-0.246277,-0.19397,-0.669739,-0.673279
41659984297,-0.246277,-0.19397,-0.669739,-0.673279
41660000735,-0.246216,-0.19397,-0.669739,-0.673279
41660023179,-0.246155,-0.19397,-0.669739,-0.67334
41660047125,-0.246338,-0.194031,-0.669678,-0.673279
41660059884,-0.246521,-0.194214,-0.669678,-0.673157
41660089873,-0.246521,-0.194153,-0.669678,-0.673218
41660104897,-0.246521,-0.194214,-0.669678,-0.673218
41660119827,-0.246521,-0.194214,-0.669678,-0.673218
41660142408,-0.246521,-0.194214,-0.669678,-0.673218
41660164931,-0.246521,-0.194153,-0.669678,-0.673218
41660179936,-0.246582,-0.194397,-0.669617,-0.673157
41660202404,-0.246643,-0.194641,-0.669556,-0.673096
41660224882,-0.246643,-0.194641,-0.669556,-0.673096
41660239907,-0.246582,-0.194641,-0.669556,-0.673157
41660262424,-0.246521,-0.194641,-0.669556,-0.673157
41660284968,-0.246643,-0.194702,-0.669556,-0.673157
41660299917,-0.246582,-0.194702,-0.669556,-0.673157
41660322498,-0.246582,-0.194702,-0.669556,-0.673157
41660344961,-0.246582,-0.194702,-0.669556,-0.673157
41660359789,-0.246582,-0.194702,-0.669556,-0.673157
41660382510,-0.246582,-0.194702,-0.669556,-0.673157
41660404885,-0.246582,-0.194641,-0.669556,-0.673157
41660419915,-0.246643,-0.194824,-0.669556,-0.673096
41660442449,-0.246582,-0.194824,-0.669556,-0.673096
41660464924,-0.246582,-0.194824,-0.669556,-0.673096
41660481473,-0.246582,-0.194824,-0.669556,-0.673096
41660502446,-0.246521,-0.194824,-0.669556,-0.673157
41660524862,-0.246521,-0.194824,-0.669556,-0.673157
41660541392,-0.246521,-0.194824,-0.669556,-0.673157
41660562516,-0.246643,-0.194885,-0.669495,-0.673096
41660584978,-0.246948,-0.195129,-0.669434,-0.673035
41660601382,-0.246948,-0.195129,-0.669434,-0.673035
41660622483,-0.246948,-0.195129,-0.669434,-0.673035
41660644934,-0.246887,-0.195129,-0.669434,-0.673035
41660661328,-0.246887,-0.195068,-0.669434,-0.673035
41660683929,-0.247009,-0.195251,-0.669373,-0.672974
41660704940,-0.246948,-0.195251,-0.669373,-0.672974
41660721453,-0.246948,-0.195251,-0.669434,-0.672974
41660742503,-0.246887,-0.195251,-0.669434,-0.672974
41660764903,-0.246887,-0.19519,-0.669434,-0.673035
41660781294,-0.246826,-0.195251,-0.669434,-0.673035
41660802386,-0.246826,-0.195251,-0.669434,-0.673035
41660824969,-0.246826,-0.195251,-0.669434,-0.673035
41660841438,-0.246826,-0.195251,-0.669373,-0.673035
41660862454,-0.246826,-0.195251,-0.669373,-0.673035
41660884959,-0.246887,-0.195312,-0.669434,-0.672974
41660901349,-0.247192,-0.195557,-0.669495,-0.672668
41660922365,-0.247681,-0.195984,-0.669556,-0.672302
41660944855,-0.247986,-0.196411,-0.669617,-0.671997
41660961356,-0.247986,-0.196411,-0.669617,-0.671997
41660982378,-0.247498,-0.196167,-0.669678,-0.672241
41661004604,-0.24707,-0.195923,-0.669739,-0.672424
41661021372,-0.24707,-0.195923,-0.669739,-0.672424
41661042390,-0.247253,-0.196106,-0.669739,-0.672302
41661064861,-0.247253,-0.196106,-0.669739,-0.672302
41661081293,-0.247253,-0.196106,-0.669739,-0.672302
41661102366,-0.247253,-0.196167,-0.669739,-0.672302
41661124895,-0.247253,-0.196167,-0.669678,-0.672302
41661141395,-0.247253,-0.196167,-0.669678,-0.672302
41661162475,-0.247253,-0.196167,-0.669739,-0.672302
41661184949,-0.247253,-0.196167,-0.669678,-0.672302
41661200725,-0.247192,-0.196167,-0.669678,-0.672302
41661222444,-0.247192,-0.196167,-0.669678,-0.672302
41661244914,-0.247253,-0.196167,-0.669678,-0.672302
41661260664,-0.247192,-0.196167,-0.669678,-0.672302
41661282491,-0.247192,-0.196167,-0.669678,-0.672302
41661304924,-0.247192,-0.196228,-0.669678,-0.672363
41661320723,-0.247192,-0.196228,-0.669678,-0.672363
41661342522,-0.247192,-0.196228,-0.669678,-0.672302
41661364966,-0.247192,-0.196228,-0.669678,-0.672302
41661380798,-0.247009,-0.196167,-0.669678,-0.672424
41661403915,-0.246948,-0.196167,-0.669678,-0.672424
41661424677,-0.246948,-0.196167,-0.669678,-0.672424
41661440669,-0.246948,-0.196167,-0.669678,-0.672424
41661463838,-0.246948,-0.196167,-0.669678,-0.672424
41661484937,-0.246948,-0.196167,-0.669678,-0.672424
41661500748,-0.246948,-0.196167,-0.669678,-0.672424
41661523921,-0.246948,-0.196167,-0.669678,-0.672424
41661544964,-0.246948,-0.196228,-0.669678,-0.672424
41661560782,-0.246948,-0.196228,-0.669678,-0.672424
41661583845,-0.246948,-0.196228,-0.669678,-0.672424
41661604936,-0.246948,-0.196228,-0.669678,-0.672424
41661620789,-0.246948,-0.196228,-0.669678,-0.672424
41661643883,-0.246948,-0.196289,-0.669678,-0.672424
41661672462,-0.246948,-0.196289,-0.669617,-0.672424
41661680783,-0.246948,-0.196289,-0.669617,-0.672424
41661703821,-0.246887,-0.196289,-0.669617,-0.672485
41661724966,-0.246887,-0.19635,-0.669617,-0.672485
41661740648,-0.246887,-0.19635,-0.669617,-0.672485
41661763914,-0.246887,-0.19635,-0.669617,-0.672485
41661784980,-0.246826,-0.19635,-0.669617,-0.672485
41661800798,-0.246826,-0.19635,-0.669617,-0.672485
41661823887,-0.246826,-0.196411,-0.669617,-0.672485
41661844947,-0.246887,-0.196411,-0.669617,-0.672485
41661860780,-0.246887,-0.196411,-0.669617,-0.672485
41661883883,-0.246887,-0.196411,-0.669617,-0.672485
41661904922,-0.246887,-0.196472,-0.669617,-0.672485
41661920696,-0.246887,-0.196472,-0.669556,-0.672485
41661943924,-0.246887,-0.196472,-0.669556,-0.672485
41661964970,-0.246887,-0.196472,-0.669556,-0.672485
41661980727,-0.247009,-0.196777,-0.669556,-0.672363
41662003992,-0.247131,-0.197144,-0.669556,-0.672241
41662024920,-0.247375,-0.197449,-0.669556,-0.671997
41662040749,-0.247375,-0.197449,-0.669556,-0.671997
41662063872,-0.247375,-0.197449,-0.669556,-0.671997
41662084966,-0.247375,-0.197449,-0.669556,-0.671997
41662100687,-0.247375,-0.19751,-0.669556,-0.672058
41662123883,-0.247375,-0.19751,-0.669556,-0.672058
41662144969,-0.247375,-0.19751,-0.669556,-0.671997
41662160718,-0.247375,-0.197571,-0.669556,-0.671997
41662183251,-0.247314,-0.197876,-0.669617,-0.671875
41662204866,-0.24707,-0.198181,-0.6698,-0.671692
41662220735,-0.246887,-0.198853,-0.670044,-0.671326
41662243245,-0.24707,-0.19989,-0.670349,-0.670654
41662264904,-0.247131,-0.201233,-0.670776,-0.6698
41662280784,-0.246765,-0.202881,-0.671387,-0.668823
41662303228,-0.247009,-0.205383,-0.671936,-0.667419
41662325034,-0.247253,-0.208069,-0.672668,-0.665771
41662340719,-0.247009,-0.210632,-0.673645,-0.664001
41662363211,-0.246399,-0.213074,-0.674866,-0.662231
41662386444,-0.24585,-0.215576,-0.676086,-0.6604
41662400701,-0.244934,-0.217957,-0.677795,-0.658203
41662423147,-0.244263,-0.220337,-0.679749,-0.655579
41662446350,-0.244019,-0.2229,-0.681763,-0.65271
41662460695,-0.244019,-0.225647,-0.683899,-0.649536
41662483266,-0.24408,-0.227722,-0.685974,-0.646606
41662506355,-0.244934,-0.229675,-0.6875,-0.643921
41662520696,-0.245972,-0.231689,-0.688416,-0.641846
41662543217,-0.245667,-0.232727,-0.689026,-0.64093
41662566397,-0.243652,-0.232727,-0.689819,-0.64093
41662580645,-0.241089,-0.232544,-0.690674,-0.641052
41662603208,-0.238892,-0.233032,-0.691589,-0.640686
41662626379,-0.23761,-0.234558,-0.692627,-0.639465
41662647410,-0.236511,-0.23645,-0.694214,-0.637451
41662663179,-0.23584,-0.238892,-0.696167,-0.634644
41662686416,-0.235596,-0.241577,-0.69873,-0.63092
41662707429,-0.235229,-0.243835,-0.702148,-0.626343
41662723196,-0.234802,-0.246277,-0.706177,-0.621033
41662746403,-0.234741,-0.249268,-0.710449,-0.614929
41662767433,-0.234497,-0.252502,-0.714966,-0.608398
41662783197,-0.234375,-0.256104,-0.719482,-0.601624
41662806348,-0.234131,-0.259644,-0.724426,-0.594177
41662827410,-0.233765,-0.263,-0.729736,-0.586304
41662843159,-0.233704,-0.267151,-0.734802,-0.578064
41662866411,-0.233582,-0.271423,-0.739868,-0.56958
41662887441,-0.231628,-0.275757,-0.744995,-0.561584
41662903206,-0.230347,-0.280762,-0.749878,-0.55304
41662926384,-0.230042,-0.28656,-0.754395,-0.544067
41662947418,-0.22876,-0.291626,-0.758667,-0.535828
41662963169,-0.227112,-0.295898,-0.762878,-0.528198
41662986445,-0.226074,-0.299316,-0.766968,-0.520813
41663007453,-0.225403,-0.302185,-0.770325,-0.514404
41663023202,-0.224487,-0.304321,-0.773254,-0.509094
41663046401,-0.223267,-0.305786,-0.776367,-0.503967
41663067393,-0.221924,-0.306335,-0.780212,-0.498291
41663083207,-0.220764,-0.306213,-0.784607,-0.491882
41663107170,-0.221375,-0.307556,-0.788452,-0.484619
41663127396,-0.221924,-0.309204,-0.792053,-0.477356
41663143206,-0.220825,-0.309692,-0.796326,-0.470398
41663165723,-0.219421,-0.310181,-0.800964,-0.462769
41663187409,-0.219604,-0.312744,-0.805176,-0.453552
41663203225,-0.221924,-0.3172,-0.808533,-0.443298
41663225708,-0.223938,-0.320496,-0.812073,-0.43335
41663247425,-0.224304,-0.321777,-0.816284,-0.424194
41663263258,-0.225037,-0.323975,-0.819946,-0.414978
41663285695,-0.226685,-0.327698,-0.822632,-0.40564
41663308859,-0.228943,-0.331787,-0.824768,-0.396729
41663323200,-0.231201,-0.335815,-0.826538,-0.388306
41663345666,-0.233826,-0.339355,-0.828308,-0.3797
41663374926,-0.235535,-0.341919,-0.830261,-0.372009
41663389928,-0.236816,-0.343689,-0.832092,-0.365356
41663405664,-0.238831,-0.34613,-0.833435,-0.358643
41663428880,-0.242493,-0.348938,-0.83429,-0.35144
41663443249,-0.245911,-0.35022,-0.83551,-0.34491
41663465797,-0.248108,-0.349426,-0.837097,-0.34021
41663488849,-0.250061,-0.348206,-0.838562,-0.336426
41663503167,-0.25293,-0.348755,-0.838928,-0.332703
41663525752,-0.256042,-0.350159,-0.838745,-0.329163
41663548841,-0.258057,-0.350708,-0.839111,-0.326294
41663569976,-0.259033,-0.350525,-0.839783,-0.323792
41663585729,-0.260071,-0.35144,-0.840027,-0.32135
41663608848,-0.261536,-0.353394,-0.839661,-0.319031
41663629933,-0.262878,-0.355042,-0.839294,-0.317017
41663645738,-0.264832,-0.357361,-0.83844,-0.315186
41663668861,-0.266907,-0.358154,-0.838074,-0.313477
41663689974,-0.267395,-0.35675,-0.838623,-0.313171
41663705728,-0.266235,-0.354187,-0.839783,-0.313904
41663728897,-0.265503,-0.352905,-0.840271,-0.314636
41663743194,-0.265625,-0.353577,-0.839783,-0.315063
41663765721,-0.265259,-0.354492,-0.839172,-0.31604
41663788881,-0.263733,-0.354004,-0.838989,-0.318298
41663809920,-0.261047,-0.352173,-0.8396,-0.320984
41663825744,-0.258362,-0.350037,-0.840271,-0.323669
41663848905,-0.256531,-0.348755,-0.840393,-0.326172
41663869944,-0.255493,-0.348267,-0.840027,-0.328369
41663884972,-0.2547,-0.348694,-0.839233,-0.330627
41663899308,-0.253967,-0.348694,-0.838318,-0.333557
41663921785,-0.252502,-0.347229,-0.838013,-0.336853
41663944913,-0.250671,-0.344727,-0.838196,-0.340454
41663959326,-0.248596,-0.341736,-0.838196,-0.344849
41663981782,-0.246765,-0.339478,-0.837402,-0.350281
41664004924,-0.245056,-0.337952,-0.835999,-0.356262
41664019269,-0.242981,-0.336609,-0.834534,-0.362366
41664041780,-0.240051,-0.334778,-0.833374,-0.368652
41664064968,-0.237244,-0.333191,-0.831726,-0.37561
41664079390,-0.234802,-0.332214,-0.829041,-0.383789
41664101751,-0.2323,-0.330994,-0.825684,-0.393555
41664124989,-0.229248,-0.32782,-0.822449,-0.404541
41664139386,-0.226135,-0.323303,-0.819336,-0.416138
41664161842,-0.223145,-0.318176,-0.815979,-0.42804
41664185024,-0.21991,-0.312439,-0.812256,-0.440918
41664199311,-0.21759,-0.307068,-0.807556,-0.454285
41664221875,-0.216553,-0.302429,-0.802185,-0.467224
41664245004,-0.21637,-0.297729,-0.796448,-0.479858
41664259334,-0.216553,-0.292236,-0.790588,-0.492676
41664281872,-0.216125,-0.284729,-0.785278,-0.505676
41664305035,-0.215515,-0.276245,-0.780029,-0.518555
41664319388,-0.214905,-0.268738,-0.774231,-0.531311
41664341815,-0.214294,-0.261536,-0.767822,-0.54425
41664365008,-0.213074,-0.253662,-0.761169,-0.557678
41664379252,-0.211426,-0.246094,-0.754211,-0.570923
41664401777,-0.210754,-0.240601,-0.746582,-0.583435
41664425012,-0.210999,-0.236084,-0.738647,-0.595154
41664439282,-0.210876,-0.230835,-0.730652,-0.606995
41664461874,-0.210388,-0.225037,-0.722717,-0.618774
41664484966,-0.211243,-0.219849,-0.714905,-0.629333
41664499372,-0.213196,-0.214783,-0.707397,-0.638855
41664521910,-0.214905,-0.208801,-0.700378,-0.647949
41664545091,-0.214111,-0.201233,-0.694885,-0.656433
41664559385,-0.213013,-0.194031,-0.690979,-0.663025
41664581821,-0.212952,-0.188477,-0.688904,-0.666809
41664612979,-0.212708,-0.184204,-0.6875,-0.669556
41664620852,-0.211426,-0.18158,-0.686279,-0.671875
41664641873,-0.212708,-0.180725,-0.684937,-0.673096
41664665038,-0.216309,-0.179932,-0.683289,-0.673828
41664679252,-0.219543,-0.176453,-0.681763,-0.675293
41664701794,-0.220825,-0.169678,-0.680298,-0.677979
41664725006,-0.221802,-0.162292,-0.678528,-0.681335
41664739343,-0.222839,-0.155273,-0.67627,-0.684814
41664761809,-0.224182,-0.148315,-0.67395,-0.688232
41664785045,-0.224487,-0.141541,-0.671631,-0.691772
41664799304,-0.223328,-0.135498,-0.669495,-0.695435
41664830676,-0.221497,-0.130554,-0.667725,-0.698669
41664844980,-0.220154,-0.126404,-0.666138,-0.701355
41664859340,-0.218872,-0.122192,-0.664917,-0.703674
41664881893,-0.218323,-0.118835,-0.663818,-0.705444
41664904998,-0.218506,-0.116577,-0.662903,-0.706665
41664919364,-0.21875,-0.11499,-0.662109,-0.70752
41664941875,-0.219055,-0.113525,-0.661499,-0.708252
41664965049,-0.219177,-0.112061,-0.660889,-0.709045
41664979405,-0.219421,-0.110962,-0.660217,-0.709778
41665001783,-0.219727,-0.110229,-0.659668,-0.710266
41665025025,-0.220337,-0.110291,-0.659363,-0.710388
41665039355,-0.22113,-0.110779,-0.659119,-0.710327
41665061824,-0.221619,-0.111328,-0.658875,-0.710266
