timestamp,x,y,z,w
284839772352,-0.390137,0.00720215,0.113281,0.913696
284839787372,-0.390137,0.00720215,0.113281,0.913696
284839802387,-0.390198,0.00720215,0.113281,0.913696
284839823717,-0.390198,0.00720215,0.113281,0.913696
284839847406,-0.390198,0.00720215,0.113281,0.913696
284839862975,-0.390198,0.00720215,0.113281,0.913696
284839908115,-0.390198,0.00720215,0.113281,0.913696
284839910142,-0.390259,0.00720215,0.113281,0.913635
284839922434,-0.390259,0.00720215,0.113281,0.913635
284839944349,-0.390259,0.00720215,0.113281,0.913635
284839968072,-0.39032,0.00720215,0.113281,0.913635
284839982339,-0.39032,0.00726318,0.113281,0.913635
284840026162,-0.39032,0.00720215,0.113281,0.913635
284840036215,-0.39032,0.00720215,0.113281,0.913635
284840042512,-0.390381,0.00720215,0.113281,0.913635
284840064176,-0.390381,0.00720215,0.113281,0.913635
284840086766,-0.390381,0.00720215,0.113281,0.913574
284840101121,-0.390381,0.00720215,0.113281,0.913574
284840124213,-0.390442,0.00720215,0.113281,0.913574
284840146704,-0.390137,0.00701904,0.113281,0.913696
284840161065,-0.390198,0.0065918,0.11322,0.913696
284840184171,-0.390259,0.0065918,0.113159,0.913696
284840206594,-0.389954,0.00701904,0.113403,0.913757
284840220986,-0.389648,0.00720215,0.114014,0.913818
284840244113,-0.389526,0.00738525,0.114624,0.913818
284840266637,-0.388489,0.00848389,0.115906,0.914062
284840281000,-0.387451,0.00958252,0.11731,0.914307
284840304131,-0.386047,0.0101318,0.118835,0.914734
284840326603,-0.385925,0.00897217,0.119568,0.914673
284840341018,-0.385437,0.00805664,0.120117,0.914795
284840364141,-0.384888,0.00762939,0.120667,0.914978
284840386647,-0.384888,0.00799561,0.12146,0.914856
284840402418,-0.385681,0.00878906,0.122009,0.91449
284840424165,-0.386292,0.00952148,0.122314,0.914185
284840446701,-0.386292,0.0101318,0.122681,0.914124
284840462444,-0.38623,0.010498,0.122864,0.914124
284840491663,-0.386169,0.010437,0.122864,0.914124
284840506669,-0.386597,0.010498,0.122803,0.91394
284840530686,-0.385498,0.0108032,0.122803,0.914429
284840544197,-0.385193,0.0109253,0.122681,0.914551
284840566744,-0.385071,0.0111084,0.122375,0.914612
284840583000,-0.385376,0.0115967,0.121887,0.914612
284840604247,-0.385559,0.012207,0.122375,0.914429
284840626762,-0.384521,0.0124512,0.123352,0.914734
284840642468,-0.384521,0.0124512,0.123413,0.914734
284840664159,-0.384949,0.0126953,0.12323,0.914551
284840686637,-0.384705,0.013855,0.123413,0.914612
284840702412,-0.384277,0.0153809,0.123901,0.914734
284840723491,-0.384827,0.0158081,0.124329,0.914429
284840746650,-0.38501,0.0159912,0.124268,0.914368
284840762441,-0.384888,0.0162964,0.124146,0.914429
284840783515,-0.384399,0.0167847,0.124878,0.91449
284840808156,-0.384277,0.0170898,0.125671,0.914429
284840822516,-0.384766,0.0169067,0.125671,0.914246
284840843530,-0.384705,0.0160522,0.125305,0.914368
284840866790,-0.384583,0.0145874,0.124756,0.91449
284840882483,-0.384705,0.0131836,0.124329,0.91449
284840903562,-0.385132,0.0115967,0.123596,0.914429
284840926683,-0.386047,0.0101929,0.122498,0.914246
284840942527,-0.385864,0.00830078,0.121765,0.914429
284840963588,-0.385681,0.00756836,0.121704,0.914551
284840986720,-0.385742,0.00848389,0.122253,0.914429
284841002450,-0.385803,0.00958252,0.12262,0.914307
284841025059,-0.385742,0.0098877,0.12262,0.914368
284841048170,-0.385132,0.00964355,0.122742,0.914612
284841062490,-0.384766,0.00921631,0.122925,0.914734
284841085047,-0.384766,0.00915527,0.122864,0.914734
284841108184,-0.384766,0.00915527,0.122864,0.914734
284841122414,-0.384827,0.00921631,0.122925,0.914734
284841144994,-0.384583,0.00933838,0.123108,0.914795
284841168125,-0.384277,0.00952148,0.12323,0.914917
284841182437,-0.384277,0.00946045,0.12323,0.914856
284841204975,-0.384338,0.00939941,0.12323,0.914856
284841228095,-0.384277,0.00939941,0.12323,0.914856
284841250631,-0.38446,0.00958252,0.123291,0.914795
284841265007,-0.384399,0.0101929,0.123657,0.914795
284841288094,-0.38385,0.0106812,0.124207,0.914917
284841309135,-0.383606,0.0108643,0.124573,0.914978
284841324964,-0.383362,0.0109253,0.124939,0.915039
284841348165,-0.382812,0.0109253,0.125305,0.915161
284841369198,-0.382812,0.0109863,0.125732,0.915161
284841384990,-0.382812,0.0112915,0.126221,0.9151
284841408181,-0.382568,0.0117798,0.126831,0.9151
284841429190,-0.382385,0.012207,0.127319,0.9151
284841445062,-0.382385,0.0124512,0.127502,0.915039
284841468192,-0.382324,0.0126343,0.127625,0.915039
284841490712,-0.38208,0.0126953,0.127869,0.915161
284841504972,-0.382446,0.0125122,0.127869,0.914978
284841528092,-0.382568,0.012146,0.127686,0.914978
284841549136,-0.382568,0.0117188,0.127441,0.914978
284841564978,-0.382812,0.0114136,0.12738,0.914917
284841588119,-0.383179,0.0112305,0.127258,0.914795
284841609169,-0.383667,0.0107422,0.127014,0.914612
284841625019,-0.38385,0.00976562,0.126587,0.914612
284841647536,-0.384033,0.00982666,0.126404,0.914551
284841669288,-0.383667,0.0106812,0.127014,0.914612
284841693119,-0.383728,0.0111084,0.12738,0.914551
284841707508,-0.383728,0.0110474,0.127441,0.91449
284841730714,-0.382996,0.0111694,0.127625,0.914795
284841745076,-0.382812,0.0112305,0.127563,0.914856
284841767494,-0.38324,0.0112915,0.127502,0.914734
284841790603,-0.383545,0.0111084,0.127441,0.914612
284841804975,-0.383606,0.0111694,0.127441,0.914551
284841827478,-0.383545,0.0111694,0.127441,0.914612
284841850692,-0.383545,0.0111694,0.127441,0.914551
284841864985,-0.383545,0.0112305,0.127502,0.914551
284841887537,-0.383606,0.0112305,0.127502,0.914551
284841910441,-0.383606,0.0110474,0.127686,0.914551
284841925065,-0.383667,0.0109863,0.127625,0.914551
284841947446,-0.384399,0.0109863,0.127319,0.914246
284841970700,-0.384766,0.0109253,0.126099,0.914307
284841993129,-0.384399,0.0101929,0.124817,0.914612
284842007474,-0.38385,0.00921631,0.124512,0.914917
284842030655,-0.384338,0.00872803,0.12439,0.914734
284842044988,-0.384888,0.00860596,0.124146,0.91449
284842067433,-0.385437,0.00811768,0.12384,0.914368
284842090737,-0.385376,0.00708008,0.123779,0.914368
284842105022,-0.385559,0.00567627,0.123901,0.914307
284842127564,-0.38623,0.00482178,0.124146,0.914001
284842150670,-0.386414,0.00488281,0.124451,0.913879
284842171726,-0.386719,0.00494385,0.124573,0.913696
284842187488,-0.386719,0.00488281,0.124634,0.913696
284842210618,-0.38739,0.00427246,0.124207,0.913513
284842231802,-0.388916,0.00311279,0.123047,0.912964
284842248011,-0.389465,0.0020752,0.122131,0.912903
284842270724,-0.39032,0.000610352,0.121033,0.912659
284842291718,-0.391113,-0.00152588,0.119507,0.912537
284842307441,-0.390869,-0.00317383,0.117859,0.912842
284842322453,-0.390015,-0.00256348,0.11676,0.91333
284842343552,-0.388489,-0.0012207,0.116211,0.914062
284842366693,-0.388245,-0.000732422,0.116028,0.914185
284842381080,-0.389038,-0.00164795,0.115356,0.91394
284842403546,-0.390625,-0.00280762,0.114075,0.913452
284842426853,-0.391602,-0.00396729,0.11322,0.913086
284842441127,-0.392578,-0.00482178,0.112549,0.912781
284842463645,-0.393311,-0.0057373,0.111938,0.912537
284842486684,-0.39447,-0.00738525,0.111328,0.912109
284842501089,-0.397095,-0.010498,0.110657,0.911011
284842524022,-0.401062,-0.0136719,0.110107,0.909302
284842546737,-0.402771,-0.0154419,0.109558,0.908569
284842561103,-0.403687,-0.0180054,0.108154,0.908264
284842583664,-0.407227,-0.0210571,0.107117,0.906738
284842606731,-0.40979,-0.0237427,0.108948,0.905334
284842620998,-0.409851,-0.0254517,0.112854,0.904785
284842643607,-0.410278,-0.027771,0.117065,0.903992
284842666709,-0.411255,-0.0316162,0.120667,0.902893
284842681057,-0.410889,-0.0368042,0.124268,0.902405
284842703574,-0.409485,-0.0432739,0.128601,0.902161
284842726721,-0.407898,-0.0512695,0.133179,0.901794
284842741059,-0.407654,-0.0617065,0.137268,0.900635
284842763652,-0.407043,-0.0734863,0.140686,0.899536
284842786713,-0.405518,-0.0861206,0.142822,0.898743
284842801173,-0.404053,-0.0996704,0.143066,0.897949
284842823616,-0.402344,-0.113892,0.141235,0.897278
284842846749,-0.400208,-0.128113,0.137146,0.896973
284842861087,-0.398254,-0.141418,0.131226,0.896729
284842883614,-0.396118,-0.153198,0.124084,0.89679
284842906789,-0.3927,-0.163452,0.116516,0.897461
284842921052,-0.389771,-0.172241,0.108765,0.898071
284842943506,-0.386047,-0.179688,0.101013,0.89917
284842966700,-0.38269,-0.188049,0.0909424,0.899963
284842990676,-0.38208,-0.196655,0.0794678,0.899475
284843003543,-0.378174,-0.202942,0.0697021,0.900513
284843026821,-0.373413,-0.206421,0.0615845,0.902283
284843041117,-0.373535,-0.208008,0.0532227,0.902405
284843063616,-0.374878,-0.207764,0.0442505,0.902405
284843086800,-0.375244,-0.206909,0.034729,0.902832
284843101171,-0.376221,-0.204468,0.0244751,0.90332
284843123591,-0.376892,-0.2005,0.0148315,0.904175
284843147125,-0.376709,-0.195801,0.00610352,0.905396
284843161087,-0.37854,-0.19043,-0.0022583,0.905762
284843183560,-0.38031,-0.18457,-0.010498,0.906189
284843206667,-0.380859,-0.179138,-0.019104,0.90686
284843220999,-0.380554,-0.174866,-0.0285034,0.907593
284843243575,-0.381226,-0.171936,-0.0385132,0.907532
284843266703,-0.382751,-0.169495,-0.0487061,0.90686
284843281173,-0.384583,-0.167542,-0.0584106,0.905884
284843304985,-0.386719,-0.166809,-0.0682983,0.904419
284843326741,-0.389465,-0.167969,-0.0791016,0.9021
284843341069,-0.394165,-0.171021,-0.0900269,0.898438
284843363553,-0.402222,-0.174011,-0.0980835,0.893494
284843386715,-0.409851,-0.174805,-0.0996704,0.889648
284843401069,-0.408264,-0.175049,-0.0967407,0.890686
284843423552,-0.405701,-0.175476,-0.0936279,0.89209
284843446709,-0.405884,-0.177002,-0.09198,0.891846
284843461060,-0.404297,-0.179504,-0.0907593,0.892212
284843483591,-0.401489,-0.181885,-0.0896606,0.893127
284843506702,-0.399963,-0.182861,-0.088623,0.893738
284843521062,-0.399109,-0.183167,-0.0880127,0.894104
284843543519,-0.399109,-0.183594,-0.0880127,0.893982
284843566720,-0.399231,-0.184082,-0.0881958,0.89386
284843581021,-0.398743,-0.184509,-0.0883179,0.893982
284843603553,-0.398743,-0.184509,-0.0883179,0.893921
284843626076,-0.398804,-0.184509,-0.0883179,0.893921
284843641046,-0.398743,-0.184692,-0.0882568,0.893921
284843663545,-0.398315,-0.18512,-0.0881348,0.894043
284843686072,-0.397827,-0.185669,-0.0880127,0.894165
284843701085,-0.3974,-0.186218,-0.0880737,0.894226
284843723649,-0.397156,-0.18689,-0.0882568,0.894165
284843747571,-0.396851,-0.187378,-0.0887451,0.894165
284843761061,-0.396545,-0.187622,-0.0894165,0.894165
284843783565,-0.39624,-0.187683,-0.090271,0.894226
284843806024,-0.396301,-0.188049,-0.0910034,0.894043
284843821032,-0.395813,-0.18866,-0.0911865,0.894104
284843843550,-0.395081,-0.189636,-0.0911255,0.894226
284843866122,-0.39502,-0.190613,-0.0907593,0.894104
284843881102,-0.395325,-0.191711,-0.0895386,0.89386
284843903631,-0.395813,-0.192749,-0.0872192,0.893616
284843926089,-0.398315,-0.192383,-0.0828247,0.893005
284843941026,-0.400757,-0.19165,-0.0762939,0.892639
284843963616,-0.402588,-0.191589,-0.0684814,0.892456
284843986051,-0.403137,-0.19165,-0.0604248,0.892822
284844001158,-0.402222,-0.19165,-0.0521851,0.893738
284844025089,-0.401917,-0.191223,-0.0432129,0.89447
284844046107,-0.402954,-0.189575,-0.0335083,0.894714
284844061113,-0.403748,-0.186951,-0.0237427,0.895264
284844083602,-0.404785,-0.184265,-0.0151978,0.895508
284844106169,-0.406616,-0.181641,-0.00775146,0.895325
284844121118,-0.408936,-0.17865,-0.000183105,0.894897
284844143551,-0.411316,-0.175293,0.00775146,0.894409
284844166063,-0.413574,-0.172791,0.0153198,0.893799
284844189227,-0.414795,-0.171143,0.0222778,0.893372
284844203535,-0.415283,-0.1698,0.0288086,0.893188
284844226034,-0.415222,-0.168701,0.0350342,0.89325
284844241041,-0.414734,-0.168274,0.0405884,0.893311
284844263561,-0.414185,-0.168518,0.045166,0.893311
284844286140,-0.413757,-0.169495,0.048584,0.893127
284844302495,-0.413208,-0.170898,0.0511475,0.892944
284844323540,-0.413025,-0.172363,0.0529785,0.8927
284844346056,-0.413269,-0.174072,0.0540771,0.892212
284844361048,-0.413818,-0.175964,0.0544434,0.891541
284844383676,-0.41394,-0.177795,0.0545654,0.891052
284844400058,-0.41394,-0.179443,0.0547485,0.890747
284844421203,-0.414368,-0.179993,0.0556641,0.890381
284844443669,-0.415039,-0.17981,0.057251,0.890015
284844459976,-0.416199,-0.179138,0.0591431,0.889465
284844482577,-0.417175,-0.178101,0.0614624,0.889099
284844503613,-0.417725,-0.177002,0.06427,0.888855
284844534429,-0.41925,-0.17572,0.0679321,0.888062
284844542521,-0.421204,-0.173889,0.0728149,0.887146
284844563603,-0.423096,-0.171753,0.0785522,0.886169
284844594264,-0.424316,-0.169189,0.0846558,0.885498
284844602543,-0.424927,-0.166504,0.0907593,0.885132
284844623546,-0.424683,-0.163879,0.0966797,0.885132
284844646071,-0.424316,-0.161743,0.102417,0.88501
284844662506,-0.426575,-0.159912,0.107971,0.883606
284844683603,-0.429688,-0.157104,0.114502,0.881775
284844706093,-0.431519,-0.15332,0.122253,0.880554
284844722577,-0.433167,-0.149475,0.130615,0.879211
284844743615,-0.437683,-0.145386,0.140686,0.876038
284844766138,-0.443359,-0.139282,0.154541,0.871887
284844782603,-0.444397,-0.13208,0.170715,0.869446
284844803655,-0.446167,-0.123718,0.187073,0.866333
284844826165,-0.448608,-0.114502,0.202942,0.862793
284844842545,-0.448792,-0.104614,0.219055,0.859985
284844863646,-0.447205,-0.0943604,0.235107,0.857788
284844886101,-0.447876,-0.085022,0.249573,0.854309
284844902541,-0.448303,-0.0759277,0.262024,0.851196
284844923551,-0.449402,-0.0675049,0.27301,0.8479
284844954243,-0.449646,-0.0600586,0.282898,0.845093
284844977502,-0.448059,-0.0530396,0.291626,0.843445
284844983648,-0.447632,-0.0470581,0.298706,0.841492
284845006089,-0.447083,-0.0424805,0.305054,0.839783
284845024000,-0.446167,-0.039917,0.310913,0.838257
284845043559,-0.445007,-0.0388794,0.315308,0.83728
284845066161,-0.44519,-0.038269,0.31781,0.836243
284845090063,-0.444519,-0.0369263,0.319824,0.835876
284845106543,-0.444153,-0.0352783,0.321716,0.835449
284845143615,-0.444153,-0.0340576,0.323425,0.834778
284845157524,-0.445129,-0.0344238,0.32489,0.833679
284845163662,-0.445068,-0.034729,0.326965,0.832947
284845186027,-0.444641,-0.0343018,0.32843,0.832581
284845208553,-0.445129,-0.0324707,0.329956,0.831787
284845223593,-0.446533,-0.0296021,0.331726,0.830505
284845246067,-0.447083,-0.0259399,0.333618,0.829529
284845262556,-0.448303,-0.022644,0.335327,0.828247
284845283584,-0.449219,-0.0198364,0.336548,0.827332
284845306153,-0.449768,-0.0171509,0.337524,0.826721
284845324086,-0.45166,-0.0150146,0.33844,0.825317
284845343624,-0.453674,-0.0137939,0.339478,0.823853
284845366147,-0.455383,-0.0125122,0.340393,0.82251
284845382628,-0.456665,-0.0111694,0.340942,0.821594
284845411787,-0.45813,-0.0101318,0.341309,0.820679
284845420071,-0.45929,-0.0098877,0.341309,0.820007
284845442544,-0.459595,-0.00982666,0.341003,0.820007
284845465128,-0.459412,-0.00976562,0.340332,0.820374
284845486076,-0.460571,-0.0101929,0.340027,0.819824
284845502490,-0.461426,-0.0112305,0.340454,0.819153
284845525056,-0.461914,-0.0114746,0.341248,0.818542
284845541544,-0.462524,-0.0112305,0.341797,0.817993
284845562622,-0.463135,-0.010376,0.342163,0.817505
284845585109,-0.463623,-0.00964355,0.342407,0.817078
284845601546,-0.464355,-0.00964355,0.342651,0.816589
284845622585,-0.465149,-0.00976562,0.342957,0.81604
284845645073,-0.465393,-0.00964355,0.34314,0.815796
284845661572,-0.465576,-0.00933838,0.343323,0.815613
284845682662,-0.465942,-0.00939941,0.343262,0.81543
284845705133,-0.466858,-0.00958252,0.34314,0.815002
284845721493,-0.467224,-0.00958252,0.343079,0.814758
284845742544,-0.467346,-0.00915527,0.343201,0.814636
284845765017,-0.467346,-0.0090332,0.343262,0.814636
284845781561,-0.467712,-0.00872803,0.343323,0.814392
284845802628,-0.468384,-0.00830078,0.343628,0.813904
284845825098,-0.468994,-0.00732422,0.343994,0.813416
284845841545,-0.468811,-0.00683594,0.344727,0.813232
284845861865,-0.468262,-0.00775146,0.345032,0.813354
284845884340,-0.467285,-0.00958252,0.344727,0.814026
284845906848,-0.466125,-0.0112915,0.343994,0.815002
284845921801,-0.464966,-0.0125122,0.343384,0.815918
284845944331,-0.464783,-0.0133057,0.342712,0.816284
284845968193,-0.464966,-0.0133667,0.341797,0.816589
284845989334,-0.464844,-0.0126343,0.340881,0.817017
284846004238,-0.464966,-0.0117798,0.340088,0.817322
284846026732,-0.464905,-0.0111694,0.339539,0.817566
284846041732,-0.464783,-0.0110474,0.338989,0.81781
284846064227,-0.464661,-0.0113525,0.338623,0.818054
284846086737,-0.4646,-0.0117188,0.338623,0.818115
284846101720,-0.464539,-0.0117798,0.338806,0.818115
284846131900,-0.464294,-0.0116577,0.33905,0.818115
284846146516,-0.464233,-0.0115356,0.339111,0.818115
284846161820,-0.464294,-0.0115356,0.339111,0.818054
284846184474,-0.464294,-0.0115356,0.339111,0.818054
284846206831,-0.464294,-0.0115356,0.339111,0.818054
284846221742,-0.464111,-0.0115356,0.339111,0.818176
284846244388,-0.463928,-0.0115356,0.339111,0.818237
284846266876,-0.463989,-0.0115356,0.339111,0.818237
284846281864,-0.463989,-0.0115356,0.339111,0.818237
284846304347,-0.463867,-0.0116577,0.33905,0.818359
284846326875,-0.463806,-0.0118408,0.338806,0.818481
284846341806,-0.463928,-0.012146,0.338501,0.818542
284846364294,-0.463867,-0.0124512,0.338196,0.818665
284846386886,-0.463745,-0.0125732,0.337769,0.81897
284846401799,-0.463623,-0.0130005,0.336914,0.819336
284846424302,-0.462769,-0.0133667,0.335327,0.820496
284846440065,-0.462036,-0.013855,0.332642,0.82196
284846463279,-0.461914,-0.0147095,0.328674,0.823608
284846484313,-0.463379,-0.0171509,0.323853,0.824646
284846506949,-0.462463,-0.0202637,0.319092,0.826965
284846523312,-0.460754,-0.024231,0.313965,0.829773
284846544346,-0.458252,-0.027771,0.307495,0.833435
284846566805,-0.454407,-0.0298462,0.29895,0.838562
284846583282,-0.453125,-0.0327759,0.288147,0.842957
284846604221,-0.448242,-0.034668,0.276489,0.849365
284846626655,-0.442749,-0.034668,0.263489,0.856323
284846643178,-0.438843,-0.0327759,0.247803,0.863037
284846664337,-0.435181,-0.0285034,0.229065,0.870239
284846686841,-0.431519,-0.022583,0.207703,0.877563
284846710803,-0.427185,-0.015686,0.184204,0.88501
284846724315,-0.42218,-0.00836182,0.158691,0.892456
284846746743,-0.416687,-0.000488281,0.131042,0.899536
284846763195,-0.411194,0.00756836,0.1026,0.905701
284846784244,-0.405457,0.0154419,0.0742798,0.91095
284846806822,-0.399353,0.022583,0.0463867,0.915344
284846823294,-0.39209,0.0294189,0.0183716,0.91925
284846844299,-0.384827,0.0369263,-0.0101318,0.92218
284846866836,-0.378784,0.0458984,-0.0374756,0.923584
284846883234,-0.372925,0.0554199,-0.0623779,0.924072
284846904268,-0.367432,0.064209,-0.0847778,0.92395
284846928276,-0.364502,0.0725098,-0.104919,0.922424
284846943311,-0.363586,0.0795288,-0.124023,0.9198
284846964312,-0.362305,0.0860596,-0.141724,0.917175
284846986849,-0.36084,0.0921021,-0.156799,0.914734
284847003207,-0.359619,0.0973511,-0.168945,0.912476
284847024365,-0.359924,0.102722,-0.177979,0.910034
284847046783,-0.360474,0.10791,-0.184875,0.907837
284847063292,-0.362244,0.112183,-0.19043,0.905457
284847084265,-0.36615,0.115479,-0.194031,0.90271
284847106920,-0.368103,0.117981,-0.195496,0.901306
284847123317,-0.369568,0.119934,-0.19519,0.900513
284847144323,-0.372498,0.121216,-0.193665,0.899475
284847166914,-0.376038,0.121521,-0.191528,0.898438
284847190869,-0.380249,0.120911,-0.188599,0.897339
284847204354,-0.385498,0.11908,-0.184692,0.896118
284847226844,-0.390381,0.116516,-0.179443,0.895447
284847243278,-0.394104,0.113831,-0.173096,0.895386
284847264275,-0.397583,0.110901,-0.166016,0.895569
284847286909,-0.402344,0.108398,-0.158081,0.895203
284847303288,-0.40686,0.10614,-0.148926,0.894958
284847324338,-0.410217,0.103516,-0.13916,0.895325
284847346831,-0.414062,0.100281,-0.128967,0.895447
284847362679,-0.417847,0.097168,-0.118713,0.895447
284847385810,-0.421387,0.0946045,-0.108643,0.895325
284847406894,-0.424988,0.0931396,-0.0980835,0.89502
284847422637,-0.428162,0.0931396,-0.0869141,0.894653
284847445869,-0.431152,0.0941162,-0.0755615,0.894165
284847466893,-0.434998,0.0950928,-0.0641479,0.893066
284847482610,-0.438538,0.0952759,-0.0525513,0.89209
284847505803,-0.442139,0.0943604,-0.0401611,0.891052
284847526869,-0.444458,0.0925903,-0.0267334,0.890564
284847542631,-0.445862,0.0896606,-0.0125732,0.890503
284847565747,-0.447327,0.0854492,0.00158691,0.890259
284847595753,-0.447815,0.0805664,0.0152588,0.89032
284847602556,-0.447388,0.0749512,0.0285034,0.890686
284847625512,-0.447021,0.0691528,0.0415039,0.890869
284847646784,-0.445923,0.0635376,0.0539551,0.891174
284847662597,-0.444336,0.0582275,0.0656738,0.891541
284847685827,-0.442688,0.0529175,0.0765381,0.891846
284847706782,-0.44104,0.0472412,0.0861206,0.89209
284847722611,-0.44043,0.0409546,0.0945435,0.891846
284847745812,-0.440063,0.0344238,0.101929,0.891479
284847766844,-0.439392,0.0279541,0.108276,0.891296
284847782704,-0.438416,0.0214844,0.113525,0.891296
284847805865,-0.437256,0.0153809,0.117798,0.891418
284847826893,-0.436035,0.0101929,0.121521,0.891602
284847842581,-0.434814,0.0057373,0.125061,0.891785
284847871763,-0.433594,0.0020752,0.128113,0.891907
284847886823,-0.432434,-0.00134277,0.13031,0.892151
284847902564,-0.430786,-0.00445557,0.131836,0.892761
284847925857,-0.429138,-0.00750732,0.132629,0.893372
284847946851,-0.427979,-0.0108643,0.133118,0.89386
284847962647,-0.426453,-0.0143433,0.133301,0.894531
284847985835,-0.424133,-0.017334,0.13324,0.895569
284848006827,-0.421753,-0.0197754,0.133179,0.896606
284848022625,-0.419678,-0.0219727,0.133057,0.897583
284848045742,-0.418152,-0.024231,0.132812,0.898254
284848066833,-0.416992,-0.0263672,0.132263,0.898804
284848082619,-0.415527,-0.0280762,0.131592,0.899536
284848105772,-0.414429,-0.0296021,0.130798,0.900146
284848126803,-0.413757,-0.03125,0.129944,0.900513
284848142586,-0.413391,-0.0328979,0.129395,0.900696
284848165749,-0.41333,-0.0344849,0.129395,0.900635
284848186809,-0.413757,-0.0358887,0.129883,0.90033
284848202572,-0.414062,-0.0368042,0.13092,0.900024
284848225789,-0.414185,-0.0374756,0.132446,0.899719
284848246851,-0.414246,-0.0380859,0.134216,0.899414
284848262599,-0.414185,-0.0389404,0.136414,0.899048
284848285108,-0.414062,-0.039917,0.138916,0.898682
284848306813,-0.413879,-0.0408936,0.141541,0.898315
284848322609,-0.413879,-0.0420532,0.144165,0.897827
284848345110,-0.413513,-0.043335,0.146545,0.897522
284848375796,-0.41333,-0.0447998,0.148621,0.897217
284848382630,-0.413208,-0.0465088,0.15033,0.896912
284848405169,-0.413086,-0.0480957,0.151672,0.896667
284848428741,-0.413147,-0.0498047,0.15271,0.896362
284848442595,-0.413513,-0.0516357,0.153137,0.895996
284848465136,-0.414246,-0.0535889,0.153259,0.895569
284848488249,-0.414978,-0.055603,0.153137,0.895081
284848502573,-0.41571,-0.057251,0.153137,0.894653
284848525120,-0.416138,-0.0585327,0.15332,0.894348
284848548296,-0.416626,-0.0596924,0.153625,0.893982
284848562592,-0.417297,-0.06073,0.153992,0.893555
284848585095,-0.417847,-0.0617676,0.15448,0.893127
284848608246,-0.418335,-0.0623779,0.154907,0.892761
284848622587,-0.418762,-0.0626831,0.155273,0.892517
284848645122,-0.419312,-0.0630493,0.155457,0.892212
284848668279,-0.420227,-0.0633545,0.155701,0.891663
284848682597,-0.420837,-0.0634155,0.156006,0.891357
284848705097,-0.421326,-0.0632935,0.156372,0.891052
284848728253,-0.421997,-0.0634155,0.156738,0.890686
284848742592,-0.422302,-0.0636597,0.157104,0.890442
284848765069,-0.422791,-0.064209,0.157288,0.890137
284848788269,-0.423157,-0.0646973,0.157593,0.889893
284848802623,-0.423462,-0.0650635,0.15802,0.889648
284848825105,-0.423706,-0.0653076,0.158447,0.889404
284848848243,-0.423828,-0.0655518,0.158936,0.889282
284848869341,-0.423828,-0.0657959,0.159363,0.88916
284848885073,-0.424133,-0.065979,0.15979,0.888916
284848908314,-0.424377,-0.0661621,0.160217,0.888733
284848929367,-0.424622,-0.0664673,0.160583,0.888489
284848945125,-0.424988,-0.0669556,0.160767,0.888245
284848968298,-0.425354,-0.067627,0.161011,0.888
284848989344,-0.42572,-0.0682373,0.161194,0.887756
284849005080,-0.42627,-0.0688477,0.161438,0.88739
284849028329,-0.426758,-0.069397,0.161682,0.887085
284849049383,-0.427307,-0.0700073,0.161865,0.886719
284849065128,-0.427795,-0.0705566,0.162048,0.886414
284849088296,-0.428467,-0.0710449,0.16217,0.886047
284849109340,-0.428955,-0.0713501,0.162231,0.885742
284849125126,-0.429504,-0.0716553,0.162292,0.885437
284849148245,-0.430176,-0.0719604,0.162292,0.885071
284849169335,-0.430847,-0.0723267,0.162292,0.884766
284849185157,-0.431396,-0.0726318,0.162292,0.88446
284849208279,-0.431702,-0.072998,0.162292,0.884277
284849229305,-0.432007,-0.0733032,0.162292,0.884094
284849245127,-0.432434,-0.0734863,0.162415,0.88385
284849267599,-0.433044,-0.0735474,0.162659,0.883545
284849290813,-0.43335,-0.0736084,0.162903,0.883301
284849305122,-0.433655,-0.0737305,0.163086,0.883118
284849327622,-0.434021,-0.0739746,0.163391,0.882874
284849350774,-0.434082,-0.0740356,0.163757,0.882751
284849365146,-0.434326,-0.0740356,0.164124,0.882568
284849387599,-0.434631,-0.0740356,0.164429,0.882385
284849410760,-0.434937,-0.0741577,0.164734,0.882141
284849424334,-0.435364,-0.0744019,0.164978,0.881836
284849438671,-0.435669,-0.074646,0.165222,0.881653
284849461137,-0.436035,-0.0749512,0.165466,0.881409
284849484337,-0.436279,-0.0750122,0.165771,0.881226
284849498692,-0.436523,-0.0750122,0.166199,0.880981
284849521156,-0.436829,-0.0750122,0.166626,0.880737
284849544319,-0.437012,-0.0748291,0.167053,0.880615
284849558697,-0.437012,-0.074707,0.16748,0.880554
284849581155,-0.437012,-0.0747681,0.167847,0.880493
284849604325,-0.436951,-0.0748901,0.168152,0.880432
284849618667,-0.437012,-0.0753174,0.168335,0.880371
284849641201,-0.437134,-0.0756226,0.168457,0.880188
284849664345,-0.437195,-0.0756226,0.168396,0.880188
284849678671,-0.437317,-0.0756226,0.168701,0.880066
284849701187,-0.437439,-0.0755615,0.168884,0.880005
284849724349,-0.437744,-0.0753784,0.169128,0.879822
284849738683,-0.438049,-0.0751343,0.169312,0.879639
284849761193,-0.438293,-0.0748901,0.169434,0.879517
284849784372,-0.438538,-0.074585,0.169556,0.879395
284849798753,-0.438599,-0.0745239,0.169617,0.879395
284849821143,-0.438721,-0.0745239,0.169739,0.879272
284849852542,-0.438904,-0.0742798,0.170166,0.87915
284849858707,-0.438965,-0.0739746,0.170715,0.879028
284849881240,-0.438965,-0.0737915,0.171265,0.878906
284849904398,-0.43866,-0.0735474,0.171814,0.878967
284849918732,-0.438293,-0.0733643,0.172302,0.879089
284849941188,-0.437988,-0.0733032,0.172729,0.87915
284849964335,-0.437744,-0.0734253,0.172974,0.879211
284849978729,-0.4375,-0.0735474,0.173096,0.879272
284850001182,-0.437134,-0.0738525,0.173096,0.879456
284850024367,-0.436768,-0.0741577,0.173157,0.879639
284850038702,-0.436462,-0.0744629,0.173096,0.879761
284850061222,-0.436279,-0.074646,0.173035,0.879822
284850084371,-0.436035,-0.074707,0.172852,0.880005
284850098735,-0.435974,-0.074585,0.172668,0.880066
284850121168,-0.436096,-0.0742188,0.172363,0.880066
284850144398,-0.436035,-0.0736694,0.171936,0.880249
284850158702,-0.436035,-0.0731201,0.171387,0.880371
284850181189,-0.43634,-0.0726318,0.170776,0.880432
284850204377,-0.436646,-0.0720215,0.170227,0.880432
284850218707,-0.437012,-0.0714111,0.169861,0.880371
284850241211,-0.437317,-0.0707397,0.169556,0.88031
284850263669,-0.437622,-0.0701904,0.169312,0.880249
284850278661,-0.437988,-0.0697632,0.169067,0.880188
284850301183,-0.438232,-0.0691528,0.168884,0.880127
284850323709,-0.438538,-0.0686035,0.168762,0.880005
284850338733,-0.438965,-0.0681152,0.16864,0.879883
284850361316,-0.439392,-0.067749,0.168518,0.8797
284850383693,-0.439636,-0.0674438,0.168457,0.879639
284850406914,-0.439758,-0.0673218,0.168457,0.879578
284850421246,-0.439758,-0.0673218,0.168457,0.879578
284850443644,-0.439514,-0.0675049,0.168762,0.879639
284850458735,-0.439148,-0.0678711,0.169067,0.8797
284850481186,-0.438782,-0.0684204,0.169495,0.879822
284850503708,-0.438232,-0.0689087,0.169983,0.879944
284850518741,-0.437683,-0.0692749,0.17041,0.880127
284850541158,-0.437073,-0.0696411,0.170776,0.88031
284850572561,-0.436768,-0.0701904,0.171082,0.880371
284850578720,-0.436279,-0.0706787,0.171509,0.880493
284850601269,-0.435974,-0.071228,0.171936,0.880493
284850623743,-0.435608,-0.0715942,0.172546,0.880554
284850638768,-0.43512,-0.0720215,0.173096,0.880615
284850661323,-0.434875,-0.0725708,0.173645,0.880554
284850683703,-0.434631,-0.072998,0.174255,0.880554
284850698748,-0.434326,-0.0734253,0.174805,0.880554
284850721213,-0.43396,-0.0739746,0.175293,0.880554
284850743726,-0.433533,-0.074707,0.175659,0.880676
284850761611,-0.43335,-0.0756226,0.176086,0.880615
284850781203,-0.432983,-0.0764771,0.176636,0.880615
284850803697,-0.432678,-0.0770874,0.177246,0.880554
284850818688,-0.43219,-0.0774536,0.177734,0.880676
284850849341,-0.431946,-0.0777588,0.178162,0.880676
284850863690,-0.431702,-0.0779419,0.178589,0.880676
284850878791,-0.43158,-0.0778809,0.179016,0.880676
284850901337,-0.431458,-0.0775757,0.179443,0.880676
284850923808,-0.431458,-0.0773315,0.179749,0.880676
284850938800,-0.431274,-0.0771484,0.17981,0.880737
284850961212,-0.431274,-0.0770874,0.179749,0.880737
284850983785,-0.431213,-0.0770874,0.179688,0.880798
284850998787,-0.431213,-0.0770874,0.179749,0.880798
284851021309,-0.431091,-0.0770874,0.179932,0.880798
284851043762,-0.431091,-0.0770874,0.179932,0.880798
284851058759,-0.431152,-0.0772705,0.180054,0.880737
284851081172,-0.431335,-0.0776367,0.180359,0.880554
284851103714,-0.431702,-0.0783691,0.180847,0.880188
284851120166,-0.432129,-0.0791016,0.181824,0.879761
284851141147,-0.432373,-0.0797119,0.18335,0.879272
284851163697,-0.432678,-0.0802612,0.185242,0.878662
284851180161,-0.432861,-0.0808716,0.187744,0.877991
284851201344,-0.433289,-0.081604,0.190918,0.877014
284851223719,-0.433777,-0.0822754,0.194763,0.875854
284851240201,-0.434143,-0.0828247,0.19928,0.874573
284851261267,-0.434692,-0.0836182,0.20459,0.872986
284851283802,-0.435486,-0.0848389,0.210571,0.871094
284851300239,-0.436096,-0.0866089,0.217285,0.868958
284851321241,-0.436707,-0.0889893,0.224915,0.866455
284851343836,-0.437744,-0.0916138,0.233215,0.863464
284851360180,-0.438416,-0.0942383,0.24231,0.860291
284851381220,-0.438354,-0.0963135,0.251953,0.857361
284851403694,-0.43927,-0.0978394,0.261475,0.853821
284851420144,-0.440491,-0.098938,0.27124,0.850037
284851441301,-0.440796,-0.0990601,0.281372,0.846558
284851463694,-0.441162,-0.0979614,0.291992,0.842896
284851480214,-0.439453,-0.0948486,0.30249,0.840454
284851501189,-0.438538,-0.0908203,0.312073,0.83783
284851523734,-0.434875,-0.0858765,0.319763,0.837402
284851540225,-0.433899,-0.0821533,0.324951,0.836304
284851561289,-0.431824,-0.0777588,0.328369,0.836426
284851583758,-0.427551,-0.0737915,0.329956,0.838379
284851600195,-0.425232,-0.0731812,0.329224,0.839844
284851621250,-0.424377,-0.0751953,0.326294,0.841309
284851643976,-0.423706,-0.0767822,0.323059,0.842712
284851660167,-0.421997,-0.0782471,0.320312,0.844482
284851684146,-0.420105,-0.0814209,0.31781,0.846069
284851703739,-0.417969,-0.0870972,0.314758,0.847717
284851720199,-0.416016,-0.0929565,0.311218,0.849304
284851741255,-0.412354,-0.0956421,0.309021,0.851624
284851763775,-0.409119,-0.0981445,0.308533,0.853088
284851780158,-0.407532,-0.101929,0.308105,0.853577
284851801277,-0.406372,-0.105652,0.307373,0.853943
284851823700,-0.404236,-0.108215,0.306458,0.85498
284851840223,-0.402344,-0.110107,0.305969,0.855774
284851861237,-0.400513,-0.110657,0.305847,0.856628
284851883709,-0.400452,-0.111206,0.305542,0.856628
284851900216,-0.400757,-0.112122,0.305847,0.856262
284851921335,-0.398865,-0.112061,0.306946,0.856812
284851943823,-0.396545,-0.111633,0.308167,0.857483
284851960245,-0.393555,-0.110901,0.310059,0.858276
284851981212,-0.391724,-0.110352,0.312256,0.858398
284852003874,-0.390564,-0.11145,0.315186,0.857727
284852020216,-0.387085,-0.112061,0.318726,0.85791
284852041282,-0.382874,-0.111694,0.322327,0.858521
284852063727,-0.379761,-0.111572,0.324829,0.858948
284852080153,-0.379883,-0.112122,0.32489,0.858765
284852102636,-0.384338,-0.111145,0.322083,0.857971
284852123746,-0.390747,-0.109314,0.317444,0.857056
284852140144,-0.396545,-0.108276,0.313049,0.85614
284852162699,-0.398987,-0.106567,0.309814,0.856384
284852183769,-0.399658,-0.104431,0.308105,0.856934
284852200259,-0.398865,-0.101746,0.307434,0.85791
284852222739,-0.398682,-0.098938,0.306763,0.858582
284852243862,-0.399231,-0.0968018,0.305603,0.858948
284852261691,-0.398621,-0.09552,0.304382,0.859802
284852282667,-0.398193,-0.0943604,0.302612,0.860779
284852303671,-0.398926,-0.0935059,0.300781,0.861206
284852320152,-0.399414,-0.0927124,0.299622,0.86145
284852342665,-0.399292,-0.0917358,0.299194,0.861755
284852363745,-0.399109,-0.0912476,0.299133,0.861877
284852380164,-0.399109,-0.0905762,0.299133,0.861938
284852402645,-0.398926,-0.0890503,0.29895,0.862244
284852423760,-0.400024,-0.0876465,0.298584,0.862
284852440152,-0.402283,-0.0862427,0.298523,0.861145
284852462704,-0.403992,-0.0848999,0.299072,0.860291
284852483733,-0.405273,-0.0841064,0.300171,0.859375
284852500200,-0.405212,-0.0838013,0.301147,0.859131
284852522696,-0.404419,-0.0839233,0.301697,0.859253
284852543728,-0.403503,-0.0846558,0.301941,0.859558
284852560188,-0.40332,-0.0858765,0.301697,0.859619
284852590162,-0.404053,-0.0869751,0.301208,0.859314
284852603706,-0.404114,-0.0864868,0.301392,0.859253
284852620195,-0.403809,-0.0862427,0.30188,0.859253
284852642689,-0.40387,-0.0869751,0.302185,0.85907
284852663721,-0.40332,-0.0875854,0.302368,0.859192
284852680186,-0.402954,-0.0881348,0.30249,0.859253
284852702657,-0.403015,-0.0883789,0.302795,0.85907
284852723720,-0.402344,-0.0883789,0.303345,0.859253
284852740177,-0.401917,-0.0883789,0.303711,0.859253
284852762667,-0.40155,-0.0880737,0.304016,0.859375
284852783772,-0.401062,-0.0881958,0.304138,0.859558
284852800168,-0.400513,-0.0890503,0.304382,0.859619
284852822740,-0.399231,-0.0898438,0.30481,0.859985
284852843768,-0.397888,-0.0909424,0.305115,0.860413
284852860224,-0.3974,-0.0926514,0.304871,0.860535
284852882700,-0.397095,-0.093689,0.304382,0.860718
284852913331,-0.397278,-0.0944214,0.303894,0.860718
284852920222,-0.397644,-0.0949097,0.303711,0.860596
284852942698,-0.397705,-0.0948486,0.303711,0.860535
284852963709,-0.397827,-0.0945435,0.303894,0.860474
284852979453,-0.397827,-0.0944824,0.304138,0.860413
284853001935,-0.397705,-0.0949707,0.304321,0.860291
284853024410,-0.397034,-0.0953979,0.304443,0.860535
284853039478,-0.396484,-0.0957031,0.304443,0.860779
284853061990,-0.396484,-0.0957031,0.304382,0.860779
284853091923,-0.396301,-0.0957031,0.30426,0.860901
284853100839,-0.396179,-0.0958862,0.304382,0.860901
284853122035,-0.395935,-0.0962524,0.304565,0.860901
284853145870,-0.395996,-0.0964355,0.304993,0.860718
284853160847,-0.395752,-0.0961304,0.30542,0.860718
284853181899,-0.39563,-0.0961304,0.305603,0.860657
284853204482,-0.395752,-0.0963135,0.305969,0.860535
284853220876,-0.395203,-0.0963135,0.306519,0.860535
284853241983,-0.394653,-0.0964966,0.307007,0.860596
284853264413,-0.394531,-0.0967407,0.307373,0.860535
284853280841,-0.394287,-0.0969238,0.307739,0.860474
284853301914,-0.394592,-0.097168,0.308105,0.860168
284853324454,-0.394836,-0.0974731,0.30835,0.859924
284853348371,-0.394287,-0.0971069,0.30835,0.860229
284853361934,-0.394226,-0.0967407,0.308533,0.860229
284853384435,-0.394287,-0.0967407,0.309143,0.859985
284853400848,-0.394531,-0.0969238,0.310181,0.859497
284853423367,-0.394714,-0.0969238,0.311218,0.859009
284853444402,-0.394836,-0.0970459,0.312439,0.858521
284853460864,-0.394409,-0.097168,0.313904,0.858154
284853481922,-0.39386,-0.0974731,0.315491,0.857788
284853504398,-0.393372,-0.0980225,0.316895,0.857422
284853528461,-0.392639,-0.0984497,0.318054,0.8573
284853542070,-0.392395,-0.098999,0.319031,0.856995
284853564423,-0.392273,-0.0996094,0.32019,0.856567
284853581294,-0.391541,-0.100159,0.321289,0.856384
284853602090,-0.390686,-0.100586,0.322144,0.856384
284853624507,-0.390259,-0.101013,0.322693,0.856384
284853640943,-0.389893,-0.101135,0.32312,0.856323
284853662063,-0.389587,-0.101257,0.323425,0.856323
284853691988,-0.389587,-0.101379,0.32373,0.856201
284853700857,-0.389465,-0.101685,0.323853,0.856201
284853722035,-0.389038,-0.10199,0.324036,0.856262
284853744492,-0.388733,-0.102356,0.324158,0.856323
284853760881,-0.388306,-0.102417,0.324463,0.856384
284853781907,-0.387634,-0.102051,0.324829,0.856628
284853804386,-0.387695,-0.102051,0.324768,0.856567
284853820838,-0.388184,-0.102051,0.324097,0.856628
284853842015,-0.387634,-0.102783,0.322998,0.857178
284853864413,-0.388977,-0.105042,0.321045,0.857056
284853880862,-0.390076,-0.10675,0.319214,0.856995
284853902046,-0.390503,-0.107483,0.317871,0.857239
284853924496,-0.391602,-0.108826,0.316101,0.857239
284853940894,-0.3927,-0.112427,0.314392,0.856873
284853962108,-0.39325,-0.116089,0.313721,0.856384
284853984505,-0.393188,-0.118835,0.314697,0.855713
284854000321,-0.393311,-0.121765,0.317322,0.854248
284854023389,-0.394592,-0.124573,0.32074,0.85199
284854044418,-0.397888,-0.126343,0.324219,0.848877
284854060239,-0.402222,-0.127319,0.327271,0.84552
284854083137,-0.406555,-0.128113,0.330811,0.841919
284854104433,-0.412292,-0.130798,0.334412,0.83728
284854128396,-0.416992,-0.13385,0.338745,0.832764
284854143365,-0.422363,-0.135315,0.343079,0.828003
284854180751,-0.424561,-0.133728,0.34729,0.825378
284854183161,-0.425903,-0.130798,0.351257,0.823486
284854203483,-0.428833,-0.128601,0.35498,0.820679
284854224448,-0.431458,-0.125854,0.358398,0.818237
284854240308,-0.433472,-0.122864,0.360901,0.816528
284854263459,-0.434814,-0.119812,0.362549,0.815491
284854284535,-0.436096,-0.117432,0.363342,0.81488
284854300392,-0.439331,-0.115906,0.363342,0.813293
284854323490,-0.443115,-0.115295,0.363281,0.81134
284854344567,-0.445129,-0.114319,0.363037,0.810547
284854360268,-0.446716,-0.113098,0.361633,0.810425
284854383397,-0.450134,-0.113159,0.359131,0.809631
284854404453,-0.453979,-0.112427,0.357605,0.808289
284854420271,-0.456543,-0.111267,0.357239,0.80719
284854443421,-0.459717,-0.110474,0.356934,0.805603
284854464446,-0.462891,-0.10968,0.356567,0.804077
284854480240,-0.463867,-0.109741,0.355713,0.803833
284854503366,-0.465454,-0.111572,0.354553,0.803223
284854524471,-0.46759,-0.113708,0.35321,0.802246
284854540188,-0.470154,-0.114014,0.352661,0.800964
284854569527,-0.472412,-0.113159,0.352722,0.799683
284854584415,-0.473938,-0.111938,0.353333,0.798706
284854600234,-0.47467,-0.113525,0.353516,0.798035
284854623397,-0.474365,-0.115295,0.355286,0.79718
284854644455,-0.472839,-0.120544,0.35791,0.796082
284854660209,-0.470642,-0.129883,0.360413,0.7948
284854683370,-0.465881,-0.136902,0.363831,0.794861
284854704444,-0.459412,-0.138916,0.36615,0.797241
284854727045,-0.457764,-0.138306,0.365723,0.798462
284854743445,-0.457825,-0.137451,0.364319,0.799194
284854764433,-0.455811,-0.137939,0.363403,0.80072
284854780361,-0.454163,-0.140991,0.363708,0.800964
284854809517,-0.451538,-0.148132,0.365295,0.800415
284854824517,-0.448303,-0.158142,0.367371,0.799377
284854840306,-0.443481,-0.16095,0.370911,0.799866
284854863487,-0.438538,-0.155396,0.377686,0.800537
284854884522,-0.429932,-0.142883,0.38385,0.804626
284854900383,-0.42572,-0.134033,0.385803,0.807434
284854922763,-0.429932,-0.127869,0.384827,0.806641
284854944461,-0.433533,-0.120117,0.383667,0.806458
284854960248,-0.438721,-0.111328,0.381836,0.805786
284854982743,-0.443054,-0.100708,0.379272,0.80603
284855013360,-0.446167,-0.088501,0.376282,0.807129
284855027004,-0.450073,-0.0769653,0.372253,0.808044
284855042760,-0.455627,-0.0668945,0.367188,0.808105
284855065885,-0.462097,-0.0596313,0.362366,0.80719
284855080365,-0.467285,-0.0551758,0.358337,0.806335
284855102742,-0.47113,-0.0524292,0.354309,0.80603
284855126019,-0.474365,-0.0501099,0.350098,0.806152
284855147096,-0.47821,-0.0490723,0.346375,0.805542
284855162777,-0.482361,-0.0498657,0.343567,0.804199
284855185918,-0.486816,-0.0526733,0.342041,0.802002
284855207065,-0.489197,-0.0557251,0.34082,0.800903
284855222834,-0.48999,-0.0581665,0.340515,0.800354
284855246036,-0.492004,-0.0610352,0.339661,0.799255
284855267074,-0.494202,-0.0635376,0.339111,0.797913
284855282738,-0.495911,-0.0653687,0.339722,0.796448
284855305883,-0.497314,-0.0671387,0.341309,0.794739
284855320262,-0.498535,-0.0686646,0.343079,0.793091
284855342751,-0.498657,-0.0691528,0.344177,0.792542
284855365968,-0.499329,-0.0692749,0.344177,0.792053
284855380270,-0.500671,-0.0697021,0.343628,0.791443
284855402760,-0.501831,-0.0699463,0.343079,0.790894
284855425869,-0.502869,-0.0698242,0.342651,0.790466
284855440222,-0.503357,-0.0690918,0.342285,0.790405
284855462838,-0.503723,-0.0684204,0.341919,0.790344
284855486062,-0.504089,-0.0683594,0.341858,0.7901
284855507005,-0.504028,-0.0687256,0.342346,0.789917
284855522748,-0.50354,-0.0691528,0.34259,0.7901
284855546060,-0.503235,-0.0691528,0.342285,0.790405
284855568415,-0.503296,-0.0686646,0.341797,0.790649
284855590967,-0.503174,-0.0679321,0.341858,0.790771
284855605908,-0.503357,-0.0680542,0.342224,0.790466
284855627027,-0.503174,-0.0686035,0.342651,0.790344
284855642797,-0.502136,-0.0686035,0.342651,0.791016
284855681649,-0.501892,-0.0683594,0.342224,0.791382
284855687061,-0.501953,-0.067627,0.341614,0.791687
284855702818,-0.502197,-0.0667725,0.341003,0.79187
284855725967,-0.502747,-0.0663452,0.340332,0.79187
284855746691,-0.503113,-0.065979,0.339417,0.791992
284855762773,-0.503723,-0.0656128,0.338318,0.792175
284855785971,-0.504639,-0.0651855,0.337097,0.792114
284855807039,-0.505676,-0.0648804,0.335999,0.791931
284855822803,-0.506287,-0.0645142,0.335144,0.791931
284855845976,-0.506714,-0.0641479,0.334656,0.79187
284855867027,-0.507141,-0.0638428,0.334229,0.791809
284855882836,-0.507324,-0.0634155,0.333862,0.79187
284855905355,-0.507568,-0.0631104,0.333496,0.791931
284855928445,-0.507874,-0.0630493,0.332886,0.791992
284855942794,-0.508301,-0.0632935,0.332092,0.791992
284855965293,-0.508484,-0.0634766,0.331299,0.792236
284855988431,-0.508911,-0.0637207,0.330383,0.792297
284856002785,-0.509277,-0.0635986,0.329529,0.79248
284856025354,-0.509644,-0.0632935,0.328674,0.792542
284856048454,-0.510132,-0.0628662,0.328064,0.792542
284856062759,-0.510681,-0.062561,0.327759,0.792358
284856085282,-0.510864,-0.0621948,0.328064,0.792175
284856108499,-0.510803,-0.0619507,0.328918,0.79187
284856122825,-0.51062,-0.0621338,0.330017,0.791443
284856145378,-0.51001,-0.0626221,0.331177,0.791382
284856168452,-0.509399,-0.0633545,0.332336,0.791199
284856190968,-0.508728,-0.0640259,0.333435,0.791077
284856205280,-0.508362,-0.0649414,0.334473,0.790833
284856234477,-0.508301,-0.0661011,0.335144,0.790466
284856242788,-0.508301,-0.0668945,0.335815,0.790161
284856265301,-0.508118,-0.0675049,0.336731,0.789856
284856288442,-0.508118,-0.0685425,0.337952,0.789246
284856309477,-0.507996,-0.0698242,0.339417,0.788574
284856325245,-0.507446,-0.071106,0.341187,0.788086
284856348419,-0.506531,-0.0720825,0.343262,0.787659
284856362777,-0.505859,-0.0733032,0.345459,0.786987
284856385348,-0.50531,-0.0750122,0.347656,0.786194
284856416034,-0.504272,-0.0769043,0.349854,0.785706
284856429585,-0.502991,-0.0788574,0.352234,0.785278
284856445316,-0.501404,-0.0803833,0.354736,0.785034
284856468471,-0.500183,-0.081604,0.357117,0.784607
284856489463,-0.499084,-0.0827637,0.35907,0.784241
284856505281,-0.498535,-0.083313,0.360474,0.783936
284856528501,-0.49823,-0.0834351,0.36145,0.78363
284856549562,-0.497986,-0.0830688,0.362,0.78363
284856564619,-0.498474,-0.083374,0.362366,0.783081
284856578968,-0.497925,-0.0836792,0.363159,0.78302
284856601312,-0.49646,-0.0839233,0.364136,0.783447
284856624609,-0.495789,-0.0848389,0.364136,0.783813
284856640276,-0.495972,-0.0859985,0.363586,0.783813
284856661370,-0.495972,-0.0863037,0.36322,0.783936
284856684636,-0.496216,-0.0863647,0.362976,0.783936
284856698863,-0.497192,-0.0865479,0.362305,0.78363
284856721449,-0.497925,-0.0861816,0.361206,0.783691
284856744568,-0.498718,-0.0857544,0.359619,0.783936
284856759013,-0.500122,-0.0861206,0.357788,0.783875
284856790261,-0.500977,-0.0866089,0.356201,0.783997
284856804464,-0.501038,-0.0869751,0.355225,0.784302
284856818791,-0.501282,-0.0872192,0.355103,0.784241
284856841346,-0.500732,-0.0872192,0.355591,0.784302
284856864481,-0.500305,-0.0876465,0.356323,0.784241
284856878824,-0.500061,-0.0881348,0.356567,0.784241
284856901365,-0.499817,-0.0883179,0.35614,0.784546
284856924544,-0.500183,-0.0884399,0.355774,0.784485
284856938877,-0.500244,-0.0884399,0.355774,0.784424
284856961330,-0.500183,-0.0884399,0.355774,0.784485
284856984549,-0.500061,-0.088562,0.355042,0.784851
284856998851,-0.500183,-0.0891113,0.353577,0.7854
284857021428,-0.50061,-0.0894165,0.352417,0.785583
284857044559,-0.500977,-0.0890503,0.351807,0.785706
284857067035,-0.501282,-0.088562,0.351624,0.785583
284857081387,-0.50177,-0.0881348,0.351501,0.785461
284857104498,-0.502014,-0.0877075,0.351196,0.785461
284857118895,-0.502197,-0.0874023,0.350891,0.785522
284857141391,-0.502136,-0.0871582,0.350891,0.785583
284857164573,-0.502136,-0.0874023,0.351074,0.785461
284857178922,-0.502625,-0.0880127,0.351257,0.784973
284857201436,-0.502686,-0.0881348,0.351624,0.784729
284857224607,-0.502563,-0.0881958,0.351929,0.784729
284857238957,-0.503052,-0.0886841,0.351929,0.784363
284857261418,-0.503235,-0.0891113,0.352356,0.783936
284857284519,-0.503052,-0.0894165,0.35321,0.783691
284857298898,-0.502869,-0.0899048,0.35437,0.783203
284857321444,-0.502258,-0.09021,0.355713,0.782959
284857344583,-0.501526,-0.0906372,0.356995,0.782776
284857358933,-0.500854,-0.0910645,0.358154,0.782654
284857381378,-0.500183,-0.0916748,0.359314,0.782471
284857404590,-0.49939,-0.0925903,0.360413,0.782349
284857418891,-0.498962,-0.0933838,0.361206,0.782227
284857441441,-0.498596,-0.09375,0.361389,0.782288
284857464604,-0.49762,-0.093689,0.360962,0.783081
284857478956,-0.498474,-0.0927734,0.360535,0.782898
284857501416,-0.497742,-0.0923462,0.360535,0.783386
284857524604,-0.49762,-0.0922241,0.35968,0.783875
284857538908,-0.497314,-0.0922852,0.357971,0.784851
284857561466,-0.497681,-0.092041,0.355835,0.785645
284857584668,-0.498413,-0.0914307,0.354309,0.785889
284857598858,-0.498901,-0.0908813,0.353699,0.78595
284857621345,-0.499634,-0.0910645,0.353455,0.785583
284857644520,-0.499817,-0.0911255,0.353516,0.7854
284857658861,-0.499634,-0.0909424,0.353882,0.7854
284857681306,-0.499512,-0.0908813,0.354492,0.785156
284857704542,-0.499512,-0.0913086,0.355164,0.784851
284857718846,-0.499268,-0.0919189,0.355896,0.784607
284857741349,-0.499084,-0.0921021,0.356567,0.784363
284857764512,-0.499207,-0.0922241,0.357056,0.784058
284857778890,-0.499268,-0.0922852,0.357727,0.783752
284857809587,-0.499023,-0.0924072,0.358337,0.783569
284857823937,-0.499146,-0.0927124,0.358643,0.783325
284857838983,-0.499207,-0.0930176,0.358765,0.783203
284857861391,-0.498596,-0.0932007,0.358459,0.783691
284857883889,-0.499329,-0.0931396,0.358459,0.783264
284857900310,-0.498718,-0.0932007,0.358643,0.783569
284857921410,-0.49884,-0.0933838,0.358032,0.783752
284857952706,-0.498535,-0.0932007,0.356628,0.784546
284857958920,-0.498352,-0.0928345,0.354553,0.785645
284857981418,-0.499573,-0.0925903,0.352356,0.785889
284858003859,-0.500366,-0.0922241,0.350647,0.786194
284858018912,-0.50116,-0.0922852,0.349487,0.786194
284858041420,-0.502075,-0.0927734,0.348633,0.786011
284858063938,-0.502319,-0.0928345,0.348083,0.786072
284858078892,-0.502625,-0.0927124,0.347778,0.786011
284858101352,-0.50293,-0.0926514,0.347351,0.786011
284858123856,-0.503174,-0.0928955,0.34668,0.786072
284858141804,-0.503723,-0.0933228,0.345947,0.786011
284858161385,-0.504272,-0.0933228,0.345581,0.785828
284858183922,-0.504272,-0.0932617,0.345581,0.785828
284858198934,-0.504517,-0.0928955,0.345825,0.785645
284858221391,-0.504578,-0.0924683,0.346252,0.785461
284858243951,-0.504395,-0.0922241,0.347107,0.785217
284858258907,-0.503845,-0.0921631,0.348694,0.784851
284858281382,-0.50293,-0.0928345,0.350769,0.784485
284858303874,-0.502747,-0.0939941,0.352478,0.783691
284858318953,-0.501953,-0.0946045,0.353821,0.783508
284858341470,-0.501343,-0.0951538,0.354492,0.783508
284858363873,-0.501038,-0.0960693,0.354431,0.78363
284858378860,-0.501953,-0.0952759,0.353577,0.783508
284858401348,-0.501404,-0.0939941,0.353149,0.784241
284858423902,-0.500427,-0.0932007,0.352173,0.785339
284858438909,-0.500977,-0.0935669,0.34967,0.786133
284858461469,-0.502197,-0.0927124,0.347473,0.786377
284858483859,-0.50238,-0.0911255,0.346436,0.786926
284858498835,-0.503479,-0.0909424,0.346008,0.786438
284858521421,-0.50415,-0.0913086,0.345825,0.786072
284858543941,-0.504089,-0.0914917,0.34552,0.786194
284858558992,-0.504272,-0.0914917,0.344971,0.786316
284858581396,-0.505066,-0.0916748,0.344177,0.786133
284858603870,-0.505798,-0.0916748,0.343506,0.78595
284858618857,-0.506531,-0.0914307,0.34314,0.785645
284858642797,-0.507202,-0.0911255,0.342896,0.7854
284858663880,-0.507507,-0.0908813,0.34259,0.785339
284858678981,-0.50769,-0.0908813,0.342407,0.785339
284858701394,-0.507324,-0.0906982,0.342468,0.785583
284858732078,-0.507324,-0.0906982,0.342468,0.785583
284858740321,-0.507324,-0.0906982,0.342468,0.785583
284858761394,-0.507141,-0.0906372,0.342346,0.785706
284858783918,-0.507202,-0.0906372,0.342346,0.785706
284858807839,-0.507263,-0.0906372,0.342346,0.785645
284858821408,-0.507324,-0.0905151,0.342468,0.785583
284858852041,-0.507324,-0.0904541,0.342468,0.785522
284858860314,-0.507629,-0.0904541,0.342529,0.785339
284858881379,-0.507629,-0.0904541,0.342529,0.785339
284858903912,-0.507629,-0.0904541,0.342529,0.785339
284858920291,-0.507629,-0.0905151,0.342529,0.785339
284858941413,-0.507629,-0.0904541,0.342529,0.785339
284858957812,-0.507629,-0.0904541,0.342529,0.785339
284858980301,-0.507568,-0.0905762,0.342773,0.785278
284859001466,-0.507568,-0.0908203,0.343201,0.785095
284859023834,-0.507446,-0.0910034,0.34375,0.784851
284859040369,-0.507385,-0.0911255,0.344421,0.784607
284859064380,-0.507629,-0.0912476,0.345154,0.784119
284859077873,-0.50769,-0.0914307,0.346191,0.783569
284859100475,-0.507812,-0.0917969,0.347351,0.782959
284859121436,-0.507751,-0.0923462,0.348633,0.782349
284859137941,-0.507507,-0.0930786,0.349854,0.781921
284859160457,-0.50708,-0.0938721,0.350891,0.781555
284859181399,-0.506409,-0.0944824,0.351501,0.781677
284859197877,-0.505676,-0.0946045,0.351379,0.782227
284859220380,-0.505371,-0.0944824,0.351074,0.782532
284859241409,-0.505188,-0.0944214,0.350769,0.782776
284859257851,-0.504639,-0.0942383,0.35083,0.783142
284859280340,-0.504578,-0.0944824,0.350952,0.783142
284859301380,-0.504089,-0.0944824,0.350708,0.783508
284859317904,-0.503906,-0.0942383,0.350098,0.783997
284859340363,-0.504272,-0.0938721,0.348755,0.784363
284859361522,-0.505249,-0.093811,0.346985,0.784546
284859377871,-0.506287,-0.0935059,0.344971,0.78479
284859400398,-0.507385,-0.0927734,0.342957,0.785034
284859421504,-0.508667,-0.0918579,0.341187,0.785095
284859437927,-0.509338,-0.0910034,0.339905,0.785339
284859460411,-0.509216,-0.090271,0.338684,0.786011
284859481526,-0.509338,-0.0897217,0.337646,0.786438
284859497898,-0.509521,-0.0890503,0.336914,0.786743
284859526499,-0.509338,-0.0877686,0.336426,0.78717
284859541495,-0.509216,-0.0863647,0.336182,0.787537
284859565438,-0.508911,-0.0849609,0.336121,0.787903
284859580423,-0.508179,-0.0836182,0.336365,0.788452
284859601505,-0.507996,-0.0825195,0.337036,0.78833
284859617843,-0.507324,-0.081543,0.338318,0.78833
284859641890,-0.505981,-0.0808105,0.340271,0.788452
284859662918,-0.504211,-0.0794067,0.342957,0.788513
284859683965,-0.502625,-0.078186,0.346558,0.788086
284859700436,-0.501343,-0.0775757,0.349915,0.787537
284859722903,-0.49884,-0.0772705,0.353516,0.787476
284859743943,-0.496948,-0.0779419,0.357788,0.786743
284859760397,-0.495422,-0.0795898,0.362366,0.7854
284859782968,-0.491394,-0.0799561,0.368408,0.785095
284859803991,-0.487427,-0.079834,0.374573,0.784668
284859820435,-0.483337,-0.0795898,0.38031,0.784485
284859842943,-0.479126,-0.0793457,0.385803,0.784424
284859863973,-0.476196,-0.0794067,0.391052,0.783569
284859880353,-0.473145,-0.0797119,0.396729,0.782532
284859902849,-0.469421,-0.0809326,0.402588,0.781677
284859924021,-0.465149,-0.0817871,0.408264,0.781189
284859941911,-0.460815,-0.0823975,0.414001,0.78064
284859962888,-0.456543,-0.0831909,0.419983,0.779907
284859983882,-0.45282,-0.0848389,0.425842,0.778748
284860007826,-0.450012,-0.0878906,0.43158,0.776855
284860022844,-0.447327,-0.0931396,0.436951,0.77478
284860052137,-0.443542,-0.0996094,0.441956,0.773315
284860060313,-0.439453,-0.105408,0.447083,0.771912
284860083497,-0.434143,-0.110535,0.452026,0.771362
284860105417,-0.43042,-0.11792,0.456238,0.769836
284860119570,-0.429932,-0.126404,0.459106,0.767029
284860142119,-0.427429,-0.132751,0.461548,0.76593
284860164767,-0.423218,-0.134949,0.46405,0.766296
284860179664,-0.420471,-0.135803,0.465759,0.766663
284860202175,-0.41925,-0.136475,0.46582,0.767212
284860224598,-0.419434,-0.137268,0.464111,0.767944
284860239633,-0.419861,-0.137085,0.461792,0.769165
284860262136,-0.417297,-0.133972,0.459351,0.772522
284860284597,-0.413025,-0.12854,0.457092,0.7771
284860299569,-0.407532,-0.122314,0.45459,0.782471
284860322172,-0.402649,-0.116211,0.451233,0.787842
284860344585,-0.397034,-0.108826,0.447815,0.793701
284860359693,-0.390259,-0.100708,0.444885,0.799744
284860382108,-0.380798,-0.092041,0.443237,0.806213
284860414268,-0.368774,-0.0846558,0.44281,0.812805
284860419653,-0.35791,-0.0788574,0.442322,0.818481
284860442096,-0.348999,-0.0740356,0.441528,0.823242
284860464586,-0.33905,-0.0697021,0.44165,0.827698
284860479600,-0.327942,-0.0673218,0.4422,0.832031
284860502079,-0.320374,-0.0672607,0.441772,0.835205
284860524632,-0.314148,-0.0664673,0.441406,0.837891
284860539641,-0.307007,-0.0637817,0.442566,0.840088
284860562161,-0.301147,-0.0617676,0.445068,0.841064
284860584614,-0.295898,-0.0614014,0.447998,0.84137
284860599594,-0.292908,-0.0619507,0.450012,0.841309
284860622068,-0.291138,-0.0620117,0.450745,0.841492
284860644634,-0.291016,-0.0612793,0.450806,0.841614
284860661131,-0.29303,-0.0606079,0.450073,0.841309
284860682161,-0.296326,-0.0599365,0.448792,0.840942
284860704601,-0.299744,-0.0593872,0.447449,0.840454
284860721089,-0.302246,-0.0592041,0.446533,0.840027
284860742031,-0.304382,-0.0595093,0.445801,0.839661
284860764668,-0.305847,-0.0600586,0.445435,0.839294
284860781177,-0.307007,-0.0608521,0.445129,0.838989
284860802058,-0.307678,-0.0618286,0.444946,0.838745
284860817961,-0.307312,-0.0623779,0.444824,0.838867
284860841565,-0.3078,-0.0626831,0.444153,0.83905
284860862192,-0.309937,-0.0633545,0.442444,0.839111
284860884612,-0.312378,-0.0634155,0.440308,0.839355
284860901128,-0.315613,-0.0638428,0.4375,0.839539
284860922205,-0.321777,-0.0664673,0.434143,0.838745
284860944663,-0.327759,-0.069458,0.431091,0.837769
284860961059,-0.331055,-0.0714722,0.429016,0.837341
284860982152,-0.332825,-0.072937,0.427979,0.837097
284861004642,-0.333801,-0.074707,0.427551,0.836731
284861028636,-0.335083,-0.0766602,0.426819,0.836426
284861042117,-0.337463,-0.0788574,0.425781,0.835754
284861064658,-0.339966,-0.0805664,0.424438,0.835327
284861081105,-0.342529,-0.0821533,0.422852,0.8349
284861102157,-0.345215,-0.0839233,0.421448,0.834351
284861124585,-0.347534,-0.0858154,0.420776,0.833496
284861141031,-0.34845,-0.0870972,0.420776,0.833008
284861162094,-0.348816,-0.0878906,0.420959,0.832642
284861177914,-0.349487,-0.0887451,0.421448,0.832092
284861201073,-0.349731,-0.0894775,0.422241,0.831482
284861221897,-0.349854,-0.0900269,0.423096,0.830933
284861238004,-0.350342,-0.0901489,0.424194,0.830139
284861261070,-0.350037,-0.088562,0.426208,0.829407
284861282185,-0.350159,-0.0869141,0.42865,0.828308
284861297955,-0.350403,-0.0857544,0.431091,0.827026
284861321030,-0.351196,-0.0848389,0.434021,0.825256
284861342121,-0.350159,-0.0830688,0.437439,0.824036
284861364722,-0.346863,-0.0807495,0.44104,0.82373
284861381121,-0.344543,-0.0803833,0.444031,0.823181
284861402172,-0.343506,-0.0819092,0.446045,0.822388
284861424658,-0.342224,-0.0826416,0.447449,0.822083
284861441101,-0.341187,-0.0823364,0.448181,0.822144
284861462225,-0.341187,-0.0820312,0.447449,0.822571
284861478070,-0.343445,-0.0821533,0.445801,0.82251
284861508568,-0.345276,-0.0822754,0.444336,0.82251
284861522115,-0.346436,-0.0823975,0.443665,0.822388
284861537964,-0.346863,-0.0825806,0.443298,0.822388
284861560416,-0.347046,-0.0826416,0.443054,0.822449
284861582173,-0.346924,-0.0827026,0.442932,0.82251
284861597935,-0.346497,-0.0828247,0.442932,0.822693
284861620429,-0.346436,-0.0830688,0.443115,0.822632
284861643576,-0.34668,-0.0834351,0.443359,0.822327
284861658017,-0.346619,-0.0836792,0.443726,0.822144
284861680497,-0.346558,-0.0839844,0.444092,0.821899
284861703647,-0.34613,-0.0842896,0.444397,0.821899
284861717924,-0.34552,-0.0847778,0.444763,0.82196
284861740465,-0.345764,-0.0852661,0.444702,0.821777
284861763626,-0.346558,-0.085083,0.444336,0.821716
284861778033,-0.346802,-0.0844116,0.443481,0.822083
284861800455,-0.348022,-0.0838623,0.442078,0.822388
284861823555,-0.348999,-0.0831909,0.44104,0.822632
284861837864,-0.349304,-0.0819092,0.440186,0.823059
284861860369,-0.350403,-0.0806885,0.439026,0.823364
284861883510,-0.352173,-0.0805054,0.4375,0.823425
284861897963,-0.35321,-0.0808716,0.436462,0.823486
284861920394,-0.35376,-0.0811768,0.43573,0.823608
284861943541,-0.354797,-0.0817261,0.434937,0.823547
284861957889,-0.355652,-0.0825806,0.434021,0.823547
284861980360,-0.356079,-0.0839233,0.433838,0.823364
284862003510,-0.355591,-0.0863647,0.434753,0.822815
284862024761,-0.353882,-0.0895996,0.43634,0.822327
284862040496,-0.351562,-0.0932007,0.438232,0.82196
284862063631,-0.348633,-0.0967407,0.440308,0.821655
284862084671,-0.34491,-0.0999756,0.442749,0.821594
284862100381,-0.340454,-0.103271,0.445557,0.821472
284862131122,-0.335754,-0.106934,0.448303,0.821472
284862144634,-0.331787,-0.111084,0.450439,0.82135
284862160429,-0.329712,-0.115845,0.451355,0.821045
284862184238,-0.327576,-0.119751,0.451172,0.821411
284862204684,-0.326355,-0.124023,0.449646,0.822144
284862220470,-0.328064,-0.129272,0.446533,0.822327
284862243653,-0.330444,-0.135559,0.442749,0.822388
284862264637,-0.330566,-0.141113,0.438782,0.823547
284862280459,-0.332153,-0.149292,0.432861,0.824585
284862303609,-0.336243,-0.159424,0.426147,0.824585
284862324736,-0.336548,-0.166138,0.420105,0.826172
284862340895,-0.336121,-0.171753,0.414612,0.828003
284862363627,-0.336182,-0.177185,0.409729,0.829285
284862384709,-0.338379,-0.1828,0.404785,0.82959
284862400428,-0.34259,-0.187927,0.400635,0.828674
284862423655,-0.343262,-0.190735,0.399109,0.828552
284862444615,-0.340393,-0.189941,0.398987,0.829956
284862460456,-0.338196,-0.189209,0.398315,0.83136
284862483662,-0.33551,-0.189819,0.397156,0.832825
284862504604,-0.333557,-0.191467,0.395691,0.833923
284862528656,-0.334045,-0.193909,0.394043,0.833984
284862543026,-0.335022,-0.195984,0.392456,0.833801
284862566145,-0.334656,-0.198792,0.391357,0.833862
284862580417,-0.333923,-0.201355,0.389587,0.834351
284862602871,-0.333191,-0.203064,0.386719,0.835571
284862626110,-0.335327,-0.204651,0.384033,0.835571
284862640471,-0.338135,-0.206421,0.381958,0.834961
284862662995,-0.340027,-0.208191,0.378845,0.835144
284862686064,-0.340271,-0.209961,0.374573,0.836548
284862700386,-0.341675,-0.213074,0.370789,0.836853
284862722962,-0.342346,-0.21582,0.367981,0.837097
284862746055,-0.341553,-0.217773,0.36615,0.837769
284862760440,-0.338623,-0.218811,0.364807,0.839233
284862783000,-0.333679,-0.219116,0.363464,0.841736
284862806122,-0.328918,-0.219177,0.361206,0.844543
284862827141,-0.326111,-0.220581,0.358215,0.846558
284862843010,-0.325562,-0.223389,0.354797,0.847473
284862866094,-0.327515,-0.226685,0.351746,0.847107
284862894651,-0.329468,-0.229065,0.350098,0.846375
284862902979,-0.329773,-0.229675,0.348633,0.84668
284862926064,-0.330261,-0.22937,0.346924,0.84729
284862947216,-0.330994,-0.22937,0.345093,0.847778
284862962996,-0.332153,-0.23053,0.343506,0.847656
284862986091,-0.33374,-0.232178,0.341858,0.847229
284863000367,-0.334595,-0.233215,0.340515,0.847168
284863022982,-0.333862,-0.232971,0.339661,0.847839
284863046062,-0.332214,-0.233765,0.33905,0.848572
284863067163,-0.33252,-0.236023,0.338562,0.847961
284863082996,-0.333008,-0.236572,0.338562,0.847656
284863106042,-0.331848,-0.234741,0.339417,0.848267
284863128568,-0.331482,-0.233093,0.34082,0.848267
284863142969,-0.332214,-0.232666,0.34198,0.847656
284863173537,-0.332581,-0.232666,0.342468,0.84729
284863187142,-0.331848,-0.232544,0.343384,0.84729
284863202996,-0.329712,-0.231323,0.344604,0.847961
284863226156,-0.327026,-0.229187,0.345886,0.848999
284863247187,-0.32373,-0.227112,0.346924,0.850403
284863262960,-0.321411,-0.226074,0.347839,0.851257
284863286061,-0.320496,-0.225647,0.348755,0.851318
284863307146,-0.318909,-0.224854,0.349976,0.851624
284863322997,-0.315857,-0.223877,0.351135,0.852539
284863346054,-0.313599,-0.223572,0.351685,0.85321
284863367167,-0.311462,-0.223206,0.35199,0.853943
284863382998,-0.310181,-0.2229,0.351929,0.854492
284863406079,-0.309937,-0.222839,0.351929,0.854614
284863427145,-0.31012,-0.222778,0.351624,0.854675
284863451117,-0.310303,-0.222351,0.350952,0.85498
284863465484,-0.310425,-0.221924,0.350159,0.855408
284863488592,-0.310547,-0.221802,0.349182,0.855835
284863502969,-0.310181,-0.222107,0.347717,0.856445
284863525404,-0.309021,-0.222778,0.345886,0.857422
284863548569,-0.307678,-0.223816,0.343872,0.858459
284863562974,-0.30603,-0.224792,0.341919,0.859558
284863585498,-0.303955,-0.225891,0.340454,0.860596
284863614670,-0.302246,-0.226868,0.339478,0.861328
284863622997,-0.301147,-0.227417,0.338867,0.861816
284863645423,-0.301086,-0.227051,0.338928,0.861877
284863668595,-0.300354,-0.226746,0.3396,0.862
284863689670,-0.299316,-0.226257,0.340332,0.862183
284863696488,-0.298828,-0.226013,0.341003,0.862122
284863727842,-0.29834,-0.226013,0.341736,0.862
284863742150,-0.297729,-0.226257,0.342285,0.861938
284863756499,-0.297424,-0.226746,0.342468,0.861877
284863779042,-0.296936,-0.227478,0.342651,0.861755
284863802164,-0.296631,-0.228027,0.342773,0.861694
284863816489,-0.296265,-0.228455,0.342957,0.861633
284863839004,-0.295776,-0.228699,0.342957,0.861694
284863862191,-0.295471,-0.228943,0.34259,0.861877
284863876497,-0.295227,-0.229309,0.342041,0.862122
284863899068,-0.295715,-0.229736,0.341553,0.862061
284863922233,-0.296265,-0.229797,0.341248,0.861938
284863936533,-0.296204,-0.229492,0.341187,0.862061
284863959016,-0.295837,-0.229187,0.341003,0.862305
284863982164,-0.295349,-0.228638,0.340881,0.862671
284864004693,-0.2948,-0.228088,0.340637,0.863098
284864018986,-0.294922,-0.227844,0.340271,0.863281
284864042157,-0.29541,-0.227966,0.339783,0.863281
284864056493,-0.29541,-0.227966,0.339478,0.863403
284864079017,-0.295105,-0.227844,0.339111,0.863708
284864102136,-0.294739,-0.227783,0.338684,0.864014
284864116493,-0.294495,-0.227844,0.338501,0.864136
284864139030,-0.294006,-0.227905,0.338562,0.864258
284864162169,-0.293396,-0.228149,0.338562,0.86438
284864176469,-0.293335,-0.228638,0.33844,0.864319
284864199020,-0.292969,-0.22876,0.338806,0.864319
284864222182,-0.292419,-0.228638,0.339172,0.86438
284864244674,-0.29187,-0.228699,0.339539,0.86438
284864259020,-0.29187,-0.229065,0.339905,0.864136
284864282169,-0.292053,-0.228943,0.340759,0.86377
284864296535,-0.29187,-0.228394,0.342041,0.863464
284864319030,-0.291504,-0.227722,0.343323,0.863281
284864342166,-0.290833,-0.226807,0.344604,0.86322
284864356500,-0.289795,-0.225891,0.345581,0.863464
284864379013,-0.289001,-0.224792,0.346069,0.86377
284864402132,-0.289612,-0.224426,0.346313,0.863586
284864416480,-0.290588,-0.224365,0.346436,0.86322
284864439038,-0.290649,-0.224304,0.346436,0.86322
284864461530,-0.290527,-0.224548,0.346497,0.863159
284864476532,-0.289673,-0.225159,0.346619,0.863281
284864499021,-0.288208,-0.225952,0.346802,0.863464
284864521469,-0.287598,-0.226746,0.346741,0.863464
284864536528,-0.288086,-0.227661,0.346619,0.863159
284864560426,-0.288818,-0.229065,0.346863,0.862427
284864581514,-0.290039,-0.231079,0.3479,0.861023
284864597775,-0.290466,-0.232727,0.349426,0.859863
284864619020,-0.289673,-0.233765,0.351196,0.85907
284864641535,-0.287598,-0.234985,0.353455,0.858521
284864656454,-0.284973,-0.236389,0.355957,0.857971
284864678999,-0.283203,-0.237183,0.358582,0.857239
284864701487,-0.280396,-0.236145,0.362,0.857056
284864725146,-0.277405,-0.234131,0.365479,0.857117
284864739025,-0.276306,-0.232727,0.368103,0.856689
284864761488,-0.276611,-0.232422,0.369629,0.856018
284864776544,-0.277344,-0.232544,0.370178,0.85553
284864799048,-0.277588,-0.232849,0.370056,0.855408
284864821574,-0.277405,-0.233093,0.369507,0.855652
284864836542,-0.277283,-0.233154,0.368896,0.855896
284864859016,-0.277161,-0.233154,0.368652,0.856079
284864881524,-0.277344,-0.232666,0.368469,0.856262
284864896526,-0.278259,-0.232178,0.368103,0.856201
284864919043,-0.279053,-0.231934,0.367615,0.856262
284864941540,-0.27887,-0.231812,0.367126,0.856567
284864956584,-0.278259,-0.231689,0.366577,0.856995
284864978970,-0.277771,-0.231812,0.365845,0.857422
284865001515,-0.277832,-0.231934,0.36499,0.857788
284865016510,-0.278381,-0.232178,0.364136,0.857849
284865039041,-0.279053,-0.232361,0.363647,0.857788
284865061546,-0.27948,-0.232239,0.363647,0.857727
284865076444,-0.279724,-0.231812,0.363708,0.857727
284865099014,-0.279602,-0.23114,0.363892,0.857849
284865121489,-0.279297,-0.230896,0.363953,0.858032
284865136555,-0.278687,-0.230957,0.363647,0.858276
284865159046,-0.278931,-0.23114,0.363403,0.858276
284865181567,-0.279419,-0.230896,0.363403,0.858215
284865196512,-0.27948,-0.230103,0.363342,0.858398
284865219049,-0.279968,-0.229736,0.36322,0.858398
284865241484,-0.279907,-0.230408,0.363098,0.858337
284865256542,-0.278625,-0.232056,0.362793,0.858398
284865279061,-0.278625,-0.233826,0.361816,0.858337
284865301520,-0.277405,-0.234558,0.361633,0.858643
284865316474,-0.275635,-0.235229,0.362549,0.858582
284865339035,-0.274475,-0.235901,0.364136,0.858093
284865361538,-0.272034,-0.235718,0.366821,0.857849
284865377994,-0.2677,-0.234253,0.370178,0.858154
284865398999,-0.262268,-0.232788,0.373413,0.858826
284865421548,-0.257568,-0.232178,0.376282,0.859131
284865437998,-0.25293,-0.231812,0.378174,0.859802
284865459141,-0.248108,-0.231506,0.378845,0.860962
284865481615,-0.243286,-0.230957,0.378906,0.862488
284865498037,-0.239502,-0.230652,0.378296,0.863892
284865519074,-0.237427,-0.230103,0.377563,0.864929
284865541560,-0.237976,-0.229797,0.377258,0.86499
284865558042,-0.238403,-0.228943,0.37793,0.864807
284865579097,-0.236938,-0.227173,0.3797,0.864868
284865601561,-0.234619,-0.225525,0.38147,0.865173
284865618018,-0.232483,-0.224365,0.382507,0.865601
284865639127,-0.230225,-0.223572,0.382996,0.866211
284865661522,-0.22821,-0.222473,0.383667,0.866699
284865678036,-0.22699,-0.220459,0.385193,0.866882
284865699161,-0.227356,-0.218506,0.387024,0.866455
284865723070,-0.227905,-0.217041,0.388306,0.866089
284865744175,-0.228027,-0.216064,0.388916,0.866028
284865759117,-0.227234,-0.215515,0.389038,0.866333
284865781614,-0.226501,-0.215332,0.389038,0.866577
284865798018,-0.226074,-0.215027,0.38916,0.866699
284865819109,-0.22583,-0.214661,0.38916,0.866882
284865841606,-0.226196,-0.214355,0.388672,0.867065
284865859433,-0.227112,-0.214539,0.388062,0.867004
284865882027,-0.227295,-0.214417,0.387756,0.867126
284865901549,-0.226624,-0.213684,0.388123,0.867371
284865918082,-0.225769,-0.212463,0.388977,0.867493
284865947234,-0.22583,-0.21167,0.389832,0.86731
284865961584,-0.226624,-0.211243,0.390625,0.866821
284865978027,-0.227112,-0.211182,0.391663,0.866272
284865999133,-0.226196,-0.21106,0.392822,0.865967
284866021601,-0.224304,-0.210571,0.393982,0.866089
284866038002,-0.222046,-0.209717,0.394653,0.866577
284866059062,-0.220825,-0.209167,0.394409,0.867065
284866081581,-0.220703,-0.210022,0.393311,0.867432
284866097974,-0.220703,-0.211121,0.391602,0.86792
284866119189,-0.222046,-0.212463,0.389832,0.868042
284866141564,-0.224243,-0.213623,0.388611,0.867737
284866157957,-0.224182,-0.213196,0.388245,0.868042
284866179065,-0.223328,-0.212341,0.388184,0.868469
284866201629,-0.2229,-0.211731,0.388123,0.868774
284866217968,-0.222229,-0.211365,0.388123,0.86908
284866239036,-0.221191,-0.210876,0.388,0.869507
284866261545,-0.220703,-0.210083,0.387512,0.869995
284866277973,-0.22168,-0.208801,0.387024,0.8703
284866300482,-0.223938,-0.207581,0.386353,0.8703
284866321575,-0.226685,-0.20697,0.385498,0.870117
284866339442,-0.228943,-0.205994,0.384644,0.870178
284866360457,-0.22937,-0.204834,0.383606,0.870789
284866389754,-0.229065,-0.204346,0.382202,0.871582
284866397981,-0.229309,-0.204712,0.380005,0.872375
284866420576,-0.229797,-0.205872,0.377136,0.87323
284866441581,-0.231445,-0.207886,0.374268,0.873535
284866458031,-0.232056,-0.2099,0.371643,0.874023
284866480505,-0.231445,-0.211548,0.369873,0.874573
284866502973,-0.230469,-0.213135,0.368408,0.875061
284866517999,-0.230225,-0.214172,0.366821,0.875549
284866540463,-0.229797,-0.214783,0.365112,0.87616
284866561539,-0.231689,-0.215881,0.36261,0.876465
284866577962,-0.233948,-0.21759,0.35968,0.876648
284866600462,-0.235596,-0.219971,0.356567,0.876892
284866622288,-0.236938,-0.222351,0.353394,0.877197
284866637964,-0.237549,-0.223938,0.350769,0.877686
284866660459,-0.238647,-0.225586,0.34845,0.87793
284866681617,-0.240051,-0.227478,0.346069,0.877991
284866697965,-0.239929,-0.229004,0.344238,0.878296
284866720536,-0.238647,-0.230957,0.341919,0.879089
284866741614,-0.238037,-0.233154,0.338989,0.879761
284866758062,-0.237793,-0.235107,0.335693,0.880615
284866781955,-0.239624,-0.237305,0.333435,0.880371
284866801495,-0.240845,-0.238403,0.33313,0.879883
284866817988,-0.241394,-0.23877,0.334839,0.878967
284866840457,-0.240234,-0.237976,0.338196,0.878174
284866861528,-0.237915,-0.236328,0.342285,0.877686
284866877961,-0.233521,-0.234253,0.346558,0.877747
284866901133,-0.228882,-0.232422,0.349731,0.878235
284866921585,-0.225891,-0.231262,0.351501,0.87854
284866937971,-0.225403,-0.231018,0.352356,0.878418
284866960474,-0.226135,-0.231445,0.352539,0.878052
284866981551,-0.226685,-0.231628,0.352417,0.877869
284866997965,-0.226135,-0.231689,0.352234,0.878113
284867020532,-0.225098,-0.231689,0.352173,0.878418
284867041546,-0.225098,-0.231445,0.352356,0.878418
284867058006,-0.226746,-0.230713,0.352722,0.877991
284867080511,-0.228577,-0.229736,0.353638,0.877441
284867101591,-0.22876,-0.228394,0.354797,0.877258
284867118006,-0.228271,-0.2276,0.35553,0.877258
284867140514,-0.228088,-0.227356,0.35614,0.877136
284867161519,-0.227478,-0.226624,0.356934,0.877197
284867178008,-0.227112,-0.225525,0.357727,0.877258
284867200501,-0.227295,-0.224548,0.358276,0.877197
284867221526,-0.227905,-0.223389,0.358582,0.877197
284867245459,-0.228333,-0.222778,0.358398,0.877319
284867259700,-0.228638,-0.222961,0.357727,0.877502
284867282238,-0.229126,-0.223328,0.356873,0.877625
284867298634,-0.229126,-0.223022,0.356018,0.878052
284867319857,-0.229675,-0.222717,0.355042,0.878418
284867342386,-0.231995,-0.223267,0.353821,0.878113
284867358778,-0.234436,-0.224243,0.352722,0.877686
284867379837,-0.236633,-0.225281,0.351685,0.877197
284867402263,-0.238647,-0.226318,0.350464,0.876892
284867418696,-0.24115,-0.227356,0.349487,0.876343
284867439821,-0.2453,-0.22876,0.34906,0.875
284867463770,-0.248108,-0.229797,0.349365,0.873779
284867478758,-0.248657,-0.229736,0.349976,0.873413
284867499764,-0.24762,-0.228394,0.350586,0.87384
284867522230,-0.24707,-0.227478,0.351624,0.873779
284867538659,-0.245789,-0.226135,0.353516,0.873779
284867559902,-0.244385,-0.224609,0.355347,0.873779
284867582341,-0.244751,-0.223511,0.356628,0.873474
284867598710,-0.245911,-0.22345,0.357727,0.872681
284867619793,-0.243896,-0.222656,0.359619,0.872681
284867642272,-0.240051,-0.220398,0.362183,0.87323
284867658655,-0.237366,-0.218567,0.364624,0.873413
284867679805,-0.234558,-0.217163,0.367554,0.873352
284867702257,-0.227661,-0.21344,0.37207,0.874146
284867718063,-0.22052,-0.207886,0.376465,0.875427
284867739820,-0.216553,-0.204041,0.380066,0.875793
284867762229,-0.211609,-0.201233,0.383545,0.876099
284867784729,-0.200439,-0.19635,0.386047,0.878723
284867799721,-0.193909,-0.193909,0.385864,0.880798
284867822217,-0.192444,-0.193848,0.384949,0.881592
284867837980,-0.191711,-0.193787,0.385193,0.881653
284867859737,-0.191406,-0.193298,0.386353,0.881287
284867882259,-0.191101,-0.19281,0.388794,0.880371
284867898702,-0.187378,-0.190552,0.393127,0.879761
284867919730,-0.181763,-0.186584,0.399353,0.878967
284867942238,-0.17572,-0.181946,0.406006,0.878113
284867958734,-0.170471,-0.178467,0.412354,0.876953
284867979733,-0.16449,-0.174683,0.418579,0.875854
284868002301,-0.155884,-0.169556,0.4245,0.87561
284868018050,-0.148987,-0.166687,0.429565,0.874878
284868039830,-0.146179,-0.166748,0.43335,0.873474
284868062282,-0.145752,-0.167053,0.435791,0.872314
284868078088,-0.146484,-0.166992,0.437073,0.871521
284868099784,-0.147705,-0.167358,0.437317,0.871155
284868129865,-0.149902,-0.168213,0.43689,0.870789
284868138710,-0.152039,-0.168884,0.436218,0.870605
284868159819,-0.153137,-0.1698,0.435425,0.870667
284868182317,-0.153015,-0.171448,0.434387,0.87085
284868198105,-0.153198,-0.173218,0.433594,0.870911
284868221251,-0.153137,-0.174744,0.433044,0.870911
284868243849,-0.151428,-0.175476,0.432556,0.871277
284868258070,-0.149597,-0.176208,0.431824,0.871826
284868281260,-0.149048,-0.177002,0.43103,0.872131
284868302293,-0.150024,-0.177795,0.430481,0.87207
284868318077,-0.151184,-0.178223,0.429993,0.872009
284868341231,-0.151855,-0.178284,0.429688,0.87207
284868362306,-0.152344,-0.178528,0.429321,0.87207
284868378101,-0.152283,-0.17865,0.429321,0.87207
284868408714,-0.152283,-0.178711,0.42926,0.87207
284868422285,-0.152344,-0.178711,0.429443,0.872009
284868446269,-0.151978,-0.178589,0.429626,0.872009
284868461283,-0.151611,-0.178467,0.429626,0.87207
284868482355,-0.151489,-0.178772,0.429443,0.872131
284868498073,-0.151367,-0.178894,0.429199,0.872253
284868521264,-0.151306,-0.179077,0.428833,0.872375
284868542326,-0.151611,-0.179871,0.428345,0.872437
284868558090,-0.15155,-0.180542,0.428162,0.872375
284868581290,-0.151428,-0.180664,0.428345,0.872314
284868602356,-0.151306,-0.180725,0.428528,0.872253
284868618105,-0.151306,-0.180664,0.428528,0.872253
284868641263,-0.151428,-0.181091,0.428345,0.872192
284868662241,-0.151123,-0.181519,0.428284,0.872192
284868678000,-0.150635,-0.181702,0.428162,0.872314
284868701228,-0.150513,-0.182434,0.427917,0.872314
284868722347,-0.150452,-0.182556,0.427917,0.872314
284868738143,-0.150146,-0.182861,0.42804,0.872253
284868761251,-0.150024,-0.18335,0.428101,0.87207
284868782322,-0.149902,-0.184082,0.428284,0.871887
284868798057,-0.14978,-0.184753,0.428589,0.871643
284868821279,-0.149353,-0.184692,0.429138,0.871399
284868842336,-0.148376,-0.184021,0.430115,0.871216
284868858085,-0.146973,-0.183105,0.431274,0.871094
284868881292,-0.145325,-0.181946,0.432495,0.871033
284868909803,-0.144714,-0.18103,0.433655,0.870728
284868918060,-0.14502,-0.180237,0.435059,0.870117
284868941252,-0.145447,-0.179626,0.436401,0.869507
284868963738,-0.145752,-0.17865,0.437866,0.868958
284868978069,-0.146118,-0.176819,0.439453,0.868469
284869001655,-0.147278,-0.17511,0.44104,0.867798
284869022315,-0.148682,-0.172852,0.443298,0.866821
284869038113,-0.148743,-0.168945,0.446411,0.866028
284869061303,-0.148804,-0.164795,0.449585,0.865173
284869082248,-0.15033,-0.162231,0.452148,0.864014
284869098090,-0.153259,-0.160583,0.454651,0.862549
284869121236,-0.155884,-0.157715,0.457642,0.861023
284869142210,-0.157837,-0.154053,0.460938,0.859558
284869158095,-0.161499,-0.152344,0.463623,0.857727
284869180646,-0.168152,-0.152771,0.466064,0.855042
284869203752,-0.175354,-0.151855,0.469299,0.85199
284869218077,-0.181152,-0.148071,0.473633,0.84906
284869240591,-0.184998,-0.143677,0.477966,0.846558
284869263766,-0.18927,-0.140747,0.481506,0.844055
284869278585,-0.193054,-0.138367,0.484314,0.84198
284869300607,-0.196899,-0.13501,0.486328,0.840515
284869323845,-0.199829,-0.130371,0.487488,0.839844
284869346280,-0.203003,-0.126526,0.487366,0.839783
284869360610,-0.207336,-0.124023,0.486206,0.839722
284869383763,-0.211731,-0.122742,0.483948,0.840149
284869398125,-0.216064,-0.121704,0.481506,0.840576
284869420587,-0.221008,-0.121094,0.47937,0.840637
284869443785,-0.224548,-0.119873,0.477722,0.840759
284869464892,-0.227112,-0.118103,0.476501,0.841064
284869480642,-0.229309,-0.117188,0.47522,0.841309
284869503768,-0.232544,-0.11792,0.47406,0.840942
284869518108,-0.235352,-0.118774,0.473755,0.840271
284869540660,-0.237,-0.119507,0.473877,0.8396
284869563801,-0.238647,-0.121399,0.473877,0.838867
284869584824,-0.240723,-0.124878,0.473267,0.838074
284869600548,-0.242493,-0.128845,0.472412,0.837463
284869623683,-0.243469,-0.132874,0.471375,0.837158
284869644884,-0.24408,-0.137878,0.470215,0.836792
284869660633,-0.244446,-0.144836,0.468445,0.836548
284869683818,-0.2453,-0.155518,0.464478,0.836548
284869704845,-0.247192,-0.168884,0.460144,0.835815
284869720640,-0.248047,-0.180481,0.456116,0.835327
284869743778,-0.249084,-0.190979,0.450439,0.835815
284869764894,-0.253906,-0.201904,0.440613,0.837036
284869780657,-0.259949,-0.211182,0.427185,0.839783
284869803744,-0.265564,-0.220093,0.411133,0.843811
284869824872,-0.273132,-0.229858,0.391724,0.848022
284869840582,-0.281677,-0.239807,0.368774,0.852722
284869863742,-0.291382,-0.249023,0.343628,0.8573
284869884808,-0.300659,-0.253723,0.318054,0.862549
284869900626,-0.307007,-0.254333,0.292297,0.869263
284869923775,-0.314331,-0.254395,0.266113,0.875
284869944846,-0.322144,-0.253845,0.23999,0.879883
284869960671,-0.329834,-0.252991,0.214783,0.883728
284869983771,-0.337036,-0.251221,0.191589,0.886902
284870004806,-0.342407,-0.244812,0.171448,0.890747
284870020602,-0.348206,-0.237976,0.151489,0.893921
284870043817,-0.355042,-0.23175,0.131958,0.895996
284870064860,-0.359192,-0.22583,0.114136,0.898315
284870080612,-0.362915,-0.21991,0.0982666,0.900146
284870103072,-0.366821,-0.213196,0.085083,0.901489
284870126310,-0.368958,-0.206177,0.0738525,0.903259
284870140596,-0.370911,-0.200256,0.0637207,0.904541
284870163182,-0.373901,-0.196472,0.0546265,0.904785
284870186272,-0.377686,-0.195251,0.0461426,0.903931
284870200709,-0.382751,-0.19519,0.0390625,0.902161
284870223072,-0.386536,-0.195068,0.0342407,0.900757
284870246267,-0.389587,-0.19574,0.031189,0.899414
284870260602,-0.393311,-0.198425,0.0284424,0.897278
284870283081,-0.397095,-0.203308,0.0263062,0.894592
284870306319,-0.399963,-0.209534,0.0250854,0.891907
284870320652,-0.399597,-0.214478,0.0244751,0.89093
284870343130,-0.399475,-0.218384,0.0241699,0.890015
284870366236,-0.399963,-0.221619,0.0231934,0.889038
284870387367,-0.401062,-0.224304,0.0218506,0.887878
284870403157,-0.401855,-0.227173,0.0204468,0.886841
284870426290,-0.401184,-0.230286,0.0194092,0.886353
284870447413,-0.399658,-0.232727,0.0188599,0.886414
284870463107,-0.398438,-0.234558,0.0183716,0.886475
284870486306,-0.39801,-0.235962,0.0180664,0.886292
284870500690,-0.398743,-0.236877,0.0184326,0.885742
284870523126,-0.400391,-0.237671,0.0192261,0.884766
284870546294,-0.401611,-0.238464,0.0198975,0.883972
284870560641,-0.403259,-0.239258,0.0201416,0.882996
284870583195,-0.406677,-0.239319,0.0199585,0.88147
284870606271,-0.411377,-0.237244,0.0198975,0.879822
284870627361,-0.415649,-0.232727,0.020874,0.878967
284870643093,-0.418701,-0.226929,0.022583,0.879028
284870666338,-0.420959,-0.219849,0.0248413,0.879639
284870687418,-0.422424,-0.212463,0.02771,0.880676
284870703191,-0.425537,-0.204285,0.0315552,0.880981
284870733809,-0.429321,-0.194153,0.0379639,0.881226
284870747415,-0.431458,-0.182678,0.0469971,0.882141
284870763102,-0.433044,-0.171021,0.0577393,0.883118
284870793838,-0.435181,-0.15918,0.0687866,0.883484
284870807364,-0.436951,-0.147339,0.0801392,0.883667
284870823144,-0.437195,-0.136047,0.0913696,0.884277
284870846330,-0.436707,-0.126587,0.102051,0.884766
284870859198,-0.435913,-0.118958,0.112244,0.88501
284870882406,-0.435364,-0.111633,0.121765,0.884949
284870896711,-0.431824,-0.102478,0.130798,0.886536
284870919229,-0.428284,-0.09198,0.139954,0.888
284870942404,-0.425232,-0.0801392,0.148987,0.889099
284870956732,-0.420959,-0.0684204,0.156677,0.890808
284870979228,-0.416016,-0.0570068,0.16333,0.892761
284871002356,-0.411377,-0.0443726,0.169067,0.894531
284871016737,-0.405518,-0.0310669,0.172668,0.897095
284871039208,-0.401428,-0.019165,0.174805,0.898804
284871062398,-0.397705,-0.00866699,0.176453,0.90033
284871076729,-0.391907,0.000183105,0.177917,0.902588
284871099270,-0.386169,0.00531006,0.178894,0.904907
284871122325,-0.378174,0.00561523,0.177856,0.908447
284871136739,-0.369385,0.000671387,0.175232,0.912598
284871159205,-0.361938,-0.00927734,0.172241,0.916077
284871182385,-0.354126,-0.0216675,0.168335,0.919678
284871196641,-0.345581,-0.0336304,0.165039,0.923157
284871220656,-0.334778,-0.0432129,0.163879,0.92688
284871242399,-0.323975,-0.0511475,0.164612,0.930237
284871256742,-0.316833,-0.0582886,0.1651,0.932129
284871279216,-0.311829,-0.0641479,0.164612,0.933533
284871302309,-0.308289,-0.0683594,0.163879,0.93457
284871316671,-0.307678,-0.0712891,0.163696,0.93457
284871348018,-0.308289,-0.0720825,0.164246,0.934204
284871362379,-0.309448,-0.0712891,0.164124,0.933899
284871376724,-0.311218,-0.0699463,0.163635,0.933472
284871399238,-0.31366,-0.0685425,0.163818,0.932739
284871422434,-0.316101,-0.0675659,0.164673,0.931885
284871436698,-0.317383,-0.0668335,0.165771,0.931274
284871459192,-0.318481,-0.0669556,0.167175,0.930664
284871482464,-0.318054,-0.067749,0.16864,0.930481
284871496690,-0.31665,-0.0685425,0.169922,0.930664
284871519214,-0.315247,-0.0690308,0.170959,0.930908
284871542372,-0.314026,-0.0689087,0.171509,0.931213
284871556709,-0.313416,-0.0673218,0.17157,0.931519
284871579224,-0.314758,-0.065918,0.171021,0.931274
284871602372,-0.315369,-0.0646973,0.170288,0.931274
284871624868,-0.317383,-0.0650635,0.169128,0.930786
284871639211,-0.321533,-0.06604,0.168091,0.929504
284871662438,-0.323486,-0.0662842,0.168091,0.928772
284871676686,-0.324829,-0.0662231,0.169189,0.928162
284871699299,-0.324463,-0.0663452,0.170959,0.927917
284871722394,-0.32312,-0.0671997,0.172852,0.927979
284871736746,-0.320557,-0.0675049,0.174316,0.928589
284871759150,-0.318726,-0.0673828,0.175293,0.929016
284871782439,-0.317444,-0.0673218,0.175293,0.929443
284871796660,-0.318726,-0.0674438,0.174988,0.929077
284871819164,-0.31958,-0.0675049,0.174988,0.928772
284871842466,-0.319397,-0.0671997,0.175354,0.928833
284871856718,-0.319214,-0.0671997,0.175842,0.928772
284871879270,-0.318604,-0.0673218,0.17627,0.928894
284871902368,-0.318237,-0.0670166,0.176208,0.929077
284871916751,-0.318604,-0.0665894,0.176147,0.928955
284871939215,-0.318604,-0.0661621,0.17627,0.929016
284871962405,-0.318176,-0.0655518,0.176575,0.929138
284871976736,-0.317444,-0.0651245,0.177124,0.92926
284871999244,-0.316895,-0.0647583,0.177673,0.929382
284872021742,-0.316467,-0.0641479,0.177856,0.929565
284872036708,-0.315613,-0.0636597,0.177124,0.929993
284872059207,-0.315186,-0.0640259,0.176453,0.930237
284872081752,-0.315186,-0.0646362,0.175964,0.930298
284872096737,-0.315491,-0.0640869,0.175903,0.930237
284872119888,-0.315979,-0.0633545,0.176575,0.929993
284872141765,-0.316711,-0.0629883,0.177246,0.929688
284872156783,-0.316589,-0.0628662,0.178101,0.929565
284872180662,-0.316101,-0.0622559,0.17804,0.929749
284872201688,-0.315002,-0.0614014,0.177734,0.930237
284872216655,-0.314941,-0.0614014,0.177734,0.930298
284872239187,-0.315308,-0.0617065,0.177917,0.930115
284872261799,-0.315308,-0.0612183,0.177612,0.930176
284872293042,-0.316284,-0.0606079,0.17749,0.929932
284872299183,-0.316833,-0.06073,0.177612,0.929688
284872321705,-0.317139,-0.0610962,0.17749,0.929565
284872336755,-0.316772,-0.0617065,0.177307,0.929749
284872359260,-0.315613,-0.0620728,0.177124,0.930115
284872381743,-0.315186,-0.0615234,0.177002,0.930298
284872398100,-0.315735,-0.0608521,0.177124,0.930176
284872419167,-0.317078,-0.0609741,0.177734,0.929565
284872449755,-0.317139,-0.0609741,0.178467,0.929382
284872459660,-0.31665,-0.0606689,0.178772,0.929504
284872479325,-0.316528,-0.0603638,0.179138,0.929565
284872501687,-0.316284,-0.0606689,0.179749,0.929504
284872516710,-0.316589,-0.0615234,0.180481,0.929138
284872539205,-0.316956,-0.0618896,0.180908,0.928955
284872561707,-0.316833,-0.0609131,0.181458,0.928955
284872576631,-0.317444,-0.0593262,0.182678,0.928589
284872607335,-0.31958,-0.0593262,0.184204,0.927551
284872621630,-0.319946,-0.0602417,0.18573,0.927063
284872636631,-0.318054,-0.0608521,0.186829,0.927429
284872659197,-0.317749,-0.0617676,0.187134,0.927429
284872681712,-0.317688,-0.0626831,0.187073,0.927429
284872696707,-0.318298,-0.0632935,0.186707,0.927246
284872719207,-0.319885,-0.0631104,0.18634,0.926758
284872741723,-0.320374,-0.0620117,0.185974,0.926758
284872756636,-0.32074,-0.0612183,0.185608,0.926758
284872779198,-0.321716,-0.0614624,0.185425,0.926453
284872801654,-0.321899,-0.0617676,0.185547,0.926331
284872818089,-0.320679,-0.0615234,0.186157,0.926636
284872847363,-0.319763,-0.0612793,0.186646,0.92688
284872861744,-0.319885,-0.0611572,0.187073,0.926758
284872876790,-0.319824,-0.0614624,0.1875,0.926697
284872899241,-0.318542,-0.0613403,0.187927,0.927002
284872921819,-0.318115,-0.0609741,0.188049,0.927185
284872938150,-0.318298,-0.0609741,0.187805,0.927185
284872960700,-0.319153,-0.0603638,0.187622,0.926941
284872981742,-0.319824,-0.0600586,0.187866,0.926697
284872998087,-0.319885,-0.0601807,0.188171,0.926575
284873019273,-0.319092,-0.0599365,0.188354,0.92688
284873041786,-0.318481,-0.0596924,0.188354,0.927063
284873058249,-0.318542,-0.0596924,0.188354,0.927063
284873079193,-0.317749,-0.0596313,0.188293,0.927368
284873101651,-0.316467,-0.0585327,0.18811,0.927917
284873125642,-0.316895,-0.0571289,0.187927,0.927856
284873139290,-0.316772,-0.0561523,0.187866,0.927979
284873161660,-0.316162,-0.055603,0.187805,0.928223
284873178158,-0.31604,-0.0554199,0.187622,0.928345
284873199188,-0.315613,-0.0553589,0.1875,0.928528
284873221777,-0.314758,-0.0548706,0.187683,0.928772
284873238148,-0.314148,-0.0540771,0.187927,0.928955
284873259317,-0.313538,-0.0541992,0.188171,0.929138
284873281836,-0.313354,-0.0546265,0.18866,0.929077
284873298185,-0.312744,-0.0545044,0.18927,0.929199
284873319230,-0.312317,-0.0543213,0.190063,0.929138
284873343181,-0.311768,-0.0545654,0.190674,0.929199
284873358205,-0.310791,-0.0546875,0.19104,0.929443
284873379217,-0.310242,-0.0545044,0.191345,0.929565
284873401772,-0.30957,-0.0543213,0.19165,0.929749
284873418191,-0.310303,-0.0541382,0.192261,0.929382
284873440674,-0.309692,-0.0544434,0.192627,0.929504
284873461975,-0.308289,-0.0540161,0.192993,0.929932
284873478181,-0.307983,-0.053772,0.192749,0.930054
284873499264,-0.307129,-0.0540161,0.1922,0.930481
284873521764,-0.307129,-0.055542,0.191589,0.930481
284873538172,-0.307861,-0.0559692,0.19104,0.930359
284873559246,-0.308289,-0.0551147,0.191223,0.930237
284873581754,-0.309692,-0.0545044,0.192261,0.929565
284873598215,-0.309631,-0.0540771,0.193481,0.929382
284873619290,-0.310303,-0.0539551,0.193787,0.929077
284873641771,-0.30957,-0.0527344,0.193481,0.929443
