timestamp,x,y,z,w
61902606070,-0.109924,-0.582764,0.00012207,0.805176
61902637873,-0.109985,-0.582764,0.000305176,0.805176
61902638647,-0.110046,-0.582825,0.000488281,0.805115
61902651725,-0.110168,-0.582947,0.000549316,0.804993
61902674298,-0.110779,-0.582947,0.000488281,0.804932
61902696788,-0.111267,-0.582703,0.000549316,0.805054
61902711724,-0.111145,-0.582581,0.0010376,0.805115
61902734277,-0.110779,-0.58252,0.00146484,0.805237
61902756734,-0.11084,-0.582397,0.00158691,0.805298
61902771096,-0.111267,-0.582214,0.00164795,0.805359
61902794784,-0.11145,-0.58197,0.00189209,0.805542
61902824924,-0.111267,-0.581787,0.00244141,0.805725
61902839221,-0.111023,-0.581604,0.00280762,0.805847
61902855675,-0.111084,-0.581421,0.00292969,0.805969
61902884886,-0.111389,-0.581238,0.00292969,0.806091
61902891115,-0.11145,-0.581238,0.00299072,0.806091
61902947073,-0.111328,-0.580994,0.0032959,0.806274
61902959087,-0.111084,-0.580933,0.00341797,0.806335
61902970338,-0.111023,-0.580933,0.00341797,0.806335
61902975767,-0.111267,-0.580688,0.00335693,0.806458
61902996750,-0.111511,-0.580566,0.00323486,0.806519
61903011131,-0.111633,-0.580322,0.00341797,0.806702
61903034288,-0.111572,-0.5802,0.003479,0.806824
61903056774,-0.11145,-0.580078,0.003479,0.806885
61903071077,-0.11145,-0.579895,0.00341797,0.807007
61903094246,-0.11145,-0.579895,0.00341797,0.807007
61903116904,-0.11145,-0.579895,0.00341797,0.807068
61903131093,-0.111572,-0.579529,0.003479,0.807312
61903154303,-0.111084,-0.578735,0.00360107,0.807922
61903178214,-0.110291,-0.577881,0.00402832,0.808655
61903191081,-0.110046,-0.577209,0.00402832,0.809143
61903215656,-0.110229,-0.57666,0.00366211,0.809448
61903236779,-0.110596,-0.576477,0.0032959,0.80957
61903251074,-0.110657,-0.576538,0.0032959,0.80957
61903274279,-0.110657,-0.576538,0.0032959,0.80957
61903296764,-0.110718,-0.576355,0.00317383,0.809631
61903311128,-0.110779,-0.576111,0.00280762,0.809814
61903334247,-0.110901,-0.575989,0.00256348,0.809875
61903356801,-0.110962,-0.575928,0.0022583,0.809937
61903372501,-0.111145,-0.575806,0.0020752,0.809998
61903394325,-0.111328,-0.575439,0.00183105,0.810181
61903416773,-0.111328,-0.575195,0.00177002,0.810425
61903432519,-0.111206,-0.574829,0.00158691,0.810669
61903454272,-0.111206,-0.574402,0.00146484,0.810974
61903476806,-0.11145,-0.573853,0.00128174,0.81134
61903492589,-0.11145,-0.573242,0.0012207,0.811768
61903522838,-0.111389,-0.572571,0.00134277,0.812256
61903536768,-0.111572,-0.571838,0.00134277,0.812744
61903552542,-0.111694,-0.570984,0.00152588,0.813293
61903574241,-0.111755,-0.570068,0.00189209,0.813965
61903596821,-0.111572,-0.569092,0.00244141,0.814636
61903612574,-0.111389,-0.567993,0.00305176,0.81543
61903635751,-0.111145,-0.566711,0.00360107,0.816345
61903656807,-0.111145,-0.56543,0.00396729,0.817261
61903672520,-0.111206,-0.564087,0.00457764,0.818176
61903695075,-0.110962,-0.562683,0.00537109,0.819153
61903716806,-0.110413,-0.561096,0.00604248,0.820312
61903732502,-0.110474,-0.559326,0.00604248,0.821533
61903755083,-0.111023,-0.55719,0.00604248,0.822876
61903778187,-0.111389,-0.554932,0.00610352,0.824402
61903792579,-0.11084,-0.552551,0.00665283,0.82605
61903815057,-0.109436,-0.550049,0.00726318,0.827881
61903838219,-0.108521,-0.547241,0.00732422,0.829834
61903852574,-0.108398,-0.544006,0.00701904,0.832031
61903875129,-0.108215,-0.540405,0.00701904,0.834351
61903898238,-0.107666,-0.536804,0.00744629,0.836792
61903912608,-0.106934,-0.533264,0.00799561,0.839111
61903935048,-0.106384,-0.530029,0.00848389,0.841248
61903958221,-0.10614,-0.526978,0.00891113,0.843201
61903972566,-0.105774,-0.524048,0.00921631,0.845032
61903995054,-0.105286,-0.521301,0.00970459,0.846802
61904018220,-0.104736,-0.518738,0.0100098,0.848389
61904032535,-0.104675,-0.516296,0.0106201,0.849915
61904055060,-0.104553,-0.513733,0.0117798,0.851501
61904078184,-0.104004,-0.510986,0.0130005,0.853149
61904092536,-0.103699,-0.508423,0.0133667,0.854736
61904115086,-0.104431,-0.506348,0.0133667,0.855896
61904138899,-0.105469,-0.503906,0.0133057,0.857178
61904159332,-0.106262,-0.501709,0.0133667,0.858398
61904175107,-0.106079,-0.499573,0.013855,0.859619
61904198186,-0.10498,-0.497742,0.0146484,0.86084
61904212576,-0.103455,-0.495972,0.0157471,0.862
61904236785,-0.10199,-0.493835,0.0170288,0.863403
61904258250,-0.100708,-0.491394,0.0181885,0.864868
61904279274,-0.0996704,-0.48877,0.0189819,0.866455
61904295131,-0.098938,-0.48645,0.0192871,0.867859
61904318254,-0.0986938,-0.48407,0.0193481,0.869202
61904339296,-0.0985107,-0.481567,0.0193481,0.870667
61904355101,-0.0978394,-0.479126,0.0197144,0.87207
61904378200,-0.0964966,-0.477234,0.0199585,0.87323
61904399312,-0.095459,-0.47583,0.0198364,0.874084
61904415062,-0.0952759,-0.474243,0.0195312,0.875
61904438217,-0.0953369,-0.472412,0.0194702,0.875977
61904459338,-0.0949097,-0.470276,0.0197754,0.877197
61904475024,-0.0941162,-0.468018,0.0210571,0.878418
61904498209,-0.0930176,-0.465942,0.022522,0.879639
61904519297,-0.0917358,-0.464233,0.0240479,0.880615
61904535047,-0.0913086,-0.461975,0.0253906,0.881775
61904558197,-0.0914307,-0.458862,0.0269775,0.883362
61904579289,-0.0908813,-0.455688,0.029541,0.88501
61904595129,-0.0891724,-0.452454,0.0324707,0.886719
61904617536,-0.0870972,-0.449402,0.0356445,0.888367
61904639284,-0.0853271,-0.446045,0.0384521,0.890076
61904655047,-0.0842285,-0.442566,0.0408325,0.891846
61904677564,-0.0834351,-0.438782,0.0429077,0.893677
61904699310,-0.0826416,-0.434998,0.0449829,0.895508
61904715054,-0.0812378,-0.431335,0.0473022,0.897278
61904737583,-0.0795898,-0.427795,0.0497437,0.898987
61904760731,-0.0778809,-0.424438,0.052063,0.900574
61904775057,-0.0762939,-0.421204,0.0542603,0.9021
61904797603,-0.0751953,-0.418213,0.0564575,0.903442
61904820704,-0.0743408,-0.415283,0.0586548,0.904724
61904835090,-0.0733032,-0.412476,0.0608521,0.905945
61904857577,-0.0721436,-0.409973,0.0628052,0.907043
61904880705,-0.0712891,-0.407837,0.0645142,0.907959
61904895101,-0.0706177,-0.405945,0.0657959,0.908752
61904917551,-0.0700684,-0.404541,0.0668335,0.909363
61904940730,-0.0698242,-0.403625,0.0675049,0.909729
61904956765,-0.0696411,-0.403137,0.0681152,0.909912
61904977588,-0.0693359,-0.402954,0.0687256,0.909973
61905000814,-0.0689697,-0.403076,0.0691528,0.909912
61905015026,-0.0686646,-0.403442,0.0690918,0.90979
61905037579,-0.0684814,-0.403931,0.0686646,0.909607
61905060752,-0.0685425,-0.40448,0.0681763,0.909424
61905075093,-0.0684814,-0.404968,0.067627,0.909241
61905106611,-0.0682983,-0.405396,0.0668335,0.909119
61905120745,-0.0681152,-0.405884,0.0658569,0.908997
61905135084,-0.0681152,-0.40625,0.0644531,0.908936
61905159366,-0.0686035,-0.406738,0.0629883,0.908752
61905180724,-0.0692139,-0.406982,0.0614624,0.908691
61905195045,-0.0695801,-0.407471,0.0600586,0.908569
61905217576,-0.0698853,-0.407898,0.0586548,0.908447
61905240709,-0.0703125,-0.408325,0.057251,0.908325
61905261761,-0.0708618,-0.40863,0.0560303,0.908203
61905277590,-0.0715942,-0.408875,0.0549316,0.908081
61905300759,-0.0723877,-0.409058,0.0539551,0.90802
61905321994,-0.0730591,-0.409302,0.0530396,0.907898
61905337674,-0.0738525,-0.40979,0.052063,0.907715
61905360764,-0.074707,-0.410156,0.0510254,0.907532
61905381870,-0.0756226,-0.410339,0.0500488,0.90741
61905397573,-0.076416,-0.4104,0.0491943,0.907349
61905420810,-0.0768433,-0.410339,0.0485229,0.907349
61905441979,-0.0772095,-0.410156,0.0479736,0.907471
61905464356,-0.0776978,-0.409851,0.0474854,0.907593
61905480754,-0.0786133,-0.409119,0.0471191,0.907837
61905501801,-0.0794678,-0.407959,0.0473022,0.908325
61905517624,-0.079895,-0.406433,0.0482178,0.908875
61905540743,-0.0800171,-0.404907,0.0495605,0.909485
61905561818,-0.0806885,-0.403503,0.0506592,0.909973
61905577547,-0.0823975,-0.401978,0.0517578,0.910461
61905600057,-0.0845337,-0.400024,0.0529785,0.911011
61905621851,-0.0861206,-0.397949,0.0548096,0.911682
61905637569,-0.0874023,-0.395935,0.0567627,0.912354
61905651164,-0.0883789,-0.393616,0.05896,0.913086
61905674857,-0.0886841,-0.391235,0.0617065,0.913879
61905696884,-0.0881958,-0.388855,0.0647583,0.914795
61905711119,-0.0870361,-0.386414,0.0679321,0.915649
61905733641,-0.0858765,-0.384155,0.0707397,0.916504
61905756840,-0.0853882,-0.382019,0.0731812,0.917297
61905771183,-0.0855103,-0.379517,0.0752563,0.918091
61905794388,-0.0855713,-0.376953,0.0773315,0.919006
61905816870,-0.0852661,-0.374207,0.0795288,0.919983
61905831146,-0.0846558,-0.371521,0.081665,0.920898
61905853682,-0.0842285,-0.369019,0.0834351,0.921814
61905876822,-0.0842896,-0.36676,0.0848389,0.922607
61905891121,-0.0844727,-0.364441,0.0861816,0.92334
61905913717,-0.0844727,-0.362244,0.0874634,0.924133
61905936843,-0.0840454,-0.360352,0.0887451,0.924744
61905951161,-0.0836182,-0.358826,0.0899048,0.925293
61905973689,-0.083313,-0.357239,0.0906372,0.925842
61905996837,-0.0831299,-0.355713,0.0911865,0.926392
61906012039,-0.0831299,-0.354309,0.0916748,0.92688
61906033705,-0.083252,-0.352966,0.0921021,0.927368
61906056848,-0.083252,-0.351562,0.0927124,0.927795
61906071196,-0.0829468,-0.350281,0.0933838,0.928284
61906093634,-0.0829468,-0.34906,0.0936279,0.928711
61906116815,-0.0838013,-0.348328,0.0935059,0.928894
61906131185,-0.0852661,-0.347595,0.0928345,0.929138
61906153694,-0.0873413,-0.34668,0.0921631,0.929321
61906176899,-0.088562,-0.345398,0.0918579,0.929688
61906191201,-0.0883179,-0.344177,0.0921021,0.930176
61906213668,-0.0875244,-0.343201,0.0924683,0.930603
61906236849,-0.0872192,-0.342407,0.0928345,0.930847
61906251183,-0.0872192,-0.341309,0.0932617,0.931213
61906273687,-0.0869141,-0.340271,0.0939941,0.93158
61906296889,-0.0859375,-0.339172,0.0950317,0.931946
61906311154,-0.0848389,-0.338257,0.0960083,0.932251
61906333666,-0.0838013,-0.33728,0.0971069,0.932617
61906356797,-0.0826416,-0.336182,0.0980835,0.932983
61906371187,-0.0817261,-0.335022,0.098999,0.933411
61906393645,-0.0812988,-0.334045,0.0996094,0.933716
61906416825,-0.0811157,-0.333191,0.100037,0.934021
61906431149,-0.0810547,-0.33252,0.100586,0.934204
61906453687,-0.0810547,-0.331787,0.10083,0.934448
61906476824,-0.0809326,-0.331177,0.10083,0.934631
61906491216,-0.0812378,-0.33075,0.100586,0.934814
61906513727,-0.0819092,-0.3302,0.100281,0.934937
61906536859,-0.0823364,-0.329651,0.100098,0.93512
61906551164,-0.0819092,-0.329407,0.100159,0.935242
61906575103,-0.0812988,-0.329529,0.0999756,0.935303
61906596865,-0.0811768,-0.329651,0.0994873,0.935303
61906611159,-0.081604,-0.329773,0.098877,0.935303
61906633689,-0.0819702,-0.329956,0.0983887,0.935242
61906656192,-0.0819092,-0.330078,0.0981445,0.935242
61906671149,-0.0812378,-0.330139,0.0982666,0.935242
61906693717,-0.0806274,-0.3302,0.0983276,0.935303
61906716202,-0.0804443,-0.330017,0.0985107,0.935364
61906731117,-0.0805054,-0.329712,0.0986938,0.935425
61906753675,-0.0802002,-0.329346,0.0991211,0.935547
61906784961,-0.0800171,-0.329102,0.0994263,0.935608
61906791223,-0.0799561,-0.328857,0.0996094,0.935669
61906814508,-0.0799561,-0.328857,0.0996094,0.935669
61906836197,-0.0799561,-0.328857,0.0996704,0.935669
61906851169,-0.0800171,-0.328857,0.0996704,0.935669
61906873700,-0.0801392,-0.328796,0.0996094,0.935669
61906896204,-0.0803833,-0.328796,0.0996094,0.935669
61906911772,-0.0805664,-0.328979,0.0996704,0.935608
61906933720,-0.0805054,-0.329224,0.0997925,0.935486
61906956239,-0.0803833,-0.329651,0.0999756,0.935364
61906971183,-0.0803833,-0.329956,0.0999756,0.935181
61906993766,-0.0806885,-0.330383,0.0999756,0.935059
61907016684,-0.0810547,-0.330566,0.0999146,0.934937
61907031209,-0.0812378,-0.33075,0.0999146,0.934875
61907053714,-0.0811768,-0.330933,0.100037,0.934814
61907076179,-0.0812988,-0.331177,0.100098,0.934692
61907091287,-0.081543,-0.331543,0.100281,0.934509
61907113688,-0.081604,-0.331787,0.100525,0.934387
61907136231,-0.081543,-0.33197,0.100769,0.934326
61907151232,-0.081604,-0.332031,0.100952,0.934265
61907173651,-0.081604,-0.332031,0.100952,0.934265
61907196237,-0.0814209,-0.33197,0.101257,0.934265
61907211238,-0.0809326,-0.331909,0.101562,0.934326
61907233689,-0.0804443,-0.331909,0.101807,0.934326
61907265072,-0.0804443,-0.331909,0.101746,0.934326
61907271153,-0.0807495,-0.331909,0.101868,0.934326
61907293986,-0.0808716,-0.331787,0.102112,0.934326
61907316197,-0.0805664,-0.331726,0.102539,0.934326
61907331165,-0.0802002,-0.331604,0.102905,0.934326
61907353698,-0.0800781,-0.331543,0.10321,0.934326
61907376215,-0.0801392,-0.331543,0.10321,0.934326
61907391196,-0.0800781,-0.331482,0.103394,0.934326
61907413708,-0.079895,-0.331482,0.103516,0.934326
61907436217,-0.079895,-0.331482,0.103516,0.934326
61907451228,-0.079895,-0.331482,0.103516,0.934326
61907473708,-0.079834,-0.33136,0.103821,0.934387
61907496141,-0.0794678,-0.331177,0.104187,0.934387
61907512641,-0.0791626,-0.330994,0.104492,0.934448
61907533692,-0.0791626,-0.330933,0.104492,0.934448
61907556194,-0.0795288,-0.330811,0.104431,0.934509
61907572642,-0.0795288,-0.33075,0.104492,0.934509
61907601879,-0.0792847,-0.33075,0.104492,0.934509
61907616237,-0.0792236,-0.33075,0.104431,0.934509
61907632609,-0.0790405,-0.33075,0.104126,0.93457
61907653659,-0.0791626,-0.33075,0.103821,0.934631
61907676209,-0.0791626,-0.33075,0.103882,0.934631
61907692625,-0.0789795,-0.330627,0.104065,0.934631
61907713732,-0.0786743,-0.330566,0.104309,0.934692
61907736244,-0.0786743,-0.330566,0.104309,0.934692
61907752635,-0.0787354,-0.330627,0.104309,0.934692
61907773755,-0.0787354,-0.330627,0.104309,0.934631
61907796172,-0.0787354,-0.330627,0.104309,0.934631
61907812629,-0.0787354,-0.330627,0.104309,0.934631
61907834546,-0.0787354,-0.330627,0.104309,0.934631
61907856325,-0.0787354,-0.330627,0.104309,0.934631
61907872630,-0.0785522,-0.330627,0.104492,0.934631
61907893690,-0.0784912,-0.330627,0.104492,0.934631
61907916233,-0.0788574,-0.330627,0.10437,0.934631
61907934579,-0.0792236,-0.330688,0.104431,0.93457
61907953719,-0.0791626,-0.330627,0.104614,0.93457
61907976232,-0.0788574,-0.330627,0.104797,0.93457
61907992620,-0.0786133,-0.330688,0.104858,0.93457
61908013731,-0.0787964,-0.330811,0.104736,0.934509
61908036285,-0.0791016,-0.330933,0.104675,0.934448
61908052673,-0.0791626,-0.330994,0.104675,0.934448
61908073752,-0.0787964,-0.330994,0.104858,0.934448
61908096310,-0.0784302,-0.330933,0.105042,0.934448
61908112625,-0.0784302,-0.330933,0.105225,0.934448
61908133726,-0.0784912,-0.330933,0.105225,0.934448
61908156269,-0.0783691,-0.330872,0.105408,0.934448
61908172650,-0.078064,-0.330872,0.105652,0.934448
61908193732,-0.0778198,-0.330872,0.105713,0.934448
61908216259,-0.0780029,-0.330872,0.105591,0.934448
61908232674,-0.078186,-0.330933,0.10553,0.934448
61908253724,-0.078186,-0.330933,0.10553,0.934448
61908276240,-0.0779419,-0.331055,0.105591,0.934448
61908292673,-0.0777588,-0.331116,0.105774,0.934387
61908313737,-0.0775757,-0.331299,0.105957,0.934326
61908336210,-0.0773926,-0.331421,0.106201,0.934265
61908354559,-0.0773926,-0.331421,0.106201,0.934265
61908373773,-0.0772095,-0.331482,0.106445,0.934265
61908396245,-0.0767822,-0.33136,0.106812,0.934265
61908412676,-0.0761719,-0.33136,0.107117,0.934265
61908435123,-0.0759888,-0.33136,0.1073,0.934265
61908457177,-0.0759888,-0.331299,0.1073,0.934326
61908472717,-0.0753784,-0.331421,0.107361,0.934265
61908495139,-0.0738525,-0.331421,0.107788,0.934387
61908516247,-0.0720215,-0.331482,0.108337,0.934448
61908533152,-0.0709839,-0.331421,0.108459,0.934509
61908556778,-0.0712891,-0.331543,0.108215,0.934509
61908576168,-0.0721436,-0.331726,0.107971,0.934387
61908592654,-0.0725098,-0.331909,0.10791,0.934265
61908615142,-0.0721436,-0.332092,0.108032,0.934265
61908636224,-0.0720825,-0.332092,0.108032,0.934265
61908652622,-0.0723267,-0.332397,0.107849,0.934143
61908675183,-0.0727539,-0.332642,0.107727,0.934021
61908696217,-0.072876,-0.332764,0.107971,0.93396
61908712660,-0.0726318,-0.332764,0.108337,0.933899
61908735158,-0.0722656,-0.332764,0.108887,0.933899
61908757072,-0.0720215,-0.332642,0.109375,0.933899
61908772627,-0.0720825,-0.332581,0.109741,0.933899
61908795202,-0.0723267,-0.332458,0.109924,0.933838
61908816249,-0.0724487,-0.332275,0.110168,0.933899
61908832762,-0.0724487,-0.332092,0.110474,0.93396
61908855145,-0.0724487,-0.332092,0.110474,0.93396
61908876196,-0.0724487,-0.332092,0.110474,0.933899
61908892671,-0.0727539,-0.332092,0.110413,0.933899
61908915135,-0.072998,-0.332031,0.110413,0.933899
61908936226,-0.072998,-0.332092,0.110413,0.933899
61908952655,-0.072998,-0.332092,0.110413,0.933899
61908975192,-0.0730591,-0.332092,0.110474,0.933899
61908996224,-0.0730591,-0.332153,0.110474,0.933899
61909012673,-0.0730591,-0.332153,0.110474,0.933838
61909036048,-0.0730591,-0.332153,0.110474,0.933838
61909056247,-0.0731201,-0.332153,0.110474,0.933838
61909072637,-0.0731201,-0.332153,0.110474,0.933838
61909095125,-0.0731201,-0.332153,0.110474,0.933838
61909116258,-0.0731201,-0.332153,0.110474,0.933838
61909132632,-0.0731201,-0.332153,0.110474,0.933838
61909155167,-0.0731201,-0.332153,0.110474,0.933838
61909176215,-0.0728149,-0.332153,0.110596,0.933838
61909192657,-0.0723877,-0.332092,0.110779,0.933899
61909215175,-0.0723877,-0.332092,0.110779,0.933899
61909236262,-0.0726318,-0.331909,0.110718,0.93396
61909252702,-0.0728149,-0.331726,0.110779,0.934021
61909275215,-0.0726929,-0.331543,0.111023,0.934021
61909296278,-0.0724487,-0.331421,0.111206,0.934082
61909312671,-0.0721436,-0.331299,0.111328,0.934143
61909335174,-0.0722046,-0.331238,0.111267,0.934143
61909357679,-0.0725708,-0.331055,0.111267,0.934204
61909372828,-0.0727539,-0.330933,0.111328,0.934204
61909394358,-0.0725098,-0.330627,0.111572,0.934326
61909416846,-0.0721436,-0.330383,0.111877,0.934387
61909431880,-0.0720215,-0.330139,0.112061,0.934448
61909454394,-0.0720215,-0.330139,0.112122,0.934448
61909477493,-0.0720215,-0.330139,0.112122,0.934448
61909493299,-0.0720825,-0.330139,0.112122,0.934448
61909514410,-0.0720825,-0.330139,0.112122,0.934448
61909536922,-0.0720825,-0.330139,0.112122,0.934448
61909553356,-0.0720825,-0.330139,0.112122,0.934448
61909574383,-0.0721436,-0.330139,0.112122,0.934448
61909596876,-0.0725098,-0.330444,0.112,0.934326
61909613374,-0.0714111,-0.331055,0.11261,0.934143
61909634417,-0.0700684,-0.331116,0.112976,0.934143
61909656914,-0.0690918,-0.331055,0.113037,0.934265
61909673357,-0.0692139,-0.331055,0.112671,0.934265
61909694419,-0.0697632,-0.331055,0.112305,0.934265
61909716931,-0.0697632,-0.331177,0.112122,0.934265
61909733330,-0.069397,-0.33136,0.112122,0.934204
61909754435,-0.069397,-0.331482,0.111755,0.934204
61909776907,-0.0698242,-0.331665,0.111389,0.934204
61909793353,-0.0707397,-0.331848,0.11084,0.934082
61909814395,-0.0723877,-0.332458,0.109924,0.933899
61909836910,-0.0742798,-0.333191,0.108521,0.933594
61909853313,-0.076416,-0.334351,0.106445,0.933289
61909874391,-0.0789795,-0.336121,0.104492,0.932617
61909896937,-0.081665,-0.338562,0.102234,0.931763
61909913322,-0.0844727,-0.341858,0.0997314,0.930603
61909934357,-0.0871582,-0.345154,0.0968018,0.929443
61909956879,-0.0897217,-0.348206,0.0941772,0.928345
61909973313,-0.0917969,-0.351685,0.0918579,0.927063
61909994398,-0.0932007,-0.355408,0.0899048,0.925659
61910016867,-0.0942993,-0.358582,0.0873413,0.924622
61910033308,-0.0946655,-0.361267,0.085022,0.923706
61910054462,-0.0943604,-0.363953,0.0825806,0.922913
61910076866,-0.0942993,-0.366943,0.079834,0.921997
61910095482,-0.0948486,-0.370239,0.0771484,0.920837
61910114446,-0.09552,-0.374451,0.0747681,0.91925
61910136929,-0.0958862,-0.378662,0.0727539,0.917664
61910153350,-0.0957031,-0.382629,0.071106,0.916138
61910174173,-0.0949707,-0.386414,0.0698853,0.914734
61910196919,-0.0930176,-0.390686,0.0689087,0.913208
61910213337,-0.0906982,-0.39563,0.0678711,0.911377
61910234418,-0.0887451,-0.400085,0.0667725,0.909729
61910256924,-0.0872803,-0.404297,0.0655518,0.908081
61910273318,-0.0852051,-0.408813,0.0641479,0.906372
61910296821,-0.0823364,-0.413696,0.0626831,0.90448
61910316927,-0.0792847,-0.418518,0.0604248,0.90271
61910332827,-0.0761108,-0.422974,0.0581055,0.901062
61910354432,-0.0725098,-0.427185,0.0558472,0.899536
61910376953,-0.0686646,-0.431152,0.053833,0.89801
61910394349,-0.0654907,-0.43512,0.0517578,0.896484
61910414463,-0.0619507,-0.438843,0.0498047,0.89502
61910436949,-0.0567627,-0.441833,0.048584,0.893982
61910452700,-0.0494995,-0.445251,0.0474854,0.892761
61910475849,-0.041626,-0.448853,0.0460205,0.891418
61910498069,-0.0341797,-0.450806,0.0430908,0.89093
61910512726,-0.0274048,-0.451172,0.0390015,0.891113
61910535863,-0.020874,-0.450134,0.0343018,0.892029
61910556922,-0.0147095,-0.448364,0.0300293,0.893188
61910572702,-0.00891113,-0.446228,0.0268555,0.89447
61910598093,-0.00384521,-0.444153,0.0249023,0.895569
61910616924,0.000610352,-0.442383,0.0239258,0.896484
61910632686,0.00415039,-0.441589,0.0238037,0.896912
61910655832,0.00628662,-0.442139,0.024231,0.896545
61910676966,0.00671387,-0.443787,0.0253906,0.895752
61910700828,0.00616455,-0.445679,0.0276489,0.894714
61910715833,0.00537109,-0.448303,0.0311279,0.893311
61910736974,0.00537109,-0.45166,0.0352783,0.891479
61910752717,0.0055542,-0.455444,0.0396118,0.889343
61910775809,0.00512695,-0.459045,0.0437012,0.887329
61910797706,0.00354004,-0.461609,0.0469971,0.885803
61910812701,0.000915527,-0.463684,0.0501099,0.884583
61910835874,-0.00231934,-0.465454,0.0535889,0.883423
61910856969,-0.0055542,-0.466736,0.0576172,0.882507
61910872719,-0.00915527,-0.467896,0.0619507,0.881531
61910896858,-0.0130005,-0.468628,0.0664062,0.880798
61910916927,-0.0170288,-0.469116,0.0703735,0.880127
61910932689,-0.0212402,-0.469971,0.0736084,0.879333
61910955861,-0.0256958,-0.471252,0.0758667,0.878357
61910976960,-0.0302124,-0.472778,0.0773315,0.877258
61910992681,-0.0335693,-0.474487,0.0786133,0.876099
61911015857,-0.0360107,-0.476501,0.0807495,0.874695
61911036903,-0.0387573,-0.479736,0.0824585,0.872681
61911060848,-0.0427856,-0.483276,0.0825806,0.870483
61911075873,-0.0462646,-0.485779,0.0821533,0.868958
61911097000,-0.0473633,-0.488525,0.0827026,0.86731
61911112703,-0.0471191,-0.491455,0.0839844,0.86554
61911135850,-0.0480957,-0.494629,0.0840454,0.863708
61911158357,-0.0508423,-0.497253,0.0828857,0.862122
61911172813,-0.0539551,-0.499329,0.0812378,0.860901
61911195830,-0.0567627,-0.500916,0.0794067,0.859924
61911216920,-0.0599365,-0.502502,0.0775757,0.859009
61911232685,-0.0637817,-0.504395,0.0753174,0.857788
61911255264,-0.0678101,-0.506897,0.0725708,0.856262
61911276928,-0.0716553,-0.509949,0.0696411,0.85437
61911292686,-0.0755005,-0.513794,0.0665283,0.85199
61911315177,-0.0800171,-0.518005,0.0627441,0.849304
61911336918,-0.0848389,-0.522156,0.059021,0.846558
61911352834,-0.0901489,-0.526611,0.0557861,0.843445
61911375211,-0.0959473,-0.531006,0.0523682,0.840271
61911398365,-0.101624,-0.5354,0.0491333,0.837036
61911412740,-0.107117,-0.539368,0.0457153,0.833984
61911435187,-0.111755,-0.543152,0.0429077,0.831055
61911458387,-0.115906,-0.546509,0.0404663,0.828369
61911472766,-0.120056,-0.549377,0.0383301,0.825989
61911495182,-0.124756,-0.551819,0.036499,0.82373
61911518347,-0.130188,-0.553772,0.0344238,0.821716
61911532706,-0.136658,-0.555054,0.0319214,0.819885
61911555249,-0.14325,-0.55603,0.0303345,0.818176
61911578456,-0.147766,-0.556702,0.0308838,0.816895
61911593648,-0.149963,-0.557556,0.0331421,0.815796
61911615310,-0.151123,-0.558228,0.0356445,0.815002
61911638349,-0.152649,-0.559204,0.0369873,0.814026
61911659498,-0.154541,-0.559875,0.0374756,0.813171
61911675205,-0.155334,-0.560486,0.0386963,0.812561
61911698396,-0.155334,-0.561157,0.0407715,0.811951
61911712722,-0.155579,-0.561218,0.0424805,0.811829
61911735282,-0.15625,-0.56073,0.0440674,0.811951
61911758384,-0.156982,-0.560303,0.0458984,0.811951
61911772740,-0.157227,-0.56012,0.0479736,0.81189
61911796092,-0.156799,-0.559937,0.0494385,0.812073
61911818362,-0.156799,-0.558838,0.0504761,0.812744
61911832701,-0.157104,-0.558472,0.0500488,0.812927
61911855210,-0.160095,-0.559021,0.0480347,0.812134
61911878343,-0.163391,-0.558777,0.0460815,0.811768
61911906991,-0.166138,-0.559387,0.0438843,0.810913
61911915233,-0.16803,-0.560059,0.0413208,0.810181
61911938361,-0.168823,-0.560669,0.0383301,0.809753
61911959468,-0.169128,-0.560974,0.034668,0.809631
61911975248,-0.16864,-0.562988,0.0298462,0.808533
61911998395,-0.167725,-0.56604,0.0233154,0.806824
61912019448,-0.167847,-0.568665,0.0153198,0.805115
61912035180,-0.168823,-0.570496,0.00744629,0.803711
61912058410,-0.169861,-0.572083,0.000244141,0.802429
61912079543,-0.169617,-0.573364,-0.00494385,0.801514
61912095227,-0.168945,-0.574463,-0.00799561,0.800842
61912118506,-0.169312,-0.575256,-0.0098877,0.800171
61912139561,-0.171082,-0.574829,-0.0109253,0.80011
61912155227,-0.173035,-0.573975,-0.0111084,0.800293
61912178373,-0.174622,-0.572937,-0.00976562,0.80072
61912199461,-0.175903,-0.572876,-0.00732422,0.800537
61912215222,-0.177551,-0.572571,-0.00549316,0.800354
61912237750,-0.179932,-0.571777,-0.0043335,0.800415
61912259557,-0.182556,-0.571777,-0.0022583,0.799866
61912275242,-0.185547,-0.571716,-0.00109863,0.799194
61912297755,-0.18927,-0.570923,-0.00164795,0.798889
61912319432,-0.193542,-0.570862,-0.0022583,0.797913
61912337280,-0.196777,-0.571899,-0.00140381,0.796387
61912357753,-0.199524,-0.57373,-0.00177002,0.794373
61912380913,-0.202515,-0.575073,-0.00317383,0.792603
61912403489,-0.205994,-0.576477,-0.00537109,0.79071
61912417725,-0.2099,-0.578064,-0.00805664,0.788513
61912440874,-0.213135,-0.579407,-0.010376,0.786621
61912455230,-0.214966,-0.580444,-0.0124512,0.785339
61912477709,-0.216553,-0.582336,-0.0140991,0.783447
61912500851,-0.217651,-0.584656,-0.0153809,0.781372
61912515216,-0.218201,-0.586609,-0.0163574,0.779785
61912540023,-0.218201,-0.588318,-0.0171509,0.778442
61912560859,-0.217102,-0.589722,-0.0178223,0.77771
61912575230,-0.216309,-0.590759,-0.0186157,0.7771
61912597779,-0.216125,-0.591309,-0.0187378,0.776733
61912620853,-0.215698,-0.591614,-0.0181885,0.776611
61912635202,-0.214722,-0.591675,-0.0174561,0.776855
61912657704,-0.213684,-0.591797,-0.0170898,0.7771
61912680906,-0.213013,-0.592041,-0.0164795,0.777039
61912695220,-0.21228,-0.592041,-0.0159302,0.777283
61912717752,-0.211304,-0.592102,-0.0149536,0.777527
61912742508,-0.210327,-0.592102,-0.0141602,0.777771
61912755223,-0.209717,-0.592224,-0.0136719,0.777893
61912777734,-0.209717,-0.592224,-0.0136719,0.777893
61912800899,-0.210022,-0.591858,-0.0137329,0.778137
61912815224,-0.210022,-0.591492,-0.0133667,0.778381
61912837810,-0.209656,-0.591309,-0.0129395,0.778625
61912860967,-0.209412,-0.591431,-0.0126953,0.778564
61912881954,-0.209412,-0.591492,-0.0126953,0.778564
61912897713,-0.209412,-0.591492,-0.0126953,0.778564
61912920928,-0.209412,-0.591492,-0.0126953,0.778564
61912943028,-0.209412,-0.591492,-0.0126953,0.778564
61912957755,-0.209412,-0.591492,-0.0126953,0.778564
61912980876,-0.209229,-0.591431,-0.0124512,0.778687
61913001940,-0.208984,-0.591187,-0.0123291,0.77887
61913017725,-0.20874,-0.591003,-0.012207,0.779114
61913043218,-0.208679,-0.591003,-0.012207,0.779114
61913061943,-0.208679,-0.591064,-0.012085,0.779053
61913077731,-0.208679,-0.591064,-0.012085,0.779053
61913100946,-0.208679,-0.591064,-0.012085,0.779114
61913113835,-0.208374,-0.591064,-0.0119629,0.779114
61913137010,-0.208374,-0.591125,-0.0120239,0.779114
61913151317,-0.208496,-0.591125,-0.012146,0.779053
61913173870,-0.208496,-0.591187,-0.012146,0.779053
61913197009,-0.208496,-0.591187,-0.012146,0.778992
61913211363,-0.208496,-0.591187,-0.012146,0.778992
61913235294,-0.208374,-0.591125,-0.0122681,0.779114
61913257014,-0.208374,-0.591125,-0.0122681,0.779114
61913271298,-0.208374,-0.591125,-0.0122681,0.779114
61913293825,-0.208374,-0.590942,-0.0122681,0.779297
61913317041,-0.208374,-0.590881,-0.012207,0.779297
61913331320,-0.208313,-0.590881,-0.0122681,0.779297
61913353869,-0.208313,-0.590881,-0.0122681,0.779297
61913377029,-0.208313,-0.590881,-0.0122681,0.779297
61913391379,-0.208313,-0.590881,-0.0122681,0.779297
61913413774,-0.20813,-0.590881,-0.012085,0.779358
61913436976,-0.20813,-0.590881,-0.012085,0.779358
61913451347,-0.20813,-0.590881,-0.012085,0.779358
61913473870,-0.20813,-0.590881,-0.012085,0.779358
61913496997,-0.20813,-0.590942,-0.012085,0.779297
61913511492,-0.208069,-0.590881,-0.0119019,0.779419
61913533856,-0.207825,-0.590698,-0.0117188,0.779541
61913556967,-0.207703,-0.590637,-0.0115356,0.779663
61913571338,-0.20752,-0.590454,-0.0112305,0.779846
61913593865,-0.207397,-0.590393,-0.0109253,0.779968
61913616953,-0.207214,-0.590332,-0.0106812,0.780029
61913631345,-0.207031,-0.59021,-0.010437,0.780212
61913654778,-0.207031,-0.590149,-0.010437,0.780212
61913677009,-0.207092,-0.590149,-0.010376,0.780212
61913691350,-0.207092,-0.590149,-0.010376,0.780212
61913713860,-0.207092,-0.590149,-0.010376,0.780212
61913736953,-0.206909,-0.590088,-0.0103149,0.780334
61913752142,-0.206909,-0.590088,-0.0103149,0.780334
61913773852,-0.206909,-0.590027,-0.0103149,0.780334
61913797115,-0.206909,-0.590027,-0.0103149,0.780334
61913811364,-0.206909,-0.590088,-0.0103149,0.780334
61913833752,-0.206848,-0.590088,-0.0103149,0.780334
61913857968,-0.206848,-0.590027,-0.010376,0.780334
61913871381,-0.206787,-0.590088,-0.010376,0.780334
61913893835,-0.206848,-0.590088,-0.010376,0.780334
61913917016,-0.206787,-0.589966,-0.0101929,0.780457
61913931336,-0.206604,-0.589844,-0.00994873,0.780579
61913953824,-0.206421,-0.589783,-0.00982666,0.78064
61913976984,-0.206421,-0.589783,-0.00982666,0.78064
61913991347,-0.206421,-0.589783,-0.00982666,0.78064
61914013843,-0.20636,-0.5896,-0.00958252,0.780823
61914037017,-0.206177,-0.589478,-0.00933838,0.781006
61914051365,-0.205994,-0.589294,-0.00921631,0.781189
61914073832,-0.205933,-0.589294,-0.00921631,0.781189
61914096999,-0.206238,-0.589233,-0.00915527,0.781189
61914111405,-0.206238,-0.589233,-0.00915527,0.781189
61914133852,-0.205994,-0.589294,-0.00897217,0.781189
61914157020,-0.205994,-0.589294,-0.0090332,0.781128
61914171349,-0.205994,-0.589294,-0.0090332,0.781128
61914193877,-0.205994,-0.589355,-0.0090332,0.781128
61914217034,-0.205994,-0.589355,-0.0090332,0.781128
61914231358,-0.205933,-0.589294,-0.00878906,0.781189
61914253820,-0.205688,-0.589111,-0.00848389,0.781372
61914276339,-0.205444,-0.58905,-0.00830078,0.781494
61914291290,-0.205444,-0.58905,-0.00830078,0.781494
61914313805,-0.205444,-0.588989,-0.00830078,0.781555
61914345189,-0.205383,-0.588928,-0.00805664,0.781616
61914351305,-0.205383,-0.588867,-0.0078125,0.781677
61914373883,-0.205383,-0.588867,-0.0078125,0.781677
61914396417,-0.205383,-0.588867,-0.0078125,0.781677
61914411332,-0.205383,-0.588867,-0.0078125,0.781677
61914433838,-0.205383,-0.588867,-0.0078125,0.781677
61914456368,-0.205383,-0.588867,-0.0078125,0.781677
61914471340,-0.205383,-0.588867,-0.0078125,0.781677
61914493870,-0.205322,-0.588867,-0.00787354,0.781677
61914516381,-0.205322,-0.588867,-0.00787354,0.781677
61914539726,-0.205322,-0.588867,-0.00787354,0.781677
61914553841,-0.205322,-0.588867,-0.00787354,0.781677
61914576351,-0.205322,-0.588867,-0.00787354,0.781677
61914591413,-0.205322,-0.588867,-0.00787354,0.781677
61914613858,-0.205322,-0.588867,-0.00787354,0.781677
61914636366,-0.205261,-0.588867,-0.00787354,0.781677
61914651361,-0.205261,-0.588867,-0.00787354,0.781677
61914673845,-0.205261,-0.588867,-0.00793457,0.781677
61914696359,-0.205139,-0.588867,-0.0078125,0.781738
61914711313,-0.205078,-0.588867,-0.0078125,0.781738
61914733847,-0.205139,-0.588867,-0.0078125,0.781738
61914756367,-0.205139,-0.588867,-0.0078125,0.781738
61914771919,-0.204956,-0.588806,-0.00769043,0.78186
61914794035,-0.204956,-0.588806,-0.00769043,0.78186
61914816376,-0.204956,-0.588806,-0.00769043,0.78186
61914831357,-0.204895,-0.588745,-0.00769043,0.78186
61914853880,-0.204712,-0.588745,-0.00750732,0.781921
61914876343,-0.204712,-0.588745,-0.00750732,0.781982
61914891348,-0.204712,-0.588684,-0.00750732,0.781982
61914913839,-0.204712,-0.588684,-0.00750732,0.781982
61914936402,-0.204712,-0.588684,-0.00744629,0.781982
61914951412,-0.204712,-0.588684,-0.00750732,0.781982
61914975023,-0.204834,-0.588745,-0.00762939,0.78186
61914996395,-0.204834,-0.588745,-0.00762939,0.781921
61915011347,-0.204773,-0.588745,-0.00762939,0.781921
61915033875,-0.204773,-0.588745,-0.00762939,0.781921
61915056386,-0.204773,-0.588745,-0.00762939,0.781921
61915075235,-0.204773,-0.588745,-0.00762939,0.781921
61915093874,-0.204773,-0.588745,-0.00762939,0.781921
61915116339,-0.204773,-0.588745,-0.00762939,0.781921
61915132758,-0.204773,-0.588745,-0.00762939,0.781921
61915153903,-0.204773,-0.588745,-0.00762939,0.781921
61915176696,-0.204773,-0.588745,-0.00762939,0.781921
61915192805,-0.204773,-0.588745,-0.00762939,0.781921
61915213842,-0.204773,-0.588745,-0.00762939,0.781921
61915236337,-0.204773,-0.588745,-0.00762939,0.781921
61915252818,-0.204773,-0.588745,-0.00762939,0.781921
61915274883,-0.204773,-0.588745,-0.00762939,0.781921
61915296334,-0.204773,-0.588745,-0.00762939,0.781921
61915312819,-0.204712,-0.588745,-0.00769043,0.781921
61915333859,-0.204712,-0.588745,-0.00769043,0.781921
61915356407,-0.204712,-0.588745,-0.00769043,0.781921
61915377504,-0.204712,-0.588745,-0.00769043,0.781921
61915393890,-0.20459,-0.588623,-0.00744629,0.782043
61915416370,-0.204407,-0.588501,-0.00738525,0.782166
61915432756,-0.204407,-0.588501,-0.00738525,0.782227
61915456771,-0.204407,-0.588501,-0.00738525,0.782227
61915477546,-0.204224,-0.58844,-0.00726318,0.782288
61915492883,-0.203979,-0.588379,-0.00714111,0.78241
61915513874,-0.203979,-0.588379,-0.00720215,0.78241
61915536365,-0.203979,-0.588379,-0.00720215,0.78241
61915552758,-0.203979,-0.588318,-0.00720215,0.78241
61915573961,-0.203979,-0.588318,-0.00720215,0.782471
61915596341,-0.203979,-0.588318,-0.00720215,0.78241
61915612806,-0.203735,-0.58844,-0.00720215,0.782471
61915633907,-0.203735,-0.58844,-0.00720215,0.782471
61915656336,-0.203674,-0.588379,-0.00720215,0.782471
61915672754,-0.203735,-0.58844,-0.00720215,0.782471
61915693893,-0.20343,-0.58844,-0.00708008,0.782471
61915716363,-0.203125,-0.588379,-0.00695801,0.782593
61915732805,-0.203125,-0.588379,-0.00701904,0.782593
61915753899,-0.203125,-0.588379,-0.00701904,0.782654
61915777812,-0.203125,-0.588379,-0.00701904,0.782654
61915792805,-0.203125,-0.588318,-0.00695801,0.782654
61915813911,-0.202881,-0.588318,-0.00683594,0.782715
61915836422,-0.202881,-0.588379,-0.00683594,0.782715
61915852763,-0.20282,-0.588379,-0.00683594,0.782715
61915873857,-0.20282,-0.588379,-0.00689697,0.782715
61915896396,-0.20282,-0.588379,-0.00689697,0.782715
61915912840,-0.202515,-0.588379,-0.00671387,0.782776
61915933895,-0.202271,-0.588379,-0.00671387,0.782837
61915956344,-0.202271,-0.588318,-0.00665283,0.782898
61915972778,-0.202271,-0.588318,-0.00665283,0.782898
61915995272,-0.202332,-0.588318,-0.00665283,0.782898
61916016386,-0.202271,-0.588318,-0.00665283,0.782898
61916032843,-0.202209,-0.588501,-0.00689697,0.782776
61916055384,-0.202332,-0.588745,-0.00714111,0.782593
61916076352,-0.202332,-0.588928,-0.00726318,0.78241
61916093508,-0.202332,-0.588928,-0.00726318,0.78241
61916115340,-0.202332,-0.588989,-0.00732422,0.782349
61916136398,-0.202332,-0.588989,-0.00732422,0.782349
61916152801,-0.202332,-0.588989,-0.00732422,0.782349
61916175336,-0.202332,-0.588989,-0.00732422,0.782349
61916196413,-0.202271,-0.588989,-0.00732422,0.782349
61916212776,-0.202271,-0.588989,-0.00738525,0.782349
61916235336,-0.202271,-0.588989,-0.00738525,0.782349
61916256454,-0.202271,-0.588989,-0.00738525,0.782349
61916272777,-0.202271,-0.58905,-0.00738525,0.782349
61916295304,-0.201965,-0.589111,-0.00726318,0.782349
61916316396,-0.201904,-0.589172,-0.00726318,0.782349
61916332815,-0.201904,-0.589172,-0.00726318,0.782349
61916355930,-0.201904,-0.589111,-0.00726318,0.782349
61916376391,-0.201782,-0.589111,-0.00714111,0.78241
61916394395,-0.201538,-0.58905,-0.00695801,0.782532
61916415347,-0.201233,-0.588989,-0.00689697,0.782654
61916436367,-0.201233,-0.588989,-0.00689697,0.782654
61916452835,-0.201294,-0.588928,-0.00689697,0.782654
61916482853,-0.20105,-0.58905,-0.0067749,0.782654
61916497475,-0.200989,-0.589111,-0.0067749,0.782654
61916512794,-0.200989,-0.589111,-0.0067749,0.782593
61916535347,-0.201111,-0.589111,-0.00695801,0.782593
61916564518,-0.201111,-0.589111,-0.00701904,0.782593
61916572817,-0.20105,-0.589111,-0.00701904,0.782593
61916595348,-0.20105,-0.589111,-0.00701904,0.782593
61916616383,-0.200989,-0.589111,-0.00708008,0.782593
61916632797,-0.200989,-0.589111,-0.00708008,0.782593
61916655367,-0.200989,-0.589111,-0.00708008,0.782593
61916676397,-0.200989,-0.589111,-0.00708008,0.782593
61916692811,-0.200989,-0.589111,-0.00708008,0.782593
61916715317,-0.200989,-0.589111,-0.00708008,0.782593
61916736449,-0.200928,-0.589172,-0.00714111,0.782593
61916752838,-0.200928,-0.589172,-0.00714111,0.782593
61916775278,-0.200928,-0.589172,-0.00714111,0.782593
61916796379,-0.200928,-0.589172,-0.00714111,0.782593
61916814926,-0.200989,-0.589111,-0.00708008,0.782654
61916842850,-0.200989,-0.589111,-0.00708008,0.782593
61916856398,-0.200928,-0.589111,-0.00714111,0.782593
61916872100,-0.20105,-0.589294,-0.00732422,0.782471
61916894614,-0.20105,-0.589294,-0.00738525,0.782471
61916918024,-0.20105,-0.589294,-0.00738525,0.782471
61916932025,-0.20105,-0.589294,-0.00738525,0.782471
61916954541,-0.20105,-0.589355,-0.00738525,0.78241
61916977076,-0.200989,-0.589355,-0.00738525,0.78241
61916992078,-0.200806,-0.589355,-0.00726318,0.782471
61917014598,-0.200806,-0.589355,-0.00726318,0.782471
61917037051,-0.200745,-0.589355,-0.00732422,0.782471
61917053476,-0.200745,-0.589355,-0.00732422,0.782471
61917074531,-0.200745,-0.589355,-0.00732422,0.782471
61917097064,-0.200745,-0.589355,-0.00732422,0.782532
61917123377,-0.200745,-0.589355,-0.00732422,0.782532
61917134511,-0.200745,-0.589355,-0.00732422,0.782532
61917157137,-0.200745,-0.589355,-0.00732422,0.782532
61917173513,-0.200684,-0.589355,-0.00732422,0.782532
61917194562,-0.2005,-0.589355,-0.00714111,0.782593
61917217113,-0.200378,-0.589355,-0.00695801,0.782654
61917233532,-0.200378,-0.589294,-0.00695801,0.782654
61917254599,-0.200378,-0.589294,-0.00695801,0.782654
61917277088,-0.200378,-0.589294,-0.00695801,0.782654
61917293514,-0.200195,-0.589355,-0.0067749,0.782654
61917314636,-0.200195,-0.589417,-0.00683594,0.782593
61917337084,-0.200195,-0.589417,-0.0067749,0.782593
61917353478,-0.200195,-0.589417,-0.00683594,0.782593
61917374593,-0.200195,-0.589355,-0.00683594,0.782654
61917397086,-0.200195,-0.589355,-0.00683594,0.782654
61917413491,-0.199951,-0.589417,-0.00665283,0.782654
61917434558,-0.19989,-0.589478,-0.00665283,0.782654
61917457087,-0.199768,-0.589478,-0.00653076,0.782654
61917479613,-0.199768,-0.589478,-0.00653076,0.782654
61917494533,-0.199768,-0.589478,-0.00653076,0.782654
61917517069,-0.199768,-0.589478,-0.00653076,0.782654
61917533506,-0.199585,-0.589417,-0.00640869,0.782776
61917554575,-0.199402,-0.589417,-0.00628662,0.782776
61917577050,-0.199402,-0.589417,-0.00628662,0.782776
61917593480,-0.199402,-0.589417,-0.00628662,0.782837
61917614567,-0.199402,-0.589417,-0.00628662,0.782837
61917637064,-0.199402,-0.589355,-0.00628662,0.782837
61917653471,-0.199402,-0.589355,-0.00628662,0.782837
61917674554,-0.199402,-0.589355,-0.00628662,0.782837
61917697091,-0.199402,-0.589355,-0.00628662,0.782837
61917713487,-0.199341,-0.589355,-0.00628662,0.782898
61917734563,-0.199158,-0.589233,-0.00616455,0.782959
61917757127,-0.199158,-0.589233,-0.00616455,0.78302
61917773511,-0.199158,-0.589233,-0.00616455,0.782959
61917794603,-0.199158,-0.589233,-0.00616455,0.782959
61917817105,-0.199158,-0.589294,-0.00616455,0.782959
61917833479,-0.198975,-0.589172,-0.00610352,0.783081
61917854602,-0.198914,-0.589172,-0.00610352,0.783142
61917877074,-0.198914,-0.589172,-0.00610352,0.783142
61917892921,-0.198914,-0.589111,-0.00610352,0.783142
61917914558,-0.198914,-0.589172,-0.00610352,0.783142
61917937078,-0.198914,-0.589111,-0.00610352,0.783142
61917952849,-0.198853,-0.589111,-0.00616455,0.783142
61917974547,-0.198853,-0.589111,-0.00616455,0.783203
61917997052,-0.198853,-0.589111,-0.00610352,0.783203
61918012848,-0.198853,-0.589111,-0.00610352,0.783203
61918038377,-0.198914,-0.589111,-0.00610352,0.783203
61918057049,-0.198853,-0.58905,-0.00610352,0.783203
61918072825,-0.198853,-0.58905,-0.00610352,0.783203
61918096031,-0.198853,-0.58905,-0.00610352,0.783203
61918117070,-0.198853,-0.58905,-0.00616455,0.783203
61918133850,-0.198853,-0.589111,-0.00616455,0.783203
61918156084,-0.198853,-0.589111,-0.00616455,0.783203
61918177091,-0.198853,-0.58905,-0.00616455,0.783203
61918192852,-0.198853,-0.58905,-0.00610352,0.783203
61918216035,-0.198853,-0.589111,-0.00610352,0.783203
61918238276,-0.198853,-0.589111,-0.00616455,0.783203
61918252884,-0.198853,-0.58905,-0.00616455,0.783203
61918276004,-0.198853,-0.58905,-0.00616455,0.783203
61918297084,-0.198853,-0.58905,-0.00616455,0.783264
61918312908,-0.198792,-0.58905,-0.00616455,0.783264
61918337640,-0.198792,-0.58905,-0.00616455,0.783264
61918357097,-0.198792,-0.58905,-0.00616455,0.783264
61918372875,-0.19873,-0.58905,-0.00622559,0.783264
61918395977,-0.19873,-0.58905,-0.00622559,0.783264
61918416858,-0.19873,-0.58905,-0.00622559,0.783264
61918432859,-0.19873,-0.58905,-0.00622559,0.783264
61918456006,-0.19873,-0.58905,-0.00622559,0.783264
61918477081,-0.198547,-0.588928,-0.00610352,0.783386
61918492829,-0.198608,-0.588928,-0.00604248,0.783386
61918516011,-0.198608,-0.588867,-0.00604248,0.783447
61918537114,-0.198608,-0.588867,-0.00604248,0.783447
61918552865,-0.198547,-0.588867,-0.00604248,0.783447
61918576045,-0.198547,-0.588867,-0.00604248,0.783447
61918597120,-0.198547,-0.588867,-0.00610352,0.783447
61918612886,-0.198547,-0.588806,-0.00610352,0.783447
61918635997,-0.198547,-0.588806,-0.00604248,0.783447
61918657118,-0.198547,-0.588806,-0.00604248,0.783508
61918672846,-0.198547,-0.588806,-0.00604248,0.783447
61918695970,-0.198547,-0.588806,-0.00610352,0.783508
61918717121,-0.198486,-0.588806,-0.00610352,0.783508
61918732872,-0.198486,-0.588806,-0.00610352,0.783508
61918755338,-0.198486,-0.588806,-0.00610352,0.783508
61918777090,-0.198486,-0.588806,-0.00610352,0.783508
61918792830,-0.198486,-0.588806,-0.00610352,0.783508
61918816032,-0.198486,-0.588806,-0.00610352,0.783508
61918837094,-0.198425,-0.588745,-0.00610352,0.783569
61918852840,-0.198425,-0.588745,-0.00610352,0.783569
61918875351,-0.198425,-0.588745,-0.00616455,0.783569
61918897152,-0.198425,-0.588745,-0.00616455,0.783569
61918912828,-0.198425,-0.588745,-0.00616455,0.783569
61918935353,-0.198425,-0.588745,-0.00616455,0.783569
61918958590,-0.198425,-0.588745,-0.00616455,0.783569
61918972897,-0.198425,-0.588684,-0.00616455,0.78363
61918995359,-0.198364,-0.588684,-0.00616455,0.78363
61919018552,-0.198364,-0.588684,-0.00616455,0.78363
61919032855,-0.198303,-0.588684,-0.00622559,0.78363
61919055348,-0.198303,-0.588684,-0.00622559,0.78363
61919078530,-0.198303,-0.588684,-0.00622559,0.78363
61919092823,-0.198181,-0.588684,-0.00598145,0.783691
61919115354,-0.198181,-0.588684,-0.00598145,0.783691
61919138504,-0.19812,-0.588684,-0.00598145,0.783691
61919155011,-0.19812,-0.588684,-0.00598145,0.783691
61919175376,-0.19812,-0.588684,-0.00598145,0.783691
61919198542,-0.19812,-0.588684,-0.00598145,0.783691
61919212906,-0.19812,-0.588623,-0.00598145,0.783691
61919235334,-0.19812,-0.588623,-0.00598145,0.783691
61919258502,-0.19812,-0.588623,-0.00598145,0.783752
61919272846,-0.19812,-0.588623,-0.00598145,0.783752
61919295407,-0.19812,-0.588623,-0.00598145,0.783752
61919318567,-0.198059,-0.588623,-0.00604248,0.783752
61919332889,-0.198059,-0.588684,-0.00604248,0.783691
61919356977,-0.198059,-0.588684,-0.00604248,0.783691
61919378601,-0.198059,-0.588684,-0.00604248,0.783752
61919392878,-0.198059,-0.588623,-0.00604248,0.783752
61919415348,-0.197937,-0.588623,-0.00592041,0.783813
61919438562,-0.197937,-0.588623,-0.00592041,0.783813
61919460530,-0.197937,-0.588623,-0.00592041,0.783813
61919475494,-0.197937,-0.588562,-0.00585938,0.783813
61919498516,-0.197754,-0.588562,-0.0057373,0.783875
61919519602,-0.197754,-0.588562,-0.0057373,0.783875
61919536171,-0.197693,-0.588562,-0.0057373,0.783875
61919558568,-0.197693,-0.588562,-0.0057373,0.783875
61919579621,-0.197693,-0.588562,-0.0057373,0.783875
61919595355,-0.19751,-0.588562,-0.00567627,0.783936
61919618538,-0.19751,-0.588562,-0.00567627,0.783936
61919639588,-0.197449,-0.588562,-0.00567627,0.783936
61919655402,-0.19751,-0.588562,-0.00567627,0.783936
61919678521,-0.19751,-0.588562,-0.00567627,0.783936
61919699638,-0.197388,-0.588623,-0.00549316,0.783936
61919715374,-0.197083,-0.588562,-0.00537109,0.783997
61919738545,-0.197083,-0.588623,-0.00543213,0.783997
61919759741,-0.197083,-0.588623,-0.00543213,0.783997
61919775393,-0.197083,-0.588623,-0.00543213,0.783997
61919797881,-0.197083,-0.588562,-0.00543213,0.784058
61919819648,-0.197083,-0.588562,-0.00543213,0.784058
61919836301,-0.197021,-0.588623,-0.00543213,0.784058
61919857903,-0.197021,-0.588562,-0.00543213,0.784058
61919879602,-0.197021,-0.588562,-0.00543213,0.784058
61919895349,-0.197021,-0.588562,-0.00543213,0.784058
61919917842,-0.197021,-0.588562,-0.00543213,0.784058
61919941058,-0.197021,-0.588562,-0.00549316,0.784058
61919955347,-0.197021,-0.588562,-0.00549316,0.784058
61919977851,-0.19696,-0.588562,-0.00549316,0.784058
61920001011,-0.19696,-0.588562,-0.00549316,0.784058
61920015397,-0.19696,-0.588623,-0.00549316,0.784058
61920038812,-0.19696,-0.588623,-0.00549316,0.784058
61920061165,-0.19696,-0.588562,-0.00549316,0.784058
61920075864,-0.196899,-0.588623,-0.0055542,0.784058
61920097948,-0.196899,-0.588562,-0.0055542,0.784058
61920121053,-0.196899,-0.588562,-0.0055542,0.784058
61920135388,-0.196899,-0.588562,-0.0055542,0.784058
61920157904,-0.196899,-0.588623,-0.0055542,0.784058
61920181050,-0.196899,-0.588623,-0.0055542,0.784058
61920195447,-0.196838,-0.588623,-0.00561523,0.784058
61920217905,-0.196838,-0.588623,-0.00561523,0.784058
61920241558,-0.196838,-0.588623,-0.00561523,0.784058
61920255405,-0.196777,-0.588623,-0.00561523,0.784119
61920277936,-0.196777,-0.588623,-0.00561523,0.784058
61920300797,-0.196838,-0.588623,-0.00561523,0.784058
61920315413,-0.196655,-0.588501,-0.00543213,0.78418
61920337888,-0.196655,-0.588501,-0.00543213,0.78418
61920368533,-0.196655,-0.588501,-0.00543213,0.78418
61920377134,-0.196655,-0.588501,-0.00543213,0.78418
61920397920,-0.196655,-0.588501,-0.00543213,0.78418
61920421155,-0.196655,-0.588501,-0.00543213,0.78418
61920442254,-0.196655,-0.588501,-0.00543213,0.78418
61920457880,-0.196594,-0.588501,-0.00543213,0.78418
61920481070,-0.196594,-0.588501,-0.00549316,0.78418
61920502126,-0.196594,-0.588501,-0.00543213,0.78418
61920517889,-0.196594,-0.588501,-0.00549316,0.784241
61920541050,-0.196594,-0.588501,-0.00549316,0.784241
61920562146,-0.196594,-0.588501,-0.00549316,0.784241
61920580047,-0.196594,-0.588501,-0.00549316,0.784241
61920601060,-0.196533,-0.588501,-0.00549316,0.784241
61920613970,-0.196533,-0.588501,-0.00549316,0.784241
61920636884,-0.196533,-0.588501,-0.00549316,0.784241
61920651548,-0.196533,-0.588501,-0.00549316,0.784241
61920673980,-0.196533,-0.588501,-0.00549316,0.784241
61920697176,-0.196533,-0.588501,-0.00549316,0.784241
61920711528,-0.196533,-0.588501,-0.0055542,0.784241
61920734021,-0.196472,-0.588501,-0.0055542,0.784241
61920757196,-0.196472,-0.588501,-0.0055542,0.784241
61920771448,-0.196472,-0.588501,-0.0055542,0.784241
61920794008,-0.196472,-0.588501,-0.0055542,0.784241
61920817119,-0.196289,-0.588501,-0.00537109,0.784302
61920831551,-0.196289,-0.588501,-0.00543213,0.784302
61920854128,-0.196472,-0.58844,-0.00549316,0.784302
61920877131,-0.196472,-0.58844,-0.00549316,0.784302
61920891509,-0.196289,-0.588379,-0.00537109,0.784363
61920914005,-0.196289,-0.58844,-0.00537109,0.784363
61920937151,-0.196289,-0.588379,-0.00537109,0.784363
61920951497,-0.196289,-0.588379,-0.00537109,0.784363
61920973964,-0.196289,-0.588379,-0.00537109,0.784363
61921005337,-0.196289,-0.588379,-0.00537109,0.784363
61921011468,-0.196289,-0.588379,-0.00537109,0.784363
61921033998,-0.196289,-0.588379,-0.00537109,0.784363
61921057104,-0.196289,-0.588379,-0.00537109,0.784424
61921071523,-0.196289,-0.588318,-0.00537109,0.784424
61921093944,-0.196289,-0.588318,-0.00537109,0.784424
61921117206,-0.196289,-0.588318,-0.00537109,0.784424
61921131461,-0.196289,-0.588318,-0.00537109,0.784424
61921153983,-0.196289,-0.588379,-0.00537109,0.784424
61921177151,-0.196228,-0.588318,-0.00537109,0.784424
61921191531,-0.196228,-0.588379,-0.00537109,0.784424
61921213970,-0.196228,-0.588379,-0.00537109,0.784424
61921237183,-0.196228,-0.588379,-0.00537109,0.784424
61921251487,-0.196228,-0.588379,-0.00537109,0.784424
61921273970,-0.196228,-0.588379,-0.00537109,0.784424
61921297127,-0.196228,-0.588379,-0.00537109,0.784424
61921311525,-0.196228,-0.588379,-0.00537109,0.784424
61921333951,-0.196228,-0.588379,-0.00537109,0.784424
61921357277,-0.196228,-0.588379,-0.00537109,0.784424
61921371557,-0.196228,-0.588318,-0.00537109,0.784424
61921395036,-0.196228,-0.588379,-0.00537109,0.784424
61921417146,-0.196228,-0.588379,-0.00537109,0.784424
61921431571,-0.196228,-0.588379,-0.00537109,0.784424
61921453994,-0.196228,-0.588318,-0.00543213,0.784424
61921477161,-0.196167,-0.588318,-0.00543213,0.784424
61921492245,-0.196167,-0.588318,-0.00543213,0.784424
61921513976,-0.196167,-0.588318,-0.00543213,0.784424
61921537171,-0.196167,-0.588318,-0.00543213,0.784485
61921551532,-0.196167,-0.588318,-0.00543213,0.784485
61921574095,-0.196167,-0.588318,-0.00537109,0.784485
61921598384,-0.196167,-0.588318,-0.00543213,0.784485
61921611540,-0.196167,-0.588318,-0.00543213,0.784485
61921634006,-0.196167,-0.588257,-0.00543213,0.784485
61921657189,-0.196167,-0.588257,-0.00543213,0.784485
61921671482,-0.196167,-0.588257,-0.00543213,0.784485
61921694037,-0.196167,-0.588257,-0.00543213,0.784485
61921717165,-0.196167,-0.588257,-0.00543213,0.784485
61921731537,-0.196167,-0.588257,-0.00543213,0.784485
61921754031,-0.196167,-0.588318,-0.00543213,0.784485
61921777332,-0.196167,-0.588257,-0.00543213,0.784485
61921791551,-0.196167,-0.588196,-0.00543213,0.784546
61921814010,-0.196167,-0.588196,-0.00543213,0.784546
61921836528,-0.196167,-0.588135,-0.00543213,0.784607
61921851536,-0.196167,-0.588135,-0.00543213,0.784607
61921874071,-0.196106,-0.588196,-0.00543213,0.784607
61921896523,-0.196106,-0.588196,-0.00543213,0.784607
61921911535,-0.196106,-0.588196,-0.00543213,0.784546
61921934017,-0.196106,-0.588196,-0.00543213,0.784607
61921956559,-0.196106,-0.588135,-0.00543213,0.784607
61921971548,-0.196106,-0.588135,-0.00543213,0.784607
61921994011,-0.196106,-0.588135,-0.00543213,0.784607
61922016542,-0.196106,-0.588135,-0.00543213,0.784607
61922032902,-0.196106,-0.588074,-0.00543213,0.784668
61922054044,-0.196106,-0.588074,-0.00543213,0.784668
61922076527,-0.196106,-0.588074,-0.00543213,0.784668
61922091513,-0.196106,-0.588074,-0.00543213,0.784668
61922113980,-0.196106,-0.588074,-0.00543213,0.784668
61922136517,-0.196106,-0.588074,-0.00543213,0.784668
61922151510,-0.196106,-0.588074,-0.00543213,0.784668
61922174050,-0.196106,-0.588074,-0.00543213,0.784668
61922196545,-0.196106,-0.588074,-0.00543213,0.784668
61922212196,-0.196106,-0.588074,-0.00543213,0.784668
61922233968,-0.196106,-0.588074,-0.00543213,0.784668
61922256549,-0.196106,-0.588013,-0.00543213,0.784668
61922271509,-0.196106,-0.588013,-0.00543213,0.784729
61922294068,-0.196106,-0.588013,-0.00543213,0.784729
61922317220,-0.196045,-0.588013,-0.00543213,0.784729
61922331533,-0.196106,-0.588013,-0.00543213,0.784729
61922354044,-0.196106,-0.587952,-0.00543213,0.784729
61922376527,-0.196045,-0.587952,-0.00543213,0.784729
61922391559,-0.196045,-0.587952,-0.00543213,0.78479
61922414861,-0.196045,-0.587952,-0.00543213,0.78479
61922436526,-0.196045,-0.587952,-0.00543213,0.78479
61922451523,-0.196045,-0.587952,-0.00543213,0.78479
61922474008,-0.196045,-0.587891,-0.00543213,0.78479
61922496580,-0.196045,-0.587891,-0.00543213,0.78479
61922511531,-0.196045,-0.587891,-0.00543213,0.78479
61922533990,-0.196045,-0.587891,-0.00543213,0.78479
61922556557,-0.196045,-0.587891,-0.00543213,0.78479
61922571522,-0.196106,-0.587891,-0.00537109,0.78479
61922593995,-0.196106,-0.587891,-0.00537109,0.78479
61922616514,-0.196106,-0.58783,-0.00537109,0.784851
61922632960,-0.196106,-0.58783,-0.00537109,0.784851
61922654066,-0.196106,-0.58783,-0.00537109,0.784851
61922676549,-0.196045,-0.58783,-0.00537109,0.784851
61922692898,-0.196045,-0.587769,-0.00537109,0.784851
61922714065,-0.196045,-0.587769,-0.00537109,0.784912
61922736520,-0.196045,-0.587769,-0.00537109,0.784851
61922752917,-0.196045,-0.58783,-0.00537109,0.784851
61922774075,-0.196045,-0.58783,-0.00543213,0.784851
61922796537,-0.196045,-0.58783,-0.00543213,0.784851
61922812956,-0.196045,-0.58783,-0.00543213,0.784851
61922835206,-0.195923,-0.587708,-0.00518799,0.784973
61922856568,-0.19574,-0.587524,-0.00506592,0.785156
61922872934,-0.19574,-0.587524,-0.00506592,0.785156
61922902202,-0.19574,-0.587524,-0.00506592,0.785156
61922916539,-0.19574,-0.587463,-0.00506592,0.785156
61922933925,-0.19574,-0.587463,-0.00506592,0.785156
61922953984,-0.19574,-0.587463,-0.00506592,0.785217
61922976597,-0.19574,-0.587463,-0.00506592,0.785217
61922992953,-0.19574,-0.587463,-0.00500488,0.785217
61923014046,-0.19574,-0.587463,-0.00500488,0.785217
61923037045,-0.19574,-0.587463,-0.00500488,0.785217
61923052966,-0.19574,-0.587463,-0.00500488,0.785217
61923073997,-0.19574,-0.587463,-0.00506592,0.785217
61923096553,-0.19574,-0.587463,-0.00506592,0.785217
61923112944,-0.19574,-0.587463,-0.00506592,0.785217
61923134043,-0.19574,-0.587463,-0.00506592,0.785217
61923156547,-0.19574,-0.587463,-0.00506592,0.785217
61923172956,-0.19574,-0.587463,-0.00506592,0.785217
61923194024,-0.19574,-0.587463,-0.00506592,0.785217
61923224705,-0.19574,-0.587463,-0.00506592,0.785217
61923232992,-0.19574,-0.587463,-0.00506592,0.785217
61923254041,-0.195679,-0.587463,-0.00506592,0.785217
61923276558,-0.195679,-0.587463,-0.00506592,0.785217
61923292954,-0.195679,-0.587463,-0.00506592,0.785217
61923314019,-0.195679,-0.587463,-0.00506592,0.785217
61923336539,-0.195679,-0.587463,-0.00506592,0.785217
61923352996,-0.195496,-0.587524,-0.00494385,0.785217
61923374052,-0.195496,-0.587524,-0.00500488,0.785217
61923396557,-0.195435,-0.587524,-0.00500488,0.785217
61923420474,-0.195435,-0.587524,-0.00500488,0.785217
61923434017,-0.195435,-0.587524,-0.00500488,0.785217
61923456537,-0.195435,-0.587524,-0.00500488,0.785217
61923472973,-0.195435,-0.587524,-0.00500488,0.785217
61923502218,-0.195435,-0.587524,-0.00500488,0.785217
61923516559,-0.195435,-0.587524,-0.00500488,0.785217
61923532959,-0.195435,-0.587524,-0.00500488,0.785217
61923555494,-0.195374,-0.587524,-0.00506592,0.785278
61923576520,-0.195435,-0.587463,-0.00500488,0.785278
61923592965,-0.195435,-0.587463,-0.00500488,0.785278
61923615474,-0.195374,-0.587524,-0.00506592,0.785278
61923636543,-0.195374,-0.587524,-0.00506592,0.785278
61923652977,-0.195374,-0.587524,-0.00506592,0.785278
61923675516,-0.195374,-0.587524,-0.00506592,0.785278
61923696538,-0.195312,-0.587524,-0.00512695,0.785278
61923713860,-0.195312,-0.587524,-0.00512695,0.785278
61923735502,-0.195312,-0.587524,-0.00512695,0.785278
61923756573,-0.195312,-0.587524,-0.00512695,0.785278
61923779072,-0.195312,-0.587524,-0.00512695,0.785278
61923795476,-0.195312,-0.587524,-0.00512695,0.785278
61923816500,-0.195251,-0.587524,-0.00512695,0.785278
61923832958,-0.195251,-0.587463,-0.00512695,0.785278
61923855526,-0.195251,-0.587463,-0.00512695,0.785339
61923876562,-0.195251,-0.587463,-0.00512695,0.785339
61923893001,-0.195251,-0.587463,-0.00512695,0.785339
61923915525,-0.195251,-0.587463,-0.00512695,0.785278
61923936551,-0.195435,-0.587524,-0.00524902,0.785278
61923955076,-0.195435,-0.587463,-0.00524902,0.785278
61923975484,-0.195435,-0.587463,-0.00524902,0.785278
61923996546,-0.195374,-0.587463,-0.00524902,0.785278
61924020476,-0.195374,-0.587463,-0.00524902,0.785278
61924035489,-0.195374,-0.587463,-0.00531006,0.785278
61924059487,-0.195374,-0.587524,-0.00531006,0.785278
61924073033,-0.195374,-0.587463,-0.00531006,0.785278
61924095471,-0.195374,-0.587463,-0.00531006,0.785278
61924116560,-0.195374,-0.587463,-0.00531006,0.785278
61924132993,-0.195374,-0.587463,-0.00531006,0.785278
61924157521,-0.195312,-0.587463,-0.00531006,0.785278
61924176491,-0.195312,-0.587463,-0.00531006,0.785278
61924192950,-0.195312,-0.587463,-0.00531006,0.785278
61924215480,-0.195312,-0.587463,-0.00531006,0.785278
61924236526,-0.195312,-0.587463,-0.00531006,0.785278
61924252996,-0.195496,-0.587402,-0.00537109,0.785278
61924275485,-0.195496,-0.587463,-0.00537109,0.785278
61924296545,-0.195496,-0.587402,-0.00537109,0.785278
61924312971,-0.195496,-0.587402,-0.00537109,0.785278
61924335555,-0.195618,-0.58728,-0.00561523,0.785339
61924356542,-0.195618,-0.58728,-0.0055542,0.785339
61924372157,-0.195618,-0.58728,-0.00561523,0.785339
61924394749,-0.195618,-0.58728,-0.00561523,0.785339
61924417265,-0.195618,-0.587341,-0.00561523,0.785339
61924432318,-0.195618,-0.58728,-0.00561523,0.785339
61924454695,-0.195618,-0.58728,-0.00561523,0.7854
61924477160,-0.195618,-0.58728,-0.00561523,0.7854
61924492211,-0.195618,-0.58728,-0.00561523,0.7854
61924514695,-0.195557,-0.58728,-0.00561523,0.7854
61924537177,-0.195557,-0.58728,-0.00561523,0.7854
61924552272,-0.195557,-0.587219,-0.00561523,0.7854
61924574689,-0.195618,-0.587219,-0.00561523,0.7854
61924597205,-0.195618,-0.587219,-0.0055542,0.7854
61924612217,-0.195618,-0.587219,-0.0055542,0.7854
61924634705,-0.195618,-0.587219,-0.00561523,0.785461
61924657229,-0.195557,-0.587219,-0.00561523,0.785461
61924675774,-0.195557,-0.587219,-0.00561523,0.785461
61924694725,-0.195557,-0.587219,-0.00561523,0.785461
61924717221,-0.195557,-0.587158,-0.00561523,0.785461
61924733666,-0.195557,-0.587158,-0.00561523,0.785461
61924754682,-0.195557,-0.587158,-0.00561523,0.785461
61924777806,-0.195557,-0.587158,-0.00561523,0.785461
61924794124,-0.195557,-0.587158,-0.00561523,0.785461
61924814695,-0.195557,-0.587158,-0.00561523,0.785461
61924837196,-0.195557,-0.587158,-0.00561523,0.785461
61924854533,-0.195557,-0.587097,-0.00561523,0.785522
61924874707,-0.195557,-0.587097,-0.00561523,0.785522
61924897219,-0.195557,-0.587097,-0.00561523,0.785522
61924913631,-0.19574,-0.587158,-0.0057373,0.785461
61924934748,-0.19574,-0.587158,-0.0057373,0.785461
61924957180,-0.195679,-0.587158,-0.0057373,0.785461
61924973608,-0.195679,-0.587158,-0.0057373,0.785461
61924994667,-0.195679,-0.587158,-0.0057373,0.785461
61925017243,-0.195679,-0.587158,-0.0057373,0.785461
61925033660,-0.195679,-0.587158,-0.0057373,0.785461
61925054728,-0.195679,-0.587097,-0.0057373,0.785461
61925076985,-0.19574,-0.587097,-0.0057373,0.785461
61925093656,-0.195679,-0.587097,-0.0057373,0.785461
61925114766,-0.195679,-0.587097,-0.0057373,0.785461
61925137217,-0.19574,-0.587097,-0.0057373,0.785461
61925153660,-0.19574,-0.587097,-0.0057373,0.785461
61925174735,-0.195679,-0.587097,-0.0057373,0.785461
61925197272,-0.195679,-0.587097,-0.0057373,0.785461
61925213650,-0.195679,-0.587097,-0.0057373,0.785461
61925234736,-0.195679,-0.587097,-0.0057373,0.785461
61925257221,-0.195679,-0.587097,-0.0057373,0.785461
61925273660,-0.195679,-0.587097,-0.0057373,0.785461
61925294710,-0.195679,-0.587097,-0.0057373,0.785522
61925317220,-0.195679,-0.587097,-0.0057373,0.785522
61925333701,-0.195679,-0.587097,-0.0057373,0.785522
61925354712,-0.195618,-0.587097,-0.00579834,0.785522
61925377254,-0.195618,-0.587097,-0.00579834,0.785522
61925395726,-0.195618,-0.587097,-0.00579834,0.785522
61925414747,-0.195618,-0.587097,-0.00579834,0.785522
61925437238,-0.195618,-0.587036,-0.0057373,0.785522
61925453673,-0.195679,-0.587036,-0.0057373,0.785522
61925474711,-0.195679,-0.587036,-0.0057373,0.785583
61925498371,-0.195679,-0.587036,-0.0057373,0.785583
61925512971,-0.195618,-0.587036,-0.0057373,0.785583
61925534730,-0.195618,-0.586975,-0.0057373,0.785583
61925557218,-0.195679,-0.586975,-0.0057373,0.785583
61925573043,-0.195679,-0.586975,-0.0057373,0.785583
61925594755,-0.195679,-0.586975,-0.0057373,0.785583
61925617198,-0.195679,-0.586975,-0.0057373,0.785583
61925633013,-0.195679,-0.586914,-0.0057373,0.785583
61925656195,-0.195679,-0.586914,-0.0057373,0.785645
61925677333,-0.195679,-0.586914,-0.0057373,0.785583
61925693057,-0.195679,-0.586914,-0.0057373,0.785645
61925716180,-0.195679,-0.586914,-0.00567627,0.785645
61925737216,-0.195679,-0.586914,-0.00567627,0.785645
61925752978,-0.195679,-0.586914,-0.00567627,0.785645
61925776207,-0.195679,-0.586914,-0.00567627,0.785645
61925797201,-0.195679,-0.586914,-0.00567627,0.785645
61925815274,-0.195679,-0.586914,-0.00567627,0.785645
61925836137,-0.195679,-0.586914,-0.0057373,0.785645
61925857421,-0.195679,-0.586914,-0.00567627,0.785645
61925873135,-0.195679,-0.586914,-0.00567627,0.785645
61925896228,-0.195679,-0.586853,-0.00567627,0.785645
61925917224,-0.195679,-0.586853,-0.00567627,0.785645
61925933051,-0.195679,-0.586853,-0.00567627,0.785645
61925956196,-0.195679,-0.586853,-0.00567627,0.785706
61925977298,-0.195618,-0.586792,-0.00567627,0.785706
61925992998,-0.195618,-0.586792,-0.00567627,0.785706
61926018355,-0.195618,-0.586792,-0.00567627,0.785706
61926037249,-0.195496,-0.586731,-0.0055542,0.785828
61926053047,-0.195496,-0.586731,-0.0055542,0.785828
61926076225,-0.195679,-0.58667,-0.00567627,0.785828
61926097306,-0.195679,-0.586609,-0.00567627,0.785828
61926113144,-0.195679,-0.586609,-0.00567627,0.785889
61926136163,-0.195679,-0.586548,-0.00567627,0.785889
61926157238,-0.195679,-0.586548,-0.00567627,0.785889
61926172973,-0.195679,-0.586548,-0.00567627,0.785889
61926196145,-0.195618,-0.586548,-0.00567627,0.785889
61926218083,-0.195618,-0.586548,-0.00567627,0.785889
61926232989,-0.195618,-0.586609,-0.00567627,0.785889
61926256167,-0.195618,-0.586609,-0.0057373,0.785889
61926277303,-0.195557,-0.586609,-0.0057373,0.785889
61926293091,-0.195557,-0.586609,-0.0057373,0.785889
61926316211,-0.195435,-0.586487,-0.0055542,0.786011
61926337268,-0.195435,-0.586426,-0.0055542,0.786011
61926353043,-0.195435,-0.586426,-0.00549316,0.786011
61926376233,-0.195496,-0.586426,-0.00549316,0.786072
61926397231,-0.195496,-0.586426,-0.00549316,0.786072
61926413037,-0.195496,-0.586426,-0.00549316,0.786072
61926435543,-0.195496,-0.586426,-0.00549316,0.786072
61926457270,-0.195496,-0.586426,-0.00549316,0.786072
61926473058,-0.195496,-0.586426,-0.00549316,0.786072
61926495554,-0.195496,-0.586426,-0.00549316,0.786072
61926517219,-0.195496,-0.586365,-0.00549316,0.786072
61926535135,-0.195496,-0.586365,-0.00549316,0.786072
61926555963,-0.195496,-0.586365,-0.00549316,0.786072
61926578794,-0.195496,-0.586365,-0.00549316,0.786072
61926593065,-0.195496,-0.586365,-0.00549316,0.786072
61926615555,-0.195496,-0.586426,-0.00549316,0.786072
61926640950,-0.195496,-0.586426,-0.00549316,0.786072
61926653070,-0.195496,-0.586365,-0.00549316,0.786072
61926675552,-0.195496,-0.586426,-0.00549316,0.786072
61926698681,-0.195496,-0.586426,-0.00549316,0.786072
61926713067,-0.195435,-0.586426,-0.00549316,0.786072
61926735542,-0.195435,-0.586426,-0.0055542,0.786072
61926758789,-0.195435,-0.586426,-0.00549316,0.786072
61926773039,-0.195435,-0.586426,-0.00549316,0.786072
61926795552,-0.195435,-0.586365,-0.00549316,0.786072
61926818678,-0.19519,-0.586426,-0.00549316,0.786072
61926833515,-0.19519,-0.586426,-0.00549316,0.786072
61926855528,-0.19519,-0.586426,-0.00549316,0.786133
61926878691,-0.19519,-0.586426,-0.00549316,0.786133
61926893002,-0.19519,-0.586426,-0.00549316,0.786133
61926915556,-0.195007,-0.586487,-0.00543213,0.786133
61926938718,-0.194763,-0.586487,-0.00537109,0.786194
61926953016,-0.194763,-0.586487,-0.00537109,0.786194
61926975506,-0.194824,-0.586487,-0.0055542,0.786194
61926998731,-0.194824,-0.586426,-0.0055542,0.786194
61927013031,-0.194824,-0.586426,-0.0055542,0.786194
61927035549,-0.194824,-0.586426,-0.0055542,0.786194
61927058650,-0.194824,-0.586426,-0.0055542,0.786194
61927079810,-0.194824,-0.586426,-0.0055542,0.786194
61927095540,-0.194824,-0.586426,-0.0055542,0.786194
61927119524,-0.194824,-0.586426,-0.0055542,0.786194
61927139787,-0.194763,-0.586426,-0.0055542,0.786194
61927157241,-0.194763,-0.586426,-0.0055542,0.786194
61927178708,-0.19458,-0.586365,-0.00543213,0.786316
61927199945,-0.19458,-0.586426,-0.00543213,0.786316
61927215533,-0.19458,-0.586365,-0.00543213,0.786316
61927238707,-0.19458,-0.586365,-0.00543213,0.786316
61927259733,-0.19458,-0.586365,-0.00543213,0.786316
61927275554,-0.19458,-0.586365,-0.00543213,0.786316
61927298475,-0.19458,-0.586365,-0.00543213,0.786316
61927319708,-0.19458,-0.586304,-0.00543213,0.786316
61927335569,-0.19458,-0.586304,-0.00543213,0.786316
61927358697,-0.19458,-0.586304,-0.00543213,0.786316
61927379788,-0.19458,-0.586304,-0.00543213,0.786316
61927395585,-0.19458,-0.586304,-0.00543213,0.786316
61927418053,-0.19458,-0.586365,-0.00543213,0.786316
61927439755,-0.19458,-0.586304,-0.00543213,0.786316
61927457172,-0.19458,-0.586304,-0.00543213,0.786377
61927478027,-0.19458,-0.586304,-0.00543213,0.786377
61927499787,-0.19458,-0.586304,-0.00543213,0.786377
61927515523,-0.194519,-0.586304,-0.00543213,0.786377
61927538030,-0.194519,-0.586304,-0.00543213,0.786377
61927561228,-0.194519,-0.586304,-0.00543213,0.786377
61927583689,-0.194519,-0.586304,-0.00543213,0.786377
61927598064,-0.194519,-0.586304,-0.00543213,0.786377
61927621206,-0.194519,-0.586304,-0.00543213,0.786377
61927635589,-0.194519,-0.586243,-0.00543213,0.786377
61927664793,-0.194519,-0.586243,-0.00543213,0.786377
61927681219,-0.194641,-0.586304,-0.00561523,0.786377
61927695597,-0.194641,-0.586304,-0.00561523,0.786377
61927718042,-0.194641,-0.586304,-0.00561523,0.786377
61927741243,-0.194641,-0.586243,-0.00561523,0.786377
61927755625,-0.194641,-0.586243,-0.00561523,0.786377
61927778052,-0.19458,-0.586243,-0.00561523,0.786377
61927801202,-0.19458,-0.586243,-0.00561523,0.786377
61927815520,-0.19458,-0.586243,-0.00567627,0.786377
61927838052,-0.19458,-0.586243,-0.00567627,0.786377
61927862181,-0.19458,-0.586243,-0.00567627,0.786377
61927875617,-0.19458,-0.586243,-0.00567627,0.786377
61927898106,-0.19458,-0.586243,-0.00567627,0.786438
61927921205,-0.19458,-0.586243,-0.00567627,0.786438
61927935528,-0.194519,-0.586243,-0.00567627,0.786438
61927958036,-0.194519,-0.586243,-0.00567627,0.786438
61927981220,-0.194519,-0.586243,-0.00567627,0.786438
61927995555,-0.194519,-0.586243,-0.00567627,0.786438
61928018115,-0.194519,-0.586243,-0.00567627,0.786438
61928041181,-0.194519,-0.586182,-0.00567627,0.786438
61928063166,-0.194519,-0.586182,-0.00567627,0.786438
61928078079,-0.194519,-0.586182,-0.00567627,0.786438
61928101253,-0.194519,-0.586121,-0.00567627,0.786499
61928122315,-0.194519,-0.586121,-0.00567627,0.786499
61928137290,-0.194519,-0.586121,-0.00567627,0.786499
61928151582,-0.194519,-0.586121,-0.00567627,0.786499
61928174112,-0.194519,-0.586121,-0.00561523,0.786499
61928197282,-0.19458,-0.586121,-0.00561523,0.786499
61928211678,-0.19458,-0.586121,-0.00561523,0.786499
61928234149,-0.194519,-0.586121,-0.00561523,0.786499
61928257293,-0.194519,-0.586121,-0.00561523,0.786499
61928271627,-0.194519,-0.58606,-0.00561523,0.786499
61928294145,-0.194519,-0.58606,-0.00561523,0.78656
61928317294,-0.194519,-0.58606,-0.00561523,0.78656
61928331671,-0.194519,-0.58606,-0.00561523,0.78656
61928354160,-0.194519,-0.58606,-0.00561523,0.78656
61928377257,-0.194519,-0.58606,-0.00561523,0.78656
61928391659,-0.194519,-0.58606,-0.00561523,0.78656
61928414116,-0.194519,-0.58606,-0.00561523,0.78656
61928437297,-0.194519,-0.58606,-0.00561523,0.78656
61928451672,-0.194519,-0.58606,-0.00561523,0.78656
61928474063,-0.194519,-0.58606,-0.00561523,0.78656
61928497286,-0.194519,-0.58606,-0.00561523,0.78656
61928511604,-0.194519,-0.585999,-0.00561523,0.78656
61928534142,-0.194519,-0.585999,-0.00561523,0.78656
61928557337,-0.194519,-0.585999,-0.00561523,0.78656
61928572350,-0.194519,-0.585999,-0.00561523,0.78656
61928594120,-0.194519,-0.58606,-0.00561523,0.78656
61928617346,-0.194519,-0.58606,-0.00561523,0.78656
61928631653,-0.194519,-0.585999,-0.00561523,0.78656
61928654157,-0.194519,-0.585999,-0.00561523,0.786621
61928677625,-0.194519,-0.585999,-0.00561523,0.786621
61928691748,-0.194519,-0.585938,-0.00561523,0.786621
61928714126,-0.19458,-0.585938,-0.0055542,0.786621
61928737316,-0.19458,-0.585938,-0.0055542,0.786621
61928751650,-0.19458,-0.585938,-0.0055542,0.786621
61928777172,-0.19458,-0.585938,-0.0055542,0.786621
61928797299,-0.194641,-0.585999,-0.0057373,0.78656
61928811667,-0.194641,-0.585938,-0.0057373,0.78656
61928834184,-0.194641,-0.585938,-0.0057373,0.786621
61928857356,-0.194641,-0.585938,-0.0057373,0.786621
61928871618,-0.194641,-0.585938,-0.0057373,0.786621
61928894151,-0.194702,-0.585938,-0.00567627,0.786621
61928917289,-0.194702,-0.585938,-0.00567627,0.786621
61928931653,-0.194702,-0.585938,-0.00567627,0.786621
61928954169,-0.194641,-0.585938,-0.00567627,0.786621
61928978031,-0.194641,-0.585876,-0.00567627,0.786621
61928991665,-0.194641,-0.585876,-0.00567627,0.786682
61929014153,-0.194641,-0.585876,-0.00567627,0.786682
61929037304,-0.194702,-0.585876,-0.00567627,0.786682
61929051594,-0.194702,-0.585815,-0.00567627,0.786682
61929074146,-0.194641,-0.585815,-0.00567627,0.786682
61929097304,-0.194641,-0.585815,-0.00567627,0.786682
61929111701,-0.194641,-0.585815,-0.00567627,0.786682
61929134178,-0.194641,-0.585815,-0.00567627,0.786682
61929157365,-0.194641,-0.585815,-0.00567627,0.786682
61929171616,-0.194641,-0.585815,-0.00567627,0.786682
61929194151,-0.194641,-0.585754,-0.00567627,0.786743
61929217797,-0.194641,-0.585754,-0.00567627,0.786743
61929231674,-0.194641,-0.585754,-0.00567627,0.786743
61929254225,-0.194641,-0.585754,-0.00567627,0.786743
61929277313,-0.194641,-0.585754,-0.00567627,0.786743
61929291649,-0.194641,-0.585754,-0.00567627,0.786743
61929314183,-0.194641,-0.585754,-0.00567627,0.786743
61929337328,-0.194641,-0.585693,-0.00567627,0.786743
61929352300,-0.194641,-0.585693,-0.00567627,0.786804
61929374175,-0.194641,-0.585693,-0.00567627,0.786804
61929396682,-0.194641,-0.585754,-0.00567627,0.786743
61929411675,-0.194641,-0.585693,-0.00567627,0.786804
61929434172,-0.194641,-0.585693,-0.00567627,0.786804
61929456773,-0.194641,-0.585693,-0.00567627,0.786804
61929471625,-0.194641,-0.585693,-0.00567627,0.786804
61929494177,-0.194641,-0.585693,-0.00567627,0.786804
61929516711,-0.194641,-0.585693,-0.00567627,0.786804
61929531789,-0.194641,-0.585693,-0.00561523,0.786804
61929554123,-0.194641,-0.585632,-0.00561523,0.786804
61929576695,-0.194641,-0.585632,-0.00567627,0.786804
61929591669,-0.194641,-0.585632,-0.00561523,0.786804
61929614213,-0.194641,-0.585632,-0.00561523,0.786865
61929636653,-0.194641,-0.585632,-0.00561523,0.786865
61929651617,-0.194641,-0.585632,-0.00561523,0.786865
61929674229,-0.194641,-0.585632,-0.00567627,0.786865
61929696687,-0.194641,-0.585632,-0.00567627,0.786865
61929711624,-0.194641,-0.585632,-0.00567627,0.786865
61929734163,-0.194641,-0.585632,-0.00567627,0.786865
61929756630,-0.194641,-0.585571,-0.00567627,0.786865
61929771646,-0.194641,-0.585571,-0.00561523,0.786865
61929794169,-0.194641,-0.585571,-0.00561523,0.786865
61929816689,-0.194641,-0.585571,-0.00561523,0.786865
61929831611,-0.194641,-0.585571,-0.00561523,0.786865
61929854168,-0.194641,-0.585571,-0.00561523,0.786865
61929886285,-0.194641,-0.585571,-0.00561523,0.786926
61929892919,-0.194641,-0.585571,-0.00561523,0.786926
61929914225,-0.194702,-0.585571,-0.00561523,0.786926
61929936693,-0.194702,-0.58551,-0.00561523,0.786926
61929951655,-0.194702,-0.58551,-0.00561523,0.786926
61929974180,-0.194702,-0.58551,-0.00561523,0.786926
61929996683,-0.194702,-0.58551,-0.00561523,0.786926
61930011661,-0.194641,-0.58551,-0.00561523,0.786926
61930034183,-0.194641,-0.585449,-0.00561523,0.786926
61930057361,-0.194641,-0.585449,-0.00561523,0.786926
61930071695,-0.194702,-0.585449,-0.00561523,0.786987
61930094149,-0.194641,-0.585449,-0.00561523,0.786987
61930116699,-0.194641,-0.585449,-0.00561523,0.786987
61930131718,-0.194641,-0.585449,-0.00561523,0.786987
61930154142,-0.194641,-0.585449,-0.00561523,0.786987
61930176692,-0.194641,-0.585449,-0.00561523,0.786987
61930192716,-0.194641,-0.585449,-0.00561523,0.786987
61930214300,-0.19458,-0.585449,-0.00561523,0.786987
61930236681,-0.19458,-0.585449,-0.00561523,0.786987
61930253103,-0.19458,-0.585388,-0.00561523,0.786987
61930274167,-0.19458,-0.585388,-0.00561523,0.787048
61930296688,-0.19458,-0.585388,-0.00567627,0.787048
61930313161,-0.19458,-0.585388,-0.00561523,0.787048
61930334216,-0.19458,-0.585388,-0.00567627,0.787048
61930356668,-0.19458,-0.585388,-0.00561523,0.787048
61930373126,-0.19458,-0.585388,-0.00561523,0.787048
61930395152,-0.19458,-0.585388,-0.00561523,0.787048
61930416897,-0.19458,-0.585327,-0.00561523,0.787048
61930433095,-0.19458,-0.585327,-0.00567627,0.787109
61930454182,-0.194519,-0.585327,-0.00567627,0.787109
61930476717,-0.194519,-0.585327,-0.00567627,0.787109
61930494076,-0.194519,-0.585327,-0.00567627,0.787109
61930514171,-0.194519,-0.585327,-0.00567627,0.787109
61930536703,-0.194519,-0.585327,-0.00567627,0.787109
61930553079,-0.194519,-0.585327,-0.00567627,0.787109
61930574202,-0.194458,-0.585327,-0.00567627,0.787109
61930597846,-0.194458,-0.585327,-0.0057373,0.787109
61930613164,-0.194458,-0.585327,-0.0057373,0.787109
61930637130,-0.194458,-0.585327,-0.0057373,0.787109
61930656703,-0.194458,-0.585327,-0.0057373,0.787109
61930673087,-0.194458,-0.585327,-0.00567627,0.787109
61930694207,-0.194519,-0.585327,-0.00567627,0.787109
61930716698,-0.194458,-0.585327,-0.00567627,0.787109
61930733106,-0.194458,-0.585327,-0.00567627,0.787109
61930754190,-0.194458,-0.585266,-0.0057373,0.787109
61930776721,-0.194458,-0.585327,-0.0057373,0.787109
61930793107,-0.194458,-0.585266,-0.00567627,0.787109
61930814160,-0.194458,-0.585266,-0.00567627,0.787109
61930836706,-0.194458,-0.585266,-0.0057373,0.78717
61930853116,-0.194458,-0.585266,-0.0057373,0.78717
61930874174,-0.194458,-0.585266,-0.0057373,0.78717
61930897275,-0.194397,-0.585266,-0.0057373,0.78717
61930913130,-0.194397,-0.585205,-0.0057373,0.78717
61930934171,-0.194397,-0.585205,-0.0057373,0.787231
61930956691,-0.194397,-0.585205,-0.0057373,0.787231
61930974000,-0.194397,-0.585266,-0.0057373,0.78717
61930994218,-0.194397,-0.585266,-0.0057373,0.78717
61931016719,-0.194397,-0.585205,-0.0057373,0.787231
61931033101,-0.194397,-0.585205,-0.0057373,0.787231
61931054176,-0.194397,-0.585205,-0.0057373,0.787231
61931076659,-0.194336,-0.585205,-0.0057373,0.787231
61931093070,-0.194397,-0.585205,-0.0057373,0.787231
61931114154,-0.194336,-0.585144,-0.0057373,0.787231
61931136678,-0.194336,-0.585144,-0.0057373,0.787231
61931153134,-0.194336,-0.585205,-0.0057373,0.787231
61931176013,-0.194336,-0.585205,-0.00579834,0.787231
61931196763,-0.194336,-0.585144,-0.0057373,0.787292
61931213128,-0.194336,-0.585144,-0.0057373,0.787292
61931235588,-0.194153,-0.585083,-0.00567627,0.787354
61931256711,-0.194153,-0.585083,-0.00567627,0.787354
61931275473,-0.194458,-0.584961,-0.00579834,0.787415
61931295599,-0.194397,-0.5849,-0.00579834,0.787415
61931318101,-0.194275,-0.5849,-0.00567627,0.787476
61931333143,-0.194214,-0.5849,-0.00567627,0.787476
61931355631,-0.194458,-0.584839,-0.0057373,0.787476
61931376693,-0.194458,-0.584778,-0.0057373,0.787476
61931393157,-0.194397,-0.584778,-0.0057373,0.787476
61931415649,-0.194397,-0.584839,-0.00579834,0.787476
61931436698,-0.194397,-0.584839,-0.00579834,0.787476
61931453158,-0.194397,-0.584839,-0.00579834,0.787537
61931476534,-0.194397,-0.584839,-0.00579834,0.787537
61931496732,-0.194214,-0.584778,-0.00561523,0.787537
61931513102,-0.194214,-0.584778,-0.00561523,0.787598
61931535602,-0.194275,-0.584778,-0.0055542,0.787598
61931556763,-0.194275,-0.584778,-0.0055542,0.787598
61931573158,-0.194275,-0.584778,-0.0055542,0.787598
61931595645,-0.194275,-0.584778,-0.0055542,0.787598
61931616686,-0.194275,-0.584778,-0.0055542,0.787598
61931633162,-0.194275,-0.584717,-0.0055542,0.787598
61931655600,-0.194275,-0.584717,-0.0055542,0.787598
61931676692,-0.194275,-0.584717,-0.0055542,0.787598
61931693148,-0.194275,-0.584717,-0.0055542,0.787598
61931715656,-0.194275,-0.584717,-0.0055542,0.787598
61931736708,-0.194275,-0.584717,-0.0055542,0.787598
61931753151,-0.194275,-0.584717,-0.0055542,0.787598
61931776558,-0.194275,-0.584717,-0.0055542,0.787598
61931796710,-0.194275,-0.584717,-0.0055542,0.787598
61931813124,-0.194275,-0.584717,-0.0055542,0.787598
61931835599,-0.194275,-0.584717,-0.0055542,0.787598
61931856761,-0.194275,-0.584717,-0.0055542,0.787598
61931873124,-0.194275,-0.584717,-0.0055542,0.787598
61931894883,-0.194275,-0.584717,-0.0055542,0.787598
61931917342,-0.194275,-0.584717,-0.0055542,0.787598
61931932409,-0.194275,-0.584717,-0.0055542,0.787598
61931954863,-0.194275,-0.584717,-0.0055542,0.787598
61931977409,-0.194275,-0.584717,-0.0055542,0.787598
61931992462,-0.194275,-0.584717,-0.0055542,0.787598
61932014895,-0.194275,-0.584717,-0.0055542,0.787659
61932037359,-0.194214,-0.584717,-0.0055542,0.787659
61932053812,-0.194214,-0.584656,-0.0055542,0.787659
61932074871,-0.194214,-0.584656,-0.0055542,0.787659
61932097346,-0.194275,-0.584656,-0.0055542,0.787659
61932113799,-0.194275,-0.584656,-0.0055542,0.787659
61932134900,-0.194275,-0.584656,-0.0055542,0.787659
61932157367,-0.194275,-0.584656,-0.0055542,0.787659
61932172363,-0.194275,-0.584656,-0.0055542,0.787659
61932194899,-0.194092,-0.584534,-0.00543213,0.787781
61932217430,-0.194092,-0.584534,-0.00543213,0.787781
61932232367,-0.194092,-0.584534,-0.00543213,0.787842
61932254894,-0.194092,-0.584473,-0.00543213,0.787842
61932277382,-0.194092,-0.584473,-0.00543213,0.787842
61932293863,-0.194092,-0.584473,-0.00543213,0.787842
61932314920,-0.194092,-0.584473,-0.00543213,0.787842
61932337406,-0.194092,-0.584473,-0.00543213,0.787842
61932353818,-0.194092,-0.584473,-0.00543213,0.787842
61932382549,-0.194092,-0.584412,-0.00543213,0.787842
61932397401,-0.194092,-0.584412,-0.00543213,0.787903
61932413827,-0.194031,-0.584412,-0.00543213,0.787903
61932434907,-0.194031,-0.584412,-0.00543213,0.787903
61932457458,-0.194092,-0.584412,-0.00543213,0.787903
61932473777,-0.194092,-0.584412,-0.00543213,0.787903
61932494894,-0.194031,-0.584412,-0.00543213,0.787903
61932517377,-0.194031,-0.584351,-0.00543213,0.787903
61932533879,-0.194031,-0.584351,-0.00543213,0.787903
61932554873,-0.194092,-0.584351,-0.00537109,0.787903
61932578793,-0.194092,-0.584351,-0.00537109,0.787964
61932593844,-0.194031,-0.584351,-0.00537109,0.787964
61932614853,-0.194031,-0.584351,-0.00543213,0.787903
61932637390,-0.194031,-0.584351,-0.00543213,0.787964
61932653806,-0.194031,-0.584351,-0.00543213,0.787964
61932674894,-0.194031,-0.584351,-0.00543213,0.787964
61932697443,-0.194031,-0.584351,-0.00543213,0.787964
61932714807,-0.194031,-0.58429,-0.00543213,0.787964
61932734878,-0.194031,-0.58429,-0.00543213,0.787964
61932757408,-0.19397,-0.58429,-0.00543213,0.788025
61932773793,-0.19397,-0.58429,-0.00543213,0.788025
61932794892,-0.19397,-0.58429,-0.00543213,0.788025
61932818362,-0.194031,-0.584229,-0.00543213,0.788025
61932833800,-0.19397,-0.584229,-0.00543213,0.788025
61932854896,-0.19397,-0.58429,-0.00543213,0.788025
61932877385,-0.193787,-0.584229,-0.00537109,0.788086
61932893835,-0.193787,-0.584229,-0.00537109,0.788086
61932914912,-0.193787,-0.584229,-0.00537109,0.788086
61932937362,-0.193787,-0.584229,-0.00537109,0.788086
61932953818,-0.193787,-0.584229,-0.00537109,0.788147
61932974959,-0.193787,-0.584167,-0.00537109,0.788147
61932997405,-0.193787,-0.584167,-0.00537109,0.788147
61933013786,-0.193726,-0.584167,-0.00537109,0.788147
61933034888,-0.193726,-0.584167,-0.00537109,0.788147
61933057393,-0.193787,-0.584167,-0.00537109,0.788147
61933073186,-0.193787,-0.584167,-0.00537109,0.788147
61933095072,-0.193787,-0.584167,-0.00537109,0.788147
61933118392,-0.193726,-0.584167,-0.00537109,0.788147
61933133166,-0.193726,-0.584167,-0.00537109,0.788147
61933154882,-0.193726,-0.584167,-0.00543213,0.788147
61933177436,-0.193726,-0.584106,-0.00543213,0.788147
61933193490,-0.193726,-0.584106,-0.00537109,0.788208
61933216298,-0.193726,-0.584106,-0.00537109,0.788208
61933237393,-0.193726,-0.584045,-0.00537109,0.788208
61933253138,-0.193726,-0.584106,-0.00537109,0.788208
61933276358,-0.193787,-0.584106,-0.00561523,0.788208
61933297437,-0.193787,-0.584106,-0.00561523,0.788208
61933313148,-0.193787,-0.584106,-0.00561523,0.788208
61933336281,-0.193787,-0.584106,-0.00561523,0.788208
61933357423,-0.193787,-0.584106,-0.00561523,0.788208
61933373227,-0.193787,-0.584106,-0.00561523,0.788208
61933396346,-0.193787,-0.584106,-0.00561523,0.788208
61933417451,-0.193787,-0.584106,-0.00561523,0.788208
61933433212,-0.193787,-0.584106,-0.00561523,0.788208
61933456333,-0.193787,-0.584045,-0.00561523,0.788208
61933477446,-0.193787,-0.584045,-0.00561523,0.788208
61933493224,-0.193787,-0.584045,-0.00561523,0.788208
61933516342,-0.193787,-0.584045,-0.00561523,0.788208
61933537423,-0.193787,-0.584045,-0.00561523,0.788208
61933553154,-0.193787,-0.584045,-0.00561523,0.788208
61933576302,-0.193726,-0.584045,-0.00561523,0.788208
61933597363,-0.193726,-0.584045,-0.00561523,0.788208
61933613172,-0.193726,-0.584045,-0.00561523,0.788208
61933636324,-0.193726,-0.584045,-0.00561523,0.788269
61933657406,-0.193726,-0.584045,-0.00561523,0.788269
61933673173,-0.193665,-0.584045,-0.00567627,0.788269
61933696380,-0.193665,-0.584045,-0.00567627,0.788269
61933717374,-0.193665,-0.584045,-0.00567627,0.788269
61933733901,-0.193665,-0.584045,-0.00567627,0.788269
61933756402,-0.193665,-0.584045,-0.00567627,0.788269
61933777466,-0.193665,-0.584045,-0.00567627,0.788269
61933793197,-0.193665,-0.584106,-0.00567627,0.788269
61933816353,-0.193604,-0.584106,-0.00567627,0.788269
61933837415,-0.193604,-0.584106,-0.0057373,0.788208
61933853176,-0.193604,-0.584106,-0.0057373,0.788269
61933876345,-0.193604,-0.584106,-0.0057373,0.788269
61933897492,-0.193542,-0.584106,-0.0057373,0.788269
61933913220,-0.193604,-0.584106,-0.0057373,0.788269
61933936378,-0.193542,-0.584106,-0.0057373,0.788269
61933957384,-0.193542,-0.584106,-0.0057373,0.788269
61933973214,-0.193542,-0.584106,-0.00579834,0.788269
61933995665,-0.193726,-0.584045,-0.00585938,0.788269
61934017455,-0.193726,-0.584045,-0.00585938,0.788269
61934035317,-0.193665,-0.584045,-0.00592041,0.788269
61934055686,-0.193665,-0.584045,-0.00592041,0.788269
61934077474,-0.193665,-0.584045,-0.00592041,0.788269
61934093193,-0.193665,-0.584045,-0.00592041,0.788269
61934115649,-0.193665,-0.584045,-0.00592041,0.788269
61934139336,-0.193604,-0.584045,-0.00592041,0.788269
61934153199,-0.193604,-0.584045,-0.00592041,0.788269
61934175676,-0.193604,-0.584045,-0.00598145,0.788269
61934198879,-0.193604,-0.584045,-0.00598145,0.788269
61934213259,-0.193604,-0.583984,-0.00598145,0.788269
61934235771,-0.193604,-0.583984,-0.00598145,0.78833
61934258888,-0.193604,-0.583984,-0.00598145,0.78833
61934273172,-0.193604,-0.583984,-0.00598145,0.78833
61934295677,-0.193604,-0.583984,-0.00598145,0.78833
61934324958,-0.193604,-0.584045,-0.00598145,0.78833
61934333209,-0.193542,-0.583984,-0.00598145,0.78833
61934355691,-0.193542,-0.583984,-0.00598145,0.78833
61934378851,-0.193542,-0.583984,-0.00598145,0.78833
61934393266,-0.193726,-0.584045,-0.00610352,0.788269
61934415784,-0.193726,-0.584045,-0.00610352,0.788269
61934438860,-0.193726,-0.583984,-0.00610352,0.788269
61934453210,-0.193726,-0.583984,-0.00610352,0.788269
61934475712,-0.193726,-0.583984,-0.00610352,0.788269
61934498831,-0.193726,-0.583984,-0.00610352,0.788269
61934513211,-0.193726,-0.583984,-0.00610352,0.788269
61934535670,-0.193726,-0.583984,-0.00610352,0.788269
61934558847,-0.193726,-0.583984,-0.00610352,0.788269
61934573192,-0.193665,-0.583984,-0.00610352,0.788269
61934595701,-0.193665,-0.583984,-0.00610352,0.788269
61934618851,-0.193665,-0.583984,-0.00616455,0.788269
61934633206,-0.193665,-0.583984,-0.00616455,0.78833
61934655726,-0.193665,-0.583984,-0.00616455,0.78833
61934678843,-0.193665,-0.583984,-0.00616455,0.78833
61934699908,-0.193665,-0.583984,-0.00616455,0.78833
61934715652,-0.193665,-0.583984,-0.00616455,0.78833
61934738829,-0.193665,-0.583923,-0.00616455,0.78833
61934759951,-0.193665,-0.583923,-0.00610352,0.78833
61934775694,-0.193665,-0.583923,-0.00610352,0.78833
61934798825,-0.193665,-0.583923,-0.00610352,0.78833
61934819956,-0.193665,-0.583923,-0.00610352,0.78833
61934835704,-0.193665,-0.583923,-0.00610352,0.78833
61934858830,-0.193665,-0.583923,-0.00610352,0.78833
61934881360,-0.193665,-0.583923,-0.00610352,0.788391
61934895681,-0.193665,-0.583862,-0.00610352,0.788391
61934918824,-0.193665,-0.583862,-0.00610352,0.788391
61934939953,-0.193665,-0.583862,-0.00610352,0.788391
61934963852,-0.193787,-0.583862,-0.00628662,0.78833
61934978216,-0.193787,-0.583862,-0.00628662,0.78833
61934999887,-0.193787,-0.583862,-0.00628662,0.78833
61935015666,-0.193787,-0.583923,-0.00628662,0.78833
61935046400,-0.193726,-0.583862,-0.00634766,0.78833
61935067449,-0.193726,-0.583862,-0.00634766,0.78833
61935075674,-0.193726,-0.583862,-0.00628662,0.788391
61935098228,-0.193604,-0.58374,-0.00616455,0.788513
61935121381,-0.193604,-0.58374,-0.00616455,0.788513
61935135729,-0.193665,-0.58374,-0.00610352,0.788452
61935159381,-0.193665,-0.58374,-0.00610352,0.788513
61935181459,-0.193665,-0.58374,-0.00610352,0.788513
61935195713,-0.193604,-0.583679,-0.00610352,0.788513
61935218199,-0.193604,-0.583679,-0.00610352,0.788513
61935241850,-0.193604,-0.583679,-0.00610352,0.788513
61935257614,-0.193604,-0.583679,-0.00610352,0.788574
61935278204,-0.193665,-0.583618,-0.00610352,0.788574
61935301383,-0.193665,-0.583618,-0.00610352,0.788574
61935315681,-0.193604,-0.583618,-0.00610352,0.788574
61935338680,-0.193604,-0.583618,-0.00610352,0.788574
61935363608,-0.193604,-0.583618,-0.00610352,0.788574
61935375703,-0.193604,-0.583618,-0.00610352,0.788574
61935398174,-0.193604,-0.583618,-0.00610352,0.788574
61935421329,-0.193604,-0.583618,-0.00610352,0.788574
61935435709,-0.193604,-0.583618,-0.00610352,0.788635
61935458247,-0.193604,-0.583618,-0.00610352,0.788635
61935481349,-0.193542,-0.583557,-0.00616455,0.788635
61935495704,-0.193542,-0.583557,-0.00616455,0.788635
61935518231,-0.193542,-0.583557,-0.00616455,0.788635
61935541365,-0.193542,-0.583557,-0.00616455,0.788635
61935555679,-0.193542,-0.583557,-0.00616455,0.788635
61935578180,-0.193604,-0.583557,-0.00610352,0.788635
61935601378,-0.193604,-0.583557,-0.00610352,0.788635
61935622475,-0.193542,-0.583557,-0.00610352,0.788635
61935638244,-0.193542,-0.583496,-0.00610352,0.788635
61935651780,-0.193542,-0.583496,-0.00610352,0.788696
61935674277,-0.193604,-0.583496,-0.00610352,0.788696
61935697559,-0.193604,-0.583496,-0.00610352,0.788696
61935711773,-0.193604,-0.583496,-0.00610352,0.788696
61935734293,-0.193542,-0.583496,-0.00610352,0.788696
61935757438,-0.193542,-0.583496,-0.00610352,0.788696
61935771797,-0.193542,-0.583496,-0.00610352,0.788696
61935794279,-0.193542,-0.583496,-0.00610352,0.788696
61935817442,-0.193542,-0.583496,-0.00616455,0.788696
61935831762,-0.193542,-0.583496,-0.00616455,0.788696
61935854347,-0.193542,-0.583435,-0.00616455,0.788757
61935877501,-0.193542,-0.583435,-0.00610352,0.788757
61935891819,-0.193542,-0.583435,-0.00610352,0.788757
61935914290,-0.193542,-0.583435,-0.00610352,0.788757
61935937517,-0.193542,-0.583374,-0.00610352,0.788757
61935951799,-0.193481,-0.583435,-0.00616455,0.788757
61935974308,-0.193481,-0.583435,-0.00616455,0.788757
61935997480,-0.193481,-0.583435,-0.00616455,0.788757
61936011824,-0.193481,-0.583374,-0.00616455,0.788757
61936034268,-0.193481,-0.583374,-0.00616455,0.788818
61936057421,-0.193481,-0.583374,-0.00616455,0.788818
61936073003,-0.193481,-0.583374,-0.00616455,0.788818
61936094413,-0.193481,-0.583374,-0.00616455,0.788818
61936117538,-0.193481,-0.583374,-0.00616455,0.788818
61936131810,-0.193481,-0.583313,-0.00616455,0.788818
61936154284,-0.193481,-0.583313,-0.00616455,0.788818
61936177459,-0.193481,-0.583313,-0.00616455,0.788818
61936191797,-0.193481,-0.583313,-0.00616455,0.788818
61936214322,-0.193481,-0.583313,-0.00616455,0.788818
61936237458,-0.193481,-0.583313,-0.00616455,0.788818
61936251812,-0.193481,-0.583313,-0.00616455,0.788818
61936274882,-0.193481,-0.583313,-0.00616455,0.788879
61936297502,-0.193481,-0.583313,-0.00616455,0.788879
61936311828,-0.193481,-0.583313,-0.00616455,0.788879
61936334289,-0.193481,-0.583252,-0.00616455,0.788879
61936357559,-0.193481,-0.583252,-0.00616455,0.788879
61936372389,-0.193481,-0.583313,-0.00616455,0.788879
61936394320,-0.193481,-0.583313,-0.00616455,0.788879
61936417494,-0.19342,-0.583252,-0.00616455,0.788879
61936431797,-0.19342,-0.583252,-0.00616455,0.788879
61936454315,-0.193481,-0.583252,-0.00616455,0.788879
61936477392,-0.193481,-0.583252,-0.00616455,0.78894
61936491791,-0.19342,-0.583252,-0.00616455,0.788879
61936514287,-0.19342,-0.583252,-0.00616455,0.788879
61936545627,-0.19342,-0.583252,-0.00616455,0.788879
61936551826,-0.19342,-0.583252,-0.00616455,0.78894
61936574909,-0.193481,-0.583252,-0.00616455,0.788879
61936597530,-0.193481,-0.583252,-0.00616455,0.788879
61936611832,-0.193481,-0.583252,-0.00616455,0.788879
61936634347,-0.193298,-0.583252,-0.00604248,0.78894
61936657575,-0.193298,-0.583191,-0.00604248,0.78894
61936671758,-0.193298,-0.583191,-0.00604248,0.78894
61936694338,-0.193298,-0.583191,-0.00604248,0.78894
61936717447,-0.193298,-0.583252,-0.00610352,0.78894
61936731834,-0.193298,-0.583252,-0.00610352,0.78894
61936754279,-0.193298,-0.583252,-0.00610352,0.78894
61936778014,-0.193237,-0.583252,-0.00610352,0.78894
61936791831,-0.193237,-0.583191,-0.00610352,0.789001
61936814313,-0.193237,-0.583191,-0.00610352,0.789001
61936837480,-0.193237,-0.583191,-0.00610352,0.789001
61936851994,-0.193237,-0.583191,-0.00610352,0.789001
61936874303,-0.193237,-0.58313,-0.00610352,0.789001
61936897472,-0.193237,-0.58313,-0.00610352,0.789062
61936911854,-0.193176,-0.58313,-0.00610352,0.789062
61936934342,-0.193176,-0.58313,-0.00610352,0.789062
61936957432,-0.193176,-0.58313,-0.00610352,0.789062
61936971782,-0.193176,-0.58313,-0.00616455,0.789062
61936994328,-0.193176,-0.58313,-0.00616455,0.789062
61937018248,-0.193176,-0.58313,-0.00616455,0.789062
61937031880,-0.193176,-0.58313,-0.00610352,0.789062
61937054483,-0.193176,-0.58313,-0.00610352,0.789062
61937076836,-0.193176,-0.58313,-0.00616455,0.789062
61937091869,-0.193176,-0.58313,-0.00616455,0.789062
61937114343,-0.193176,-0.58313,-0.00616455,0.789062
61937136789,-0.193115,-0.58313,-0.00616455,0.789062
61937151821,-0.193115,-0.58313,-0.00616455,0.789062
61937174281,-0.193115,-0.58313,-0.00616455,0.789062
61937196815,-0.193115,-0.58313,-0.00616455,0.789062
61937211817,-0.193115,-0.58313,-0.00616455,0.789062
61937234337,-0.193115,-0.58313,-0.00616455,0.789062
61937256769,-0.193115,-0.58313,-0.00616455,0.789062
61937279972,-0.193115,-0.58313,-0.00616455,0.789062
61937294326,-0.193054,-0.58313,-0.00622559,0.789062
61937316820,-0.193054,-0.58313,-0.00622559,0.789062
61937331836,-0.193054,-0.58313,-0.00622559,0.789124
61937354311,-0.193054,-0.583069,-0.00622559,0.789124
61937376819,-0.193054,-0.58313,-0.00622559,0.789124
61937392571,-0.192993,-0.58313,-0.00622559,0.789124
61937414287,-0.192993,-0.58313,-0.00622559,0.789124
61937436842,-0.192993,-0.58313,-0.00622559,0.789124
61937451820,-0.192993,-0.58313,-0.00622559,0.789124
61937474343,-0.192993,-0.58313,-0.00628662,0.789124
61937497634,-0.192993,-0.58313,-0.00628662,0.789124
61937511792,-0.192993,-0.58313,-0.00628662,0.789124
61937534339,-0.192993,-0.58313,-0.00628662,0.789124
61937556847,-0.192932,-0.583069,-0.00628662,0.789124
61937573263,-0.192932,-0.583069,-0.00628662,0.789124
61937595526,-0.192932,-0.583069,-0.00628662,0.789124
61937616901,-0.192932,-0.583069,-0.00628662,0.789124
61937631863,-0.192932,-0.583069,-0.00628662,0.789124
61937654346,-0.192871,-0.583069,-0.00634766,0.789124
61937676828,-0.192871,-0.58313,-0.00634766,0.789124
61937691842,-0.192871,-0.583069,-0.00634766,0.789185
61937714303,-0.192871,-0.583069,-0.00634766,0.789185
61937736832,-0.192871,-0.583069,-0.00634766,0.789185
61937751833,-0.192871,-0.583069,-0.00634766,0.789185
61937774481,-0.192871,-0.583069,-0.00634766,0.789185
61937797524,-0.192871,-0.583069,-0.00634766,0.789185
61937813305,-0.19281,-0.583069,-0.00634766,0.789185
61937834389,-0.19281,-0.58313,-0.00640869,0.789124
61937856867,-0.19281,-0.58313,-0.00640869,0.789124
61937874002,-0.19281,-0.58313,-0.00640869,0.789185
61937894418,-0.19281,-0.58313,-0.00640869,0.789124
61937916854,-0.19281,-0.58313,-0.00640869,0.789185
61937933270,-0.19281,-0.583069,-0.00640869,0.789185
61937954334,-0.19281,-0.583069,-0.00640869,0.789185
61937976876,-0.19281,-0.583069,-0.00640869,0.789185
61937993250,-0.19281,-0.583069,-0.00640869,0.789185
61938014351,-0.19281,-0.583069,-0.00640869,0.789185
61938036848,-0.19281,-0.583069,-0.00640869,0.789185
61938053225,-0.19281,-0.583069,-0.00640869,0.789185
61938074347,-0.192749,-0.583069,-0.00640869,0.789185
61938096848,-0.192749,-0.583069,-0.00640869,0.789246
61938113306,-0.192749,-0.583008,-0.00640869,0.789246
61938134326,-0.192749,-0.583008,-0.00640869,0.789246
61938156852,-0.192749,-0.583008,-0.00640869,0.789246
61938173277,-0.192749,-0.583008,-0.00640869,0.789246
61938194294,-0.192688,-0.583008,-0.00646973,0.789246
61938216828,-0.192688,-0.583008,-0.00646973,0.789246
61938233296,-0.192688,-0.583069,-0.00646973,0.789246
61938254320,-0.192688,-0.583069,-0.00646973,0.789246
61938276844,-0.192688,-0.583069,-0.00646973,0.789246
61938293286,-0.192688,-0.583069,-0.00646973,0.789246
61938314909,-0.192688,-0.583069,-0.00646973,0.789246
61938336821,-0.192688,-0.583069,-0.00646973,0.789246
61938353282,-0.192688,-0.583008,-0.00646973,0.789246
61938374373,-0.192688,-0.583008,-0.00646973,0.789246
61938396794,-0.192688,-0.583008,-0.00646973,0.789246
61938415326,-0.192688,-0.583008,-0.00646973,0.789246
61938434335,-0.192688,-0.583008,-0.00646973,0.789246
61938456824,-0.192688,-0.583008,-0.00646973,0.789246
61938473272,-0.192688,-0.583008,-0.00646973,0.789307
61938494361,-0.192688,-0.583008,-0.00646973,0.789307
61938517792,-0.192688,-0.582947,-0.00646973,0.789307
61938533286,-0.192688,-0.582947,-0.00646973,0.789307
61938554332,-0.192627,-0.583008,-0.00646973,0.789307
61938576855,-0.192627,-0.583008,-0.00646973,0.789307
61938593243,-0.192627,-0.582947,-0.00646973,0.789307
61938614343,-0.192444,-0.582825,-0.00640869,0.78949
61938636823,-0.192444,-0.582825,-0.00640869,0.78949
61938653292,-0.192444,-0.582764,-0.00640869,0.78949
61938674343,-0.192444,-0.582764,-0.00634766,0.78949
61938696824,-0.192444,-0.582764,-0.00634766,0.78949
61938713250,-0.192444,-0.582764,-0.00634766,0.78949
61938735758,-0.192444,-0.582764,-0.00634766,0.78949
61938756841,-0.192444,-0.582764,-0.00640869,0.78949
61938773281,-0.192444,-0.582764,-0.00640869,0.78949
61938795817,-0.192383,-0.582764,-0.00640869,0.78949
61938816864,-0.192383,-0.582764,-0.00640869,0.78949
61938833256,-0.192444,-0.582764,-0.00640869,0.78949
61938855759,-0.192444,-0.582764,-0.00640869,0.78949
61938876885,-0.192444,-0.582764,-0.00640869,0.78949
61938893271,-0.192444,-0.582764,-0.00640869,0.78949
61938915795,-0.192444,-0.582764,-0.00640869,0.789551
61938936862,-0.192383,-0.582703,-0.00640869,0.789551
61938953308,-0.192444,-0.582703,-0.00640869,0.789551
61938975823,-0.192444,-0.582703,-0.00634766,0.789551
61938996860,-0.192444,-0.582703,-0.00634766,0.789551
61939013295,-0.192444,-0.582642,-0.00634766,0.789551
61939037315,-0.192444,-0.582642,-0.00634766,0.789551
61939056902,-0.192444,-0.582642,-0.00634766,0.789551
61939073270,-0.192505,-0.582642,-0.0065918,0.789551
61939095773,-0.192505,-0.582642,-0.0065918,0.789551
61939116831,-0.192505,-0.582642,-0.0065918,0.789551
61939133277,-0.192505,-0.582642,-0.0065918,0.789612
61939155803,-0.192566,-0.582703,-0.0067749,0.78949
61939176861,-0.192627,-0.582703,-0.00701904,0.78949
61939193284,-0.192627,-0.582703,-0.00701904,0.78949
61939215818,-0.192627,-0.582703,-0.00701904,0.78949
61939238061,-0.192627,-0.582703,-0.00701904,0.78949
61939253266,-0.192566,-0.582703,-0.00701904,0.78949
61939275820,-0.192566,-0.582703,-0.00701904,0.78949
61939296897,-0.192566,-0.582703,-0.00701904,0.78949
61939320801,-0.192566,-0.582458,-0.00708008,0.789673
61939335766,-0.192627,-0.582458,-0.00708008,0.789673
61939356820,-0.192566,-0.582458,-0.00708008,0.789673
61939373274,-0.192566,-0.582458,-0.00708008,0.789673
61939395752,-0.192566,-0.582458,-0.00708008,0.789673
61939417520,-0.192627,-0.582458,-0.00708008,0.789673
61939432510,-0.192627,-0.582458,-0.00708008,0.789673
61939455039,-0.192566,-0.582458,-0.00708008,0.789673
61939477527,-0.192627,-0.582458,-0.00708008,0.789673
61939492544,-0.192566,-0.582458,-0.00708008,0.789673
61939515022,-0.192627,-0.58252,-0.00708008,0.789673
61939537562,-0.192627,-0.582458,-0.00708008,0.789673
61939553150,-0.192627,-0.582458,-0.00708008,0.789673
61939575043,-0.192566,-0.582458,-0.00708008,0.789673
61939597504,-0.192566,-0.582458,-0.00708008,0.789673
61939612579,-0.192566,-0.582397,-0.00708008,0.789734
61939635053,-0.192566,-0.582397,-0.00708008,0.789734
61939657545,-0.192566,-0.582397,-0.00708008,0.789734
61939672539,-0.192566,-0.582397,-0.00708008,0.789734
61939695039,-0.192566,-0.582397,-0.00708008,0.789734
61939717555,-0.192505,-0.582397,-0.00714111,0.789734
61939732547,-0.192505,-0.582397,-0.00714111,0.789734
61939755413,-0.192505,-0.582397,-0.00714111,0.789734
61939777532,-0.192505,-0.582397,-0.00714111,0.789734
61939792510,-0.192505,-0.582397,-0.00714111,0.789734
61939815094,-0.192505,-0.582336,-0.00714111,0.789795
61939837535,-0.192505,-0.582397,-0.00714111,0.789795
61939855576,-0.192505,-0.582397,-0.00714111,0.789795
61939875013,-0.192505,-0.582397,-0.00714111,0.789795
61939897542,-0.192444,-0.582397,-0.00714111,0.789795
61939913925,-0.192505,-0.582397,-0.00714111,0.789734
61939934992,-0.192505,-0.582397,-0.00714111,0.789734
61939958727,-0.192505,-0.582397,-0.00714111,0.789734
61939973966,-0.192444,-0.582397,-0.00714111,0.789734
61939995029,-0.192444,-0.582397,-0.00720215,0.789734
61940017552,-0.192444,-0.582397,-0.00720215,0.789734
61940034565,-0.192444,-0.582397,-0.00720215,0.789795
61940055005,-0.1922,-0.582397,-0.00708008,0.789795
61940077511,-0.1922,-0.582397,-0.00708008,0.789795
61940093986,-0.192383,-0.582458,-0.00720215,0.789734
61940115071,-0.192383,-0.582458,-0.00720215,0.789734
61940137543,-0.192139,-0.58252,-0.00714111,0.789734
61940154037,-0.192139,-0.58252,-0.00714111,0.789734
61940175064,-0.192139,-0.58252,-0.00714111,0.789734
61940197558,-0.192139,-0.58252,-0.00714111,0.789734
61940213951,-0.192139,-0.58252,-0.00714111,0.789734
61940235079,-0.192139,-0.58252,-0.00714111,0.789734
61940257543,-0.192078,-0.582581,-0.00720215,0.789734
61940273971,-0.192078,-0.58252,-0.00720215,0.789734
61940295072,-0.192078,-0.582581,-0.00720215,0.789734
61940317515,-0.191833,-0.58252,-0.00714111,0.789795
61940333962,-0.191772,-0.582581,-0.00714111,0.789795
61940355013,-0.191772,-0.582581,-0.00720215,0.789795
61940377554,-0.191772,-0.58252,-0.00720215,0.789795
61940393961,-0.191589,-0.58252,-0.00708008,0.789917
61940415034,-0.191589,-0.58252,-0.00708008,0.789917
61940437497,-0.191589,-0.58252,-0.00708008,0.789917
61940453964,-0.191528,-0.582458,-0.00708008,0.789917
61940475004,-0.191528,-0.582458,-0.00714111,0.789917
61940497545,-0.191528,-0.582458,-0.00714111,0.789978
61940513972,-0.191528,-0.582458,-0.00708008,0.789978
61940535103,-0.191528,-0.582397,-0.00708008,0.789978
61940557522,-0.191528,-0.582397,-0.00708008,0.789978
61940574817,-0.191467,-0.582397,-0.00714111,0.789978
61940595045,-0.191467,-0.582397,-0.00714111,0.789978
61940617542,-0.191467,-0.582397,-0.00714111,0.789978
61940633355,-0.191467,-0.582397,-0.00714111,0.789978
61940655084,-0.191467,-0.582397,-0.00714111,0.789978
61940678295,-0.191467,-0.582397,-0.00714111,0.789978
61940693373,-0.191467,-0.582397,-0.00714111,0.789978
61940715014,-0.191406,-0.582397,-0.00714111,0.789978
61940737604,-0.191406,-0.582397,-0.00714111,0.789978
61940753317,-0.191467,-0.582397,-0.00732422,0.789978
61940778482,-0.191467,-0.582397,-0.00732422,0.789978
61940797561,-0.191467,-0.582397,-0.00732422,0.789978
61940813336,-0.191467,-0.582397,-0.00732422,0.789978
61940836493,-0.191467,-0.582458,-0.00732422,0.789978
61940857537,-0.191467,-0.582458,-0.00732422,0.789978
61940873329,-0.191467,-0.582458,-0.00738525,0.789978
61940902551,-0.191406,-0.582458,-0.00738525,0.789978
61940917685,-0.191406,-0.582458,-0.00738525,0.789978
61940933340,-0.191406,-0.582458,-0.00738525,0.789978
61940956546,-0.191406,-0.582458,-0.00738525,0.789978
61940978476,-0.191345,-0.582458,-0.00744629,0.789978
61940993356,-0.191345,-0.582458,-0.00744629,0.789978
61941016573,-0.191345,-0.582458,-0.00744629,0.789978
61941037590,-0.191345,-0.582458,-0.00744629,0.789978
61941053381,-0.191345,-0.582458,-0.00744629,0.789978
61941078319,-0.191284,-0.582458,-0.00744629,0.789978
61941097598,-0.191284,-0.582458,-0.00744629,0.789978
61941113362,-0.191284,-0.582458,-0.00744629,0.789978
61941136479,-0.191284,-0.582458,-0.00750732,0.789978
61941157540,-0.191406,-0.582458,-0.00756836,0.789978
61941173304,-0.191406,-0.582458,-0.00756836,0.789978
61941196513,-0.191406,-0.582458,-0.00762939,0.789978
61941217603,-0.191406,-0.582458,-0.00762939,0.789978
61941233307,-0.191406,-0.582458,-0.00762939,0.789978
61941264037,-0.191345,-0.582458,-0.00762939,0.789978
61941277563,-0.191345,-0.582458,-0.00762939,0.789978
61941294475,-0.191528,-0.582336,-0.00787354,0.790039
61941316504,-0.191528,-0.582336,-0.00787354,0.790039
61941337518,-0.191528,-0.582275,-0.00787354,0.790039
61941353360,-0.191528,-0.582275,-0.00787354,0.790039
61941376473,-0.191528,-0.582275,-0.00787354,0.790039
61941397542,-0.191528,-0.582275,-0.00787354,0.7901
61941413365,-0.191528,-0.582275,-0.00787354,0.7901
61941436506,-0.191528,-0.582275,-0.00787354,0.790039
61941457596,-0.191528,-0.582275,-0.00787354,0.790039
61941473310,-0.191467,-0.582275,-0.00787354,0.790039
61941497999,-0.191467,-0.582275,-0.00787354,0.790039
61941517640,-0.191467,-0.582275,-0.00787354,0.790039
61941533371,-0.191467,-0.582275,-0.00787354,0.790039
61941556479,-0.191467,-0.582275,-0.00787354,0.7901
61941577573,-0.191467,-0.582275,-0.00787354,0.7901
61941595274,-0.191467,-0.582275,-0.00787354,0.7901
61941615889,-0.191467,-0.582275,-0.00793457,0.7901
61941637580,-0.191467,-0.582275,-0.00787354,0.7901
61941653354,-0.191467,-0.582214,-0.00793457,0.7901
61941675854,-0.191467,-0.582214,-0.00793457,0.7901
61941698815,-0.191467,-0.582214,-0.00793457,0.7901
61941713307,-0.191406,-0.582214,-0.00793457,0.7901
61941735858,-0.191406,-0.582214,-0.00793457,0.7901
61941759003,-0.191406,-0.582214,-0.00793457,0.7901
61941773306,-0.191406,-0.582214,-0.00793457,0.7901
61941796868,-0.191406,-0.582214,-0.00793457,0.790161
61941819169,-0.191406,-0.582214,-0.00793457,0.790161
61941833376,-0.191406,-0.582214,-0.00793457,0.790161
61941855854,-0.191406,-0.582214,-0.00793457,0.790161
61941879014,-0.191345,-0.582153,-0.00793457,0.790161
61941893373,-0.191345,-0.582153,-0.00793457,0.790161
61941915875,-0.191345,-0.582153,-0.00799561,0.790161
61941939012,-0.191345,-0.582214,-0.00799561,0.790161
61941953330,-0.191345,-0.582153,-0.00799561,0.790161
61941975874,-0.191345,-0.582214,-0.00799561,0.790161
61941998999,-0.191345,-0.582214,-0.00799561,0.790161
61942013374,-0.191345,-0.582214,-0.00799561,0.790161
