timestamp,x,y,z,w
138511969164,0.162415,-0.635742,0.132263,0.74292
138511984127,0.164124,-0.634399,0.132507,0.743652
138512005483,0.16571,-0.633118,0.132568,0.744385
138512029179,0.16864,-0.63092,0.133301,0.745483
138512044151,0.170898,-0.629517,0.133362,0.746094
138512065602,0.172241,-0.628662,0.132812,0.746643
138512103004,0.173401,-0.627991,0.132568,0.747009
138512113602,0.174316,-0.627319,0.131958,0.747437
138512129377,0.174744,-0.626648,0.131104,0.748047
138512147950,0.174927,-0.626282,0.130859,0.748352
138512164347,0.174927,-0.626099,0.130249,0.748596
138512186903,0.174561,-0.626099,0.1297,0.748779
138512209128,0.173889,-0.626404,0.129822,0.748718
138512238433,0.173035,-0.626953,0.129639,0.748474
138512248956,0.17218,-0.627502,0.129211,0.74823
138512268391,0.171143,-0.628296,0.128967,0.747864
138512282782,0.170166,-0.628784,0.128601,0.747742
138512306002,0.169983,-0.628723,0.128601,0.747803
138512328468,0.170044,-0.628418,0.128601,0.748047
138512342820,0.1698,-0.628235,0.128479,0.748291
138512365996,0.1698,-0.628174,0.128479,0.748352
138512388471,0.1698,-0.628235,0.128174,0.748352
138512402817,0.169312,-0.628479,0.128052,0.748291
138512425969,0.169006,-0.628845,0.128113,0.748047
138512448577,0.169006,-0.629028,0.128052,0.747864
138512462843,0.168823,-0.629395,0.127869,0.747681
138512486041,0.168823,-0.629456,0.127991,0.747559
138512508488,0.16864,-0.629578,0.128479,0.747437
138512522819,0.168335,-0.629761,0.128784,0.747314
138512546014,0.167664,-0.629944,0.12915,0.747253
138512568471,0.166992,-0.629822,0.130188,0.747253
138512582805,0.167664,-0.629211,0.130859,0.747559
138512605311,0.168701,-0.62854,0.13147,0.747742
138512628492,0.169373,-0.62793,0.131775,0.748108
138512642784,0.170532,-0.626953,0.132141,0.748535
138512665282,0.17157,-0.626404,0.132629,0.748718
138512688476,0.172424,-0.625916,0.132751,0.748901
138512702807,0.173279,-0.625244,0.132874,0.749207
138512725322,0.174316,-0.624512,0.133423,0.749573
138512748506,0.175171,-0.623901,0.133362,0.749817
138512762793,0.176025,-0.623413,0.133362,0.75
138512785249,0.17688,-0.623108,0.133301,0.750061
138512809899,0.177673,-0.622864,0.133179,0.750183
138512822787,0.178467,-0.622253,0.133545,0.750427
138512853469,0.179504,-0.621582,0.133606,0.750671
138512868488,0.180542,-0.621216,0.133911,0.750671
138512884203,0.181946,-0.620728,0.13324,0.750854
138512905340,0.183167,-0.620422,0.133057,0.750854
138512928471,0.184143,-0.620361,0.132507,0.750793
138512944272,0.184753,-0.620361,0.131897,0.750732
138512965336,0.185364,-0.6203,0.131897,0.75061
138512988466,0.185364,-0.6203,0.131897,0.750671
138513004256,0.185425,-0.620361,0.131836,0.750549
138513025349,0.185181,-0.620605,0.131775,0.750488
138513048494,0.184814,-0.62085,0.131836,0.750305
138513064269,0.184204,-0.621216,0.131592,0.750183
138513085337,0.183655,-0.62146,0.131592,0.750183
138513109909,0.183289,-0.62146,0.131714,0.750244
138513124253,0.183105,-0.621277,0.131531,0.750427
138513153491,0.182922,-0.621155,0.131592,0.75061
138513169714,0.182861,-0.620911,0.131409,0.750793
138513184274,0.182861,-0.620667,0.131226,0.751038
138513205338,0.182739,-0.620605,0.131042,0.751221
138513227891,0.182129,-0.62085,0.130737,0.75116
138513245709,0.181396,-0.621399,0.130371,0.750977
138513265280,0.180359,-0.622314,0.129517,0.75061
138513287820,0.17865,-0.623596,0.128967,0.75
138513304257,0.176697,-0.624878,0.129089,0.74939
138513325390,0.174866,-0.626221,0.129028,0.748718
138513347868,0.172852,-0.627747,0.128357,0.748047
138513364318,0.170227,-0.629578,0.127136,0.747314
138513388275,0.167114,-0.631226,0.125732,0.746826
138513407867,0.163818,-0.632263,0.124451,0.746948
138513431817,0.160156,-0.632874,0.122986,0.747437
138513453558,0.15686,-0.632935,0.121399,0.748352
138513476073,0.154541,-0.632812,0.119385,0.749268
138513484268,0.152039,-0.63269,0.116577,0.750366
138513505378,0.149902,-0.632507,0.114685,0.75116
138513527884,0.148926,-0.632202,0.113098,0.751892
138513544303,0.148193,-0.631714,0.111511,0.752686
138513573557,0.147583,-0.631165,0.110474,0.753357
138513587845,0.147766,-0.630432,0.109863,0.754028
138513604320,0.148132,-0.629639,0.10907,0.754761
138513625409,0.148499,-0.628662,0.108521,0.755615
138513647815,0.149109,-0.627686,0.108154,0.756348
138513665799,0.150146,-0.626587,0.107849,0.757141
138513685344,0.151306,-0.625427,0.107788,0.757812
138513709310,0.152283,-0.624329,0.107788,0.758545
138513731805,0.15332,-0.623352,0.107849,0.759155
138513753605,0.154114,-0.622437,0.107666,0.759705
138513767878,0.154663,-0.621582,0.107666,0.760315
138513784289,0.155273,-0.620789,0.10791,0.760864
138513805333,0.159729,-0.619751,0.109619,0.760498
138513827958,0.161743,-0.619812,0.110474,0.759888
138513844312,0.163208,-0.619324,0.111633,0.759827
138513866748,0.163818,-0.619141,0.111145,0.759888
138513887837,0.163635,-0.61908,0.111084,0.76001
138513904279,0.163208,-0.619202,0.110962,0.76001
138513926826,0.162476,-0.619507,0.110901,0.759949
138513947845,0.161987,-0.619568,0.11084,0.759949
138513964287,0.161682,-0.619629,0.110718,0.76001
138513988284,0.161377,-0.619812,0.110474,0.76001
138514007932,0.161255,-0.619751,0.110107,0.760071
138514024302,0.160828,-0.620056,0.109619,0.76001
138514046848,0.159973,-0.620422,0.109436,0.759888
138514067867,0.159241,-0.62085,0.109131,0.759766
138514084315,0.15863,-0.621338,0.109192,0.759521
138514106761,0.158447,-0.621826,0.109314,0.759094
138514127810,0.158203,-0.622253,0.109497,0.758789
138514144288,0.158081,-0.62262,0.109863,0.758423
138514172851,0.158142,-0.622986,0.110291,0.758118
138514187937,0.158203,-0.623413,0.110657,0.75769
138514204271,0.158142,-0.623779,0.111023,0.757324
138514226775,0.158081,-0.624207,0.111389,0.756958
138514247855,0.157959,-0.624634,0.111694,0.756531
138514265740,0.157837,-0.624939,0.112,0.756287
138514286759,0.157715,-0.625305,0.112061,0.756042
138514310765,0.157227,-0.625671,0.111877,0.755798
138514331764,0.156555,-0.626221,0.111389,0.755615
138514346781,0.155762,-0.626648,0.110657,0.755493
138514367820,0.154785,-0.627136,0.110046,0.755371
138514384283,0.153748,-0.627502,0.109558,0.755371
138514408213,0.153076,-0.627869,0.10907,0.755249
138514427822,0.152344,-0.628296,0.108459,0.755127
138514451785,0.151428,-0.628906,0.107788,0.754883
138514466830,0.150574,-0.629456,0.107239,0.7547
138514495950,0.14978,-0.630005,0.106628,0.754517
138514504267,0.148926,-0.630554,0.106201,0.754272
138514526760,0.147949,-0.63092,0.105835,0.754211
138514547790,0.147156,-0.631287,0.105713,0.754089
138514565720,0.146912,-0.631531,0.105652,0.753967
138514588256,0.146851,-0.631775,0.105591,0.753784
138514607871,0.146545,-0.63208,0.105713,0.75354
138514631793,0.146423,-0.632446,0.105896,0.753235
138514646811,0.146118,-0.632812,0.105957,0.75293
138514667811,0.145691,-0.633301,0.106018,0.752625
138514685808,0.145264,-0.63385,0.10614,0.752197
138514706799,0.144836,-0.634521,0.106262,0.751709
138514730708,0.144409,-0.635254,0.106445,0.75116
138514750316,0.143982,-0.636047,0.106628,0.750549
138514774369,0.143555,-0.63678,0.106873,0.749939
138514789269,0.143005,-0.637573,0.107239,0.749329
138514804370,0.142578,-0.638428,0.107666,0.748657
138514826774,0.142212,-0.63916,0.108154,0.747986
138514849342,0.141846,-0.640076,0.108643,0.747253
138514865759,0.141235,-0.640869,0.109131,0.746582
138514886131,0.140686,-0.641724,0.109619,0.745911
138514916054,0.140137,-0.642578,0.110046,0.745178
138514925018,0.139526,-0.643555,0.110474,0.744446
138514945984,0.138794,-0.644409,0.110962,0.743713
138514968519,0.138184,-0.645264,0.11145,0.742981
138514984900,0.137573,-0.646057,0.112122,0.742371
138515007468,0.137024,-0.646729,0.112793,0.74176
138515028476,0.136414,-0.647339,0.113525,0.741272
138515052467,0.135864,-0.647766,0.114075,0.740906
138515065967,0.135315,-0.64801,0.114624,0.740662
138515095980,0.134827,-0.648193,0.11499,0.74054
138515119186,0.134155,-0.648315,0.115295,0.74054
138515125984,0.133301,-0.648376,0.115417,0.740601
138515148559,0.132507,-0.648621,0.115417,0.74054
138515164917,0.131775,-0.649048,0.115112,0.740356
138515187462,0.131104,-0.64978,0.114746,0.739868
138515208550,0.130493,-0.650696,0.114441,0.739258
138515224957,0.129639,-0.651611,0.114258,0.738586
138515245992,0.128845,-0.652588,0.114197,0.737854
138515268528,0.128235,-0.653442,0.114075,0.737244
138515284922,0.127747,-0.654236,0.114197,0.736572
138515307537,0.127625,-0.654846,0.114441,0.736084
138515328585,0.127502,-0.655273,0.114868,0.735596
138515344951,0.127258,-0.655579,0.115784,0.735291
138515373574,0.128113,-0.655396,0.117188,0.735046
138515388625,0.128845,-0.655334,0.118408,0.734741
138515404996,0.128967,-0.655151,0.119629,0.73468
138515426045,0.129883,-0.654846,0.121216,0.734619
138515448578,0.13092,-0.654663,0.122131,0.734375
138515465013,0.131287,-0.654602,0.122986,0.734253
138515486073,0.131958,-0.654541,0.12384,0.734009
138515509961,0.132629,-0.65448,0.124573,0.733826
138515524294,0.133118,-0.654419,0.125244,0.733704
138515546449,0.13385,-0.654114,0.125793,0.733704
138515568524,0.134521,-0.653992,0.126343,0.733643
138515592485,0.134949,-0.653809,0.127014,0.733582
138515607433,0.13562,-0.653687,0.127502,0.733521
138515628478,0.136108,-0.653503,0.127991,0.733459
138515652487,0.136597,-0.653381,0.128296,0.733459
138515673508,0.136902,-0.653198,0.128601,0.733459
138515696049,0.137085,-0.653015,0.128845,0.733582
138515704362,0.137451,-0.652893,0.128906,0.733643
138515725998,0.137573,-0.652588,0.128845,0.733887
138515748556,0.137512,-0.652344,0.128784,0.734131
138515764294,0.13739,-0.652161,0.128723,0.734314
138515786071,0.137207,-0.652039,0.12854,0.734497
138515808553,0.137085,-0.651978,0.128296,0.734619
138515824283,0.136963,-0.651855,0.128113,0.734741
138515847553,0.136841,-0.651794,0.12793,0.734863
138515868498,0.136658,-0.651672,0.127869,0.734985
138515884342,0.136658,-0.651672,0.127869,0.735046
138515907518,0.136658,-0.651672,0.127869,0.735046
138515930017,0.136658,-0.651672,0.127869,0.735046
138515944316,0.136658,-0.651611,0.127869,0.735046
138515973650,0.136658,-0.651611,0.127869,0.735046
138515988526,0.13678,-0.65155,0.128052,0.735107
138516004294,0.137146,-0.651367,0.128296,0.735168
138516034982,0.137634,-0.651001,0.128662,0.735291
138516048550,0.138062,-0.650574,0.12915,0.735535
138516064300,0.138611,-0.649963,0.129578,0.73584
138516087452,0.139282,-0.649353,0.130066,0.736206
138516108503,0.140076,-0.648621,0.130493,0.736633
138516124275,0.140808,-0.647888,0.131042,0.737061
138516147526,0.141541,-0.647095,0.131592,0.737488
138516168525,0.142212,-0.646423,0.132019,0.737915
138516184338,0.142883,-0.645874,0.132202,0.73822
138516207468,0.143433,-0.645447,0.132385,0.738464
138516228552,0.14386,-0.645203,0.132568,0.738525
138516244312,0.144104,-0.645081,0.132629,0.738525
138516267467,0.144165,-0.645081,0.132629,0.738586
138516288578,0.144226,-0.645142,0.132385,0.738525
138516304324,0.144165,-0.645264,0.132019,0.738525
138516327497,0.144043,-0.645447,0.131592,0.738403
138516348577,0.143738,-0.64563,0.131226,0.738403
138516364386,0.143555,-0.645874,0.130859,0.738342
138516387519,0.14325,-0.646057,0.130432,0.738281
138516408598,0.143005,-0.646301,0.129944,0.73822
138516424428,0.142761,-0.646545,0.129517,0.738098
138516447512,0.142456,-0.646851,0.129211,0.737976
138516468555,0.142151,-0.647095,0.128967,0.737854
138516484385,0.141907,-0.647278,0.128723,0.737732
138516507520,0.141724,-0.647522,0.128479,0.737671
138516528581,0.141541,-0.647705,0.128418,0.737549
138516544367,0.141541,-0.647705,0.128418,0.737549
138516573568,0.141541,-0.647705,0.128418,0.737549
138516596019,0.141418,-0.647705,0.128601,0.737549
138516604332,0.141235,-0.647522,0.128967,0.73761
138516627470,0.141357,-0.647339,0.129456,0.737732
138516648534,0.141479,-0.647156,0.1297,0.737793
138516664307,0.141479,-0.647095,0.1297,0.737793
138516686814,0.141479,-0.647095,0.1297,0.737854
138516708524,0.141479,-0.647095,0.1297,0.737854
138516724305,0.141479,-0.647095,0.1297,0.737854
138516746798,0.141357,-0.647217,0.129456,0.737793
138516768542,0.141113,-0.647461,0.12915,0.737732
138516784312,0.140869,-0.647705,0.128723,0.73761
138516806924,0.140564,-0.64801,0.128296,0.737427
138516830038,0.140259,-0.648315,0.12793,0.737305
138516844387,0.140015,-0.648682,0.127502,0.737122
138516866893,0.139709,-0.649048,0.127075,0.736938
138516890039,0.139343,-0.649414,0.12677,0.736755
138516904781,0.138916,-0.649841,0.126465,0.736511
138516926819,0.13855,-0.650208,0.126221,0.736206
138516950050,0.138184,-0.650574,0.126038,0.736023
138516964386,0.137939,-0.650818,0.126038,0.73584
138516986899,0.137939,-0.650818,0.126038,0.73584
138517009951,0.138184,-0.650757,0.126221,0.73584
138517024394,0.138428,-0.650574,0.126526,0.735962
138517046877,0.138733,-0.650269,0.126953,0.736023
138517070052,0.139099,-0.649841,0.127563,0.736267
138517084381,0.139648,-0.649353,0.128235,0.73645
138517106855,0.14032,-0.648804,0.128723,0.736755
138517129996,0.140808,-0.648376,0.129333,0.736938
138517144396,0.141785,-0.64801,0.129944,0.736938
138517166807,0.142334,-0.647644,0.130371,0.737061
138517189995,0.142639,-0.6474,0.130798,0.737183
138517204321,0.143188,-0.647217,0.130981,0.737183
138517226967,0.14325,-0.647217,0.130981,0.737183
138517250021,0.14325,-0.647217,0.130981,0.737183
138517264346,0.14325,-0.647217,0.130981,0.737183
138517286801,0.14325,-0.647156,0.130981,0.737183
138517309977,0.143311,-0.647156,0.13092,0.737183
138517330853,0.143311,-0.647156,0.13092,0.737183
138517346839,0.143311,-0.647156,0.13092,0.737183
138517370008,0.143311,-0.647156,0.13092,0.737183
138517391122,0.143372,-0.646973,0.130798,0.737366
138517406836,0.143433,-0.646729,0.130737,0.73761
138517429987,0.143494,-0.646729,0.130737,0.73761
138517451025,0.143494,-0.646545,0.130676,0.737793
138517466874,0.143616,-0.646362,0.130676,0.737915
138517489996,0.143616,-0.646301,0.130676,0.737915
138517511093,0.143677,-0.646301,0.130615,0.737915
138517526984,0.143677,-0.646301,0.130615,0.737915
138517550087,0.143677,-0.646301,0.130615,0.737976
138517571101,0.143677,-0.646301,0.130615,0.737976
138517586846,0.143677,-0.64624,0.130615,0.737976
138517609391,0.143677,-0.64624,0.130615,0.737976
138517631135,0.143677,-0.64624,0.130615,0.738037
138517646896,0.143677,-0.646179,0.130615,0.738037
138517677567,0.143677,-0.646179,0.130554,0.738037
138517691164,0.143738,-0.646179,0.130554,0.738037
138517706991,0.143616,-0.646057,0.130432,0.73822
138517729386,0.143616,-0.646057,0.130432,0.73822
138517752566,0.143616,-0.646057,0.130371,0.73822
138517766893,0.143494,-0.645996,0.130249,0.738342
138517789335,0.143494,-0.645935,0.130249,0.738342
138517812587,0.143494,-0.645935,0.130249,0.738342
138517826988,0.143555,-0.645874,0.130249,0.738403
138517849368,0.143555,-0.645874,0.130249,0.738403
138517872564,0.143555,-0.645874,0.130249,0.738403
138517886836,0.143555,-0.645813,0.130188,0.738464
138517909368,0.143616,-0.645813,0.130188,0.738464
138517932501,0.143616,-0.645569,0.130127,0.738647
138517946990,0.143616,-0.645325,0.130066,0.738892
138517969433,0.143555,-0.645081,0.130066,0.739136
138517992533,0.143433,-0.644836,0.129944,0.73938
138518006883,0.14325,-0.644592,0.129944,0.739624
138518029316,0.143127,-0.644348,0.129883,0.739929
138518052485,0.143005,-0.644043,0.129761,0.740173
138518066955,0.142822,-0.643799,0.129761,0.740479
138518089437,0.142761,-0.643433,0.129761,0.740784
138518112557,0.1427,-0.643127,0.1297,0.741089
138518126932,0.142517,-0.642761,0.129639,0.741455
138518149332,0.142395,-0.642456,0.129578,0.741699
138518172514,0.142029,-0.642273,0.129822,0.741882
138518186847,0.142029,-0.642273,0.129822,0.741943
138518223579,0.142029,-0.642212,0.129822,0.741943
138518232530,0.14209,-0.642029,0.130005,0.742065
138518253559,0.142151,-0.642029,0.130005,0.742065
138518269420,0.142151,-0.641968,0.129944,0.742126
138518292488,0.142151,-0.641968,0.129944,0.742126
138518313567,0.142151,-0.641968,0.130005,0.742126
138518337533,0.142151,-0.641907,0.129944,0.742188
138518352527,0.142151,-0.641907,0.129944,0.742188
138518381106,0.142151,-0.641846,0.129944,0.742188
138518389340,0.142151,-0.641846,0.129944,0.742249
138518412559,0.142212,-0.641846,0.129944,0.742249
138518433572,0.142212,-0.641785,0.129944,0.742249
138518449411,0.142212,-0.641785,0.129883,0.742249
138518472497,0.142029,-0.641785,0.129822,0.74231
138518493578,0.142029,-0.641785,0.129822,0.742371
138518509316,0.141907,-0.641785,0.129639,0.742371
138518540091,0.141785,-0.641785,0.129456,0.742432
138518553730,0.141785,-0.641785,0.129456,0.742493
138518568551,0.141663,-0.641724,0.129272,0.742554
138518583045,0.141663,-0.641724,0.129272,0.742554
138518605505,0.141663,-0.641724,0.129272,0.742554
138518628667,0.141663,-0.641663,0.129272,0.742615
138518643032,0.141663,-0.641663,0.129272,0.742615
138518665555,0.141724,-0.641663,0.129272,0.742615
138518688681,0.141724,-0.641602,0.129211,0.742615
138518703041,0.141724,-0.641602,0.129272,0.742676
138518725522,0.141724,-0.641602,0.129211,0.742676
138518748674,0.141724,-0.641602,0.129211,0.742676
138518762959,0.141785,-0.641541,0.129211,0.742676
138518785437,0.141724,-0.641663,0.129211,0.742615
138518808647,0.141724,-0.641602,0.129211,0.742676
138518822958,0.141724,-0.641602,0.12915,0.742676
138518845447,0.141724,-0.641602,0.12915,0.742676
138518868634,0.141724,-0.641602,0.12915,0.742676
138518891146,0.141724,-0.641541,0.12915,0.742676
138518905405,0.141785,-0.641541,0.12915,0.742676
138518928620,0.141785,-0.641541,0.12915,0.742737
138518942988,0.141785,-0.641541,0.129089,0.742737
138518965402,0.141785,-0.641541,0.129089,0.742737
138518988631,0.141785,-0.641541,0.129089,0.742737
138519002995,0.141846,-0.641541,0.129089,0.742737
138519025466,0.141846,-0.641541,0.129089,0.742737
138519048610,0.141846,-0.641479,0.129028,0.742737
138519062949,0.141846,-0.641479,0.129028,0.742737
138519085425,0.141907,-0.641479,0.129028,0.742737
138519108574,0.141907,-0.641479,0.129028,0.742798
138519122935,0.141907,-0.641479,0.129028,0.742798
138519145495,0.141907,-0.641418,0.128967,0.742798
138519168613,0.141907,-0.641418,0.128967,0.742798
138519183004,0.141968,-0.641602,0.128906,0.742676
138519214254,0.141968,-0.641602,0.128906,0.742676
138519236765,0.141968,-0.641602,0.128845,0.742676
138519242948,0.142029,-0.641602,0.128845,0.742676
138519265430,0.142029,-0.641602,0.128845,0.742676
138519288511,0.142029,-0.641602,0.128845,0.742676
138519303059,0.142029,-0.641602,0.128845,0.742676
138519325409,0.14209,-0.641602,0.128784,0.742676
138519348615,0.14209,-0.641724,0.128784,0.742554
138519362922,0.14209,-0.641724,0.128784,0.742554
138519385415,0.14209,-0.641724,0.128723,0.742554
138519416794,0.142151,-0.641724,0.128723,0.742554
138519422988,0.142151,-0.641724,0.128723,0.742554
138519446940,0.142151,-0.641724,0.128723,0.742554
138519468652,0.142151,-0.641724,0.128723,0.742554
138519491083,0.142151,-0.641724,0.128723,0.742554
138519505492,0.142212,-0.641724,0.128662,0.742554
138519529289,0.142212,-0.641724,0.128662,0.742554
138519542934,0.142212,-0.641724,0.128662,0.742554
138519565467,0.142212,-0.641724,0.128662,0.742554
138519588574,0.142273,-0.641663,0.129028,0.742554
138519604386,0.150085,-0.638428,0.131409,0.743347
138519625399,0.157043,-0.636536,0.135864,0.742737
138519647936,0.163208,-0.634399,0.140869,0.74231
138519665836,0.164612,-0.633484,0.14209,0.742554
138519685469,0.168213,-0.630737,0.144226,0.743652
138519707943,0.171997,-0.628845,0.145996,0.74408
138519722954,0.174561,-0.627136,0.145813,0.744934
138519753589,0.177368,-0.626038,0.145996,0.745178
138519767977,0.179138,-0.625122,0.146118,0.745483
138519782982,0.180847,-0.624329,0.145752,0.74585
138519805510,0.182434,-0.623596,0.145508,0.746094
138519828063,0.18396,-0.622864,0.144836,0.74646
138519842995,0.184937,-0.621826,0.145203,0.747009
138519865543,0.186584,-0.621033,0.145996,0.747131
138519888000,0.18811,-0.620728,0.146118,0.746948
138519902976,0.188599,-0.621033,0.146729,0.74646
138519925457,0.189392,-0.621704,0.14679,0.745667
138519947978,0.18927,-0.623047,0.147156,0.744507
138519962941,0.188782,-0.625061,0.14801,0.742798
138519985474,0.187622,-0.628296,0.149353,0.740112
138520007982,0.185303,-0.632935,0.150391,0.73645
138520022936,0.182007,-0.639343,0.152283,0.731384
138520045434,0.179199,-0.647827,0.155762,0.723816
138520067957,0.177246,-0.658752,0.159851,0.71344
138520082931,0.17511,-0.674011,0.164001,0.698669
138520105582,0.173645,-0.688477,0.171448,0.682983
138520128109,0.17981,-0.697571,0.172302,0.671875
138520143050,0.17334,-0.710022,0.169556,0.661133
138520165517,0.172302,-0.720459,0.168152,0.650391
138520187989,0.173828,-0.723694,0.170898,0.64563
138520202993,0.180786,-0.7229,0.163025,0.646606
138520225460,0.186646,-0.715881,0.145752,0.656799
138520247998,0.192749,-0.702881,0.130737,0.672119
138520263062,0.202271,-0.685059,0.120544,0.689331
138520285506,0.208557,-0.667114,0.107788,0.70697
138520307980,0.216064,-0.64679,0.0953369,0.725159
138520323006,0.220825,-0.625854,0.0800171,0.743713
138520345524,0.220337,-0.605774,0.0596924,0.762146
138520367977,0.214661,-0.586975,0.0369263,0.779724
138520383040,0.205139,-0.56781,0.0133667,0.797058
138520413685,0.201294,-0.548096,-0.00292969,0.811829
138520428061,0.196045,-0.528198,-0.0152588,0.82605
138520444409,0.19635,-0.510498,-0.0188599,0.836914
138520465513,0.197266,-0.496338,-0.0214844,0.845154
138520489467,0.194519,-0.493347,-0.0188599,0.847595
138520511204,0.187561,-0.499084,-0.0137939,0.845886
138520525470,0.172302,-0.51239,-0.0187378,0.841064
138520549501,0.15625,-0.529053,-0.0231323,0.83374
138520564450,0.157471,-0.523743,-0.0365601,0.836365
138520585534,0.140503,-0.537415,-0.0283813,0.831055
138520607933,0.139465,-0.545349,-0.0213623,0.826233
138520624497,0.125244,-0.55542,-0.0310059,0.821472
138520645492,0.11731,-0.564514,-0.0241089,0.81665
138520669431,0.102722,-0.570618,-0.0231323,0.814453
138520684469,0.115234,-0.579712,-0.0246582,0.806274
138520705495,0.11969,-0.585327,-0.0250854,0.801514
138520728039,0.114563,-0.589417,-0.0246582,0.799255
138520744545,0.120544,-0.594971,-0.0245361,0.79425
138520765580,0.124939,-0.599976,-0.0249634,0.789795
138520788018,0.125549,-0.60498,-0.0232544,0.78595
138520804455,0.129395,-0.610596,-0.0184937,0.781067
138520825490,0.136292,-0.616028,-0.0143433,0.775696
138520848046,0.144897,-0.620667,-0.0115356,0.770508
138520864413,0.151794,-0.625122,-0.00854492,0.765564
138520885525,0.157532,-0.63031,-0.00390625,0.760193
138520907959,0.161987,-0.635559,0.00164795,0.754822
138520926009,0.165894,-0.640991,0.00750732,0.74939
138520946961,0.170898,-0.646362,0.0123901,0.74353
138520967988,0.174805,-0.651733,0.0159302,0.737793
138520984437,0.176941,-0.657166,0.0192261,0.732422
138521013647,0.178467,-0.662659,0.0222168,0.72699
138521027968,0.179932,-0.668091,0.0245361,0.721558
138521044485,0.180664,-0.674072,0.0272827,0.715698
138521065527,0.181335,-0.680603,0.0299683,0.709229
138521088078,0.18158,-0.688049,0.0325317,0.701782
138521104428,0.180603,-0.696411,0.0358276,0.693604
138521125498,0.179932,-0.706055,0.0391235,0.683777
138521147991,0.178955,-0.716858,0.0447388,0.672363
138521164419,0.17865,-0.729492,0.0499268,0.658325
138521185582,0.17865,-0.742676,0.0569458,0.642883
138521207980,0.17572,-0.75647,0.0631714,0.62677
138521224405,0.170837,-0.770569,0.0714111,0.609863
138521245527,0.1698,-0.785095,0.0808105,0.590149
138521268002,0.170593,-0.80072,0.0910645,0.567017
138521291945,0.170349,-0.817261,0.102844,0.540833
138521321760,0.162476,-0.834717,0.115967,0.513245
138521328042,0.172974,-0.857361,0.129639,0.467102
138521344475,0.162415,-0.883789,0.135132,0.41748
138521373624,0.150146,-0.877686,0.133972,0.434937
138521396196,0.147644,-0.875244,0.124451,0.44342
138521411912,0.154053,-0.876343,0.101868,0.444885
138521435170,0.156372,-0.858643,0.0955811,0.478699
138521447967,0.149963,-0.84137,0.0977173,0.51001
138521464475,0.163574,-0.814819,0.115845,0.544006
138521486908,0.172852,-0.783752,0.138062,0.580322
138521508055,0.177307,-0.749451,0.136047,0.623169
138521524428,0.189941,-0.712769,0.136169,0.661316
138521548432,0.201782,-0.675354,0.125305,0.698181
138521567983,0.203552,-0.637085,0.107788,0.735535
138521584494,0.201355,-0.598877,0.0835571,0.770569
138521606953,0.196899,-0.561096,0.0616455,0.801575
138521627993,0.188904,-0.522522,0.0400391,0.830444
138521644459,0.182617,-0.484375,0.0265503,0.855164
138521666988,0.174133,-0.451782,0.0188599,0.874756
138521688029,0.159424,-0.431763,0.0137329,0.887634
138521704468,0.137207,-0.425354,0.00408936,0.894531
138521726917,0.126648,-0.427734,-0.00488281,0.894958
138521748068,0.126648,-0.434143,0.00311279,0.891907
138521764393,0.117249,-0.442688,-0.0140381,0.888855
138521786977,0.149841,-0.506714,-0.00805664,0.848938
138521807955,0.144897,-0.519043,-0.000732422,0.842346
138521824403,0.123291,-0.529419,0.0143433,0.839233
138521846988,0.143005,-0.545593,0.0143433,0.825623
138521868024,0.152527,-0.552124,0.000549316,0.819641
138521884512,0.145264,-0.559631,0.00170898,0.815918
138521906961,0.148926,-0.56842,0.0067749,0.809143
138521927959,0.149414,-0.574707,0.00183105,0.804565
138521944458,0.148804,-0.582275,0.00427246,0.799194
138521966926,0.149475,-0.592529,0.0147095,0.791443
138521987988,0.149048,-0.602844,0.019043,0.783569
138522004454,0.150757,-0.612,0.0218506,0.776062
138522027004,0.151123,-0.620972,0.0250854,0.768677
138522048000,0.151672,-0.630066,0.0266113,0.761108
138522064512,0.152466,-0.639709,0.0310059,0.752747
138522086974,0.152466,-0.649231,0.0353394,0.744324
138522108017,0.150879,-0.658752,0.0386353,0.736084
138522124391,0.149048,-0.667847,0.0427856,0.727966
138522146979,0.147644,-0.676392,0.0457153,0.720154
138522168084,0.145203,-0.684875,0.0485229,0.712402
138522184451,0.143799,-0.692505,0.0518799,0.705078
138522206997,0.143738,-0.700073,0.0564575,0.697144
138522228029,0.142029,-0.708252,0.0617676,0.688721
138522243690,0.140381,-0.717346,0.0673828,0.679077
138522266180,0.139282,-0.727234,0.0721436,0.668213
138522288706,0.137207,-0.739746,0.0761108,0.654358
138522303700,0.135437,-0.752441,0.0817261,0.639343
138522326134,0.135193,-0.765198,0.0894775,0.623108
138522348695,0.136475,-0.778809,0.10022,0.603943
138522363707,0.14209,-0.792847,0.115417,0.581299
138522386170,0.150024,-0.8078,0.131897,0.554626
138522408766,0.14679,-0.824036,0.148193,0.526794
138522423505,0.145569,-0.841431,0.166992,0.492859
138522446157,0.146423,-0.868408,0.169861,0.4422
138522468679,0.138123,-0.885986,0.176392,0.406067
138522492616,0.138916,-0.885925,0.170654,0.408386
138522506254,0.13678,-0.878296,0.174927,0.423462
138522528724,0.140503,-0.887817,0.147827,0.412598
138522543666,0.126831,-0.873108,0.123108,0.454407
138522566163,0.121704,-0.862671,0.114136,0.477417
138522588731,0.141724,-0.841125,0.129028,0.505737
138522603720,0.151978,-0.815979,0.147034,0.538025
138522626825,0.159485,-0.788269,0.138672,0.577881
138522656831,0.168884,-0.756104,0.129822,0.618835
138522663672,0.178345,-0.723572,0.115601,0.656738
138522686208,0.18335,-0.68866,0.0910034,0.695557
138522708718,0.187134,-0.651489,0.0661621,0.732239
138522723675,0.188904,-0.612732,0.0420532,0.766235
138522746188,0.192688,-0.571472,0.0216064,0.797363
138522768780,0.197998,-0.529663,0.00628662,0.824707
138522783670,0.211304,-0.489136,0.000610352,0.846191
138522806255,0.220581,-0.455994,0.00323486,0.862183
138522828686,0.218933,-0.435791,0.00408936,0.872986
138522845134,0.208557,-0.431946,-0.00244141,0.877441
138522866151,0.209106,-0.436707,0.000732422,0.874939
138522889103,0.223145,-0.450806,0.000183105,0.864258
138522903665,0.167114,-0.455322,-0.0262451,0.874084
138522926037,0.188904,-0.525696,-0.0133667,0.829346
138522948731,0.180847,-0.546753,-0.00793457,0.817505
138522963688,0.184021,-0.570129,-0.00317383,0.800659
138522986278,0.192871,-0.580261,-0.00476074,0.79126
138523008709,0.190735,-0.590027,-0.0122681,0.784424
138523025154,0.192688,-0.598938,-0.00854492,0.777222
138523046238,0.192139,-0.606018,-0.00750732,0.771851
138523068742,0.191956,-0.610962,-0.00537109,0.768005
138523085176,0.190063,-0.617371,0.000183105,0.763367
138523106189,0.192322,-0.623474,0.00524902,0.757751
138523128704,0.19165,-0.629761,0.0108032,0.752686
138523145194,0.18866,-0.637024,0.0175171,0.747192
138523166178,0.186951,-0.643494,0.020813,0.742004
138523188746,0.184753,-0.650085,0.0233765,0.736694
138523205170,0.182922,-0.65686,0.0258789,0.731018
138523226232,0.180359,-0.664185,0.0282593,0.724915
138523248746,0.178101,-0.672241,0.0307007,0.717896
138523265156,0.17511,-0.680359,0.0325317,0.710938
138523286219,0.172485,-0.688599,0.034668,0.70343
138523308699,0.170227,-0.696716,0.0375977,0.695801
138523324525,0.169128,-0.70459,0.0407104,0.687927
138523353704,0.169373,-0.712219,0.0447388,0.679749
138523368720,0.16925,-0.720215,0.0501709,0.670959
138523384459,0.169861,-0.728638,0.0562744,0.661133
138523407661,0.170471,-0.737427,0.0628662,0.650574
138523428770,0.173279,-0.745789,0.0699463,0.639465
138523444973,0.176697,-0.753845,0.0776978,0.628052
138523467632,0.179077,-0.761353,0.0889893,0.61676
138523490128,0.182739,-0.768433,0.101929,0.604736
138523504499,0.188171,-0.775024,0.112854,0.59259
138523527631,0.195496,-0.784607,0.12561,0.574829
138523548666,0.207581,-0.795105,0.141174,0.552063
138523564481,0.219666,-0.807678,0.158142,0.523865
138523587682,0.227417,-0.821045,0.174805,0.49353
138523608677,0.235352,-0.833801,0.190857,0.461487
138523624491,0.257202,-0.845886,0.199524,0.422485
138523647651,0.2724,-0.8479,0.219177,0.39856
138523668752,0.279419,-0.841431,0.23822,0.396423
138523684540,0.282776,-0.829468,0.266541,0.401184
138523707648,0.302979,-0.818054,0.273071,0.405457
138523728699,0.310303,-0.805542,0.280701,0.419556
138523744493,0.332886,-0.784302,0.28595,0.438538
138523767679,0.35321,-0.759888,0.286316,0.464539
138523788798,0.370239,-0.730896,0.29718,0.490234
138523804553,0.393738,-0.694458,0.309692,0.516479
138523827638,0.416504,-0.656189,0.328186,0.536804
138523848754,0.432983,-0.619629,0.333008,0.563599
138523864485,0.449097,-0.581421,0.335571,0.5896
138523887624,0.463379,-0.542847,0.341003,0.611755
138523908721,0.473816,-0.505554,0.346252,0.632446
138523924543,0.480164,-0.471436,0.355042,0.648926
138523953670,0.483582,-0.440796,0.369141,0.659912
138523968751,0.485718,-0.414917,0.385925,0.665527
138523984485,0.488953,-0.39325,0.405334,0.664734
138524007649,0.490601,-0.377441,0.424255,0.660889
138524028737,0.490845,-0.373352,0.440552,0.652344
138524044515,0.48761,-0.376465,0.450256,0.646301
138524067642,0.4776,-0.388733,0.452148,0.645203
138524088838,0.472168,-0.401367,0.457031,0.638
138524104498,0.500854,-0.380432,0.469971,0.619263
138524127690,0.519104,-0.369507,0.486755,0.597473
138524148751,0.523987,-0.374939,0.480225,0.595093
138524164566,0.499695,-0.394531,0.479736,0.603699
138524187596,0.492615,-0.405273,0.490295,0.593811
138524210120,0.497864,-0.407349,0.490967,0.587463
138524224506,0.49884,-0.410461,0.486633,0.588074
138524247029,0.504578,-0.410278,0.491699,0.578979
138524276281,0.509094,-0.407837,0.49115,0.577271
138524284457,0.508301,-0.408447,0.493347,0.575623
138524306967,0.51123,-0.405457,0.498901,0.570312
138524330161,0.517029,-0.39856,0.499634,0.569275
138524344509,0.521362,-0.393982,0.500183,0.568054
138524366991,0.527039,-0.389648,0.502502,0.563782
138524390121,0.530945,-0.387756,0.503723,0.560242
138524404462,0.535095,-0.386475,0.506348,0.554871
138524426935,0.539551,-0.384949,0.50885,0.549255
138524450159,0.543152,-0.383911,0.510071,0.545288
138524464488,0.546387,-0.383667,0.511169,0.541199
138524486966,0.550415,-0.382874,0.511414,0.537476
138524510594,0.552673,-0.383606,0.510986,0.534973
138524524513,0.554016,-0.385193,0.511169,0.532349
138524546928,0.555298,-0.386719,0.511658,0.529358
138524570076,0.556641,-0.388306,0.512512,0.526001
138524598721,0.55835,-0.389709,0.512634,0.52301
138524606983,0.560364,-0.391479,0.51239,0.519714
138524630165,0.562439,-0.393982,0.511902,0.516113
138524651168,0.564209,-0.396912,0.511292,0.512451
138524667005,0.565857,-0.400391,0.511047,0.508118
138524690107,0.568176,-0.403625,0.510376,0.503723
138524711233,0.570679,-0.406982,0.509644,0.498901
138524726982,0.573853,-0.410156,0.50824,0.494019
138524750129,0.576477,-0.41394,0.506409,0.489685
138524771591,0.578125,-0.418213,0.506226,0.484314
138524786960,0.579773,-0.421753,0.506714,0.47876
138524810100,0.581543,-0.425171,0.507019,0.473145
138524831259,0.583008,-0.429016,0.508789,0.465942
138524846977,0.584961,-0.432129,0.512024,0.457031
138524869903,0.588135,-0.434326,0.514771,0.447693
138524891257,0.591553,-0.436096,0.516541,0.439331
138524907007,0.594482,-0.437927,0.518188,0.43158
138524930134,0.597229,-0.438904,0.520264,0.424194
138524951217,0.599426,-0.440125,0.521484,0.418274
138524966955,0.600769,-0.441589,0.522461,0.413635
138524990157,0.601868,-0.442932,0.523193,0.409668
138525011236,0.602783,-0.444275,0.523315,0.406555
138525027009,0.602417,-0.445984,0.525085,0.402954
138525050126,0.603394,-0.445496,0.528381,0.397705
138525071249,0.60498,-0.444885,0.53064,0.392944
138525086984,0.605896,-0.445374,0.532593,0.388367
138525110607,0.606995,-0.446655,0.533691,0.383667
138525131212,0.607788,-0.448975,0.533203,0.380249
138525147023,0.609497,-0.451233,0.531921,0.376648
138525169523,0.61084,-0.454529,0.529297,0.374268
138525198685,0.612061,-0.459412,0.52478,0.372681
138525206978,0.614075,-0.464111,0.519714,0.370605
138525229522,0.61676,-0.46814,0.514648,0.368103
138525252660,0.621338,-0.470947,0.509033,0.364563
138525266950,0.626282,-0.473694,0.50415,0.359436
138525289450,0.631714,-0.47583,0.499573,0.353455
138525312667,0.638306,-0.477173,0.494812,0.346313
138525326991,0.64624,-0.477966,0.488708,0.339172
138525349479,0.653687,-0.480286,0.482117,0.330994
138525372639,0.660645,-0.481934,0.477661,0.320984
138525386950,0.6698,-0.481995,0.473206,0.308228
138525409464,0.681519,-0.481262,0.468506,0.290466
138525433077,0.694519,-0.47522,0.467651,0.270142
138525447001,0.709595,-0.462158,0.469238,0.250305
138525469514,0.716614,-0.454468,0.473877,0.235168
138525492629,0.730347,-0.43103,0.481567,0.220886
138525506977,0.746643,-0.391846,0.498535,0.200867
138525529449,0.761719,-0.346985,0.5177,0.177002
138525552606,0.763794,-0.316101,0.537415,0.166748
138525573729,0.763855,-0.270691,0.563293,0.160828
138525589538,0.759644,-0.224243,0.591736,0.149902
138525612660,0.750183,-0.178833,0.619385,0.146606
138525633679,0.734924,-0.13147,0.64978,0.142639
138525649490,0.715881,-0.0837402,0.679932,0.13446
138525672670,0.69342,-0.0379639,0.708252,0.126709
138525693756,0.668762,0.00262451,0.733826,0.118896
138525709996,0.643921,0.0396118,0.755859,0.111206
138525732703,0.618164,0.0708618,0.775818,0.104309
138525753809,0.592834,0.0996704,0.793762,0.0922241
138525769517,0.568298,0.124207,0.809326,0.0807495
138525792718,0.547302,0.138428,0.822266,0.071167
138525813854,0.533203,0.144287,0.831421,0.0593262
138525829593,0.534302,0.139709,0.832031,0.052002
138525852697,0.541626,0.126099,0.829285,0.053772
138525873820,0.557068,0.122192,0.819519,0.0546875
138525889582,0.562866,0.123413,0.815247,0.0563965
138525912632,0.585754,0.104858,0.801514,0.0583496
138525941268,0.602417,0.0928955,0.790955,0.0531006
138525948804,0.596069,0.0725708,0.797607,0.055542
138525963128,0.608765,0.0768433,0.788269,0.045105
138525986106,0.613647,0.0861206,0.782288,0.0628052
138526008813,0.617798,0.0827637,0.778992,0.0673218
138526023192,0.623352,0.0906372,0.773926,0.0640259
138526045658,0.628174,0.0948486,0.769592,0.0633545
138526068807,0.633667,0.0930786,0.765808,0.0569458
138526083083,0.639587,0.0927124,0.761414,0.0495605
138526105615,0.645508,0.0899658,0.757019,0.0452881
138526128817,0.651367,0.0878906,0.75238,0.0430298
138526143214,0.656616,0.0881348,0.747986,0.0389404
138526165702,0.662109,0.0874023,0.743347,0.0372925
138526188883,0.667603,0.0870972,0.738586,0.0338135
138526203145,0.673462,0.0880737,0.733276,0.02948
138526225659,0.679138,0.0886841,0.728149,0.0253296
138526248717,0.685242,0.0899658,0.722412,0.0199585
138526263073,0.691772,0.09198,0.716003,0.0153809
138526285646,0.698792,0.0932007,0.709106,0.0112305
138526308794,0.706055,0.0943604,0.701721,0.00714111
138526323225,0.713623,0.0960693,0.693848,0.00341797
138526345635,0.72113,0.0981445,0.68573,-0.000915527
138526368792,0.729187,0.102051,0.676575,-0.0057373
138526383093,0.73761,0.105103,0.666809,-0.0110474
138526405597,0.746277,0.107788,0.656555,-0.0166016
138526428746,0.754883,0.110718,0.645935,-0.0231323
138526443158,0.76355,0.115356,0.634521,-0.0311279
138526465629,0.771851,0.12146,0.62262,-0.0414429
138526488813,0.778625,0.130981,0.611267,-0.0529175
138526503118,0.789368,0.141785,0.593384,-0.0675659
138526525717,0.801147,0.150513,0.572937,-0.0847778
138526548818,0.814087,0.161987,0.548279,-0.101685
138526563144,0.828613,0.17041,0.519897,-0.118225
138526585646,0.844055,0.165833,0.491821,-0.13446
138526608824,0.865601,0.177429,0.442017,-0.154358
138526623145,0.888916,0.188965,0.385742,-0.158813
138526645595,0.887512,0.195129,0.383301,-0.165039
138526668803,0.871521,0.186829,0.415161,-0.182007
138526683086,0.878235,0.183105,0.408569,-0.167969
138526705622,0.871216,0.175171,0.4328,-0.151245
138526728771,0.85675,0.182434,0.460327,-0.143921
138526743124,0.830017,0.204895,0.493103,-0.160828
138526765619,0.799011,0.218262,0.527283,-0.189087
138526788823,0.765015,0.230469,0.571045,-0.188354
138526803135,0.726562,0.243652,0.614075,-0.188599
138526825603,0.686157,0.253296,0.655823,-0.186768
138526848880,0.645447,0.254639,0.698181,-0.175964
138526863181,0.603455,0.252625,0.739258,-0.159546
138526885676,0.561279,0.247681,0.775208,-0.15033
138526908754,0.521545,0.240601,0.806152,-0.141846
138526923082,0.483521,0.230835,0.834351,-0.128967
138526945642,0.454834,0.216919,0.854431,-0.126404
138526968795,0.436157,0.197876,0.869629,-0.119324
138526983122,0.437622,0.183655,0.87439,-0.100769
138527005621,0.438538,0.185059,0.872375,-0.111023
138527028776,0.44397,0.186462,0.868774,-0.115356
138527051346,0.456543,0.159363,0.869995,-0.0958252
138527066338,0.512085,0.191895,0.832214,-0.0911255
138527088722,0.50354,0.196411,0.835449,-0.0988159
138527103158,0.522583,0.190063,0.824341,-0.10553
138527126272,0.542603,0.200134,0.808716,-0.10675
138527148864,0.550964,0.205261,0.802551,-0.101074
138527163097,0.559143,0.208496,0.795959,-0.101196
138527186273,0.562317,0.221069,0.789978,-0.103516
138527208771,0.567444,0.224609,0.786011,-0.0986328
138527223055,0.572998,0.230103,0.779968,-0.101196
138527246293,0.579163,0.235291,0.773376,-0.104736
138527268771,0.586304,0.238586,0.766479,-0.108398
138527283104,0.593506,0.242004,0.758972,-0.114197
138527306342,0.600586,0.245667,0.751526,-0.11853
138527328797,0.607788,0.247559,0.744751,-0.120789
138527343134,0.614868,0.248779,0.737976,-0.123901
138527366323,0.622314,0.249329,0.731018,-0.126709
138527388800,0.630432,0.248596,0.723877,-0.128906
138527403221,0.63916,0.247192,0.716553,-0.129822
138527426320,0.648315,0.243591,0.709473,-0.129883
138527448878,0.656799,0.240784,0.702393,-0.130859
138527463122,0.6651,0.239624,0.694885,-0.131287
138527486331,0.673767,0.237976,0.687134,-0.131104
138527508777,0.682617,0.238403,0.678101,-0.131592
138527523172,0.6922,0.238464,0.66803,-0.132874
138527546270,0.702209,0.238831,0.65686,-0.135132
138527568801,0.712952,0.238892,0.644348,-0.139221
138527583158,0.724487,0.240967,0.629639,-0.143433
138527606319,0.735596,0.244263,0.614014,-0.148865
138527628813,0.746399,0.249329,0.59668,-0.15686
138527643145,0.758057,0.256592,0.575317,-0.168823
138527666361,0.769897,0.266846,0.550293,-0.182007
138527688776,0.781677,0.279419,0.521118,-0.198181
138527703102,0.795837,0.284729,0.490173,-0.212585
138527725583,0.810425,0.287537,0.457031,-0.227173
138527748745,0.832642,0.300598,0.40802,-0.223022
138527763083,0.855286,0.304993,0.359131,-0.215454
138527785603,0.852295,0.302063,0.369446,-0.213928
138527809436,0.846008,0.290222,0.384155,-0.228943
138527823130,0.854126,0.286865,0.38208,-0.205261
138527845607,0.848877,0.277954,0.404846,-0.195251
138527868739,0.839661,0.27417,0.430176,-0.186279
138527883139,0.81665,0.28717,0.455505,-0.207458
138527905593,0.789795,0.296448,0.485168,-0.229919
138527928767,0.761841,0.301636,0.52478,-0.230408
138527943140,0.728943,0.308105,0.564819,-0.233826
138527965579,0.692932,0.315857,0.603943,-0.235168
138527988791,0.654785,0.319946,0.645874,-0.227173
138528003107,0.616394,0.315125,0.689819,-0.21167
138528025649,0.577087,0.306213,0.730896,-0.197388
138528065205,0.536865,0.299438,0.766174,-0.186951
138528067532,0.500488,0.28949,0.797485,-0.172302
138528085568,0.46637,0.276367,0.824341,-0.162842
138528116297,0.440918,0.26123,0.843628,-0.159668
138528124537,0.429871,0.243286,0.856262,-0.150879
138528145615,0.428284,0.230957,0.862793,-0.136963
138528168094,0.427429,0.232056,0.861389,-0.146118
138528184570,0.435547,0.243408,0.854187,-0.146057
138528207070,0.448181,0.223816,0.855286,-0.131958
138528228190,0.504822,0.246094,0.816711,-0.132202
138528244674,0.492126,0.236328,0.827332,-0.131897
138528265682,0.511719,0.236389,0.816223,-0.126221
138528288157,0.531311,0.249512,0.801331,-0.115295
138528304621,0.543579,0.237305,0.796692,-0.115784
138528328526,0.557007,0.235168,0.787781,-0.11731
138528348847,0.562805,0.242188,0.781738,-0.115723
138528365141,0.570862,0.237976,0.777649,-0.112549
138528385705,0.578369,0.239136,0.771118,-0.116577
138528416327,0.585144,0.239563,0.765808,-0.116943
138528424607,0.591919,0.237793,0.760986,-0.118164
138528445631,0.599182,0.237671,0.754639,-0.122253
138528468727,0.607117,0.237671,0.747986,-0.124023
138528485062,0.614502,0.238037,0.741333,-0.126831
138528505668,0.621826,0.239624,0.734192,-0.129761
138528528823,0.62915,0.239929,0.727478,-0.131409
138528544686,0.637085,0.240417,0.720398,-0.131409
138528573833,0.645813,0.238037,0.713562,-0.130371
138528588870,0.654419,0.234314,0.706848,-0.131042
138528604623,0.662598,0.232544,0.699402,-0.132751
138528625643,0.670654,0.230347,0.692322,-0.133362
138528648220,0.679016,0.228821,0.684509,-0.134216
138528664620,0.687439,0.228638,0.676025,-0.134644
138528685684,0.696777,0.227966,0.666321,-0.135742
138528708164,0.70697,0.227844,0.655029,-0.138367
138528724596,0.717285,0.227539,0.642944,-0.142151
138528745719,0.727417,0.22998,0.629578,-0.146606
138528768152,0.736328,0.234314,0.616577,-0.150574
138528784677,0.74646,0.239319,0.600281,-0.158386
138528805627,0.756653,0.244995,0.581726,-0.170288
138528828218,0.766296,0.253601,0.56134,-0.182312
138528844573,0.776367,0.264465,0.536865,-0.197449
138528865644,0.787903,0.276733,0.506531,-0.214355
138528888171,0.802368,0.283997,0.472351,-0.22876
138528904604,0.817139,0.289246,0.437866,-0.238403
138528925705,0.836914,0.300659,0.393555,-0.232971
138528948144,0.845703,0.305298,0.369141,-0.234985
138528964578,0.843567,0.305115,0.373718,-0.23584
138528987054,0.833313,0.298584,0.389099,-0.254761
138529008170,0.830383,0.308838,0.388123,-0.253662
138529024613,0.821045,0.303772,0.412048,-0.252502
138529047146,0.800842,0.315186,0.433655,-0.266785
138529068168,0.772766,0.334045,0.462219,-0.278442
138529084629,0.745911,0.340393,0.493408,-0.290222
138529107140,0.71405,0.349609,0.53186,-0.291443
138529128167,0.678162,0.361328,0.56311,-0.303833
138529144678,0.645081,0.366089,0.59906,-0.301514
138529167113,0.612976,0.364929,0.636841,-0.292175
138529188158,0.583252,0.359741,0.672913,-0.278503
138529204651,0.555481,0.349487,0.706604,-0.264587
138529227132,0.530518,0.336365,0.735718,-0.253113
138529256413,0.508667,0.321777,0.76123,-0.241211
138529271419,0.491516,0.304321,0.781433,-0.234741
138529287099,0.478943,0.288086,0.796326,-0.231079
138529308202,0.481445,0.273132,0.800964,-0.228027
138529324617,0.481812,0.257141,0.807495,-0.222595
138529347116,0.495911,0.247131,0.803223,-0.218445
138529368193,0.512207,0.244202,0.794495,-0.216187
138529384567,0.51825,0.241211,0.792358,-0.212952
138529407162,0.513794,0.233521,0.801514,-0.197449
138529428217,0.53772,0.259033,0.774719,-0.208496
138529452197,0.537109,0.265747,0.774048,-0.204102
138529467175,0.558655,0.25293,0.766602,-0.190186
138529488164,0.557251,0.257263,0.763794,-0.199585
138529504695,0.562866,0.253113,0.76123,-0.198853
138529527146,0.564758,0.261597,0.758301,-0.193726
138529548268,0.567932,0.265686,0.754883,-0.192139
138529566077,0.569458,0.268921,0.754456,-0.184753
138529602767,0.571228,0.272644,0.752563,-0.181519
138529608843,0.574585,0.27301,0.749573,-0.182556
138529623865,0.577576,0.274353,0.746643,-0.183105
138529646340,0.58136,0.273621,0.743286,-0.185974
138529668881,0.584778,0.272949,0.740417,-0.187622
138529683872,0.588074,0.272644,0.737854,-0.188049
138529706354,0.591553,0.272888,0.734741,-0.188843
138529728883,0.595093,0.273743,0.731567,-0.188843
138529743844,0.598816,0.273621,0.728516,-0.188843
138529766385,0.602966,0.271606,0.725586,-0.190002
138529788877,0.606384,0.269714,0.723328,-0.19043
138529803926,0.609009,0.268188,0.721863,-0.189758
138529826303,0.611328,0.266357,0.720703,-0.189209
138529848820,0.613037,0.265137,0.71991,-0.188416
138529863884,0.61499,0.262512,0.719421,-0.187744
138529886403,0.617065,0.259827,0.718506,-0.187988
138529908805,0.619263,0.258789,0.716858,-0.188477
138529923852,0.621704,0.257141,0.715271,-0.188965
138529946321,0.624207,0.255493,0.713501,-0.189575
138529968860,0.626892,0.254028,0.711426,-0.190308
138529983846,0.629944,0.251709,0.709473,-0.190735
138530014524,0.633301,0.249329,0.707214,-0.190979
138530028815,0.63678,0.247009,0.704834,-0.191406
138530043902,0.640259,0.244751,0.702393,-0.191711
138530066344,0.643677,0.242371,0.69989,-0.192444
138530088884,0.64679,0.23999,0.69751,-0.19342
138530105284,0.64917,0.238159,0.69574,-0.194214
138530126383,0.65094,0.236267,0.694458,-0.19519
138530148960,0.652161,0.234436,0.693481,-0.196716
138530163901,0.652954,0.233398,0.692627,-0.198425
138530186343,0.653381,0.233032,0.691589,-0.200928
138530208821,0.65332,0.233398,0.690857,-0.203247
138530223800,0.653259,0.233337,0.690308,-0.205383
138530247829,0.653442,0.232544,0.689636,-0.207947
138530268878,0.653748,0.231567,0.688965,-0.210327
138530283865,0.653992,0.230652,0.688538,-0.211975
138530306358,0.654419,0.229675,0.688049,-0.213318
138530328884,0.654602,0.229309,0.687683,-0.214355
138530343926,0.655029,0.228577,0.687073,-0.215759
138530366349,0.655029,0.228516,0.686523,-0.217651
138530388785,0.655151,0.228821,0.685913,-0.218811
138530403898,0.655396,0.228516,0.685364,-0.220093
138530426410,0.65564,0.228088,0.684875,-0.22113
138530448866,0.655518,0.227966,0.684814,-0.221985
138530463845,0.655396,0.227661,0.684753,-0.222717
138530486345,0.654907,0.227417,0.685059,-0.22345
138530508898,0.654236,0.227173,0.685486,-0.224426
138530525294,0.653442,0.226746,0.686035,-0.225525
138530546375,0.65271,0.226318,0.686462,-0.226746
138530569187,0.6521,0.226074,0.68689,-0.227539
138530583910,0.65155,0.226074,0.687195,-0.22821
138530606371,0.651184,0.226013,0.687317,-0.228821
138530628816,0.651001,0.225769,0.687439,-0.229309
138530645320,0.65094,0.225525,0.687439,-0.229675
138530666427,0.650879,0.225098,0.687561,-0.22998
138530688898,0.650696,0.224854,0.687683,-0.230225
138530705367,0.650574,0.224609,0.687805,-0.230408
138530726325,0.650513,0.224304,0.687988,-0.230469
138530748847,0.650452,0.223999,0.688171,-0.230469
138530765243,0.65033,0.223694,0.688354,-0.230408
138530786339,0.650269,0.22345,0.688538,-0.230408
138530808956,0.650208,0.22345,0.688538,-0.230408
138530825335,0.650146,0.22345,0.688599,-0.230408
138530846390,0.650146,0.22345,0.68866,-0.230408
138530868879,0.64978,0.223267,0.688904,-0.230774
138530891384,0.649414,0.223328,0.689148,-0.231079
138530906370,0.649109,0.223083,0.689392,-0.231384
138530928817,0.649048,0.223083,0.689453,-0.231384
138530944625,0.648743,0.2229,0.689697,-0.231628
138530967760,0.648682,0.2229,0.689758,-0.231628
138530988945,0.648682,0.222839,0.689819,-0.231628
138531004629,0.648621,0.222839,0.689819,-0.231689
138531035238,0.64856,0.222778,0.68988,-0.231689
138531048923,0.648376,0.222656,0.690002,-0.231934
138531064670,0.648254,0.222412,0.690125,-0.232178
138531087774,0.648254,0.222351,0.690186,-0.232178
138531108933,0.648193,0.222351,0.690186,-0.232178
138531124692,0.648254,0.222168,0.690186,-0.232178
138531147820,0.648315,0.221985,0.690186,-0.2323
138531168873,0.648254,0.221924,0.690247,-0.2323
138531184664,0.648254,0.221924,0.690308,-0.2323
138531213845,0.648193,0.221924,0.690308,-0.2323
138531228971,0.648132,0.221863,0.690369,-0.232361
138531244664,0.648132,0.221863,0.690369,-0.232361
138531267819,0.648071,0.221863,0.69043,-0.232361
138531288935,0.64801,0.221863,0.690491,-0.232422
138531304615,0.64801,0.221802,0.690491,-0.232422
138531327895,0.647949,0.221802,0.690552,-0.232422
138531356453,0.647949,0.221802,0.690552,-0.232483
138531364662,0.647888,0.221741,0.690613,-0.232483
138531387839,0.647644,0.22168,0.690796,-0.232666
138531408946,0.647278,0.221558,0.69104,-0.23291
138531424694,0.647278,0.221558,0.691101,-0.23291
138531448322,0.647217,0.221497,0.691162,-0.232971
138531468944,0.647156,0.221497,0.691223,-0.232971
138531484663,0.647156,0.221497,0.691223,-0.233032
138531507819,0.647095,0.221436,0.691284,-0.233032
138531536341,0.647034,0.221436,0.691284,-0.233032
138531544697,0.646729,0.221313,0.691528,-0.233276
138531567810,0.646423,0.221252,0.691772,-0.233582
138531588908,0.646057,0.221252,0.692078,-0.233765
138531604665,0.645752,0.221252,0.692322,-0.233948
138531627845,0.645386,0.221313,0.692566,-0.234131
138531648999,0.645325,0.221252,0.692566,-0.234131
138531664682,0.645325,0.221252,0.692627,-0.234131
138531687867,0.645264,0.221252,0.692627,-0.234192
138531708914,0.645203,0.221252,0.692688,-0.234192
138531724696,0.645203,0.221252,0.692749,-0.234192
138531747775,0.645142,0.221191,0.692749,-0.234192
138531768844,0.645081,0.221191,0.69281,-0.234192
138531784719,0.645081,0.22113,0.692871,-0.234253
138531815299,0.64502,0.22113,0.692871,-0.234253
138531828852,0.644958,0.22113,0.692932,-0.234253
138531844696,0.644958,0.22113,0.692993,-0.234253
138531867125,0.644897,0.22113,0.692993,-0.234314
138531888871,0.644836,0.221069,0.693054,-0.234314
138531904672,0.644592,0.221008,0.693237,-0.234436
138531927131,0.644165,0.220947,0.693604,-0.234619
138531957873,0.643799,0.220825,0.69397,-0.234741
138531964751,0.64325,0.220703,0.694397,-0.235046
138531987178,0.6427,0.220825,0.694763,-0.235291
138532010366,0.64209,0.220947,0.695251,-0.235535
138532024622,0.641479,0.221008,0.695679,-0.23584
138532047201,0.640808,0.221069,0.696167,-0.236084
138532070339,0.640076,0.22113,0.696716,-0.23645
138532084712,0.638977,0.221497,0.69751,-0.236755
138532107172,0.638,0.221619,0.698242,-0.237183
138532130389,0.636841,0.221558,0.699219,-0.237427
138532144639,0.635559,0.22168,0.700317,-0.23761
138532167180,0.634155,0.221863,0.701477,-0.237671
138532190305,0.632629,0.221985,0.70282,-0.237671
138532204754,0.631104,0.221985,0.704163,-0.237671
138532227217,0.629517,0.221741,0.705627,-0.237854
138532250415,0.62793,0.221436,0.707092,-0.237915
138532264736,0.626282,0.221252,0.708618,-0.237915
138532287190,0.624634,0.220886,0.710205,-0.237976
138532310278,0.623047,0.220581,0.711731,-0.237793
138532324614,0.621521,0.220154,0.713257,-0.237549
138532347172,0.620056,0.219849,0.714722,-0.237244
138532370821,0.618103,0.218506,0.716797,-0.237183
138532391342,0.616577,0.215393,0.71936,-0.236389
138532407160,0.615417,0.213135,0.72113,-0.236023
138532430309,0.614258,0.211914,0.722534,-0.235779
138532451308,0.613342,0.211304,0.723572,-0.235718
138532467190,0.61261,0.210876,0.724243,-0.235779
138532490378,0.612122,0.210754,0.724731,-0.235779
138532511339,0.611755,0.210632,0.725037,-0.23584
138532527157,0.611511,0.210754,0.725159,-0.236023
138532556326,0.611267,0.211365,0.725098,-0.236206
138532571347,0.611145,0.212097,0.724915,-0.23645
138532587152,0.611023,0.212585,0.724792,-0.236755
138532610281,0.610962,0.213196,0.724548,-0.237061
138532631327,0.610718,0.213928,0.724426,-0.237366
138532647195,0.610535,0.214478,0.724365,-0.237671
138532670358,0.610413,0.214966,0.724243,-0.237915
138532691345,0.610229,0.215332,0.724243,-0.238098
138532707183,0.610107,0.215454,0.724182,-0.238342
138532730331,0.610107,0.215454,0.724182,-0.238342
138532751357,0.610107,0.215576,0.724121,-0.238586
138532767150,0.610168,0.215698,0.723938,-0.238708
138532789695,0.610107,0.215698,0.723999,-0.238708
138532811375,0.610107,0.215698,0.723999,-0.238708
138532827240,0.610107,0.215698,0.723999,-0.238708
138532849699,0.610046,0.215759,0.723999,-0.238892
138532878946,0.610046,0.215759,0.723999,-0.238892
138532887206,0.609985,0.215759,0.723999,-0.238892
138532909718,0.609985,0.215759,0.723999,-0.238892
138532932866,0.609985,0.215759,0.72406,-0.238892
138532947129,0.609924,0.215759,0.72406,-0.238892
138532969642,0.609924,0.215759,0.724121,-0.238892
138532992876,0.609863,0.215759,0.724121,-0.238892
138533007199,0.609863,0.215759,0.724121,-0.238892
138533029688,0.609863,0.215759,0.724121,-0.238892
138533052837,0.609802,0.215698,0.724182,-0.238892
138533067190,0.609802,0.215698,0.724182,-0.238892
138533089644,0.609802,0.215698,0.724182,-0.238892
138533113318,0.609741,0.215698,0.724243,-0.238892
138533127198,0.609741,0.215698,0.724243,-0.238892
138533149757,0.609863,0.215637,0.724182,-0.238831
138533172822,0.609924,0.215576,0.724182,-0.238708
138533187228,0.610046,0.215515,0.724182,-0.238647
138533209718,0.610046,0.215576,0.724121,-0.238525
138533232793,0.610107,0.215576,0.724121,-0.238464
138533247176,0.610229,0.215515,0.72406,-0.238403
138533269746,0.610229,0.215515,0.72406,-0.238403
138533292897,0.610229,0.215515,0.72406,-0.238403
138533306461,0.610168,0.215515,0.72406,-0.238403
138533328882,0.610168,0.215576,0.72406,-0.238403
138533343277,0.610168,0.215576,0.72406,-0.238403
138533366418,0.610168,0.215576,0.724121,-0.238403
138533389369,0.610168,0.215576,0.724121,-0.238403
138533403285,0.610168,0.215515,0.724121,-0.238403
138533426443,0.610046,0.215637,0.724121,-0.238586
138533448949,0.609924,0.215881,0.72406,-0.238831
138533463287,0.609192,0.215149,0.724854,-0.238953
138533486393,0.608459,0.214844,0.725403,-0.239563
138533509078,0.607788,0.215149,0.725891,-0.239319
138533523283,0.607666,0.215027,0.726135,-0.239075
138533546445,0.607239,0.214722,0.726562,-0.239075
138533560729,0.606506,0.213196,0.727661,-0.239136
138533583276,0.605957,0.211426,0.728577,-0.239258
138533606395,0.605103,0.209839,0.729797,-0.239075
138533620776,0.603882,0.208496,0.731323,-0.23877
138533643315,0.603271,0.205078,0.733337,-0.237
138533665797,0.6026,0.203247,0.734497,-0.236633
138533688896,0.602905,0.201416,0.734863,-0.236206
138533703249,0.603516,0.201355,0.734253,-0.236633
138533725776,0.603027,0.203735,0.733337,-0.238647
138533740821,0.60321,0.203796,0.733276,-0.238342
138533763318,0.603271,0.202942,0.733704,-0.23761
138533786405,0.603149,0.203186,0.733643,-0.237976
138533800752,0.602722,0.203613,0.733887,-0.237976
138533823282,0.602722,0.203613,0.733887,-0.237915
138533845767,0.602661,0.203613,0.733948,-0.237915
138533860798,0.602356,0.203857,0.73407,-0.238037
138533883303,0.602173,0.204163,0.734131,-0.23822
138533905703,0.601929,0.204529,0.734131,-0.238403
138533920743,0.601929,0.204529,0.734131,-0.238403
138533943274,0.601685,0.204834,0.734253,-0.238342
138533965777,0.601562,0.205078,0.734253,-0.238464
138533988928,0.601501,0.205078,0.734253,-0.238525
138534003278,0.601379,0.205383,0.734253,-0.238708
138534025748,0.601196,0.205933,0.734192,-0.238831
138534040697,0.601013,0.206787,0.734009,-0.239075
138534063252,0.600769,0.208069,0.733643,-0.239746
138534085803,0.600708,0.209595,0.733032,-0.240417
138534100807,0.600891,0.210876,0.7323,-0.241028
138534123294,0.601074,0.212952,0.731323,-0.241699
138534145830,0.601318,0.214905,0.730408,-0.242065
138534160794,0.601746,0.216492,0.729675,-0.242004
138534183312,0.601929,0.217773,0.729126,-0.242065
138534205830,0.602051,0.219116,0.728638,-0.241943
138534220798,0.601929,0.220337,0.728455,-0.241699
138534243263,0.60199,0.220947,0.728271,-0.241394
138534265816,0.602051,0.221191,0.72821,-0.241272
138534280746,0.601929,0.22168,0.728271,-0.24115
138534311456,0.60199,0.221802,0.72821,-0.241028
138534325799,0.60199,0.221924,0.72821,-0.240723
138534340811,0.60199,0.222229,0.72821,-0.240662
138534363272,0.601929,0.222229,0.72821,-0.240601
138534385794,0.601929,0.22229,0.72821,-0.240601
138534400850,0.601929,0.22229,0.72821,-0.240601
138534423281,0.601868,0.22229,0.728271,-0.240601
138534445773,0.601868,0.22229,0.728271,-0.24054
138534460806,0.601868,0.22229,0.728271,-0.24054
138534483253,0.601868,0.22229,0.728271,-0.24054
138534505827,0.601868,0.222351,0.728271,-0.24054
138534520793,0.601868,0.222351,0.728271,-0.24054
138534543269,0.601807,0.222351,0.728271,-0.24054
138534565770,0.601807,0.222351,0.728333,-0.24054
138534580781,0.601807,0.222412,0.728333,-0.240479
138534603354,0.601807,0.222412,0.728333,-0.240479
138534627197,0.601746,0.222412,0.728333,-0.240479
138534642272,0.601746,0.222412,0.728394,-0.240479
138534663327,0.601746,0.222412,0.728394,-0.240479
138534685741,0.601501,0.222717,0.728455,-0.240417
138534702239,0.601501,0.222717,0.728516,-0.240417
138534723290,0.601501,0.222717,0.728516,-0.240417
138534745833,0.601257,0.222961,0.728638,-0.240479
138534762268,0.601196,0.223022,0.728638,-0.240479
138534783293,0.601196,0.223022,0.728638,-0.240479
138534805833,0.600952,0.223267,0.72876,-0.240601
138534822226,0.600891,0.223267,0.72876,-0.24054
138534843297,0.600647,0.223328,0.729004,-0.240601
138534865868,0.600342,0.223633,0.729065,-0.240723
138534882252,0.600098,0.223816,0.729187,-0.240784
138534903293,0.599915,0.223877,0.729309,-0.240906
138534925887,0.599609,0.22406,0.729431,-0.241089
138534942245,0.599304,0.224426,0.729553,-0.241211
138534963273,0.599121,0.224609,0.729614,-0.241272
138534985841,0.598816,0.22467,0.729736,-0.241516
138535002210,0.598633,0.224854,0.729797,-0.241699
138535023258,0.598328,0.224976,0.729919,-0.241882
138535054011,0.598022,0.225098,0.730042,-0.242126
138535062216,0.597778,0.225098,0.730164,-0.242371
138535083228,0.597595,0.22522,0.730225,-0.242676
138535105798,0.597229,0.225403,0.730408,-0.242798
138535122268,0.597107,0.225342,0.730469,-0.242981
138535143316,0.596985,0.22522,0.73053,-0.243164
138535165870,0.596741,0.225342,0.73053,-0.243591
138535182289,0.596741,0.225403,0.73053,-0.24353
138535203325,0.596619,0.225098,0.730713,-0.243652
138535225819,0.596497,0.225159,0.730713,-0.243958
138535242241,0.596436,0.225098,0.730774,-0.243958
138535263337,0.596497,0.224854,0.730835,-0.243896
138535285777,0.596558,0.224609,0.730835,-0.243713
138535302188,0.596802,0.224243,0.730835,-0.243652
138535326223,0.597046,0.223755,0.730835,-0.243469
138535345821,0.59729,0.223267,0.730774,-0.243469
138535362241,0.597412,0.2229,0.730774,-0.24353
138535383353,0.597473,0.222656,0.730774,-0.243591
138535405804,0.597656,0.22229,0.730713,-0.243652
138535422254,0.597839,0.221863,0.730652,-0.243774
138535443306,0.598083,0.221558,0.73053,-0.243835
138535465894,0.598022,0.221252,0.730591,-0.244019
138535482207,0.598145,0.220947,0.730591,-0.244141
138535503311,0.597351,0.219238,0.731628,-0.244385
138535525849,0.597168,0.216309,0.732422,-0.245056
138535542321,0.597351,0.215332,0.732483,-0.245239
138535563303,0.597595,0.21344,0.73291,-0.245178
138535585804,0.597961,0.211914,0.733154,-0.244873
138535609795,0.598083,0.211365,0.733154,-0.244995
138535624782,0.598206,0.210754,0.733276,-0.244751
138535645821,0.598206,0.210571,0.733337,-0.244873
138535662243,0.598206,0.21051,0.733337,-0.244934
138535684739,0.598206,0.210571,0.733215,-0.245117
138535705833,0.598206,0.210571,0.733276,-0.245178
138535722234,0.598206,0.209961,0.733398,-0.245239
138535744735,0.598206,0.209656,0.733459,-0.245361
138535765867,0.597961,0.209229,0.733704,-0.245544
138535782261,0.597839,0.207825,0.734192,-0.245483
138535804735,0.597717,0.207092,0.734436,-0.245667
138535825816,0.597595,0.206848,0.734497,-0.246033
138535842193,0.597595,0.206238,0.734619,-0.246216
138535864773,0.597595,0.205688,0.734741,-0.246399
138535885852,0.597717,0.205383,0.734558,-0.246765
138535908346,0.597778,0.205383,0.734375,-0.247253
138535932290,0.597961,0.205261,0.734192,-0.247498
138535945881,0.598083,0.205139,0.733948,-0.247925
138535962192,0.598267,0.205322,0.733643,-0.248291
138535984748,0.598389,0.205505,0.733337,-0.248718
138536005802,0.59845,0.205627,0.733093,-0.249207
138536022155,0.598389,0.205933,0.732849,-0.249695
138536044775,0.598389,0.206421,0.732544,-0.250305
138536074009,0.598511,0.207153,0.732056,-0.250793
138536088326,0.598755,0.208191,0.731384,-0.251221
138536104791,0.599121,0.209412,0.730591,-0.251587
138536125859,0.599304,0.210876,0.72998,-0.251892
138536149780,0.599487,0.21228,0.729309,-0.252258
138536164777,0.599609,0.213562,0.728699,-0.252563
138536185822,0.59967,0.214722,0.72821,-0.252808
138536209758,0.59967,0.215637,0.727844,-0.253174
138536224764,0.599609,0.216797,0.727356,-0.253601
138536253974,0.599609,0.217712,0.727051,-0.253784
138536262166,0.599731,0.218018,0.726746,-0.254089
138536290823,0.599731,0.218689,0.726318,-0.254639
138536307269,0.599731,0.219238,0.726074,-0.255005
138536322201,0.599731,0.219788,0.72583,-0.255188
138536344695,0.59967,0.220398,0.725647,-0.25531
138536365872,0.599792,0.220642,0.725342,-0.255615
138536382261,0.599792,0.22113,0.725159,-0.255798
138536404789,0.59967,0.221558,0.724976,-0.256104
138536425843,0.599548,0.221863,0.724976,-0.256287
138536442241,0.599243,0.221863,0.725098,-0.256592
138536464784,0.598755,0.221008,0.725647,-0.256958
138536488616,0.598633,0.220642,0.725708,-0.257385
138536502247,0.598694,0.220093,0.72583,-0.257385
138536532179,0.59845,0.220154,0.725952,-0.257446
138536547212,0.598633,0.220093,0.725952,-0.257141
138536562288,0.598816,0.21991,0.725891,-0.25708
138536584775,0.598938,0.22052,0.725708,-0.256836
138536607242,0.599121,0.220886,0.725525,-0.256592
138536622224,0.599365,0.220825,0.725403,-0.256287
138536644699,0.599487,0.221069,0.725281,-0.256104
138536667373,0.599609,0.221375,0.725159,-0.256042
138536683728,0.599548,0.221741,0.725098,-0.255981
138536704786,0.599548,0.222107,0.725037,-0.255798
138536727288,0.599487,0.222412,0.725098,-0.255554
138536743610,0.599426,0.222595,0.725159,-0.255371
138536764785,0.599426,0.222656,0.725159,-0.255371
138536787278,0.599426,0.222656,0.725159,-0.255371
138536803807,0.599365,0.222656,0.725159,-0.255371
138536824790,0.599426,0.222717,0.725159,-0.255249
138536854727,0.599548,0.223145,0.724976,-0.255066
138536863652,0.599792,0.22345,0.724792,-0.254822
138536884677,0.599915,0.223511,0.724731,-0.254639
138536907237,0.600098,0.223572,0.724609,-0.254456
138536923696,0.600037,0.223572,0.724609,-0.254456
138536944775,0.600281,0.22345,0.724548,-0.254333
138536967248,0.600464,0.223633,0.724487,-0.253967
138536989066,0.600647,0.223572,0.724426,-0.253601
138537003950,0.600769,0.223572,0.724548,-0.253052
138537026503,0.600952,0.223511,0.724609,-0.252441
138537049004,0.601074,0.223511,0.724609,-0.252258
138537065402,0.601074,0.223755,0.72467,-0.251892
138537087903,0.601196,0.223572,0.724731,-0.251526
138537108951,0.601379,0.223267,0.724792,-0.25116
138537124005,0.601379,0.223022,0.725037,-0.250671
138537146501,0.601501,0.2229,0.725098,-0.250427
138537169006,0.601562,0.223022,0.725098,-0.25
138537184042,0.601868,0.222839,0.725098,-0.249512
138537206505,0.602112,0.222717,0.725159,-0.249023
138537228958,0.602478,0.222412,0.725037,-0.248596
138537243963,0.602722,0.222229,0.725037,-0.248169
138537274019,0.603027,0.222351,0.724915,-0.247803
138537288968,0.603333,0.222351,0.724731,-0.247375
138537304008,0.603699,0.222351,0.724548,-0.24707
138537326415,0.604004,0.222534,0.724304,-0.246765
138537349097,0.604309,0.222839,0.724121,-0.246399
138537364004,0.604736,0.2229,0.723877,-0.246033
138537386405,0.605103,0.222961,0.723694,-0.245605
138537409066,0.605408,0.223022,0.723572,-0.245178
138537424675,0.605774,0.223145,0.723389,-0.24469
138537446460,0.606201,0.223083,0.723145,-0.244446
138537469035,0.606384,0.223083,0.723022,-0.244202
138537484045,0.606506,0.222839,0.723145,-0.243835
138537506453,0.606689,0.222534,0.723206,-0.243591
138537528907,0.606689,0.222534,0.723328,-0.243164
138537544022,0.606689,0.222351,0.723511,-0.242798
138537566508,0.606628,0.222412,0.723633,-0.242432
138537582269,0.606567,0.222412,0.723816,-0.242004
138537603972,0.606506,0.222595,0.723999,-0.241699
