timestamp,x,y,z,w
42406064131,-0.249512,-0.228638,-0.607361,-0.718811
42406079109,-0.249512,-0.228638,-0.607361,-0.718811
42406100406,-0.249512,-0.228638,-0.607361,-0.718811
42406124117,-0.249512,-0.228638,-0.607361,-0.718811
42406139171,-0.249512,-0.228638,-0.607361,-0.718811
42406160528,-0.249451,-0.22876,-0.607178,-0.718994
42406199753,-0.249451,-0.228943,-0.606934,-0.719116
42406201843,-0.249817,-0.229187,-0.606628,-0.719116
42406221884,-0.250427,-0.229675,-0.606323,-0.718994
42406244237,-0.250854,-0.230103,-0.606201,-0.718872
42406261941,-0.250854,-0.230164,-0.606201,-0.718872
42406282025,-0.250549,-0.230103,-0.606323,-0.718872
42406318579,-0.250488,-0.230103,-0.606323,-0.718872
42406350527,-0.250488,-0.230103,-0.606323,-0.718872
42406351347,-0.250732,-0.230225,-0.606262,-0.71875
42406362857,-0.250732,-0.230225,-0.606262,-0.71875
42406379301,-0.250916,-0.230408,-0.606262,-0.718689
42406401668,-0.25116,-0.230774,-0.60614,-0.718567
42406422828,-0.251465,-0.231201,-0.606018,-0.718445
42406439257,-0.251465,-0.231262,-0.605957,-0.718445
42406461839,-0.251343,-0.231079,-0.605896,-0.718628
42406482855,-0.251282,-0.230713,-0.605896,-0.718811
42406499242,-0.251099,-0.230347,-0.605835,-0.718994
42406521743,-0.251099,-0.230103,-0.605713,-0.719177
42406542784,-0.251282,-0.230042,-0.60553,-0.719299
42406559263,-0.251343,-0.229919,-0.605408,-0.71936
42406581684,-0.251465,-0.229858,-0.605408,-0.719421
42406602739,-0.251465,-0.229675,-0.605347,-0.719482
42406626645,-0.251587,-0.229492,-0.605347,-0.719543
42406641772,-0.251831,-0.229492,-0.605225,-0.719543
42406662847,-0.252075,-0.22937,-0.605164,-0.719543
42406679317,-0.252258,-0.229309,-0.605164,-0.719482
42406701670,-0.252319,-0.229004,-0.605164,-0.719604
42406722838,-0.252258,-0.228638,-0.605103,-0.719727
42406739146,-0.252563,-0.228516,-0.60498,-0.719788
42406761689,-0.25293,-0.228455,-0.604858,-0.719727
42406782736,-0.252991,-0.228455,-0.604858,-0.719727
42406799135,-0.25293,-0.228333,-0.604919,-0.719788
42406821642,-0.252502,-0.227966,-0.605042,-0.719971
42406842722,-0.252075,-0.2276,-0.605103,-0.720154
42406859163,-0.252014,-0.2276,-0.605103,-0.720154
42406881686,-0.252197,-0.227722,-0.605103,-0.720093
42406902724,-0.252441,-0.227905,-0.60498,-0.720032
42406919180,-0.252747,-0.228088,-0.604919,-0.71991
42406941768,-0.252869,-0.228271,-0.604858,-0.719849
42406964277,-0.25293,-0.228516,-0.604736,-0.719849
42406979223,-0.253052,-0.228821,-0.604614,-0.719849
42407001728,-0.253174,-0.229004,-0.604492,-0.719849
42407024192,-0.253174,-0.229004,-0.604492,-0.719849
42407039277,-0.253174,-0.229065,-0.604492,-0.719849
42407061739,-0.253174,-0.229065,-0.604492,-0.719849
42407084175,-0.253235,-0.229065,-0.604431,-0.719849
42407099228,-0.253235,-0.229065,-0.604431,-0.719849
42407121727,-0.253174,-0.229004,-0.604492,-0.719849
42407144311,-0.252869,-0.228821,-0.604553,-0.719971
42407159220,-0.252869,-0.228821,-0.604553,-0.719971
42407180963,-0.252869,-0.228821,-0.604553,-0.719971
42407203514,-0.252808,-0.22876,-0.604614,-0.719971
42407218389,-0.252502,-0.228455,-0.604675,-0.720032
42407240926,-0.252197,-0.228149,-0.604797,-0.720215
42407263464,-0.251892,-0.227783,-0.604858,-0.720398
42407278467,-0.251892,-0.227783,-0.604858,-0.720398
42407300911,-0.251953,-0.227783,-0.604919,-0.720276
42407323405,-0.252075,-0.228088,-0.604858,-0.720154
42407339956,-0.252136,-0.228455,-0.604797,-0.720154
42407368521,-0.252502,-0.228699,-0.604492,-0.720154
42407383462,-0.253479,-0.228699,-0.604248,-0.720032
42407399876,-0.254211,-0.228516,-0.604248,-0.719788
42407421009,-0.254272,-0.228516,-0.604248,-0.719788
42407443523,-0.253662,-0.228699,-0.604187,-0.720032
42407459906,-0.253174,-0.22876,-0.604126,-0.720215
42407480944,-0.252991,-0.22876,-0.604065,-0.720337
42407503454,-0.252441,-0.228333,-0.604126,-0.720581
42407519849,-0.251648,-0.227661,-0.604309,-0.720947
42407540970,-0.250854,-0.227051,-0.604431,-0.721313
42407563438,-0.250122,-0.226624,-0.604492,-0.721619
42407579855,-0.249634,-0.22644,-0.604614,-0.721741
42407600891,-0.249756,-0.226562,-0.604736,-0.721619
42407623434,-0.250244,-0.226929,-0.604675,-0.721375
42407639889,-0.25061,-0.227417,-0.604553,-0.721191
42407661048,-0.250732,-0.227783,-0.604431,-0.721069
42407683522,-0.250854,-0.228088,-0.604431,-0.721008
42407699981,-0.251038,-0.228455,-0.60437,-0.720825
42407721000,-0.251282,-0.228882,-0.604431,-0.720581
42407743536,-0.251465,-0.229309,-0.604553,-0.720276
42407759928,-0.251465,-0.229675,-0.604736,-0.719971
42407780901,-0.250854,-0.22998,-0.605042,-0.71991
42407803541,-0.250305,-0.230286,-0.605164,-0.719849
42407819928,-0.250122,-0.230652,-0.605164,-0.719849
42407840999,-0.250244,-0.230774,-0.605042,-0.719788
42407863389,-0.25061,-0.230591,-0.60498,-0.719788
42407879216,-0.251038,-0.230347,-0.60498,-0.719788
42407900903,-0.250977,-0.230103,-0.604919,-0.719849
42407923455,-0.251038,-0.230103,-0.604919,-0.719849
42407939213,-0.251038,-0.230103,-0.604919,-0.719849
42407961000,-0.251282,-0.230286,-0.605042,-0.719604
42407983468,-0.251709,-0.230408,-0.605164,-0.71936
42407999276,-0.252197,-0.230652,-0.605103,-0.719116
42408020940,-0.253235,-0.23114,-0.60498,-0.71875
42408043474,-0.255005,-0.231689,-0.604858,-0.718018
42408059302,-0.257019,-0.2323,-0.604797,-0.717102
42408082430,-0.259094,-0.233582,-0.605042,-0.715759
42408103458,-0.261841,-0.236389,-0.60498,-0.713928
42408119268,-0.263794,-0.239685,-0.604797,-0.71228
42408142376,-0.265442,-0.243225,-0.60498,-0.710266
42408163410,-0.267944,-0.24762,-0.605103,-0.707703
42408179201,-0.272034,-0.253113,-0.605591,-0.703796
42408202394,-0.276855,-0.259338,-0.606018,-0.69928
42408223415,-0.280762,-0.266052,-0.606567,-0.694702
42408239244,-0.282654,-0.272278,-0.607727,-0.69043
42408262474,-0.282166,-0.276794,-0.609924,-0.686951
42408283509,-0.280396,-0.280518,-0.613037,-0.68335
42408299245,-0.277771,-0.284363,-0.616333,-0.679871
42408322427,-0.276001,-0.288879,-0.619812,-0.675537
42408343533,-0.274536,-0.293152,-0.623962,-0.67041
42408359898,-0.27179,-0.297363,-0.628723,-0.665222
42408382456,-0.266602,-0.301514,-0.633972,-0.660461
42408403509,-0.260925,-0.305603,-0.639954,-0.655029
42408427436,-0.257324,-0.310669,-0.646362,-0.647766
42408442416,-0.255554,-0.316895,-0.65271,-0.638977
42408463496,-0.253784,-0.322815,-0.659119,-0.630127
42408479224,-0.252808,-0.328857,-0.665161,-0.620972
42408502385,-0.252869,-0.335449,-0.67041,-0.611694
42408523435,-0.253845,-0.342957,-0.674438,-0.602661
42408539212,-0.255432,-0.35083,-0.677185,-0.59436
42408562353,-0.256714,-0.357544,-0.679626,-0.586975
42408583594,-0.257812,-0.36261,-0.682373,-0.580139
42408599302,-0.257751,-0.36499,-0.685974,-0.574402
42408622475,-0.256287,-0.364197,-0.690308,-0.570312
42408643495,-0.255432,-0.362854,-0.693665,-0.567505
42408659328,-0.256165,-0.362305,-0.69574,-0.564941
42408682463,-0.257385,-0.361816,-0.697571,-0.562378
42408703488,-0.25824,-0.360535,-0.699951,-0.559937
42408719257,-0.257996,-0.357849,-0.702942,-0.558044
42408742455,-0.257812,-0.355347,-0.705444,-0.556519
42408763538,-0.258728,-0.35376,-0.70697,-0.555176
42408779340,-0.260315,-0.352661,-0.708191,-0.553589
42408802525,-0.261475,-0.350952,-0.709717,-0.552124
42408823502,-0.262024,-0.348389,-0.711548,-0.551208
42408839303,-0.262207,-0.345764,-0.713013,-0.550842
42408861816,-0.263306,-0.343872,-0.713806,-0.550415
42408883565,-0.264832,-0.34198,-0.714783,-0.549683
42408899375,-0.265503,-0.338989,-0.716492,-0.54895
42408921712,-0.265564,-0.335876,-0.718384,-0.548401
42408943445,-0.266296,-0.333618,-0.719849,-0.547424
42408959248,-0.268188,-0.332153,-0.721008,-0.545898
42408981722,-0.270569,-0.331116,-0.721802,-0.544312
42409003491,-0.2724,-0.330383,-0.722046,-0.543518
42409019304,-0.273193,-0.329529,-0.721802,-0.543945
42409041817,-0.273926,-0.328979,-0.720947,-0.545044
42409064980,-0.275269,-0.328796,-0.719666,-0.546204
42409079270,-0.276978,-0.328735,-0.718201,-0.547241
42409101767,-0.278076,-0.328491,-0.717224,-0.548157
42409124924,-0.278198,-0.328308,-0.716858,-0.548645
42409139364,-0.277954,-0.329041,-0.716797,-0.548462
42409161768,-0.277832,-0.330933,-0.716614,-0.547607
42409184990,-0.278076,-0.333923,-0.71582,-0.546753
42409199218,-0.278931,-0.337097,-0.715027,-0.545349
42409221744,-0.281189,-0.340698,-0.713745,-0.54364
42409244856,-0.283691,-0.343384,-0.712585,-0.542175
42409265958,-0.284851,-0.343994,-0.712402,-0.541443
42409282394,-0.284546,-0.343262,-0.712769,-0.541565
42409304984,-0.284607,-0.342773,-0.71283,-0.541809
42409326018,-0.285522,-0.342651,-0.712463,-0.541809
42409350000,-0.286865,-0.342407,-0.711914,-0.541992
42409365049,-0.288269,-0.341492,-0.711731,-0.542114
42409379280,-0.289551,-0.339844,-0.711914,-0.542175
42409401786,-0.290894,-0.338013,-0.712158,-0.542297
42409424990,-0.292419,-0.336487,-0.711914,-0.542725
42409439251,-0.293274,-0.335083,-0.71167,-0.543396
42409461823,-0.293335,-0.33374,-0.711792,-0.544067
42409485002,-0.293091,-0.332703,-0.711975,-0.544617
42409499342,-0.293213,-0.332275,-0.711914,-0.544922
42409521742,-0.29364,-0.332458,-0.711609,-0.544983
42409544871,-0.294189,-0.333008,-0.711426,-0.544617
42409565967,-0.294434,-0.333191,-0.711548,-0.544189
42409589905,-0.294495,-0.333252,-0.711731,-0.543823
42409604955,-0.294678,-0.333435,-0.711792,-0.543579
42409625786,-0.294678,-0.333374,-0.711975,-0.543335
42409641863,-0.294617,-0.333008,-0.71228,-0.543213
42409664965,-0.294739,-0.332764,-0.712524,-0.542969
42409686021,-0.295044,-0.332703,-0.712524,-0.542786
42409701724,-0.295715,-0.333008,-0.71228,-0.542603
42409725105,-0.296997,-0.33374,-0.711914,-0.541931
42409746107,-0.298279,-0.333984,-0.711853,-0.541199
42409761787,-0.298584,-0.333252,-0.712219,-0.540955
42409784357,-0.298218,-0.332397,-0.712463,-0.541443
42409805999,-0.298096,-0.332153,-0.712097,-0.542114
42409821775,-0.298645,-0.332642,-0.711365,-0.542419
42409844267,-0.299683,-0.333374,-0.710876,-0.542053
42409867400,-0.300415,-0.333923,-0.710693,-0.541504
42409881736,-0.300415,-0.333923,-0.710693,-0.541504
42409904269,-0.300476,-0.333618,-0.710632,-0.541748
42409926018,-0.301025,-0.333557,-0.710388,-0.54187
42409941869,-0.301147,-0.333252,-0.710327,-0.542053
42409964303,-0.300598,-0.333069,-0.710388,-0.542419
42409987508,-0.300415,-0.333496,-0.710266,-0.542358
42410001752,-0.300842,-0.33429,-0.710022,-0.541931
42410024337,-0.301453,-0.335083,-0.709717,-0.541504
42410047550,-0.301453,-0.335083,-0.709717,-0.541504
42410061820,-0.301331,-0.335083,-0.709534,-0.54187
42410084392,-0.301453,-0.335144,-0.70929,-0.542053
42410107484,-0.301514,-0.334961,-0.70929,-0.542114
42410121872,-0.301331,-0.334595,-0.709412,-0.542236
42410144290,-0.30127,-0.334412,-0.709595,-0.542236
42410167483,-0.30127,-0.334412,-0.709595,-0.542236
42410189932,-0.301453,-0.33429,-0.709778,-0.541992
42410204255,-0.301758,-0.334106,-0.710022,-0.541626
42410227398,-0.301941,-0.333801,-0.710327,-0.541199
42410241767,-0.301941,-0.333679,-0.710632,-0.540955
42410272433,-0.301758,-0.333801,-0.710876,-0.540649
42410287426,-0.301331,-0.333984,-0.710938,-0.540649
42410301746,-0.300903,-0.334534,-0.710876,-0.54071
42410324373,-0.301025,-0.335693,-0.710449,-0.540405
42410347501,-0.301147,-0.336426,-0.710388,-0.539978
42410361781,-0.30072,-0.336487,-0.710754,-0.539734
42410384324,-0.300659,-0.336914,-0.710876,-0.539368
42410407497,-0.30127,-0.337708,-0.710632,-0.538818
42410422356,-0.301941,-0.338318,-0.71051,-0.538147
42410444305,-0.302612,-0.338806,-0.710449,-0.537598
42410467498,-0.303101,-0.339355,-0.710327,-0.53717
42410488554,-0.303223,-0.339539,-0.710327,-0.536926
42410504364,-0.303223,-0.339355,-0.710571,-0.536743
42410527450,-0.303589,-0.339355,-0.710693,-0.536377
42410548276,-0.304321,-0.339844,-0.71051,-0.535828
42410564282,-0.304871,-0.340271,-0.710327,-0.535583
42410587447,-0.304932,-0.34021,-0.710205,-0.535706
42410608489,-0.304688,-0.339478,-0.710388,-0.536011
42410624345,-0.304504,-0.339233,-0.710266,-0.536499
42410647508,-0.303955,-0.339111,-0.710083,-0.537109
42410668551,-0.303162,-0.338867,-0.710083,-0.53772
42410684361,-0.302673,-0.338684,-0.710083,-0.538147
42410707564,-0.302429,-0.338806,-0.709717,-0.538635
42410728543,-0.302429,-0.339294,-0.70929,-0.53894
42410744352,-0.302307,-0.339844,-0.708923,-0.539124
42410766779,-0.301941,-0.340271,-0.708801,-0.539185
42410788601,-0.301514,-0.340759,-0.708801,-0.539185
42410804309,-0.301514,-0.341675,-0.708557,-0.538879
42410826868,-0.301758,-0.342834,-0.708313,-0.538391
42410848455,-0.30188,-0.343933,-0.708252,-0.537659
42410864248,-0.301636,-0.344971,-0.708313,-0.536987
42410886757,-0.30127,-0.346313,-0.708191,-0.536499
42410908555,-0.300659,-0.347839,-0.708008,-0.536133
42410924365,-0.299988,-0.348999,-0.707825,-0.536011
42410946891,-0.298889,-0.34906,-0.707947,-0.536438
42410970029,-0.296753,-0.347473,-0.708374,-0.538025
42410984342,-0.293701,-0.344421,-0.709167,-0.540649
42411006863,-0.289551,-0.340088,-0.710449,-0.543945
42411021840,-0.285767,-0.335815,-0.711975,-0.54657
42411043557,-0.283691,-0.333374,-0.712769,-0.548157
42411057872,-0.282776,-0.331787,-0.713074,-0.549194
42411080500,-0.282104,-0.329956,-0.71344,-0.55011
42411103534,-0.281067,-0.327332,-0.714172,-0.551331
42411117935,-0.279968,-0.324707,-0.714722,-0.552734
42411140453,-0.279236,-0.322388,-0.715149,-0.553894
42411163556,-0.279236,-0.321045,-0.715271,-0.554504
42411177953,-0.280396,-0.321228,-0.714905,-0.554321
42411200490,-0.282349,-0.322449,-0.714233,-0.553467
42411223605,-0.284241,-0.323792,-0.713623,-0.55249
42411237963,-0.285583,-0.324585,-0.713196,-0.551819
42411260309,-0.286011,-0.324463,-0.713318,-0.551575
42411283519,-0.286194,-0.32428,-0.713501,-0.551331
42411297786,-0.286926,-0.325134,-0.713257,-0.55072
42411320354,-0.288391,-0.326843,-0.712646,-0.549744
42411343490,-0.289612,-0.328491,-0.712219,-0.548706
42411357866,-0.290405,-0.32959,-0.712036,-0.547852
42411380364,-0.291138,-0.330688,-0.711853,-0.546997
42411403483,-0.292236,-0.332092,-0.711548,-0.546021
42411417808,-0.293518,-0.333801,-0.710938,-0.545044
42411440427,-0.294312,-0.334961,-0.71051,-0.544495
42411463559,-0.294189,-0.335388,-0.710449,-0.544434
42411477971,-0.293762,-0.33551,-0.71051,-0.544495
42411500483,-0.294006,-0.336182,-0.710388,-0.544067
42411523650,-0.294861,-0.337402,-0.710144,-0.543152
42411537948,-0.295959,-0.338745,-0.709717,-0.542297
42411560390,-0.296814,-0.340027,-0.709167,-0.541687
42411583598,-0.297546,-0.341187,-0.708801,-0.541138
42411597913,-0.297913,-0.341919,-0.70874,-0.540466
42411620452,-0.29834,-0.342529,-0.708801,-0.539795
42411643599,-0.298889,-0.343201,-0.708801,-0.539124
42411657841,-0.299438,-0.343689,-0.708679,-0.538635
42411680402,-0.299805,-0.343811,-0.70874,-0.538269
42411704928,-0.299805,-0.343567,-0.709045,-0.537964
42411717799,-0.299866,-0.343506,-0.709412,-0.537476
42411748490,-0.300293,-0.343872,-0.709595,-0.536743
42411763538,-0.300842,-0.344788,-0.709595,-0.53595
42411777856,-0.301453,-0.345947,-0.709351,-0.535156
42411808573,-0.302002,-0.347046,-0.709045,-0.534485
42411823670,-0.302185,-0.347717,-0.708801,-0.534363
42411837972,-0.302185,-0.347961,-0.708618,-0.534424
42411860488,-0.302185,-0.3479,-0.708618,-0.534424
42411882935,-0.302246,-0.3479,-0.708618,-0.534363
42411897943,-0.302307,-0.3479,-0.708618,-0.534302
42411920442,-0.302551,-0.348328,-0.708435,-0.53418
42411942881,-0.303101,-0.348999,-0.708008,-0.533997
42411957978,-0.303528,-0.349548,-0.707703,-0.533813
42411980416,-0.303528,-0.349609,-0.707703,-0.533813
42412002847,-0.303101,-0.349487,-0.707947,-0.533813
42412017838,-0.302795,-0.349487,-0.708069,-0.533813
42412040380,-0.302795,-0.349731,-0.707947,-0.533752
42412062845,-0.303223,-0.350037,-0.707764,-0.53363
42412086067,-0.303223,-0.350037,-0.707764,-0.53363
42412100500,-0.30304,-0.349487,-0.708008,-0.533691
42412125780,-0.302856,-0.348938,-0.708313,-0.533752
42412137909,-0.302795,-0.348938,-0.708374,-0.533752
42412168535,-0.30304,-0.348694,-0.708374,-0.533752
42412182921,-0.303284,-0.34845,-0.708374,-0.533752
42412197978,-0.303406,-0.348022,-0.708496,-0.533813
42412220428,-0.303406,-0.347473,-0.708679,-0.533936
42412242992,-0.303467,-0.346924,-0.708801,-0.534119
42412257845,-0.303711,-0.346741,-0.70874,-0.53418
42412280466,-0.304077,-0.346497,-0.708679,-0.53418
42412302929,-0.304321,-0.346375,-0.708557,-0.534302
42412317967,-0.304443,-0.34613,-0.708557,-0.534363
42412340411,-0.304443,-0.346191,-0.708557,-0.534363
42412364425,-0.304443,-0.346191,-0.708557,-0.534363
42412377996,-0.304443,-0.346191,-0.708557,-0.534363
42412400412,-0.304565,-0.346375,-0.708374,-0.534363
42412422878,-0.304565,-0.346375,-0.708374,-0.534424
42412437877,-0.304565,-0.346375,-0.708374,-0.534424
42412460376,-0.304565,-0.346375,-0.708374,-0.534424
42412482856,-0.304565,-0.346313,-0.708435,-0.534424
42412497866,-0.304565,-0.346313,-0.708435,-0.534424
42412520439,-0.304565,-0.346313,-0.708374,-0.534363
42412542965,-0.304565,-0.346313,-0.708374,-0.534363
42412557969,-0.304626,-0.346313,-0.708374,-0.534363
42412580437,-0.304626,-0.346313,-0.708374,-0.534363
42412602976,-0.304626,-0.346375,-0.708374,-0.534363
42412617927,-0.304565,-0.346375,-0.708374,-0.534363
42412640449,-0.304626,-0.346313,-0.708374,-0.534363
42412662920,-0.304565,-0.346313,-0.708374,-0.534363
42412679415,-0.304565,-0.346375,-0.708374,-0.534363
42412700472,-0.304626,-0.346375,-0.708374,-0.534363
42412722893,-0.304626,-0.346375,-0.708374,-0.534363
42412739296,-0.304626,-0.346375,-0.708374,-0.534363
42412768670,-0.304626,-0.346375,-0.708374,-0.534363
42412782843,-0.304626,-0.346436,-0.708374,-0.534363
42412799460,-0.304626,-0.346436,-0.708374,-0.534363
42412820466,-0.304626,-0.346436,-0.708374,-0.534363
42412842964,-0.304688,-0.346436,-0.708313,-0.534363
42412859389,-0.304688,-0.346436,-0.708313,-0.534302
42412880479,-0.304993,-0.34668,-0.708191,-0.53418
42412902915,-0.305481,-0.346619,-0.708191,-0.533936
42412920809,-0.306458,-0.346924,-0.707947,-0.533447
42412940352,-0.306519,-0.346985,-0.707947,-0.533447
42412962946,-0.30603,-0.347046,-0.708069,-0.533569
42412979345,-0.305847,-0.347412,-0.708008,-0.533508
42413000358,-0.306091,-0.348022,-0.707825,-0.533203
42413022875,-0.305969,-0.348206,-0.707886,-0.533081
42413039355,-0.305298,-0.348083,-0.708191,-0.533142
42413060509,-0.30481,-0.347961,-0.708374,-0.533264
42413082992,-0.305481,-0.348572,-0.707947,-0.53302
42413099435,-0.306213,-0.349121,-0.707458,-0.532898
42413120381,-0.305969,-0.348877,-0.70752,-0.533142
42413142969,-0.305298,-0.348389,-0.707764,-0.533447
42413159434,-0.305054,-0.348572,-0.707703,-0.533569
42413180461,-0.305481,-0.349121,-0.707397,-0.533386
42413202961,-0.305908,-0.349609,-0.707153,-0.533142
42413219366,-0.305969,-0.349609,-0.707153,-0.533142
42413240475,-0.305969,-0.34967,-0.707153,-0.533142
42413263010,-0.305908,-0.34967,-0.707153,-0.533142
42413279401,-0.305908,-0.34967,-0.707153,-0.533142
42413300455,-0.305786,-0.349548,-0.707336,-0.53302
42413322865,-0.305359,-0.349243,-0.707581,-0.533142
42413339346,-0.305359,-0.349426,-0.707397,-0.533264
42413360421,-0.305847,-0.349976,-0.707092,-0.532959
42413382858,-0.306091,-0.350159,-0.707031,-0.532837
42413399415,-0.305786,-0.350037,-0.707153,-0.532959
42413421857,-0.305603,-0.349915,-0.707153,-0.533142
42413442994,-0.305786,-0.349976,-0.70697,-0.533203
42413459440,-0.306335,-0.350037,-0.706787,-0.533081
42413480452,-0.306763,-0.349731,-0.70697,-0.532837
42413502904,-0.306702,-0.349365,-0.707214,-0.532715
42413519432,-0.306702,-0.349426,-0.707214,-0.532776
42413540469,-0.306824,-0.349792,-0.706848,-0.532898
42413562969,-0.307129,-0.350159,-0.706543,-0.532898
42413579451,-0.307373,-0.350403,-0.70636,-0.532837
42413601823,-0.307373,-0.350403,-0.70636,-0.532837
42413622945,-0.307373,-0.350708,-0.706299,-0.532715
42413639428,-0.307617,-0.351013,-0.706177,-0.532532
42413661891,-0.3078,-0.351196,-0.706116,-0.532349
42413691153,-0.3078,-0.351318,-0.706055,-0.532349
42413699496,-0.307739,-0.351624,-0.705994,-0.532288
42413721904,-0.307678,-0.352112,-0.705933,-0.532104
42413751064,-0.307678,-0.352539,-0.705872,-0.531921
42413759348,-0.307495,-0.352783,-0.705872,-0.53186
42413781847,-0.307434,-0.353088,-0.70575,-0.53186
42413802901,-0.307495,-0.353333,-0.705566,-0.53186
42413819362,-0.3078,-0.353577,-0.705505,-0.531616
42413841839,-0.3078,-0.353577,-0.705505,-0.531616
42413862998,-0.307861,-0.353577,-0.705505,-0.531616
42413879403,-0.3078,-0.353577,-0.705505,-0.531616
42413901851,-0.308167,-0.353943,-0.705261,-0.531433
42413922980,-0.30835,-0.354004,-0.705322,-0.53125
42413939402,-0.30835,-0.354004,-0.705322,-0.53125
42413961962,-0.308411,-0.354309,-0.705261,-0.531067
42413982983,-0.308655,-0.354858,-0.7052,-0.530701
42413999503,-0.308655,-0.355408,-0.705078,-0.530396
42414021886,-0.308655,-0.356018,-0.704956,-0.530212
42414042937,-0.30896,-0.35675,-0.704773,-0.529785
42414059375,-0.309143,-0.357361,-0.704651,-0.52948
42414081922,-0.309204,-0.357971,-0.704468,-0.529297
42414102885,-0.309204,-0.358582,-0.704224,-0.529175
42414119418,-0.309082,-0.359131,-0.704102,-0.528992
42414141826,-0.309021,-0.35968,-0.704102,-0.528748
42414162851,-0.309265,-0.360352,-0.703979,-0.528259
42414179347,-0.309753,-0.361328,-0.703674,-0.527649
42414201799,-0.310425,-0.36261,-0.703308,-0.526917
42414222967,-0.311768,-0.364624,-0.702515,-0.525757
42414239457,-0.313232,-0.36676,-0.701721,-0.524536
42414261878,-0.313965,-0.368225,-0.701355,-0.52356
42414282905,-0.314026,-0.36908,-0.701355,-0.522827
42414305519,-0.313843,-0.369568,-0.701721,-0.522156
42414321823,-0.313843,-0.369995,-0.701904,-0.521545
42414342947,-0.314453,-0.370728,-0.701843,-0.520813
42414359454,-0.315002,-0.371643,-0.701782,-0.519897
42414381924,-0.315308,-0.372803,-0.701782,-0.51886
42414402999,-0.315552,-0.374329,-0.701782,-0.517578
42414419364,-0.316101,-0.37616,-0.701721,-0.516052
42414441874,-0.3172,-0.377808,-0.70166,-0.514221
42414462939,-0.318298,-0.379517,-0.701599,-0.512329
42414479373,-0.319397,-0.381592,-0.701233,-0.51062
42414501953,-0.320129,-0.383606,-0.700867,-0.509155
42414524502,-0.321167,-0.385315,-0.700562,-0.507629
42414539485,-0.322449,-0.386841,-0.700439,-0.505859
42414561867,-0.323669,-0.38855,-0.700256,-0.504028
42414585853,-0.324341,-0.390137,-0.700195,-0.502441
42414599412,-0.324951,-0.391602,-0.700195,-0.500854
42414621909,-0.325623,-0.393433,-0.700012,-0.499329
42414644426,-0.32666,-0.395874,-0.69928,-0.497742
42414659472,-0.327698,-0.398987,-0.697632,-0.496826
42414681968,-0.328003,-0.401733,-0.696106,-0.496582
42414704428,-0.327148,-0.403076,-0.694946,-0.497681
42414720865,-0.32605,-0.403809,-0.693909,-0.499268
42414741885,-0.325195,-0.404846,-0.69281,-0.500427
42414764401,-0.324524,-0.406189,-0.691711,-0.501343
42414780863,-0.324097,-0.407593,-0.690735,-0.501831
42414801827,-0.324585,-0.408997,-0.689758,-0.501709
42414824406,-0.326233,-0.410645,-0.68866,-0.500793
42414840902,-0.32782,-0.412292,-0.687866,-0.499512
42414862573,-0.328735,-0.41333,-0.687622,-0.498352
42414883550,-0.329407,-0.413574,-0.687683,-0.49762
42414906095,-0.329956,-0.412964,-0.688171,-0.497131
42414921095,-0.330627,-0.412354,-0.688721,-0.49646
42414943557,-0.331482,-0.41217,-0.689392,-0.495117
42414966202,-0.333008,-0.412598,-0.689758,-0.493164
42414981126,-0.3349,-0.412964,-0.690186,-0.490967
42415003674,-0.336609,-0.412964,-0.690979,-0.488708
42415026140,-0.337891,-0.412903,-0.691956,-0.486511
42415041176,-0.338684,-0.412781,-0.693237,-0.484253
42415063716,-0.338806,-0.411926,-0.695251,-0.481934
42415086112,-0.338562,-0.411072,-0.697327,-0.479797
42415101116,-0.338318,-0.410278,-0.69928,-0.477783
42415123712,-0.338013,-0.409607,-0.701111,-0.475952
42415146155,-0.337646,-0.409668,-0.702454,-0.474121
42415161158,-0.336914,-0.410461,-0.703552,-0.472412
42415183653,-0.335632,-0.411682,-0.704407,-0.470947
42415206181,-0.334045,-0.413513,-0.704895,-0.469788
42415221202,-0.332947,-0.416016,-0.704651,-0.468628
42415243593,-0.332275,-0.418579,-0.704041,-0.467712
42415266071,-0.331482,-0.420532,-0.703613,-0.467224
42415281105,-0.330322,-0.422119,-0.703308,-0.467102
42415303554,-0.329285,-0.423767,-0.702515,-0.467468
42415326100,-0.329102,-0.425903,-0.70105,-0.467896
42415341087,-0.329712,-0.42804,-0.699219,-0.468262
42415363575,-0.330627,-0.429749,-0.697449,-0.468689
42415386057,-0.331665,-0.431091,-0.695679,-0.469421
42415401057,-0.332703,-0.432129,-0.693909,-0.470337
42415423596,-0.333374,-0.432617,-0.692505,-0.471436
42415446105,-0.333801,-0.4328,-0.691345,-0.472656
42415461105,-0.334412,-0.432922,-0.690308,-0.473694
42415483634,-0.335144,-0.433228,-0.689148,-0.474487
42415499392,-0.336121,-0.433899,-0.687927,-0.474976
42415521125,-0.337097,-0.434814,-0.686768,-0.475159
42415543617,-0.337952,-0.435669,-0.685913,-0.474976
42415559407,-0.338379,-0.436218,-0.685547,-0.474792
42415581213,-0.338562,-0.436523,-0.685303,-0.474609
42415603577,-0.338623,-0.436523,-0.685303,-0.474609
42415619376,-0.338623,-0.436584,-0.685303,-0.474609
42415641122,-0.33844,-0.436646,-0.685425,-0.474487
42415663604,-0.338013,-0.436523,-0.68573,-0.474426
42415679391,-0.337463,-0.436523,-0.685974,-0.474426
42415702520,-0.337219,-0.437012,-0.685852,-0.474365
42415723573,-0.337341,-0.43811,-0.685303,-0.47406
42415739402,-0.337524,-0.439453,-0.684631,-0.473633
42415762563,-0.337463,-0.440735,-0.684143,-0.473267
42415783607,-0.337219,-0.441895,-0.683716,-0.472961
42415799388,-0.336975,-0.442871,-0.683289,-0.472778
42415822553,-0.336731,-0.443542,-0.683105,-0.472656
42415843595,-0.336304,-0.443726,-0.683105,-0.472778
42415860007,-0.335999,-0.443848,-0.682983,-0.473022
42415882588,-0.335876,-0.44397,-0.682739,-0.473328
42415903604,-0.335999,-0.444092,-0.682434,-0.473572
42415919411,-0.335999,-0.443909,-0.682434,-0.473694
42415942528,-0.335815,-0.44342,-0.682739,-0.473938
42415971104,-0.335754,-0.443115,-0.6828,-0.474182
42415979354,-0.335938,-0.443054,-0.682678,-0.474243
42416002570,-0.336243,-0.443176,-0.682495,-0.474243
42416023615,-0.336243,-0.443176,-0.682495,-0.474243
42416039379,-0.336243,-0.443054,-0.682617,-0.474182
42416062573,-0.336182,-0.443054,-0.682617,-0.474182
42416083605,-0.336182,-0.443054,-0.682617,-0.474182
42416106088,-0.336182,-0.442993,-0.682739,-0.47406
42416122545,-0.335876,-0.442627,-0.683105,-0.47406
42416143652,-0.335388,-0.442322,-0.683411,-0.474304
42416159441,-0.335327,-0.442322,-0.683411,-0.474304
42416182577,-0.335876,-0.442932,-0.6828,-0.474182
42416203607,-0.336121,-0.443298,-0.682617,-0.473938
42416219420,-0.335938,-0.443115,-0.682861,-0.473938
42416242357,-0.335876,-0.442932,-0.683044,-0.473877
42416263606,-0.335938,-0.443115,-0.682861,-0.473877
42416279367,-0.336304,-0.443542,-0.682617,-0.473694
42416302566,-0.336487,-0.443909,-0.682434,-0.47345
42416323629,-0.336243,-0.443909,-0.682556,-0.473389
42416339447,-0.335938,-0.443726,-0.6828,-0.473389
42416362545,-0.335938,-0.443665,-0.682861,-0.47345
42416383656,-0.336365,-0.443787,-0.682617,-0.473389
42416399459,-0.336914,-0.443787,-0.682434,-0.473206
42416421885,-0.337097,-0.443237,-0.682678,-0.473328
42416443611,-0.337158,-0.442383,-0.682922,-0.473633
42416459354,-0.337769,-0.442139,-0.682495,-0.47406
42416481918,-0.338745,-0.442261,-0.681885,-0.474121
42416505105,-0.339417,-0.442444,-0.681519,-0.473999
42416519403,-0.339722,-0.442383,-0.681458,-0.473938
42416541892,-0.34021,-0.442627,-0.681213,-0.473755
42416563644,-0.341309,-0.443237,-0.680542,-0.473267
42416579381,-0.342773,-0.444458,-0.679626,-0.472473
42416601937,-0.343933,-0.445923,-0.678711,-0.471497
42416625063,-0.34436,-0.447327,-0.678101,-0.470764
42416639464,-0.344543,-0.448792,-0.677551,-0.470032
42416661933,-0.345032,-0.450317,-0.67688,-0.469116
42416685070,-0.345459,-0.451721,-0.676392,-0.468201
42416699427,-0.345642,-0.45282,-0.676086,-0.467407
42416721882,-0.345825,-0.453735,-0.675842,-0.466797
42416745083,-0.346252,-0.454956,-0.675232,-0.466125
42416759411,-0.346924,-0.456421,-0.6745,-0.465271
42416781989,-0.34729,-0.457764,-0.67395,-0.464539
42416805090,-0.347412,-0.458801,-0.673523,-0.463989
42416819418,-0.347534,-0.4599,-0.673096,-0.46344
42416841952,-0.347778,-0.46106,-0.672485,-0.463013
42416865083,-0.348022,-0.46228,-0.671814,-0.462585
42416879385,-0.347961,-0.46344,-0.671265,-0.462219
42416901855,-0.347839,-0.464478,-0.670898,-0.461853
42416925089,-0.347656,-0.464966,-0.670776,-0.461609
42416939396,-0.347534,-0.465027,-0.670959,-0.461426
42416961926,-0.347168,-0.465149,-0.671448,-0.460815
42416985066,-0.345398,-0.464355,-0.673462,-0.460083
42417006131,-0.342468,-0.462585,-0.676941,-0.458984
42417030109,-0.338562,-0.460205,-0.681458,-0.457581
42417045086,-0.334656,-0.456726,-0.686707,-0.456055
42417066158,-0.330566,-0.452271,-0.692627,-0.454468
42417082377,-0.3255,-0.447693,-0.699402,-0.452271
42417105113,-0.319397,-0.443481,-0.707153,-0.448669
42417126252,-0.312134,-0.439331,-0.716187,-0.443542
42417141918,-0.303284,-0.43512,-0.726379,-0.437195
42417165126,-0.293213,-0.431213,-0.737366,-0.429565
42417186176,-0.281921,-0.427979,-0.748718,-0.420593
42417201913,-0.269897,-0.425659,-0.760132,-0.410217
42417225047,-0.257935,-0.42395,-0.771301,-0.398621
42417246173,-0.246033,-0.422424,-0.782349,-0.386047
42417261922,-0.234558,-0.420776,-0.793091,-0.372925
42417285066,-0.223267,-0.419312,-0.803101,-0.359802
42417306155,-0.212158,-0.418091,-0.812195,-0.34729
42417321961,-0.201843,-0.417175,-0.820251,-0.335449
42417345164,-0.193726,-0.417175,-0.826782,-0.324097
42417366204,-0.187439,-0.417969,-0.831726,-0.313782
42417382045,-0.181824,-0.418945,-0.835632,-0.305298
42417404518,-0.175659,-0.418396,-0.839783,-0.298279
42417426215,-0.169067,-0.415955,-0.844299,-0.292725
42417442013,-0.163086,-0.413025,-0.848511,-0.288025
42417464531,-0.158386,-0.410706,-0.851746,-0.284363
42417486155,-0.155273,-0.409119,-0.853943,-0.281738
42417501951,-0.153259,-0.408325,-0.855225,-0.280212
42417524398,-0.151672,-0.408142,-0.855774,-0.27948
42417547555,-0.150513,-0.408264,-0.856201,-0.278809
42417561887,-0.149902,-0.407288,-0.856934,-0.278198
42417584370,-0.15033,-0.406372,-0.857422,-0.277832
42417607599,-0.15155,-0.406555,-0.857117,-0.277893
42417622008,-0.153015,-0.407166,-0.856567,-0.277771
42417644525,-0.15387,-0.406982,-0.856628,-0.277466
42417667708,-0.154053,-0.406189,-0.857056,-0.277161
42417681961,-0.154358,-0.405457,-0.857483,-0.276794
42417704501,-0.155212,-0.405823,-0.8573,-0.276367
42417727660,-0.156372,-0.407715,-0.856262,-0.276001
42417742016,-0.157532,-0.410034,-0.855103,-0.275696
42417764522,-0.158203,-0.411316,-0.854492,-0.275208
42417787710,-0.158142,-0.41095,-0.854858,-0.274658
42417801927,-0.157837,-0.409607,-0.855713,-0.274048
42417824433,-0.157898,-0.408936,-0.856201,-0.27356
42417847560,-0.158813,-0.409668,-0.855774,-0.273315
42417861874,-0.160095,-0.411011,-0.854919,-0.273193
42417884508,-0.160889,-0.411621,-0.854431,-0.273376
42417915158,-0.16095,-0.410828,-0.854675,-0.273743
42417922023,-0.160889,-0.409363,-0.855164,-0.274353
42417952720,-0.161438,-0.408386,-0.855347,-0.275146
42417967724,-0.162354,-0.408142,-0.85498,-0.276062
42417982006,-0.163391,-0.408142,-0.854431,-0.276978
42418004531,-0.164124,-0.407471,-0.854309,-0.277954
42418027649,-0.164551,-0.406494,-0.854309,-0.279175
42418048733,-0.1651,-0.406555,-0.853821,-0.280273
42418064429,-0.166016,-0.407959,-0.852661,-0.281311
42418087619,-0.166992,-0.410156,-0.851013,-0.282349
42418108644,-0.16803,-0.41333,-0.848999,-0.283264
42418124418,-0.169495,-0.418579,-0.846008,-0.28363
42418147648,-0.171509,-0.426147,-0.841736,-0.283813
42418168782,-0.17395,-0.434753,-0.836853,-0.283752
42418191220,-0.177612,-0.445129,-0.830383,-0.284424
42418207650,-0.182739,-0.459229,-0.82135,-0.285034
42418228776,-0.188049,-0.474182,-0.811462,-0.2854
42418244530,-0.192566,-0.486694,-0.80188,-0.28833
42418267707,-0.198486,-0.496704,-0.79187,-0.294861
42418288770,-0.207336,-0.506165,-0.780579,-0.302734
42418304513,-0.218079,-0.515503,-0.768555,-0.309998
42418327008,-0.22998,-0.520447,-0.758545,-0.317749
42418348655,-0.242188,-0.518921,-0.751831,-0.326965
42418364394,-0.253784,-0.514465,-0.746826,-0.336609
42418386955,-0.264587,-0.51062,-0.741943,-0.344788
42418408633,-0.274658,-0.508057,-0.737,-0.351257
42418424506,-0.283997,-0.507019,-0.731628,-0.356567
42418447094,-0.292542,-0.507446,-0.725891,-0.360657
42418468766,-0.300659,-0.509888,-0.719849,-0.36261
42418484537,-0.307495,-0.51355,-0.714294,-0.362854
42418506980,-0.312744,-0.517456,-0.70929,-0.362549
42418530224,-0.317505,-0.521606,-0.704285,-0.362244
42418544643,-0.321228,-0.524658,-0.700073,-0.36261
42418566977,-0.323914,-0.524902,-0.69812,-0.36377
42418590109,-0.32605,-0.521973,-0.698547,-0.365173
42418604503,-0.328491,-0.518494,-0.699219,-0.366638
42418627052,-0.333008,-0.516541,-0.698059,-0.367615
42418650201,-0.338684,-0.515991,-0.695618,-0.367859
42418664522,-0.344177,-0.515686,-0.693298,-0.367493
42418687065,-0.348694,-0.514709,-0.691895,-0.367371
42418710212,-0.35199,-0.513123,-0.691284,-0.367493
42418723759,-0.354126,-0.510071,-0.692078,-0.368225
42418746291,-0.355225,-0.505859,-0.693787,-0.369629
42418760548,-0.356506,-0.501282,-0.695679,-0.371155
42418783794,-0.358398,-0.497925,-0.696472,-0.372375
42418806279,-0.361267,-0.496643,-0.695557,-0.372986
42418820535,-0.364685,-0.496216,-0.693909,-0.373413
42418843780,-0.366821,-0.495117,-0.693054,-0.374329
42418873573,-0.366577,-0.493286,-0.693726,-0.375671
42418883455,-0.36554,-0.492493,-0.694336,-0.376648
42418903715,-0.365479,-0.493469,-0.693665,-0.376526
42418918093,-0.366211,-0.495056,-0.692749,-0.37561
42418940577,-0.366943,-0.495789,-0.692383,-0.374573
42418963687,-0.367493,-0.495544,-0.692383,-0.374268
42418978138,-0.368103,-0.494873,-0.692505,-0.37439
42419000567,-0.368652,-0.494385,-0.692566,-0.37439
42419024253,-0.368408,-0.494141,-0.692749,-0.374573
42419038100,-0.367554,-0.493591,-0.693359,-0.375
42419060557,-0.366211,-0.492615,-0.694336,-0.375793
42419083775,-0.36499,-0.491394,-0.695251,-0.376831
42419098036,-0.364868,-0.490784,-0.695374,-0.377625
42419120581,-0.365784,-0.490662,-0.694763,-0.378052
42419143742,-0.366882,-0.490662,-0.694031,-0.378235
42419158055,-0.367432,-0.490295,-0.693848,-0.37854
42419180588,-0.36731,-0.489807,-0.69397,-0.37915
42419203730,-0.366943,-0.489319,-0.694153,-0.379761
42419218087,-0.366638,-0.489075,-0.694214,-0.380188
42419240632,-0.366638,-0.489075,-0.694214,-0.380188
42419263764,-0.366516,-0.488831,-0.694214,-0.380676
42419278088,-0.366577,-0.488525,-0.694153,-0.381104
42419300555,-0.367126,-0.488647,-0.693665,-0.381287
42419323677,-0.367737,-0.488953,-0.693115,-0.381409
42419338122,-0.368103,-0.489258,-0.692627,-0.38147
42419360590,-0.368286,-0.489502,-0.692322,-0.381531
42419385201,-0.368591,-0.48999,-0.691833,-0.38147
42419398133,-0.368896,-0.49054,-0.691406,-0.381348
42419420654,-0.369019,-0.490906,-0.690918,-0.381592
42419443043,-0.369202,-0.491089,-0.690491,-0.382019
42419458098,-0.369507,-0.490967,-0.690247,-0.382263
42419480564,-0.369812,-0.490601,-0.690186,-0.382507
42419503048,-0.369873,-0.490173,-0.690369,-0.38269
42419518155,-0.369812,-0.489807,-0.69043,-0.383057
42419540638,-0.36969,-0.48938,-0.690613,-0.383362
42419563108,-0.369812,-0.489075,-0.690735,-0.383484
42419579499,-0.370117,-0.489319,-0.690369,-0.383423
42419600582,-0.370728,-0.490234,-0.689575,-0.383179
42419623096,-0.371216,-0.490967,-0.688965,-0.382874
42419638158,-0.371277,-0.490967,-0.688965,-0.382874
42419660622,-0.371338,-0.491211,-0.688721,-0.382812
42419683092,-0.371704,-0.491577,-0.688416,-0.382568
42419698130,-0.372009,-0.491699,-0.688293,-0.382446
42419720577,-0.372009,-0.491455,-0.688354,-0.382568
42419743073,-0.372009,-0.491516,-0.688293,-0.382568
42419758146,-0.372009,-0.491577,-0.688293,-0.382568
42419780548,-0.371887,-0.491394,-0.688477,-0.382507
42419803094,-0.371582,-0.490967,-0.688843,-0.38269
42419818017,-0.371521,-0.490967,-0.688904,-0.382751
42419840611,-0.371887,-0.491455,-0.688477,-0.382507
42419863101,-0.372009,-0.491699,-0.688232,-0.382446
42419878152,-0.371765,-0.491516,-0.688477,-0.382568
42419900578,-0.371765,-0.491516,-0.688416,-0.382568
42419923164,-0.371948,-0.491821,-0.688171,-0.382446
42419938135,-0.372192,-0.492004,-0.688049,-0.382385
42419960581,-0.372131,-0.492004,-0.687988,-0.382385
42419983142,-0.372437,-0.492188,-0.687927,-0.382019
42419998137,-0.372681,-0.49231,-0.687927,-0.381592
42420020661,-0.372864,-0.492676,-0.687927,-0.380981
42420043078,-0.372864,-0.493347,-0.687866,-0.380127
42420058168,-0.373047,-0.493896,-0.687805,-0.379395
42420080601,-0.373352,-0.493835,-0.68811,-0.378601
42420103133,-0.373657,-0.492798,-0.689026,-0.377991
42420118133,-0.373657,-0.49176,-0.68988,-0.377808
42420140689,-0.373535,-0.49054,-0.690979,-0.377502
42420163129,-0.373108,-0.489014,-0.692444,-0.377258
42420178125,-0.372559,-0.487671,-0.693726,-0.377136
42420200561,-0.372253,-0.486755,-0.694824,-0.376648
42420223112,-0.37146,-0.485657,-0.696289,-0.376099
42420239576,-0.369934,-0.484802,-0.697876,-0.375732
42420260584,-0.367859,-0.483582,-0.700134,-0.375061
42420283086,-0.364807,-0.481445,-0.703796,-0.374084
42420307702,-0.360779,-0.478821,-0.708069,-0.37323
42420320620,-0.356262,-0.476135,-0.712585,-0.372498
42420343019,-0.351196,-0.473572,-0.717163,-0.371704
42420366324,-0.344727,-0.471436,-0.721985,-0.371155
42420380597,-0.336121,-0.469604,-0.726929,-0.371704
42420411223,-0.324707,-0.466919,-0.733093,-0.373108
42420425557,-0.310303,-0.461975,-0.741272,-0.375366
42420448822,-0.292786,-0.455261,-0.75061,-0.379089
42420463111,-0.27356,-0.44928,-0.758789,-0.384338
42420485638,-0.254028,-0.444763,-0.765503,-0.389526
42420500628,-0.234314,-0.440918,-0.771667,-0.394043
42420523084,-0.214172,-0.436096,-0.777832,-0.398804
42420545640,-0.193481,-0.42688,-0.785767,-0.403687
42420560637,-0.172119,-0.414551,-0.7948,-0.40863
42420583123,-0.151306,-0.400391,-0.803955,-0.413025
42420605661,-0.131836,-0.386292,-0.812561,-0.416199
42420620604,-0.114197,-0.373962,-0.819824,-0.418457
42420643071,-0.0996094,-0.366516,-0.82489,-0.418884
42420665523,-0.0853271,-0.356079,-0.831909,-0.417114
42420680513,-0.0708618,-0.343323,-0.839966,-0.414368
42420703051,-0.0575562,-0.331116,-0.846985,-0.411987
42420725480,-0.0477905,-0.32312,-0.851929,-0.409424
42420740597,-0.0394897,-0.317139,-0.856323,-0.405884
42420763066,-0.0297241,-0.310669,-0.860596,-0.402527
42420785612,-0.0200195,-0.305237,-0.864075,-0.399963
42420800644,-0.0117798,-0.301453,-0.866699,-0.3974
42420823186,-0.00457764,-0.298218,-0.868835,-0.395386
42420845594,0.00213623,-0.295593,-0.870117,-0.39447
42420860630,0.00836182,-0.293884,-0.870728,-0.394287
42420883100,0.0136108,-0.291992,-0.871399,-0.394043
42420905620,0.0179443,-0.289795,-0.872314,-0.393494
42420920677,0.0216675,-0.287476,-0.873047,-0.393372
42420943033,0.0245972,-0.285278,-0.873657,-0.393494
42420965563,0.0266724,-0.282776,-0.874512,-0.393311
42420980510,0.0280151,-0.280029,-0.875488,-0.392883
42421003138,0.0285034,-0.278198,-0.876282,-0.392456
42421025641,0.0282593,-0.277588,-0.87677,-0.391907
42421040641,0.0275879,-0.277344,-0.877197,-0.391052
42421063080,0.02771,-0.276367,-0.877991,-0.389893
42421079554,0.0285034,-0.274658,-0.879089,-0.388611
42421100683,0.0290527,-0.27301,-0.880066,-0.387512
42421123141,0.0283813,-0.273499,-0.880188,-0.386963
42421139581,0.0270996,-0.276428,-0.879578,-0.386353
42421162030,0.0259399,-0.279297,-0.87915,-0.385376
42421183164,0.0258179,-0.280273,-0.879333,-0.384155
42421199554,0.0264282,-0.280334,-0.879761,-0.383179
42421221999,0.0265503,-0.280945,-0.879883,-0.382385
42421243116,0.0258179,-0.282349,-0.879883,-0.381531
42421259498,0.0249023,-0.283386,-0.879944,-0.380676
42421282020,0.0244751,-0.28363,-0.880127,-0.379944
42421303130,0.024231,-0.283569,-0.880432,-0.379333
42421319581,0.0236816,-0.283142,-0.88092,-0.378662
42421342054,0.0229492,-0.282898,-0.881226,-0.378174
42421372701,0.0218506,-0.283203,-0.881287,-0.377808
42421379590,0.0202637,-0.284058,-0.881165,-0.377563
42421402032,0.0187988,-0.284424,-0.881165,-0.37738
42421423105,0.0177002,-0.283997,-0.881348,-0.377197
42421439595,0.0167236,-0.283875,-0.881409,-0.377319
42421462096,0.0153809,-0.284424,-0.881165,-0.377502
42421483140,0.0137329,-0.284973,-0.880859,-0.377869
42421499562,0.0119019,-0.285156,-0.880615,-0.378296
42421522083,0.0100708,-0.285278,-0.880432,-0.378784
42421543103,0.00817871,-0.2854,-0.880127,-0.379395
42421559538,0.00604248,-0.285645,-0.879761,-0.380066
42421582089,0.00408936,-0.285095,-0.879639,-0.380737
42421603159,0.00244141,-0.283508,-0.879883,-0.381531
42421619585,0.000854492,-0.281982,-0.880066,-0.382263
42421642046,-0.000976562,-0.28125,-0.880005,-0.382935
42421663123,-0.00262451,-0.280945,-0.879883,-0.383362
42421679554,-0.00372314,-0.280518,-0.879822,-0.383789
42421702048,-0.00445557,-0.280151,-0.879822,-0.384094
42421723093,-0.00500488,-0.279541,-0.879944,-0.384216
42421740982,-0.0057373,-0.279236,-0.879944,-0.38446
42421762012,-0.0065918,-0.279297,-0.879883,-0.384583
42421783115,-0.00750732,-0.279297,-0.879883,-0.384583
42421799599,-0.00872803,-0.279236,-0.879822,-0.384644
42421822088,-0.0105591,-0.279358,-0.8797,-0.384827
42421843073,-0.0128784,-0.279846,-0.879395,-0.385071
42421859517,-0.0159302,-0.280273,-0.879089,-0.385315
42421882098,-0.0195312,-0.279907,-0.878906,-0.385925
42421903178,-0.0234985,-0.280334,-0.878113,-0.387146
42421933859,-0.0287476,-0.283264,-0.876465,-0.388428
42421942126,-0.0357056,-0.287292,-0.874451,-0.389343
42421963182,-0.0440063,-0.290405,-0.872681,-0.390137
42421985711,-0.0535889,-0.29248,-0.870789,-0.391724
42422002042,-0.0641479,-0.294983,-0.868225,-0.39386
42422023148,-0.0751343,-0.300293,-0.864258,-0.396606
42422045678,-0.0879517,-0.3078,-0.859436,-0.398743
42422062110,-0.103088,-0.315002,-0.854736,-0.399597
42422083089,-0.118347,-0.318542,-0.85083,-0.40094
42422105647,-0.131897,-0.320557,-0.846375,-0.404541
42422122056,-0.144897,-0.325867,-0.840149,-0.408813
42422144527,-0.162231,-0.33606,-0.832581,-0.409485
42422165632,-0.178467,-0.346863,-0.825195,-0.408691
42422182044,-0.191956,-0.351257,-0.820374,-0.408569
42422204506,-0.202698,-0.353088,-0.815674,-0.411072
42422225619,-0.213562,-0.358887,-0.809021,-0.413696
42422242018,-0.226135,-0.367737,-0.802063,-0.412781
42422264543,-0.238281,-0.373596,-0.797058,-0.410522
42422293733,-0.248779,-0.376587,-0.792847,-0.409607
42422302004,-0.25824,-0.38147,-0.787354,-0.409912
42422324534,-0.268677,-0.391174,-0.779907,-0.408203
42422345673,-0.278687,-0.398926,-0.774719,-0.40387
42422362059,-0.287292,-0.40271,-0.772095,-0.399048
42422384596,-0.296204,-0.406982,-0.768677,-0.394775
42422405596,-0.307556,-0.416199,-0.761963,-0.389465
42422422034,-0.319519,-0.42865,-0.753784,-0.382202
42422444510,-0.329712,-0.438538,-0.747314,-0.374939
42422465659,-0.336792,-0.445251,-0.742493,-0.370361
42422481980,-0.343628,-0.451355,-0.737488,-0.366516
42422504649,-0.350403,-0.45636,-0.733398,-0.362183
42422525650,-0.35553,-0.459473,-0.73053,-0.35907
42422542123,-0.35968,-0.462952,-0.72699,-0.357605
42422563808,-0.363892,-0.468018,-0.722107,-0.356628
42422586262,-0.368591,-0.474426,-0.716064,-0.35553
42422601265,-0.372681,-0.479004,-0.711426,-0.354553
42422623501,-0.374878,-0.480042,-0.70929,-0.355103
42422646256,-0.376404,-0.480225,-0.70752,-0.35675
42422661229,-0.378357,-0.47937,-0.706482,-0.357849
42422683830,-0.375732,-0.474915,-0.710205,-0.359131
42422706355,-0.371094,-0.470764,-0.714783,-0.360352
42422721390,-0.368103,-0.470215,-0.716431,-0.360901
42422743836,-0.367615,-0.473389,-0.714783,-0.360535
42422766322,-0.368652,-0.476624,-0.712769,-0.359253
42422781322,-0.370117,-0.479126,-0.710999,-0.35791
42422805265,-0.371948,-0.480652,-0.709412,-0.357056
42422826267,-0.373718,-0.480957,-0.708313,-0.356934
42422841257,-0.375366,-0.479858,-0.707886,-0.357605
42422863740,-0.376526,-0.47821,-0.707703,-0.358826
42422886240,-0.377014,-0.476807,-0.707886,-0.359924
42422901017,-0.375854,-0.475342,-0.708984,-0.36084
42422923704,-0.373779,-0.474548,-0.710144,-0.361755
42422946369,-0.372131,-0.474548,-0.710754,-0.362366
42422961330,-0.371887,-0.475159,-0.710327,-0.36261
42422983820,-0.372681,-0.476318,-0.709106,-0.362732
42423006272,-0.373962,-0.477661,-0.707703,-0.362244
42423021295,-0.374695,-0.479065,-0.706665,-0.361755
42423043843,-0.374146,-0.479919,-0.706299,-0.361877
42423066353,-0.372559,-0.480286,-0.706665,-0.362305
42423081336,-0.370789,-0.480408,-0.707275,-0.362793
42423103789,-0.369385,-0.480591,-0.70752,-0.363403
42423126313,-0.368774,-0.480652,-0.707458,-0.364197
42423141223,-0.369141,-0.480469,-0.706848,-0.365234
42423165227,-0.369995,-0.479736,-0.705994,-0.366821
42423186285,-0.371399,-0.478516,-0.705261,-0.36853
42423201262,-0.372681,-0.477173,-0.70459,-0.370239
42423223751,-0.373291,-0.47522,-0.704407,-0.372559
42423246341,-0.373108,-0.472351,-0.704773,-0.37561
42423262810,-0.372925,-0.468811,-0.705566,-0.378662
42423283850,-0.373169,-0.465698,-0.706116,-0.381287
42423306352,-0.374329,-0.463806,-0.705872,-0.382935
42423322814,-0.37561,-0.462585,-0.705505,-0.38385
42423343899,-0.376404,-0.461792,-0.7052,-0.384583
42423366298,-0.377075,-0.461243,-0.705139,-0.384766
42423382820,-0.377869,-0.461182,-0.704895,-0.38446
42423403826,-0.378723,-0.46167,-0.704407,-0.383911
42423419585,-0.379578,-0.462646,-0.703796,-0.382874
42423442784,-0.38031,-0.46405,-0.703247,-0.38147
42423463811,-0.380798,-0.46582,-0.702759,-0.379822
42423479521,-0.381104,-0.467957,-0.702393,-0.377563
42423502691,-0.381531,-0.470886,-0.701904,-0.37439
42423523785,-0.381042,-0.47345,-0.701843,-0.371704
42423546220,-0.379517,-0.474487,-0.702454,-0.37085
42423562722,-0.378235,-0.474182,-0.703308,-0.370911
42423583770,-0.37793,-0.474304,-0.703369,-0.370911
42423606357,-0.378357,-0.475098,-0.702515,-0.371094
42423622784,-0.378845,-0.475769,-0.70166,-0.371338
42423643920,-0.378723,-0.475647,-0.701477,-0.372009
42423659573,-0.378052,-0.47467,-0.702026,-0.372864
42423682689,-0.377686,-0.473938,-0.702637,-0.373047
42423703862,-0.377563,-0.473877,-0.702881,-0.372864
42423727784,-0.377136,-0.473755,-0.703369,-0.372498
42423742778,-0.376526,-0.473694,-0.703857,-0.372131
42423763822,-0.376343,-0.474609,-0.703674,-0.371582
42423786343,-0.376953,-0.476624,-0.702576,-0.370422
42423802761,-0.377686,-0.478149,-0.701965,-0.368958
42423823778,-0.378235,-0.47937,-0.701416,-0.367798
42423846239,-0.37915,-0.480835,-0.700623,-0.366516
42423862704,-0.380737,-0.483276,-0.698914,-0.364868
42423883802,-0.382263,-0.485779,-0.697144,-0.363342
42423906332,-0.382935,-0.487915,-0.696228,-0.361511
42423922724,-0.380737,-0.490662,-0.696533,-0.359497
42423943816,-0.375977,-0.496216,-0.695923,-0.358154
42423966380,-0.370483,-0.503113,-0.693726,-0.358459
42423982743,-0.364075,-0.510437,-0.690308,-0.361328
42424003841,-0.353149,-0.516541,-0.687256,-0.369141
42424026303,-0.338501,-0.52063,-0.685669,-0.379944
42424042185,-0.321289,-0.522583,-0.685669,-0.392029
42424063881,-0.303711,-0.525208,-0.684875,-0.403748
42424086413,-0.285461,-0.527405,-0.684265,-0.415039
42424102081,-0.266907,-0.529785,-0.683533,-0.425476
42424123935,-0.249329,-0.532959,-0.681824,-0.434753
42424146402,-0.233704,-0.53772,-0.678833,-0.4422
42424162129,-0.219055,-0.541565,-0.676514,-0.448486
42424185286,-0.203918,-0.542969,-0.676086,-0.454468
42424206320,-0.188477,-0.543274,-0.676819,-0.459778
42424222115,-0.173218,-0.542236,-0.678101,-0.464966
42424245303,-0.160583,-0.541138,-0.679016,-0.469543
42424266308,-0.152039,-0.540466,-0.680359,-0.47113
42424282065,-0.147705,-0.539795,-0.682434,-0.470337
42424305228,-0.144836,-0.539307,-0.685242,-0.467651
42424326240,-0.141724,-0.537476,-0.689575,-0.464355
42424342043,-0.139648,-0.535645,-0.694275,-0.460144
42424365200,-0.141357,-0.536804,-0.696533,-0.454773
42424386314,-0.144836,-0.53772,-0.698792,-0.449036
42424402051,-0.148315,-0.538879,-0.7005,-0.443909
42424425909,-0.150696,-0.540405,-0.701111,-0.440247
42424446352,-0.15332,-0.542664,-0.700378,-0.437744
42424462157,-0.156921,-0.545044,-0.699219,-0.435242
42424492752,-0.160767,-0.546448,-0.698914,-0.432678
42424506536,-0.163208,-0.546082,-0.700256,-0.429993
42424522132,-0.165344,-0.545227,-0.701904,-0.427673
42424545328,-0.168518,-0.545532,-0.702026,-0.425781
42424566400,-0.172913,-0.546814,-0.700928,-0.424194
42424582157,-0.178589,-0.549194,-0.698975,-0.421875
42424606783,-0.184021,-0.551086,-0.697693,-0.41925
42424626357,-0.187439,-0.550964,-0.698181,-0.417053
42424650295,-0.188904,-0.548462,-0.700562,-0.41571
42424665348,-0.188904,-0.544312,-0.704346,-0.414856
42424686371,-0.188049,-0.540283,-0.707703,-0.414734
42424710352,-0.187439,-0.538147,-0.709656,-0.414429
42424725316,-0.188049,-0.53772,-0.710083,-0.41394
42424746375,-0.18927,-0.538086,-0.7099,-0.413269
42424762075,-0.190674,-0.53772,-0.710144,-0.41272
42424785299,-0.191772,-0.535828,-0.711426,-0.412415
42424806417,-0.191711,-0.530945,-0.714905,-0.412781
42424822199,-0.190796,-0.524658,-0.719116,-0.413879
42424845331,-0.190247,-0.518677,-0.723022,-0.414856
42424866385,-0.19043,-0.513306,-0.726562,-0.415283
42424882129,-0.190552,-0.508972,-0.729187,-0.415955
42424905333,-0.191162,-0.505859,-0.731262,-0.415894
42424927833,-0.192383,-0.5047,-0.732178,-0.4151
42424942198,-0.194153,-0.504639,-0.732422,-0.413879
42424964626,-0.195557,-0.504578,-0.732605,-0.413025
42424986467,-0.196838,-0.504761,-0.732605,-0.41217
42425002076,-0.198547,-0.50531,-0.732239,-0.411316
42425024649,-0.199524,-0.5047,-0.732605,-0.41095
42425046421,-0.199707,-0.502808,-0.733582,-0.411377
42425062099,-0.200073,-0.500732,-0.734497,-0.412109
42425084583,-0.200562,-0.498352,-0.735657,-0.412659
42425106303,-0.200562,-0.496094,-0.737,-0.413147
42425128803,-0.200317,-0.494507,-0.737854,-0.413513
42425144547,-0.200562,-0.494324,-0.737915,-0.413513
42425167501,-0.201233,-0.494629,-0.737671,-0.413269
42425182098,-0.201782,-0.494934,-0.737427,-0.413025
42425204558,-0.202332,-0.4953,-0.737183,-0.412842
42425227780,-0.202332,-0.4953,-0.737183,-0.412842
42425242104,-0.202087,-0.495117,-0.737366,-0.412781
42425264623,-0.201538,-0.494873,-0.73761,-0.412903
42425287749,-0.201355,-0.4953,-0.737427,-0.412842
42425302055,-0.201355,-0.49585,-0.737183,-0.412598
42425324614,-0.201172,-0.496033,-0.737183,-0.412598
42425347824,-0.200928,-0.496216,-0.737,-0.41272
42425362210,-0.200928,-0.496216,-0.737,-0.41272
42425384671,-0.200928,-0.496216,-0.737,-0.41272
42425407867,-0.200928,-0.496216,-0.737,-0.41272
42425422182,-0.200745,-0.496094,-0.737183,-0.412659
42425444676,-0.200745,-0.496033,-0.737183,-0.412659
42425467835,-0.200684,-0.496216,-0.737061,-0.41272
42425488974,-0.200867,-0.496521,-0.736816,-0.41272
42425504710,-0.200867,-0.496521,-0.736816,-0.41272
42425527895,-0.200562,-0.496277,-0.737,-0.412781
42425542183,-0.200317,-0.496155,-0.737122,-0.412842
42425564731,-0.200317,-0.496216,-0.737122,-0.412842
42425587779,-0.200317,-0.496216,-0.737061,-0.412903
42425602104,-0.19989,-0.496094,-0.737244,-0.412903
42425632739,-0.199646,-0.495972,-0.737366,-0.412964
42425647765,-0.199646,-0.495972,-0.737366,-0.412964
42425668801,-0.199585,-0.495789,-0.737549,-0.412964
42425684559,-0.19928,-0.495361,-0.737793,-0.413147
42425707830,-0.198853,-0.495117,-0.737976,-0.41333
42425728848,-0.198853,-0.495117,-0.737976,-0.41333
42425744588,-0.198853,-0.495117,-0.737976,-0.41333
42425767782,-0.198669,-0.494934,-0.738098,-0.413391
42425788848,-0.19873,-0.49469,-0.738037,-0.413818
42425804588,-0.199524,-0.494812,-0.737183,-0.414734
42425827786,-0.200439,-0.494995,-0.736328,-0.415649
42425848932,-0.200623,-0.494507,-0.736145,-0.416504
42425864645,-0.200378,-0.493286,-0.736572,-0.417236
42425887186,-0.200195,-0.491882,-0.737122,-0.417969
42425908899,-0.19989,-0.49054,-0.737427,-0.419189
42425924674,-0.200684,-0.490295,-0.736572,-0.420593
42425947188,-0.203491,-0.492371,-0.734375,-0.420715
42425968834,-0.206909,-0.497009,-0.730774,-0.419861
42425984652,-0.209656,-0.500061,-0.727661,-0.420227
42426007124,-0.211121,-0.501404,-0.725708,-0.421204
42426028827,-0.211304,-0.502258,-0.72406,-0.422974
42426044740,-0.210938,-0.503662,-0.722107,-0.424866
42426067200,-0.210022,-0.505737,-0.71991,-0.426575
42426090374,-0.207031,-0.506531,-0.718628,-0.429321
42426104720,-0.201416,-0.505249,-0.718323,-0.43396
42426127203,-0.19519,-0.504211,-0.716858,-0.440308
42426150370,-0.188232,-0.50415,-0.713806,-0.448303
42426164711,-0.180298,-0.50531,-0.708984,-0.457825
42426187248,-0.171387,-0.506958,-0.703003,-0.468506
42426210277,-0.161682,-0.508667,-0.69574,-0.480835
42426224723,-0.150879,-0.509644,-0.687683,-0.49469
42426247218,-0.139099,-0.509949,-0.679077,-0.509521
42426270291,-0.126099,-0.509399,-0.670166,-0.524963
42426284660,-0.111938,-0.508423,-0.660889,-0.540649
42426307138,-0.0979004,-0.507324,-0.650757,-0.556396
42426330301,-0.0838623,-0.505371,-0.640259,-0.57251
42426344716,-0.0698853,-0.50293,-0.629578,-0.588135
42426367277,-0.0560913,-0.500427,-0.618835,-0.602966
42426390319,-0.0422363,-0.497498,-0.608276,-0.617126
42426403223,-0.0281372,-0.494141,-0.5979,-0.630554
42426426369,-0.0147095,-0.490845,-0.587341,-0.643433
42426440724,-0.00201416,-0.487732,-0.576599,-0.655579
42426463276,0.0106812,-0.484131,-0.566162,-0.667114
42426486448,0.0229492,-0.47998,-0.556274,-0.67804
42426500673,0.0338745,-0.476074,-0.546692,-0.68811
42426523251,0.0430298,-0.472534,-0.537415,-0.697205
42426554380,0.0527954,-0.468384,-0.528687,-0.705994
42426562219,0.0643311,-0.46344,-0.519836,-0.714783
42426583172,0.0753784,-0.458313,-0.51062,-0.723633
42426606515,0.0821533,-0.454834,-0.50061,-0.731995
42426620788,0.0872803,-0.45166,-0.490967,-0.739868
42426643227,0.0947876,-0.447144,-0.481995,-0.747559
42426666510,0.104004,-0.442078,-0.473145,-0.754944
42426680776,0.110962,-0.438416,-0.463501,-0.762085
42426703222,0.11731,-0.435486,-0.453491,-0.768799
42426726506,0.125061,-0.43158,-0.443909,-0.77533
42426740720,0.132263,-0.427856,-0.434509,-0.781494
42426763233,0.138977,-0.426758,-0.4245,-0.786438
42426786266,0.141724,-0.422424,-0.417786,-0.791809
42426800721,0.148071,-0.422607,-0.409302,-0.794983
42426823221,0.154297,-0.416687,-0.403259,-0.800049
42426846437,0.156372,-0.412598,-0.398621,-0.804016
42426860691,0.159302,-0.409668,-0.393677,-0.807373
42426883205,0.162537,-0.407166,-0.388794,-0.810364
42426906503,0.165527,-0.404907,-0.384094,-0.813171
42426920815,0.168518,-0.402893,-0.380127,-0.815369
42426943189,0.171387,-0.400696,-0.37738,-0.817139
42426966455,0.17218,-0.398682,-0.375183,-0.81897
42426980729,0.173523,-0.396606,-0.372864,-0.82074
42427003192,0.176331,-0.394226,-0.37085,-0.822205
42427026304,0.180786,-0.391541,-0.369324,-0.823242
42427048879,0.185059,-0.389099,-0.368225,-0.823914
42427072100,0.188538,-0.387024,-0.367859,-0.82428
42427086482,0.191162,-0.385742,-0.368164,-0.824158
42427100776,0.194824,-0.38446,-0.369263,-0.823364
42427123302,0.19989,-0.382935,-0.370789,-0.822205
42427153667,0.205261,-0.381592,-0.371948,-0.820923
42427163648,0.209473,-0.380859,-0.373108,-0.819702
42427183236,0.21405,-0.380249,-0.374023,-0.81842
42427206491,0.219116,-0.379456,-0.374695,-0.817139
42427220744,0.224426,-0.378662,-0.374878,-0.815979
42427243335,0.230103,-0.377869,-0.374512,-0.814941
42427266399,0.235229,-0.377258,-0.374268,-0.813843
42427280805,0.240051,-0.376648,-0.374146,-0.812744
42427312022,0.244873,-0.375977,-0.373962,-0.811707
42427326508,0.25,-0.375061,-0.373779,-0.810669
42427340688,0.255371,-0.373962,-0.373596,-0.80957
42427363197,0.259766,-0.373291,-0.373474,-0.808594
42427386448,0.262939,-0.373047,-0.373352,-0.807678
42427400730,0.265991,-0.372925,-0.372986,-0.806946
42427423282,0.269165,-0.372314,-0.372498,-0.806396
42427446462,0.272217,-0.371704,-0.371948,-0.805908
42427460748,0.275391,-0.371033,-0.371643,-0.805237
42427483272,0.278687,-0.3703,-0.37146,-0.804565
42427506505,0.281372,-0.369751,-0.370972,-0.804138
42427520682,0.283447,-0.369385,-0.3703,-0.803833
42427543310,0.2854,-0.36908,-0.369995,-0.803467
42427566450,0.286926,-0.368896,-0.369934,-0.802979
42427580837,0.288269,-0.368835,-0.369934,-0.802551
42427603169,0.28949,-0.368835,-0.369934,-0.802124
42427626408,0.290039,-0.369324,-0.369812,-0.801697
42427640755,0.290466,-0.3703,-0.369629,-0.801208
42427663262,0.291199,-0.371216,-0.369568,-0.800537
42427686489,0.291748,-0.371582,-0.369263,-0.800354
42427700751,0.292175,-0.371765,-0.368652,-0.800354
42427723292,0.292236,-0.372253,-0.368103,-0.800354
42427746412,0.292419,-0.372864,-0.367859,-0.80011
42427760818,0.292664,-0.373291,-0.367798,-0.799866
42427783322,0.292419,-0.373657,-0.367615,-0.799866
42427806459,0.291565,-0.374023,-0.367615,-0.800049
42427820796,0.290344,-0.374268,-0.367798,-0.800232
42427843210,0.289307,-0.37439,-0.368042,-0.800476
42427866494,0.288513,-0.374634,-0.368286,-0.800537
42427880755,0.288025,-0.374634,-0.36853,-0.800598
42427904658,0.28717,-0.374756,-0.368652,-0.800781
42427926494,0.285889,-0.374939,-0.368835,-0.801086
42427940771,0.284485,-0.375183,-0.36908,-0.801331
42427963334,0.283142,-0.375488,-0.369385,-0.801575
42427987248,0.281738,-0.375793,-0.369812,-0.801697
42428000823,0.279785,-0.376404,-0.3703,-0.80188
42428023274,0.2771,-0.37738,-0.370605,-0.802246
42428045731,0.27356,-0.378723,-0.370605,-0.802795
42428060763,0.268921,-0.38031,-0.370361,-0.803711
42428083309,0.263428,-0.382019,-0.369812,-0.804993
42428105831,0.257202,-0.383362,-0.36853,-0.806946
42428120794,0.250793,-0.38446,-0.366943,-0.809143
42428143246,0.24585,-0.385315,-0.365906,-0.81073
42428165873,0.242493,-0.385803,-0.365356,-0.811707
42428180771,0.240601,-0.386047,-0.365112,-0.812317
42428203300,0.239136,-0.38623,-0.364929,-0.812744
42428225795,0.237305,-0.386841,-0.364746,-0.813049
42428240726,0.234802,-0.388,-0.365051,-0.81311
42428263156,0.2323,-0.389343,-0.365784,-0.812866
42428285669,0.229431,-0.390625,-0.366577,-0.812683
42428300676,0.226379,-0.391907,-0.367371,-0.812561
42428323245,0.223694,-0.39325,-0.368469,-0.812195
42428345753,0.221558,-0.394592,-0.369873,-0.811462
42428360689,0.219421,-0.396179,-0.371277,-0.810608
42428383207,0.21698,-0.397888,-0.373108,-0.809631
42428405713,0.21405,-0.399719,-0.375732,-0.808289
42428420724,0.210815,-0.402039,-0.379578,-0.806213
42428443215,0.207336,-0.404846,-0.38446,-0.803345
42428465696,0.202698,-0.408569,-0.390259,-0.799866
42428480722,0.196655,-0.413025,-0.397034,-0.795715
42428503285,0.18927,-0.418274,-0.405212,-0.790649
42428525840,0.180359,-0.424805,-0.414307,-0.784485
42428540840,0.171387,-0.431763,-0.424255,-0.777344
42428563322,0.160767,-0.439575,-0.434875,-0.769348
42428585734,0.147583,-0.448242,-0.446228,-0.760437
42428600715,0.132385,-0.457947,-0.458557,-0.750061
42428631489,0.116577,-0.467957,-0.471313,-0.738525
42428645722,0.100708,-0.4776,-0.483887,-0.72644
42428660868,0.0845947,-0.486755,-0.496338,-0.713928
42428683302,0.0678711,-0.495728,-0.509277,-0.700256
42428705805,0.0501709,-0.504883,-0.522522,-0.685303
42428720826,0.0332642,-0.513428,-0.535461,-0.6698
42428743315,0.0183105,-0.519775,-0.548462,-0.654846
42428765836,0.00421143,-0.52356,-0.561829,-0.640564
42428782265,-0.012207,-0.526917,-0.574646,-0.626221
42428803321,-0.0309448,-0.530701,-0.586731,-0.611023
42428825819,-0.0479126,-0.533447,-0.598022,-0.596313
42428842168,-0.06073,-0.533386,-0.609924,-0.583008
42428863297,-0.0722046,-0.531616,-0.621948,-0.570496
42428885816,-0.0861206,-0.530945,-0.63269,-0.557251
42428910468,-0.101624,-0.531921,-0.641357,-0.543579
42428923312,-0.114746,-0.532776,-0.648804,-0.531189
42428945768,-0.12561,-0.532532,-0.655945,-0.520081
42428962228,-0.135132,-0.532593,-0.662292,-0.50946
42428983317,-0.145569,-0.533752,-0.66748,-0.498474
42429013992,-0.155334,-0.534912,-0.672119,-0.487976
42429022232,-0.162292,-0.534546,-0.67688,-0.479431
42429051476,-0.167175,-0.533447,-0.681335,-0.472534
42429065764,-0.171692,-0.532532,-0.685242,-0.466431
42429082286,-0.176392,-0.532471,-0.687988,-0.460632
42429103235,-0.180725,-0.532776,-0.690002,-0.455505
42429125690,-0.184082,-0.532593,-0.691956,-0.451477
42429142174,-0.186707,-0.531677,-0.694214,-0.447876
42429163266,-0.188904,-0.530457,-0.696899,-0.444275
42429185736,-0.190857,-0.52948,-0.699463,-0.440613
42429202147,-0.192932,-0.528931,-0.701538,-0.437012
42429223270,-0.195374,-0.529297,-0.70282,-0.433411
42429245793,-0.197937,-0.530151,-0.703613,-0.429871
42429262207,-0.200745,-0.53125,-0.703918,-0.426758
42429283245,-0.203491,-0.532288,-0.704163,-0.423706
42429305771,-0.206055,-0.532715,-0.704773,-0.420837
42429322260,-0.208313,-0.533325,-0.705139,-0.418335
42429343301,-0.209473,-0.533752,-0.705566,-0.416504
42429365830,-0.208435,-0.533813,-0.706299,-0.415833
42429382237,-0.205872,-0.532959,-0.707458,-0.416199
42429403240,-0.204102,-0.532959,-0.707825,-0.416382
42429425786,-0.204285,-0.534973,-0.706909,-0.415222
42429442349,-0.205078,-0.53717,-0.706177,-0.413208
42429463279,-0.205688,-0.539001,-0.706055,-0.410889
42429485850,-0.204956,-0.539612,-0.706787,-0.409119
42429502277,-0.203796,-0.539795,-0.707825,-0.407593
42429523353,-0.203125,-0.54071,-0.708069,-0.406372
42429545803,-0.203369,-0.542786,-0.707214,-0.405029
42429563708,-0.203674,-0.544678,-0.70636,-0.403687
42429583287,-0.202881,-0.545288,-0.706604,-0.402954
42429607260,-0.201416,-0.544739,-0.707703,-0.402466
42429622344,-0.200012,-0.543701,-0.709045,-0.402161
42429643278,-0.198914,-0.542542,-0.710266,-0.402161
42429665818,-0.197998,-0.541199,-0.711548,-0.402161
42429682174,-0.197327,-0.5401,-0.712585,-0.402222
42429704733,-0.196838,-0.539001,-0.713501,-0.402161
42429733983,-0.196106,-0.537415,-0.714966,-0.4021
42429742211,-0.195312,-0.535706,-0.716431,-0.402161
42429764735,-0.195007,-0.534485,-0.717346,-0.402283
42429785737,-0.19519,-0.533813,-0.717834,-0.402222
42429802189,-0.195312,-0.533325,-0.71814,-0.402283
42429824696,-0.195251,-0.532898,-0.718384,-0.402466
42429845843,-0.195068,-0.532288,-0.718628,-0.402832
42429862188,-0.195129,-0.531738,-0.718872,-0.403137
42429884771,-0.195435,-0.531128,-0.719177,-0.403198
42429914061,-0.195435,-0.530273,-0.719727,-0.403381
42429922189,-0.195007,-0.529358,-0.720337,-0.403625
42429944854,-0.19458,-0.528625,-0.720764,-0.404053
42429974011,-0.194519,-0.528259,-0.720947,-0.404297
42429982272,-0.194458,-0.528015,-0.721069,-0.404419
42430004720,-0.194397,-0.527771,-0.72113,-0.404602
42430025852,-0.194336,-0.527588,-0.721191,-0.404846
42430042200,-0.19397,-0.526978,-0.721497,-0.405212
42430064788,-0.193604,-0.526367,-0.721863,-0.40564
42430085834,-0.193359,-0.525696,-0.722168,-0.406067
42430102190,-0.193237,-0.525085,-0.722412,-0.406433
42430124796,-0.193115,-0.524536,-0.722595,-0.406799
42430154091,-0.193054,-0.524231,-0.722717,-0.407043
42430162299,-0.192993,-0.523926,-0.7229,-0.407166
42430184829,-0.192932,-0.523621,-0.723145,-0.407166
42430205860,-0.192932,-0.523621,-0.723145,-0.407166
42430222288,-0.192932,-0.523621,-0.723145,-0.407166
42430244737,-0.192932,-0.523682,-0.723083,-0.407166
42430266412,-0.19281,-0.523499,-0.723206,-0.407227
42430281404,-0.192566,-0.523254,-0.723389,-0.407349
42430303882,-0.192383,-0.523132,-0.723389,-0.407593
42430326395,-0.192261,-0.522949,-0.72345,-0.407837
42430342830,-0.192139,-0.522705,-0.723572,-0.407959
42430363955,-0.191895,-0.522461,-0.723694,-0.408081
42430386437,-0.191895,-0.522461,-0.723694,-0.408081
42430401390,-0.191895,-0.522461,-0.723694,-0.408142
42430423992,-0.192017,-0.5224,-0.723755,-0.408081
42430446427,-0.192261,-0.522278,-0.723755,-0.408081
42430461466,-0.192261,-0.522278,-0.723816,-0.408081
42430485382,-0.192261,-0.522278,-0.723816,-0.408081
42430506408,-0.192261,-0.521973,-0.723938,-0.408142
42430521456,-0.1922,-0.52179,-0.72406,-0.408264
42430543907,-0.192261,-0.521545,-0.724121,-0.408447
42430566872,-0.192261,-0.521301,-0.724243,-0.408569
42430581440,-0.192261,-0.521057,-0.724304,-0.40863
42430603905,-0.192261,-0.521057,-0.724304,-0.40863
42430626460,-0.192261,-0.521057,-0.724304,-0.408691
42430641404,-0.192261,-0.521057,-0.724304,-0.40863
42430663929,-0.192261,-0.521057,-0.724304,-0.40863
42430686476,-0.192261,-0.521057,-0.724304,-0.40863
42430701410,-0.192261,-0.521057,-0.724304,-0.408691
42430723970,-0.1922,-0.521057,-0.724304,-0.408691
42430746467,-0.1922,-0.521057,-0.724304,-0.408691
42430761432,-0.192261,-0.521057,-0.724304,-0.408691
42430784024,-0.192627,-0.521301,-0.72406,-0.40863
42430806453,-0.193542,-0.522034,-0.723267,-0.40863
42430821465,-0.195374,-0.523193,-0.721924,-0.408691
42430843957,-0.198425,-0.523987,-0.720154,-0.409363
42430866455,-0.201172,-0.523865,-0.719055,-0.410095
42430882852,-0.204102,-0.523743,-0.71759,-0.411377
42430903932,-0.207153,-0.524841,-0.715088,-0.412781
42430926417,-0.210693,-0.529236,-0.710388,-0.413513
42430942913,-0.213989,-0.534607,-0.705139,-0.413818
42430971447,-0.21637,-0.538208,-0.70105,-0.414856
42430986462,-0.21637,-0.538879,-0.698914,-0.417603
42431002848,-0.213135,-0.537231,-0.698486,-0.422119
42431023941,-0.207458,-0.535339,-0.697998,-0.428101
42431046449,-0.201111,-0.534546,-0.696106,-0.435181
42431062891,-0.194641,-0.535278,-0.692139,-0.443481
42431083969,-0.187805,-0.537354,-0.686157,-0.453125
42431106421,-0.179871,-0.539734,-0.67926,-0.463745
42431122875,-0.170227,-0.541382,-0.672363,-0.475342
42431143940,-0.158142,-0.541626,-0.665955,-0.488098
42431166434,-0.144165,-0.540588,-0.659729,-0.501892
42431182864,-0.129089,-0.539185,-0.652832,-0.516296
42431203973,-0.113647,-0.537903,-0.64502,-0.530884
42431226454,-0.0982056,-0.536682,-0.636292,-0.545471
42431242916,-0.0825806,-0.535339,-0.62677,-0.560242
42431263935,-0.0665894,-0.533081,-0.617004,-0.575195
42431286461,-0.0509644,-0.529907,-0.607117,-0.590088
42431302883,-0.0358276,-0.526489,-0.596863,-0.604431
42431323974,-0.0205078,-0.523071,-0.586243,-0.618408
42431346465,-0.00384521,-0.518799,-0.575684,-0.632141
42431362885,0.0133667,-0.513428,-0.565491,-0.645386
42431383933,0.0289307,-0.508362,-0.555298,-0.657654
42431407908,0.0429077,-0.503601,-0.544983,-0.669067
42431422877,0.0565796,-0.498535,-0.53479,-0.679993
42431443966,0.0709229,-0.492859,-0.524719,-0.690552
42431466472,0.085022,-0.487183,-0.515015,-0.700195
42431482864,0.0974121,-0.482117,-0.505493,-0.708984
42431503951,0.107727,-0.477844,-0.49585,-0.717102
42431527857,0.118103,-0.473511,-0.486633,-0.724609
42431542881,0.130127,-0.468994,-0.477905,-0.731323
42431564146,0.14209,-0.466553,-0.46875,-0.736511
42431586492,0.150024,-0.459167,-0.463013,-0.743225
42431602234,0.158386,-0.458923,-0.453796,-0.747314
42431623962,0.169434,-0.454285,-0.445374,-0.752747
42431646472,0.17749,-0.447632,-0.439636,-0.75824
42431662242,0.185791,-0.442078,-0.433533,-0.763
42431683936,0.192871,-0.437378,-0.427429,-0.767395
42431706435,0.199097,-0.432861,-0.422058,-0.771301
42431722242,0.204773,-0.428162,-0.416931,-0.775269
42431743969,0.210571,-0.42334,-0.411499,-0.779236
42431766456,0.216187,-0.418701,-0.405762,-0.783203
42431782216,0.22168,-0.414062,-0.400085,-0.787048
42431805361,0.226929,-0.409302,-0.394958,-0.790588
42431826479,0.231873,-0.404236,-0.390137,-0.794189
42431842285,0.236816,-0.399414,-0.385803,-0.797302
42431865430,0.241821,-0.394958,-0.382263,-0.799683
42431886477,0.246582,-0.39093,-0.379272,-0.801636
42431902226,0.250305,-0.387329,-0.376831,-0.803345
42431925412,0.253723,-0.384216,-0.375,-0.804626
42431946442,0.256775,-0.38092,-0.373596,-0.805908
42431962255,0.259949,-0.377563,-0.372803,-0.806824
42431985442,0.263489,-0.374512,-0.372742,-0.807129
42432006477,0.267761,-0.371399,-0.37323,-0.806946
42432022250,0.27179,-0.36853,-0.373962,-0.80658
42432045378,0.274658,-0.366577,-0.374634,-0.806213
42432067905,0.276184,-0.365112,-0.375122,-0.806091
42432082300,0.277344,-0.363953,-0.374939,-0.806274
42432105433,0.279236,-0.362671,-0.374084,-0.806641
42432126526,0.282227,-0.36084,-0.373047,-0.806885
42432142256,0.2854,-0.358398,-0.371704,-0.807434
42432165451,0.287659,-0.355774,-0.3703,-0.808472
42432186583,0.289978,-0.352905,-0.36908,-0.809448
42432202252,0.292664,-0.350098,-0.367737,-0.810303
42432225451,0.294678,-0.347595,-0.366272,-0.81134
42432246476,0.296997,-0.345215,-0.365112,-0.812012
42432262296,0.298828,-0.34314,-0.364258,-0.812622
42432285447,0.300293,-0.341431,-0.363342,-0.813171
42432306547,0.30249,-0.339233,-0.362915,-0.813477
42432330446,0.304626,-0.336792,-0.362671,-0.813843
42432345390,0.306152,-0.334717,-0.362732,-0.814087
42432366530,0.307495,-0.333069,-0.363342,-0.813965
42432382262,0.308838,-0.331482,-0.364441,-0.813599
42432405455,0.309631,-0.3302,-0.365417,-0.813416
42432426578,0.310425,-0.329163,-0.366089,-0.813232
42432442289,0.311218,-0.328369,-0.367004,-0.812866
42432465472,0.312256,-0.327515,-0.367798,-0.812439
42432486525,0.313354,-0.326477,-0.368103,-0.812256
42432502356,0.314392,-0.3255,-0.368042,-0.812317
42432524879,0.315308,-0.324829,-0.36792,-0.812256
42432546450,0.315857,-0.324341,-0.367737,-0.812378
42432562341,0.316223,-0.323669,-0.367554,-0.8125
42432584799,0.316467,-0.322876,-0.367554,-0.812744
42432606549,0.316528,-0.322388,-0.367737,-0.812805
42432622341,0.317078,-0.322205,-0.368103,-0.812561
42432644890,0.318115,-0.322266,-0.368164,-0.812073
42432666498,0.318237,-0.322205,-0.367737,-0.812256
42432682345,0.31781,-0.322205,-0.367188,-0.812683
42432704861,0.317993,-0.322266,-0.367065,-0.812622
42432728019,0.318848,-0.322021,-0.367249,-0.812317
42432742322,0.31958,-0.322021,-0.36731,-0.812012
42432764873,0.319885,-0.322327,-0.367126,-0.811829
42432788035,0.319946,-0.32251,-0.367004,-0.811768
42432802315,0.319946,-0.322571,-0.366821,-0.811829
42432824820,0.320496,-0.322754,-0.366638,-0.811584
42432848031,0.321411,-0.322998,-0.36676,-0.811096
42432862278,0.322021,-0.323303,-0.366699,-0.810791
42432884789,0.322205,-0.323425,-0.366455,-0.810791
42432907968,0.32196,-0.323669,-0.366272,-0.810852
42432922305,0.321594,-0.323853,-0.366516,-0.810791
42432944833,0.321533,-0.323792,-0.367065,-0.810608
42432967978,0.321228,-0.323792,-0.367676,-0.810486
42432982397,0.32019,-0.323975,-0.368408,-0.810486
42433004768,0.318848,-0.32428,-0.369141,-0.810547
42433027988,0.317505,-0.324585,-0.369812,-0.810608
42433042267,0.31604,-0.32489,-0.370605,-0.81073
42433064896,0.314148,-0.325378,-0.371399,-0.810913
42433087988,0.311768,-0.326172,-0.372253,-0.811096
42433102286,0.309021,-0.327148,-0.373291,-0.811279
42433124853,0.305786,-0.328552,-0.374573,-0.81134
42433147978,0.302429,-0.330139,-0.375916,-0.81134
42433168998,0.298462,-0.331665,-0.377502,-0.811462
42433184746,0.294434,-0.333191,-0.37915,-0.811584
42433208032,0.290283,-0.334229,-0.38092,-0.811768
42433229023,0.285645,-0.335571,-0.382446,-0.812134
42433244821,0.280823,-0.337341,-0.383789,-0.8125
42433267963,0.276123,-0.339417,-0.384888,-0.812683
42433289034,0.27179,-0.341675,-0.386169,-0.812622
42433304771,0.2677,-0.344177,-0.387512,-0.812256
42433327975,0.264282,-0.347046,-0.389038,-0.811462
42433349058,0.260681,-0.350708,-0.390442,-0.810364
42433364811,0.256653,-0.355164,-0.392395,-0.808777
42433388004,0.253052,-0.360229,-0.395264,-0.806274
42433409055,0.250488,-0.366394,-0.398987,-0.802429
42433424781,0.247681,-0.373779,-0.402771,-0.797974
42433455501,0.243713,-0.382202,-0.406555,-0.793274
42433469100,0.23877,-0.390991,-0.411072,-0.788208
42433484814,0.232544,-0.399597,-0.416626,-0.782776
42433507268,0.22522,-0.408203,-0.422791,-0.777161
42433529049,0.217163,-0.416626,-0.42926,-0.771423
42433544855,0.208008,-0.424561,-0.436218,-0.765686
42433567306,0.197205,-0.432617,-0.443359,-0.759888
42433588997,0.186218,-0.440369,-0.45166,-0.753296
42433604752,0.177551,-0.44696,-0.461426,-0.745605
42433627242,0.168884,-0.452087,-0.471313,-0.738281
42433650392,0.157471,-0.457642,-0.47998,-0.73175
42433664771,0.143799,-0.463928,-0.488342,-0.725098
42433687389,0.130127,-0.470032,-0.497498,-0.717468
42433710430,0.117188,-0.474976,-0.507202,-0.709595
42433731509,0.103577,-0.479187,-0.517151,-0.701599
42433747274,0.0887451,-0.483398,-0.527466,-0.692993
42433770483,0.0740967,-0.487488,-0.538635,-0.683228
42433784737,0.0603638,-0.490662,-0.550171,-0.673096
42433807271,0.0463257,-0.493286,-0.561462,-0.662903
42433830458,0.0314941,-0.495422,-0.572754,-0.652405
42433844865,0.0160522,-0.497742,-0.584106,-0.641052
42433867269,0.00189209,-0.499939,-0.595398,-0.629028
42433890464,-0.0106812,-0.501587,-0.606506,-0.616821
42433904864,-0.0231323,-0.503479,-0.616943,-0.604492
42433927411,-0.0361328,-0.505249,-0.626831,-0.592102
42433950539,-0.0501709,-0.507507,-0.635376,-0.579956
42433971548,-0.0640869,-0.510254,-0.642761,-0.567932
42433987401,-0.0757446,-0.512329,-0.650208,-0.555969
42434010943,-0.0844116,-0.512878,-0.657776,-0.545227
42434031563,-0.0930786,-0.513611,-0.664124,-0.535278
42434055544,-0.103455,-0.515625,-0.668823,-0.525574
42434070539,-0.114136,-0.517639,-0.673218,-0.515625
42434091569,-0.122986,-0.518677,-0.678162,-0.506042
42434107391,-0.129883,-0.518372,-0.683105,-0.497864
42434120926,-0.135742,-0.517822,-0.687866,-0.490295
42434143420,-0.142151,-0.517395,-0.6922,-0.482788
42434166476,-0.14917,-0.517212,-0.695801,-0.475586
42434180830,-0.155518,-0.517578,-0.698486,-0.469238
42434203412,-0.160339,-0.518127,-0.7005,-0.463928
42434234827,-0.164734,-0.518372,-0.702454,-0.459106
42434240981,-0.169006,-0.518494,-0.704346,-0.454529
42434263429,-0.172607,-0.518433,-0.706116,-0.4505
42434287074,-0.174988,-0.518555,-0.707458,-0.447388
42434300836,-0.177063,-0.519165,-0.70813,-0.444763
42434323466,-0.179626,-0.520264,-0.708313,-0.442139
42434346524,-0.182373,-0.521179,-0.708679,-0.439392
42434360946,-0.184387,-0.521362,-0.709717,-0.436646
42434383450,-0.185303,-0.520996,-0.711182,-0.434204
42434406575,-0.185974,-0.521667,-0.711731,-0.43219
42434420917,-0.186035,-0.522278,-0.711914,-0.431213
42434444110,-0.185852,-0.522583,-0.711853,-0.430969
42434466599,-0.185974,-0.523254,-0.711609,-0.430542
42434480900,-0.185913,-0.523499,-0.711853,-0.429871
42434503416,-0.186096,-0.52301,-0.712708,-0.428955
42434526616,-0.186401,-0.522217,-0.713928,-0.427795
42434549058,-0.186646,-0.521179,-0.715454,-0.426392
42434563378,-0.187378,-0.520386,-0.716858,-0.424683
42434586583,-0.187988,-0.519531,-0.718384,-0.422852
42434600909,-0.187439,-0.518433,-0.720032,-0.421631
42434623492,-0.185852,-0.516602,-0.721802,-0.421509
42434646650,-0.184814,-0.515076,-0.723022,-0.421814
42434660935,-0.185364,-0.515076,-0.723022,-0.42157
42434684918,-0.186279,-0.515442,-0.722839,-0.421021
42434706658,-0.186279,-0.514587,-0.723572,-0.420776
42434720933,-0.185181,-0.512451,-0.725098,-0.421204
42434743447,-0.183838,-0.510193,-0.726501,-0.42218
42434766630,-0.182617,-0.508057,-0.727783,-0.422974
42434780967,-0.181824,-0.506531,-0.728821,-0.423401
42434803455,-0.181641,-0.50592,-0.729309,-0.423462
42434826616,-0.181702,-0.505798,-0.729431,-0.423279
42434840920,-0.181335,-0.50592,-0.729553,-0.423157
42434863466,-0.180542,-0.50592,-0.729736,-0.423157
42434886517,-0.179993,-0.506042,-0.729736,-0.423218
42434900833,-0.179749,-0.506409,-0.729492,-0.42334
42434923498,-0.179626,-0.506836,-0.729126,-0.423523
42434946665,-0.179443,-0.506958,-0.729004,-0.423645
42434960974,-0.179077,-0.506592,-0.729248,-0.423706
42434983519,-0.17865,-0.505981,-0.729736,-0.423828
42435006578,-0.178223,-0.505493,-0.730164,-0.423889
42435020916,-0.178223,-0.505493,-0.730164,-0.423889
42435043504,-0.178162,-0.505554,-0.730164,-0.423889
42435066630,-0.178162,-0.505554,-0.730164,-0.423889
42435081005,-0.178162,-0.505554,-0.730164,-0.423889
42435103396,-0.178162,-0.505432,-0.730286,-0.423767
42435126598,-0.178101,-0.505432,-0.730286,-0.423767
42435140908,-0.178101,-0.505432,-0.730286,-0.423828
42435163473,-0.178101,-0.505432,-0.730286,-0.423828
42435186409,-0.178101,-0.505432,-0.730286,-0.423828
42435200961,-0.177917,-0.505249,-0.730225,-0.424194
42435223499,-0.178345,-0.50531,-0.729858,-0.424561
42435246656,-0.178955,-0.505798,-0.72937,-0.424561
42435261003,-0.179382,-0.506409,-0.728943,-0.424438
42435283489,-0.179626,-0.507263,-0.728516,-0.424011
42435306660,-0.180115,-0.508423,-0.727966,-0.42334
42435320863,-0.180542,-0.509644,-0.727478,-0.422607
42435343481,-0.180847,-0.510803,-0.726929,-0.421997
42435366610,-0.180908,-0.512146,-0.726196,-0.421509
42435380922,-0.180847,-0.513489,-0.725464,-0.421265
42435403442,-0.180786,-0.514893,-0.724609,-0.421021
42435426654,-0.180969,-0.516296,-0.723755,-0.420654
42435440952,-0.180908,-0.517029,-0.723328,-0.420532
42435463446,-0.180603,-0.516968,-0.72345,-0.420532
42435486599,-0.180115,-0.516479,-0.723999,-0.420471
42435500966,-0.17981,-0.515869,-0.724548,-0.420349
42435523530,-0.17981,-0.515869,-0.724548,-0.420349
42435545924,-0.179932,-0.516113,-0.724304,-0.42041
42435560995,-0.179993,-0.516479,-0.72406,-0.42041
42435583439,-0.179993,-0.516724,-0.723877,-0.420288
42435605905,-0.179932,-0.516907,-0.723877,-0.420166
42435620981,-0.179871,-0.516907,-0.723877,-0.420227
42435643488,-0.179871,-0.516907,-0.723877,-0.420227
42435667416,-0.179871,-0.516907,-0.723877,-0.420227
42435680918,-0.17981,-0.516846,-0.723877,-0.420288
42435703480,-0.179993,-0.517029,-0.723816,-0.420166
42435725972,-0.180176,-0.517212,-0.723694,-0.419983
42435740937,-0.180237,-0.517212,-0.723694,-0.419983
42435763478,-0.180237,-0.517273,-0.723694,-0.419922
42435785934,-0.180298,-0.517273,-0.723694,-0.419922
42435800922,-0.180359,-0.517761,-0.723511,-0.419617
42435823479,-0.180298,-0.518433,-0.723145,-0.419434
42435845911,-0.180298,-0.519043,-0.722778,-0.41925
42435860955,-0.180298,-0.519409,-0.722595,-0.419128
42435883538,-0.180298,-0.51947,-0.722595,-0.419128
42435905934,-0.180298,-0.519409,-0.722595,-0.419128
42435920954,-0.180481,-0.51947,-0.722473,-0.419128
42435943517,-0.180725,-0.519592,-0.722412,-0.419067
42435965948,-0.180969,-0.519531,-0.722412,-0.419067
42435980946,-0.181274,-0.51947,-0.72229,-0.419128
42436003498,-0.181641,-0.51947,-0.722229,-0.419189
42436025909,-0.181641,-0.51947,-0.722229,-0.419128
42436040946,-0.181702,-0.51947,-0.722229,-0.419128
42436063453,-0.181702,-0.519531,-0.722168,-0.419128
42436085859,-0.181396,-0.51947,-0.722229,-0.41925
42436100893,-0.181335,-0.51947,-0.722229,-0.41925
42436123376,-0.181458,-0.51947,-0.721985,-0.419617
42436145822,-0.182068,-0.51947,-0.721619,-0.419983
42436160858,-0.183289,-0.519836,-0.721008,-0.420044
42436183409,-0.186157,-0.522644,-0.718689,-0.419373
42436205887,-0.189697,-0.52594,-0.715393,-0.419189
42436220830,-0.19281,-0.529114,-0.712158,-0.41925
42436243394,-0.194397,-0.529846,-0.710938,-0.419617
42436265875,-0.194153,-0.527527,-0.711548,-0.421753
42436280869,-0.193726,-0.525208,-0.711243,-0.425232
42436303385,-0.194885,-0.524292,-0.709717,-0.428467
42436325915,-0.197266,-0.525818,-0.70636,-0.43103
42436342453,-0.197205,-0.527588,-0.703003,-0.434387
42436363533,-0.193542,-0.528564,-0.699951,-0.439697
42436385941,-0.187439,-0.52887,-0.697205,-0.446289
42436402364,-0.179993,-0.528748,-0.694153,-0.454163
42436423451,-0.172241,-0.528992,-0.690002,-0.463257
42436445955,-0.164124,-0.529846,-0.68457,-0.473083
42436462392,-0.155151,-0.530762,-0.678772,-0.483337
42436483456,-0.144409,-0.530823,-0.673279,-0.494141
42436505983,-0.132446,-0.530273,-0.66748,-0.505798
42436522442,-0.119995,-0.529968,-0.6604,-0.518372
42436543530,-0.106995,-0.530151,-0.651978,-0.531555
42436565888,-0.0931396,-0.529907,-0.643066,-0.545105
42436589943,-0.0784302,-0.528748,-0.633789,-0.559143
42436603448,-0.0629883,-0.526855,-0.624451,-0.573242
42436626019,-0.0472412,-0.524597,-0.614685,-0.58728
42436642464,-0.0310059,-0.521729,-0.604553,-0.601196
42436663499,-0.0145874,-0.518555,-0.593872,-0.615051
42436685942,0.000610352,-0.515625,-0.582275,-0.628662
42436702385,0.0150146,-0.512878,-0.570129,-0.641724
42436723468,0.0300293,-0.509338,-0.558228,-0.654297
42436746009,0.0457764,-0.505066,-0.546631,-0.666443
42436762378,0.0612183,-0.500305,-0.535278,-0.677917
42436783518,0.0758667,-0.495178,-0.524109,-0.688782
42436805965,0.0883179,-0.490479,-0.512634,-0.699219
42436823686,0.0993652,-0.486267,-0.501099,-0.708984
42436843508,0.111145,-0.481873,-0.489807,-0.718079
42436865961,0.123718,-0.477295,-0.478394,-0.726746
42436882590,0.135193,-0.470703,-0.468628,-0.735291
42436903392,0.145203,-0.468323,-0.457214,-0.742065
42436925968,0.148071,-0.463806,-0.449829,-0.74884
42436942356,0.153931,-0.464172,-0.44104,-0.752563
42436963399,0.165039,-0.460327,-0.432556,-0.757507
42436986002,0.173523,-0.456299,-0.425415,-0.762085
42437002378,0.180115,-0.452393,-0.419373,-0.766235
42437023526,0.185547,-0.448669,-0.413574,-0.770264
42437045938,0.19104,-0.444641,-0.408325,-0.774048
42437062390,0.197083,-0.440491,-0.40332,-0.777527
42437083503,0.204529,-0.435913,-0.398071,-0.780884
42437105999,0.211914,-0.431396,-0.392944,-0.783997
42437122461,0.218506,-0.427246,-0.388306,-0.786804
42437143490,0.224182,-0.423523,-0.384583,-0.789001
42437166020,0.230774,-0.419373,-0.381348,-0.790894
42437182424,0.238281,-0.4151,-0.378174,-0.792419
42437203465,0.245422,-0.411255,-0.375305,-0.79364
42437226005,0.251465,-0.408081,-0.372925,-0.794495
42437242446,0.256958,-0.404846,-0.371399,-0.795105
42437264852,0.261475,-0.401917,-0.370178,-0.795715
42437285962,0.266052,-0.399414,-0.369263,-0.795898
42437302392,0.270447,-0.397583,-0.368713,-0.795593
42437324854,0.27301,-0.396729,-0.368469,-0.795227
42437345948,0.274902,-0.396179,-0.368469,-0.794861
42437362394,0.278198,-0.394775,-0.368347,-0.794434
42437384917,0.282532,-0.392578,-0.368225,-0.794067
42437406003,0.286743,-0.39032,-0.36792,-0.793823
42437422409,0.290405,-0.388184,-0.367432,-0.793762
42437444990,0.294373,-0.386292,-0.366577,-0.79364
42437465940,0.298706,-0.384094,-0.365662,-0.793457
42437482425,0.30304,-0.381653,-0.364502,-0.793579
42437504912,0.305908,-0.379333,-0.363342,-0.794128
42437525974,0.3078,-0.377319,-0.362488,-0.794739
42437542434,0.309631,-0.375549,-0.361816,-0.795166
42437564931,0.312378,-0.37323,-0.361389,-0.79541
42437585987,0.315308,-0.37085,-0.360535,-0.795715
42437602360,0.317627,-0.368652,-0.359802,-0.796143
42437624930,0.319275,-0.367126,-0.359558,-0.796265
42437645947,0.320679,-0.366394,-0.359863,-0.795898
42437662372,0.322632,-0.365784,-0.360535,-0.795105
42437684871,0.324402,-0.365295,-0.361084,-0.794373
42437705942,0.325806,-0.365112,-0.361572,-0.79364
42437722462,0.326965,-0.365173,-0.362183,-0.792847
42437744929,0.328064,-0.364929,-0.362732,-0.792297
42437765910,0.328491,-0.364685,-0.362915,-0.792114
42437782365,0.328064,-0.364685,-0.362976,-0.792297
42437804881,0.327637,-0.364563,-0.363342,-0.792358
42437826055,0.327026,-0.364441,-0.36377,-0.792419
42437842386,0.326416,-0.364136,-0.364014,-0.792725
42437864922,0.325623,-0.363953,-0.363892,-0.793213
42437885961,0.32489,-0.363892,-0.363831,-0.793579
42437902432,0.324341,-0.36377,-0.363892,-0.793823
42437924991,0.323425,-0.364014,-0.364197,-0.793945
42437945967,0.322388,-0.364807,-0.364624,-0.793762
42437962470,0.321655,-0.365601,-0.365112,-0.793518
42437984284,0.321289,-0.366211,-0.365417,-0.793213
42438006711,0.320374,-0.367004,-0.365601,-0.793152
42438023110,0.318542,-0.368347,-0.365967,-0.793091
42438044176,0.316589,-0.370117,-0.366394,-0.792847
42438066618,0.314392,-0.37207,-0.366821,-0.792603
42438081613,0.311646,-0.374451,-0.367126,-0.792419
42438104176,0.308716,-0.376953,-0.367676,-0.792175
42438126620,0.305298,-0.379395,-0.368408,-0.791931
42438141698,0.301208,-0.381958,-0.368896,-0.792053
42438164166,0.296631,-0.384949,-0.369202,-0.792175
42438186667,0.292419,-0.387756,-0.370117,-0.791992
42438201663,0.288513,-0.390259,-0.371582,-0.791504
42438224172,0.284546,-0.392822,-0.373047,-0.790955
42438246626,0.280151,-0.39563,-0.374756,-0.790283
42438261670,0.27533,-0.398193,-0.377136,-0.789612
42438284137,0.269958,-0.400696,-0.380188,-0.788757
42438306720,0.263916,-0.403381,-0.383362,-0.787903
42438323095,0.257202,-0.40625,-0.386719,-0.786987
42438344185,0.250366,-0.409546,-0.390686,-0.785522
42438366711,0.24353,-0.412964,-0.395325,-0.783569
42438381622,0.235657,-0.416687,-0.400024,-0.781616
42438404191,0.226074,-0.420837,-0.404968,-0.779663
42438426721,0.215881,-0.425476,-0.410583,-0.7771
42438443054,0.206421,-0.429993,-0.417603,-0.773438
42438464184,0.197632,-0.433838,-0.425781,-0.769104
42438486648,0.188354,-0.437439,-0.434448,-0.764587
42438503063,0.177612,-0.441223,-0.443176,-0.759949
42438524150,0.16571,-0.445679,-0.452026,-0.754761
42438546711,0.153564,-0.450012,-0.461731,-0.74884
42438563018,0.141907,-0.453674,-0.472534,-0.742188
42438584132,0.129211,-0.457336,-0.483582,-0.735107
42438606656,0.115479,-0.461365,-0.494629,-0.727478
42438623138,0.10199,-0.465698,-0.50592,-0.718933
42438644208,0.0891113,-0.469971,-0.517334,-0.709656
42438666689,0.0759888,-0.473999,-0.528748,-0.700073
42438683104,0.0618286,-0.477966,-0.540039,-0.690002
42438704133,0.0474243,-0.482178,-0.551147,-0.679443
42438726675,0.0335083,-0.485962,-0.562134,-0.668457
42438743126,0.0195923,-0.489746,-0.572632,-0.657288
42438771670,0.00561523,-0.493347,-0.582642,-0.645874
42438786723,-0.00805664,-0.49646,-0.59259,-0.634338
42438803084,-0.0213013,-0.498718,-0.602234,-0.623108
42438824058,-0.0343628,-0.500549,-0.611023,-0.612427
42438846590,-0.0471802,-0.502258,-0.61908,-0.60199
42438863026,-0.0587158,-0.503479,-0.626648,-0.59198
42438884154,-0.067627,-0.503723,-0.633606,-0.583374
42438906688,-0.0762939,-0.503784,-0.639526,-0.575745
42438923102,-0.0859985,-0.5047,-0.644165,-0.568359
42438945537,-0.0961914,-0.506775,-0.647949,-0.560547
42438966787,-0.104736,-0.508362,-0.652161,-0.552612
42438983156,-0.11145,-0.508789,-0.657227,-0.544861
42439004177,-0.117981,-0.509155,-0.661987,-0.537354
42439026714,-0.124207,-0.509155,-0.666748,-0.530029
42439043131,-0.130127,-0.508789,-0.67157,-0.522827
42439064145,-0.135681,-0.508362,-0.67627,-0.515686
42439088173,-0.141052,-0.507874,-0.680725,-0.50885
42439103084,-0.146606,-0.50708,-0.684998,-0.502258
42439124141,-0.152405,-0.506165,-0.688782,-0.496216
42439146617,-0.158386,-0.505493,-0.691833,-0.490845
42439162436,-0.164246,-0.50531,-0.694214,-0.485657
42439184180,-0.169678,-0.505432,-0.69635,-0.480591
42439206707,-0.174866,-0.505066,-0.698547,-0.475891
42439222522,-0.179932,-0.504211,-0.700623,-0.471802
42439244159,-0.184204,-0.502441,-0.702881,-0.468689
42439266657,-0.187927,-0.499207,-0.70575,-0.46637
42439282524,-0.190979,-0.494446,-0.709473,-0.4646
42439304195,-0.192505,-0.487366,-0.714661,-0.463501
42439326649,-0.192017,-0.478455,-0.72113,-0.462952
42439342504,-0.191101,-0.470398,-0.726807,-0.462646
42439365647,-0.191589,-0.465881,-0.72998,-0.462036
42439386682,-0.193787,-0.464539,-0.730896,-0.460999
42439402400,-0.196838,-0.466309,-0.730164,-0.459106
42439425590,-0.199097,-0.468689,-0.72937,-0.45697
42439454181,-0.200012,-0.470215,-0.729187,-0.455261
42439462460,-0.199585,-0.469482,-0.730225,-0.454529
42439485547,-0.197693,-0.466064,-0.732605,-0.455078
42439506584,-0.196045,-0.462219,-0.734985,-0.455872
42439522400,-0.195374,-0.460144,-0.736328,-0.456177
42439545546,-0.19519,-0.459412,-0.736877,-0.455994
42439566639,-0.195068,-0.458923,-0.737366,-0.45575
42439582404,-0.195129,-0.458252,-0.737976,-0.455444
42439605555,-0.194458,-0.456665,-0.739075,-0.455505
42439626621,-0.193237,-0.454407,-0.74054,-0.455933
42439642367,-0.1922,-0.452332,-0.741882,-0.456299
42439665535,-0.191467,-0.450684,-0.742859,-0.456665
42439686713,-0.190857,-0.449402,-0.74353,-0.457031
42439702457,-0.190247,-0.448242,-0.744141,-0.457458
42439725646,-0.189941,-0.447327,-0.744568,-0.457764
42439746712,-0.18927,-0.446289,-0.745178,-0.458069
42439762497,-0.188477,-0.445862,-0.745422,-0.458435
42439785625,-0.187866,-0.445984,-0.745483,-0.458496
42439806692,-0.187561,-0.446289,-0.745483,-0.458252
42439822502,-0.187622,-0.446533,-0.745544,-0.457947
42439845609,-0.1875,-0.44635,-0.745667,-0.458008
42439866673,-0.187073,-0.445862,-0.745789,-0.458435
42439882967,-0.186829,-0.445862,-0.745728,-0.458618
42439905639,-0.186768,-0.446655,-0.745239,-0.458618
42439926702,-0.186768,-0.447021,-0.744934,-0.45874
42439943933,-0.186646,-0.446838,-0.744995,-0.458923
42439965609,-0.186646,-0.446838,-0.744995,-0.458923
42439986767,-0.186646,-0.446838,-0.744995,-0.458923
42440010568,-0.186707,-0.447327,-0.74469,-0.458923
42440025696,-0.186707,-0.448059,-0.744202,-0.458923
42440046730,-0.186829,-0.44873,-0.743774,-0.458923
42440062509,-0.187134,-0.449402,-0.743347,-0.458862
42440085680,-0.187073,-0.449829,-0.743164,-0.45874
42440114236,-0.186584,-0.450256,-0.743164,-0.458557
42440122475,-0.18634,-0.451416,-0.742676,-0.458313
42440144929,-0.18689,-0.453125,-0.74176,-0.457886
42440166684,-0.187622,-0.454651,-0.740723,-0.457764
42440182430,-0.187927,-0.455139,-0.740295,-0.457825
42440204989,-0.187561,-0.454895,-0.740479,-0.457886
42440226684,-0.187134,-0.454529,-0.740784,-0.457947
42440242525,-0.187134,-0.454529,-0.740845,-0.457947
42440264922,-0.1875,-0.454895,-0.740356,-0.458069
42440288100,-0.187744,-0.455017,-0.740173,-0.458252
42440302448,-0.187744,-0.454773,-0.740295,-0.458252
42440324904,-0.187744,-0.454773,-0.740295,-0.458252
42440348118,-0.187622,-0.45459,-0.740417,-0.458252
42440362467,-0.187622,-0.45459,-0.740417,-0.458252
42440384979,-0.187622,-0.454773,-0.740479,-0.458069
42440408214,-0.187805,-0.455017,-0.740417,-0.457764
42440422488,-0.187805,-0.455017,-0.740417,-0.457764
42440444995,-0.187134,-0.45459,-0.740723,-0.457947
42440468114,-0.186584,-0.454163,-0.740967,-0.458252
42440482462,-0.186646,-0.454407,-0.740845,-0.45813
42440505008,-0.187195,-0.454834,-0.74054,-0.458008
42440528169,-0.187195,-0.454834,-0.74054,-0.458008
42440542517,-0.187012,-0.454651,-0.740662,-0.458069
42440564996,-0.187012,-0.454651,-0.740662,-0.458069
42440588172,-0.187012,-0.454651,-0.740662,-0.458069
42440602492,-0.187012,-0.454651,-0.740662,-0.458069
42440624944,-0.18689,-0.454773,-0.74054,-0.458252
42440648205,-0.187134,-0.455078,-0.740234,-0.458252
42440662565,-0.187134,-0.455078,-0.740234,-0.458252
42440685699,-0.187134,-0.455078,-0.740234,-0.458252
42440708213,-0.187012,-0.4552,-0.740112,-0.458435
42440722444,-0.187012,-0.455505,-0.739868,-0.458557
42440745036,-0.187012,-0.455811,-0.739685,-0.458618
42440768179,-0.187012,-0.456116,-0.739502,-0.458496
42440782447,-0.187073,-0.456665,-0.739319,-0.458252
42440805057,-0.186768,-0.456909,-0.739197,-0.458252
42440828135,-0.186523,-0.457214,-0.739075,-0.458313
42440849198,-0.186279,-0.457581,-0.738953,-0.458252
42440865002,-0.186218,-0.458008,-0.73877,-0.458069
42440888168,-0.186279,-0.458435,-0.738647,-0.457947
42440909198,-0.186218,-0.458862,-0.738342,-0.457947
42440925032,-0.186157,-0.459045,-0.738159,-0.458069
42440948207,-0.186218,-0.459045,-0.738159,-0.458069
42440969220,-0.186218,-0.459045,-0.738159,-0.458069
42440985014,-0.185974,-0.459045,-0.73822,-0.458069
42441008115,-0.18573,-0.45929,-0.738159,-0.458008
42441029304,-0.185669,-0.459656,-0.738037,-0.457886
42441045031,-0.18573,-0.459839,-0.737854,-0.457947
42441067532,-0.185913,-0.460144,-0.737488,-0.458191
42441089266,-0.186035,-0.460815,-0.737061,-0.458191
42441105039,-0.186096,-0.46167,-0.736694,-0.457886
42441127578,-0.186218,-0.462341,-0.736389,-0.457581
42441149232,-0.186218,-0.462341,-0.736389,-0.457642
42441165042,-0.186035,-0.462463,-0.736267,-0.457825
42441187575,-0.185974,-0.462402,-0.736084,-0.45813
42441209253,-0.186035,-0.462585,-0.735901,-0.458252
42441224931,-0.18634,-0.463074,-0.735657,-0.458069
42441247409,-0.186523,-0.463562,-0.735596,-0.45752
42441270544,-0.186646,-0.464478,-0.735413,-0.456787
42441284966,-0.187378,-0.466431,-0.734497,-0.455994
42441307552,-0.18866,-0.468872,-0.733154,-0.4552
42441330649,-0.190063,-0.471313,-0.731689,-0.454407
42441351859,-0.191833,-0.474182,-0.72998,-0.45343
42441367465,-0.193909,-0.47699,-0.728027,-0.452759
42441390671,-0.196045,-0.480286,-0.72522,-0.45282
42441404966,-0.19751,-0.482849,-0.722412,-0.453979
42441427505,-0.197327,-0.484375,-0.720093,-0.456116
42441450721,-0.196472,-0.484924,-0.718628,-0.458252
42441464979,-0.195801,-0.48468,-0.717529,-0.460449
42441487489,-0.195557,-0.483521,-0.716614,-0.463196
42441510630,-0.196045,-0.48175,-0.715637,-0.466309
42441531736,-0.196411,-0.480164,-0.714844,-0.468994
42441547577,-0.196289,-0.478149,-0.714661,-0.471436
42441570725,-0.195801,-0.474548,-0.71521,-0.474365
42441591768,-0.195435,-0.46991,-0.715454,-0.478821
42441607540,-0.196472,-0.465515,-0.714844,-0.483459
42441630626,-0.199097,-0.462341,-0.713867,-0.486938
42441651757,-0.202393,-0.4599,-0.713257,-0.488831
42441667488,-0.204224,-0.456482,-0.713562,-0.490784
42441690734,-0.205322,-0.450623,-0.714783,-0.493958
42441711746,-0.206421,-0.442139,-0.717224,-0.49762
42441727615,-0.207397,-0.431213,-0.72113,-0.50116
42441750011,-0.208252,-0.418518,-0.725342,-0.505432
42441771763,-0.209167,-0.404724,-0.728882,-0.511169
42441787441,-0.209045,-0.390808,-0.731995,-0.517517
42441810703,-0.209229,-0.375488,-0.735046,-0.524475
42441823545,-0.21106,-0.360413,-0.736694,-0.531921
42441846718,-0.213806,-0.34729,-0.736389,-0.539917
42441861104,-0.215393,-0.334106,-0.735718,-0.548462
42441883531,-0.21521,-0.319275,-0.735474,-0.557617
42441914904,-0.21405,-0.302856,-0.735413,-0.5672
42441921134,-0.213135,-0.286682,-0.735168,-0.576233
42441943626,-0.21405,-0.273621,-0.733398,-0.584412
42441966741,-0.216003,-0.262695,-0.730774,-0.59198
42441981126,-0.217468,-0.252747,-0.727844,-0.599304
42442003571,-0.218445,-0.243286,-0.724976,-0.606323
42442026707,-0.219299,-0.234619,-0.722229,-0.612671
42442041052,-0.220642,-0.22699,-0.719238,-0.61853
42442063662,-0.222595,-0.220215,-0.715942,-0.624023
42442086777,-0.223999,-0.213379,-0.712769,-0.629517
42442101178,-0.224792,-0.206604,-0.709839,-0.634827
42442123505,-0.225281,-0.200439,-0.707336,-0.639465
42442146699,-0.225952,-0.195312,-0.705078,-0.64325
42442169214,-0.226685,-0.191223,-0.703003,-0.646484
42442183624,-0.226685,-0.1875,-0.701477,-0.649231
42442206793,-0.226379,-0.184326,-0.700439,-0.651367
42442221130,-0.226013,-0.181335,-0.69989,-0.652893
42442243590,-0.226257,-0.178833,-0.699463,-0.653992
42442266742,-0.226929,-0.176208,-0.698669,-0.655334
42442281075,-0.227966,-0.173035,-0.697571,-0.656921
42442303557,-0.229675,-0.169434,-0.696411,-0.658508
42442335020,-0.23114,-0.166443,-0.695129,-0.660156
42442341054,-0.231567,-0.163757,-0.694031,-0.661804
42442373785,-0.231323,-0.161621,-0.693115,-0.663391
42442386735,-0.231079,-0.160339,-0.692444,-0.66449
42442401077,-0.230896,-0.159302,-0.691772,-0.665466
42442423650,-0.231079,-0.158569,-0.691101,-0.666321
42442446758,-0.231628,-0.158508,-0.690308,-0.666931
42442461074,-0.2323,-0.158569,-0.689636,-0.667419
42442483566,-0.232544,-0.158386,-0.689331,-0.667664
42442506757,-0.233215,-0.15863,-0.689026,-0.667664
42442521112,-0.233948,-0.158813,-0.688965,-0.66748
42442543551,-0.234192,-0.15863,-0.689148,-0.667175
42442566729,-0.234619,-0.158997,-0.689209,-0.666931
42442581013,-0.235107,-0.159668,-0.688721,-0.667114
42442603594,-0.235413,-0.15979,-0.687927,-0.667786
42442626764,-0.235535,-0.159668,-0.687317,-0.668335
42442641060,-0.235718,-0.159668,-0.687073,-0.668579
42442663594,-0.235413,-0.159546,-0.687012,-0.668762
42442686706,-0.234802,-0.159241,-0.686829,-0.66925
42442700987,-0.235107,-0.15918,-0.686401,-0.669556
42442723541,-0.235779,-0.158875,-0.686035,-0.6698
42442746789,-0.235901,-0.157959,-0.685974,-0.670044
42442761126,-0.235779,-0.157166,-0.685974,-0.670227
42442783556,-0.235718,-0.156799,-0.685913,-0.67041
42442806740,-0.236145,-0.156738,-0.685913,-0.670349
42442821137,-0.236572,-0.156677,-0.685974,-0.670105
42442843618,-0.236816,-0.156616,-0.686035,-0.669983
42442866559,-0.237183,-0.156738,-0.685974,-0.669861
42442881125,-0.237671,-0.156616,-0.685852,-0.669861
42442903611,-0.238037,-0.156433,-0.685669,-0.669983
42442926705,-0.238342,-0.156372,-0.685486,-0.670044
42442941095,-0.238342,-0.156372,-0.685486,-0.670044
42442963667,-0.238586,-0.156372,-0.685303,-0.670166
42442986682,-0.238953,-0.15625,-0.68512,-0.670227
42443001091,-0.239197,-0.156189,-0.684998,-0.670288
42443023715,-0.239197,-0.156189,-0.684998,-0.670288
42443046792,-0.239197,-0.156189,-0.684998,-0.670288
42443061136,-0.239319,-0.15625,-0.684814,-0.67041
42443083648,-0.23938,-0.156006,-0.684692,-0.670532
42443106794,-0.239197,-0.155212,-0.684692,-0.670837
42443122587,-0.238525,-0.154114,-0.684631,-0.671387
42443143600,-0.237793,-0.152954,-0.684509,-0.672058
42443166078,-0.237122,-0.151672,-0.684387,-0.672668
42443181084,-0.236755,-0.150452,-0.684326,-0.673157
42443211753,-0.237305,-0.150085,-0.684204,-0.673218
42443226081,-0.238403,-0.15033,-0.683838,-0.673035
42443241079,-0.239136,-0.150269,-0.683594,-0.673096
42443263550,-0.238892,-0.149475,-0.683472,-0.673462
42443286119,-0.238525,-0.148621,-0.683472,-0.673828
42443301173,-0.23877,-0.148499,-0.683289,-0.673889
42443323535,-0.239258,-0.148499,-0.683228,-0.673828
42443347557,-0.23938,-0.148193,-0.683228,-0.673889
42443361108,-0.239319,-0.147827,-0.683228,-0.67395
42443383601,-0.23938,-0.147644,-0.683105,-0.674072
42443406113,-0.239563,-0.147705,-0.682922,-0.674194
42443421095,-0.239746,-0.147766,-0.6828,-0.674255
42443443673,-0.239746,-0.147766,-0.6828,-0.674255
42443466074,-0.239746,-0.147766,-0.6828,-0.674255
42443481132,-0.23999,-0.147888,-0.6828,-0.674133
42443503643,-0.240234,-0.14801,-0.682678,-0.674133
42443526147,-0.240234,-0.14801,-0.682617,-0.674133
42443541178,-0.240234,-0.14801,-0.682678,-0.674133
42443563626,-0.240295,-0.148254,-0.682617,-0.674072
42443586160,-0.240479,-0.148499,-0.682495,-0.674072
42443601146,-0.240601,-0.148682,-0.682495,-0.674072
42443623599,-0.240723,-0.148865,-0.682495,-0.67395
42443646060,-0.240906,-0.149292,-0.682434,-0.673828
42443661168,-0.241211,-0.14978,-0.682434,-0.673645
42443683685,-0.241333,-0.150085,-0.682373,-0.673584
42443706143,-0.241516,-0.150452,-0.682312,-0.673462
42443721039,-0.24176,-0.150879,-0.682312,-0.673279
42443743643,-0.24176,-0.150879,-0.682312,-0.673279
42443766150,-0.24176,-0.15094,-0.682312,-0.673279
42443781173,-0.241882,-0.151184,-0.682251,-0.673279
42443803659,-0.242065,-0.151367,-0.68219,-0.673218
42443826206,-0.242065,-0.151367,-0.68219,-0.673218
42443841074,-0.242065,-0.151367,-0.68219,-0.673218
42443863651,-0.242065,-0.151428,-0.68219,-0.673218
42443886108,-0.242065,-0.151428,-0.68219,-0.673218
42443902506,-0.242249,-0.151611,-0.682068,-0.673218
42443923660,-0.242554,-0.151917,-0.682007,-0.673096
42443946162,-0.242554,-0.151917,-0.682007,-0.673096
42443962475,-0.242554,-0.151978,-0.682007,-0.673096
42443983650,-0.242432,-0.151855,-0.681946,-0.673218
42444006104,-0.242432,-0.151917,-0.681946,-0.673218
42444022578,-0.242676,-0.152039,-0.681885,-0.673157
42444043617,-0.243042,-0.152283,-0.681763,-0.673096
42444066140,-0.243042,-0.152344,-0.681763,-0.673035
42444082548,-0.242737,-0.151917,-0.681824,-0.673218
42444103685,-0.24231,-0.151245,-0.682068,-0.673279
42444126197,-0.24231,-0.151245,-0.682068,-0.673279
42444142496,-0.242859,-0.151733,-0.681824,-0.673218
42444163655,-0.243408,-0.152161,-0.681763,-0.672974
42444186119,-0.243286,-0.151917,-0.681885,-0.672974
42444202558,-0.243042,-0.151489,-0.681946,-0.673035
42444223647,-0.24353,-0.151794,-0.681824,-0.672913
42444246081,-0.244202,-0.152222,-0.681702,-0.672729
42444269955,-0.244202,-0.151917,-0.681885,-0.672668
42444283522,-0.243896,-0.151184,-0.682129,-0.672668
42444306043,-0.243713,-0.150757,-0.682312,-0.672668
42444322495,-0.244263,-0.151245,-0.682251,-0.672424
42444343576,-0.244934,-0.152039,-0.682129,-0.672058
42444366064,-0.245056,-0.152466,-0.682129,-0.671936
42444382496,-0.245056,-0.152466,-0.682129,-0.671936
42444403566,-0.244751,-0.15271,-0.682129,-0.671997
42444426090,-0.244019,-0.153137,-0.682007,-0.672241
42444442469,-0.243958,-0.154297,-0.68158,-0.672485
42444463551,-0.244629,-0.155579,-0.680969,-0.672546
42444486055,-0.244629,-0.155579,-0.680969,-0.672546
42444502477,-0.244202,-0.155029,-0.681396,-0.672424
42444523684,-0.244202,-0.155151,-0.681641,-0.67218
42444546106,-0.244873,-0.156372,-0.681335,-0.671875
42444562536,-0.245361,-0.157532,-0.68103,-0.671814
42444583559,-0.245056,-0.157898,-0.680908,-0.671875
42444606150,-0.244934,-0.158203,-0.68103,-0.671753
42444622602,-0.2453,-0.158691,-0.681213,-0.671326
42444643716,-0.245728,-0.158997,-0.681335,-0.671021
42444666128,-0.245728,-0.158997,-0.681335,-0.671021
42444682654,-0.245667,-0.158997,-0.681152,-0.671204
42444703593,-0.245789,-0.15918,-0.68103,-0.671265
42444726144,-0.245972,-0.159424,-0.681091,-0.671082
42444742543,-0.246216,-0.159607,-0.681091,-0.670898
42444763674,-0.246277,-0.159607,-0.681091,-0.670898
42444786183,-0.246277,-0.159668,-0.681091,-0.670898
42444802606,-0.246277,-0.159668,-0.681091,-0.670898
42444823724,-0.246521,-0.160156,-0.68103,-0.670715
42444846221,-0.246765,-0.160522,-0.680969,-0.670593
42444862583,-0.246765,-0.160522,-0.680969,-0.670593
42444885002,-0.246765,-0.160522,-0.680969,-0.670593
42444906011,-0.246948,-0.160767,-0.680908,-0.670593
42444922616,-0.246948,-0.160767,-0.680908,-0.670593
42444945096,-0.246948,-0.160767,-0.680908,-0.670593
42444966046,-0.246826,-0.160645,-0.680847,-0.670654
42444982593,-0.246826,-0.160706,-0.680847,-0.670654
42445005023,-0.247253,-0.161011,-0.680847,-0.670471
42445026135,-0.247437,-0.161194,-0.680786,-0.67041
42445042657,-0.247498,-0.161072,-0.680603,-0.670593
42445065101,-0.247437,-0.161011,-0.680481,-0.670776
42445086128,-0.247559,-0.160889,-0.680481,-0.670715
42445102519,-0.248047,-0.161011,-0.68042,-0.670593
42445125113,-0.248169,-0.161011,-0.68042,-0.670532
42445146146,-0.248352,-0.161194,-0.680237,-0.670593
42445162597,-0.248413,-0.161194,-0.680237,-0.670593
42445185096,-0.248108,-0.160828,-0.680603,-0.67041
42445206106,-0.248169,-0.160583,-0.681152,-0.669922
42445222551,-0.248901,-0.16095,-0.681396,-0.66925
42445245090,-0.248657,-0.161072,-0.681519,-0.669189
42445266113,-0.248169,-0.160278,-0.681641,-0.669495
42445282538,-0.248413,-0.158997,-0.681763,-0.669556
42445305040,-0.248352,-0.157043,-0.682129,-0.669678
42445326135,-0.247803,-0.154968,-0.682495,-0.669983
42445342505,-0.24823,-0.154053,-0.682739,-0.6698
42445365144,-0.248718,-0.153259,-0.683105,-0.669434
42445386149,-0.248657,-0.1521,-0.683533,-0.669312
42445402495,-0.249268,-0.151794,-0.683655,-0.669006
42445425101,-0.250366,-0.151978,-0.683533,-0.668701
42445446128,-0.251099,-0.152283,-0.683472,-0.668396
42445462540,-0.251404,-0.152466,-0.683594,-0.668091
42445485093,-0.25177,-0.152832,-0.683655,-0.667786
42445506109,-0.252686,-0.153687,-0.683411,-0.66748
42445522535,-0.25354,-0.154175,-0.683105,-0.667358
42445545059,-0.253845,-0.154114,-0.682922,-0.66748
42445566084,-0.253906,-0.15387,-0.682678,-0.667725
42445582593,-0.25415,-0.153931,-0.682312,-0.668091
42445605007,-0.254517,-0.153992,-0.681885,-0.668335
42445626084,-0.254456,-0.153748,-0.681641,-0.66864
42445642559,-0.254211,-0.153625,-0.681396,-0.669006
42445664240,-0.254089,-0.153687,-0.681091,-0.669373
42445686752,-0.25415,-0.153992,-0.680725,-0.669678
42445703166,-0.254395,-0.154236,-0.68042,-0.6698
42445724295,-0.2547,-0.154236,-0.680298,-0.6698
42445746780,-0.254944,-0.153992,-0.680359,-0.669739
42445761769,-0.255432,-0.153687,-0.68042,-0.669495
42445784278,-0.256042,-0.153381,-0.680542,-0.66925
42445806786,-0.25647,-0.152893,-0.680603,-0.669128
42445822021,-0.256714,-0.152222,-0.680664,-0.669128
42445844278,-0.256531,-0.151672,-0.680664,-0.669312
42445866795,-0.25592,-0.151245,-0.680603,-0.669678
42445881782,-0.255554,-0.151184,-0.680603,-0.669861
42445904316,-0.255798,-0.151428,-0.680481,-0.6698
42445926755,-0.256287,-0.151611,-0.680542,-0.669556
42445941757,-0.256653,-0.151855,-0.680542,-0.669312
42445964252,-0.256592,-0.152161,-0.680603,-0.66925
42445986751,-0.25647,-0.152771,-0.680542,-0.66925
42446003196,-0.256836,-0.153748,-0.680359,-0.669067
42446024312,-0.257263,-0.154724,-0.680176,-0.668823
42446046809,-0.257507,-0.15564,-0.680115,-0.668579
42446063219,-0.257446,-0.156372,-0.680176,-0.668335
42446084261,-0.257202,-0.157166,-0.680176,-0.668335
42446106784,-0.257141,-0.158142,-0.679993,-0.668274
42446123176,-0.257385,-0.158752,-0.679871,-0.668213
42446144288,-0.257324,-0.158691,-0.679871,-0.668213
42446166807,-0.257019,-0.157959,-0.680176,-0.668213
42446183234,-0.256714,-0.157043,-0.680359,-0.668335
42446204282,-0.256653,-0.156311,-0.680481,-0.668396
42446226767,-0.25708,-0.156006,-0.68042,-0.668396
42446243191,-0.257568,-0.155701,-0.680359,-0.668274
42446264264,-0.25769,-0.155273,-0.680542,-0.668213
42446286829,-0.257812,-0.154968,-0.680725,-0.66803
42446303239,-0.258362,-0.155151,-0.680725,-0.667725
42446324263,-0.259155,-0.155579,-0.680786,-0.667297
42446346787,-0.259583,-0.155823,-0.680969,-0.66687
42446363226,-0.259338,-0.155518,-0.681274,-0.666748
42446384545,-0.259521,-0.155579,-0.681396,-0.666504
42446406758,-0.260498,-0.156311,-0.681335,-0.666016
42446423263,-0.261719,-0.157288,-0.681458,-0.665222
42446444271,-0.262268,-0.157837,-0.681824,-0.66449
42446466754,-0.262146,-0.157776,-0.682129,-0.664185
42446483224,-0.26239,-0.157593,-0.682251,-0.664062
42446504270,-0.262939,-0.157471,-0.68219,-0.66394
42446526752,-0.263184,-0.157043,-0.682251,-0.663879
42446543193,-0.262878,-0.156189,-0.682434,-0.664001
42446564303,-0.26239,-0.154907,-0.682678,-0.664246
42446586773,-0.262451,-0.153809,-0.682617,-0.66449
42446603213,-0.262939,-0.152954,-0.682556,-0.664612
42446625729,-0.263428,-0.1521,-0.682556,-0.664551
42446646832,-0.263672,-0.151306,-0.682617,-0.664612
42446663228,-0.263794,-0.150513,-0.682617,-0.664734
42446684275,-0.264038,-0.14978,-0.682617,-0.664795
42446706780,-0.264465,-0.149231,-0.682739,-0.664673
42446722535,-0.264893,-0.148926,-0.682861,-0.664429
42446744298,-0.265442,-0.148743,-0.683044,-0.664062
42446766772,-0.265991,-0.148743,-0.683105,-0.663757
42446782531,-0.266296,-0.148621,-0.683105,-0.663696
42446804279,-0.266479,-0.14856,-0.683105,-0.663574
42446826778,-0.266663,-0.148621,-0.683228,-0.663391
42446842519,-0.267029,-0.148804,-0.68335,-0.663147
42446864285,-0.267456,-0.148987,-0.683472,-0.662781
42446886836,-0.267822,-0.14917,-0.683594,-0.662476
42446902585,-0.268311,-0.149353,-0.683594,-0.662231
42446924256,-0.268555,-0.149292,-0.683655,-0.662048
42446946808,-0.26825,-0.148804,-0.683777,-0.66217
42446962559,-0.267944,-0.148499,-0.684021,-0.662109
42446985744,-0.268311,-0.148804,-0.684082,-0.661804
42447006766,-0.26886,-0.148987,-0.684143,-0.661499
42447022545,-0.269043,-0.148804,-0.684204,-0.661377
42447053232,-0.269043,-0.148376,-0.684387,-0.661316
42447066823,-0.269226,-0.148193,-0.684509,-0.661133
42447082609,-0.269653,-0.148071,-0.684387,-0.661133
42447105785,-0.269897,-0.147461,-0.684265,-0.661255
42447134380,-0.269592,-0.146118,-0.684265,-0.661682
42447142623,-0.269409,-0.144836,-0.684265,-0.662048
42447165823,-0.269653,-0.144043,-0.684143,-0.662292
42447186873,-0.269897,-0.143188,-0.68396,-0.662537
42447202603,-0.269897,-0.142212,-0.683777,-0.662964
42447225803,-0.269897,-0.141418,-0.683716,-0.663208
42447246812,-0.270081,-0.141052,-0.683594,-0.663269
42447262659,-0.270447,-0.141174,-0.683411,-0.663269
42447285778,-0.270447,-0.141174,-0.683411,-0.663269
42447306796,-0.270508,-0.141174,-0.683411,-0.663269
42447322690,-0.27063,-0.141602,-0.683472,-0.663086
42447345752,-0.270935,-0.142273,-0.683533,-0.66272
42447366863,-0.271118,-0.142944,-0.683533,-0.662537
42447382610,-0.270935,-0.143188,-0.683533,-0.662537
42447405796,-0.27063,-0.14325,-0.683594,-0.662598
42447426769,-0.27063,-0.143494,-0.683655,-0.662476
42447442587,-0.270935,-0.143799,-0.683655,-0.662292
42447465877,-0.27124,-0.144043,-0.683594,-0.66217
42447486871,-0.271179,-0.143921,-0.683655,-0.66217
42447502609,-0.270813,-0.143677,-0.683716,-0.662292
42447525823,-0.270813,-0.14386,-0.683716,-0.662292
42447546799,-0.271118,-0.144287,-0.683594,-0.66217
42447562631,-0.271423,-0.144653,-0.683533,-0.662048
42447585754,-0.271423,-0.144653,-0.683533,-0.662048
42447606879,-0.271423,-0.144653,-0.683533,-0.662048
42447622678,-0.271423,-0.144653,-0.683533,-0.662048
42447645779,-0.271423,-0.144653,-0.683533,-0.662048
42447666848,-0.271423,-0.144714,-0.683533,-0.662048
42447690849,-0.27124,-0.144531,-0.683533,-0.66217
42447705183,-0.270996,-0.144287,-0.683533,-0.662292
42447726974,-0.270996,-0.144348,-0.683533,-0.662292
42447742716,-0.270752,-0.144043,-0.683472,-0.662537
42447765188,-0.270752,-0.144043,-0.683472,-0.662537
42447786887,-0.270874,-0.143982,-0.68335,-0.662598
42447802632,-0.271057,-0.14386,-0.683289,-0.662659
42447825168,-0.270874,-0.143433,-0.683228,-0.662842
42447846877,-0.270569,-0.142944,-0.683167,-0.663147
42447862622,-0.27063,-0.142944,-0.682922,-0.663391
42447885199,-0.27063,-0.143005,-0.682922,-0.663391
42447908313,-0.270386,-0.142639,-0.682922,-0.663574
42447922583,-0.270081,-0.142212,-0.682922,-0.663757
42447945192,-0.270081,-0.142212,-0.682922,-0.663757
42447968340,-0.270447,-0.142395,-0.6828,-0.663635
42447982687,-0.270508,-0.142395,-0.682861,-0.663635
42448005163,-0.270325,-0.142151,-0.682983,-0.663574
42448028274,-0.270081,-0.141846,-0.683167,-0.663574
42448042689,-0.270081,-0.141846,-0.683167,-0.663574
42448065142,-0.270264,-0.141968,-0.683105,-0.663513
42448088297,-0.270264,-0.141968,-0.683105,-0.663513
42448102602,-0.270264,-0.142029,-0.683105,-0.663513
42448125162,-0.270264,-0.142029,-0.683105,-0.663513
42448148323,-0.270386,-0.142212,-0.683105,-0.663452
42448162668,-0.270508,-0.142334,-0.683044,-0.663452
42448185149,-0.270569,-0.142456,-0.683044,-0.663391
42448208756,-0.270874,-0.142883,-0.683044,-0.663147
42448222683,-0.271057,-0.14325,-0.682983,-0.663086
42448245196,-0.270752,-0.143555,-0.6828,-0.66333
42448268335,-0.270447,-0.143799,-0.682495,-0.663635
42448282587,-0.270569,-0.144226,-0.682312,-0.663757
42448305172,-0.270935,-0.144653,-0.68219,-0.663635
42448328282,-0.271912,-0.14502,-0.682251,-0.663086
42448342626,-0.272949,-0.145752,-0.682312,-0.662415
42448365130,-0.273254,-0.146362,-0.682251,-0.662231
42448388324,-0.27301,-0.147034,-0.682068,-0.662354
42448409349,-0.272888,-0.147644,-0.681946,-0.662415
42448425163,-0.272827,-0.147949,-0.681946,-0.662354
42448448306,-0.273071,-0.148254,-0.682068,-0.662109
42448469348,-0.273499,-0.148438,-0.682129,-0.661804
42448485188,-0.273499,-0.148438,-0.682129,-0.661804
42448508351,-0.273071,-0.148254,-0.682007,-0.662109
42448529421,-0.272888,-0.148193,-0.681885,-0.662354
42448545193,-0.272888,-0.148254,-0.681885,-0.662354
42448568358,-0.273132,-0.148438,-0.681824,-0.662231
42448589508,-0.273193,-0.148438,-0.681824,-0.662231
42448605175,-0.272949,-0.148499,-0.681824,-0.662354
42448627640,-0.272583,-0.148621,-0.681763,-0.662476
42448649460,-0.272461,-0.148865,-0.681763,-0.662476
42448665183,-0.272461,-0.149109,-0.681824,-0.662415
42448687652,-0.272583,-0.149475,-0.681824,-0.662231
42448709432,-0.272644,-0.149475,-0.681824,-0.662231
42448725178,-0.272583,-0.149536,-0.681824,-0.662292
42448747690,-0.272522,-0.14978,-0.681763,-0.662292
42448769446,-0.272644,-0.150024,-0.681641,-0.662292
42448785145,-0.272644,-0.150024,-0.681641,-0.662292
42448807724,-0.272522,-0.149841,-0.681702,-0.662354
42448830816,-0.272339,-0.149658,-0.681763,-0.662415
42448845210,-0.272339,-0.149658,-0.681702,-0.662415
42448867768,-0.272339,-0.149658,-0.681702,-0.662415
42448890796,-0.272217,-0.149536,-0.681702,-0.662537
42448905231,-0.272034,-0.149414,-0.681641,-0.662659
42448927629,-0.272034,-0.149414,-0.681641,-0.662659
42448950846,-0.272156,-0.149597,-0.681641,-0.662598
42448965178,-0.272217,-0.149597,-0.681641,-0.662598
42448995823,-0.272217,-0.149597,-0.681641,-0.662598
42449010848,-0.272156,-0.149597,-0.681641,-0.662598
42449025149,-0.2724,-0.14978,-0.68158,-0.662537
42449047648,-0.272644,-0.149841,-0.681519,-0.662476
42449070885,-0.273315,-0.149719,-0.68158,-0.66217
42449085225,-0.273804,-0.149719,-0.681702,-0.661804
42449107715,-0.273376,-0.149536,-0.681824,-0.661926
42449130796,-0.273315,-0.149597,-0.681824,-0.661926
42449145129,-0.27356,-0.150085,-0.681702,-0.661804
42449167664,-0.273499,-0.150452,-0.681702,-0.661804
42449190888,-0.27301,-0.150818,-0.68158,-0.661987
42449205198,-0.272949,-0.151306,-0.681458,-0.662048
42449227702,-0.273499,-0.151733,-0.681091,-0.662109
42449250843,-0.273254,-0.151245,-0.681152,-0.662231
42449265124,-0.272339,-0.150574,-0.681396,-0.662537
42449287617,-0.2724,-0.151062,-0.681213,-0.662598
42449310829,-0.273254,-0.152161,-0.680847,-0.662354
42449331884,-0.273315,-0.152222,-0.680847,-0.662354
42449347693,-0.272949,-0.151672,-0.680969,-0.662476
42449370834,-0.272827,-0.151245,-0.681152,-0.662415
42449391893,-0.272827,-0.151245,-0.681152,-0.662415
42449407709,-0.272827,-0.151245,-0.681152,-0.662415
42449430886,-0.272827,-0.151306,-0.681152,-0.662415
42449451929,-0.272827,-0.151306,-0.681152,-0.662415
42449467714,-0.272766,-0.151367,-0.681152,-0.662476
42449490800,-0.272766,-0.151367,-0.681152,-0.662476
42449511859,-0.272766,-0.151367,-0.681152,-0.662476
42449526822,-0.272766,-0.151367,-0.681152,-0.662476
42449541166,-0.272766,-0.151367,-0.681152,-0.662476
42449563768,-0.272644,-0.151123,-0.681091,-0.662598
42449586927,-0.272644,-0.151001,-0.68103,-0.662659
42449601244,-0.272644,-0.150818,-0.680969,-0.662842
42449623796,-0.272583,-0.150635,-0.680847,-0.662964
42449646870,-0.272583,-0.150635,-0.680847,-0.662964
42449661248,-0.272583,-0.150696,-0.680847,-0.662964
42449683776,-0.272583,-0.150696,-0.680847,-0.662964
42449706957,-0.272583,-0.150696,-0.680847,-0.662964
42449721236,-0.272583,-0.150696,-0.680847,-0.662964
42449743772,-0.272583,-0.150696,-0.680847,-0.663025
42449766966,-0.272522,-0.150696,-0.680847,-0.663025
42449781214,-0.272522,-0.150696,-0.680847,-0.663025
42449803732,-0.272522,-0.150696,-0.680847,-0.663025
42449826924,-0.272522,-0.150696,-0.680847,-0.663025
42449841203,-0.272461,-0.150085,-0.680969,-0.663025
42449863691,-0.272888,-0.149902,-0.681091,-0.662781
42449886901,-0.273132,-0.149841,-0.681213,-0.662598
42449901180,-0.272827,-0.149597,-0.681274,-0.66272
42449923708,-0.272583,-0.149414,-0.681335,-0.66272
42449946964,-0.272583,-0.149353,-0.681519,-0.662598
42449961285,-0.272827,-0.149536,-0.68158,-0.662354
42449983833,-0.273438,-0.150085,-0.681519,-0.662048
42450006922,-0.273804,-0.150391,-0.681519,-0.661865
42450021271,-0.27356,-0.150085,-0.681641,-0.661865
42450045216,-0.273499,-0.150085,-0.681641,-0.661865
42450066945,-0.273499,-0.150146,-0.681641,-0.661926
42450081278,-0.273499,-0.150146,-0.681641,-0.661926
42450105232,-0.273499,-0.150146,-0.681641,-0.661926
42450126962,-0.273621,-0.150391,-0.681641,-0.661804
42450141251,-0.273682,-0.150391,-0.68158,-0.661804
42450163803,-0.273315,-0.150635,-0.681519,-0.662048
42450186935,-0.272461,-0.150818,-0.681274,-0.662537
42450201331,-0.271667,-0.151062,-0.680969,-0.663147
42450223791,-0.27179,-0.151184,-0.680786,-0.663269
42450246978,-0.272888,-0.151611,-0.680481,-0.662964
42450261290,-0.27301,-0.15094,-0.680664,-0.662964
42450283721,-0.272156,-0.150146,-0.680847,-0.663269
42450306914,-0.272156,-0.150574,-0.680603,-0.663391
42450321231,-0.272949,-0.15155,-0.680298,-0.663208
42450343740,-0.273315,-0.151794,-0.680237,-0.663086
42450366955,-0.273132,-0.151428,-0.680359,-0.663086
42450381248,-0.272766,-0.151001,-0.680542,-0.663147
42450403758,-0.272705,-0.151001,-0.680542,-0.663147
42450426895,-0.272949,-0.151306,-0.68042,-0.663086
42450441298,-0.273132,-0.151611,-0.68042,-0.663025
42450463840,-0.273132,-0.151672,-0.68042,-0.663025
42450486948,-0.272888,-0.15155,-0.680481,-0.663025
42450501273,-0.273071,-0.151672,-0.680481,-0.662903
42450523762,-0.273376,-0.151855,-0.68042,-0.662781
42450546151,-0.273376,-0.151855,-0.68042,-0.662781
42450561265,-0.273376,-0.151855,-0.68042,-0.662842
42450583835,-0.273376,-0.151917,-0.68042,-0.662842
42450606879,-0.273376,-0.151917,-0.68042,-0.662842
42450621265,-0.273376,-0.151917,-0.68042,-0.662842
42450643918,-0.273376,-0.151917,-0.68042,-0.662842
42450666953,-0.273376,-0.151917,-0.68042,-0.662842
42450681225,-0.273376,-0.151917,-0.68042,-0.662842
42450703765,-0.273315,-0.151978,-0.68042,-0.662842
42450726237,-0.273315,-0.151978,-0.68042,-0.662842
42450741168,-0.273315,-0.151978,-0.68042,-0.662842
42450763654,-0.273315,-0.151978,-0.68042,-0.662842
42450786154,-0.273315,-0.151978,-0.68042,-0.662842
42450801141,-0.273315,-0.151978,-0.68042,-0.662842
42450823714,-0.273193,-0.151794,-0.68042,-0.662964
42450846228,-0.273193,-0.151794,-0.68042,-0.662964
42450861243,-0.273315,-0.151917,-0.680359,-0.662903
42450883704,-0.273499,-0.152222,-0.680237,-0.662842
42450906189,-0.27356,-0.152222,-0.680237,-0.662842
42450921254,-0.273376,-0.152039,-0.680298,-0.662903
42450943699,-0.273315,-0.1521,-0.680298,-0.662903
42450967669,-0.273438,-0.152283,-0.680237,-0.662903
42450981236,-0.273438,-0.152344,-0.680237,-0.662903
42451003795,-0.273254,-0.152222,-0.680176,-0.663025
42451026316,-0.273071,-0.151978,-0.680237,-0.663147
42451041236,-0.273071,-0.152039,-0.680237,-0.663147
42451063746,-0.273071,-0.152039,-0.680237,-0.663147
42451086275,-0.273071,-0.152039,-0.680176,-0.663147
42451101224,-0.273071,-0.1521,-0.680176,-0.663147
42451123790,-0.273071,-0.1521,-0.680176,-0.663147
42451146202,-0.273071,-0.1521,-0.680176,-0.663147
42451161295,-0.273071,-0.1521,-0.680176,-0.663147
42451183818,-0.273193,-0.152222,-0.680115,-0.663086
42451206334,-0.273254,-0.152222,-0.680115,-0.663086
42451229490,-0.273254,-0.152222,-0.680115,-0.663086
42451243763,-0.273132,-0.152222,-0.680176,-0.663086
42451266292,-0.27301,-0.152344,-0.680237,-0.663086
42451284179,-0.273132,-0.152954,-0.680115,-0.662964
42451303813,-0.273376,-0.153564,-0.679932,-0.662964
42451326323,-0.273315,-0.153381,-0.679932,-0.663025
42451341215,-0.272888,-0.152954,-0.679993,-0.663208
42451363821,-0.272888,-0.152954,-0.679993,-0.663208
42451386316,-0.273132,-0.153381,-0.67981,-0.663147
42451401334,-0.273438,-0.153687,-0.679626,-0.663147
42451423871,-0.273376,-0.153503,-0.679565,-0.663269
42451446242,-0.273193,-0.153259,-0.679688,-0.66333
42451461263,-0.273193,-0.153198,-0.679688,-0.66333
42451483745,-0.273499,-0.153381,-0.679626,-0.663208
42451506315,-0.273499,-0.153442,-0.679626,-0.663208
42451522767,-0.273376,-0.15332,-0.679626,-0.663269
42451543713,-0.273315,-0.153381,-0.679626,-0.663269
42451566343,-0.273315,-0.153381,-0.679626,-0.663269
42451582705,-0.273438,-0.153564,-0.679626,-0.663208
42451603740,-0.273438,-0.153564,-0.679626,-0.663208
42451626261,-0.273499,-0.153564,-0.679626,-0.663208
42451642790,-0.273499,-0.153625,-0.679626,-0.663208
42451663770,-0.273499,-0.153625,-0.679626,-0.663208
42451686237,-0.273499,-0.153625,-0.679626,-0.663208
42451702767,-0.273499,-0.153625,-0.679626,-0.663208
42451723770,-0.273499,-0.153625,-0.679626,-0.663208
42451746313,-0.273499,-0.153625,-0.679626,-0.663208
42451770273,-0.273499,-0.153625,-0.679626,-0.663208
42451783826,-0.273499,-0.153625,-0.679626,-0.663208
42451806287,-0.273682,-0.15387,-0.679565,-0.663147
42451822660,-0.273682,-0.15387,-0.679565,-0.663147
42451843789,-0.273438,-0.153809,-0.679565,-0.663269
42451866247,-0.273254,-0.153625,-0.679565,-0.66333
42451882759,-0.273254,-0.153625,-0.679565,-0.663391
42451903819,-0.273254,-0.153687,-0.679565,-0.663391
42451926346,-0.273254,-0.153687,-0.679565,-0.66333
42451950214,-0.273254,-0.153564,-0.679504,-0.663391
42451963804,-0.273132,-0.153442,-0.679504,-0.663513
42451986339,-0.273132,-0.153442,-0.679504,-0.663513
42452002675,-0.273376,-0.153687,-0.679443,-0.663391
42452023811,-0.273376,-0.153687,-0.679443,-0.663391
42452046257,-0.273376,-0.153687,-0.679443,-0.663391
42452062766,-0.273376,-0.153687,-0.679443,-0.663391
42452083836,-0.273376,-0.153687,-0.679443,-0.663391
42452106245,-0.273315,-0.153687,-0.679443,-0.663391
42452122731,-0.273315,-0.153748,-0.679443,-0.663391
42452143877,-0.273376,-0.153748,-0.679443,-0.663391
42452166320,-0.273376,-0.153809,-0.679443,-0.663391
42452184206,-0.273376,-0.153809,-0.679443,-0.663391
42452203774,-0.273438,-0.15387,-0.679382,-0.663391
42452226317,-0.273438,-0.15387,-0.679382,-0.663391
42452242726,-0.273438,-0.153931,-0.679382,-0.663391
42452263778,-0.273254,-0.153748,-0.679443,-0.663452
42452286316,-0.273438,-0.153809,-0.679443,-0.663391
42452302718,-0.273621,-0.154053,-0.679321,-0.66333
42452326684,-0.273621,-0.154053,-0.679321,-0.66333
42452346277,-0.273621,-0.154053,-0.679321,-0.66333
42452368813,-0.273621,-0.154053,-0.679321,-0.66333
42452383805,-0.273621,-0.154053,-0.679321,-0.66333
42452406265,-0.273621,-0.154114,-0.679321,-0.66333
42452422699,-0.273621,-0.154114,-0.679321,-0.66333
42452445210,-0.273499,-0.153931,-0.679382,-0.663391
42452466322,-0.273499,-0.153931,-0.679382,-0.663391
42452482753,-0.273499,-0.153931,-0.679382,-0.663391
42452505276,-0.273499,-0.153931,-0.679382,-0.663391
42452526328,-0.273499,-0.153931,-0.679382,-0.663391
42452542742,-0.273499,-0.153992,-0.679321,-0.663391
42452565284,-0.273499,-0.153992,-0.679321,-0.663391
42452586361,-0.273499,-0.153992,-0.679321,-0.663391
42452602646,-0.27356,-0.153992,-0.679321,-0.663391
42452625297,-0.27356,-0.153992,-0.679321,-0.663391
42452646360,-0.273376,-0.15387,-0.679382,-0.663452
