timestamp,roll,pitch,yaw
122064139782,0.666107,-0.301681,-0.806415
122064163443,0.666402,-0.3008,-0.805035
122064184769,0.666898,-0.30333,-0.804112
122064199743,0.666998,-0.308206,-0.804716
122064224682,0.665422,-0.313193,-0.805562
122064244840,0.663303,-0.316058,-0.805118
122064284111,0.660818,-0.315186,-0.803745
122064286182,0.658794,-0.311689,-0.802441
122064299659,0.658245,-0.308068,-0.802081
122064320512,0.659211,-0.305482,-0.802865
122064344240,0.660952,-0.304117,-0.804358
122064358465,0.663359,-0.303294,-0.805833
122064402229,0.665707,-0.302786,-0.8066
122064412370,0.667173,-0.302368,-0.806584
122064418511,0.667006,-0.301941,-0.806222
122064440443,0.666193,-0.3023,-0.805719
122064462945,0.664681,-0.30361,-0.805103
122064477124,0.663097,-0.304836,-0.804847
122064500428,0.661972,-0.305754,-0.804749
122064522921,0.661295,-0.305647,-0.804508
122064537426,0.661027,-0.304166,-0.804535
122064560448,0.661899,-0.302237,-0.804431
122064582878,0.662763,-0.300669,-0.804196
122064597278,0.664001,-0.300332,-0.804697
122064620301,0.664916,-0.300979,-0.805367
122064642975,0.665324,-0.301825,-0.805408
122064657174,0.664909,-0.302403,-0.804963
122064680418,0.664299,-0.302676,-0.80434
122064702882,0.663637,-0.30304,-0.803872
122064718599,0.663568,-0.30385,-0.803765
122064740452,0.664219,-0.303988,-0.803869
122064762834,0.665599,-0.304053,-0.80374
122064778575,0.667086,-0.303903,-0.80384
122064800329,0.667937,-0.304086,-0.803609
122064822785,0.667937,-0.304059,-0.80318
122064838525,0.667031,-0.304038,-0.802492
122064860308,0.66565,-0.303917,-0.801763
122064882786,0.664792,-0.304039,-0.801008
122064898555,0.66415,-0.304575,-0.800334
122064920326,0.664188,-0.305107,-0.800564
122064942813,0.664757,-0.305522,-0.800897
122064958566,0.665883,-0.305763,-0.801044
122064980031,0.66605,-0.305097,-0.801248
122065002771,0.66642,-0.304321,-0.800904
122065025275,0.666373,-0.304177,-0.800972
122065039616,0.666468,-0.304428,-0.801373
122065062737,0.666855,-0.305128,-0.80205
122065078588,0.666902,-0.305272,-0.801982
122065099573,0.666742,-0.304548,-0.801642
122065122755,0.666168,-0.303274,-0.801238
122065138515,0.666095,-0.303161,-0.801169
122065159610,0.666114,-0.303427,-0.801284
122065182750,0.665918,-0.304306,-0.801582
122065198538,0.666313,-0.304619,-0.801961
122065219596,0.666929,-0.304085,-0.802069
122065242757,0.667387,-0.302764,-0.801947
122065266703,0.668239,-0.301819,-0.802094
122065279609,0.669179,-0.301458,-0.802083
122065302798,0.669199,-0.301659,-0.802307
122065318548,0.67035,-0.301932,-0.802482
122065339636,0.670096,-0.302051,-0.801899
122065362794,0.669555,-0.301514,-0.801383
122065378543,0.669507,-0.301435,-0.801342
122065401071,0.66938,-0.301476,-0.801319
122065424167,0.670942,-0.301365,-0.802561
122065438511,0.677865,-0.299159,-0.805504
122065461033,0.691717,-0.290161,-0.809649
122065484249,0.705399,-0.273583,-0.807582
122065505261,0.719869,-0.259444,-0.806904
122065521047,0.738192,-0.246511,-0.8146
122065544183,0.747676,-0.231917,-0.816045
122065565244,0.745358,-0.228901,-0.8062
122065581030,0.723623,-0.247427,-0.779536
122065604248,0.710646,-0.288387,-0.769464
122065625269,0.67903,-0.337795,-0.781587
122065641152,0.646884,-0.45427,-0.783359
122065664246,0.601022,-0.533935,-0.725722
122065685284,0.613002,-0.554317,-0.70492
122065701055,0.613754,-0.547999,-0.676616
122065724200,0.673353,-0.507768,-0.687671
122065746746,0.738334,-0.458662,-0.735286
122065769261,0.783811,-0.38689,-0.790052
122065784276,0.811572,-0.303047,-0.838354
122065805453,0.828307,-0.24316,-0.850115
122065821060,0.871767,-0.22031,-0.817132
122065859267,0.917228,-0.237546,-0.806683
122065860077,0.916048,-0.207675,-0.797943
122065889291,0.903414,-0.197029,-0.835866
122065904291,0.917783,-0.243857,-0.863436
122065925451,0.902974,-0.30196,-0.801978
122065947946,0.891137,-0.318984,-0.808891
122065963625,0.929924,-0.297541,-0.851972
122065985475,0.977986,-0.258965,-0.880139
122066001094,1.04194,-0.198163,-0.909736
122066023638,1.09573,-0.141628,-0.911949
122066045485,1.13861,-0.120082,-0.89123
122066061099,1.13687,-0.13377,-0.875961
122066083671,1.08839,-0.141941,-0.87191
122066106844,0.990464,-0.154607,-0.857758
122066121190,0.909928,-0.181886,-0.847574
122066143599,0.850078,-0.243845,-0.835835
122066166742,0.777582,-0.307229,-0.802504
122066181192,0.751223,-0.361452,-0.80243
122066203545,0.775264,-0.393768,-0.779727
122066226807,0.775581,-0.399203,-0.778482
122066241292,0.837782,-0.363402,-0.811778
122066263623,0.904154,-0.309309,-0.850601
122066286750,0.958727,-0.234874,-0.884717
122066301497,1.00836,-0.18467,-0.902731
122066323565,1.05299,-0.16532,-0.885385
122066346760,1.0757,-0.179204,-0.870662
122066375442,1.05606,-0.170887,-0.856659
122066383560,1.02273,-0.149094,-0.85955
122066406705,1.02358,-0.147991,-0.882728
122066427834,1.02466,-0.198538,-0.887666
122066443576,1.01239,-0.242493,-0.941782
122066466679,1.06412,-0.208085,-0.980744
122066487861,1.08731,-0.0879879,-0.984506
122066503635,1.19334,0.0399226,-0.945406
122066526760,1.25997,0.0614409,-0.884301
122066547792,1.29644,0.0380474,-0.877566
122066563582,1.27367,0.0323955,-0.896796
122066586723,1.20543,0.0123596,-0.898622
122066607977,1.12139,0.00293339,-0.877508
122066623669,1.03103,-0.0108031,-0.847437
122066646852,0.933874,-0.0673122,-0.796107
122066668010,0.845089,-0.130871,-0.799278
122066683659,0.771938,-0.208911,-0.811267
122066728620,0.766682,-0.262713,-0.795505
122066735390,0.753651,-0.293206,-0.784724
122066751751,0.804806,-0.301949,-0.803412
122066766167,0.867376,-0.268184,-0.853701
122066803859,0.90845,-0.184582,-0.888589
122066810323,0.973038,-0.0723872,-0.89911
122066818545,1.03547,0.0275747,-0.88505
122066842535,1.10182,0.064777,-0.84984
122066863565,1.13362,0.0548117,-0.838238
122066886716,1.1364,0.0488658,-0.835368
122066907789,1.12024,0.0491244,-0.82043
122066932194,1.04416,0.00419296,-0.782123
122066937125,0.966858,0.00628884,-0.7652
122066959583,0.88938,0.0209375,-0.783482
122066982796,0.827295,-0.0281974,-0.782267
122066997126,0.775932,-0.0668272,-0.774278
122067019581,0.760276,-0.0731204,-0.775477
122067042997,0.793182,-0.0662426,-0.7667
122067057188,0.837192,-0.0550502,-0.785965
122067079874,0.879891,-0.0391957,-0.824921
122067102934,0.934859,-0.0290547,-0.849034
122067117426,0.982262,-0.0582527,-0.849023
122067139811,0.996363,-0.107712,-0.850779
122067162997,0.969168,-0.147202,-0.842663
122067177303,0.911453,-0.152156,-0.819166
122067208650,0.853644,-0.170387,-0.772012
122067222970,0.807507,-0.166532,-0.720538
122067237344,0.774529,-0.165356,-0.692045
122067259879,0.757411,-0.185622,-0.677423
122067282991,0.747191,-0.218846,-0.672156
122067305463,0.742377,-0.233128,-0.690662
122067319845,0.758802,-0.204185,-0.725074
122067342879,0.78525,-0.162746,-0.747199
122067357345,0.821378,-0.129417,-0.760941
122067379698,0.860465,-0.119134,-0.776541
122067402815,0.869547,-0.11608,-0.790714
122067417183,0.864327,-0.119778,-0.79336
122067439655,0.86459,-0.122729,-0.792102
122067462873,0.855303,-0.129789,-0.797175
122067485357,0.828068,-0.142884,-0.794147
122067508497,0.788621,-0.169528,-0.789411
122067522815,0.76009,-0.196025,-0.785664
122067537221,0.735717,-0.220182,-0.775752
122067559757,0.713638,-0.231247,-0.763299
122067584349,0.693798,-0.230637,-0.759997
122067612892,0.681059,-0.218663,-0.765738
122067636816,0.684657,-0.198851,-0.772138
122067658643,0.703858,-0.176638,-0.782683
122067665462,0.731435,-0.141732,-0.800807
122067689322,0.756749,-0.10208,-0.815483
122067704279,0.786062,-0.0678808,-0.833317
122067717522,0.817565,-0.0426633,-0.851758
122067748052,0.847966,-0.0332951,-0.858173
122067771823,0.868791,-0.0308638,-0.848472
122067794340,0.869567,-0.0324515,-0.831602
122067824986,0.855189,-0.038482,-0.815058
122067825834,0.825604,-0.0540313,-0.798613
122067846871,0.785971,-0.079697,-0.780214
122067875370,0.746519,-0.109483,-0.770279
122067899304,0.716996,-0.146868,-0.774237
122067900151,0.708768,-0.185535,-0.785618
122067927908,0.707306,-0.214744,-0.803102
122067951856,0.713275,-0.225006,-0.830781
122067960194,0.743222,-0.202716,-0.863129
122067981787,0.796998,-0.166797,-0.881695
122068003634,0.849832,-0.110652,-0.89316
122068026918,0.880937,-0.0442181,-0.897064
122068048704,0.883921,0.0213279,-0.898852
122068079403,0.873925,0.0726232,-0.881277
122068102594,0.883979,0.118771,-0.869677
122068103317,0.885434,0.143712,-0.878708
122068122375,0.848705,0.181086,-0.867984
122068138708,0.812034,0.195154,-0.849834
122068159821,0.781548,0.181369,-0.826317
122068182161,0.745838,0.148323,-0.814215
122068197136,0.703757,0.11131,-0.804788
122068219631,0.674169,0.0850359,-0.785885
122068242164,0.657121,0.0726702,-0.773042
122068257177,0.650818,0.0617893,-0.767708
122068279622,0.651928,0.041276,-0.771055
122068302128,0.651636,0.01439,-0.780952
122068317114,0.652782,-0.00427411,-0.789925
122068339636,0.656255,-0.00833071,-0.793486
122068362166,0.662877,0.00214809,-0.790296
122068377118,0.666476,0.0230326,-0.785723
122068399629,0.667097,0.0452751,-0.781593
122068422313,0.664563,0.0633569,-0.780287
122068437271,0.663354,0.0700729,-0.782535
122068459720,0.665241,0.0631285,-0.785499
122068482366,0.66656,0.0431263,-0.789553
122068497357,0.664034,0.0141096,-0.795183
122068521141,0.655447,-0.0124067,-0.797264
122068542228,0.643377,-0.0272799,-0.792978
122068557159,0.634749,-0.0350142,-0.78439
122068579849,0.628398,-0.0437243,-0.777057
122068602223,0.620129,-0.0550147,-0.772874
122068617443,0.612723,-0.0654134,-0.770295
122068639853,0.609674,-0.0694281,-0.768372
122068662253,0.609222,-0.0671438,-0.768804
122068677354,0.612696,-0.0626274,-0.769527
122068699844,0.615536,-0.0598894,-0.771141
122068722360,0.61736,-0.0560153,-0.77456
122068737239,0.620658,-0.0509306,-0.776449
122068759828,0.625819,-0.0443875,-0.778264
122068782245,0.627765,-0.0390294,-0.781201
122068800155,0.628492,-0.0365459,-0.78548
122068819775,0.628526,-0.0365673,-0.788398
122068842362,0.629005,-0.0383398,-0.790186
122068858719,0.628849,-0.0395324,-0.791376
122068879850,0.629171,-0.0418738,-0.791515
122068902254,0.629523,-0.0444753,-0.791184
122068918678,0.628133,-0.0463339,-0.790607
122068939977,0.627514,-0.04639,-0.789986
122068962200,0.627256,-0.0451531,-0.788988
122068978634,0.627138,-0.0439686,-0.788839
122068999845,0.628098,-0.0434992,-0.789117
122069022221,0.628734,-0.0414659,-0.788949
122069046188,0.63055,-0.0382841,-0.788728
122069059890,0.6337,-0.0374657,-0.788933
122069082228,0.635433,-0.0384874,-0.790111
122069098595,0.635292,-0.0398126,-0.790952
122069119833,0.636399,-0.0393691,-0.790408
122069142275,0.636691,-0.0387965,-0.789306
122069158675,0.635324,-0.0374212,-0.788758
122069179887,0.634889,-0.0387242,-0.788707
122069202199,0.635453,-0.0402331,-0.789043
122069226228,0.6358,-0.0411735,-0.788721
122069247843,0.636538,-0.0403733,-0.786755
122069262183,0.635963,-0.0370181,-0.783178
122069278625,0.633727,-0.0298457,-0.778923
122069299671,0.631085,-0.0215418,-0.774813
122069322160,0.630643,-0.0167865,-0.771911
122069338614,0.629193,-0.0170859,-0.771534
122069359644,0.627494,-0.0212215,-0.772938
122069382169,0.626794,-0.0275301,-0.774086
122069398615,0.625202,-0.0278014,-0.772953
