timestamp,roll,pitch,yaw
450648226698,0.0728755,-0.818866,-0.0461497
450648241723,0.0863112,-0.838951,-0.0672707
450648256731,0.107215,-0.862971,-0.087616
450648279181,0.119991,-0.875544,-0.107781
450648294216,0.117364,-0.878108,-0.121217
450648316721,0.106045,-0.876829,-0.120088
450648339220,0.0894103,-0.873264,-0.109707
450648354207,0.0753423,-0.873804,-0.0980255
450648376684,0.0724752,-0.878384,-0.0887171
450648399232,0.0737548,-0.887159,-0.0809011
450648414206,0.0744602,-0.901494,-0.0736377
450648438005,0.0724458,-0.921532,-0.0618811
450648459242,0.0660717,-0.948044,-0.0461232
450648474266,0.060223,-0.978474,-0.0297199
450648496764,0.0638546,-1.00711,-0.017485
450648511771,0.0723465,-1.03315,0.00537797
450648534330,0.0896993,-1.05167,0.0291583
450648556761,0.10838,-1.06458,0.0521875
450648579302,0.130483,-1.07154,0.0822554
450648594239,0.150122,-1.0735,0.128727
450648616778,0.164719,-1.07509,0.19076
450648639274,0.170483,-1.0749,0.249999
450648654239,0.176751,-1.07409,0.309257
450648676677,0.184284,-1.07659,0.376559
450648699271,0.185465,-1.08944,0.443678
450648714273,0.170538,-1.1,0.515353
450648736744,0.169834,-1.07687,0.511192
450648759275,0.159209,-1.03602,0.459262
450648774271,0.170204,-0.983693,0.357231
450648796738,0.187019,-0.977033,0.176396
450648819328,0.185478,-0.983082,-0.0061413
450648834295,0.177582,-0.988961,-0.100805
450648856782,0.142337,-0.995624,-0.0965165
450648879217,0.0640265,-1.00473,-0.0417338
450648894214,-0.00889798,-1.0155,0.0197589
450648916834,-0.0474695,-1.02819,0.0924454
450648939269,-0.0877695,-1.07466,0.137367
450648954266,-0.108051,-1.15257,0.144585
450648976739,-0.117267,-1.21647,0.160933
450648999262,-0.119711,-1.27102,0.17445
450649014318,-0.13475,-1.30581,0.203299
450649036795,-0.139849,-1.30394,0.227734
450649059332,-0.149597,-1.29542,0.231803
450649074339,-0.157519,-1.27487,0.232139
450649096812,-0.156111,-1.24918,0.237968
450649119351,-0.168308,-1.23137,0.252478
450649134333,-0.173599,-1.22315,0.250906
450649156768,-0.169653,-1.21847,0.234015
450649179378,-0.170954,-1.21962,0.227503
450649194302,-0.186491,-1.2251,0.240299
450649216774,-0.208068,-1.22418,0.259605
450649239303,-0.217618,-1.22066,0.275397
450649261792,-0.221539,-1.21787,0.296
450649284280,-0.211442,-1.21335,0.300061
450649299286,-0.196807,-1.20729,0.295309
450649314264,-0.179837,-1.2038,0.289534
450649336770,-0.166713,-1.20231,0.291474
450649351810,-0.164545,-1.20884,0.303104
450649374338,-0.1795,-1.21685,0.328603
450649404308,-0.207224,-1.22415,0.359855
450649411801,-0.23572,-1.23328,0.384712
450649434282,-0.257758,-1.24497,0.399665
450649456769,-0.271496,-1.25542,0.402429
450649479257,-0.274693,-1.25716,0.38853
450649494273,-0.275735,-1.25152,0.372553
450649516790,-0.268518,-1.23614,0.355373
450649531808,-0.258528,-1.21137,0.341376
450649554239,-0.256724,-1.18661,0.33816
450649576765,-0.243598,-1.16822,0.331107
450649591791,-0.226519,-1.15651,0.335161
450649614338,-0.215778,-1.15196,0.346297
450649636857,-0.22503,-1.15861,0.372768
450649651831,-0.248635,-1.17479,0.407992
450649674303,-0.288502,-1.19568,0.447503
450649696821,-0.320606,-1.21127,0.470125
450649711728,-0.332839,-1.21955,0.475501
450649734260,-0.328227,-1.22165,0.465932
450649756860,-0.312279,-1.21938,0.441678
450649779290,-0.286329,-1.21136,0.407627
450649794317,-0.262668,-1.20074,0.380929
450649816826,-0.246118,-1.1891,0.36443
450649831787,-0.238398,-1.17879,0.356376
450649854292,-0.235789,-1.17432,0.353555
450649876847,-0.242122,-1.17677,0.362422
450649891794,-0.251092,-1.18375,0.375003
450649914258,-0.262514,-1.19511,0.388153
450649936818,-0.2734,-1.21089,0.397605
450649952199,-0.279536,-1.22523,0.400179
450649974313,-0.280832,-1.23153,0.397001
450649996818,-0.274745,-1.22431,0.384317
450650011868,-0.261972,-1.20325,0.36166
450650034294,-0.247234,-1.17975,0.335793
450650056837,-0.231043,-1.1568,0.306211
450650079289,-0.223935,-1.14648,0.285037
450650094286,-0.220232,-1.1423,0.269354
450650116815,-0.224107,-1.14905,0.266213
450650131845,-0.236016,-1.15974,0.277549
450650154291,-0.252122,-1.17567,0.297816
450650184344,-0.268672,-1.19332,0.321402
450650191733,-0.280949,-1.2096,0.339662
450650214259,-0.285998,-1.21578,0.349326
450650236810,-0.280549,-1.2105,0.346803
450650251835,-0.267631,-1.2002,0.335004
450650274285,-0.255059,-1.18822,0.322243
450650296800,-0.245801,-1.17548,0.312105
450650311779,-0.242525,-1.16678,0.30782
450650334282,-0.237994,-1.16203,0.302434
450650356734,-0.232631,-1.16269,0.303412
450650379332,-0.227839,-1.16774,0.310406
450650394351,-0.229298,-1.17584,0.325105
450650424322,-0.233893,-1.18469,0.344311
450650431761,-0.241666,-1.19086,0.363732
450650454287,-0.24535,-1.19753,0.381779
450650476790,-0.246793,-1.19797,0.402601
450650491824,-0.246029,-1.19417,0.416327
450650514397,-0.237914,-1.18629,0.415235
450650536825,-0.225185,-1.17403,0.406276
450650551793,-0.211751,-1.15928,0.389283
450650574358,-0.207598,-1.148,0.378358
450650596816,-0.200176,-1.13286,0.367682
450650611812,-0.197139,-1.12257,0.362947
450650634378,-0.199733,-1.11919,0.360827
450650664296,-0.204861,-1.11971,0.358391
450650679372,-0.2133,-1.12369,0.357803
450650694334,-0.222511,-1.13225,0.355863
450650717298,-0.224601,-1.14151,0.344371
450650731826,-0.222372,-1.14843,0.326408
450650754337,-0.219866,-1.15545,0.304118
450650776745,-0.216727,-1.15989,0.27916
450650791837,-0.214686,-1.159,0.259744
450650814307,-0.214378,-1.15406,0.249939
450650844249,-0.215028,-1.14686,0.246549
450650851733,-0.215782,-1.13977,0.246004
450650874296,-0.216064,-1.13551,0.247005
450650896793,-0.216708,-1.13524,0.248974
450650911861,-0.218598,-1.13662,0.251918
450650934318,-0.219858,-1.13691,0.254951
450650956794,-0.221741,-1.14024,0.256819
450650979359,-0.223144,-1.1467,0.252989
450650994399,-0.223023,-1.15662,0.24472
450651016824,-0.226384,-1.16907,0.236424
450651031827,-0.231925,-1.17743,0.228316
450651054480,-0.238585,-1.17991,0.224153
450651076852,-0.242134,-1.18151,0.217149
450651091811,-0.242946,-1.18717,0.208743
450651114321,-0.23944,-1.1936,0.20235
450651136852,-0.238977,-1.19875,0.204374
450651151850,-0.244386,-1.20381,0.214711
450651174289,-0.25569,-1.20959,0.231032
450651196848,-0.266567,-1.21365,0.248938
450651211814,-0.271573,-1.21414,0.263152
450651234322,-0.266543,-1.20891,0.265491
450651256875,-0.253646,-1.20156,0.257246
450651271883,-0.240378,-1.19262,0.246265
450651294287,-0.229025,-1.18282,0.235359
450651316840,-0.221311,-1.17141,0.225802
450651331906,-0.216805,-1.1633,0.217951
450651354337,-0.211203,-1.15531,0.210057
450651376924,-0.204798,-1.14435,0.204269
450651391874,-0.200649,-1.13329,0.200649
450651414347,-0.198212,-1.12584,0.197592
450651436907,-0.199005,-1.12296,0.197765
450651451870,-0.203507,-1.12477,0.202356
450651474325,-0.208038,-1.13,0.208746
450651496842,-0.210839,-1.13588,0.215613
450651511841,-0.213451,-1.14305,0.222371
450651534319,-0.219175,-1.15171,0.231175
450651556807,-0.226947,-1.16224,0.238582
450651571844,-0.233423,-1.17287,0.24628
450651594335,-0.23832,-1.18345,0.260135
450651616904,-0.244087,-1.19294,0.278805
450651639370,-0.246518,-1.20343,0.292444
450651654346,-0.2452,-1.21033,0.301002
450651684348,-0.241799,-1.21244,0.305496
450651691873,-0.234754,-1.20773,0.306821
450651714348,-0.226936,-1.20126,0.304137
450651736839,-0.218127,-1.19335,0.295476
450651751888,-0.208753,-1.18752,0.284743
450651774379,-0.202126,-1.1849,0.273644
450651796873,-0.195089,-1.18406,0.258067
450651811901,-0.187472,-1.18275,0.243342
450651834329,-0.183689,-1.18055,0.23525
450651856868,-0.185069,-1.17515,0.232608
450651871867,-0.186815,-1.16834,0.231743
450651894308,-0.186622,-1.16103,0.227883
450651916835,-0.183181,-1.15203,0.216535
450651931841,-0.171748,-1.14645,0.187641
450651961820,-0.164103,-1.14118,0.161276
450651976869,-0.163746,-1.13939,0.133346
450651991920,-0.171349,-1.143,0.089279
450652014373,-0.181617,-1.14407,0.0323989
450652036857,-0.193645,-1.15672,-0.0179073
450652051890,-0.222426,-1.17527,-0.061424
450652074316,-0.270929,-1.18807,-0.112374
450652096826,-0.311216,-1.19051,-0.152585
450652111844,-0.338716,-1.18054,-0.189462
450652134373,-0.35084,-1.15578,-0.246481
450652156807,-0.335203,-1.11745,-0.280271
450652171796,-0.326675,-1.07528,-0.258737
450652194338,-0.31801,-1.04524,-0.226919
450652216811,-0.303187,-1.02262,-0.152207
450652231850,-0.300634,-1.00854,-0.0696049
450652254373,-0.289459,-0.988492,-0.0119402
450652276807,-0.268824,-0.970677,0.0339848
450652291900,-0.249346,-0.955462,0.0741318
450652314331,-0.233692,-0.946609,0.107269
450652336792,-0.224023,-0.945842,0.127924
450652351808,-0.22325,-0.95632,0.148797
450652374433,-0.218561,-0.976889,0.161328
450652396862,-0.210128,-1.00001,0.168029
450652411802,-0.211088,-1.01885,0.174933
450652434261,-0.217371,-1.02857,0.183683
450652456767,-0.221601,-1.03426,0.192688
450652471861,-0.218639,-1.02982,0.198842
450652494362,-0.212293,-1.01985,0.199378
450652516838,-0.20196,-0.995261,0.190169
450652531791,-0.181094,-0.955179,0.173486
450652561859,-0.141731,-0.907396,0.16081
450652576882,-0.0960375,-0.860249,0.154505
450652599315,-0.06569,-0.81475,0.154127
450652614367,-0.044516,-0.789021,0.156319
450652636840,-0.0185727,-0.766365,0.16005
450652651778,0.00239966,-0.752135,0.163283
450652674369,0.0146107,-0.733712,0.166822
450652696887,0.014275,-0.714572,0.166617
450652711836,0.0073709,-0.699417,0.1603
450652734392,-0.00320428,-0.683363,0.151569
450652756895,-0.0172904,-0.675266,0.141374
450652771931,-0.0340873,-0.673464,0.13606
450652794365,-0.0441632,-0.670768,0.135069
450652816836,-0.0491934,-0.667092,0.13432
450652831796,-0.0434337,-0.66098,0.129462
450652854363,-0.032606,-0.653749,0.119259
450652876903,-0.0248903,-0.643548,0.107037
450652891834,-0.0223301,-0.630471,0.0983494
450652914339,-0.0233584,-0.619899,0.0957012
450652936865,-0.0216921,-0.613675,0.0959007
450652951924,-0.0148858,-0.613867,0.09503
450652974314,-0.00377235,-0.622493,0.0894624
450652996885,0.00717596,-0.6348,0.0806697
450653011841,0.0113032,-0.64562,0.0735946
450653034285,0.00914261,-0.655398,0.0679477
450653056916,0.00309725,-0.658216,0.0638351
450653071863,-0.00534955,-0.657679,0.0610358
450653094396,-0.0158354,-0.655707,0.060193
450653116946,-0.0266382,-0.649331,0.0603653
450653131868,-0.0339977,-0.637936,0.0600889
450653154382,-0.0368129,-0.625804,0.0586226
450653176898,-0.0376331,-0.612103,0.0574785
450653191871,-0.036654,-0.599558,0.0569537
450653214343,-0.0328812,-0.593803,0.0565371
450653236897,-0.0278065,-0.591742,0.0551912
450653251889,-0.0226864,-0.594176,0.0523996
450653274382,-0.0222864,-0.596111,0.0475876
450653296896,-0.0219916,-0.595733,0.0458293
450653311820,-0.0216597,-0.599692,0.0493767
450653334407,-0.0235884,-0.61115,0.0560884
450653356902,-0.0308771,-0.627632,0.0614963
450653371976,-0.0620346,-0.641791,0.0688891
450653394370,-0.116594,-0.660754,0.074407
450653416795,-0.1665,-0.668317,0.0773703
450653431884,-0.17943,-0.65796,0.0778386
450653454419,-0.220903,-0.640338,0.0753235
450653476901,-0.301413,-0.598988,0.0587291
450653491923,-0.344741,-0.541764,0.0298189
450653514396,-0.334188,-0.500796,0.00501972
450653536814,-0.336872,-0.462402,-0.0224683
450653551872,-0.362749,-0.447563,-0.0635727
450653574365,-0.345183,-0.456825,-0.0994771
450653596841,-0.322847,-0.492146,-0.110674
450653611867,-0.319542,-0.55916,-0.11091
450653634352,-0.31889,-0.645404,-0.0974061
450653656834,-0.316146,-0.740125,-0.0686468
450653671821,-0.314004,-0.838606,-0.0231377
450653694376,-0.306916,-0.918448,0.0161422
450653716813,-0.296341,-0.988253,0.0434631
450653731818,-0.272686,-1.04601,0.0575983
450653754391,-0.232435,-1.08878,0.0762004
450653776852,-0.208559,-1.12634,0.115166
450653791873,-0.209054,-1.16437,0.156963
450653814431,-0.237756,-1.2148,0.229688
450653836864,-0.297145,-1.27205,0.342878
450653851883,-0.403951,-1.3284,0.494237
450653874397,-0.556025,-1.37615,0.678882
450653896907,-0.768776,-1.41025,0.922862
450653911883,-1.08393,-1.42405,1.27461
450653934405,-1.4437,-1.41463,1.66833
450653956865,-1.74524,-1.38583,1.99617
450653971875,-1.98178,-1.34205,2.25592
450653994455,-2.14695,-1.28719,2.44545
450654016884,-2.25339,-1.22817,2.57646
450654031875,-2.33716,-1.1766,2.67527
450654054398,-2.39348,-1.13428,2.74322
450654076936,-2.42479,-1.09722,2.78768
450654091870,-2.42931,-1.07856,2.80246
450654114425,-2.42753,-1.06298,2.80611
450654136901,-2.42743,-1.04781,2.80794
450654159378,-2.42863,-1.03316,2.81034
450654174419,-2.43345,-1.01759,2.81757
450654196863,-2.45018,-1.00202,2.83473
450654219396,-2.47644,-0.987325,2.85929
450654234339,-2.50118,-0.972402,2.88574
450654256932,-2.52563,-0.95737,2.91211
450654279365,-2.54709,-0.946115,2.93261
450654294367,-2.56126,-0.941676,2.94512
450654316918,-2.56541,-0.945634,2.94781
450654339386,-2.56425,-0.957418,2.94456
450654354367,-2.56113,-0.978817,2.93691
450654376887,-2.54851,-1.01056,2.92069
450654399402,-2.52236,-1.05285,2.89019
450654414375,-2.48546,-1.09549,2.84713
450654436943,-2.43181,-1.14457,2.78696
450654459365,-2.36327,-1.19659,2.71136
450654474411,-2.27277,-1.24938,2.61336
450654496894,-2.13969,-1.30074,2.47229
450654519418,-1.93787,-1.34453,2.26343
450654541976,-1.67674,-1.37337,1.99641
450654556897,-1.38055,-1.38627,1.69627
450654579400,-1.10851,-1.385,1.42126
450654594409,-0.880404,-1.37306,1.1891
450654616969,-0.704032,-1.35217,1.01321
450654639418,-0.552287,-1.32082,0.863922
450654661955,-0.435658,-1.29049,0.746259
450654676892,-0.332724,-1.25518,0.640016
450654699388,-0.247847,-1.21468,0.551511
450654714363,-0.181937,-1.16639,0.483244
450654736908,-0.13034,-1.11331,0.428875
450654759391,-0.0849909,-1.05226,0.379114
450654774406,-0.0461106,-0.992372,0.336952
450654796987,-0.0160681,-0.930931,0.303388
450654819401,0.00731978,-0.873082,0.280133
450654834393,0.026832,-0.823109,0.26422
450654856891,0.0429953,-0.778365,0.252504
450654879432,0.0584291,-0.742728,0.245367
450654901806,0.074534,-0.711876,0.241399
450654916896,0.0930429,-0.67632,0.23787
450654939434,0.11434,-0.641802,0.232138
450654954429,0.137409,-0.606206,0.22565
450654976861,0.162016,-0.573898,0.220704
450654999402,0.184761,-0.557204,0.222286
450655014459,0.206294,-0.544478,0.228975
450655036852,0.227704,-0.533151,0.240412
450655059312,0.251027,-0.524721,0.255002
450655081824,0.276243,-0.521791,0.268315
450655096913,0.302853,-0.527279,0.278434
450655119430,0.330404,-0.540194,0.286086
450655141890,0.357722,-0.55605,0.293935
450655156863,0.384348,-0.574873,0.301557
450655179507,0.408796,-0.59584,0.307952
450655201840,0.431983,-0.620145,0.310628
450655216920,0.453582,-0.645688,0.31187
450655239444,0.470977,-0.669397,0.31467
450655261880,0.482163,-0.6897,0.321068
450655276913,0.487367,-0.708323,0.331919
450655299417,0.48609,-0.725346,0.3469
450655321890,0.47794,-0.740229,0.365558
450655336875,0.465691,-0.756519,0.383489
450655359469,0.449612,-0.776873,0.400489
450655381923,0.428832,-0.804164,0.417523
450655396942,0.401247,-0.834518,0.437467
450655411886,0.367863,-0.870651,0.459255
450655434456,0.328456,-0.909779,0.482079
450655472608,0.284152,-0.948596,0.505707
450655473413,0.235658,-0.987863,0.528713
450655494368,0.181849,-1.024,0.551927
450655516864,0.128635,-1.05675,0.571679
450655531976,0.0699669,-1.09363,0.592759
450655554434,0.00273743,-1.12955,0.617497
450655576873,-0.0684146,-1.16293,0.643924
450655591867,-0.141488,-1.19634,0.669164
450655614488,-0.219281,-1.22994,0.694617
450655636890,-0.30801,-1.26571,0.730578
450655651885,-0.419158,-1.30731,0.788507
450655674416,-0.539204,-1.34711,0.854478
450655696944,-0.704757,-1.39445,0.966
450655711895,-0.951097,-1.43997,1.1548
450655734415,-1.35249,-1.47199,1.50257
450655756923,-1.85647,-1.48209,1.95802
450655771960,-2.31978,-1.47511,2.37148
450655794454,-2.69701,-1.4573,2.70029
450655816933,-2.9483,-1.43212,2.9078
450655831849,-3.09914,-1.40548,3.01893
450655854446,3.08448,-1.38208,3.08356
450655876933,3.00351,-1.36673,3.13398
450655891868,2.9235,-1.33203,-3.09826
450655914415,2.87578,-1.28924,-3.0738
450655936935,2.85752,-1.24875,-3.07227
450655951946,2.85582,-1.21526,-3.08278
450655974453,2.86568,-1.19666,-3.1
450655996862,2.88314,-1.18344,-3.11939
450656011902,2.90737,-1.17453,-3.13985
450656034441,2.93785,-1.17121,3.12332
450656056944,2.97375,-1.17021,3.1027
450656071927,3.01708,-1.16825,3.07838
450656094486,3.07213,-1.17133,3.04734
450656116955,3.14145,-1.18019,3.00656
450656131950,-3.06459,-1.19072,2.95968
450656154414,-2.98888,-1.18988,2.91732
450656176971,-2.91218,-1.19313,2.87712
450656191917,-2.83206,-1.20066,2.83364
450656214388,-2.73571,-1.21745,2.77323
450656236926,-2.62056,-1.23682,2.69585
450656259386,-2.48884,-1.25784,2.60337
450656274423,-2.34613,-1.28005,2.49571
450656304389,-2.18676,-1.30083,2.36942
450656311888,-2.0054,-1.31583,2.2219
450656334352,-1.79959,-1.32508,2.04837
450656356890,-1.56976,-1.32834,1.84768
450656371955,-1.34815,-1.32358,1.65157
450656401888,-1.13349,-1.31213,1.46085
450656416946,-0.942775,-1.29307,1.29491
450656431974,-0.781729,-1.27008,1.15488
450656454446,-0.656752,-1.24779,1.04689
450656476999,-0.542956,-1.22519,0.951833
450656499322,-0.451959,-1.20409,0.878849
450656514395,-0.370849,-1.18091,0.810456
450656536957,-0.29463,-1.15574,0.744237
450656551913,-0.224583,-1.1315,0.682011
450656574434,-0.158864,-1.10432,0.620189
450656597022,-0.0997844,-1.07321,0.562604
450656611969,-0.0498666,-1.04558,0.510693
450656634396,-0.0037394,-1.01123,0.461812
450656656973,0.0366626,-0.975734,0.418829
450656671936,0.069524,-0.939003,0.380298
450656694447,0.0965643,-0.90106,0.348323
450656716969,0.117087,-0.873589,0.325429
450656731978,0.133129,-0.851766,0.30656
450656754462,0.146303,-0.835915,0.291088
450656776943,0.159487,-0.823459,0.277315
450656791904,0.17204,-0.816213,0.264392
450656814449,0.184804,-0.810892,0.25138
450656836912,0.19745,-0.808089,0.240128
450656851980,0.209548,-0.807682,0.229021
450656874482,0.221638,-0.805489,0.217477
450656896937,0.235664,-0.803218,0.205234
450656911952,0.248417,-0.798073,0.193204
450656934412,0.260539,-0.794907,0.182024
450656964439,0.270434,-0.791534,0.176546
450656971936,0.276634,-0.787569,0.176178
450656994473,0.279921,-0.784517,0.180286
450657016964,0.282372,-0.784034,0.185953
450657032001,0.285389,-0.789309,0.191757
450657054460,0.288458,-0.801989,0.196582
450657076982,0.291126,-0.821414,0.200526
450657092002,0.293818,-0.849144,0.204302
450657114449,0.29485,-0.883477,0.207978
450657136996,0.292759,-0.921319,0.213742
450657151999,0.288573,-0.959065,0.220046
450657174472,0.280287,-0.992342,0.228226
450657196947,0.269453,-1.02311,0.237214
450657211965,0.251931,-1.05038,0.250925
450657234472,0.225662,-1.07403,0.27202
450657256915,0.190984,-1.0917,0.300556
450657271996,0.154204,-1.10661,0.328946
450657294487,0.11946,-1.12194,0.352303
450657316964,0.0856034,-1.14246,0.371352
450657331980,0.0465562,-1.16761,0.394106
450657354404,-0.00236552,-1.1962,0.427423
450657376981,-0.0623824,-1.2273,0.471459
450657391950,-0.131479,-1.26403,0.522537
450657414477,-0.211866,-1.30052,0.583286
450657436944,-0.31665,-1.33737,0.668365
450657451912,-0.461118,-1.36996,0.792577
450657474503,-0.646717,-1.39378,0.95784
450657496934,-0.869764,-1.41084,1.15933
450657511912,-1.11726,-1.42107,1.38291
450657534474,-1.3011,-1.42452,1.54299
450657556935,-1.47985,-1.42434,1.69787
450657571972,-1.64576,-1.42269,1.83821
450657594437,-1.7986,-1.41892,1.96594
450657616936,-1.91815,-1.41432,2.06085
450657631950,-2.01276,-1.41077,2.1325
450657654502,-2.13978,-1.40353,2.2376
450657676937,-2.26278,-1.39255,2.33871
450657691991,-2.35442,-1.37771,2.41261
450657714460,-2.40942,-1.36114,2.45247
450657736970,-2.43597,-1.3495,2.46367
450657751893,-2.46167,-1.33865,2.47679
450657774463,-2.48712,-1.32953,2.49182
450657796977,-2.5215,-1.32073,2.51628
450657811939,-2.55448,-1.31028,2.54029
450657834431,-2.5805,-1.29751,2.5581
450657864438,-2.59388,-1.28647,2.56423
450657871905,-2.59509,-1.27993,2.55984
450657894422,-2.59074,-1.28066,2.54973
450657917006,-2.57502,-1.29166,2.52856
450657931994,-2.53305,-1.31063,2.48448
450657954405,-2.4575,-1.33498,2.40874
450657976971,-2.35279,-1.35856,2.30391
450657992044,-2.22711,-1.37737,2.18037
450658014415,-2.08539,-1.38937,2.04309
450658036883,-1.94422,-1.39551,1.90775
450658051933,-1.80994,-1.39671,1.78039
450658074434,-1.67286,-1.39753,1.65042
450658096966,-1.52782,-1.39843,1.5137
450658111923,-1.36607,-1.39719,1.36069
450658134427,-1.16188,-1.39034,1.16492
450658157423,-0.968603,-1.37246,0.981788
450658171916,-0.797493,-1.34686,0.821035
450658194430,-0.655525,-1.31439,0.688769
450658216888,-0.544148,-1.27775,0.589692
450658231937,-0.457127,-1.23946,0.517261
450658254392,-0.388666,-1.20283,0.464542
450658276929,-0.329046,-1.16877,0.422629
450658291932,-0.273244,-1.13906,0.386759
450658314425,-0.223892,-1.11381,0.358604
450658336956,-0.178245,-1.08827,0.337247
450658351927,-0.135326,-1.06286,0.320726
450658374396,-0.0950827,-1.03837,0.307602
450658396958,-0.055005,-1.01544,0.296023
450658411940,-0.0150457,-0.993241,0.286175
450658434394,0.0237525,-0.97109,0.277221
450658456966,0.0620146,-0.949092,0.268675
450658471958,0.100485,-0.930364,0.260817
450658494425,0.137743,-0.915199,0.253365
450658516956,0.172483,-0.902308,0.247758
450658531954,0.204425,-0.888662,0.245201
450658554436,0.234074,-0.875623,0.244464
450658576948,0.262126,-0.863549,0.244428
450658591953,0.289253,-0.854549,0.243444
450658614451,0.31514,-0.850182,0.241184
450658636893,0.33896,-0.847897,0.23957
450658651950,0.361545,-0.850439,0.237044
450658674433,0.382144,-0.856123,0.232459
450658696926,0.401033,-0.863,0.226704
450658711950,0.418235,-0.87039,0.220404
450658734428,0.431953,-0.878468,0.213736
450658756901,0.442252,-0.887464,0.20728
450658771893,0.447669,-0.895725,0.204141
450658794424,0.446949,-0.902367,0.204258
450658816903,0.441713,-0.906932,0.204867
450658831887,0.434871,-0.913284,0.203894
450658854440,0.42562,-0.922068,0.201427
450658876876,0.411379,-0.932396,0.201109
450658891925,0.393425,-0.943851,0.203067
450658914450,0.373496,-0.957857,0.203905
450658936928,0.352488,-0.974289,0.202828
450658951930,0.330625,-0.992514,0.200649
450658974452,0.306332,-1.01144,0.199959
450658996935,0.27915,-1.03179,0.200991
450659011937,0.249022,-1.05349,0.204468
450659034466,0.216795,-1.07663,0.21009
450659056931,0.182687,-1.10042,0.216401
450659071937,0.147547,-1.12506,0.223722
450659094470,0.109199,-1.15036,0.234211
450659116949,0.0657319,-1.17194,0.251234
450659131938,0.0204288,-1.19301,0.271142
450659154449,-0.0259645,-1.21414,0.292216
450659176941,-0.0729703,-1.23467,0.314933
450659191952,-0.124013,-1.25558,0.343905
450659214476,-0.182998,-1.27713,0.38232
450659236962,-0.246987,-1.29883,0.427469
450659251967,-0.320725,-1.32183,0.484526
450659274493,-0.408785,-1.34507,0.556954
450659296962,-0.513567,-1.36724,0.64905
450659319458,-0.664372,-1.38981,0.788825
450659334588,-0.807538,-1.40205,0.921834
450659357029,-0.950248,-1.40749,1.05742
450659371991,-1.0811,-1.40793,1.18283
450659394516,-1.19842,-1.40419,1.29512
450659416988,-1.3021,-1.39964,1.39466
450659431993,-1.40549,-1.39387,1.49503
450659454501,-1.49656,-1.38723,1.58388
450659477022,-1.59407,-1.38161,1.67924
450659492021,-1.67677,-1.37587,1.75961
450659514527,-1.73515,-1.36935,1.8162
450659537042,-1.76722,-1.36194,1.8484
450659552026,-1.77927,-1.35531,1.86108
450659574520,-1.78024,-1.34933,1.8626
450659597055,-1.77381,-1.3439,1.85837
450659611996,-1.7735,-1.3379,1.86123
450659642046,-1.77606,-1.33269,1.8671
450659657009,-1.77869,-1.32678,1.87265
450659671974,-1.77319,-1.32204,1.8697
450659694507,-1.75497,-1.3196,1.85393
450659717037,-1.73043,-1.32119,1.83095
450659732022,-1.7144,-1.32727,1.8148
450659754483,-1.68455,-1.33572,1.78368
450659777007,-1.63455,-1.34355,1.73388
450659791989,-1.56229,-1.34808,1.66091
450659814500,-1.46614,-1.35049,1.56266
450659837088,-1.34359,-1.35107,1.43967
450659852079,-1.21075,-1.3499,1.30667
450659874488,-1.06479,-1.34502,1.15969
450659897030,-0.917175,-1.33496,1.01299
450659912071,-0.784312,-1.32008,0.882043
450659934505,-0.67698,-1.30307,0.777166
450659957054,-0.584367,-1.28434,0.690017
450659972007,-0.503442,-1.26576,0.616512
450659994497,-0.42799,-1.24639,0.548328
450660016971,-0.355252,-1.22478,0.486003
450660032056,-0.29076,-1.2024,0.435318
450660054521,-0.235587,-1.18204,0.39471
450660077014,-0.186537,-1.16306,0.362246
450660092061,-0.143453,-1.1451,0.338989
450660114493,-0.102698,-1.1266,0.319308
450660129552,-0.0623967,-1.10876,0.301499
450660152069,-0.0224319,-1.09048,0.284399
450660174490,0.0173832,-1.07027,0.267595
450660189534,0.05608,-1.0448,0.253973
450660212051,0.0931014,-1.01986,0.241458
450660242003,0.128839,-0.996614,0.228877
450660249489,0.162876,-0.978034,0.21933
450660272121,0.192573,-0.962252,0.213894
450660294508,0.218444,-0.948809,0.212237
450660309526,0.244492,-0.938028,0.210921
450660332048,0.27033,-0.928421,0.208254
450660354514,0.296788,-0.921914,0.202795
450660377076,0.32152,-0.917017,0.198851
450660391992,0.343324,-0.916206,0.196581
450660421997,0.362119,-0.918288,0.196292
450660429488,0.379083,-0.923315,0.195384
450660452029,0.395527,-0.930261,0.190894
450660474503,0.409698,-0.937367,0.185847
450660489558,0.420436,-0.943403,0.182104
450660512027,0.425018,-0.945783,0.182408
450660534547,0.424232,-0.946245,0.185403
450660549557,0.419759,-0.945928,0.188686
450660572027,0.412982,-0.947756,0.190881
450660594513,0.403919,-0.952847,0.192316
450660609471,0.392704,-0.959743,0.192625
450660632058,0.380321,-0.969717,0.190788
450660654577,0.366796,-0.982415,0.187345
450660677020,0.350551,-0.995109,0.184639
450660691986,0.331006,-1.00849,0.184023
450660714549,0.306299,-1.02089,0.187002
450660729506,0.278846,-1.03207,0.192531
450660752008,0.249595,-1.04364,0.199887
450660774570,0.218925,-1.0556,0.207065
450660797036,0.18638,-1.06873,0.215922
450660811987,0.152648,-1.08402,0.226807
450660834525,0.116438,-1.10027,0.240576
450660857082,0.0777696,-1.11957,0.257421
450660872014,0.0377224,-1.13953,0.275912
450660894476,-0.00312928,-1.16166,0.296742
450660917011,-0.0460566,-1.18144,0.321041
450660931990,-0.092277,-1.20222,0.34996
450660954539,-0.141702,-1.22126,0.384118
450660977045,-0.193429,-1.23741,0.422904
450660992021,-0.250568,-1.25288,0.469222
450661014538,-0.310742,-1.26657,0.519644
450661037031,-0.376031,-1.27928,0.577698
450661052012,-0.448212,-1.29177,0.645253
450661074443,-0.5214,-1.3014,0.71498
450661097026,-0.593455,-1.30828,0.785722
450661112014,-0.664829,-1.31379,0.857576
450661134470,-0.739021,-1.31895,0.933874
450661156984,-0.814517,-1.32297,1.01282
450661171999,-0.898292,-1.32574,1.10075
450661194525,-0.984441,-1.3261,1.19231
450661217038,-1.06671,-1.32331,1.28214
450661232078,-1.14256,-1.31931,1.36452
450661254544,-1.20727,-1.31533,1.43481
450661277038,-1.26121,-1.31161,1.49529
450661291990,-1.30387,-1.30762,1.5438
450661314503,-1.33244,-1.30327,1.57709
450661337070,-1.34598,-1.2988,1.59421
450661352073,-1.35343,-1.29511,1.60462
450661374566,-1.35624,-1.29311,1.6094
450661397086,-1.35359,-1.29214,1.60809
450661412033,-1.3472,-1.29246,1.60152
450661434544,-1.33498,-1.29351,1.58831
450661457046,-1.32196,-1.29559,1.57438
450661472081,-1.29895,-1.29823,1.5493
450661494529,-1.26405,-1.30141,1.51188
450661517078,-1.22296,-1.30593,1.46826
450661532062,-1.17663,-1.31052,1.41887
450661554566,-1.11457,-1.3133,1.35415
450661577124,-1.04209,-1.31344,1.27965
450661592075,-0.966224,-1.31249,1.20167
450661614522,-0.892523,-1.31225,1.1266
450661637127,-0.822539,-1.31284,1.05652
450661659543,-0.755371,-1.314,0.989256
450661674488,-0.686009,-1.31378,0.920926
450661697092,-0.615416,-1.31261,0.852317
450661727476,-0.536523,-1.30752,0.776362
450661734557,-0.452,-1.29663,0.696007
450661757071,-0.365595,-1.27789,0.615849
450661779605,-0.288055,-1.25517,0.546455
450661794568,-0.219258,-1.22901,0.487282
450661817103,-0.161611,-1.20511,0.441536
450661839549,-0.112481,-1.18409,0.406269
450661854551,-0.0707184,-1.16573,0.380644
450661877050,-0.0313412,-1.15115,0.358999
450661899568,0.00559019,-1.13899,0.340343
450661914537,0.0410334,-1.12787,0.324114
450661937014,0.0739776,-1.11513,0.31225
450661959544,0.106567,-1.1021,0.300912
450661974601,0.138586,-1.09014,0.288883
450661997078,0.169544,-1.07816,0.27759
450662019605,0.19661,-1.06734,0.270442
450662034565,0.219837,-1.05549,0.26659
450662057100,0.241543,-1.04365,0.262751
450662079603,0.263487,-1.03343,0.256984
450662094508,0.284503,-1.02286,0.250362
450662117031,0.302956,-1.01232,0.245322
450662139580,0.319077,-1.00546,0.240453
450662154572,0.331628,-1.00085,0.237329
450662177017,0.342561,-0.998664,0.234225
450662199603,0.351336,-0.996106,0.231258
450662214558,0.3593,-0.995784,0.226154
450662237032,0.364556,-0.995724,0.222282
450662259574,0.365029,-0.995512,0.222194
450662274597,0.361148,-0.995512,0.224732
450662297095,0.353469,-0.994249,0.229206
450662319570,0.346072,-0.994122,0.230646
450662342015,0.339245,-0.998045,0.228571
450662357026,0.331015,-1.00374,0.225751
450662379594,0.318511,-1.0093,0.226259
450662394561,0.30372,-1.01591,0.228063
450662409565,0.286405,-1.02199,0.230967
450662432096,0.267369,-1.02725,0.235213
450662454607,0.245758,-1.03077,0.242198
450662469564,0.222048,-1.03519,0.251082
450662492117,0.195018,-1.04058,0.263551
450662514600,0.165208,-1.04811,0.279874
450662529497,0.133422,-1.0577,0.298951
450662552043,0.101727,-1.06899,0.318067
450662574567,0.072271,-1.08437,0.334339
450662589562,0.0439389,-1.10471,0.349421
450662612016,0.0126508,-1.12718,0.368821
450662642092,-0.0253708,-1.14835,0.396103
450662649621,-0.0678389,-1.16302,0.429238
450662672060,-0.109208,-1.17073,0.463202
450662694636,-0.147111,-1.17583,0.494199
450662709593,-0.182589,-1.18102,0.52324
450662732048,-0.221107,-1.18794,0.557252
450662754631,-0.266538,-1.19655,0.600157
450662769630,-0.317095,-1.20522,0.649611
450662792093,-0.369789,-1.21505,0.702466
450662814581,-0.422313,-1.22661,0.755222
450662829583,-0.474856,-1.23851,0.808646
450662852065,-0.529636,-1.2496,0.865875
450662874541,-0.586463,-1.25672,0.926222
450662889544,-0.642373,-1.25883,0.986699
450662919592,-0.689316,-1.25701,1.03921
450662934568,-0.73045,-1.25495,1.08622
450662949541,-0.768916,-1.25465,1.13007
450662972072,-0.8062,-1.2559,1.17339
450662994524,-0.842873,-1.25732,1.21563
450663009582,-0.882136,-1.25904,1.25976
450663032104,-0.914697,-1.25952,1.29663
450663054581,-0.946466,-1.26182,1.33207
450663069578,-0.972659,-1.26503,1.35995
450663092102,-0.985613,-1.26779,1.37337
450663114545,-0.991306,-1.26951,1.37925
450663129545,-0.990726,-1.27088,1.37723
450663152119,-0.98464,-1.27146,1.3696
450663174621,-0.976715,-1.27326,1.3596
450663197116,-0.972023,-1.27768,1.35195
450663212108,-0.971281,-1.28431,1.34859
450663234573,-0.97047,-1.29189,1.34509
450663249582,-0.968338,-1.29926,1.33983
450663272054,-0.957918,-1.30558,1.32598
450663294551,-0.938517,-1.31114,1.30344
450663309565,-0.905168,-1.3158,1.26608
450663332055,-0.855841,-1.31865,1.21233
450663354567,-0.801487,-1.32149,1.15359
450663369624,-0.743222,-1.32421,1.09033
450663392089,-0.682036,-1.32554,1.02442
450663414597,-0.618362,-1.32652,0.956004
450663429630,-0.548404,-1.32552,0.881123
450663452143,-0.471125,-1.32207,0.800441
450663474596,-0.392799,-1.31434,0.719425
450663489597,-0.317342,-1.30298,0.641947
450663512088,-0.24958,-1.28763,0.574839
450663534543,-0.192637,-1.27052,0.520456
450663549547,-0.143526,-1.25383,0.47517
450663572061,-0.0999119,-1.24017,0.437369
450663594525,-0.0604268,-1.22816,0.405064
450663609567,-0.0257184,-1.21856,0.379226
450663632057,0.007002,-1.21014,0.356864
450663654589,0.0384648,-1.20277,0.336833
450663669566,0.0709822,-1.1968,0.316289
450663692141,0.101872,-1.18954,0.297652
450663714630,0.128756,-1.1798,0.284422
450663729563,0.151789,-1.16666,0.275754
450663752081,0.171171,-1.14963,0.270759
450663774648,0.188799,-1.13268,0.267857
450663789629,0.20401,-1.11657,0.266517
450663812066,0.216536,-1.10345,0.267246
450663834637,0.225842,-1.09269,0.271053
450663849586,0.234214,-1.08259,0.27493
450663872132,0.245175,-1.07471,0.274714
450663894626,0.261023,-1.07179,0.266966
450663909590,0.277363,-1.07047,0.25679
450663932098,0.289478,-1.068,0.251648
450663954673,0.293897,-1.06332,0.255037
450663969585,0.293047,-1.05741,0.262785
450663992077,0.29075,-1.05042,0.271289
450664014609,0.286931,-1.04379,0.280303
450664029586,0.281176,-1.03866,0.290041
450664052102,0.273074,-1.03499,0.301445
450664074651,0.263701,-1.03438,0.312573
450664089589,0.254726,-1.03729,0.321546
450664112079,0.247602,-1.04345,0.326784
450664134654,0.24069,-1.05269,0.329688
450664149648,0.23149,-1.06375,0.333745
450664172143,0.214994,-1.0689,0.346508
450664194648,0.193032,-1.0679,0.366353
450664209629,0.16883,-1.06083,0.387606
450664232148,0.144778,-1.05193,0.408716
450664254561,0.122569,-1.04576,0.429094
450664269650,0.0995613,-1.04501,0.449477
450664292107,0.0748867,-1.05157,0.470904
450664314571,0.0489185,-1.06547,0.494264
450664329613,0.0216489,-1.08474,0.518541
450664352088,-0.00703653,-1.1063,0.543252
450664374624,-0.0371301,-1.12651,0.569193
450664389600,-0.069222,-1.14183,0.597617
450664412023,-0.103635,-1.14951,0.629505
450664434633,-0.137935,-1.15074,0.661726
450664449568,-0.171716,-1.1491,0.692635
450664472130,-0.204227,-1.14711,0.722017
450664494569,-0.235961,-1.14776,0.75115
450664509561,-0.271534,-1.15372,0.783319
450664539583,-0.308721,-1.1638,0.815928
450664554630,-0.347693,-1.17628,0.850598
450664569612,-0.387369,-1.18889,0.885725
450664592091,-0.426234,-1.19968,0.919206
450664614591,-0.461912,-1.20681,0.949783
450664629566,-0.493417,-1.20952,0.976382
450664652154,-0.522306,-1.21036,1.00022
450664674596,-0.548124,-1.21037,1.02069
450664689624,-0.575361,-1.21251,1.04219
450664712120,-0.604404,-1.21777,1.06522
450664734655,-0.634891,-1.2258,1.08956
450664749621,-0.668428,-1.23657,1.11584
450664772165,-0.701826,-1.24867,1.1412
450664794585,-0.733234,-1.26025,1.16408
450664809593,-0.756935,-1.26917,1.17904
450664832114,-0.770078,-1.27499,1.1828
450664854614,-0.771294,-1.27826,1.1744
450664869599,-0.763429,-1.27986,1.15681
450664899658,-0.753939,-1.28278,1.13806
450664914566,-0.743427,-1.28627,1.11844
450664929591,-0.73666,-1.29196,1.10318
450664952111,-0.732895,-1.29949,1.09216
450664974615,-0.728443,-1.30769,1.08116
450664989639,-0.721014,-1.31614,1.06797
450665012126,-0.70058,-1.32177,1.04266
450665034612,-0.67081,-1.32568,1.00976
450665049615,-0.634333,-1.32763,0.971141
450665072096,-0.591632,-1.3264,0.927593
450665094621,-0.546204,-1.32285,0.883093
450665109575,-0.503323,-1.31921,0.84236
450665132115,-0.462301,-1.31696,0.803883
450665154647,-0.422399,-1.31687,0.768129
450665169613,-0.382285,-1.31668,0.733531
450665192039,-0.340445,-1.3145,0.698016
450665214613,-0.298805,-1.31031,0.664222
450665229613,-0.256293,-1.30394,0.630336
450665252194,-0.212393,-1.29543,0.596168
450665274719,-0.171118,-1.28679,0.566083
450665289608,-0.133592,-1.27997,0.539676
450665312045,-0.103639,-1.27367,0.521069
450665334728,-0.0787692,-1.26564,0.50957
450665349778,-0.0546677,-1.25709,0.499255
450665372152,-0.0260085,-1.24921,0.483223
450665394725,0.00658205,-1.24186,0.463335
450665409628,0.0386339,-1.23618,0.443157
450665432146,0.0646117,-1.22983,0.428548
450665454733,0.0852242,-1.22256,0.419285
450665469752,0.103277,-1.21615,0.410909
450665499625,0.121683,-1.20676,0.401042
450665514596,0.143406,-1.19572,0.387599
450665529740,0.163431,-1.18195,0.37427
450665552158,0.178949,-1.16584,0.364224
450665574579,0.187147,-1.14794,0.362197
450665589692,0.188809,-1.13249,0.366567
450665612146,0.189645,-1.12024,0.370746
450665634578,0.194681,-1.115,0.369555
450665650103,0.203554,-1.07444,0.332262
450665672099,0.199706,-1.05631,0.313438
450665694587,0.201307,-1.01863,0.308387
450665709541,0.167616,-0.991896,0.335352
450665732125,0.128466,-0.981724,0.358234
450665754653,0.0928751,-0.987632,0.359728
450665769597,0.0709259,-1.00925,0.344995
450665792112,0.0569487,-1.05056,0.363897
450665814624,0.0453129,-1.08389,0.367902
450665829617,0.0211567,-1.10626,0.345492
450665852169,0.0102704,-1.11789,0.319097
450665874615,0.0254639,-1.13206,0.278037
450665889632,0.0301263,-1.14785,0.254355
450665912089,0.0275067,-1.16271,0.243093
450665934644,0.0119244,-1.17505,0.24382
450665949657,-0.00298588,-1.19163,0.254731
450665972684,-0.00847266,-1.2002,0.274603
450665994612,-0.010019,-1.19928,0.287051
450666009619,-0.00981313,-1.1955,0.282239
450666032183,-0.009355,-1.18719,0.281516
450666054652,-0.007225,-1.17745,0.286251
450666069675,-0.00742903,-1.16664,0.292677
450666092197,0.00373292,-1.158,0.285578
450666114649,0.0110319,-1.15334,0.283046
450666129669,0.0141716,-1.1541,0.28252
450666152170,0.0130958,-1.15823,0.282839
450666174617,0.0132267,-1.1611,0.283476
450666189614,0.0120784,-1.16377,0.287226
450666212198,0.00517702,-1.16725,0.293898
450666234753,-0.00115071,-1.16828,0.297007
450666249619,-0.00418194,-1.16704,0.296196
450666272172,-0.00209041,-1.16574,0.290397
450666294726,0.00219219,-1.16511,0.285038
450666309775,0.00505654,-1.16512,0.282379
450666332057,0.00659607,-1.16868,0.283199
450666354726,0.00790609,-1.17289,0.285227
450666369655,0.00742048,-1.17637,0.288531
450666392118,0.00634162,-1.17774,0.292483
450666414696,0.00488543,-1.17669,0.295588
450666437109,0.00211063,-1.17488,0.299484
450666452114,-0.0023008,-1.17291,0.305165
450666482119,-0.00694901,-1.17151,0.313466
450666489717,-0.0101251,-1.17099,0.321749
450666512174,-0.0114766,-1.17112,0.32634
450666534722,-0.00873203,-1.17012,0.32515
450666549701,-0.00374784,-1.16814,0.321042
450666580170,0.00113459,-1.16691,0.315765
450666594673,0.00283771,-1.16667,0.312861
450666609715,0.00094675,-1.16779,0.312735
450666632122,-0.000154642,-1.17088,0.313182
450666654694,-0.00192941,-1.17568,0.316064
450666669663,-0.0090348,-1.17945,0.319604
450666692073,-0.0149856,-1.17817,0.324315
450666714722,-0.0217045,-1.16762,0.335961
450666729720,-0.0269151,-1.1558,0.344871
450666752631,-0.0270567,-1.13889,0.345781
450666774630,-0.029426,-1.12718,0.355941
450666789689,-0.0329062,-1.11987,0.366702
450666812147,-0.0381867,-1.11685,0.378376
450666834687,-0.0426907,-1.1146,0.392881
450666849656,-0.0474272,-1.11766,0.408887
450666872140,-0.0517412,-1.12299,0.427143
450666894723,-0.0589553,-1.12961,0.450369
450666909691,-0.0683173,-1.13567,0.476708
450666932162,-0.0808854,-1.14473,0.509964
450666954742,-0.097866,-1.15736,0.547978
450666969692,-0.117272,-1.17275,0.586838
450666999658,-0.137807,-1.1885,0.626726
450667014688,-0.159815,-1.2011,0.666474
450667029729,-0.180893,-1.20988,0.70285
450667052149,-0.198925,-1.21723,0.73428
450667074723,-0.211374,-1.22088,0.756902
450667089648,-0.219697,-1.22199,0.772107
450667112190,-0.222858,-1.21805,0.780713
450667134577,-0.223341,-1.21169,0.78519
450667149686,-0.2244,-1.2056,0.78751
450667172167,-0.226722,-1.19892,0.79
450667194682,-0.233564,-1.1961,0.7972
450667209626,-0.247184,-1.19738,0.80984
450667232170,-0.266767,-1.20363,0.827323
450667254610,-0.290933,-1.21235,0.848181
450667269612,-0.319183,-1.22457,0.872176
450667292196,-0.345129,-1.23473,0.892178
450667314687,-0.362238,-1.24195,0.901749
450667329694,-0.370259,-1.24908,0.900234
450667352131,-0.370152,-1.25536,0.887983
450667374735,-0.358802,-1.2562,0.864566
450667389700,-0.342674,-1.25057,0.836608
450667412159,-0.325753,-1.24199,0.806206
450667434744,-0.305884,-1.2305,0.77406
450667449694,-0.289962,-1.22379,0.747284
450667472164,-0.283668,-1.22473,0.728144
450667494691,-0.280323,-1.22438,0.714707
450667509689,-0.292522,-1.23421,0.719435
450667532166,-0.307159,-1.24656,0.724057
450667554686,-0.334259,-1.26863,0.744275
450667569684,-0.341257,-1.2837,0.744465
450667592170,-0.345722,-1.29901,0.74525
450667614719,-0.32735,-1.30455,0.720981
450667629738,-0.304078,-1.3048,0.692451
450667652184,-0.277813,-1.293,0.664718
450667674769,-0.261508,-1.28142,0.645907
450667689769,-0.24812,-1.2663,0.632786
450667712194,-0.233333,-1.25435,0.618209
450667734730,-0.214823,-1.24177,0.600882
450667749723,-0.19177,-1.22957,0.579888
450667772225,-0.165123,-1.21803,0.557042
450667794753,-0.147674,-1.20963,0.548262
450667817136,-0.134745,-1.20467,0.547653
450667832118,-0.121366,-1.19948,0.551189
450667854656,-0.108907,-1.19994,0.558059
450667869735,-0.0974018,-1.20407,0.569598
450667899721,-0.0865698,-1.20742,0.586344
450667922677,-0.0820097,-1.20752,0.613649
450667929687,-0.0841394,-1.21093,0.649974
450667952194,-0.0846628,-1.21855,0.685333
450667974719,-0.0783668,-1.23728,0.715218
450667989739,-0.0609042,-1.25987,0.732329
450668012192,-0.0550223,-1.2783,0.760631
450668034719,-0.0524098,-1.28683,0.794175
450668049734,-0.0455566,-1.29259,0.824838
450668072140,-0.027176,-1.29395,0.842723
450668094723,0.00899752,-1.27492,0.841841
450668109685,0.0449315,-1.24829,0.842418
450668132094,0.0548759,-1.2155,0.867806
450668154688,0.0659331,-1.18202,0.8969
450668169744,0.0685034,-1.15516,0.936148
450668192181,0.0636884,-1.14252,0.97334
450668214723,0.0609387,-1.1467,1.00778
450668229759,0.054001,-1.16608,1.04917
450668252191,0.0375653,-1.18687,1.09469
450668274742,0.0179619,-1.20211,1.13759
450668289722,0.00815141,-1.20923,1.17102
450668312128,0.0163719,-1.20597,1.18902
450668334671,0.0293495,-1.20393,1.19355
450668349721,0.0413251,-1.20013,1.19484
450668372201,0.0471764,-1.20497,1.20801
450668394685,0.0333959,-1.21475,1.23994
450668417241,0.000506247,-1.21967,1.28353
450668432733,-0.0313625,-1.2191,1.32445
450668454692,-0.0542082,-1.21019,1.35857
450668477221,-0.0687473,-1.18748,1.37979
450668492113,-0.0806303,-1.15635,1.39326
450668514614,-0.0901504,-1.12983,1.40411
450668537205,-0.117402,-1.1106,1.43623
450668552146,-0.147812,-1.1065,1.47377
450668574757,-0.171501,-1.1174,1.50136
450668597161,-0.186804,-1.14194,1.51338
450668612222,-0.193692,-1.16663,1.52437
450668634791,-0.200799,-1.18674,1.54215
450668657203,-0.223583,-1.20152,1.56973
450668672254,-0.254436,-1.20872,1.60335
450668694722,-0.294537,-1.2158,1.65281
450668717242,-0.346287,-1.2223,1.71489
450668732215,-0.408016,-1.23059,1.7787
450668754726,-0.462445,-1.23523,1.83148
450668777231,-0.514709,-1.23496,1.88455
450668792189,-0.559578,-1.2384,1.92632
450668822192,-0.578893,-1.24819,1.93837
450668837190,-0.555457,-1.2567,1.89566
450668852236,-0.498183,-1.24533,1.81278
450668874725,-0.450957,-1.23253,1.74849
450668897213,-0.417313,-1.22205,1.69631
450668912186,-0.394069,-1.21962,1.64461
450668934760,-0.371342,-1.22697,1.59189
450668957188,-0.338836,-1.22902,1.54249
450668972190,-0.308342,-1.23205,1.50186
450668994700,-0.274248,-1.21637,1.44262
450669017174,-0.259177,-1.19911,1.40962
450669032110,-0.254475,-1.17491,1.40577
450669054659,-0.254124,-1.14619,1.416
450669077175,-0.239661,-1.11616,1.39752
450669092138,-0.211695,-1.09221,1.35273
450669114633,-0.178425,-1.09006,1.32246
450669137209,-0.153438,-1.11414,1.31174
450669152213,-0.142758,-1.14577,1.30108
450669174663,-0.130295,-1.17834,1.27782
450669197165,-0.10644,-1.20414,1.25692
450669212181,-0.079994,-1.22731,1.23808
450669234625,-0.0589909,-1.22844,1.20689
450669257188,-0.0375223,-1.20793,1.1668
450669272175,-0.0259304,-1.18249,1.14342
450669294651,-0.0256169,-1.15408,1.12853
450669317160,-0.0354963,-1.13529,1.10868
450669339624,-0.0467557,-1.13004,1.07519
450669354657,-0.0430586,-1.11504,1.03298
450669377190,-0.0311942,-1.1093,0.988186
450669399631,-0.0182667,-1.1063,0.919882
450669414673,-0.00899402,-1.10411,0.851748
450669429650,0.000899913,-1.10568,0.799927
450669452187,-0.00360228,-1.11025,0.761176
450669474649,-0.0229487,-1.12911,0.725556
450669489652,-0.0594154,-1.15746,0.708943
450669512180,-0.115126,-1.19024,0.72249
450669534677,-0.180768,-1.21647,0.745545
450669549655,-0.248391,-1.23442,0.758767
450669572146,-0.293831,-1.23519,0.742439
450669594685,-0.315151,-1.22733,0.713116
450669609660,-0.328,-1.22401,0.675494
450669632122,-0.34562,-1.22076,0.625087
450669654678,-0.353226,-1.19782,0.57059
450669669707,-0.34502,-1.15561,0.520849
450669692159,-0.34247,-1.11815,0.478983
450669714675,-0.336695,-1.0872,0.43026
450669729699,-0.329107,-1.06779,0.394614
450669752158,-0.341221,-1.0728,0.397696
450669774644,-0.385135,-1.10144,0.447708
450669789678,-0.440798,-1.13837,0.518143
450669812156,-0.493182,-1.17537,0.584938
450669834647,-0.545604,-1.21512,0.657195
450669849702,-0.580519,-1.24603,0.722416
450669872156,-0.58731,-1.26525,0.76527
450669894691,-0.574977,-1.27198,0.784335
450669909685,-0.52938,-1.26411,0.770566
450669932164,-0.46872,-1.24691,0.751441
450669954712,-0.388291,-1.22053,0.714372
450669969681,-0.306855,-1.19155,0.669662
450669992174,-0.230889,-1.16167,0.63412
450670014718,-0.170472,-1.14396,0.622198
450670029696,-0.126946,-1.13335,0.627651
450670052177,-0.100185,-1.12599,0.648041
450670074688,-0.0857885,-1.13407,0.6826
450670089703,-0.0767578,-1.15951,0.725111
450670112184,-0.0650261,-1.18495,0.760199
450670134715,-0.0541225,-1.21426,0.787755
450670149703,-0.0436369,-1.25315,0.809229
450670172191,-0.0302029,-1.28529,0.834584
450670194658,-0.00407621,-1.30782,0.846529
450670209722,0.0255216,-1.31203,0.838473
450670232149,0.0625198,-1.30445,0.824059
450670254667,0.0887286,-1.29015,0.829375
450670269707,0.0923216,-1.27322,0.853476
450670292164,0.0957524,-1.25112,0.867386
450670314647,0.0995719,-1.23273,0.883174
450670329624,0.104197,-1.22071,0.899035
450670352256,0.104179,-1.21914,0.914216
450670374705,0.10447,-1.22534,0.921894
450670389699,0.102695,-1.23417,0.929082
450670412289,0.102831,-1.24956,0.935527
450670434743,0.0986088,-1.26533,0.941391
450670457275,0.0933387,-1.27482,0.941013
450670472726,0.0863777,-1.27921,0.942974
450670494712,0.068928,-1.27164,0.956476
450670509730,0.0502547,-1.25654,0.966376
450670532294,0.0389645,-1.23649,0.965285
450670554714,0.0307976,-1.21526,0.960219
450670569782,0.020507,-1.19691,0.954645
450670592215,0.00694652,-1.18373,0.95045
450670614717,-0.0104003,-1.17417,0.948764
450670629724,-0.0284089,-1.1678,0.947346
450670652222,-0.0488622,-1.16585,0.947895
450670674696,-0.0735347,-1.16821,0.951114
450670689748,-0.100761,-1.17151,0.957833
450670712165,-0.131886,-1.17388,0.96976
450670734676,-0.163939,-1.17336,0.981196
450670749675,-0.193233,-1.17021,0.98984
450670772197,-0.218021,-1.1666,0.995218
450670794784,-0.240728,-1.16378,0.997914
450670809710,-0.260635,-1.16104,0.998135
450670832184,-0.277615,-1.15755,0.996302
450670854810,-0.293189,-1.15439,0.994781
450670869795,-0.306571,-1.15224,0.992248
450670892221,-0.318481,-1.15246,0.99017
450670914739,-0.331143,-1.15538,0.990293
450670929736,-0.34683,-1.16115,0.99563
450670952306,-0.365293,-1.16721,1.00769
450670974748,-0.38251,-1.17229,1.02062
450670989765,-0.399455,-1.17931,1.0352
450671012247,-0.410839,-1.18878,1.04664
450671034805,-0.418332,-1.20076,1.05746
450671049775,-0.431183,-1.21689,1.0762
450671072217,-0.449201,-1.23071,1.10242
450671094741,-0.471466,-1.23784,1.13786
450671109769,-0.493595,-1.24457,1.17825
450671132154,-0.498068,-1.25001,1.20107
450671154771,-0.475094,-1.25127,1.19502
450671169775,-0.445755,-1.24847,1.18043
450671192210,-0.417077,-1.24071,1.16384
450671214761,-0.395211,-1.23924,1.16068
450671229755,-0.363959,-1.24662,1.1442
450671252240,-0.312317,-1.26179,1.09386
450671274743,-0.238345,-1.28062,1.01804
450671289807,-0.153212,-1.29717,0.933014
450671312250,-0.0748595,-1.31119,0.849012
450671334731,0.000366212,-1.32017,0.757205
450671349777,0.0671598,-1.31705,0.669997
450671372267,0.112267,-1.31545,0.602931
450671394757,0.130007,-1.31785,0.552698
450671409760,0.127435,-1.31093,0.512367
450671432236,0.121027,-1.29605,0.470709
450671454711,0.130683,-1.26859,0.4005
450671469715,0.153409,-1.22493,0.305586
450671492237,0.167965,-1.18257,0.209592
450671522317,0.158909,-1.15654,0.122385
450671529713,0.122785,-1.14519,0.0651538
450671552239,0.0666331,-1.13868,0.0336095
450671574726,0.00171828,-1.1255,0.000936275
450671589740,-0.0504754,-1.11133,-0.0485801
450671612198,-0.083869,-1.09847,-0.111912
450671634721,-0.109949,-1.09821,-0.182983
450671649769,-0.143289,-1.11238,-0.247824
450671672327,-0.193717,-1.13428,-0.294213
450671694796,-0.257059,-1.15818,-0.322382
450671709721,-0.31985,-1.18206,-0.345328
450671732261,-0.369053,-1.20494,-0.388033
450671754720,-0.414258,-1.23946,-0.437816
450671769801,-0.463367,-1.28365,-0.473623
450671799779,-0.495907,-1.32067,-0.515268
450671814735,-0.49323,-1.34346,-0.595208
450671829740,-0.476006,-1.36427,-0.696523
450671852293,-0.436523,-1.37813,-0.809173
450671874764,-0.412683,-1.39929,-0.895005
450671889789,-0.376846,-1.42531,-0.998395
450671912295,-0.241851,-1.43989,-1.21
450671927280,-0.0726268,-1.42387,-1.45691
450671949770,0.0450925,-1.38224,-1.63943
450671972298,0.122966,-1.32706,-1.78019
450671987265,0.15829,-1.28246,-1.88891
450672009817,0.168912,-1.25242,-1.97599
450672032253,0.157416,-1.22824,-2.02122
450672047271,0.134082,-1.21879,-2.03707
450672069824,0.0965323,-1.19624,-2.05129
450672092189,0.0639061,-1.15797,-2.05321
450672107354,0.055197,-1.15382,-2.05461
450672129743,0.0513118,-1.18381,-2.06543
450672152249,0.0644468,-1.24265,-2.09369
450672174807,0.0854977,-1.31889,-2.12117
450672189711,0.0836079,-1.39657,-2.1189
450672212240,0.0261198,-1.46935,-2.04959
450672227269,-0.266618,-1.53173,-1.7517
450672249764,-1.53367,-1.5519,-0.49344
450672272284,-1.50634,-1.5425,-0.521158
450672287274,-0.673996,-1.51206,-1.35172
450672309734,-0.256209,-1.44384,-1.7743
450672332278,-0.0322968,-1.35229,-2.00779
450672347213,0.0773288,-1.2309,-2.12128
450672369816,0.112655,-1.11578,-2.16686
450672392242,0.111207,-1.01596,-2.17234
450672407284,0.108555,-0.964211,-2.15073
450672429771,0.0928217,-0.964034,-2.11162
450672452231,0.0750232,-0.988629,-2.06178
450672467271,0.0745741,-1.05042,-2.00759
450672489788,0.101234,-1.14279,-1.97615
450672512253,0.149399,-1.21589,-1.96494
450672527270,0.207967,-1.26325,-1.95125
450672549833,0.249509,-1.29256,-1.90955
450672572258,0.250647,-1.30081,-1.81489
450672587259,0.219724,-1.29934,-1.67637
450672609783,0.181123,-1.29143,-1.54065
450672632779,0.148119,-1.28111,-1.41488
450672647238,0.127049,-1.26738,-1.28113
450672669801,0.108881,-1.25655,-1.15451
450672692484,0.0933158,-1.24827,-1.04697
450672707274,0.0801166,-1.23621,-0.935817
450672729841,0.0749953,-1.22461,-0.824193
450672752295,0.0785878,-1.22058,-0.726521
450672767200,0.0894004,-1.22122,-0.644217
450672789777,0.0663584,-1.21784,-0.545034
450672812283,0.00232336,-1.23344,-0.402977
450672827268,-0.102946,-1.2556,-0.224585
450672849736,-0.222291,-1.28087,-0.0415345
450672872352,-0.328219,-1.32427,0.10773
450672887288,-0.394429,-1.36047,0.206675
450672910213,-0.403033,-1.38445,0.259664
450672932338,-0.301944,-1.39255,0.191421
450672947260,-0.190741,-1.33511,0.0956891
450672969734,-0.121602,-1.24874,0.028163
450672992261,-0.0769604,-1.12134,-0.0285282
450673007285,-0.047334,-0.986933,-0.0770282
450673029817,-0.0290152,-0.866333,-0.141414
450673052343,-0.0375569,-0.82051,-0.208326
450673067329,-0.0551243,-0.834871,-0.283584
450673089805,-0.0657973,-0.928316,-0.348876
450673112288,-0.0673608,-0.99543,-0.413158
450673127298,-0.0771948,-1.07854,-0.466503
450673149763,-0.0798331,-1.11417,-0.485703
450673172330,-0.0718655,-1.13421,-0.490993
450673187327,-0.0737864,-1.13011,-0.496316
450673209792,-0.0655589,-1.11905,-0.525526
450673232294,-0.0493454,-1.11617,-0.567945
450673247261,-0.0461629,-1.14542,-0.597745
450673269835,-0.0351269,-1.19107,-0.663395
450673292250,-0.0138176,-1.25024,-0.73793
450673307268,0.0285947,-1.29684,-0.81232
450673329799,0.0656047,-1.33446,-0.875955
450673352370,0.0717359,-1.36564,-0.903041
450673367292,0.0510455,-1.38784,-0.883164
450673389780,-0.0107266,-1.4117,-0.795836
450673412314,-0.146794,-1.42148,-0.625388
450673427316,-0.28224,-1.41409,-0.44984
450673449825,-0.380121,-1.38995,-0.291186
450673472297,-0.449791,-1.36371,-0.151456
450673487424,-0.509682,-1.33319,-0.0243093
450673509728,-0.552551,-1.30177,0.0991455
450673532297,-0.598706,-1.27498,0.240684
450673547264,-0.655263,-1.25252,0.388797
450673569836,-0.701625,-1.20947,0.498872
450673592301,-0.676755,-1.14123,0.561741
450673607255,-0.624382,-1.04916,0.546637
450673629831,-0.614485,-0.960658,0.539357
450673652245,-0.571063,-0.860004,0.535615
450673667286,-0.515892,-0.763696,0.57005
450673689825,-0.468242,-0.672975,0.612261
450673712193,-0.416361,-0.609791,0.670108
450673727311,-0.369202,-0.58455,0.726513
450673749818,-0.307513,-0.589019,0.777014
450673772259,-0.277593,-0.623417,0.777953
450673787220,-0.258298,-0.67519,0.763396
450673809812,-0.243173,-0.722932,0.726039
450673832284,-0.238316,-0.783718,0.683095
450673847307,-0.223803,-0.831494,0.661052
450673869819,-0.219917,-0.853828,0.677377
450673892262,-0.247493,-0.883573,0.725065
450673907258,-0.302609,-0.918189,0.784892
450673929820,-0.34532,-0.955711,0.875179
450673952324,-0.39788,-0.966509,0.958988
450673967326,-0.466804,-0.969722,1.04878
450673989822,-0.527628,-0.969932,1.14632
450674019781,-0.5887,-0.968686,1.23014
450674027324,-0.65567,-0.974292,1.30114
450674049853,-0.718296,-0.992054,1.36097
450674072283,-0.771063,-1.00678,1.41419
450674087270,-0.815226,-1.02037,1.45142
450674109807,-0.861723,-1.03165,1.4881
450674132286,-0.907933,-1.039,1.53244
450674147339,-0.969574,-1.05196,1.58827
450674169884,-1.05029,-1.0696,1.65798
450674192330,-1.13687,-1.08644,1.7331
450674207285,-1.22282,-1.09981,1.80469
450674229764,-1.33448,-1.11019,1.90821
450674252340,-1.45234,-1.11168,2.02661
450674267321,-1.56139,-1.10458,2.13933
450674289806,-1.65109,-1.08846,2.24169
450674312349,-1.71895,-1.06841,2.32995
450674327303,-1.76404,-1.06153,2.38265
450674349791,-1.76544,-1.0611,2.39163
450674372335,-1.72395,-1.06748,2.3689
450674387306,-1.6593,-1.07181,2.31585
450674409841,-1.59936,-1.07378,2.29019
450674432347,-1.54512,-1.08892,2.26582
450674447323,-1.48399,-1.11103,2.22233
450674469825,-1.39533,-1.13421,2.15312
450674492314,-1.3034,-1.1504,2.07498
450674507346,-1.20039,-1.16199,1.96718
450674529789,-1.08472,-1.16313,1.84335
450674552309,-1.00517,-1.15892,1.75579
450674567286,-0.984268,-1.16307,1.73057
450674589802,-0.931642,-1.15041,1.67377
450674612382,-0.887806,-1.13836,1.62412
450674627323,-0.832623,-1.12737,1.56844
450674649717,-0.761994,-1.13446,1.48276
450674672358,-0.669736,-1.12848,1.37597
450674687350,-0.577499,-1.11285,1.28627
450674709737,-0.505475,-1.08574,1.22564
450674732351,-0.436665,-1.04562,1.17267
450674747347,-0.379667,-1.00745,1.12382
450674769866,-0.334317,-0.99075,1.08463
450674792358,-0.312435,-0.975312,1.07307
450674814838,-0.267022,-0.937701,1.05756
450674829760,-0.256985,-0.950571,1.07841
450674852290,-0.246604,-0.965659,1.08224
450674867372,-0.222025,-0.955434,1.06914
450674889822,-0.198257,-0.94489,1.05217
450674912351,-0.177844,-0.928815,1.03269
450674927403,-0.16036,-0.910835,1.01705
450674949848,-0.148666,-0.899213,1.00506
450674972304,-0.138701,-0.879331,1.00016
450674994824,-0.115742,-0.872725,0.985547
450675009869,-0.097478,-0.854561,0.958936
450675032289,-0.0795905,-0.830222,0.934906
450675054841,-0.0649762,-0.825119,0.927132
450675069819,-0.0430125,-0.807707,0.915994
450675092286,-0.0185862,-0.78564,0.892541
450675114846,0.00529402,-0.774478,0.872436
450675129877,0.0299932,-0.765606,0.851253
450675152274,0.0554074,-0.751919,0.827726
450675174874,0.0862524,-0.748767,0.809926
450675189797,0.108411,-0.757196,0.771693
450675212346,0.129169,-0.742916,0.748948
450675234851,0.150914,-0.747343,0.743437
450675249890,0.165097,-0.748545,0.737042
450675272328,0.16758,-0.746769,0.72664
450675294849,0.165094,-0.753393,0.723571
450675309870,0.165008,-0.764331,0.728329
450675332251,0.164818,-0.779851,0.72743
450675354840,0.165947,-0.78811,0.72257
450675369855,0.172469,-0.796105,0.715697
450675392269,0.188211,-0.811449,0.708326
450675414838,0.206985,-0.835809,0.702398
450675429883,0.23397,-0.869632,0.688504
450675452366,0.272628,-0.913559,0.659397
450675474824,0.327021,-0.958807,0.621792
450675489819,0.39658,-1.0041,0.562882
450675512257,0.486524,-1.04011,0.487512
450675534862,0.612354,-1.07909,0.374141
450675549867,0.801132,-1.12469,0.205891
