timestamp,roll,pitch,yaw
284876800696,-0.858418,-0.448889,0.154238
284876821902,-0.859185,-0.445969,0.152381
284876844494,-0.862794,-0.44666,0.151047
284876859479,-0.866297,-0.447718,0.15052
284876874492,-0.867023,-0.448209,0.150969
284876897042,-0.866198,-0.449232,0.151775
284876919596,-0.863559,-0.451363,0.152775
284876967688,-0.861144,-0.454943,0.155211
284876969839,-0.858086,-0.458733,0.158106
284876983477,-0.855877,-0.461611,0.161213
284876998402,-0.853799,-0.46385,0.163619
284877020887,-0.85175,-0.466474,0.164839
284877042117,-0.847895,-0.468996,0.164564
284877063088,-0.8405,-0.469848,0.164435
284877091849,-0.828916,-0.470274,0.16474
284877102687,-0.816193,-0.471335,0.165829
284877122521,-0.803093,-0.473617,0.167053
284877136877,-0.792564,-0.477013,0.167401
284877160097,-0.784965,-0.480725,0.16637
284877182442,-0.778196,-0.484014,0.164684
284877196856,-0.772296,-0.486995,0.162409
284877220074,-0.771342,-0.490986,0.158825
284877242557,-0.776993,-0.494628,0.153031
284877256904,-0.786881,-0.498379,0.148768
284877279989,-0.791757,-0.500759,0.1463
284877302505,-0.788819,-0.499579,0.144252
284877316827,-0.785498,-0.496554,0.142562
284877340017,-0.78837,-0.49446,0.141513
284877362489,-0.793978,-0.493156,0.140082
284877376868,-0.797027,-0.491524,0.137915
284877400139,-0.79809,-0.48825,0.136917
284877422534,-0.794967,-0.484212,0.137037
284877436842,-0.791859,-0.480723,0.13725
284877459417,-0.790183,-0.478144,0.138103
284877475804,-0.790225,-0.47282,0.1411
284877496851,-0.779602,-0.462283,0.146092
284877519357,-0.756065,-0.451326,0.154197
284877542484,-0.732739,-0.442986,0.163172
284877556805,-0.720082,-0.438781,0.172825
284877579276,-0.711868,-0.436823,0.181535
284877603966,-0.706238,-0.436009,0.189758
284877616835,-0.699245,-0.434387,0.200506
284877639326,-0.683677,-0.431947,0.212817
284877662462,-0.670173,-0.431016,0.224738
284877678267,-0.66838,-0.432743,0.236541
284877699292,-0.664484,-0.437495,0.246926
284877724523,-0.655936,-0.445519,0.25486
284877736777,-0.647207,-0.453647,0.26088
284877759312,-0.646095,-0.460855,0.266211
284877782544,-0.6496,-0.466892,0.270448
284877798356,-0.652306,-0.473156,0.272447
284877819368,-0.655507,-0.479481,0.272388
284877843995,-0.661376,-0.484815,0.271689
284877858284,-0.668399,-0.487539,0.270512
284877879417,-0.674573,-0.48893,0.268714
284877902586,-0.680864,-0.489943,0.266298
284877918345,-0.688295,-0.491426,0.2624
284877939416,-0.698524,-0.492387,0.256592
284877962492,-0.712396,-0.492564,0.249509
284877978298,-0.726817,-0.491859,0.241681
284877999261,-0.740279,-0.490765,0.233903
284878022435,-0.753288,-0.489624,0.227292
284878044971,-0.768275,-0.489058,0.224554
284878059276,-0.784586,-0.487891,0.226093
284878081813,-0.800327,-0.485103,0.23096
284878098242,-0.811989,-0.481483,0.236826
284878119336,-0.818301,-0.475034,0.24145
284878141823,-0.822478,-0.46515,0.245219
284878158285,-0.825903,-0.453814,0.248466
284878179281,-0.828428,-0.441681,0.251038
284878201818,-0.832739,-0.427128,0.253789
284878218861,-0.837423,-0.409546,0.256781
284878239343,-0.841495,-0.389556,0.259906
284878261784,-0.848038,-0.369079,0.264544
284878278225,-0.8559,-0.348189,0.270694
284878299294,-0.863152,-0.325928,0.277949
284878321796,-0.867649,-0.301515,0.286167
284878339024,-0.87209,-0.275636,0.295749
284878359292,-0.877467,-0.248973,0.306418
284878381815,-0.884843,-0.221444,0.319136
284878399691,-0.893494,-0.192602,0.335146
284878419319,-0.899418,-0.162453,0.353916
284878441807,-0.903083,-0.132806,0.374199
284878458273,-0.906628,-0.105571,0.395564
284878479264,-0.90806,-0.0788232,0.417637
284878509983,-0.906539,-0.050902,0.439693
284878518247,-0.90468,-0.0231775,0.463275
284878539324,-0.903217,0.00398971,0.486295
284878561817,-0.900706,0.0319152,0.506861
284878578241,-0.896373,0.0588179,0.525464
284878599320,-0.895802,0.0846592,0.54299
284878621780,-0.893888,0.108797,0.560847
284878638308,-0.8921,0.131835,0.579484
284878659328,-0.888003,0.152912,0.597685
284878681821,-0.882167,0.17225,0.614235
284878698278,-0.876625,0.192001,0.629015
284878720743,-0.868962,0.209891,0.644036
284878741837,-0.860032,0.225167,0.660389
284878758300,-0.853595,0.237792,0.67675
284878780793,-0.847065,0.249086,0.691514
284878801811,-0.84057,0.258617,0.70718
284878824302,-0.835065,0.2648,0.724194
284878840772,-0.832149,0.26775,0.740448
284878861821,-0.832467,0.266349,0.755085
284878878279,-0.834812,0.262231,0.768139
284878900804,-0.833717,0.256204,0.780167
284878921832,-0.834815,0.249134,0.790653
284878938293,-0.838322,0.242142,0.799679
284878960771,-0.841627,0.235436,0.808028
284878981823,-0.84472,0.227931,0.816136
284878998301,-0.846654,0.219576,0.823328
284879019978,-0.849154,0.211337,0.828144
284879042476,-0.850856,0.204222,0.830211
284879057494,-0.851754,0.198476,0.830909
284879080024,-0.853819,0.192908,0.830736
284879102446,-0.855435,0.188246,0.829438
284879117485,-0.858124,0.184676,0.827184
284879140024,-0.859465,0.182228,0.824793
284879155686,-0.859548,0.180348,0.822893
284879177474,-0.859308,0.178438,0.821888
284879199994,-0.857771,0.17626,0.821609
284879230665,-0.855969,0.174299,0.821327
284879237496,-0.855869,0.172679,0.821126
284879259999,-0.854553,0.171404,0.820909
284879275748,-0.85338,0.171146,0.820277
284879297481,-0.854003,0.171049,0.820098
284879320040,-0.853987,0.171992,0.820599
284879343984,-0.854845,0.173512,0.820488
284879357446,-0.854068,0.175022,0.820216
284879380007,-0.854199,0.176226,0.820458
284879395803,-0.854196,0.177433,0.820834
284879417499,-0.853965,0.17833,0.821797
284879440018,-0.853138,0.179069,0.822571
284879455780,-0.851937,0.179375,0.823519
284879477497,-0.850843,0.17891,0.824184
284879500020,-0.849728,0.178057,0.824428
284879515777,-0.848406,0.178317,0.824179
284879544995,-0.847041,0.179721,0.823872
284879559991,-0.845735,0.180648,0.823497
284879576428,-0.843686,0.180661,0.822526
284879597497,-0.842047,0.179489,0.821036
284879620028,-0.842214,0.177797,0.820148
284879643980,-0.842766,0.176326,0.820047
284879657504,-0.843893,0.175549,0.820647
284879680023,-0.845193,0.174973,0.820881
284879695774,-0.845949,0.173905,0.820981
284879718981,-0.84713,0.171985,0.82085
284879740012,-0.849585,0.171044,0.820505
284879755745,-0.85188,0.171561,0.820243
284879778973,-0.85349,0.172792,0.820354
284879800029,-0.854447,0.17411,0.820346
284879823971,-0.855546,0.175073,0.82035
284879838996,-0.856347,0.175249,0.820208
284879860044,-0.857326,0.175462,0.820106
284879875799,-0.857961,0.175627,0.819797
284879898970,-0.857961,0.175627,0.819797
284879920022,-0.857961,0.175627,0.819797
284879935746,-0.858071,0.175687,0.819771
284879958989,-0.857984,0.175161,0.819696
284879981479,-0.857503,0.17488,0.819625
284879995770,-0.85747,0.174891,0.819591
284880018966,-0.857613,0.17494,0.819599
284880040040,-0.858415,0.175116,0.819457
284880062547,-0.858559,0.175164,0.819465
284880078964,-0.858441,0.175053,0.81935
284880100017,-0.85837,0.174864,0.819552
284880115801,-0.858514,0.174913,0.81956
284880145017,-0.858514,0.174913,0.81956
284880160018,-0.858514,0.174913,0.81956
284880175766,-0.858514,0.174913,0.81956
284880198978,-0.858657,0.174962,0.819568
284880220060,-0.858657,0.174962,0.819568
284880235811,-0.858767,0.175022,0.819542
284880258979,-0.858812,0.175274,0.819447
284880280023,-0.85882,0.175325,0.819587
284880295772,-0.858695,0.175162,0.819332
284880318998,-0.859013,0.174653,0.819125
284880340055,-0.858796,0.174317,0.818647
284880355747,-0.858511,0.173768,0.818107
284880378971,-0.858071,0.172908,0.817687
284880400059,-0.856856,0.17162,0.81704
284880415802,-0.855473,0.170227,0.815555
284880438974,-0.853116,0.168996,0.811621
284880460031,-0.850373,0.167006,0.805317
284880482549,-0.847068,0.164379,0.796741
284880499068,-0.842604,0.161623,0.785427
284880520041,-0.837115,0.157566,0.773158
284880542568,-0.82991,0.152338,0.759251
284880559049,-0.81967,0.150834,0.744171
284880580037,-0.806692,0.155153,0.728212
284880602567,-0.79327,0.162444,0.711119
284880618356,-0.779967,0.170105,0.692349
284880640075,-0.766616,0.176964,0.672042
284880664503,-0.754,0.183827,0.650383
284880678342,-0.740407,0.189905,0.627858
284880701486,-0.727123,0.195311,0.604941
284880722633,-0.715076,0.198279,0.580662
284880738429,-0.70393,0.197846,0.554944
284880761520,-0.700216,0.19375,0.528157
284880782512,-0.69648,0.189187,0.499733
284880798326,-0.691212,0.18405,0.470226
284880821527,-0.688633,0.174574,0.439556
284880842561,-0.689985,0.157466,0.408159
284880858842,-0.691707,0.139484,0.37798
284880881558,-0.686232,0.125009,0.349718
284880902590,-0.685154,0.111512,0.322687
284880918383,-0.694345,0.0966263,0.295927
284880949061,-0.699672,0.0824631,0.271948
284880962602,-0.700409,0.0723787,0.251806
284880978354,-0.697275,0.0682417,0.234243
284881001270,-0.69855,0.067279,0.217307
284881022612,-0.702802,0.0660883,0.201407
284881038402,-0.703988,0.065198,0.187329
284881061503,-0.705064,0.0665182,0.174032
284881082622,-0.707186,0.0684846,0.160492
284881098848,-0.709148,0.0698512,0.147561
284881121452,-0.707664,0.0698558,0.13633
284881142582,-0.706251,0.068673,0.127115
284881158430,-0.705257,0.0696843,0.119843
284881181552,-0.700692,0.0734379,0.115008
284881210100,-0.691412,0.077881,0.113304
284881226490,-0.679433,0.081836,0.113313
284881241589,-0.667224,0.0844344,0.113966
284881262621,-0.657014,0.0841673,0.114945
284881278309,-0.648628,0.080009,0.115483
284881301508,-0.640758,0.0718923,0.114845
284881324036,-0.632894,0.0609252,0.112878
284881338370,-0.626409,0.0492538,0.109136
284881361570,-0.621558,0.0378297,0.103704
284881382595,-0.617332,0.0259796,0.0970871
284881398380,-0.619526,0.013409,0.0903332
284881421488,-0.626392,0.00118103,0.0833003
284881442602,-0.633415,-0.00980753,0.0755539
284881458385,-0.641426,-0.0184927,0.067896
284881487613,-0.64846,-0.0250652,0.0611043
284881502605,-0.654807,-0.0288014,0.0560723
284881518445,-0.66086,-0.0313226,0.0528227
284881541562,-0.665392,-0.0335039,0.0507181
284881564007,-0.669599,-0.0365822,0.0494415
284881578401,-0.674088,-0.0407682,0.0487021
284881600914,-0.678266,-0.0456213,0.0483361
284881624054,-0.682204,-0.0516875,0.0475059
284881638383,-0.68903,-0.0589609,0.0468514
284881660844,-0.697993,-0.0668252,0.0470706
284881684026,-0.706364,-0.0738557,0.0475445
284881698430,-0.71174,-0.078358,0.0479054
284881720908,-0.715998,-0.0802137,0.0484158
284881743986,-0.719391,-0.0817403,0.0491554
284881766497,-0.722556,-0.084808,0.0499538
284881780874,-0.72004,-0.0870123,0.0503959
284881803987,-0.718417,-0.0873715,0.0512268
284881818354,-0.721109,-0.0867708,0.0510139
284881840816,-0.723061,-0.0880813,0.0499166
284881864021,-0.726592,-0.0896473,0.0484789
284881892645,-0.733479,-0.0925188,0.045639
284881907642,-0.734477,-0.0948073,0.0451344
284881931573,-0.733674,-0.0956747,0.0442457
284881945116,-0.73424,-0.0952805,0.0432111
284881960867,-0.732488,-0.0959566,0.0418024
284881984055,-0.727113,-0.0982204,0.0400115
284881998382,-0.723142,-0.10048,0.0375064
284882020884,-0.7232,-0.100681,0.034192
284882044091,-0.725046,-0.0985898,0.0307548
284882058429,-0.724995,-0.096467,0.0266815
284882080873,-0.725398,-0.0953821,0.0219734
284882104056,-0.729182,-0.0954353,0.0170924
284882125086,-0.734441,-0.0944433,0.0126567
284882140847,-0.740317,-0.090482,0.00918584
284882164093,-0.743224,-0.0831209,0.00697499
284882185166,-0.743161,-0.0757137,0.0057903
284882208984,-0.740518,-0.0696256,0.00384509
284882223992,-0.739168,-0.0645839,0.000926997
284882245133,-0.739248,-0.0603219,-0.00294675
284882260894,-0.743023,-0.0595579,-0.00758723
284882284044,-0.752366,-0.0619324,-0.0119004
284882305112,-0.760097,-0.0630005,-0.0138868
284882320909,-0.764973,-0.061692,-0.0126904
284882344006,-0.770043,-0.0577875,-0.00964874
284882365123,-0.772342,-0.052807,-0.00541374
284882380940,-0.770567,-0.0471097,-0.000522016
284882404048,-0.769976,-0.0412652,0.00381228
284882425108,-0.772355,-0.0363876,0.0074163
284882441527,-0.777183,-0.0335191,0.0125364
284882464020,-0.782155,-0.0315781,0.019492
284882485158,-0.787718,-0.029881,0.0273575
284882500937,-0.79538,-0.0268296,0.036695
284882523435,-0.807658,-0.0224232,0.0519341
284882545156,-0.805475,-0.0167497,0.0709691
284882561381,-0.803206,-0.00890952,0.0896164
284882583385,-0.799256,0.000629947,0.106321
284882606582,-0.797396,0.0125544,0.125409
284882628402,-0.802001,0.0246401,0.149101
284882634474,-0.810889,0.0355964,0.17539
284882656992,-0.81473,0.0430001,0.203966
284882680087,-0.809566,0.0463188,0.235346
284882694440,-0.800123,0.0477879,0.269264
284882725819,-0.788849,0.0492942,0.304131
284882740098,-0.779804,0.0505952,0.33889
284882754365,-0.772951,0.0505758,0.372139
284882776974,-0.76593,0.0487036,0.404521
284882800117,-0.75784,0.0458082,0.436297
284882814430,-0.750683,0.0426593,0.467281
284882836907,-0.744682,0.0388635,0.497264
284882860117,-0.739471,0.0358609,0.525109
284882875936,-0.735173,0.0330446,0.55082
284882896960,-0.732124,0.0293137,0.574734
284882920092,-0.730069,0.0246769,0.596106
284882942601,-0.727658,0.0192167,0.614076
284882956976,-0.727351,0.0124117,0.630642
284882980145,-0.730583,0.00478508,0.645638
284882994433,-0.73743,-0.00575037,0.658169
284883016971,-0.744083,-0.0183351,0.667736
284883040106,-0.753013,-0.0309628,0.675329
284883054481,-0.766934,-0.0410795,0.680649
284883076978,-0.787054,-0.0500338,0.683008
284883100144,-0.810623,-0.0595196,0.683405
284883114458,-0.834433,-0.0691445,0.684241
284883136980,-0.859996,-0.0778727,0.686227
284883160154,-0.891069,-0.0862718,0.68915
284883174497,-0.914732,-0.0913343,0.693658
284883196988,-0.927105,-0.0918505,0.702318
284883228248,-0.933156,-0.0913691,0.716319
284883234432,-0.932074,-0.092776,0.733335
284883257042,-0.919122,-0.0956637,0.752038
284883280144,-0.901441,-0.09998,0.771564
284883294485,-0.887774,-0.105177,0.792979
284883316985,-0.872143,-0.11136,0.81458
284883340137,-0.852912,-0.118329,0.834787
284883354495,-0.835652,-0.12498,0.852457
284883376959,-0.821647,-0.130197,0.868621
284883400144,-0.807226,-0.134571,0.883926
284883414471,-0.794213,-0.139995,0.89683
284883437029,-0.791056,-0.145184,0.906585
284883460125,-0.789236,-0.148739,0.913489
284883474496,-0.786349,-0.149968,0.919206
284883497022,-0.786416,-0.151547,0.924887
284883519424,-0.787312,-0.155296,0.930455
284883534512,-0.789144,-0.159149,0.935919
284883556987,-0.791785,-0.162055,0.940762
284883579527,-0.792283,-0.16445,0.944628
284883594493,-0.787245,-0.166616,0.946479
284883616945,-0.781656,-0.168268,0.947355
284883639483,-0.777453,-0.168693,0.947202
284883654411,-0.773403,-0.16947,0.948424
284883677011,-0.769507,-0.17168,0.950027
284883699462,-0.7658,-0.171959,0.950827
284883714485,-0.761029,-0.169417,0.949657
284883737063,-0.761345,-0.163526,0.948059
284883759549,-0.765625,-0.158487,0.945908
284883774459,-0.774219,-0.153706,0.941406
284883796957,-0.791474,-0.148797,0.935591
284883819481,-0.814261,-0.142594,0.929231
284883834484,-0.837966,-0.13309,0.923441
284883856990,-0.859114,-0.121381,0.917805
284883879516,-0.875721,-0.108767,0.913403
284883894513,-0.886463,-0.0974523,0.910703
284883916967,-0.894439,-0.0878782,0.90907
284883939485,-0.900556,-0.0799226,0.907839
284883954483,-0.904772,-0.073329,0.906893
284883977108,-0.906667,-0.0662109,0.906549
284883999539,-0.907245,-0.0596729,0.906889
284884014445,-0.910013,-0.0554623,0.90823
284884036967,-0.912161,-0.053708,0.909426
284884059485,-0.913384,-0.0529912,0.910291
284884074540,-0.914815,-0.0526914,0.911127
284884097114,-0.916075,-0.0530693,0.911793
284884119375,-0.916914,-0.0536191,0.912752
284884134466,-0.917223,-0.0536478,0.913299
284884156999,-0.917429,-0.0541159,0.913743
284884179486,-0.917989,-0.0551219,0.913948
284884194509,-0.919023,-0.0561787,0.914153
284884217006,-0.920201,-0.0574332,0.914503
284884239391,-0.920446,-0.0590757,0.915108
284884262690,-0.919507,-0.0605813,0.915003
284884277006,-0.919095,-0.0614094,0.914711
284884299521,-0.920059,-0.0624388,0.914137
284884315909,-0.922179,-0.063623,0.913657
284884337044,-0.923546,-0.0646841,0.913371
284884359475,-0.923842,-0.0651983,0.912961
284884374464,-0.923771,-0.0650993,0.912889
284884397015,-0.924006,-0.0641974,0.912646
284884419459,-0.925089,-0.0633496,0.912659
284884435969,-0.925688,-0.0632794,0.912784
284884457081,-0.925688,-0.0632794,0.912784
284884479564,-0.925471,-0.0630604,0.912921
284884495903,-0.924857,-0.0626894,0.913015
284884517059,-0.92467,-0.0624678,0.913301
284884539493,-0.924806,-0.062421,0.913318
284884555969,-0.92473,-0.0624922,0.913479
284884577004,-0.924242,-0.0623667,0.913583
284884599492,-0.923394,-0.0623613,0.9138
284884615979,-0.922566,-0.0626753,0.914039
284884637033,-0.9215,-0.0629886,0.914514
284884659563,-0.921004,-0.0636927,0.914731
284884676066,-0.921067,-0.0646206,0.914915
284884697113,-0.921095,-0.0651848,0.915063
284884719507,-0.920596,-0.0654735,0.914919
284884735901,-0.920612,-0.0654263,0.915054
284884757118,-0.920676,-0.0652805,0.914998
284884779540,-0.920647,-0.0652533,0.91497
284884795913,-0.920782,-0.0652065,0.914987
284884818440,-0.920782,-0.0652065,0.914987
284884839438,-0.920917,-0.0651597,0.915003
284884855973,-0.920889,-0.0651325,0.914975
284884876988,-0.920973,-0.064281,0.915175
284884899489,-0.921686,-0.0638442,0.915295
284884916082,-0.92249,-0.0638255,0.915507
284884937024,-0.92249,-0.0638255,0.915507
284884959513,-0.922625,-0.0637787,0.915524
284884983428,-0.922732,-0.0637047,0.915512
284884998519,-0.923207,-0.0632183,0.915394
284885019486,-0.923988,-0.0630022,0.915345
284885035943,-0.924722,-0.0628844,0.915486
284885056991,-0.924857,-0.0628376,0.915503
284885079536,-0.924857,-0.0628376,0.915503
284885095975,-0.924802,-0.0626913,0.915565
284885117062,-0.924937,-0.0626444,0.915582
284885139493,-0.925044,-0.0625704,0.91557
284885155960,-0.925044,-0.0625704,0.91557
284885176978,-0.925179,-0.0625236,0.915586
284885199563,-0.925179,-0.0625236,0.915586
284885215991,-0.925179,-0.0625236,0.915586
284885237054,-0.925214,-0.0623507,0.915503
284885259564,-0.925231,-0.0623033,0.915637
284885276064,-0.924878,-0.0626682,0.915878
284885297063,-0.924076,-0.063102,0.916026
284885319515,-0.923372,-0.0638322,0.916507
284885335913,-0.922608,-0.0645385,0.916811
284885358455,-0.921863,-0.065119,0.916896
284885379540,-0.921623,-0.0657769,0.917011
284885395909,-0.921669,-0.0662939,0.917295
284885418461,-0.921759,-0.0662669,0.917148
284885447734,-0.921759,-0.0662669,0.917148
284885456060,-0.922266,-0.0656856,0.917299
284885478438,-0.922304,-0.0648539,0.917336
284885499551,-0.922791,-0.0639533,0.917465
284885516014,-0.923045,-0.0634184,0.917718
284885538430,-0.923045,-0.0634184,0.917718
284885559552,-0.923045,-0.0634184,0.917718
284885576012,-0.922364,-0.0633653,0.918102
284885598439,-0.921237,-0.0638269,0.918633
284885619478,-0.919981,-0.0647025,0.919034
284885635927,-0.919131,-0.0653584,0.919131
284885658524,-0.918378,-0.0657744,0.919442
284885679585,-0.917525,-0.0660643,0.919653
284885695948,-0.916668,-0.0664755,0.919623
284885718453,-0.915811,-0.0668867,0.919593
284885739555,-0.915376,-0.0670301,0.919394
284885756008,-0.915511,-0.0669831,0.91941
284885778503,-0.914893,-0.0667355,0.919266
284885799574,-0.914821,-0.0666364,0.919194
284885816080,-0.914893,-0.0667355,0.919266
284885838512,-0.915027,-0.0666885,0.919282
284885859477,-0.915027,-0.0666885,0.919282
284885876054,-0.914956,-0.0665894,0.919211
284885898463,-0.915027,-0.0666885,0.919282
284885919544,-0.914732,-0.0666639,0.919341
284885936018,-0.914732,-0.0666639,0.919341
284885958441,-0.914838,-0.0665896,0.919329
284885979515,-0.914525,-0.0666118,0.919253
284885996057,-0.914542,-0.0665651,0.919388
284886018411,-0.914542,-0.0665651,0.919388
284886039556,-0.914542,-0.0665651,0.919388
284886056007,-0.914525,-0.0666118,0.919253
284886078483,-0.914648,-0.0664908,0.919376
284886099518,-0.914648,-0.0664908,0.919376
284886116055,-0.914782,-0.0664437,0.919392
284886138428,-0.914782,-0.0664437,0.919392
284886159593,-0.914782,-0.0664437,0.919392
284886176057,-0.914385,-0.0663728,0.919705
284886198494,-0.913482,-0.0657796,0.919749
284886220235,-0.912827,-0.0648531,0.920161
284886235140,-0.912873,-0.0642671,0.920328
284886257694,-0.913008,-0.0642199,0.920344
284886281657,-0.912638,-0.0642681,0.920566
284886295209,-0.912502,-0.0643953,0.920903
284886317697,-0.912473,-0.0643682,0.920874
284886340184,-0.912473,-0.0643682,0.920874
284886355230,-0.912608,-0.064321,0.920891
284886377713,-0.912756,-0.0643987,0.921275
284886400186,-0.912811,-0.0645444,0.921212
284886416589,-0.912576,-0.0645455,0.921449
284886437750,-0.912251,-0.0644943,0.92148
284886460208,-0.912386,-0.064447,0.921497
284886476433,-0.911783,-0.064325,0.921722
284886497770,-0.910762,-0.0643001,0.921885
284886520259,-0.909773,-0.0647596,0.92184
284886536653,-0.909058,-0.0650046,0.922069
284886557684,-0.908469,-0.0654945,0.922306
284886580184,-0.907764,-0.0659855,0.922662
284886596661,-0.907059,-0.0664768,0.923018
284886617715,-0.906401,-0.0668681,0.923183
284886640251,-0.906506,-0.0667936,0.923171
284886656653,-0.907422,-0.0674296,0.923137
284886677740,-0.908476,-0.0685562,0.923238
284886700132,-0.908552,-0.0696789,0.92307
284886716610,-0.908571,-0.0708281,0.923199
284886737715,-0.908051,-0.0717099,0.923499
284886760167,-0.907688,-0.0721248,0.923604
284886776720,-0.907348,-0.0728593,0.92373
284886797751,-0.907348,-0.0728593,0.92373
284886820196,-0.907348,-0.0728593,0.92373
284886836617,-0.907348,-0.0728593,0.92373
284886857691,-0.90742,-0.0729586,0.923802
284886880253,-0.907477,-0.0724463,0.923862
284886896688,-0.907405,-0.0716893,0.923914
284886925191,-0.90735,-0.0715439,0.923978
284886940224,-0.907778,-0.0716922,0.924169
284886956574,-0.907749,-0.0716647,0.92414
284886977724,-0.907304,-0.0718163,0.924402
284887000280,-0.907087,-0.0717723,0.924774
284887016682,-0.907114,-0.0718903,0.924682
284887037715,-0.908716,-0.0705408,0.9237
284887060202,-0.911746,-0.068337,0.922376
284887076688,-0.912786,-0.0673542,0.921411
284887097723,-0.911509,-0.0664847,0.92002
284887120163,-0.911172,-0.0660848,0.918975
284887136703,-0.911106,-0.065642,0.918438
284887157748,-0.909468,-0.0660771,0.918808
284887180228,-0.906307,-0.0670683,0.919188
284887196647,-0.904408,-0.0680462,0.919764
284887217721,-0.90345,-0.068532,0.919747
284887240156,-0.902653,-0.0686044,0.920012
284887256035,-0.9019,-0.0688311,0.920674
284887279172,-0.900974,-0.0693985,0.921161
284887300243,-0.901243,-0.0704179,0.920829
284887316059,-0.901747,-0.0713438,0.920382
284887339159,-0.900982,-0.072951,0.920074
284887360210,-0.899361,-0.0752621,0.919727
284887376065,-0.898701,-0.077452,0.919282
284887399152,-0.898644,-0.0786214,0.919096
284887427716,-0.89816,-0.0791565,0.919078
284887435995,-0.896911,-0.0804493,0.919225
284887459173,-0.895851,-0.0816672,0.919092
284887481721,-0.896527,-0.0829104,0.918699
284887496092,-0.897186,-0.0835421,0.918296
284887519107,-0.897435,-0.0841513,0.91807
284887540219,-0.895742,-0.0837669,0.917553
284887556086,-0.895194,-0.0813336,0.916794
284887579210,-0.899118,-0.0803709,0.9165
284887600248,-0.906633,-0.0822207,0.91696
284887616020,-0.907271,-0.0843376,0.918056
284887639233,-0.890906,-0.0930727,0.922317
284887660211,-0.896895,-0.11869,0.961661
284887676087,-0.867816,-0.0912189,0.997274
284887699143,-0.814064,-0.0338794,1.02092
284887720233,-0.696107,0.0752294,1.04774
284887736123,-0.492028,0.250829,1.07111
284887759212,-0.423233,0.449705,1.08191
284887780270,-0.37087,0.658819,1.09796
284887796084,-0.355969,0.864516,1.1087
284887819256,-0.312735,1.03947,1.14225
284887840205,-0.20322,1.16449,1.22746
284887856055,-0.0431866,1.22596,1.36642
284887879212,0.137653,1.23008,1.51727
284887900235,0.245091,1.20098,1.60264
284887916049,0.27233,1.15984,1.62407
284887946651,0.251456,1.117,1.60776
284887960211,0.160005,1.0678,1.53332
284887976022,-0.00486209,1.00084,1.39995
284887999205,-0.214417,0.90209,1.24755
284888020245,-0.386988,0.768342,1.12457
284888036054,-0.514957,0.604272,1.03211
284888059181,-0.637102,0.422093,0.982472
284888080256,-0.730776,0.292849,0.948601
284888096057,-0.735091,0.20673,0.946906
284888125312,-0.746699,0.150162,0.957695
284888140212,-0.783121,0.106019,0.969929
284888156037,-0.793144,0.0698273,0.978192
284888179210,-0.791233,0.0289658,0.978935
284888200273,-0.801173,-0.00863318,0.979107
284888216062,-0.814899,-0.0349787,0.984166
284888238485,-0.825013,-0.0519621,0.990517
284888260250,-0.825425,-0.0627185,0.992467
284888276050,-0.821953,-0.0706248,0.990746
284888298505,-0.822019,-0.0776394,0.98837
284888320160,-0.82585,-0.0836995,0.986325
284888335966,-0.834575,-0.0899581,0.984268
284888358538,-0.840455,-0.0962008,0.98072
284888381791,-0.841483,-0.100559,0.976456
284888396050,-0.842686,-0.10101,0.974017
284888418575,-0.841891,-0.0996114,0.971788
284888441706,-0.847543,-0.100771,0.969444
284888456063,-0.855384,-0.104661,0.96695
284888478489,-0.857917,-0.109235,0.965073
284888501658,-0.856695,-0.112727,0.964149
284888516053,-0.85445,-0.114485,0.96344
284888538509,-0.854054,-0.115455,0.961838
284888561657,-0.854107,-0.114246,0.959633
284888576005,-0.854602,-0.111232,0.957139
284888598497,-0.856662,-0.109037,0.954889
284888621677,-0.859519,-0.108362,0.953597
284888636097,-0.862982,-0.108267,0.952304
284888658506,-0.865354,-0.108011,0.950625
284888681637,-0.864863,-0.105858,0.948239
284888704181,-0.864548,-0.102986,0.946172
284888718578,-0.866484,-0.101075,0.944451
284888741688,-0.870517,-0.100738,0.94349
284888756083,-0.874433,-0.100938,0.943208
284888778531,-0.875794,-0.100891,0.942824
284888801720,-0.877074,-0.100464,0.941789
284888816052,-0.878815,-0.100302,0.940856
284888838529,-0.880883,-0.101154,0.940225
284888867806,-0.881966,-0.102521,0.939409
284888882746,-0.882455,-0.104651,0.938796
284888898548,-0.882266,-0.106118,0.938571
284888921690,-0.880876,-0.10543,0.938128
284888942759,-0.881028,-0.104257,0.938193
284888958554,-0.882458,-0.102402,0.938741
284888981711,-0.882762,-0.0990935,0.939595
284889002799,-0.883982,-0.0951718,0.940566
284889018563,-0.886591,-0.0925036,0.941491
284889041769,-0.889062,-0.0917498,0.942579
284889062710,-0.889242,-0.0925446,0.943323
284889078521,-0.888321,-0.0940483,0.943649
284889101672,-0.88742,-0.095508,0.944112
284889122769,-0.887093,-0.0966565,0.945039
284889138524,-0.88655,-0.0979876,0.946442
284889161081,-0.885276,-0.0993747,0.947809
284889182767,-0.883542,-0.0997148,0.948978
284889198580,-0.882214,-0.0988876,0.949539
284889221042,-0.882915,-0.0974461,0.949934
284889242818,-0.884755,-0.0962541,0.950177
284889258584,-0.885865,-0.0953082,0.950031
284889281042,-0.886346,-0.0942399,0.949493
284889302880,-0.887498,-0.0933817,0.948801
284889318596,-0.888039,-0.0927501,0.94819
284889341054,-0.889115,-0.0923917,0.947874
284889364214,-0.890049,-0.0923006,0.947642
284889378608,-0.890464,-0.0919062,0.947716
284889401014,-0.889933,-0.0918216,0.948123
284889424252,-0.889307,-0.0919882,0.948778
284889438563,-0.888614,-0.09223,0.949598
284889461092,-0.888025,-0.0923087,0.950526
284889484240,-0.887861,-0.0921526,0.951301
284889498513,-0.887914,-0.0924123,0.952048
284889520986,-0.887968,-0.092672,0.952795
284889544162,-0.887882,-0.0930978,0.953281
284889558600,-0.888295,-0.0933006,0.953805
284889581042,-0.888408,-0.0932964,0.953685
284889604045,-0.88838,-0.0932676,0.953656
284889618583,-0.888455,-0.093367,0.953729
284889641046,-0.888587,-0.0933184,0.953746
284889664236,-0.888587,-0.0933184,0.953746
284889678581,-0.888718,-0.0932699,0.953762
284889701005,-0.888473,-0.0933226,0.953866
284889724163,-0.888473,-0.0933226,0.953866
284889738596,-0.888633,-0.0936955,0.954248
284889761031,-0.888539,-0.093947,0.954497
284889784201,-0.888539,-0.093947,0.954497
284889805270,-0.888239,-0.0944395,0.954648
284889820217,-0.888117,-0.094868,0.954981
284889834620,-0.88789,-0.0948766,0.955221
284889857159,-0.887862,-0.0948478,0.955193
284889880248,-0.888051,-0.0949428,0.955146
284889894547,-0.888051,-0.0949428,0.955146
284889925973,-0.888051,-0.0949428,0.955146
284889940292,-0.88823,-0.0949647,0.955207
284889954620,-0.88823,-0.0949647,0.955207
284889977648,-0.88823,-0.0949647,0.955207
284890000250,-0.88823,-0.0949647,0.955207
284890014586,-0.88823,-0.0949647,0.955207
284890037058,-0.887957,-0.0951945,0.955395
284890068495,-0.887928,-0.0951807,0.955833
284890082792,-0.88791,-0.0952251,0.955696
284890097111,-0.887985,-0.0953245,0.955769
284890120199,-0.888089,-0.0952469,0.955758
284890134609,-0.888089,-0.0952469,0.955758
284890157142,-0.88822,-0.0951983,0.955774
284890180203,-0.88822,-0.0951983,0.955774
284890194610,-0.88822,-0.0951983,0.955774
284890217107,-0.88822,-0.0951983,0.955774
284890240266,-0.88822,-0.0951983,0.955774
284890254667,-0.888399,-0.0952201,0.955836
284890277080,-0.888399,-0.0952201,0.955836
284890300197,-0.888531,-0.0951714,0.955852
284890314621,-0.888531,-0.0951714,0.955852
284890337142,-0.888662,-0.0951228,0.955869
284890360119,-0.888634,-0.0950939,0.955841
284890374620,-0.888691,-0.0952376,0.955777
284890397126,-0.888823,-0.095189,0.955794
284890420336,-0.888823,-0.095189,0.955794
284890434652,-0.888823,-0.095189,0.955794
284890457084,-0.889802,-0.0951789,0.956073
284890480283,-0.889878,-0.0952782,0.956146
284890494538,-0.889436,-0.0953537,0.956051
284890517107,-0.889131,-0.0946796,0.956234
284890540320,-0.889667,-0.0944532,0.956426
284890554652,-0.889874,-0.0945038,0.956515
284890577137,-0.889469,-0.0947824,0.956686
284890600335,-0.88899,-0.0949616,0.956784
284890614624,-0.888998,-0.0948441,0.95703
284890645971,-0.888875,-0.0947752,0.957259
284890660298,-0.888875,-0.0947752,0.957259
284890674606,-0.889007,-0.0947265,0.957276
284890697141,-0.888807,-0.0942667,0.95744
284890720236,-0.888807,-0.0942667,0.95744
284890734618,-0.889494,-0.0942385,0.957777
284890757096,-0.889682,-0.0943334,0.95773
284890780295,-0.889682,-0.0943334,0.95773
284890794686,-0.889682,-0.0943334,0.95773
284890817176,-0.889682,-0.0943334,0.95773
284890840360,-0.889786,-0.0942558,0.957719
284890854692,-0.889917,-0.094207,0.957735
284890877136,-0.889917,-0.094207,0.957735
284890900289,-0.889917,-0.094207,0.957735
284890914654,-0.889917,-0.094207,0.957735
284890937172,-0.889993,-0.0943063,0.957808
284890960323,-0.890124,-0.0942576,0.957825
284890974636,-0.890097,-0.0942287,0.957797
284890997107,-0.890849,-0.0941256,0.95797
284891020403,-0.890849,-0.0941256,0.95797
284891034651,-0.890821,-0.0940966,0.957942
284891057163,-0.890953,-0.0940479,0.957958
284891088492,-0.890953,-0.0940479,0.957958
284891094692,-0.891029,-0.0941471,0.958031
284891117207,-0.89116,-0.0940984,0.958048
284891140337,-0.89116,-0.0940984,0.958048
284891154671,-0.891132,-0.0940695,0.95802
284891177200,-0.891264,-0.0940207,0.958036
284891199646,-0.891264,-0.0940207,0.958036
284891217546,-0.891395,-0.093972,0.958053
284891237152,-0.891395,-0.093972,0.958053
284891259607,-0.891575,-0.0939935,0.958115
284891274687,-0.891499,-0.0938943,0.958042
284891297138,-0.891499,-0.0938943,0.958042
284891328446,-0.89163,-0.0938456,0.958058
284891334552,-0.891688,-0.0939893,0.957994
284891357080,-0.891791,-0.0939116,0.957983
284891379587,-0.891791,-0.0939116,0.957983
284891394658,-0.891621,-0.0937722,0.958167
284891417197,-0.891621,-0.0937722,0.958167
284891439588,-0.891621,-0.0937722,0.958167
284891454586,-0.891621,-0.0937722,0.958167
284891478537,-0.891696,-0.0938714,0.95824
284891499634,-0.891828,-0.0938226,0.958257
284891514632,-0.891931,-0.0937449,0.958245
284891537184,-0.891931,-0.0937449,0.958245
284891559726,-0.891913,-0.0937894,0.958109
284891574688,-0.892045,-0.0937407,0.958125
284891597146,-0.892092,-0.0938109,0.95817
284891619666,-0.892224,-0.0937622,0.958187
284891634635,-0.892224,-0.0937622,0.958187
284891657162,-0.892224,-0.0937622,0.958187
284891679624,-0.892224,-0.0937622,0.958187
284891694576,-0.892224,-0.0937622,0.958187
284891717147,-0.892356,-0.0937135,0.958203
284891739674,-0.892356,-0.0937135,0.958203
284891754729,-0.892403,-0.0937837,0.958248
284891777192,-0.892535,-0.0937349,0.958265
284891799696,-0.892535,-0.0937349,0.958265
284891814597,-0.892535,-0.0937349,0.958265
284891837143,-0.892535,-0.0937349,0.958265
284891860428,-0.892666,-0.0936862,0.958282
284891874573,-0.892742,-0.0937854,0.958355
284891897069,-0.892742,-0.0937854,0.958355
284891921057,-0.892742,-0.0937854,0.958355
284891934571,-0.892742,-0.0937854,0.958355
284891957120,-0.892846,-0.0937077,0.958343
284891979586,-0.892828,-0.0937522,0.958207
284891996065,-0.892828,-0.0937522,0.958207
284892017099,-0.892535,-0.0937349,0.958265
284892039562,-0.892535,-0.0937349,0.958265
284892056038,-0.892638,-0.0936572,0.958254
284892077076,-0.892714,-0.0937564,0.958327
284892099620,-0.892497,-0.0938383,0.958458
284892116021,-0.892601,-0.0937606,0.958447
284892137053,-0.892601,-0.0937606,0.958447
284892159609,-0.892601,-0.0937606,0.958447
284892176133,-0.892601,-0.0937606,0.958447
284892200035,-0.892601,-0.0937606,0.958447
284892219684,-0.892601,-0.0937606,0.958447
284892236094,-0.892601,-0.0937606,0.958447
284892257166,-0.892732,-0.0937119,0.958463
284892279624,-0.892732,-0.0937119,0.958463
284892296049,-0.892732,-0.0937119,0.958463
284892317176,-0.892808,-0.093811,0.958537
284892339602,-0.89278,-0.0937821,0.958508
284892356098,-0.892912,-0.0937333,0.958525
284892377177,-0.892912,-0.0937333,0.958525
284892399649,-0.892912,-0.0937333,0.958525
284892416061,-0.892912,-0.0937333,0.958525
284892437092,-0.892912,-0.0937333,0.958525
284892453586,-0.892912,-0.0937333,0.958525
284892476110,-0.893187,-0.094101,0.958789
284892497187,-0.893388,-0.094661,0.958974
284892519722,-0.892969,-0.0955817,0.95946
284892536143,-0.89208,-0.0967561,0.959937
284892557240,-0.891327,-0.0979825,0.960777
284892573604,-0.890795,-0.0996251,0.961592
284892596117,-0.889973,-0.102053,0.962554
284892617184,-0.88809,-0.10504,0.963478
284892633603,-0.885319,-0.108026,0.964437
284892663585,-0.882616,-0.111158,0.965331
284892677164,-0.879325,-0.115298,0.965937
284892693614,-0.87603,-0.119693,0.966516
284892717567,-0.871823,-0.124686,0.966949
284892737116,-0.867779,-0.130479,0.966917
284892759601,-0.863237,-0.135894,0.966383
284892776101,-0.856568,-0.141194,0.965887
284892797167,-0.848832,-0.14736,0.965166
284892827816,-0.841171,-0.155059,0.964289
284892836136,-0.836154,-0.162899,0.96442
284892865370,-0.834442,-0.169735,0.964487
284892879709,-0.834574,-0.176458,0.962559
284892896042,-0.835766,-0.182582,0.961287
284892917144,-0.837931,-0.186656,0.959644
284892939640,-0.839334,-0.186672,0.962621
284892956079,-0.830101,-0.179219,0.964702
284892978536,-0.819468,-0.168063,0.968406
284892999661,-0.808906,-0.154675,0.972604
284893016076,-0.797373,-0.139862,0.976813
284893038549,-0.785083,-0.123371,0.980174
284893059651,-0.773891,-0.10684,0.981742
284893076065,-0.765918,-0.0912687,0.979946
284893098580,-0.763734,-0.0758403,0.975267
284893119676,-0.762436,-0.0604083,0.967638
284893136065,-0.762714,-0.0464121,0.957654
284893158585,-0.765355,-0.03604,0.94573
284893179608,-0.76905,-0.0294502,0.932374
284893196070,-0.77063,-0.0252687,0.917476
284893218584,-0.771241,-0.0232754,0.902024
284893239640,-0.7743,-0.0225001,0.884694
284893256074,-0.780903,-0.023978,0.865128
284893278573,-0.786069,-0.0257824,0.844051
284893299611,-0.787573,-0.0281079,0.82297
284893316044,-0.790898,-0.0325779,0.801229
284893338597,-0.796874,-0.0395101,0.779155
284893359661,-0.803194,-0.0459983,0.755805
284893383615,-0.81155,-0.0522626,0.731321
284893398557,-0.823046,-0.0588791,0.706131
284893421723,-0.834212,-0.0646528,0.679074
284893435312,-0.843717,-0.0701947,0.650011
284893457815,-0.85253,-0.0748906,0.621238
284893480288,-0.86058,-0.0798722,0.592409
284893495323,-0.869115,-0.0854768,0.563759
284893517793,-0.877678,-0.0933022,0.535564
284893540071,-0.886583,-0.103017,0.508295
284893555285,-0.897308,-0.11347,0.482221
284893577797,-0.905376,-0.123156,0.457197
284893600306,-0.912558,-0.133868,0.434134
284893615309,-0.914843,-0.147151,0.410898
284893637778,-0.919597,-0.161609,0.38918
284893660274,-0.927059,-0.174935,0.370352
284893675301,-0.933699,-0.187297,0.354129
284893697803,-0.941624,-0.198094,0.339049
284893720322,-0.952367,-0.207891,0.323461
284893735266,-0.96559,-0.22153,0.308914
284893757817,-0.972895,-0.237589,0.296166
284893780346,-0.974851,-0.256734,0.285761
284893795345,-0.978958,-0.280654,0.277201
284893817821,-0.983658,-0.311198,0.268173
284893840311,-0.991379,-0.350292,0.260818
284893855338,-1.01189,-0.373502,0.250854
284893877832,-1.01067,-0.36144,0.232951
284893900321,-0.997884,-0.343472,0.217402
284893915324,-1.00627,-0.335595,0.213642
284893937800,-1.0094,-0.336428,0.216798
284893960311,-1.00336,-0.343855,0.217058
284893976734,-0.998329,-0.350358,0.21334
284893997797,-0.992164,-0.354729,0.207882
284894013569,-0.989937,-0.359337,0.202181
284894035283,-0.991663,-0.363866,0.19682
284894057838,-0.993679,-0.366848,0.190934
284894080342,-0.996832,-0.368113,0.184239
284894096784,-1.00239,-0.369191,0.17809
284894117811,-1.00667,-0.370663,0.173029
284894140311,-1.00818,-0.37161,0.168406
284894156747,-1.00759,-0.371271,0.163703
284894177804,-1.00727,-0.370947,0.158948
284894200331,-1.00851,-0.371498,0.15458
284894216752,-1.00975,-0.371844,0.15
284894237864,-1.01066,-0.371333,0.144954
284894253598,-1.01164,-0.369779,0.139938
284894276753,-1.01447,-0.367894,0.13624
284894297833,-1.01668,-0.366934,0.13421
284894313628,-1.01737,-0.367207,0.133239
284894337448,-1.01696,-0.367862,0.13226
284894357842,-1.01646,-0.368114,0.131004
284894373592,-1.01665,-0.367843,0.130193
284894396753,-1.01702,-0.367963,0.129761
284894417817,-1.01801,-0.368551,0.130045
284894433579,-1.01936,-0.369174,0.130562
284894456801,-1.02076,-0.369253,0.131052
284894478266,-1.02221,-0.3687,0.13163
284894493649,-1.02396,-0.368069,0.132371
284894516772,-1.02536,-0.367761,0.133053
284894537820,-1.02643,-0.367147,0.133948
284894561759,-1.02728,-0.366241,0.134607
284894576802,-1.02816,-0.365447,0.135332
284894597849,-1.02847,-0.364774,0.136022
284894613599,-1.02854,-0.364316,0.136612
284894637230,-1.02844,-0.364301,0.136875
284894657850,-1.02856,-0.364342,0.136794
284894673597,-1.02852,-0.364527,0.136463
284894696774,-1.02866,-0.364952,0.136004
284894718271,-1.02837,-0.365056,0.136023
284894733626,-1.02823,-0.365139,0.135884
284894756814,-1.02797,-0.365268,0.135898
284894777818,-1.02684,-0.365684,0.135051
284894793632,-1.02604,-0.366554,0.134499
284894816771,-1.02468,-0.36757,0.134093
284894837850,-1.02355,-0.368431,0.134038
284894861780,-1.02255,-0.369037,0.134164
284894876120,-1.02154,-0.369642,0.13429
284894897822,-1.02081,-0.370144,0.134398
284894913625,-1.02011,-0.370672,0.134688
284894936117,-1.01968,-0.37101,0.135075
284894958263,-1.0192,-0.371147,0.135323
284894975093,-1.01837,-0.371249,0.135339
284894996125,-1.01753,-0.371413,0.135243
284895019671,-1.01692,-0.371509,0.135024
284895033616,-1.01695,-0.371683,0.13498
284895056094,-1.01682,-0.371704,0.134951
284895085331,-1.01668,-0.371874,0.134883
284895093627,-1.01652,-0.37187,0.134857
284895116118,-1.01601,-0.371978,0.134374
284895139273,-1.01606,-0.372091,0.134441
284895153612,-1.01588,-0.372148,0.134305
284895176828,-1.01575,-0.372169,0.134276
284895206750,-1.01558,-0.372165,0.134251
284895213604,-1.01566,-0.372303,0.134314
284895236106,-1.01548,-0.37236,0.134178
284895259999,-1.01481,-0.372616,0.134178
284895273595,-1.01463,-0.372673,0.134042
284895296147,-1.0145,-0.372694,0.134013
284895319293,-1.01454,-0.372807,0.13408
284895333651,-1.01391,-0.372727,0.133904
284895356137,-1.01391,-0.372727,0.133904
284895379303,-1.01391,-0.372727,0.133904
284895393591,-1.0139,-0.372492,0.134059
284895416079,-1.01373,-0.372104,0.134228
284895439391,-1.01379,-0.372096,0.134517
284895453658,-1.01379,-0.372096,0.134517
284895476688,-1.01366,-0.372117,0.134488
284895499325,-1.01365,-0.372178,0.134377
284895520436,-1.01349,-0.372174,0.134352
284895536140,-1.01352,-0.372199,0.134348
284895559344,-1.0134,-0.372308,0.13439
284895580415,-1.0134,-0.372308,0.13439
284895596263,-1.01338,-0.372369,0.134279
284895619362,-1.01338,-0.372369,0.134279
284895641839,-1.01338,-0.372369,0.134279
284895656241,-1.01285,-0.372159,0.134614
284895679394,-1.01253,-0.372155,0.135113
284895700422,-1.01256,-0.37218,0.135109
284895716180,-1.01239,-0.372176,0.135084
284895739312,-1.01217,-0.371889,0.135584
284895761796,-1.01169,-0.371732,0.136098
284895776216,-1.01119,-0.371637,0.136501
284895805398,-1.01119,-0.371703,0.136939
284895827953,-1.01157,-0.371555,0.137505
284895836218,-1.01207,-0.371212,0.138143
284895858684,-1.01269,-0.370611,0.138779
284895880387,-1.01341,-0.369815,0.139487
284895896181,-1.01419,-0.369453,0.140178
284895918609,-1.0143,-0.369262,0.140799
284895940346,-1.01423,-0.369128,0.141285
284895956129,-1.01433,-0.369145,0.14157
284895978688,-1.01428,-0.369245,0.141902
284896001878,-1.01429,-0.369337,0.142522
284896016255,-1.01453,-0.369573,0.143417
284896038656,-1.01599,-0.369701,0.144821
284896061851,-1.01812,-0.369571,0.146773
284896076146,-1.0193,-0.369209,0.148538
284896098720,-1.01908,-0.369227,0.150058
284896121852,-1.01942,-0.369482,0.151976
284896136229,-1.02067,-0.368964,0.154804
284896158703,-1.02188,-0.368397,0.158003
284896181851,-1.02208,-0.367551,0.160835
284896196667,-1.02181,-0.366195,0.163819
284896218592,-1.02228,-0.363253,0.167071
284896241912,-1.0221,-0.361913,0.16979
284896256237,-1.02218,-0.360148,0.170365
284896278732,-1.02562,-0.358052,0.170916
284896301871,-1.03039,-0.358434,0.172394
284896322817,-1.03828,-0.359908,0.17647
284896338717,-1.04595,-0.362991,0.183045
284896361803,-1.05377,-0.365334,0.192966
284896390413,-1.05932,-0.366236,0.203986
284896398735,-1.05935,-0.360662,0.214241
284896429321,-1.05612,-0.352301,0.226056
284896442914,-1.05693,-0.348371,0.240619
284896458702,-1.05925,-0.347454,0.256052
284896481876,-1.06104,-0.346985,0.269932
284896502936,-1.06355,-0.345607,0.283485
284896518728,-1.06767,-0.344481,0.298312
284896549355,-1.07383,-0.346357,0.314564
284896562917,-1.07997,-0.350596,0.330034
284896578703,-1.08211,-0.355435,0.341994
284896601791,-1.08055,-0.360442,0.350403
284896622914,-1.07852,-0.365324,0.356176
284896639194,-1.07844,-0.366116,0.358676
284896661857,-1.08034,-0.364266,0.359074
284896682907,-1.07984,-0.361835,0.358708
284896698669,-1.07848,-0.360084,0.359268
284896721203,-1.0754,-0.361317,0.360886
284896742906,-1.07216,-0.363984,0.362453
284896765407,-1.06865,-0.367821,0.364363
284896781172,-1.06409,-0.372106,0.366667
284896810517,-1.06048,-0.376241,0.369868
284896818618,-1.05609,-0.378959,0.374682
284896841251,-1.0547,-0.38057,0.381407
284896862928,-1.05624,-0.381829,0.390515
284896878726,-1.05633,-0.381854,0.399321
284896901183,-1.05352,-0.381918,0.405103
284896924346,-1.04758,-0.382969,0.406653
284896938691,-1.04203,-0.384928,0.405702
284896961217,-1.03625,-0.388119,0.402261
284896984358,-1.03035,-0.395273,0.395454
284896998713,-1.02382,-0.404072,0.385384
284897028620,-1.01678,-0.412366,0.372838
284897034819,-1.01474,-0.422601,0.358728
284897057915,-1.01501,-0.433557,0.343306
284897080497,-1.0112,-0.447827,0.326507
284897094805,-1.00928,-0.462902,0.310902
284897117960,-1.00843,-0.482938,0.297319
284897140411,-1.00614,-0.50607,0.283546
284897154689,-1.0054,-0.530648,0.270631
284897177864,-1.00493,-0.557054,0.256895
284897200427,-1.00008,-0.586143,0.242016
284897214784,-0.996748,-0.620063,0.22698
284897237881,-0.996266,-0.65954,0.212549
284897260485,-0.997225,-0.702805,0.200689
284897274793,-1.00074,-0.747579,0.191882
284897297887,-1.00327,-0.794881,0.184246
284897320477,-1.00137,-0.84622,0.178716
284897334796,-1.00246,-0.900494,0.180677
284897357994,-1.01179,-0.95436,0.194827
284897380457,-1.02798,-1.00558,0.223906
284897394823,-1.06687,-1.04798,0.274706
284897417935,-1.11187,-1.08245,0.334431
284897440430,-1.15222,-1.1144,0.390687
284897454814,-1.18899,-1.1495,0.436927
284897477939,-1.2341,-1.18294,0.478905
284897500462,-1.29078,-1.21506,0.525563
284897514748,-1.36911,-1.24568,0.594559
284897546151,-1.4811,-1.27664,0.699695
284897560438,-1.6279,-1.30322,0.839316
284897574737,-1.76189,-1.31754,0.965061
284897598020,-1.89271,-1.32308,1.08929
284897620483,-2.01342,-1.3087,1.19664
284897634783,-2.0671,-1.29041,1.23828
284897657933,-2.06909,-1.28807,1.24139
284897680472,-2.09715,-1.29961,1.26731
284897711114,-2.18138,-1.29917,1.32697
284897717920,-2.24642,-1.28444,1.37152
284897740472,-2.27231,-1.26931,1.3854
284897762911,-2.31361,-1.26557,1.43567
284897777327,-2.38595,-1.27027,1.51391
284897800396,-2.44462,-1.2701,1.56893
284897814788,-2.47442,-1.26667,1.60606
284897837295,-2.50581,-1.26408,1.64688
284897860426,-2.54316,-1.26541,1.6823
284897874769,-2.58519,-1.26856,1.72558
284897897310,-2.63127,-1.27513,1.78108
284897921136,-2.68866,-1.28153,1.84231
284897934784,-2.73132,-1.28776,1.87604
284897957332,-2.75657,-1.29423,1.88867
284897980468,-2.77057,-1.30319,1.89223
284897994786,-2.76632,-1.31628,1.88022
284898026160,-2.75022,-1.33241,1.85976
284898040490,-2.71182,-1.34595,1.81649
284898054801,-2.6495,-1.35484,1.75076
284898077293,-2.57119,-1.35868,1.67451
284898100496,-2.47564,-1.35992,1.58352
284898114810,-2.37446,-1.35806,1.48677
284898137360,-2.26528,-1.35177,1.37979
284898160460,-2.14388,-1.34284,1.27048
284898174827,-2.05801,-1.33093,1.19571
284898197312,-2.01352,-1.31916,1.16259
284898220433,-2.00641,-1.30932,1.16655
284898234798,-1.99039,-1.29967,1.16728
284898257285,-1.95038,-1.28979,1.14726
284898280434,-1.88889,-1.27626,1.09772
284898294783,-1.78744,-1.25681,1.00135
284898317260,-1.66599,-1.23286,0.88907
284898340495,-1.56639,-1.21364,0.799636
284898354831,-1.5007,-1.19506,0.747656
284898378706,-1.45707,-1.17161,0.712455
284898400498,-1.4196,-1.14745,0.681471
284898414810,-1.38607,-1.13087,0.6513
284898437317,-1.34286,-1.12359,0.615472
284898460434,-1.29142,-1.12438,0.571448
284898482951,-1.2352,-1.12979,0.520921
284898497331,-1.18051,-1.13694,0.468051
284898528693,-1.14424,-1.14186,0.425408
284898534768,-1.12195,-1.14208,0.392428
284898558795,-1.09501,-1.13821,0.360203
284898580458,-1.06333,-1.13345,0.326306
284898594793,-1.03992,-1.1284,0.298644
284898625442,-1.01887,-1.12359,0.274495
284898640432,-0.993992,-1.11814,0.24911
284898654784,-0.978059,-1.11144,0.229938
284898677313,-0.967804,-1.10321,0.214271
284898700457,-0.956991,-1.09461,0.20105
284898714814,-0.942671,-1.08712,0.186922
284898738749,-0.926818,-1.08119,0.171302
284898760519,-0.911437,-1.0764,0.156004
284898774747,-0.89797,-1.07359,0.142306
284898797286,-0.882087,-1.07127,0.129672
284898819795,-0.863789,-1.06903,0.118095
284898834828,-0.848017,-1.06696,0.108952
284898857311,-0.835438,-1.06492,0.10187
284898879719,-0.827406,-1.0617,0.0983114
284898894854,-0.822165,-1.05865,0.100209
284898917294,-0.813385,-1.05571,0.102839
284898939817,-0.804617,-1.0529,0.105552
284898954886,-0.798975,-1.04887,0.108053
284898977391,-0.796835,-1.04451,0.113185
284898999832,-0.802628,-1.03904,0.127321
284899014763,-0.811652,-1.02995,0.144568
284899045511,-0.815297,-1.01772,0.156076
284899059793,-0.813794,-1.00313,0.162146
284899074825,-0.809176,-0.98548,0.162019
284899097288,-0.808788,-0.966946,0.159105
284899119843,-0.819074,-0.947552,0.156615
284899134867,-0.84237,-0.924931,0.158722
284899157317,-0.875389,-0.89551,0.166489
284899179829,-0.901374,-0.863043,0.171568
284899194814,-0.910711,-0.829825,0.171397
284899217354,-0.908803,-0.797808,0.171057
284899239821,-0.900433,-0.764078,0.172902
284899254881,-0.885869,-0.727274,0.175555
284899277351,-0.867625,-0.689476,0.180604
284899299803,-0.850609,-0.646303,0.187981
284899314833,-0.844816,-0.592702,0.195701
284899337302,-0.839867,-0.532953,0.204195
284899359855,-0.830307,-0.46704,0.217651
284899374837,-0.817334,-0.39245,0.234055
284899397329,-0.796934,-0.307786,0.250338
284899419781,-0.766906,-0.216912,0.266611
284899434841,-0.728241,-0.123067,0.285002
284899457335,-0.684454,-0.0257684,0.306909
284899479835,-0.639809,0.0742894,0.335418
284899494833,-0.585878,0.177487,0.369825
284899517333,-0.522649,0.279841,0.41082
284899533776,-0.449851,0.379859,0.459392
284899554813,-0.358272,0.476749,0.517082
284899577365,-0.247035,0.566001,0.584743
284899593730,-0.128653,0.643762,0.662815
284899616271,-0.00666622,0.70868,0.750257
284899637454,0.123145,0.764799,0.845007
284899661219,0.264261,0.810945,0.947745
284899676273,0.415085,0.845682,1.06078
284899697312,0.568876,0.868515,1.18023
284899713729,0.719936,0.880833,1.30026
284899736323,0.868086,0.883943,1.41784
284899765483,1.00518,0.877478,1.5278
284899773706,1.12544,0.861514,1.62518
284899803738,1.21866,0.840777,1.70868
284899817371,1.29615,0.819405,1.78032
284899833754,1.37241,0.792957,1.8357
284899856308,1.43752,0.758995,1.87315
284899880207,1.47894,0.724895,1.899
284899901213,1.51257,0.691219,1.91685
284899916272,1.54845,0.654823,1.92045
284899937316,1.57485,0.618866,1.91504
284899959870,1.58637,0.580556,1.90825
284899983776,1.60493,0.546461,1.91042
284900000224,1.63708,0.519443,1.9255
284900013738,1.66352,0.491469,1.93777
284900042413,1.69548,0.450001,1.95167
284900057359,1.71104,0.421637,1.96324
284900073777,1.72089,0.41032,1.9681
284900097726,1.73468,0.403768,1.97441
284900117286,1.74435,0.39348,1.97738
284900133808,1.74957,0.381015,1.98158
284900156258,1.74866,0.369678,1.98011
284900177369,1.74882,0.357714,1.97287
284900193782,1.74801,0.350412,1.96393
284900216296,1.74014,0.35279,1.95175
284900237358,1.72406,0.35543,1.93801
284900261251,1.70854,0.359023,1.92498
284900282341,1.6885,0.365813,1.91001
284900297368,1.67091,0.372615,1.89484
284900313781,1.65295,0.378828,1.87852
284900337696,1.62385,0.378025,1.85588
284900360258,1.5912,0.36837,1.83023
284900373797,1.56424,0.3517,1.80879
284900396334,1.54218,0.332514,1.79556
284900417371,1.52542,0.324151,1.79297
284900433806,1.5136,0.323997,1.79221
284900456348,1.50583,0.32186,1.78733
284900477371,1.49789,0.317044,1.77913
284900493785,1.48574,0.311093,1.76696
284900516304,1.46958,0.304378,1.75289
284900540265,1.45544,0.296809,1.74107
284900553787,1.4476,0.290388,1.73479
284900576239,1.44789,0.286433,1.73192
284900600227,1.45238,0.281568,1.72831
284900613836,1.45777,0.273926,1.72368
284900636231,1.46423,0.263915,1.71866
284900658108,1.47217,0.25294,1.71316
284900680541,1.48194,0.243886,1.7079
284900695581,1.49389,0.236944,1.70345
284900718063,1.50742,0.232379,1.69955
284900740503,1.52268,0.229206,1.69602
284900763062,1.53815,0.227107,1.69183
284900778017,1.55491,0.2241,1.68685
284900801983,1.5737,0.219897,1.68093
284900815526,1.59484,0.2146,1.67467
284900838115,1.61682,0.208891,1.66749
284900861919,1.63926,0.202716,1.65909
284900875486,1.66197,0.19653,1.6498
284900897986,1.68479,0.191738,1.63981
284900928680,1.70744,0.187847,1.6292
284900935537,1.72769,0.185201,1.61926
284900958059,1.7479,0.183786,1.61028
284900980545,1.77028,0.183478,1.60213
284900995510,1.79244,0.183155,1.59495
284901018061,1.8155,0.182665,1.58906
284901040514,1.83952,0.182968,1.58494
284901055490,1.86405,0.184175,1.58242
284901079438,1.88827,0.185864,1.58201
284901100564,1.91294,0.188027,1.58278
284901115546,1.93631,0.188342,1.58414
284901138121,1.95925,0.187505,1.58656
284901161925,1.98255,0.185496,1.59059
284901175465,2.00392,0.18276,1.59568
284901198064,2.02448,0.179156,1.60127
284901220518,2.0429,0.174363,1.60612
284901235561,2.05977,0.169113,1.61042
284901265597,2.07499,0.164321,1.61413
284901280410,2.08864,0.160086,1.61613
284901295545,2.09968,0.156411,1.61623
284901317919,2.11065,0.152532,1.61524
284901340537,2.12011,0.150102,1.615
284901355408,2.12721,0.149817,1.61606
284901379428,2.13385,0.149173,1.61688
284901400509,2.14083,0.146939,1.61687
284901431206,2.14736,0.142973,1.6167
284901437949,2.15265,0.138834,1.61744
284901468682,2.15828,0.132482,1.61842
284901475267,2.16253,0.127256,1.61796
284901498063,2.1653,0.121269,1.61671
284901520513,2.16785,0.11648,1.61629
284901535537,2.17041,0.112643,1.61703
284901558061,2.17144,0.108762,1.61756
284901580563,2.17295,0.10361,1.61703
284901597002,2.17466,0.0987062,1.61565
284901618093,2.1764,0.0942083,1.61492
284901633806,2.18029,0.0902024,1.61444
284901663105,2.18386,0.0872097,1.61365
284901678091,2.1881,0.0851273,1.61213
284901693803,2.19136,0.0836692,1.60934
284901731920,2.19517,0.0818591,1.60625
284901754271,2.19974,0.0804478,1.60406
284901761793,2.20322,0.0794888,1.60257
284901777012,2.20611,0.0785108,1.60162
284901798085,2.20881,0.0776545,1.6005
284901813755,2.21113,0.0771931,1.599
284901837064,2.2132,0.0775869,1.59761
284901858063,2.21495,0.0786051,1.59607
284901873770,2.21666,0.0797837,1.59431
284901897064,2.21905,0.081303,1.59245
284901918131,2.22195,0.0827082,1.59123
284901933852,2.22491,0.0837253,1.59056
284901957023,2.2275,0.0843591,1.59024
284901978094,2.22979,0.0847583,1.59015
284901993764,2.23189,0.084701,1.5904
284902016723,2.23366,0.0844873,1.59087
284902038109,2.23459,0.0843609,1.5913
284902053860,2.23464,0.0842807,1.5913
284902077004,2.23495,0.0837386,1.59121
284902099438,2.23495,0.0834275,1.59135
284902113805,2.23462,0.0833474,1.59172
284902136961,2.23423,0.0833513,1.5917
284902158058,2.23326,0.0822832,1.59167
284902173821,2.23177,0.0810995,1.59193
284902197010,2.2307,0.0806375,1.5924
284902218058,2.22923,0.0803868,1.59224
284902233836,2.22692,0.0795276,1.59154
284902264464,2.22369,0.0785583,1.59073
284902278071,2.22028,0.0776273,1.59
284902293867,2.21665,0.0769692,1.58927
284902317057,2.2122,0.07635,1.58869
284902338063,2.20706,0.0756263,1.58856
284902353834,2.20106,0.0749551,1.58943
284902377058,2.19416,0.0746879,1.59094
284902398092,2.18615,0.074145,1.59299
284902413860,2.17703,0.0734903,1.59553
284902436356,2.16662,0.0726497,1.59826
284902457851,2.15593,0.0716289,1.60154
284902473844,2.14419,0.0710574,1.60607
284902496344,2.13112,0.0710761,1.6107
284902518059,2.11653,0.0714059,1.61411
284902533799,2.10362,0.0709491,1.61571
284902556354,2.09166,0.0695768,1.61692
284902578057,2.08012,0.0683802,1.61893
284902593831,2.06737,0.067345,1.62234
284902616355,2.05378,0.0661739,1.62608
284902647026,2.04054,0.0638366,1.63062
284902660589,2.02756,0.0610412,1.63717
284902676290,2.01352,0.0580477,1.64625
284902699528,1.99819,0.0560965,1.65786
284902727841,1.98384,0.055744,1.67139
284902737800,1.9696,0.0573875,1.68597
284902759456,1.95494,0.0592127,1.70183
284902780551,1.93938,0.0620112,1.72073
284902796341,1.92271,0.0663356,1.74395
284902819437,1.91195,0.0747548,1.77181
284902840566,1.90384,0.0894932,1.80309
284902856359,1.89249,0.114457,1.84067
284902879480,1.87629,0.146344,1.88678
284902902018,1.86127,0.183589,1.93863
284902932055,1.85382,0.223469,1.99055
284902947020,1.84734,0.267279,2.04004
284902960523,1.83801,0.317733,2.08717
284902983059,1.82741,0.374569,2.13109
284902999533,1.81753,0.435477,2.16762
284903020359,1.80523,0.498675,2.1929
284903036329,1.78488,0.564335,2.20622
284903059518,1.75723,0.634118,2.20999
284903096888,1.72178,0.707925,2.20249
284903099283,1.67318,0.782462,2.17729
284903119489,1.60331,0.855953,2.1286
284903140610,1.50768,0.925986,2.05274
284903156378,1.38011,0.988251,1.94909
284903179502,1.21569,1.03821,1.81542
284903200578,1.01902,1.07266,1.64872
284903216334,0.809696,1.08678,1.46249
284903247057,0.602291,1.07999,1.27995
284903268041,0.40473,1.05855,1.11397
284903276316,0.224633,1.02396,0.96565
284903299500,0.0659072,0.97744,0.839044
284903320536,-0.0726941,0.923551,0.739699
284903336414,-0.191058,0.865728,0.663194
284903358889,-0.286608,0.806072,0.605131
284903380587,-0.367209,0.744337,0.563565
284903396379,-0.444513,0.680344,0.533533
284903418802,-0.515204,0.615128,0.510324
284903440591,-0.573081,0.551961,0.491817
284903456344,-0.621953,0.489389,0.477615
284903478810,-0.665879,0.424039,0.470332
284903500606,-0.705532,0.35745,0.470023
284903516378,-0.742909,0.291741,0.473228
284903538845,-0.775723,0.231875,0.473439
284903562061,-0.799143,0.178429,0.47292
284903576372,-0.814668,0.12987,0.475228
284903598831,-0.828227,0.0825863,0.48294
284903622051,-0.842994,0.0362246,0.495197
284903636332,-0.85661,-0.00696383,0.508532
284903658871,-0.864009,-0.0461582,0.52124
284903682056,-0.863014,-0.0818017,0.53289
284903703017,-0.861695,-0.117624,0.545229
284903718797,-0.859948,-0.152435,0.559453
284903742052,-0.861111,-0.181967,0.574931
284903763017,-0.867794,-0.206087,0.589966
284903778815,-0.876009,-0.2261,0.603095
284903809310,-0.880078,-0.243253,0.614657
284903823054,-0.878426,-0.25875,0.625479
284903838831,-0.87432,-0.273485,0.635788
284903862019,-0.868086,-0.286064,0.64674
284903883132,-0.859107,-0.295676,0.658978
284903898885,-0.846283,-0.300255,0.671269
284903922040,-0.83068,-0.301499,0.68327
284903943111,-0.820557,-0.302578,0.694578
284903958865,-0.818281,-0.305031,0.704854
284903982055,-0.817237,-0.307943,0.712931
284904003059,-0.814101,-0.310619,0.718986
284904018858,-0.810207,-0.312074,0.723374
284904042060,-0.806996,-0.312245,0.72722
284904063090,-0.804845,-0.311955,0.730618
284904078848,-0.805535,-0.311791,0.734402
284904102014,-0.809784,-0.31265,0.738672
284904123072,-0.814234,-0.313163,0.743138
284904139460,-0.819249,-0.31285,0.747824
284904162142,-0.823772,-0.311856,0.751894
284904183089,-0.82675,-0.3105,0.755157
284904198886,-0.828315,-0.308912,0.75743
284904222027,-0.829059,-0.307725,0.75921
284904234950,-0.829343,-0.306855,0.760008
284904258094,-0.829799,-0.305919,0.760546
284904272450,-0.829413,-0.305135,0.760464
284904294974,-0.828774,-0.304353,0.760018
284904318064,-0.828659,-0.304102,0.759577
284904332451,-0.828857,-0.304153,0.75924
284904354946,-0.829601,-0.304539,0.759243
284904378036,-0.829709,-0.304468,0.759243
284904392416,-0.829937,-0.30382,0.75999
284904414899,-0.829915,-0.3035,0.760816
284904438127,-0.829627,-0.303327,0.761489
284904452451,-0.829395,-0.303382,0.762007
284904483739,-0.829184,-0.303307,0.761903
284904498099,-0.82863,-0.303114,0.761773
284904512470,-0.828048,-0.302728,0.761823
284904534921,-0.827858,-0.302537,0.761952
284904558145,-0.828054,-0.302601,0.762471
284904572461,-0.828638,-0.302626,0.763377
284904594953,-0.82936,-0.30269,0.764207
284904618164,-0.829924,-0.302831,0.764881
284904632487,-0.830283,-0.3026,0.76545
284904654963,-0.830847,-0.302741,0.766125
284904678094,-0.831247,-0.302556,0.766305
284904692462,-0.831353,-0.301787,0.765962
284904714913,-0.831703,-0.300537,0.765746
284904738083,-0.833007,-0.299463,0.766489
284904752497,-0.836755,-0.297811,0.768156
284904774973,-0.841167,-0.293398,0.77052
284904798556,-0.843119,-0.286305,0.77304
284904813915,-0.842681,-0.276402,0.775696
284904834942,-0.842872,-0.264017,0.779487
284904858104,-0.843029,-0.249702,0.785634
284904872477,-0.84532,-0.23226,0.794798
284904894938,-0.847949,-0.211956,0.806449
284904918133,-0.84952,-0.189095,0.819952
284904932441,-0.850648,-0.164659,0.835033
284904963799,-0.85153,-0.138585,0.852217
284904978144,-0.851021,-0.111212,0.870709
284904992433,-0.847987,-0.0822323,0.890353
284905014891,-0.841816,-0.0518778,0.910506
284905038044,-0.833991,-0.0207455,0.930807
284905052451,-0.825174,0.0103204,0.951153
284905074978,-0.817365,0.0404505,0.971291
284905106164,-0.810599,0.0698241,0.992216
284905112440,-0.802579,0.0990247,1.01335
284905160088,-0.794758,0.126811,1.03408
284905162490,-0.786145,0.152261,1.05427
284905172411,-0.776355,0.175683,1.07362
284905194922,-0.767475,0.196542,1.09195
284905218137,-0.758106,0.213551,1.11029
284905232457,-0.748177,0.228756,1.12946
284905256323,-0.739353,0.241972,1.14673
284905278071,-0.732159,0.251789,1.16203
284905292472,-0.720007,0.260088,1.1759
284905314855,-0.708949,0.268249,1.18738
284905346119,-0.704633,0.274179,1.19586
284905360639,-0.702321,0.277578,1.2037
284905374985,-0.699261,0.279523,1.21123
284905397840,-0.697505,0.280308,1.21761
284905412472,-0.697255,0.280151,1.22176
284905434957,-0.696091,0.279071,1.22541
284905457374,-0.698191,0.278217,1.22839
284905472467,-0.699108,0.277947,1.2304
284905494883,-0.69795,0.278827,1.2312
284905517500,-0.698051,0.278837,1.2307
284905532448,-0.699434,0.276723,1.23029
284905554972,-0.702686,0.273313,1.2298
284905577464,-0.705177,0.269347,1.22941
284905592531,-0.708209,0.266477,1.22878
284905614998,-0.709319,0.265397,1.22775
284905637503,-0.707526,0.265718,1.22607
284905652361,-0.707448,0.266107,1.22363
284905674987,-0.707866,0.266773,1.22133
284905697482,-0.708574,0.267423,1.21991
284905712466,-0.708924,0.268223,1.21906
284905734920,-0.708984,0.269083,1.21883
284905757427,-0.708827,0.26937,1.21906
284905772439,-0.708843,0.269234,1.21977
284905794984,-0.709091,0.268839,1.22091
284905817437,-0.70897,0.267857,1.22266
284905832496,-0.709191,0.266512,1.22492
284905854939,-0.708525,0.265166,1.22703
284905877396,-0.708004,0.263858,1.22884
284905892465,-0.708033,0.26257,1.23004
284905914952,-0.708084,0.261919,1.23089
284905937434,-0.708561,0.262143,1.23174
284905952468,-0.708253,0.263229,1.23254
284905974917,-0.707969,0.264259,1.23321
284905997466,-0.707684,0.265132,1.23426
284906012514,-0.706796,0.265976,1.23558
284906035010,-0.705967,0.266759,1.23724
284906057472,-0.705773,0.266509,1.23947
284906072524,-0.705365,0.265797,1.24161
284906094962,-0.704948,0.265031,1.24312
284906117455,-0.704532,0.263683,1.24428
284906132486,-0.705149,0.262128,1.24463
284906154923,-0.7065,0.261115,1.24459
284906186316,-0.707244,0.260371,1.24492
284906192438,-0.708335,0.260095,1.24532
284906214904,-0.709699,0.259207,1.24593
284906237470,-0.709513,0.258022,1.24708
284906253940,-0.710175,0.256973,1.24781
284906274961,-0.710902,0.256724,1.24815
284906297502,-0.71027,0.256468,1.24831
284906315401,-0.709601,0.25579,1.24857
284906334991,-0.710724,0.255079,1.24827
284906357440,-0.711976,0.254521,1.24844
284906373877,-0.712889,0.254011,1.24889
284906394905,-0.713394,0.253169,1.24938
284906417512,-0.713595,0.252215,1.24968
284906433976,-0.713666,0.251688,1.24986
284906454954,-0.712949,0.251045,1.24994
284906477470,-0.712508,0.250725,1.24996
284906493888,-0.712292,0.250066,1.25011
284906515042,-0.712243,0.249311,1.25066
284906537521,-0.712635,0.248876,1.25119
284906553962,-0.712828,0.248459,1.25167
284906574976,-0.713272,0.24799,1.25238
284906597553,-0.71356,0.247661,1.25285
284906613833,-0.713554,0.247264,1.25329
284906635077,-0.713172,0.24719,1.25376
284906657434,-0.71256,0.247256,1.25433
284906673939,-0.711758,0.247041,1.25477
284906695004,-0.71138,0.247165,1.25501
284906717426,-0.71138,0.247165,1.25501
284906739997,-0.71158,0.247147,1.25506
284906754987,-0.711233,0.247348,1.25493
284906777536,-0.711359,0.247422,1.25494
284906793864,-0.711359,0.247422,1.25494
284906817861,-0.711066,0.247353,1.25491
284906837410,-0.711266,0.247335,1.25496
284906853933,-0.710563,0.248038,1.2548
284906874992,-0.71069,0.248112,1.25481
284906905671,-0.709332,0.24752,1.25426
284906913973,-0.70863,0.246484,1.25464
284906935007,-0.708185,0.245131,1.25546
284906957492,-0.70873,0.244195,1.25698
284906981457,-0.709506,0.243899,1.25853
284906995022,-0.710001,0.244411,1.25964
284907017582,-0.709642,0.245546,1.25925
284907033935,-0.708803,0.245778,1.25806
284907055046,-0.707728,0.245093,1.25659
284907077465,-0.709072,0.242873,1.25525
284907093945,-0.712983,0.239909,1.25403
284907115012,-0.720287,0.235618,1.2526
284907137437,-0.728578,0.231814,1.25108
284907153937,-0.735574,0.229694,1.24888
284907184573,-0.738431,0.229805,1.24647
284907197430,-0.739347,0.23227,1.24417
284907213894,-0.739532,0.234735,1.24242
284907236402,-0.738638,0.23624,1.2413
284907257512,-0.738638,0.23624,1.2413
284907273949,-0.739415,0.235295,1.24105
284907296449,-0.739684,0.234169,1.24095
284907317505,-0.739587,0.2335,1.24064
284907333928,-0.7396,0.233591,1.24011
284907356367,-0.739554,0.234251,1.23956
284907377469,-0.739354,0.235394,1.239
284907393893,-0.739346,0.236473,1.23834
284907416441,-0.73928,0.237193,1.23793
284907437551,-0.739327,0.237745,1.23758
284907453983,-0.739112,0.238364,1.23771
284907476430,-0.73924,0.238436,1.23771
284907497608,-0.739207,0.238451,1.23769
284907513880,-0.739196,0.238406,1.23752
284907536469,-0.739196,0.238406,1.23752
284907557528,-0.739207,0.238451,1.23769
284907575434,-0.739324,0.238478,1.23753
284907596455,-0.739324,0.238478,1.23753
284907617530,-0.739452,0.23855,1.23753
284907633958,-0.739452,0.23855,1.23753
284907656426,-0.739525,0.238458,1.23757
284907677507,-0.739942,0.238748,1.23722
284907699959,-0.739932,0.238703,1.23705
284907716456,-0.74006,0.238775,1.23706
284907737487,-0.740027,0.23879,1.23703
284907753923,-0.739954,0.238881,1.23699
284907776405,-0.739964,0.238926,1.23716
284907797503,-0.740082,0.238953,1.237
284907815357,-0.740082,0.238953,1.237
284907836424,-0.74021,0.239025,1.237
284907857520,-0.74021,0.239025,1.237
284907873079,-0.74021,0.239025,1.237
284907895656,-0.740115,0.239176,1.2371
284907918204,-0.740305,0.239111,1.23698
284907933219,-0.740305,0.239111,1.23698
284907955756,-0.740305,0.239111,1.23698
284907978137,-0.740433,0.239183,1.23699
284908000672,-0.740433,0.239183,1.23699
284908017016,-0.740059,0.239013,1.23714
284908038082,-0.739573,0.23916,1.2377
284908053069,-0.739159,0.239303,1.23792
284908075591,-0.739159,0.239303,1.23792
284908098120,-0.739287,0.239375,1.23792
284908113118,-0.739287,0.239375,1.23792
284908135567,-0.739382,0.239462,1.2379
284908158145,-0.739382,0.239462,1.2379
284908173058,-0.739382,0.239462,1.2379
284908195652,-0.739382,0.239462,1.2379
284908218154,-0.739214,0.239467,1.23788
284908233154,-0.738918,0.2394,1.23785
284908255685,-0.738717,0.23942,1.2378
284908278104,-0.738845,0.239492,1.23781
284908294542,-0.738637,0.239811,1.23785
284908315622,-0.738637,0.239811,1.23785
284908338081,-0.738732,0.239898,1.23783
284908354522,-0.738732,0.239898,1.23783
284908375654,-0.738805,0.239806,1.23787
284908405609,-0.738805,0.239806,1.23787
284908414553,-0.738805,0.239806,1.23787
284908435607,-0.738794,0.239761,1.2377
284908458120,-0.738794,0.239761,1.2377
284908474349,-0.738922,0.239833,1.23771
284908495613,-0.738922,0.239833,1.23771
284908518079,-0.738922,0.239833,1.23771
284908534560,-0.738922,0.239833,1.23771
284908555658,-0.73905,0.239905,1.23771
284908578119,-0.73905,0.239905,1.23771
284908594595,-0.73905,0.239905,1.23771
284908615649,-0.739123,0.239814,1.23776
284908638121,-0.739123,0.239814,1.23776
284908654522,-0.739218,0.2399,1.23774
284908675644,-0.739218,0.2399,1.23774
284908698163,-0.739218,0.2399,1.23774
284908714599,-0.738962,0.239519,1.23765
284908735600,-0.739091,0.239591,1.23765
284908758148,-0.739091,0.239591,1.23765
284908774516,-0.738666,0.239452,1.23762
284908795668,-0.738666,0.239452,1.23762
284908818173,-0.738739,0.23936,1.23766
284908834613,-0.738868,0.239432,1.23766
284908855604,-0.738868,0.239432,1.23766
284908878104,-0.738962,0.239519,1.23765
284908894575,-0.738962,0.239519,1.23765
284908915673,-0.738962,0.239519,1.23765
284908938141,-0.738962,0.239519,1.23765
284908962063,-0.738962,0.239519,1.23765
284908975660,-0.739091,0.239591,1.23765
284908998078,-0.738827,0.239747,1.23773
284909014544,-0.738436,0.239831,1.2378
284909035670,-0.738436,0.239831,1.2378
284909058165,-0.738564,0.239903,1.2378
284909074012,-0.738637,0.239811,1.23785
284909103142,-0.738637,0.239811,1.23785
284909118146,-0.738637,0.239811,1.23785
284909133968,-0.738637,0.239811,1.23785
284909155648,-0.738732,0.239898,1.23783
284909178153,-0.738732,0.239898,1.23783
284909193962,-0.738732,0.239898,1.23783
284909215626,-0.738805,0.239806,1.23787
284909238122,-0.738805,0.239806,1.23787
284909253980,-0.738732,0.239898,1.23783
284909277047,-0.738732,0.239898,1.23783
284909298172,-0.738732,0.239898,1.23783
284909314001,-0.738112,0.239737,1.23744
284909337079,-0.73745,0.240237,1.23651
284909358131,-0.735147,0.240956,1.23459
284909373980,-0.730816,0.243489,1.22963
284909404592,-0.729589,0.246835,1.2211
284909418132,-0.728203,0.252262,1.21029
284909433968,-0.722298,0.26107,1.1961
284909457096,-0.716553,0.272473,1.17886
284909478159,-0.713322,0.284864,1.15986
284909493984,-0.708135,0.29516,1.13836
284909517523,-0.702779,0.302411,1.11281
284909537913,-0.702432,0.307184,1.08192
284909553998,-0.704586,0.310425,1.04681
284909584621,-0.704129,0.311804,1.00983
284909598176,-0.703315,0.308332,0.972523
284909613976,-0.7089,0.297388,0.935868
284909644663,-0.71925,0.283232,0.901995
284909658155,-0.724598,0.271656,0.869289
284909673975,-0.724993,0.26018,0.839075
284909697063,-0.727471,0.245672,0.811267
284909718091,-0.732108,0.229327,0.786552
284909733982,-0.738442,0.212676,0.764693
284909757131,-0.746809,0.19652,0.74436
284909778181,-0.753989,0.181129,0.725003
284909794009,-0.758648,0.166974,0.705569
284909817081,-0.760887,0.154271,0.687893
284909838146,-0.763325,0.141915,0.672525
284909853977,-0.771339,0.129155,0.658283
284909877137,-0.780558,0.118255,0.645668
284909898171,-0.784766,0.110133,0.635184
284909914002,-0.785572,0.103305,0.626346
284909937122,-0.78791,0.09715,0.618787
284909958156,-0.789849,0.0919789,0.61195
284909973969,-0.79034,0.087075,0.605607
284909996462,-0.791149,0.0820361,0.599372
284910018178,-0.791786,0.0757027,0.595053
284910034371,-0.791884,0.0685901,0.59184
284910056468,-0.794269,0.0614485,0.589162
284910085693,-0.794667,0.0554206,0.586682
284910093975,-0.791895,0.0512202,0.585376
284910116459,-0.788486,0.0491148,0.585471
284910138177,-0.786052,0.048101,0.587168
284910153997,-0.78374,0.0470033,0.589871
284910176444,-0.780476,0.0462525,0.592206
284910200062,-0.776105,0.0455816,0.593805
284910213980,-0.774665,0.0454731,0.595381
284910236477,-0.77222,0.045875,0.597168
284910259624,-0.768331,0.0459102,0.598546
284910273979,-0.765307,0.0464455,0.59886
284910296422,-0.762735,0.0476152,0.598694
284910319574,-0.760737,0.0487289,0.59861
284910334023,-0.759798,0.0492172,0.598884
284910356424,-0.75849,0.0495377,0.599309
284910379624,-0.759458,0.0494587,0.600408
284910393972,-0.758316,0.0496221,0.602016
284910416458,-0.755874,0.0502858,0.604291
284910439603,-0.753327,0.0509875,0.607345
284910453982,-0.750095,0.0511454,0.611386
284910476464,-0.747523,0.0510223,0.615604
284910499738,-0.746222,0.0510086,0.619329
284910513980,-0.744718,0.0511704,0.622457
284910536437,-0.743162,0.0510259,0.62468
284910559617,-0.741826,0.0511126,0.626726
284910573966,-0.742609,0.051707,0.628228
284910596469,-0.742522,0.051789,0.628888
284910619575,-0.740445,0.0517191,0.628445
284910634042,-0.740638,0.0526907,0.626826
284910656533,-0.741418,0.0538384,0.62565
284910679640,-0.741805,0.0547318,0.62548
284910700678,-0.741516,0.0556283,0.62526
284910716481,-0.740293,0.0564928,0.624238
284910739666,-0.739154,0.0568261,0.623328
284910760706,-0.73909,0.0565808,0.622022
284910776561,-0.741279,0.0562824,0.620831
284910799675,-0.742655,0.0561766,0.620451
284910820774,-0.742386,0.0567457,0.620772
284910836442,-0.742336,0.0574509,0.621182
284910867184,-0.742603,0.0581201,0.621656
284910880710,-0.74309,0.0580542,0.622403
284910896522,-0.743458,0.0571249,0.623207
284910919748,-0.743428,0.0556739,0.623771
284910940737,-0.743912,0.0546515,0.624196
284910956492,-0.744826,0.0540977,0.624514
284910979068,-0.745154,0.0540082,0.624976
284911000765,-0.745095,0.0543539,0.625271
284911017072,-0.745209,0.054628,0.62587
284911039078,-0.746024,0.0548456,0.62642
284911060671,-0.745679,0.0557169,0.627153
284911076516,-0.745702,0.0563477,0.628018
284911099075,-0.7455,0.056384,0.628947
284911122169,-0.74468,0.0562596,0.630022
284911136554,-0.742703,0.0561444,0.630696
284911159115,-0.742597,0.0560972,0.630717
284911182148,-0.74267,0.0562955,0.630779
284911196487,-0.74267,0.0562955,0.630779
284911219001,-0.742562,0.0565221,0.630406
284911242103,-0.743326,0.056579,0.629907
284911256473,-0.74422,0.0568124,0.629779
284911278965,-0.744326,0.0568595,0.629758
284911302115,-0.744326,0.0568595,0.629758
284911316533,-0.74368,0.0573506,0.630213
284911339010,-0.742548,0.0575336,0.630582
284911362100,-0.741961,0.0576789,0.630743
284911376576,-0.741334,0.0579321,0.630857
284911399015,-0.740557,0.0587029,0.631042
284911422108,-0.739894,0.0595639,0.631338
284911436528,-0.739125,0.0603776,0.631656
284911459513,-0.738625,0.0610809,0.631748
284911482112,-0.738625,0.0610809,0.631748
284911495639,-0.739454,0.0612026,0.632065
284911518189,-0.739404,0.0614501,0.632379
284911534011,-0.739404,0.0614501,0.632379
284911555663,-0.739404,0.0614501,0.632379
284911578865,-0.740429,0.0614467,0.632899
284911592614,-0.743148,0.0618555,0.633956
284911615778,-0.747521,0.0618396,0.637446
284911638144,-0.754793,0.062811,0.643648
284911652521,-0.763349,0.067042,0.65107
284911675122,-0.765973,0.0751882,0.658919
284911698686,-0.766805,0.0856178,0.669625
284911712558,-0.773283,0.0965621,0.68439
284911735568,-0.787018,0.110907,0.702595
284911758243,-0.7937,0.129698,0.725136
284911772495,-0.792545,0.149692,0.751783
284911795039,-0.788705,0.171597,0.782941
284911818201,-0.788337,0.193694,0.817816
284911832577,-0.787071,0.21518,0.858387
284911863865,-0.773149,0.234758,0.905348
284911878286,-0.752039,0.252596,0.953369
284911900817,-0.728701,0.268057,1.00076
284911915148,-0.704396,0.280008,1.04688
284911938284,-0.682171,0.287113,1.09132
284911952620,-0.662085,0.290879,1.13331
284911975089,-0.644386,0.290311,1.17045
284911998274,-0.629423,0.28796,1.2014
284912014019,-0.613606,0.283991,1.2266
284912035128,-0.600377,0.278173,1.2474
284912058172,-0.591146,0.270504,1.26416
284912072504,-0.585116,0.26137,1.27757
284912095072,-0.583209,0.252435,1.28769
284912118162,-0.580437,0.246746,1.29422
284912132606,-0.57598,0.243586,1.29872
284912155103,-0.57201,0.240783,1.30268
284912178267,-0.569871,0.237619,1.30677
284912192607,-0.568252,0.234349,1.31058
284912215110,-0.56536,0.232323,1.31416
284912230061,-0.558997,0.232311,1.31796
284912254065,-0.555439,0.232822,1.32096
284912275061,-0.552956,0.233736,1.3245
284912291555,-0.551616,0.23536,1.32837
284912313194,-0.549763,0.238271,1.33044
284912335040,-0.548961,0.241363,1.32976
284912350034,-0.54904,0.243187,1.32776
284912372512,-0.552546,0.243654,1.32485
284912395148,-0.556785,0.24442,1.32163
284912410091,-0.560191,0.246437,1.31942
284912432622,-0.561656,0.248529,1.31848
284912455158,-0.563168,0.250299,1.31847
284912470147,-0.564363,0.250624,1.31801
284912492570,-0.565347,0.250345,1.31734
284912515091,-0.567001,0.249592,1.31649
284912532979,-0.5693,0.248411,1.31563
284912553995,-0.572599,0.247032,1.31477
284912575025,-0.574102,0.24646,1.31388
284912589996,-0.574529,0.247165,1.31194
284912612545,-0.57445,0.248765,1.30844
284912635169,-0.574602,0.251088,1.30266
284912658300,-0.575975,0.25363,1.29382
284912672613,-0.5791,0.256175,1.28236
284912695142,-0.580776,0.260578,1.26744
284912718311,-0.584319,0.266602,1.24621
284912732643,-0.593241,0.273135,1.21743
284912763928,-0.6042,0.279523,1.18141
284912778311,-0.615351,0.284683,1.13865
284912792609,-0.636119,0.286153,1.09014
284912815171,-0.659084,0.286524,1.0397
284912846424,-0.673717,0.285477,0.989721
284912852613,-0.683446,0.279846,0.941716
284912875118,-0.697813,0.268407,0.897797
284912898349,-0.711274,0.253669,0.858941
284912912636,-0.722982,0.234675,0.826418
284912935134,-0.738045,0.215311,0.800689
284912958219,-0.75425,0.198469,0.783951
284912972676,-0.76604,0.186984,0.776187
284912995051,-0.772608,0.180812,0.774764
284913017517,-0.776311,0.179182,0.775099
284913032501,-0.780104,0.180918,0.774578
284913055034,-0.781813,0.184211,0.773034
284913071486,-0.780636,0.188773,0.770479
284913092569,-0.779151,0.193247,0.766793
284913115070,-0.777573,0.197429,0.761644
284913137670,-0.775642,0.199945,0.754914
284913152686,-0.771755,0.20006,0.746799
284913175120,-0.765606,0.197652,0.73769
284913197588,-0.760129,0.192374,0.727552
284913212608,-0.756209,0.18348,0.71827
284913235167,-0.754146,0.170607,0.710468
284913257611,-0.751589,0.155923,0.703372
284913272596,-0.745109,0.141163,0.696645
284913294994,-0.737429,0.127047,0.690269
284913317536,-0.73305,0.114717,0.68505
284913332542,-0.727906,0.104464,0.682501
284913355102,-0.717269,0.0983403,0.682561
284913377573,-0.708709,0.0940604,0.684343
284913400711,-0.710548,0.092791,0.686071
284913415073,-0.711217,0.0943424,0.686976
284913437568,-0.711154,0.0965018,0.686883
284913452576,-0.711968,0.0977399,0.686782
284913475119,-0.714169,0.0984062,0.687173
284913491620,-0.716611,0.098981,0.687292
284913512664,-0.718285,0.0986922,0.689227
284913535149,-0.713566,0.0966902,0.692889
284913551579,-0.707024,0.0938238,0.696125
284913572693,-0.704613,0.0913526,0.697058
284913595136,-0.704991,0.0900916,0.69629
284913611497,-0.706422,0.0898165,0.69414
284913632547,-0.709989,0.0908373,0.691171
284913655056,-0.714056,0.0934688,0.689057
284913677537,-0.717521,0.0958108,0.688253
284913692524,-0.720677,0.0978963,0.688034
284913715063,-0.722679,0.0983652,0.688742
284913737564,-0.724859,0.0975727,0.691322
284913752653,-0.720348,0.0964997,0.694665
284913775110,-0.713812,0.0971923,0.696084
284913791537,-0.712875,0.0992769,0.695255
284913813987,-0.71446,0.101651,0.694113
284913835078,-0.716342,0.104013,0.692744
284913851518,-0.71751,0.108195,0.690626
284913874088,-0.716366,0.110597,0.689834
284913895056,-0.719032,0.11186,0.690409
284913918996,-0.722287,0.112625,0.692096
284913934033,-0.719721,0.112631,0.695232
284913955075,-0.713168,0.11212,0.698271
284913977584,-0.709642,0.110512,0.701489
284913994094,-0.71007,0.10945,0.703991
284914015107,-0.709966,0.109693,0.705438
284914037553,-0.708633,0.109946,0.705916
284914054030,-0.709381,0.110998,0.705497
284914075115,-0.710545,0.113356,0.704323
284914091580,-0.711841,0.11507,0.703538
284914114033,-0.714036,0.115493,0.703135
284914136582,-0.715413,0.114268,0.702574
284914151509,-0.713989,0.1129,0.701549
284914174036,-0.713112,0.112417,0.700804
284914195212,-0.71341,0.112229,0.700067
284914211494,-0.714329,0.111804,0.699436
284914234044,-0.716254,0.111742,0.698512
284914255082,-0.716169,0.112874,0.697509
284914271557,-0.715925,0.114064,0.697382
284914294087,-0.715811,0.114829,0.697648
284914315175,-0.714956,0.114913,0.697961
284914331668,-0.714334,0.114367,0.698252
284914355564,-0.71497,0.114178,0.698241
284914375123,-0.715013,0.114071,0.698285
284914391565,-0.71573,0.114304,0.698093
284914414025,-0.716587,0.11536,0.697511
284914435116,-0.717523,0.116978,0.696871
284914451558,-0.718645,0.118031,0.696031
284914474082,-0.719205,0.118695,0.695413
284914495162,-0.718218,0.11894,0.694552
284914511512,-0.719176,0.118823,0.693692
284914534056,-0.719404,0.118166,0.69211
284914555101,-0.721033,0.117625,0.690628
284914571496,-0.722174,0.117797,0.689946
284914594130,-0.721312,0.118581,0.68959
284914615172,-0.720497,0.120077,0.689269
284914631600,-0.720535,0.121443,0.688502
284914654131,-0.719903,0.122373,0.687983
284914678029,-0.719807,0.122225,0.688021
284914691528,-0.720124,0.1222,0.688076
284914714106,-0.718797,0.122051,0.688576
284914735014,-0.717385,0.122616,0.689241
284914751516,-0.716139,0.123251,0.69033
284914774642,-0.715466,0.124172,0.691209
284914804745,-0.715568,0.124364,0.691308
284914811589,-0.713873,0.123043,0.690935
284914834022,-0.714316,0.11936,0.691295
284914856628,-0.715105,0.115658,0.690574
284914871600,-0.715563,0.114454,0.689493
284914894150,-0.716766,0.114229,0.689532
284914918073,-0.719074,0.11463,0.690147
284914933062,-0.720659,0.115477,0.69107
284914954140,-0.72173,0.116032,0.691092
284914976595,-0.719957,0.118624,0.690315
284914993003,-0.717222,0.121294,0.69027
