timestamp,x,y,z,w
6388344419,-0.0276489,-0.790588,0.0147705,0.611572
6388350418,-0.0369873,-0.773621,0.02948,0.631897
6388395465,-0.0443115,-0.759216,0.0431519,0.647888
6388396259,-0.0466919,-0.751282,0.0530396,0.656189
6388433953,-0.0426025,-0.74939,0.0617676,0.657837
6388438751,-0.036499,-0.754028,0.0664673,0.652466
6388453649,-0.0317993,-0.763611,0.0657959,0.641541
6388477633,-0.0263062,-0.777771,0.0631104,0.624817
6388490536,-0.0258789,-0.779785,0.0550537,0.623047
6388524766,-0.038208,-0.784546,0.0350952,0.61792
6388529419,-0.0202026,-0.801514,0.0352173,0.596619
6388551781,-0.0238037,-0.815186,0.0219727,0.578308
6388584084,-0.00140381,-0.827759,0.0458984,0.559265
6388589446,0.0119019,-0.838257,0.055603,0.542358
6388610502,0.0187988,-0.84198,0.062439,0.535583
6388642641,0.0166016,-0.846985,0.0510254,0.52887
6388649444,0.00567627,-0.853027,0.0313721,0.520935
6388670527,-0.0022583,-0.854065,0.0233154,0.519653
6388695579,-0.00250244,-0.854248,0.0262451,0.519165
6388709527,-0.000732422,-0.854797,0.031189,0.518066
6388730726,-0.00292969,-0.855957,0.0304565,0.516174
6388754528,-0.00891113,-0.85675,0.0258179,0.515015
6388776243,-0.0128174,-0.857117,0.0247192,0.514404
6388807141,-0.0134277,-0.857117,0.0271606,0.514221
6388822061,-0.0127563,-0.856873,0.0302124,0.514526
6388829493,-0.0108032,-0.856262,0.0333252,0.51532
6388858889,-0.00927734,-0.855408,0.0385132,0.516418
6388873290,-0.00738525,-0.854797,0.0463867,0.516907
6388890989,-0.00543213,-0.853882,0.053772,0.517639
6388910602,-0.00305176,-0.853394,0.0571899,0.518188
6388941301,-0.00292969,-0.853027,0.0585327,0.518555
6388949610,-0.00354004,-0.852661,0.0598755,0.518982
6388978987,-0.00463867,-0.85199,0.0604858,0.52002
6389003093,-0.00585938,-0.851746,0.0592651,0.520569
6389010973,-0.00720215,-0.852234,0.0562134,0.520142
6389032033,-0.00848389,-0.853516,0.0525513,0.518372
6389061395,-0.00878906,-0.855835,0.0498047,0.514771
6389069482,-0.00848389,-0.859375,0.0474854,0.509033
6389092045,-0.0067749,-0.863831,0.0445557,0.50177
6389114621,-0.00524902,-0.869202,0.0394897,0.492859
6389129592,-0.00482178,-0.875427,0.0335693,0.482239
6389152090,-0.00219727,-0.883423,0.026062,0.467896
6389173281,-0.00012207,-0.889038,0.0185547,0.45752
6389189540,0.00262451,-0.893982,0.00970459,0.448059
6389212024,0.00640869,-0.897827,0.000366211,0.440308
6389233235,0.0114746,-0.900818,-0.00714111,0.434082
6389249546,0.0180054,-0.903503,-0.0167236,0.427917
6389272024,0.0217285,-0.904297,-0.0310669,0.425293
6389294548,0.022583,-0.905029,-0.0469971,0.422119
6389309458,0.0232544,-0.910828,-0.0648804,0.407104
6389332065,0.0218506,-0.917053,-0.0848389,0.389099
6389355987,0.0210571,-0.922913,-0.098999,0.371582
6389385867,0.0234375,-0.928284,-0.109131,0.354858
6389392125,0.0218506,-0.931824,-0.115723,0.343384
6389413081,0.0202637,-0.934204,-0.121948,0.334656
6389429571,0.0157471,-0.935547,-0.130981,0.327698
6389452050,0.00714111,-0.931885,-0.139465,0.334961
6389473282,0.00115967,-0.927246,-0.145386,0.345154
6389489579,-0.00531006,-0.922241,-0.148193,0.357117
6389512205,-0.0111084,-0.915161,-0.143982,0.376465
6389533228,-0.0147095,-0.906738,-0.135132,0.399231
6389549565,-0.0197754,-0.895752,-0.127869,0.425354
6389572111,-0.0249634,-0.882446,-0.119446,0.454346
6389595239,-0.0308228,-0.86676,-0.110352,0.485413
6389608805,-0.0386963,-0.84845,-0.102112,0.517883
6389631369,-0.0474243,-0.828674,-0.0935669,0.549866
6389653730,-0.0551147,-0.808777,-0.0818481,0.579834
6389668867,-0.0599365,-0.790466,-0.0673828,0.605835
6389691325,-0.0635986,-0.776001,-0.0531616,0.625305
6389713958,-0.0635986,-0.766541,-0.0403442,0.637756
6389728874,-0.0500488,-0.764526,-0.0169678,0.642456
6389758966,-0.0369873,-0.767944,-0.00195312,0.639404
6389773887,-0.0452881,-0.768799,0.00506592,0.637878
6389788896,-0.0354614,-0.767395,0.0216675,0.639832
6389811438,-0.0275269,-0.767639,0.0262451,0.639771
6389833864,-0.0287476,-0.768188,0.0272217,0.639038
6389848964,-0.0328369,-0.767029,0.0311279,0.640076
6389871426,-0.0320435,-0.764465,0.0380249,0.642761
6389894008,-0.031311,-0.762146,0.0438843,0.645142
6389908945,-0.0326538,-0.760254,0.0481567,0.647034
6389931411,-0.0352173,-0.758179,0.0527954,0.648926
6389954309,-0.0354614,-0.756409,0.0592651,0.650452
6389971645,-0.0346069,-0.754456,0.0651245,0.652161
6389991249,-0.0341187,-0.752991,0.0686646,0.653564
6390013906,-0.0351562,-0.75177,0.0706787,0.654663
6390028947,-0.0368042,-0.750183,0.0736084,0.656128
6390051403,-0.0371704,-0.748901,0.0770264,0.657104
6390073769,-0.0375977,-0.747375,0.0801392,0.658508
6390096426,-0.0384521,-0.745911,0.0823975,0.65979
6390111342,-0.039856,-0.744568,0.0839844,0.661072
6390133924,-0.0411987,-0.743042,0.0853882,0.662476
6390150238,-0.0418091,-0.742004,0.0863037,0.663452
6390171260,-0.0427856,-0.741089,0.086853,0.664368
6390186974,-0.0436401,-0.740173,0.0875854,0.665222
6390210117,-0.0439453,-0.739746,0.0883179,0.665588
6390231182,-0.0441895,-0.73938,0.0887451,0.665955
6390247019,-0.0445557,-0.739136,0.0892944,0.666077
6390270176,-0.0442505,-0.738953,0.0899658,0.666199
6390291192,-0.0440063,-0.738586,0.0906982,0.666565
6390306989,-0.043396,-0.73822,0.0914917,0.666931
6390330146,-0.043396,-0.737976,0.0914917,0.667175
6390351142,-0.0440063,-0.737427,0.0917969,0.667725
6390375183,-0.0440674,-0.737244,0.09198,0.667847
6390390168,-0.0441284,-0.736816,0.0921021,0.668335
6390411200,-0.0444946,-0.736511,0.0919189,0.668701
6390426975,-0.0446167,-0.736023,0.0922852,0.669128
6390450134,-0.0446777,-0.735535,0.0923462,0.669678
6390472731,-0.0450439,-0.735046,0.0919189,0.670227
6390487036,-0.0455322,-0.73468,0.0911255,0.670715
6390510174,-0.0463257,-0.734253,0.0900269,0.671326
6390531168,-0.046814,-0.733887,0.0890503,0.671814
6390547087,-0.0472412,-0.733582,0.0884399,0.67218
6390585725,-0.0473022,-0.733215,0.0883179,0.672607
6390594133,-0.0473022,-0.732971,0.088501,0.672852
6390608340,-0.0473022,-0.732666,0.0888062,0.673096
6390630285,-0.0476074,-0.732422,0.0888672,0.67334
6390651406,-0.0477295,-0.732117,0.0889282,0.673645
6390667095,-0.0477905,-0.731812,0.0889282,0.67395
6390691701,-0.0476685,-0.731567,0.0889893,0.674255
6390712798,-0.0476685,-0.731262,0.0891113,0.674561
6390727084,-0.0477295,-0.73114,0.0891724,0.674683
6390750271,-0.0477295,-0.731018,0.0892334,0.674805
6390771468,-0.0479126,-0.730713,0.0893555,0.67511
6390787110,-0.0479126,-0.730591,0.0894165,0.675232
6390817866,-0.0479126,-0.730469,0.0894165,0.675354
6390831415,-0.0479736,-0.730408,0.0894775,0.675415
6390847078,-0.0479736,-0.730286,0.0895386,0.675537
6390870233,-0.0480347,-0.730225,0.0895996,0.675659
6390892776,-0.0480957,-0.730103,0.0896606,0.67572
6390907112,-0.0480957,-0.72998,0.0897217,0.675842
6390929630,-0.0480957,-0.729858,0.0897827,0.675964
6390951445,-0.0481567,-0.729797,0.0897827,0.676025
6390967143,-0.0481567,-0.729675,0.0898438,0.676147
6390989563,-0.0483398,-0.729248,0.0898438,0.676575
6391012680,-0.048584,-0.72876,0.0898438,0.677124
6391027136,-0.0488892,-0.728149,0.0897217,0.677795
6391049589,-0.0491943,-0.7276,0.0897217,0.678284
6391072834,-0.0493774,-0.727051,0.0896606,0.678894
6391087138,-0.0496216,-0.726562,0.0895386,0.679443
6391109551,-0.0499878,-0.726013,0.0895386,0.679993
6391132708,-0.0502319,-0.725464,0.0896606,0.680542
6391147051,-0.050293,-0.725403,0.0896606,0.680603
6391169556,-0.0505371,-0.724915,0.0897217,0.681091
6391192725,-0.0505371,-0.724854,0.0897827,0.681213
6391207068,-0.0505981,-0.724731,0.0897827,0.681274
6391229593,-0.0506592,-0.724609,0.0898438,0.681396
6391252847,-0.0506592,-0.724548,0.0899048,0.681458
6391267072,-0.0506592,-0.724487,0.0899048,0.681519
6391289587,-0.0505981,-0.724426,0.0899048,0.68158
6391312823,-0.0506592,-0.724365,0.0899658,0.681702
6391327079,-0.0506592,-0.724243,0.0899658,0.681763
6391349618,-0.0506592,-0.724182,0.0899658,0.681824
6391372848,-0.0509644,-0.723755,0.0900269,0.682251
6391387070,-0.0513916,-0.723267,0.0901489,0.682739
6391409514,-0.0514526,-0.722778,0.09021,0.683228
6391432692,-0.0517578,-0.72229,0.090271,0.683716
6391447118,-0.0518188,-0.722168,0.090271,0.683838
6391469599,-0.0518188,-0.722107,0.090332,0.683899
6391492778,-0.0518188,-0.722046,0.090332,0.68396
6391513956,-0.0518799,-0.721924,0.0904541,0.684082
6391529577,-0.0518799,-0.721619,0.0906372,0.684326
6391552746,-0.0517578,-0.721497,0.0907593,0.684448
6391573968,-0.0516968,-0.721436,0.0907593,0.68457
6391589680,-0.0516968,-0.721313,0.0908203,0.684692
6391612766,-0.0515747,-0.721191,0.0910034,0.684814
6391633804,-0.0514526,-0.720947,0.0911865,0.684998
6391649584,-0.0513916,-0.720886,0.0911255,0.68512
6391672761,-0.0513306,-0.720825,0.0911255,0.685181
6391693941,-0.0513916,-0.720764,0.0912476,0.685242
6391709549,-0.0512695,-0.720703,0.0913696,0.685303
6391732828,-0.0512085,-0.720764,0.0914307,0.685242
6391753948,-0.0510864,-0.720703,0.0915527,0.685303
6391769642,-0.0509644,-0.720703,0.0917358,0.685242
6391792861,-0.0508423,-0.720642,0.0917358,0.685303
6391813964,-0.0507812,-0.720703,0.0917969,0.685242
6391829553,-0.0507202,-0.720703,0.092041,0.685242
6391852796,-0.0506592,-0.720703,0.0921021,0.685242
6391873950,-0.0505371,-0.720703,0.09198,0.685242
6391889596,-0.0505371,-0.720703,0.09198,0.685303
6391912150,-0.0505371,-0.720642,0.092041,0.685303
6391935241,-0.050354,-0.72052,0.0922852,0.685425
6391949601,-0.050354,-0.720459,0.0922852,0.685486
6391972044,-0.050354,-0.720459,0.0922852,0.685486
6391995282,-0.050293,-0.720276,0.0925293,0.685608
6392017769,-0.050293,-0.720215,0.0925293,0.685669
6392032101,-0.0501099,-0.720093,0.0926514,0.685852
6392055243,-0.0499878,-0.720032,0.0928345,0.685913
6392069670,-0.0499268,-0.719971,0.0928345,0.685913
6392092165,-0.0499268,-0.71991,0.0928345,0.685974
6392115223,-0.0499268,-0.71991,0.0928955,0.686035
6392129605,-0.0499268,-0.719849,0.0928955,0.686096
6392152125,-0.0499268,-0.719788,0.0928955,0.686096
6392175288,-0.0499268,-0.719788,0.0928955,0.686157
6392189674,-0.0499268,-0.719727,0.0928955,0.686218
6392212172,-0.0499268,-0.719727,0.0928955,0.686218
6392235283,-0.0499268,-0.719666,0.0928955,0.686279
6392257775,-0.0499268,-0.719604,0.0928955,0.686279
6392272113,-0.0499268,-0.719604,0.0928955,0.68634
6392295270,-0.0499268,-0.719543,0.0928955,0.686401
6392309570,-0.0499268,-0.719238,0.0932007,0.686646
6392332102,-0.0499268,-0.719238,0.0931396,0.686707
6392355233,-0.0499268,-0.719177,0.0932007,0.686707
6392369604,-0.0499268,-0.719177,0.0932007,0.686768
6392392109,-0.0498657,-0.718994,0.0935059,0.68689
6392422810,-0.0498657,-0.718933,0.0935059,0.686951
6392436503,-0.0498657,-0.718933,0.0935059,0.686951
6392452169,-0.0498657,-0.718872,0.0935059,0.687012
6392475285,-0.0498047,-0.718811,0.093811,0.687073
6392496345,-0.0498047,-0.71875,0.093811,0.687134
6392512127,-0.0498047,-0.718628,0.0939941,0.687195
6392535216,-0.0500488,-0.718506,0.0942993,0.687317
6392556409,-0.0499878,-0.718323,0.0946045,0.687439
6392572174,-0.0499878,-0.718262,0.0950317,0.687439
6392595275,-0.0498657,-0.71814,0.095459,0.6875
6392616181,-0.0498047,-0.718018,0.0958252,0.687561
6392632205,-0.0500488,-0.717896,0.0958862,0.687683
6392655338,-0.050293,-0.717712,0.0961304,0.687866
6392676436,-0.050354,-0.717468,0.0964355,0.688049
6392692122,-0.050293,-0.717346,0.0966797,0.68811
6392715327,-0.050293,-0.717224,0.0969849,0.688232
6392736928,-0.050354,-0.717102,0.09729,0.688293
6392752106,-0.050293,-0.71698,0.0975342,0.688416
6392775257,-0.050293,-0.716797,0.0978394,0.688538
6392796247,-0.050354,-0.716614,0.0982056,0.68866
6392812052,-0.0502319,-0.716553,0.0985718,0.688721
6392834539,-0.0500488,-0.716431,0.098938,0.688782
6392856267,-0.0500488,-0.716309,0.0992432,0.688843
6392872035,-0.0499878,-0.716309,0.0995483,0.688843
6392894565,-0.0498047,-0.716309,0.0997925,0.688782
6392917726,-0.0497437,-0.716309,0.0999756,0.688782
6392932069,-0.0497437,-0.716309,0.0999756,0.688782
6392954545,-0.0497437,-0.716248,0.100037,0.688843
6392985169,-0.0497437,-0.716248,0.100281,0.688843
6392992072,-0.0496826,-0.716187,0.100586,0.688843
6393014547,-0.0496826,-0.716125,0.100586,0.688904
6393037744,-0.0496216,-0.716064,0.100891,0.688904
6393052066,-0.0495605,-0.715942,0.101196,0.689026
6393074566,-0.0495605,-0.715942,0.101196,0.689026
6393097723,-0.0494385,-0.715881,0.10144,0.689026
6393112078,-0.0492554,-0.715942,0.101685,0.688965
6393134524,-0.0491333,-0.715942,0.10199,0.688904
6393157745,-0.0491333,-0.715942,0.10199,0.688904
6393172080,-0.0491333,-0.715942,0.10199,0.688904
6393194705,-0.0491333,-0.715881,0.10199,0.688965
6393208209,-0.0491333,-0.715881,0.10199,0.688965
6393239508,-0.0491333,-0.715881,0.10199,0.689026
6393245703,-0.0491333,-0.71582,0.10199,0.689026
6393268381,-0.0491333,-0.71582,0.10199,0.689026
6393309891,-0.0491333,-0.71582,0.10199,0.689087
6393315343,-0.0491333,-0.715759,0.10199,0.689087
6393328186,-0.0491333,-0.715759,0.10199,0.689087
6393362356,-0.0491333,-0.715759,0.102051,0.689148
6393367140,-0.0491333,-0.715698,0.102051,0.689148
6393413454,-0.0491333,-0.715698,0.102051,0.689209
6393415731,-0.0491333,-0.715637,0.102051,0.689209
6393425685,-0.0491333,-0.715637,0.102051,0.68927
6393448402,-0.0491333,-0.715576,0.102051,0.68927
6393472797,-0.0491333,-0.715576,0.102051,0.68927
6393485841,-0.0493164,-0.715576,0.102051,0.68927
6393508220,-0.0493164,-0.715576,0.102051,0.68927
6393531413,-0.0495605,-0.715576,0.10199,0.68927
6393545679,-0.0498047,-0.715576,0.101929,0.689209
6393568117,-0.0500488,-0.715637,0.101868,0.689148
6393591559,-0.050354,-0.715637,0.101807,0.689148
6393605809,-0.0507202,-0.715515,0.101807,0.68927
6393628309,-0.0512695,-0.715393,0.101746,0.689392
6393651331,-0.0516357,-0.71521,0.101746,0.689514
6393665806,-0.0522461,-0.715027,0.101562,0.689697
6393691078,-0.0527954,-0.714722,0.10144,0.690002
6393711471,-0.0531616,-0.714539,0.10083,0.690247
6393727182,-0.0540771,-0.714294,0.100525,0.690491
6393748342,-0.0549316,-0.713867,0.100525,0.690857
6393771534,-0.0556641,-0.713562,0.100464,0.691162
6393785754,-0.0567017,-0.713074,0.100342,0.691589
6393808292,-0.0576172,-0.712646,0.100098,0.691956
6393830834,-0.0586548,-0.712158,0.0997925,0.692383
6393845851,-0.0598145,-0.711609,0.0996094,0.692871
6393868231,-0.0604248,-0.711121,0.0996094,0.693359
6393890862,-0.0613403,-0.710571,0.0995483,0.693848
6393905842,-0.0620728,-0.710022,0.0997925,0.694275
6393928289,-0.0628662,-0.70929,0.0998535,0.694946
6393950822,-0.0640869,-0.708618,0.0996704,0.695557
6393965838,-0.0655518,-0.707886,0.0991211,0.696228
6393988287,-0.0668945,-0.707092,0.0986938,0.697021
6394010843,-0.0679932,-0.706421,0.0983887,0.697632
6394025790,-0.0687866,-0.705811,0.0983887,0.698181
6394048344,-0.0690918,-0.705322,0.0986938,0.698608
6394070839,-0.0692749,-0.704773,0.0991821,0.699036
6394085762,-0.0690918,-0.704468,0.0996704,0.699341
6394108233,-0.0691528,-0.704102,0.100037,0.699585
6394130691,-0.0689697,-0.703674,0.100525,0.699951
6394145712,-0.0687866,-0.703369,0.100952,0.700256
6394168330,-0.0689087,-0.702942,0.101196,0.700623
6394190783,-0.0690308,-0.702759,0.101379,0.700745
6394205783,-0.0690308,-0.702454,0.101746,0.70105
6394228278,-0.0687866,-0.702271,0.102173,0.701172
6394250796,-0.0687256,-0.702087,0.102417,0.701355
6394265871,-0.0687256,-0.701843,0.102722,0.701538
6394288343,-0.0683594,-0.701721,0.103088,0.70166
6394310683,-0.0680542,-0.701599,0.103333,0.701721
6394325849,-0.0678711,-0.701538,0.103699,0.701782
6394348248,-0.0675049,-0.701477,0.104126,0.701782
6394370707,-0.0670776,-0.701477,0.104492,0.701782
6394385780,-0.0667114,-0.701355,0.104919,0.701843
6394408226,-0.0664673,-0.701294,0.105286,0.701965
6394430836,-0.0661621,-0.701172,0.105225,0.702087
6394445650,-0.0668335,-0.700684,0.104736,0.702576
6394468323,-0.067749,-0.700195,0.104004,0.703125
6394490813,-0.0682983,-0.699585,0.103638,0.703674
6394505856,-0.0685425,-0.698975,0.103516,0.704285
6394528415,-0.0693359,-0.698425,0.102722,0.704895
6394550839,-0.071167,-0.697388,0.10144,0.705933
6394574045,-0.0748901,-0.69519,0.0976562,0.708191
6394588400,-0.0778198,-0.692932,0.0946045,0.71051
6394610776,-0.079834,-0.69165,0.0923462,0.711792
6394633962,-0.0808716,-0.69104,0.0912476,0.712463
6394648394,-0.0811157,-0.690613,0.0911255,0.712891
6394670697,-0.081543,-0.690063,0.0907593,0.713379
6394694006,-0.0822754,-0.689453,0.0901489,0.713989
6394708317,-0.0827637,-0.689026,0.0898438,0.714355
6394730718,-0.0825806,-0.688782,0.0901489,0.7146
6394747170,-0.0822754,-0.688782,0.0905762,0.714539
6394768373,-0.0820312,-0.688965,0.0916748,0.714294
6394790873,-0.0811768,-0.689026,0.0933838,0.714111
6394807172,-0.0803223,-0.689087,0.0947266,0.713989
6394828378,-0.0796509,-0.689331,0.0960693,0.713623
6394850851,-0.0787964,-0.689575,0.0973511,0.713318
6394867214,-0.0775146,-0.68988,0.0990601,0.712891
6394888318,-0.0757446,-0.690247,0.101074,0.712463
6394918965,-0.0744019,-0.690674,0.102783,0.711914
6394927158,-0.0734253,-0.690918,0.103638,0.711731
6394948357,-0.0725708,-0.691101,0.104431,0.711487
6394970858,-0.0714722,-0.691467,0.105042,0.711121
6394987233,-0.0699463,-0.691956,0.105225,0.710754
6395008219,-0.0687256,-0.692871,0.105042,0.710022
6395030779,-0.0675659,-0.693909,0.105347,0.709045
6395047146,-0.0651855,-0.695068,0.106506,0.708008
6395068404,-0.0628052,-0.696289,0.1073,0.706909
6395090790,-0.0612793,-0.697632,0.107666,0.705688
6395107167,-0.0604248,-0.699036,0.107178,0.704407
6395128334,-0.0596924,-0.700378,0.106689,0.703186
6395150829,-0.05896,-0.701843,0.106018,0.701965
6395167235,-0.0587769,-0.703186,0.105103,0.700745
6395188203,-0.059082,-0.704468,0.104431,0.699524
6395210906,-0.0593262,-0.705566,0.104553,0.698364
6395227160,-0.05896,-0.706177,0.105896,0.697571
6395248366,-0.0584717,-0.706482,0.108093,0.69696
6395270760,-0.0574341,-0.707031,0.110046,0.696228
6395287137,-0.057312,-0.707214,0.111633,0.69574
6395308271,-0.057251,-0.707092,0.113953,0.695496
6395330798,-0.0568848,-0.706909,0.11676,0.695312
6395347160,-0.0566406,-0.706909,0.119568,0.694824
6395368361,-0.0564575,-0.706909,0.122559,0.694275
6395390846,-0.055603,-0.706848,0.125793,0.693848
6395407184,-0.0554199,-0.707153,0.127441,0.693298
6395428378,-0.0552368,-0.707397,0.129211,0.692749
6395450680,-0.0552368,-0.707703,0.130493,0.6922
6395467212,-0.0549927,-0.708801,0.131653,0.690857
6395488347,-0.0542603,-0.710266,0.132751,0.689148
6395510723,-0.0528564,-0.712158,0.134399,0.686951
6395527826,-0.0512695,-0.713928,0.136292,0.684875
6395548376,-0.0499268,-0.715515,0.138184,0.682983
6395570946,-0.0495605,-0.716064,0.138855,0.682312
6395587125,-0.0498047,-0.716614,0.138977,0.681702
6395608353,-0.0490723,-0.716919,0.139526,0.681274
6395630864,-0.0490723,-0.717712,0.139221,0.680542
6395648654,-0.0490112,-0.718567,0.139465,0.679565
6395669699,-0.0485229,-0.719543,0.139893,0.678528
6395698998,-0.0473633,-0.720459,0.140381,0.67749
6395707156,-0.0466919,-0.721741,0.140137,0.676208
6395729643,-0.0460205,-0.722778,0.140686,0.675049
6395750789,-0.0443115,-0.723633,0.141479,0.674011
6395767162,-0.043335,-0.724792,0.141418,0.672913
6395789661,-0.0428467,-0.725708,0.141602,0.671875
6395810889,-0.0421753,-0.726318,0.141846,0.671265
6395827201,-0.0411987,-0.727112,0.141846,0.670471
6395849689,-0.0402832,-0.728027,0.141357,0.669617
6395870968,-0.0397339,-0.728577,0.141052,0.669067
6395887189,-0.0389404,-0.729126,0.140991,0.668579
6395909668,-0.038269,-0.729675,0.140869,0.66803
6395930793,-0.0378418,-0.730164,0.140747,0.667542
6395947204,-0.0369263,-0.730591,0.14093,0.667114
6395969697,-0.0357666,-0.73114,0.140686,0.666626
6395990826,-0.0350952,-0.731812,0.14032,0.665955
6396007178,-0.0339355,-0.732422,0.140625,0.665283
6396029697,-0.0326538,-0.732849,0.140869,0.664856
6396050805,-0.0313721,-0.733398,0.141235,0.664246
6396068616,-0.0300293,-0.733948,0.141235,0.663696
6396089700,-0.0293579,-0.734375,0.140869,0.663269
6396110717,-0.0287476,-0.734436,0.141052,0.663208
6396127203,-0.0282593,-0.734314,0.141357,0.66333
6396149720,-0.0278931,-0.734253,0.141663,0.663391
6396170839,-0.0275269,-0.73407,0.14209,0.663452
6396187233,-0.0270996,-0.733826,0.142578,0.663635
6396209769,-0.0270386,-0.733459,0.143005,0.66394
6396230883,-0.0269775,-0.733032,0.14325,0.664368
6396247198,-0.0273438,-0.732483,0.14325,0.664978
6396269725,-0.02771,-0.732239,0.14325,0.665283
6396290956,-0.0278931,-0.731873,0.143433,0.665588
6396314691,-0.0281982,-0.731628,0.143616,0.665771
6396329708,-0.0286255,-0.731445,0.143616,0.666016
6396350868,-0.0290527,-0.731201,0.143555,0.666199
6396367192,-0.0292969,-0.730835,0.143738,0.666565
6396389731,-0.0296021,-0.730652,0.143677,0.666809
6396410867,-0.0299683,-0.730469,0.143738,0.666992
6396427150,-0.0303345,-0.730347,0.143616,0.667114
6396449718,-0.0307007,-0.730164,0.143799,0.667297
6396470880,-0.0310059,-0.729858,0.143677,0.667542
6396487233,-0.0313721,-0.729675,0.14386,0.667725
6396517218,-0.0315552,-0.729309,0.143799,0.668152
6396530925,-0.0318604,-0.729004,0.14386,0.668457
6396547142,-0.0318604,-0.729004,0.14386,0.668457
6396569658,-0.0316162,-0.728882,0.14386,0.66864
6396590920,-0.0316162,-0.728882,0.143921,0.66864
6396607213,-0.0313721,-0.728882,0.143982,0.668579
6396629743,-0.0309448,-0.729004,0.143982,0.668518
6396652260,-0.0304565,-0.729004,0.144043,0.668518
6396667174,-0.0299072,-0.729187,0.144104,0.668335
6396689846,-0.0292969,-0.72937,0.144226,0.668091
6396712273,-0.0286865,-0.729492,0.144287,0.667969
6396728643,-0.0285645,-0.729492,0.144348,0.667969
6396749702,-0.0282593,-0.729614,0.144287,0.667908
6396772245,-0.0279541,-0.729797,0.144348,0.667725
6396788639,-0.0276489,-0.729919,0.144592,0.66748
6396809783,-0.0272217,-0.730042,0.144714,0.667358
6396831569,-0.0271606,-0.730286,0.144531,0.667114
6396847846,-0.0270386,-0.73053,0.144531,0.666809
6396884758,-0.0267944,-0.730652,0.144653,0.666748
6396891564,-0.0267334,-0.730652,0.144653,0.666748
6396907911,-0.0270386,-0.73053,0.144775,0.666809
6396930339,-0.0269775,-0.730347,0.144958,0.666992
6396951527,-0.0269165,-0.730225,0.145081,0.667114
6396967917,-0.0269165,-0.72998,0.145142,0.667297
6396989065,-0.0272217,-0.729736,0.145203,0.667542
6397011616,-0.0272217,-0.729736,0.145203,0.667603
6397027955,-0.0271606,-0.729736,0.145142,0.667603
6397049047,-0.0272217,-0.729736,0.145203,0.667603
6397071531,-0.0269775,-0.729675,0.145447,0.667603
6397087841,-0.0269775,-0.729675,0.145447,0.667603
6397108922,-0.0269165,-0.729736,0.145691,0.66748
6397131454,-0.0267944,-0.729614,0.145874,0.667603
6397148358,-0.0267944,-0.729614,0.145813,0.667603
6397169092,-0.0268555,-0.729492,0.145996,0.667664
6397191602,-0.0269165,-0.72937,0.14624,0.667725
6397207897,-0.0269165,-0.72937,0.14624,0.667725
6397229102,-0.0271606,-0.729248,0.146179,0.667908
6397251601,-0.0274048,-0.729126,0.146057,0.66803
6397267866,-0.0274048,-0.729126,0.146057,0.668091
6397289088,-0.0274048,-0.729065,0.146057,0.668091
6397311538,-0.0275269,-0.729126,0.145935,0.66803
6397327842,-0.0275269,-0.729126,0.145935,0.66803
6397348879,-0.0274658,-0.729126,0.145935,0.668091
6397371530,-0.0274658,-0.729126,0.145691,0.668152
6397387907,-0.0273438,-0.729248,0.145813,0.667969
6397409101,-0.0269165,-0.729492,0.145752,0.667786
6397431548,-0.0270386,-0.729614,0.145508,0.667603
6397447906,-0.0270386,-0.729614,0.145508,0.667664
6397468871,-0.0269775,-0.729614,0.145508,0.667664
6397491492,-0.0269775,-0.729614,0.145508,0.667664
6397508369,-0.0269775,-0.729614,0.145447,0.667664
6397529025,-0.0269775,-0.729614,0.145447,0.667664
6397551622,-0.0269775,-0.729553,0.145447,0.667725
6397567703,-0.0267944,-0.729492,0.14563,0.667786
6397589069,-0.0267944,-0.729492,0.14563,0.667786
6397612214,-0.0267944,-0.729492,0.14563,0.667786
6397627266,-0.0265503,-0.729492,0.145874,0.667725
6397650402,-0.0263062,-0.729492,0.146179,0.667725
6397672237,-0.026001,-0.72937,0.146362,0.667786
6397687165,-0.0257568,-0.72937,0.146545,0.667786
6397710322,-0.0255737,-0.72937,0.14679,0.667725
6397731525,-0.0252075,-0.729248,0.147156,0.667786
6397747297,-0.0251465,-0.729248,0.147156,0.667786
6397770404,-0.0251465,-0.729248,0.147095,0.667786
6397791542,-0.0251465,-0.729248,0.147095,0.667786
6397807226,-0.0249023,-0.729065,0.1474,0.667908
6397830433,-0.0246582,-0.729126,0.147644,0.667847
6397851590,-0.0245361,-0.729126,0.147888,0.667786
6397867298,-0.024353,-0.729065,0.148193,0.667786
6397890435,-0.024292,-0.728882,0.14856,0.667847
6397911435,-0.0239868,-0.728821,0.148743,0.667969
6397927181,-0.0235596,-0.728882,0.148865,0.667847
6397950341,-0.0231934,-0.729004,0.148804,0.667725
6397971321,-0.0228882,-0.729187,0.148926,0.667542
6397987311,-0.0222778,-0.729248,0.14917,0.667358
6398010455,-0.0215454,-0.729553,0.14917,0.667114
6398031601,-0.0212402,-0.729797,0.148987,0.666931
6398047246,-0.0213623,-0.729736,0.149048,0.666992
6398070392,-0.0212402,-0.729431,0.149414,0.667236
6398091426,-0.0216064,-0.729004,0.149597,0.667664
6398107136,-0.0223999,-0.728516,0.149658,0.668091
6398130330,-0.0231934,-0.727966,0.149902,0.668579
6398151631,-0.0237427,-0.727478,0.15033,0.669006
6398167195,-0.0240479,-0.72699,0.150818,0.669434
6398190328,-0.0244751,-0.726562,0.151001,0.669861
6398211517,-0.0250244,-0.726379,0.151062,0.669983
6398227187,-0.0249634,-0.726318,0.151306,0.670044
6398250431,-0.0249634,-0.726318,0.151306,0.670044
6398271646,-0.0250244,-0.72644,0.151001,0.669983
6398287308,-0.0251465,-0.726746,0.150757,0.669678
6398310349,-0.0250244,-0.727112,0.150452,0.669373
6398331605,-0.0250854,-0.727478,0.150085,0.669067
6398347221,-0.0253296,-0.727661,0.149658,0.668945
6398370332,-0.0255737,-0.727783,0.149109,0.668884
6398391466,-0.0259399,-0.727722,0.148682,0.669067
6398407246,-0.0263062,-0.727661,0.148376,0.669189
6398430409,-0.0264893,-0.727661,0.148071,0.66925
6398451640,-0.0268555,-0.727722,0.147827,0.66925
6398467235,-0.0270386,-0.727844,0.147705,0.669067
6398489731,-0.0272217,-0.727966,0.147522,0.668945
6398511568,-0.0272827,-0.728271,0.147278,0.668762
6398527231,-0.0272217,-0.728394,0.147339,0.668579
6398549830,-0.0270996,-0.728699,0.1474,0.668274
6398571584,-0.0270996,-0.72876,0.147705,0.668152
6398587255,-0.0269775,-0.728821,0.147888,0.667969
6398609767,-0.0270386,-0.728882,0.148071,0.667908
6398632927,-0.0270996,-0.728882,0.14856,0.667786
6398647187,-0.0269165,-0.728821,0.149109,0.667725
6398669769,-0.0270386,-0.728699,0.149475,0.667786
6398700435,-0.0272217,-0.728577,0.149902,0.667786
6398707240,-0.0272217,-0.728455,0.150452,0.667786
6398729796,-0.0270996,-0.728394,0.151184,0.667725
6398752985,-0.0269165,-0.728394,0.151733,0.667603
6398767195,-0.0269775,-0.728394,0.152222,0.66748
6398789764,-0.0270386,-0.728271,0.152954,0.66748
6398812970,-0.0270386,-0.728149,0.153687,0.667419
6398827232,-0.0270996,-0.727966,0.154236,0.667542
6398849886,-0.0274048,-0.727661,0.154785,0.667725
6398872964,-0.0278931,-0.727173,0.154968,0.668152
6398887266,-0.0288086,-0.726685,0.154663,0.668762
6398909711,-0.0298462,-0.725952,0.154419,0.669495
6398933347,-0.03125,-0.724976,0.153564,0.670715
6398947199,-0.0328369,-0.724182,0.152649,0.671692
6398977899,-0.0339355,-0.723572,0.152222,0.672424
6398993344,-0.034729,-0.722961,0.151978,0.673096
6399007194,-0.0355835,-0.722107,0.151611,0.674011
6399029757,-0.036377,-0.721436,0.151001,0.674805
6399052943,-0.0393066,-0.719299,0.148315,0.677551
6399074131,-0.0435791,-0.716919,0.14386,0.680725
6399089749,-0.0464478,-0.714905,0.140686,0.68335
6399118993,-0.0491333,-0.713684,0.137207,0.68512
6399134043,-0.0507202,-0.713196,0.135376,0.685913
6399149891,-0.0518799,-0.712891,0.133911,0.686401
6399180370,-0.0529175,-0.71283,0.132996,0.686584
6399193969,-0.053772,-0.712708,0.132263,0.686768
6399209748,-0.0543823,-0.712708,0.13147,0.686829
6399232875,-0.0547485,-0.712708,0.131165,0.68689
6399254520,-0.0547485,-0.712646,0.131165,0.686951
6399271182,-0.0549927,-0.712708,0.130554,0.687012
6399293572,-0.0558472,-0.712769,0.129761,0.687012
6399314089,-0.0565186,-0.712708,0.129333,0.687134
6399343965,-0.0570068,-0.71283,0.128723,0.687073
6399358938,-0.0577393,-0.712952,0.128174,0.687012
6399374096,-0.0584106,-0.712952,0.127747,0.686951
6399389836,-0.0591431,-0.712891,0.127502,0.687073
6399412900,-0.0599976,-0.712769,0.127502,0.687134
6399434004,-0.0606079,-0.712524,0.127625,0.687256
6399450381,-0.0608521,-0.712341,0.127991,0.687378
6399472245,-0.0610962,-0.712219,0.128174,0.687439
6399494066,-0.0614014,-0.712158,0.128418,0.687439
6399516604,-0.0618286,-0.712036,0.128723,0.687439
6399532225,-0.0621948,-0.711853,0.12915,0.6875
6399554162,-0.0623169,-0.711731,0.129822,0.687561
6399569822,-0.0620117,-0.711609,0.130432,0.687561
6399593704,-0.0617676,-0.711548,0.130981,0.687561
6399615376,-0.0615234,-0.711487,0.131348,0.687561
6399629719,-0.0616455,-0.711365,0.131592,0.687622
6399652224,-0.0617065,-0.711243,0.131836,0.687744
6399676498,-0.0617065,-0.711243,0.131836,0.687744
6399697866,-0.0617676,-0.711243,0.131592,0.687805
6399712192,-0.0620728,-0.711182,0.131409,0.687805
6399735341,-0.0621948,-0.711182,0.131348,0.687866
6399749737,-0.0622559,-0.711243,0.131104,0.687805
6399772179,-0.0622559,-0.711182,0.131104,0.687866
6399795323,-0.0623779,-0.711304,0.13092,0.687805
6399809726,-0.0626221,-0.711304,0.130859,0.687744
6399832192,-0.0626221,-0.711304,0.130859,0.687744
6399855390,-0.062561,-0.711304,0.130859,0.687805
6399869783,-0.062561,-0.711243,0.130859,0.687805
6399892234,-0.0626831,-0.711365,0.130737,0.687683
6399915393,-0.0625,-0.711365,0.13092,0.687683
6399929770,-0.0621948,-0.711304,0.131165,0.687744
6399952317,-0.0621948,-0.711304,0.131104,0.687744
6399975459,-0.0621948,-0.711304,0.131104,0.687744
6399989843,-0.0621338,-0.711304,0.131104,0.687744
6400012196,-0.0621338,-0.711243,0.131104,0.687805
6400035398,-0.0621338,-0.711243,0.131104,0.687805
6400049830,-0.0620117,-0.711243,0.131348,0.687805
6400072292,-0.0618896,-0.711243,0.13147,0.687744
6400095502,-0.0618896,-0.711243,0.13147,0.687744
6400109750,-0.0617065,-0.711304,0.131714,0.687683
6400132259,-0.0612183,-0.711304,0.131897,0.687683
6400155482,-0.0610962,-0.711304,0.132141,0.687622
6400176615,-0.0609131,-0.711243,0.132385,0.687683
6400192244,-0.0608521,-0.711243,0.13269,0.687622
6400215886,-0.0605469,-0.711243,0.133118,0.687561
6400236672,-0.0601196,-0.711243,0.133667,0.6875
6400252285,-0.0595703,-0.711182,0.134521,0.687439
6400276129,-0.05896,-0.71106,0.13562,0.687378
6400296436,-0.0581055,-0.710999,0.137207,0.687256
6400312235,-0.0567627,-0.71106,0.139404,0.686829
6400335415,-0.0547485,-0.711487,0.14209,0.686035
6400356629,-0.0521851,-0.71228,0.144836,0.684814
6400372289,-0.0494385,-0.713379,0.147583,0.683289
6400394743,-0.0466919,-0.7146,0.150269,0.68158
6400416648,-0.0440063,-0.715759,0.152832,0.679993
6400432268,-0.0419922,-0.716492,0.154724,0.678894
6400445845,-0.0412598,-0.716675,0.15509,0.678711
6400468423,-0.041748,-0.716125,0.15448,0.679382
6400491458,-0.0427246,-0.715637,0.153381,0.680054
6400505825,-0.0430298,-0.715332,0.153015,0.68042
6400528450,-0.0432739,-0.714966,0.15271,0.680908
6400551646,-0.0437012,-0.714539,0.152222,0.681458
6400565809,-0.045166,-0.713501,0.150269,0.682861
6400588486,-0.0463257,-0.712769,0.148987,0.683838
6400611671,-0.046936,-0.712341,0.148438,0.684387
6400626002,-0.0475464,-0.711853,0.147644,0.684998
6400648550,-0.0481567,-0.711609,0.146851,0.685364
6400671677,-0.048645,-0.711121,0.14624,0.685974
6400685970,-0.0491333,-0.710693,0.145569,0.686462
6400708347,-0.0491943,-0.710205,0.145081,0.687134
6400731656,-0.0501099,-0.7099,0.143738,0.687622
6400745843,-0.0508423,-0.709656,0.142761,0.688049
6400768459,-0.0512695,-0.70929,0.141907,0.688599
6400791696,-0.0519409,-0.709106,0.14093,0.688904
6400806001,-0.0522461,-0.708923,0.140259,0.689209
6400828466,-0.0525513,-0.708801,0.139771,0.689392
6400859841,-0.0528564,-0.708679,0.139587,0.689514
6400865834,-0.0529785,-0.708557,0.139343,0.689697
6400888346,-0.0529175,-0.708557,0.139343,0.689697
6400911668,-0.0530396,-0.708496,0.138977,0.68988
6400925948,-0.0532837,-0.708374,0.138611,0.690002
6400948385,-0.0534668,-0.708252,0.138306,0.690186
6400971515,-0.0535889,-0.708191,0.138062,0.690369
6400986021,-0.0537109,-0.708069,0.137695,0.690491
6401008474,-0.053833,-0.708069,0.13739,0.690552
6401031659,-0.053833,-0.708069,0.13739,0.690552
6401045911,-0.053772,-0.708069,0.13739,0.690613
6401068466,-0.053772,-0.708008,0.13739,0.690613
6401091479,-0.053772,-0.708008,0.13739,0.690613
6401105956,-0.0535889,-0.708008,0.137207,0.690674
6401128398,-0.0535889,-0.708008,0.137207,0.690674
6401151540,-0.0535889,-0.708008,0.137207,0.690674
6401166060,-0.0535889,-0.708008,0.137146,0.690674
6401188439,-0.0535278,-0.708008,0.137146,0.690674
6401211505,-0.0535278,-0.708008,0.137146,0.690735
6401227378,-0.0534058,-0.708008,0.136902,0.690735
6401248451,-0.0534058,-0.708008,0.136841,0.690735
6401271638,-0.0534668,-0.70813,0.136475,0.690674
6401285935,-0.0534058,-0.70813,0.136475,0.690674
6401308445,-0.0534058,-0.70813,0.136475,0.690674
6401331517,-0.0534058,-0.70813,0.136475,0.690674
6401345897,-0.0534058,-0.70813,0.136414,0.690735
6401368519,-0.0533447,-0.70813,0.136414,0.690735
6401392993,-0.0533447,-0.70813,0.136414,0.690735
6401405881,-0.0532837,-0.70813,0.136353,0.690735
6401428336,-0.0531616,-0.70813,0.136414,0.690735
6401451643,-0.0530396,-0.708252,0.136475,0.690613
6401466026,-0.0527954,-0.708435,0.136475,0.69043
6401488444,-0.0526123,-0.708557,0.136475,0.690308
6401511655,-0.0524902,-0.708679,0.13678,0.690186
6401525967,-0.052002,-0.708679,0.137268,0.690063
6401548379,-0.0513916,-0.708679,0.137878,0.690002
6401571013,-0.0506592,-0.708618,0.138794,0.689941
6401585877,-0.0499878,-0.708679,0.139526,0.689758
6401608517,-0.0493774,-0.708618,0.14032,0.689697
6401639707,-0.0489502,-0.708618,0.140869,0.689636
6401645968,-0.0488892,-0.708618,0.140869,0.689697
6401668543,-0.0488892,-0.708557,0.140869,0.689697
6401690878,-0.0488892,-0.708557,0.140869,0.689697
6401705886,-0.0490112,-0.708618,0.140625,0.689697
6401728421,-0.0491333,-0.70874,0.140259,0.689636
6401750874,-0.0491333,-0.708679,0.140259,0.689697
6401765861,-0.0491943,-0.708801,0.140076,0.689575
6401788557,-0.0491943,-0.708801,0.140015,0.689575
6401811027,-0.0491943,-0.708862,0.140015,0.689575
6401825887,-0.0491333,-0.708801,0.140015,0.689575
6401848518,-0.0489502,-0.708862,0.140076,0.689575
6401871016,-0.048645,-0.708862,0.14032,0.689514
6401886010,-0.0485229,-0.708862,0.140503,0.689514
6401908411,-0.0484619,-0.708801,0.140503,0.689575
6401930897,-0.0484619,-0.708801,0.140503,0.689575
6401945914,-0.0484619,-0.708801,0.140442,0.689575
6401968508,-0.0484619,-0.708801,0.140442,0.689575
6401991032,-0.0482178,-0.708801,0.140686,0.689514
6402005942,-0.0479736,-0.708801,0.141052,0.689514
6402028379,-0.0477295,-0.708862,0.141541,0.689331
6402050953,-0.0474854,-0.708923,0.142273,0.689148
6402065943,-0.046936,-0.709045,0.143127,0.688843
6402088315,-0.0465088,-0.708862,0.144165,0.688904
6402110944,-0.0463257,-0.708862,0.144409,0.688843
6402125946,-0.0460205,-0.708801,0.144714,0.688843
6402148474,-0.0458984,-0.708862,0.144897,0.688721
6402171005,-0.0458984,-0.708862,0.144897,0.688782
6402186068,-0.0457153,-0.708923,0.145081,0.688721
6402208475,-0.0453491,-0.709045,0.145447,0.688538
6402231052,-0.0453491,-0.709045,0.145386,0.688538
6402254011,-0.0455322,-0.708984,0.145081,0.688599
6402268448,-0.0457153,-0.708984,0.144836,0.68866
6402290995,-0.0456543,-0.708984,0.144775,0.68866
6402307290,-0.0456543,-0.708984,0.144775,0.68866
6402336644,-0.0459595,-0.708923,0.144226,0.688843
6402351027,-0.0463257,-0.708984,0.143677,0.688904
6402367410,-0.0465088,-0.708923,0.143127,0.689026
6402388306,-0.046875,-0.708984,0.142822,0.689026
6402410808,-0.046814,-0.708984,0.142822,0.689026
6402427272,-0.046814,-0.708984,0.142761,0.689026
6402448285,-0.0466919,-0.708984,0.142944,0.689026
6402470832,-0.0466919,-0.708984,0.142944,0.689026
6402487261,-0.0464478,-0.708984,0.143372,0.688965
6402508345,-0.0462036,-0.708984,0.143677,0.688843
6402530831,-0.0459595,-0.709106,0.144287,0.68866
6402547324,-0.0453491,-0.70929,0.14502,0.688354
6402584492,-0.0446167,-0.709595,0.146118,0.687866
6402593730,-0.0436401,-0.710083,0.147583,0.687134
6402607252,-0.0421143,-0.710754,0.149475,0.686096
6402628251,-0.0402222,-0.711609,0.151855,0.684814
6402650824,-0.0380859,-0.712585,0.154175,0.683411
6402667243,-0.0358887,-0.713562,0.156555,0.681885
6402688329,-0.0338745,-0.714661,0.15863,0.680359
6402710829,-0.0319824,-0.715698,0.160461,0.678955
6402727327,-0.0303345,-0.716675,0.161987,0.677673
6402748362,-0.0290527,-0.717468,0.163269,0.676575
6402770852,-0.0278931,-0.71814,0.164429,0.675598
6402787324,-0.0269165,-0.71875,0.165344,0.674805
6402808348,-0.026001,-0.719177,0.166138,0.674194
6402830840,-0.0253906,-0.719482,0.166748,0.673706
6402847247,-0.0250244,-0.719727,0.167236,0.673401
6402868370,-0.0246582,-0.719849,0.167664,0.673096
6402890822,-0.0245361,-0.71991,0.167847,0.673035
6402907274,-0.0244141,-0.719849,0.168091,0.673035
6402928324,-0.024353,-0.719666,0.168091,0.673218
6402950805,-0.0246582,-0.719482,0.167847,0.673462
6402967300,-0.0255127,-0.718933,0.167236,0.674194
6402989792,-0.0279541,-0.717285,0.164978,0.676331
6403010865,-0.0316162,-0.71521,0.161682,0.679199
6403027325,-0.0360718,-0.712219,0.157227,0.683167
6403048359,-0.0390625,-0.710754,0.153992,0.685242
6403070855,-0.0404663,-0.709839,0.152344,0.686523
6403087235,-0.0421143,-0.709106,0.15033,0.687561
6403108380,-0.0432739,-0.708679,0.149109,0.688232
6403130892,-0.0437622,-0.708374,0.148438,0.68866
6403147306,-0.0445557,-0.708008,0.147461,0.689209
6403168367,-0.0452271,-0.707825,0.14624,0.689636
6403190808,-0.0456543,-0.707703,0.145264,0.68988
6403207258,-0.0462646,-0.707703,0.144226,0.690125
6403229751,-0.0465088,-0.707581,0.143799,0.690247
6403250840,-0.046814,-0.70752,0.143372,0.690369
6403273356,-0.0470581,-0.707458,0.142944,0.690552
6403289832,-0.0471802,-0.707458,0.1427,0.690613
6403310905,-0.0471802,-0.707458,0.1427,0.690613
6403327260,-0.0473022,-0.707397,0.142578,0.690674
6403349833,-0.0473022,-0.707397,0.142517,0.690674
6403370806,-0.0474243,-0.707397,0.142334,0.690735
6403387302,-0.0473633,-0.707458,0.141968,0.690674
6403409776,-0.0473633,-0.707458,0.141968,0.690735
6403430835,-0.0473633,-0.707458,0.141968,0.690735
6403447270,-0.0473633,-0.707458,0.141968,0.690735
6403469791,-0.0473022,-0.70752,0.141541,0.690796
6403490870,-0.0473022,-0.707642,0.141235,0.690674
6403507269,-0.0473022,-0.707642,0.141235,0.690674
6403529798,-0.0472412,-0.707642,0.141235,0.690674
6403550810,-0.0473633,-0.707642,0.14093,0.690735
6403567314,-0.0473633,-0.707642,0.140869,0.690796
6403589808,-0.0472412,-0.707642,0.140991,0.690735
6403610844,-0.0471802,-0.707642,0.140991,0.690735
6403627356,-0.0471802,-0.707642,0.140991,0.690796
6403649822,-0.0471802,-0.707642,0.140991,0.690796
6403670894,-0.0471802,-0.707581,0.140991,0.690796
6403694772,-0.0471802,-0.707581,0.140991,0.690796
6403709776,-0.0471802,-0.707581,0.140991,0.690796
6403731036,-0.046936,-0.707581,0.141052,0.690796
6403747423,-0.046875,-0.707581,0.141052,0.690796
6403769845,-0.046875,-0.707581,0.141052,0.690796
6403791035,-0.046875,-0.707581,0.140991,0.690796
6403808812,-0.046875,-0.707642,0.140991,0.690796
6403829929,-0.046875,-0.707581,0.140991,0.690796
6403850975,-0.046814,-0.707642,0.140991,0.690796
6403867351,-0.046814,-0.707642,0.14093,0.690796
6403891293,-0.046814,-0.707581,0.14093,0.690796
6403910942,-0.046814,-0.707581,0.14093,0.690796
6403927309,-0.046814,-0.707581,0.14093,0.690857
6403949870,-0.0467529,-0.707581,0.14093,0.690857
6403970992,-0.0467529,-0.707581,0.14093,0.690857
6403987367,-0.0467529,-0.707581,0.14093,0.690857
6404011332,-0.0467529,-0.707581,0.140869,0.690857
6404031088,-0.0466309,-0.707581,0.141113,0.690796
6404047379,-0.0466309,-0.707581,0.141113,0.690796
6404069234,-0.0466309,-0.707581,0.141113,0.690857
6404091695,-0.0465698,-0.707581,0.141113,0.690857
6404106763,-0.0464478,-0.707642,0.141235,0.690735
6404129213,-0.0462036,-0.707642,0.141418,0.690674
6404151690,-0.0459595,-0.707764,0.141602,0.690613
6404166746,-0.0459595,-0.707764,0.141541,0.690613
6404189181,-0.0458374,-0.707825,0.141785,0.690491
6404211726,-0.0455933,-0.707886,0.14209,0.69043
6404226632,-0.0455322,-0.707886,0.142517,0.690308
6404249227,-0.045105,-0.707825,0.143311,0.690247
6404271678,-0.0444946,-0.707825,0.14447,0.690002
6404286550,-0.0435181,-0.707886,0.14624,0.689636
6404309081,-0.0421753,-0.70813,0.148376,0.689087
6404331537,-0.0404663,-0.708618,0.150696,0.68811
6404346642,-0.0385132,-0.709473,0.153137,0.686768
6404369216,-0.0363159,-0.710632,0.155701,0.68512
6404391725,-0.0337524,-0.711975,0.158203,0.683289
6404408105,-0.0313721,-0.71344,0.160522,0.681335
6404429223,-0.0289307,-0.714905,0.16272,0.679382
6404451699,-0.0267334,-0.716187,0.164551,0.677673
6404468052,-0.0248413,-0.717285,0.166199,0.676208
6404489245,-0.0233154,-0.718262,0.167603,0.674927
6404511732,-0.0219727,-0.718994,0.16864,0.673889
6404528104,-0.0209961,-0.719543,0.169495,0.673096
6404556773,-0.0202637,-0.719971,0.170105,0.672546
6404571694,-0.0197754,-0.720154,0.170471,0.672241
6404588012,-0.0194702,-0.720398,0.170715,0.671936
6404616609,-0.0192261,-0.72052,0.170959,0.671753
6404631674,-0.0189819,-0.72052,0.171143,0.671692
6404648064,-0.019043,-0.720398,0.170959,0.671875
6404669239,-0.0192871,-0.720276,0.170837,0.672058
6404691758,-0.0192871,-0.720276,0.170837,0.672058
6404708020,-0.0192871,-0.720276,0.170837,0.672058
6404729210,-0.0192871,-0.720276,0.170837,0.672058
6404751696,-0.0189819,-0.720337,0.171021,0.671936
6404768001,-0.0187378,-0.720398,0.171143,0.671814
6404789134,-0.0186157,-0.72052,0.171326,0.671631
6404811753,-0.0183716,-0.720642,0.171509,0.671509
6404827984,-0.0181885,-0.720886,0.171631,0.671204
6404864907,-0.0181274,-0.721008,0.171875,0.671082
6404871688,-0.0179443,-0.721069,0.172058,0.670898
6404888044,-0.0178223,-0.72113,0.172119,0.670776
6404916741,-0.0176392,-0.721313,0.172241,0.670593
6404931551,-0.0175171,-0.721436,0.172424,0.67041
6404948006,-0.017395,-0.721497,0.172607,0.670349
6404969237,-0.017334,-0.721497,0.172607,0.670349
6404999254,-0.017334,-0.721497,0.172546,0.670349
6405008063,-0.017334,-0.721497,0.172546,0.670349
6405029202,-0.017334,-0.721497,0.172546,0.670349
6405051710,-0.017334,-0.721497,0.172546,0.670349
6405068090,-0.0172729,-0.721497,0.172546,0.67041
6405089235,-0.0172729,-0.721436,0.172546,0.67041
6405111734,-0.0171509,-0.721497,0.172668,0.670349
6405127379,-0.0171509,-0.721497,0.172607,0.670349
6405149241,-0.0170898,-0.721497,0.172607,0.670349
6405171719,-0.0170898,-0.721436,0.172607,0.670349
6405187481,-0.0170898,-0.721497,0.172607,0.670349
6405209258,-0.0170898,-0.721497,0.172607,0.670349
6405231633,-0.0170898,-0.721497,0.172546,0.670349
6405247397,-0.0170898,-0.721436,0.172546,0.67041
6405269061,-0.0170288,-0.721497,0.172546,0.67041
6405291791,-0.0170288,-0.721436,0.172546,0.67041
6405307428,-0.0170288,-0.721436,0.172546,0.67041
6405330509,-0.0170288,-0.721436,0.172485,0.67041
6405351567,-0.0170288,-0.721436,0.172485,0.67041
6405367403,-0.0169678,-0.721436,0.172485,0.67041
6405390591,-0.0169678,-0.721436,0.172485,0.67041
6405411707,-0.0169678,-0.721436,0.172485,0.670471
6405427422,-0.0167847,-0.721497,0.172546,0.670349
6405450598,-0.0167847,-0.721497,0.172546,0.670349
6405471730,-0.0167236,-0.721497,0.172546,0.670349
6405487374,-0.0167236,-0.721497,0.172546,0.670349
6405510607,-0.0164795,-0.721497,0.172668,0.670349
6405533058,-0.0164795,-0.721497,0.172668,0.670349
6405547381,-0.0164795,-0.721497,0.172668,0.670349
6405570574,-0.0164795,-0.721497,0.172668,0.670349
6405591705,-0.0162964,-0.721619,0.172424,0.670227
6405614284,-0.0160522,-0.721802,0.172241,0.670105
6405630599,-0.015564,-0.721985,0.17218,0.669983
6405651718,-0.0150146,-0.722229,0.171997,0.669739
6405667430,-0.0147095,-0.722351,0.171936,0.669617
6405690535,-0.013916,-0.722534,0.172058,0.669434
6405711578,-0.0133057,-0.722717,0.171814,0.669312
6405727443,-0.0130615,-0.7229,0.171448,0.669189
6405750603,-0.0126953,-0.722961,0.171021,0.66925
6405771716,-0.0126343,-0.723206,0.170105,0.669189
6405787410,-0.0126343,-0.723389,0.169495,0.669189
6405810523,-0.0124512,-0.723633,0.168945,0.669067
6405831692,-0.012085,-0.723816,0.168396,0.669006
6405847448,-0.012085,-0.723999,0.167419,0.669067
6405870540,-0.012207,-0.724182,0.166748,0.669006
6405891750,-0.0118408,-0.724365,0.166443,0.668884
6405907338,-0.0113525,-0.724487,0.166199,0.668884
6405930531,-0.0109253,-0.724609,0.165649,0.668884
6405951711,-0.0102539,-0.724854,0.165344,0.668701
6405967389,-0.00939941,-0.725037,0.1651,0.668579
6405990507,-0.00817871,-0.725098,0.164917,0.668518
6406011821,-0.00726318,-0.725281,0.164734,0.668396
6406027442,-0.00610352,-0.725464,0.164673,0.668213
6406056693,-0.00463867,-0.725647,0.16449,0.668091
6406071767,-0.00354004,-0.726013,0.163818,0.667908
6406087402,-0.00262451,-0.726379,0.163147,0.667664
6406109916,-0.00134277,-0.726624,0.162659,0.66748
6406131825,0,-0.727051,0.161987,0.667175
6406147402,0.000915527,-0.727478,0.161316,0.66687
6406169985,0.00213623,-0.727661,0.161072,0.666748
6406191762,0.00390625,-0.727844,0.160889,0.666565
6406207373,0.00537109,-0.728149,0.160583,0.666321
6406229904,0.00708008,-0.728516,0.160461,0.665894
6406251670,0.00854492,-0.728638,0.160095,0.665894
6406267384,0.00933838,-0.728699,0.159546,0.665894
6406289947,0.00994873,-0.728577,0.15918,0.666138
6406313022,0.0103149,-0.728149,0.158752,0.666687
6406327477,0.0103149,-0.727661,0.157959,0.667419
6406349908,0.00976562,-0.727051,0.15741,0.668213
6406373078,0.00915527,-0.726196,0.157104,0.66925
6406387386,0.00817871,-0.72522,0.156433,0.670471
6406409903,0.00714111,-0.724548,0.155579,0.671387
6406433075,0.0057373,-0.723694,0.154663,0.672546
6406447882,0.00445557,-0.723083,0.153687,0.673462
6406469957,0.00311279,-0.722656,0.152283,0.674255
6406493130,0.00140381,-0.722473,0.150635,0.674805
6406507457,-0.000305176,-0.722107,0.149475,0.675415
6406529808,-0.00170898,-0.721924,0.14856,0.675842
6406553155,-0.00299072,-0.721863,0.147583,0.676086
6406567461,-0.0043335,-0.72168,0.146667,0.676514
6406589997,-0.00579834,-0.721619,0.145569,0.676758
6406613086,-0.00744629,-0.721619,0.144287,0.677063
6406627420,-0.00933838,-0.721375,0.143127,0.677551
6406649913,-0.0115356,-0.72113,0.141846,0.67804
6406673089,-0.013855,-0.720642,0.140381,0.678772
6406694262,-0.0164795,-0.720093,0.138245,0.679749
6406709973,-0.0199585,-0.719299,0.135803,0.680969
6406733088,-0.0235596,-0.718445,0.13324,0.682251
6406754272,-0.0269165,-0.717529,0.130554,0.683655
6406769878,-0.0305786,-0.716431,0.127136,0.685242
6406800627,-0.0356445,-0.714966,0.122925,0.687378
6406814267,-0.0421143,-0.713013,0.117004,0.690002
6406829931,-0.0484619,-0.710876,0.111389,0.692749
6406852811,-0.0549316,-0.708557,0.105469,0.695557
6406874208,-0.0614014,-0.706482,0.0991821,0.698059
6406889981,-0.0696411,-0.703613,0.0919189,0.701172
6406913087,-0.0777588,-0.7005,0.0843506,0.704346
6406942187,-0.0875244,-0.697083,0.0756226,0.707642
6406951349,-0.0960693,-0.694519,0.0678101,0.709839
6406973063,-0.102661,-0.692261,0.0614624,0.71167
6406995591,-0.109314,-0.690247,0.0551147,0.713135
6407009951,-0.115906,-0.688293,0.0488281,0.714478
6407032358,-0.122253,-0.685974,0.043335,0.716003
6407054240,-0.128113,-0.683838,0.0388794,0.717285
6407069922,-0.132263,-0.681946,0.0353394,0.718506
6407092411,-0.135681,-0.67981,0.0322876,0.720032
6407114295,-0.138367,-0.677734,0.0293579,0.721558
6407129909,-0.140442,-0.67572,0.0263672,0.723145
6407152419,-0.141785,-0.673584,0.0241699,0.724976
6407174263,-0.142273,-0.671509,0.0223389,0.726868
6407189991,-0.143433,-0.669678,0.0200195,0.728394
6407212445,-0.146057,-0.666992,0.0170898,0.730408
6407235600,-0.148682,-0.664612,0.0145874,0.732117
6407249937,-0.151001,-0.662415,0.012085,0.733704
6407272411,-0.153442,-0.660034,0.00964355,0.735352
6407295572,-0.15564,-0.657837,0.00744629,0.736877
6407309881,-0.157715,-0.655823,0.00524902,0.738281
6407332440,-0.159485,-0.653564,0.00335693,0.739868
6407355550,-0.160828,-0.651978,0.00195312,0.741028
6407369886,-0.162354,-0.650574,-0.00012207,0.741882
6407392451,-0.164673,-0.649109,-0.00213623,0.742676
6407415594,-0.166382,-0.647888,-0.00384521,0.743286
6407429897,-0.168091,-0.646912,-0.00537109,0.743835
6407452477,-0.173584,-0.64563,-0.00854492,0.743652
6407475643,-0.177002,-0.644958,-0.0111694,0.743347
6407496605,-0.178833,-0.64447,-0.0124512,0.743286
6407512406,-0.17981,-0.644104,-0.0126953,0.743408
6407535517,-0.179871,-0.644043,-0.0126343,0.743469
6407556877,-0.179565,-0.644165,-0.0120239,0.743469
6407588553,-0.179077,-0.644165,-0.0114136,0.74353
6407595591,-0.178223,-0.644104,-0.010498,0.743774
6407609908,-0.177307,-0.643921,-0.00939941,0.744202
6407632485,-0.175903,-0.644226,-0.00848389,0.744324
6407657013,-0.174316,-0.644409,-0.00775146,0.744507
6407669860,-0.173889,-0.644287,-0.00708008,0.74469
6407691751,-0.172668,-0.644775,-0.00549316,0.744629
6407705942,-0.169983,-0.645081,-0.00323486,0.744934
6407728594,-0.167053,-0.644897,-0.000183105,0.745789
6407751816,-0.162415,-0.647034,0.00256348,0.744934
6407766084,-0.158752,-0.649231,0.00439453,0.743835
6407788628,-0.155334,-0.65155,0.00567627,0.742493
6407811817,-0.151672,-0.65448,0.00543213,0.740723
6407826033,-0.14917,-0.656616,0.0045166,0.739319
6407848587,-0.147583,-0.657349,0.00372314,0.738953
6407871727,-0.145142,-0.657532,0.00262451,0.739319
6407886133,-0.143921,-0.656738,0.000732422,0.740234
6407908558,-0.145142,-0.654053,-0.00183105,0.742371
6407931785,-0.149841,-0.650696,-0.00683594,0.744324
6407946021,-0.153809,-0.646729,-0.0124512,0.746948
6407968506,-0.156128,-0.642273,-0.0166626,0.750244
6407991784,-0.158264,-0.638184,-0.0193481,0.753235
6408006102,-0.161255,-0.635742,-0.0192871,0.754639
6408028503,-0.159973,-0.636108,-0.0175781,0.754639
6408051669,-0.159363,-0.639648,-0.0194092,0.751709
6408065996,-0.158447,-0.642883,-0.02771,0.748901
6408088610,-0.164429,-0.647705,-0.0443726,0.742615
6408111632,-0.175903,-0.64917,-0.0639648,0.737244
6408126104,-0.189087,-0.650513,-0.0880737,0.730286
6408148583,-0.202637,-0.651733,-0.114685,0.721863
6408171807,-0.214966,-0.652588,-0.141113,0.712769
6408186128,-0.224304,-0.652893,-0.16571,0.704285
6408208625,-0.231018,-0.652893,-0.188477,0.69635
6408231778,-0.236511,-0.652161,-0.209778,0.689087
6408246134,-0.241333,-0.650635,-0.230103,0.682312
6408268606,-0.247131,-0.647705,-0.250916,0.675659
6408291677,-0.255005,-0.642761,-0.273254,0.668701
6408306184,-0.265198,-0.635193,-0.29718,0.661743
6408328493,-0.276428,-0.624878,-0.322388,0.655151
6408351781,-0.288391,-0.612061,-0.348572,0.648621
6408366080,-0.300842,-0.597473,-0.374207,0.642273
6408388574,-0.313049,-0.582336,-0.398254,0.635864
6408411664,-0.327393,-0.566345,-0.420837,0.62854
6408426101,-0.341614,-0.550903,-0.439575,0.621765
6408448619,-0.355225,-0.537292,-0.454529,0.615295
6408471761,-0.367981,-0.527039,-0.46405,0.609558
6408486117,-0.381836,-0.52124,-0.463806,0.606201
6408508651,-0.392517,-0.526184,-0.454773,0.601868
6408531771,-0.396606,-0.533936,-0.446533,0.598511
6408554205,-0.403931,-0.53363,-0.444031,0.595825
6408577290,-0.412292,-0.532776,-0.439941,0.593811
6408591532,-0.417664,-0.537598,-0.435669,0.588867
6408605904,-0.421631,-0.543579,-0.429688,0.5849
6408628426,-0.423645,-0.550781,-0.418701,0.584778
6408651569,-0.424683,-0.55835,-0.404419,0.586792
6408665920,-0.426941,-0.566162,-0.393127,0.585388
6408688458,-0.431396,-0.572754,-0.383057,0.582397
6408711599,-0.436096,-0.575989,-0.373718,0.581726
6408725944,-0.437988,-0.580139,-0.364746,0.581848
6408748418,-0.440491,-0.582764,-0.357056,0.582214
6408771655,-0.445129,-0.583557,-0.351318,0.58136
6408785980,-0.449829,-0.584045,-0.345032,0.580994
6408808498,-0.453369,-0.584167,-0.339172,0.581543
6408831671,-0.456543,-0.583557,-0.334778,0.582214
6408845934,-0.460083,-0.581726,-0.331543,0.58313
6408868632,-0.46405,-0.579346,-0.328247,0.584229
6408891782,-0.467407,-0.57782,-0.324036,0.585449
6408906110,-0.471558,-0.576233,-0.320557,0.585571
6408928507,-0.47583,-0.574097,-0.31781,0.585693
