timestamp,roll,pitch,yaw
4536294903,-0.431943,-0.807088,1.39572
4536325311,-0.437832,-0.804722,1.40157
4536339632,-0.444164,-0.80213,1.40758
4536357361,-0.451123,-0.799659,1.414
4536375998,-0.45863,-0.797192,1.4209
4536399612,-0.466506,-0.794929,1.428
4536443998,-0.474983,-0.792352,1.43544
4536444792,-0.483491,-0.790071,1.44275
4536458320,-0.492395,-0.787653,1.4504
4536474755,-0.501385,-0.785219,1.45779
4536497222,-0.510647,-0.783014,1.46546
4536518270,-0.519819,-0.7809,1.47287
4536534726,-0.529055,-0.778874,1.48021
4536557213,-0.537851,-0.776945,1.48721
4536578307,-0.546789,-0.775245,1.49429
4536594695,-0.555285,-0.773923,1.50099
4536617208,-0.563458,-0.772537,1.50735
4536638300,-0.571532,-0.771426,1.51366
4536654732,-0.579024,-0.770578,1.51945
4536677225,-0.585948,-0.769921,1.52472
4536698319,-0.592522,-0.769666,1.5298
4536722853,-0.598375,-0.769486,1.53421
4536737201,-0.603509,-0.769665,1.53792
4536758259,-0.607972,-0.770089,1.54116
4536774729,-0.611702,-0.770902,1.54387
4536797285,-0.614769,-0.771888,1.5461
4536826218,-0.61695,-0.773201,1.54747
4536836178,-0.618465,-0.774692,1.54836
4536857276,-0.619325,-0.776565,1.54872
4536878279,-0.619195,-0.778579,1.54825
4536896228,-0.618382,-0.780852,1.54728
4536917245,-0.616714,-0.783261,1.54565
4536939721,-0.614289,-0.786067,1.54348
4536954798,-0.611159,-0.788847,1.54083
4536977219,-0.607092,-0.79175,1.53733
4536999728,-0.602161,-0.794624,1.53313
4537014747,-0.596583,-0.797679,1.5286
4537037247,-0.590289,-0.800617,1.52357
4537058940,-0.583531,-0.803754,1.51817
4537074031,-0.576315,-0.806722,1.51242
4537096469,-0.568175,-0.809619,1.5062
4537119040,-0.559757,-0.812442,1.49961
4537142145,-0.551304,-0.815248,1.493
4537164652,-0.542042,-0.817721,1.48591
4537178999,-0.532901,-0.820176,1.47902
4537193985,-0.523247,-0.822221,1.47164
4537216486,-0.513903,-0.824088,1.46466
4537239028,-0.504394,-0.825723,1.4575
4537253970,-0.494949,-0.827145,1.4506
4537276386,-0.485878,-0.828205,1.44392
4537298937,-0.476816,-0.829165,1.43724
4537313916,-0.468265,-0.829881,1.4312
4537336442,-0.459869,-0.830121,1.42522
4537367126,-0.452083,-0.830238,1.41985
4537373965,-0.444872,-0.830058,1.41487
4537396488,-0.43831,-0.829606,1.41047
4537418960,-0.432722,-0.828944,1.40702
4537433287,-0.427698,-0.828075,1.40397
4537455793,-0.423413,-0.826887,1.40169
4537479245,-0.419985,-0.825763,1.4001
4537493464,-0.417415,-0.824197,1.39911
4537515798,-0.41553,-0.822601,1.39883
4537539176,-0.41466,-0.820624,1.39927
4537553406,-0.414591,-0.818825,1.40057
4537575883,-0.415497,-0.816851,1.40251
4537599023,-0.417154,-0.814828,1.40517
4537613471,-0.419773,-0.812626,1.40845
4537635901,-0.423226,-0.81041,1.41237
4537658981,-0.427414,-0.808136,1.41698
4537673295,-0.4324,-0.805545,1.42208
4537695795,-0.437753,-0.803114,1.42745
4537718943,-0.444119,-0.800599,1.43338
4537733276,-0.450831,-0.798271,1.43977
4537755806,-0.458225,-0.795742,1.44646
4537778978,-0.465928,-0.7931,1.45345
4537793336,-0.474011,-0.790697,1.46047
4537815870,-0.482539,-0.788375,1.46796
4537838968,-0.491318,-0.786086,1.47533
4537853320,-0.500164,-0.783681,1.48269
4537875836,-0.509059,-0.781568,1.48994
4537907031,-0.518095,-0.779481,1.49731
4537916205,-0.527121,-0.777542,1.50444
4537937356,-0.536034,-0.775672,1.51156
4537959043,-0.544616,-0.774142,1.51824
4537981641,-0.553093,-0.772683,1.52492
4537995852,-0.561241,-0.77144,1.53122
4538018974,-0.569038,-0.770518,1.53732
4538034780,-0.576518,-0.769817,1.54306
4538055804,-0.583498,-0.769321,1.54846
4538078977,-0.58976,-0.76918,1.55316
4538093303,-0.59553,-0.769251,1.55754
4538115811,-0.600901,-0.769722,1.56155
4538138970,-0.60539,-0.770237,1.56475
4538153443,-0.609123,-0.771096,1.56747
4538175912,-0.612219,-0.772261,1.56967
4538199067,-0.614584,-0.773674,1.57121
4538213339,-0.616158,-0.77548,1.57205
4538236024,-0.61721,-0.777464,1.57258
4538259101,-0.617451,-0.779639,1.57244
4538273549,-0.616686,-0.782118,1.57146
4538295933,-0.615137,-0.784673,1.57001
4538318502,-0.61284,-0.787403,1.56786
4538333506,-0.609749,-0.790206,1.56523
4538355781,-0.605826,-0.792885,1.56174
4538378340,-0.601168,-0.795928,1.55792
4538393279,-0.596065,-0.799101,1.55373
4538415866,-0.590069,-0.80212,1.54888
4538438413,-0.583353,-0.805025,1.54353
4538453361,-0.576337,-0.80797,1.538
4538475983,-0.568672,-0.811015,1.53212
4538498387,-0.560464,-0.813748,1.52575
4538513355,-0.551585,-0.816447,1.51907
4538537301,-0.54278,-0.818954,1.51236
4538567320,-0.533711,-0.821092,1.50533
4538573586,-0.524589,-0.82332,1.49848
4538595898,-0.515287,-0.824984,1.49155
4538618323,-0.505968,-0.826627,1.48461
4538634772,-0.496807,-0.827965,1.47794
4538655804,-0.487602,-0.828771,1.47116
4538678319,-0.478894,-0.829663,1.4649
4538693279,-0.470196,-0.830329,1.45871
4538715796,-0.462077,-0.830481,1.45296
4538738546,-0.454509,-0.830408,1.4476
4538754231,-0.447486,-0.830019,1.44288
4538775954,-0.441192,-0.829466,1.43871
4538798548,-0.435512,-0.828754,1.43531
4538814826,-0.430347,-0.827604,1.43217
4538837335,-0.426297,-0.826506,1.43005
4538858528,-0.422829,-0.824996,1.42838
4538873507,-0.420302,-0.823488,1.42759
4538897382,-0.418347,-0.8217,1.42716
4538918578,-0.417763,-0.819804,1.42796
4538941669,-0.41755,-0.81778,1.42891
4538964063,-0.418446,-0.815611,1.43091
4538978499,-0.420168,-0.813498,1.43356
4538993392,-0.422539,-0.811011,1.43657
4539015922,-0.425973,-0.808577,1.44055
4539038531,-0.429652,-0.806103,1.44465
4539053300,-0.434322,-0.803526,1.44958
4539075813,-0.439806,-0.801081,1.45489
4539107998,-0.44551,-0.798626,1.4605
4539121701,-0.452223,-0.795944,1.46675
4539144168,-0.459135,-0.793484,1.47306
4539159801,-0.466754,-0.791069,1.47998
4539174795,-0.474624,-0.788687,1.48677
4539195885,-0.482884,-0.786166,1.49389
4539219916,-0.491351,-0.783857,1.50109
4539234788,-0.499826,-0.781548,1.50803
4539256125,-0.508486,-0.779556,1.51524
4539278557,-0.517242,-0.777543,1.5222
4539294783,-0.525948,-0.775817,1.52929
4539315821,-0.534499,-0.774318,1.53596
4539338299,-0.542958,-0.772817,1.54262
4539354779,-0.551219,-0.771759,1.54923
4539375831,-0.55926,-0.77075,1.55547
4539398322,-0.566895,-0.770054,1.56133
4539422413,-0.574122,-0.769471,1.56687
4539436008,-0.581017,-0.769219,1.57223
4539458440,-0.587288,-0.769231,1.5769
4539474840,-0.592973,-0.769352,1.58127
4539495907,-0.598202,-0.769864,1.5851
4539518521,-0.602627,-0.770638,1.58828
4539534863,-0.606562,-0.771712,1.59113
4539556057,-0.609944,-0.773079,1.59347
4539578526,-0.612419,-0.774607,1.59517
4539602283,-0.614338,-0.776432,1.59637
4539615849,-0.615271,-0.778489,1.59674
4539638358,-0.61537,-0.780617,1.59646
4539654799,-0.614721,-0.783313,1.59565
4539676037,-0.613322,-0.785908,1.59419
4539692355,-0.611127,-0.788663,1.59226
4539714925,-0.608188,-0.791519,1.58962
4539735958,-0.604723,-0.794685,1.58663
4539752430,-0.600355,-0.797508,1.58302
4539774832,-0.59546,-0.800558,1.57904
4539795858,-0.589685,-0.803668,1.57438
4539818506,-0.583332,-0.80667,1.5694
4539834879,-0.576279,-0.80969,1.56389
4539858746,-0.568735,-0.812499,1.55808
4539872261,-0.560722,-0.815221,1.55191
4539894778,-0.552239,-0.817852,1.54541
4539915823,-0.543641,-0.820276,1.53893
4539932284,-0.534763,-0.822413,1.53211
4539954775,-0.525739,-0.824534,1.52551
4539977374,-0.516715,-0.826315,1.51876
4539992283,-0.507691,-0.827789,1.51203
4540016328,-0.498656,-0.829037,1.50536
4540036036,-0.489625,-0.829851,1.49879
4540052369,-0.480933,-0.83062,1.49259
4540074803,-0.472545,-0.830875,1.48647
4540097365,-0.464594,-0.83103,1.48093
4540112400,-0.45726,-0.830976,1.47597
4540134841,-0.450189,-0.830355,1.4711
4540157289,-0.443799,-0.829758,1.46697
4540172301,-0.438154,-0.828788,1.46343
4540194771,-0.43329,-0.827751,1.46064
4540217274,-0.429089,-0.826368,1.45843
4540233743,-0.425575,-0.824979,1.45676
4540254982,-0.422824,-0.823152,1.45567
4540278812,-0.42094,-0.821302,1.45525
4540293790,-0.419906,-0.819339,1.45574
4540314838,-0.419681,-0.817129,1.45675
4540337369,-0.420374,-0.814915,1.45861
4540353823,-0.421717,-0.812323,1.46082
4540374842,-0.424091,-0.810057,1.46396
4540397406,-0.427317,-0.807558,1.46778
4540413782,-0.431154,-0.804879,1.47189
4540436294,-0.434037,-0.797452,1.47381
4540457314,-0.448951,-0.786506,1.48065
4540478338,-0.476603,-0.782957,1.47119
4540494800,-0.498074,-0.774558,1.4488
4540533018,-0.497366,-0.76521,1.42926
4540539124,-0.51448,-0.767224,1.40977
4540554002,-0.5353,-0.748413,1.42355
4540577263,-0.4887,-0.740877,1.44075
4540600461,-0.421036,-0.760921,1.46231
4540614251,-0.405919,-0.761314,1.50718
4540644194,-0.386983,-0.764596,1.5428
4540659095,-0.349376,-0.782227,1.55781
4540681505,-0.287482,-0.787381,1.54458
4540698029,-0.258349,-0.752671,1.49322
4540719177,-0.254722,-0.735083,1.43731
4540734234,-0.220121,-0.749419,1.38551
4540757273,-0.207608,-0.776687,1.3426
4540779102,-0.221346,-0.785673,1.30765
4540794099,-0.229754,-0.788525,1.27525
4540816539,-0.234713,-0.782189,1.24265
4540839011,-0.240825,-0.768805,1.20672
4540854126,-0.245698,-0.748463,1.17571
4540884137,-0.24871,-0.739699,1.15532
4540900492,-0.24447,-0.753591,1.14229
4540914062,-0.231008,-0.775352,1.12506
4540936689,-0.213808,-0.797188,1.10564
4540959097,-0.191064,-0.814264,1.09155
4540974063,-0.174743,-0.828039,1.08058
4540996591,-0.156513,-0.834275,1.06661
4541019283,-0.147258,-0.827502,1.06346
4541034067,-0.150507,-0.826112,1.07507
4541056590,-0.156671,-0.831791,1.08601
4541079104,-0.1533,-0.841486,1.08552
4541094101,-0.150554,-0.855443,1.08635
4541116546,-0.149225,-0.87551,1.09854
4541139020,-0.135672,-0.903234,1.09744
4541155986,-0.107638,-0.915677,1.08062
4541176624,-0.0815651,-0.907908,1.06998
4541199166,-0.0664128,-0.897284,1.07631
4541215478,-0.0730455,-0.895124,1.09942
4541236695,-0.079295,-0.904105,1.12501
4541259080,-0.0710556,-0.915402,1.13266
4541275516,-0.0410267,-0.93145,1.11397
4541296610,-0.0154997,-0.945817,1.09479
4541319098,-0.000641307,-0.95748,1.08885
4541335501,0.00657093,-0.96863,1.09185
4541364098,0.00735589,-0.982701,1.10471
4541379027,-0.000301425,-1.00624,1.1377
4541395441,-0.0188625,-1.03684,1.18646
4541416732,-0.0272692,-1.06781,1.22085
4541439296,-0.019491,-1.09056,1.23468
4541455621,-0.00637799,-1.11214,1.24545
4541476723,0.00397986,-1.13801,1.26378
4541498991,-0.00263315,-1.15611,1.29506
4541515571,-0.011385,-1.1655,1.32244
4541536654,-0.0174809,-1.17225,1.34561
4541559245,-0.0257527,-1.18299,1.36794
4541575505,-0.0424183,-1.19953,1.39602
4541598038,-0.0609163,-1.21205,1.41842
4541619251,-0.0521364,-1.2159,1.4011
4541635367,-0.0156382,-1.21874,1.35189
4541656638,0.0299615,-1.21979,1.29603
4541679229,0.0671063,-1.21697,1.25481
4541695566,0.0858045,-1.21707,1.23798
4541716742,0.0757043,-1.22261,1.2447
4541739358,0.0713395,-1.23691,1.24943
4541755571,0.0888408,-1.25215,1.23526
4541776750,0.104429,-1.26053,1.21452
4541799249,0.109012,-1.26455,1.2007
4541815489,0.11296,-1.26337,1.19109
4541836807,0.1195,-1.2537,1.17469
4541859281,0.129519,-1.24168,1.15125
4541875560,0.133641,-1.24033,1.14143
4541896740,0.1242,-1.24912,1.1479
4541919284,0.114768,-1.26046,1.15038
4541935601,0.107074,-1.26782,1.14603
4541956704,0.101717,-1.27163,1.13831
4541979284,0.0947879,-1.27003,1.13664
4541995350,0.0846299,-1.27149,1.14012
4542024201,0.0569009,-1.27552,1.15806
4542039200,0.0223079,-1.2793,1.17998
4542054895,-0.0112971,-1.28208,1.19924
4542076817,-0.0366953,-1.28257,1.20808
4542100533,-0.0521314,-1.28155,1.20836
4542123086,-0.0685795,-1.28078,1.2138
4542138069,-0.0869365,-1.27837,1.22511
4542159103,-0.104173,-1.27583,1.23749
4542174832,-0.119413,-1.27423,1.25322
4542197974,-0.127562,-1.27456,1.26692
4542219096,-0.118547,-1.27692,1.26525
4542234856,-0.103256,-1.28404,1.25812
4542258103,-0.0935472,-1.2909,1.2585
4542279097,-0.0869995,-1.29566,1.26103
4542303042,-0.0732118,-1.29805,1.25256
4542325547,-0.0530878,-1.29921,1.23608
4542339348,-0.0346004,-1.3004,1.22126
4542354798,-0.0259601,-1.301,1.21348
4542385617,-0.0224412,-1.30076,1.20657
4542392425,-0.0157754,-1.30182,1.19406
4542423679,-0.00923901,-1.30426,1.18378
4542438484,-0.0103562,-1.30344,1.1801
4542452416,-0.0137982,-1.30136,1.17724
4542475314,-0.0147619,-1.29799,1.17073
4542498072,-0.0157938,-1.29516,1.16591
4542519165,-0.015655,-1.29266,1.1618
4542534884,-0.0161946,-1.28958,1.15934
4542558088,-0.0161637,-1.28792,1.15433
4542579176,-0.00735111,-1.2871,1.14213
4542595000,0.000269484,-1.28302,1.13164
4542624158,0.0105388,-1.2809,1.1155
4542639151,0.0225778,-1.28051,1.09706
4542654831,0.0357455,-1.27805,1.07426
4542677978,0.057062,-1.27618,1.03931
4542699093,0.0790091,-1.2767,1.00779
4542714923,0.0991636,-1.27997,0.979472
4542738071,0.114069,-1.28647,0.954585
4542759100,0.128334,-1.29186,0.932006
4542774872,0.146585,-1.29403,0.908406
4542798071,0.168959,-1.29645,0.883868
4542819090,0.185966,-1.2998,0.863781
4542834883,0.204017,-1.30854,0.840291
4542858080,0.222002,-1.31831,0.823576
4542880502,0.234216,-1.3257,0.818011
4542894831,0.246135,-1.32943,0.814851
4542917433,0.26243,-1.33008,0.809377
4542939269,0.274447,-1.33076,0.804692
4542954912,0.283339,-1.33218,0.797559
4542977394,0.284689,-1.3321,0.797427
4542999192,0.279866,-1.33118,0.802664
4543014986,0.268726,-1.32688,0.810071
4543037495,0.256322,-1.31692,0.812866
4543060546,0.252125,-1.30676,0.804523
4543075000,0.245285,-1.29995,0.79822
4543097400,0.225665,-1.29388,0.802381
4543120498,0.192346,-1.2888,0.822595
4543134880,0.162416,-1.28166,0.839384
4543157398,0.144248,-1.27336,0.846421
4543180532,0.134663,-1.26807,0.851583
4543201583,0.125017,-1.26576,0.863692
4543217354,0.113773,-1.26284,0.882826
4543240496,0.106838,-1.26108,0.90048
4543263075,0.102999,-1.26249,0.920001
4543277349,0.100743,-1.26582,0.934993
4543300528,0.101889,-1.27201,0.942668
4543321579,0.10155,-1.27896,0.953239
4543337329,0.100878,-1.28453,0.965468
4543360549,0.102711,-1.28748,0.973898
4543383143,0.106411,-1.29092,0.981353
4543397475,0.100249,-1.29683,0.997556
4543420555,0.0776649,-1.30685,1.03154
4543441711,0.0482792,-1.31733,1.07667
4543457497,0.0341503,-1.3297,1.1082
4543480521,0.0508883,-1.3457,1.11465
4543501754,0.0748324,-1.35917,1.11035
4543517353,0.08296,-1.36512,1.12159
4543540636,0.069613,-1.37504,1.15428
4543561784,0.0874395,-1.39335,1.156
4543577432,0.149964,-1.41042,1.12199
4543600537,0.203827,-1.41862,1.09319
4543621559,0.258348,-1.41835,1.05307
4543637366,0.325673,-1.41479,0.991902
4543660489,0.397723,-1.41012,0.925754
4543683450,0.464712,-1.4084,0.867332
4543697401,0.493539,-1.41251,0.848406
4543721268,0.505517,-1.41428,0.835226
4543741672,0.539893,-1.41032,0.78879
4543757463,0.550274,-1.40313,0.773407
4543780582,0.539373,-1.39426,0.778382
4543802325,0.499463,-1.38611,0.81301
4543817514,0.457548,-1.37978,0.850958
4543840009,0.444966,-1.37783,0.861903
4543863147,0.447876,-1.37878,0.851195
4543877461,0.421715,-1.37994,0.864954
4543899922,0.413176,-1.37048,0.862321
4543921826,0.424541,-1.36275,0.846183
4543937446,0.416341,-1.35561,0.850836
4543959930,0.394366,-1.35433,0.870823
4543983046,0.390245,-1.36111,0.87631
4543997415,0.406494,-1.37009,0.865501
4544019995,0.419508,-1.37284,0.858791
4544034917,0.431246,-1.37741,0.85742
4544057177,0.466113,-1.38261,0.827367
4544087392,0.525261,-1.38645,0.776398
4544102465,0.608554,-1.39189,0.709347
4544116841,0.696462,-1.39765,0.637387
4544130978,0.777081,-1.39894,0.57546
4544162318,0.824528,-1.40141,0.547733
4544176754,0.877084,-1.40341,0.51626
4544191200,0.91765,-1.39977,0.493187
4544213656,0.91861,-1.39591,0.494855
4544236716,0.950671,-1.39701,0.469638
4544250959,1.02181,-1.38596,0.381565
4544273648,0.985187,-1.38101,0.415005
4544296726,0.964951,-1.38473,0.442816
4544310967,0.878631,-1.38423,0.512524
4544333550,0.830319,-1.3819,0.553803
4544356735,0.812576,-1.38854,0.563094
4544370973,0.818577,-1.39492,0.542833
4544393489,0.782439,-1.39466,0.565224
4544416618,0.770991,-1.3893,0.565702
4544430985,0.772119,-1.38891,0.563182
4544453521,0.765403,-1.39263,0.570755
4544476020,0.755318,-1.39842,0.582174
4544491146,0.751785,-1.40588,0.58774
4544513720,0.749494,-1.40882,0.591299
4544536816,0.754275,-1.40464,0.587119
4544551060,0.768735,-1.4014,0.576269
4544573588,0.779621,-1.40134,0.567542
4544596766,0.783509,-1.40447,0.563703
4544611123,0.7836,-1.40601,0.561116
4544633541,0.783135,-1.40404,0.558232
4544656618,0.772335,-1.39794,0.564494
4544670903,0.762941,-1.39173,0.56916
4544693435,0.743986,-1.38798,0.58285
4544716595,0.719243,-1.38601,0.602039
4544739128,0.701183,-1.38713,0.615334
4544753634,0.693948,-1.38803,0.620951
4544776665,0.681261,-1.38526,0.632673
4544799322,0.665013,-1.38067,0.647726
4544813442,0.65257,-1.37917,0.660702
4544838205,0.644541,-1.38048,0.66912
4544851047,0.646892,-1.38143,0.667021
4544874934,0.651731,-1.38236,0.663657
4544896702,0.652043,-1.38199,0.66304
4544911035,0.649492,-1.37961,0.663976
4544933696,0.651368,-1.37795,0.661255
4544956009,0.657169,-1.37958,0.656264
4544971000,0.663051,-1.38093,0.649369
4544993430,0.669674,-1.3825,0.642993
4545016179,0.668509,-1.38353,0.644484
4545031219,0.666829,-1.3837,0.646473
4545053667,0.66859,-1.38389,0.64541
4545076103,0.677224,-1.38506,0.638138
4545091132,0.683965,-1.38485,0.630893
4545113691,0.681472,-1.38435,0.634022
4545136028,0.670442,-1.38394,0.645387
4545151079,0.662991,-1.38266,0.65194
4545173637,0.670003,-1.38156,0.643488
4545197490,0.685819,-1.37821,0.62108
4545211018,0.712366,-1.37048,0.58869
4545233443,0.722978,-1.36223,0.573415
4545255907,0.729779,-1.35822,0.563404
4545270933,0.739989,-1.35533,0.54925
4545294885,0.775114,-1.34803,0.503797
4545317521,0.806956,-1.33635,0.458231
4545330961,0.798835,-1.32509,0.451585
4545353534,0.760497,-1.31257,0.466311
4545376039,0.698478,-1.2963,0.501334
4545391159,0.661664,-1.28532,0.514515
4545413528,0.650926,-1.28058,0.506883
4545436231,0.659858,-1.26557,0.476747
4545451064,0.662341,-1.24345,0.454757
4545473666,0.654157,-1.22848,0.447477
4545504831,0.619926,-1.21608,0.462656
4545510983,0.597865,-1.20556,0.466528
4545533449,0.593954,-1.20744,0.459545
4545555953,0.593803,-1.21243,0.45173
4545571177,0.580585,-1.20671,0.455079
4545601703,0.565476,-1.19754,0.464907
4545616177,0.561607,-1.19778,0.474991
4545631049,0.566434,-1.20735,0.480892
4545653534,0.580793,-1.22118,0.475985
4545676147,0.596227,-1.23767,0.474294
4545699153,0.612455,-1.25148,0.479788
4545713525,0.629296,-1.26602,0.489163
4545736226,0.650494,-1.28647,0.496671
4545759901,0.658072,-1.31262,0.523125
4545773451,0.64854,-1.33459,0.564203
4545804175,0.644402,-1.34979,0.597351
4545812426,0.664471,-1.35874,0.603983
4545833474,0.705255,-1.36493,0.578143
4545856212,0.728842,-1.37032,0.563978
4545872485,0.72281,-1.37598,0.577046
4545901747,0.707351,-1.37782,0.59048
4545916000,0.683441,-1.37016,0.604022
4545932447,0.672628,-1.35699,0.603741
4545953641,0.67696,-1.34914,0.585617
4545976162,0.668228,-1.34877,0.577751
4545992454,0.641352,-1.35215,0.592228
4546013640,0.609793,-1.35337,0.612979
4546036193,0.58978,-1.34993,0.623506
4546052398,0.590496,-1.3454,0.620463
4546081654,0.610595,-1.34477,0.605231
4546095972,0.630857,-1.34284,0.580724
4546112447,0.642691,-1.34009,0.559308
4546133690,0.68002,-1.34156,0.523495
4546156049,0.70334,-1.34017,0.50473
4546180080,0.69812,-1.33351,0.508836
4546193654,0.681191,-1.32806,0.52117
4546216022,0.665873,-1.32783,0.535437
4546232440,0.656756,-1.32872,0.542342
4546253581,0.65204,-1.327,0.539632
4546276099,0.652327,-1.32745,0.536192
4546292453,0.652104,-1.32783,0.536513
4546313573,0.645092,-1.32972,0.543012
4546336181,0.636778,-1.33167,0.552752
4546352534,0.63879,-1.33449,0.55446
4546373495,0.637103,-1.33717,0.561508
4546395990,0.630164,-1.33809,0.572874
4546412464,0.620603,-1.33829,0.585581
4546433476,0.616609,-1.3377,0.590588
4546456008,0.616761,-1.33796,0.589975
4546472574,0.619906,-1.33901,0.586304
4546493591,0.618787,-1.33835,0.585989
4546516095,0.613675,-1.33788,0.589145
4546540028,0.615753,-1.33751,0.584571
4546553508,0.623287,-1.34013,0.579729
4546577588,0.628096,-1.3447,0.58062
4546592483,0.623833,-1.34962,0.588583
4546615032,0.614178,-1.35289,0.60384
4546636126,0.600091,-1.35771,0.628537
4546652428,0.593973,-1.36284,0.645649
4546673500,0.586304,-1.36597,0.666645
4546695989,0.573822,-1.36786,0.69587
4546712452,0.564051,-1.37014,0.721263
4546734980,0.573765,-1.37082,0.725305
4546756246,0.597538,-1.36976,0.714763
4546772575,0.622405,-1.36805,0.701009
4546794969,0.63995,-1.36637,0.687387
4546816107,0.64402,-1.36402,0.681723
4546833975,0.638054,-1.36092,0.685892
4546855050,0.642728,-1.35659,0.67748
4546876069,0.642265,-1.35286,0.675662
4546892513,0.636627,-1.35155,0.676148
4546914988,0.62426,-1.34976,0.679842
4546936166,0.600625,-1.34682,0.696602
4546959931,0.584177,-1.34772,0.712373
4546975577,0.56231,-1.35,0.731101
4546996024,0.546902,-1.35169,0.741633
4547012440,0.519588,-1.35723,0.769398
4547034930,0.489594,-1.36384,0.809653
4547056080,0.450524,-1.36794,0.859476
4547072577,0.42166,-1.37264,0.898627
4547096466,0.411663,-1.37738,0.916182
4547116058,0.415317,-1.38086,0.923254
4547148219,0.409727,-1.38509,0.949061
4547155087,0.366493,-1.39189,1.00792
4547176104,0.260711,-1.39939,1.13508
4547192559,0.0861663,-1.40565,1.34971
4547215687,-0.0865531,-1.40747,1.56505
4547238947,-0.237326,-1.41146,1.7441
4547252519,-0.353481,-1.41868,1.88945
4547274950,-0.432123,-1.42588,1.99163
4547296022,-0.487618,-1.43456,2.0581
4547312455,-0.412095,-1.43762,1.9753
4547342473,-0.217454,-1.44303,1.77404
4547356005,0.0215176,-1.44505,1.52836
4547372472,0.199193,-1.43806,1.34036
4547394943,0.269489,-1.43513,1.26166
4547416042,0.238608,-1.44057,1.29373
4547439982,0.164425,-1.44229,1.36807
4547454934,0.136143,-1.4382,1.39184
4547476057,0.128908,-1.43526,1.39424
4547506700,0.112751,-1.43242,1.41003
4547514226,0.0830339,-1.42763,1.44155
4547536747,0.0252756,-1.42604,1.50383
4547551754,-0.0149939,-1.42243,1.54499
4547581707,-0.0107522,-1.41733,1.53908
4547596686,0.0104543,-1.41321,1.51577
4547611733,0.0319393,-1.4086,1.48922
4547633914,0.0527903,-1.40371,1.45909
4547656737,0.0648929,-1.40121,1.43777
4547671628,0.0665234,-1.40068,1.42714
4547701692,0.0557948,-1.40213,1.42891
4547716676,0.0374807,-1.40459,1.44112
4547731686,0.0304303,-1.40636,1.44218
4547755645,0.032223,-1.40689,1.43716
4547776663,0.0407061,-1.40674,1.4279
4547793109,0.0563788,-1.40594,1.40657
4547814189,0.0899652,-1.40674,1.37167
4547836736,0.102123,-1.40808,1.36197
4547853124,0.115391,-1.4092,1.3505
4547874189,0.122026,-1.4054,1.34275
4547896667,0.121311,-1.40039,1.3409
4547913142,0.112974,-1.39861,1.34443
4547934181,0.0982485,-1.39911,1.35406
4547956714,0.0930198,-1.39894,1.35061
4547973169,0.126181,-1.39721,1.30663
4547994197,0.152376,-1.39282,1.27381
4548016742,0.172547,-1.39017,1.24852
4548033135,0.163454,-1.38886,1.25756
4548054185,0.141573,-1.38897,1.27847
4548076658,0.122864,-1.38836,1.29315
4548093159,0.129256,-1.38899,1.28597
4548115623,0.140501,-1.38804,1.27348
4548136653,0.137882,-1.3888,1.27677
4548153124,0.120093,-1.39128,1.29724
4548174203,0.110435,-1.39338,1.30843
4548196730,0.12058,-1.39314,1.29859
4548213125,0.134301,-1.39338,1.28781
4548234221,0.138345,-1.39255,1.28562
4548256691,0.13445,-1.39201,1.28934
4548274432,0.1303,-1.39167,1.29226
4548294241,0.131411,-1.39136,1.28906
4548325607,0.13813,-1.39105,1.28108
4548333155,0.147293,-1.39138,1.27151
4548354182,0.147737,-1.39264,1.2712
4548378157,0.13989,-1.39435,1.28029
4548393149,0.132484,-1.39517,1.28915
4548414917,0.134746,-1.39455,1.28765
4548436714,0.135718,-1.39406,1.28813
4548453113,0.13619,-1.39439,1.28973
4548474139,0.131432,-1.39411,1.29487
4548496729,0.127087,-1.39406,1.29926
4548513162,0.13095,-1.39419,1.29521
4548534190,0.140269,-1.39358,1.28498
4548556684,0.146561,-1.39384,1.2792
4548573153,0.141338,-1.39313,1.28357
4548594233,0.134529,-1.39212,1.28913
4548616679,0.1337,-1.39186,1.28949
4548632500,0.134733,-1.39264,1.28994
4548654235,0.134678,-1.39264,1.29005
4548678149,0.137816,-1.39448,1.28885
4548692518,0.140635,-1.39538,1.28835
4548714253,0.144424,-1.39572,1.28673
4548736935,0.154076,-1.39523,1.27775
4548752501,0.155303,-1.39438,1.27765
4548783270,0.144755,-1.39229,1.29183
4548796869,0.143048,-1.39045,1.29707
4548812514,0.176312,-1.39275,1.26706
4548835731,0.229813,-1.38905,1.20839
4548856883,0.260528,-1.38241,1.16111
4548880724,0.256427,-1.37816,1.14554
4548895703,0.289643,-1.36941,1.08728
4548916907,0.374633,-1.35512,0.975138
4548933048,0.449131,-1.33985,0.869747
4548955700,0.43704,-1.31271,0.841782
4548976738,0.369206,-1.26916,0.86407
4548992470,0.249001,-1.21729,0.93692
4549015690,0.122969,-1.155,1.01052
4549037267,0.00868339,-1.08954,1.06785
4549052543,-0.0702581,-1.0386,1.09416
4549075785,-0.125974,-1.00008,1.09712
4549096691,-0.160205,-0.983037,1.07164
4549112505,-0.188232,-0.975763,1.04265
4549135645,-0.210457,-0.960917,1.00869
4549156710,-0.249995,-0.932023,0.992703
4549172471,-0.304826,-0.890063,0.988637
4549196322,-0.3753,-0.841526,0.998616
4549216762,-0.454516,-0.798159,1.01447
4549240654,-0.537251,-0.764242,1.03119
4549255625,-0.611195,-0.739994,1.04023
4549276744,-0.673866,-0.724787,1.04256
4549292535,-0.728659,-0.71774,1.03888
4549315643,-0.779473,-0.712341,1.03179
4549336886,-0.824671,-0.702325,1.02214
4549352587,-0.867307,-0.686614,1.01163
4549375744,-0.913002,-0.666113,1.00814
4549396743,-0.959125,-0.645118,1.01219
4549412558,-1.00537,-0.627995,1.02485
4549450051,-1.0502,-0.615919,1.04029
4549456763,-1.08132,-0.613253,1.05224
4549472497,-1.10312,-0.61566,1.06433
4549503166,-1.1158,-0.62003,1.07104
4549516690,-1.11874,-0.624279,1.07268
4549532527,-1.11515,-0.625051,1.07162
4549555068,-1.10746,-0.6249,1.06945
4549576712,-1.0967,-0.623549,1.07236
4549592562,-1.08114,-0.624571,1.07387
4549615099,-1.06193,-0.628256,1.07462
4549636812,-1.03538,-0.638887,1.07451
4549652556,-1.00137,-0.652322,1.06956
4549675030,-0.961045,-0.667961,1.05854
4549705675,-0.915811,-0.68425,1.04585
4549712625,-0.86746,-0.699482,1.03093
4549735027,-0.824517,-0.71232,1.02096
4549758256,-0.783335,-0.727923,1.01417
4549772640,-0.741937,-0.744107,1.00624
4549795204,-0.697885,-0.763726,0.997074
4549818236,-0.649763,-0.786089,0.983112
4549832524,-0.594353,-0.807414,0.960443
4549855017,-0.530446,-0.828251,0.93057
4549878859,-0.461181,-0.84766,0.894581
4549892529,-0.389195,-0.864656,0.854506
4549915115,-0.316379,-0.882467,0.813979
4549938166,-0.245686,-0.899119,0.774397
4549960674,-0.177769,-0.914852,0.736424
4549975101,-0.110599,-0.930984,0.699436
4549998201,-0.0436966,-0.945802,0.661552
4550019310,0.0239829,-0.959408,0.621413
4550035181,0.093337,-0.971344,0.579017
4550058207,0.162286,-0.978602,0.536972
4550079257,0.229124,-0.984398,0.496953
4550095020,0.276092,-0.98833,0.473311
4550118271,0.317576,-0.992875,0.453701
4550139422,0.351947,-0.999731,0.439626
4550155211,0.378131,-1.00713,0.432151
4550178267,0.396944,-1.01513,0.43157
4550200838,0.409086,-1.02322,0.437181
4550215126,0.413551,-1.02985,0.449095
4550238180,0.412902,-1.03594,0.465828
4550259232,0.405955,-1.04162,0.487844
4550275071,0.390993,-1.04653,0.516678
4550298147,0.368541,-1.05113,0.552588
4550319242,0.33672,-1.05548,0.596936
4550335074,0.294274,-1.05846,0.650174
4550358166,0.242092,-1.05986,0.712373
4550379213,0.181317,-1.0581,0.782366
4550395097,0.114434,-1.05196,0.857643
4550418218,0.0454786,-1.04158,0.935044
4550439287,-0.0219641,-1.02696,1.01099
4550455117,-0.0866443,-1.00817,1.08383
4550477633,-0.141182,-0.988653,1.14739
4550499310,-0.194379,-0.965783,1.20985
4550515105,-0.245742,-0.938979,1.27011
4550537651,-0.295432,-0.908211,1.32885
4550559457,-0.341809,-0.874004,1.38437
4550575175,-0.384144,-0.837408,1.43636
4550604962,-0.421417,-0.798573,1.48279
4550621088,-0.453281,-0.759084,1.52408
4550635075,-0.479463,-0.71909,1.56034
4550657514,-0.501185,-0.678778,1.59263
4550680689,-0.519176,-0.638398,1.62148
4550695093,-0.534941,-0.598721,1.6482
4550717545,-0.548029,-0.558758,1.67229
4550740771,-0.558235,-0.519058,1.69406
4550755067,-0.566233,-0.480902,1.7141
4550777529,-0.570014,-0.451691,1.73118
4550801202,-0.572111,-0.426015,1.747
4550815195,-0.574654,-0.405576,1.76207
4550837540,-0.577445,-0.388515,1.77519
4550860798,-0.580645,-0.376876,1.78935
4550881945,-0.584447,-0.36777,1.79936
4550897620,-0.589888,-0.360534,1.80688
4550920740,-0.594484,-0.357101,1.8084
4550941813,-0.59913,-0.355506,1.80652
4550957554,-0.603711,-0.358881,1.79994
4550980778,-0.610039,-0.368645,1.79059
4551001748,-0.616075,-0.382906,1.77604
4551016768,-0.620858,-0.401586,1.75839
4551031114,-0.625874,-0.425484,1.73773
4551053589,-0.631845,-0.45308,1.71441
4551076937,-0.637085,-0.484669,1.68842
4551091305,-0.639672,-0.516295,1.65908
4551113672,-0.6419,-0.542978,1.62909
4551136880,-0.642019,-0.572338,1.59783
4551153799,-0.638729,-0.605559,1.56246
4551173816,-0.630457,-0.642758,1.52363
4551196829,-0.615199,-0.682456,1.47984
4551211294,-0.592226,-0.721957,1.43036
4551242460,-0.561487,-0.761064,1.37427
4551256908,-0.523893,-0.796519,1.31133
4551271148,-0.479975,-0.828521,1.24252
4551293579,-0.430712,-0.858166,1.16975
4551316748,-0.375137,-0.883083,1.0909
4551331123,-0.31235,-0.903462,1.00605
4551353602,-0.243097,-0.91996,0.915783
4551376910,-0.170298,-0.932702,0.822097
4551391299,-0.0948062,-0.940182,0.725239
4551413702,-0.019466,-0.939216,0.629456
4551436986,0.0517408,-0.931127,0.538099
4551451335,0.115052,-0.917459,0.455095
4551473615,0.170107,-0.901345,0.380177
4551496962,0.216589,-0.883082,0.312898
4551511327,0.255692,-0.863694,0.25295
4551533579,0.288541,-0.843061,0.200956
4551556718,0.314668,-0.822938,0.156882
4551571083,0.321819,-0.804506,0.130114
4551595077,0.324879,-0.788816,0.109295
4551616739,0.323113,-0.775387,0.0948456
4551631138,0.317046,-0.764999,0.086701
4551653668,0.307824,-0.758376,0.0849741
4551676958,0.29425,-0.756118,0.0899576
4551691291,0.276693,-0.758434,0.100818
4551713804,0.255572,-0.765143,0.117846
4551736946,0.229743,-0.774721,0.14175
4551751140,0.198648,-0.786088,0.173138
4551773706,0.162911,-0.7983,0.21172
4551796975,0.122825,-0.809982,0.255901
4551811176,0.0786308,-0.821207,0.30453
4551833641,0.0309723,-0.830924,0.35711
4551864967,-0.0207762,-0.839251,0.414389
4551871075,-0.0713629,-0.844511,0.472361
4551893618,-0.12813,-0.847875,0.535954
4551917058,-0.189301,-0.847748,0.603999
4551939474,-0.253651,-0.84408,0.674792
4551953708,-0.318648,-0.836471,0.746467
4551976967,-0.381612,-0.825126,0.816767
4551991173,-0.440838,-0.809912,0.883296
4552013709,-0.496069,-0.791743,0.946127
4552036815,-0.546988,-0.770716,1.00521
4552051266,-0.594655,-0.747726,1.06139
4552073768,-0.639042,-0.721968,1.11445
4552096814,-0.679725,-0.693849,1.16417
4552111310,-0.716481,-0.664347,1.21076
4552133592,-0.748752,-0.63405,1.25313
4552156746,-0.776448,-0.604467,1.29133
4552171099,-0.798903,-0.576142,1.3251
4552193590,-0.816577,-0.549074,1.35439
4552216899,-0.831032,-0.52431,1.38123
4552231362,-0.836555,-0.507412,1.40236
4552253822,-0.839688,-0.492484,1.42192
4552276865,-0.840577,-0.479259,1.43977
4552291307,-0.839965,-0.468643,1.45699
4552313708,-0.837821,-0.462166,1.47277
4552336992,-0.835937,-0.459025,1.48845
4552359337,-0.831535,-0.459905,1.50105
4552373677,-0.825103,-0.465086,1.512
4552396757,-0.816794,-0.473683,1.51826
4552411274,-0.806278,-0.48514,1.5196
4552433644,-0.793159,-0.501568,1.51761
4552464965,-0.778922,-0.520823,1.51182
4552471137,-0.763697,-0.543102,1.50244
4552501782,-0.746392,-0.56756,1.4915
4552516127,-0.728157,-0.593872,1.47834
4552531168,-0.709626,-0.623042,1.46395
4552553653,-0.688322,-0.654008,1.44663
4552576247,-0.6626,-0.684996,1.42443
4552591340,-0.632765,-0.717209,1.39831
4552613658,-0.598414,-0.74995,1.36757
4552636636,-0.56076,-0.780858,1.33286
4552651123,-0.517475,-0.811032,1.29312
4552673829,-0.470625,-0.840442,1.24949
4552696115,-0.420857,-0.868509,1.20298
4552711084,-0.367387,-0.894547,1.15306
4552733604,-0.310177,-0.917678,1.09935
4552764927,-0.248987,-0.937801,1.04165
4552779247,-0.183654,-0.954957,0.980391
4552793637,-0.115489,-0.968817,0.916114
4552816160,-0.0457115,-0.978734,0.850032
4552831368,0.0243392,-0.985021,0.783958
4552853693,0.0917942,-0.988191,0.720642
4552876298,0.141365,-0.986696,0.672544
4552891330,0.184924,-0.98425,0.629629
4552913832,0.222669,-0.981078,0.591886
4552936312,0.254517,-0.977171,0.559405
4552959226,0.280147,-0.972495,0.532721
4552973867,0.299407,-0.966907,0.512284
4552996358,0.313361,-0.961502,0.496359
4553019395,0.321099,-0.955846,0.485854
4553035159,0.3231,-0.950028,0.480403
4553056126,0.318631,-0.944783,0.480846
4553071199,0.307708,-0.940506,0.487011
4553095095,0.289519,-0.936394,0.499686
4553116193,0.265356,-0.933404,0.517821
4553131134,0.23447,-0.930754,0.541634
4553153625,0.197776,-0.928202,0.570574
4553176156,0.155944,-0.925273,0.604366
4553191147,0.109719,-0.920895,0.642137
4553213623,0.0599523,-0.915329,0.68302
4553236345,0.0070514,-0.90855,0.726648
4553251375,-0.0483449,-0.900125,0.772433
4553273671,-0.105659,-0.89005,0.819852
4553296329,-0.164372,-0.877919,0.868612
4553311171,-0.223436,-0.863743,0.917849
4553333830,-0.282457,-0.847668,0.966862
4553356260,-0.339968,-0.830003,1.01456
4553372643,-0.394278,-0.810132,1.05943
4553402047,-0.446433,-0.788632,1.10233
4553416189,-0.495983,-0.765272,1.14244
4553448937,-0.542435,-0.740876,1.17953
4553453839,-0.586288,-0.715685,1.21414
4553476204,-0.627747,-0.689995,1.24624
4553492573,-0.667041,-0.664185,1.2765
4553513630,-0.703773,-0.638366,1.30442
4553536115,-0.732985,-0.617307,1.327
4553552626,-0.759299,-0.597565,1.34719
4553576563,-0.782766,-0.579622,1.36465
4553590079,-0.80357,-0.563895,1.3796
4553612596,-0.821199,-0.550223,1.39185
4553641599,-0.835941,-0.538442,1.40151
4553651601,-0.848703,-0.529003,1.40952
4553672582,-0.859828,-0.522184,1.41618
4553693637,-0.868585,-0.518785,1.42197
4553710117,-0.877303,-0.518203,1.42871
4553732615,-0.885821,-0.518404,1.43605
4553753657,-0.891949,-0.521876,1.44203
4553776207,-0.894461,-0.527835,1.44792
4553792592,-0.89287,-0.53593,1.44811
4553813874,-0.886041,-0.547759,1.44391
4553830147,-0.872369,-0.564549,1.43423
4553854105,-0.854675,-0.583632,1.42069
4553873889,-0.832326,-0.604572,1.40313
4553897614,-0.806885,-0.627062,1.38582
4553912728,-0.781578,-0.649786,1.36887
4553933792,-0.75648,-0.674606,1.35204
4553950201,-0.726989,-0.69887,1.33178
4553972718,-0.694229,-0.72386,1.30856
4554001845,-0.659689,-0.750223,1.28287
4554010112,-0.620465,-0.777595,1.25287
4554032568,-0.573976,-0.803086,1.21626
4554053592,-0.524483,-0.827365,1.17563
4554076122,-0.471643,-0.850696,1.13056
4554100078,-0.415769,-0.873242,1.08311
4554113629,-0.356969,-0.891986,1.03275
4554130097,-0.296051,-0.907013,0.979927
4554152605,-0.233602,-0.920218,0.926515
4554173658,-0.169859,-0.932147,0.871416
4554190099,-0.105325,-0.941071,0.814775
4554212579,-0.039251,-0.94653,0.756879
4554236570,0.0155516,-0.947372,0.708784
4554250210,0.0663534,-0.946069,0.664247
4554272746,0.112167,-0.942609,0.624584
4554295184,0.152564,-0.937815,0.590117
4554310162,0.187125,-0.933464,0.560423
4554332594,0.215668,-0.929566,0.536131
4554355152,0.23881,-0.925607,0.517174
4554376224,0.256667,-0.921777,0.503112
4554406910,0.269182,-0.918118,0.493158
4554415194,0.276997,-0.915112,0.487564
4554437654,0.279351,-0.91212,0.487111
4554452732,0.275335,-0.909167,0.49235
4554481223,0.265556,-0.906525,0.502786
4554491648,0.250171,-0.904831,0.518226
4554511905,0.228551,-0.904084,0.538968
4554535763,0.200783,-0.903669,0.564758
4554565017,0.167316,-0.903567,0.595519
4554572004,0.12837,-0.902685,0.631242
4554594571,0.0851873,-0.900603,0.67071
4554625007,0.0381645,-0.897029,0.713465
4554631788,-0.0119014,-0.891772,0.758696
4554654278,-0.0644301,-0.885064,0.806024
4554676848,-0.118606,-0.876315,0.855097
4554691819,-0.174272,-0.865837,0.905305
4554714317,-0.230801,-0.85375,0.95625
4554736850,-0.287065,-0.839523,1.00699
4554751811,-0.340442,-0.822952,1.05522
4554774386,-0.392617,-0.804408,1.10203
4554796867,-0.442925,-0.783411,1.14693
4554812036,-0.490308,-0.760797,1.18935
4554834603,-0.534973,-0.73681,1.22889
4554857006,-0.577177,-0.712175,1.26585
4554871910,-0.616536,-0.687084,1.30017
4554894397,-0.6535,-0.661807,1.33221
4554918357,-0.688072,-0.636615,1.36218
4554931883,-0.719965,-0.611374,1.38965
4554955251,-0.744209,-0.592036,1.41196
4554976882,-0.765812,-0.573785,1.43158
4554992044,-0.784715,-0.557509,1.44878
4555014325,-0.800727,-0.543542,1.4635
4555037080,-0.814212,-0.531487,1.47609
4555051949,-0.825347,-0.521683,1.48654
4555074448,-0.834566,-0.515616,1.49432
4555096933,-0.843861,-0.512521,1.50233
4555112015,-0.852483,-0.511062,1.50945
4555134534,-0.8617,-0.51332,1.51716
4555157052,-0.869839,-0.516997,1.52373
4555179550,-0.875089,-0.523494,1.52507
4555194543,-0.876176,-0.532045,1.52168
4555218262,-0.871598,-0.546234,1.51201
4555231934,-0.861085,-0.564283,1.49704
4555254494,-0.845713,-0.587337,1.47632
4555276988,-0.82671,-0.610698,1.45259
4555292076,-0.804332,-0.63543,1.42785
4555314332,-0.782888,-0.660305,1.40496
4555330185,-0.761503,-0.685804,1.38104
4555351917,-0.734201,-0.7103,1.35188
4555374347,-0.701421,-0.734455,1.3187
4555390246,-0.665752,-0.75928,1.28135
4555413309,-0.629368,-0.784977,1.24231
4555435782,-0.58466,-0.810101,1.19721
4555450127,-0.533782,-0.833359,1.14607
4555473278,-0.479822,-0.85348,1.09096
4555495023,-0.422692,-0.871769,1.03398
4555510143,-0.364458,-0.886185,0.975448
4555540775,-0.304635,-0.895898,0.914634
4555554374,-0.241938,-0.901904,0.852806
4555570155,-0.17828,-0.906205,0.790614
4555599340,-0.114732,-0.907754,0.727575
4555614362,-0.0505025,-0.906429,0.664512
4555638300,0.0116174,-0.90205,0.604198
4555653366,0.0677426,-0.894828,0.549571
4555674554,0.106984,-0.884944,0.510195
4555690279,0.139974,-0.873891,0.477571
4555713339,0.166611,-0.863154,0.45032
4555735644,0.188344,-0.853673,0.426771
4555750231,0.206602,-0.845006,0.407312
4555773255,0.221125,-0.837068,0.391953
4555794381,0.231231,-0.829739,0.380361
4555810216,0.237342,-0.823912,0.372783
4555840864,0.238389,-0.819189,0.370189
4555854418,0.233119,-0.815626,0.373477
4555870176,0.222427,-0.813192,0.382489
4555893357,0.206699,-0.812713,0.396867
4555914556,0.185715,-0.813731,0.415828
4555930233,0.160507,-0.816611,0.43873
4555953360,0.131233,-0.820693,0.465504
4555975906,0.0979973,-0.825014,0.495841
4555990261,0.0607844,-0.828738,0.530034
4556013319,0.0200776,-0.831119,0.568038
4556034580,-0.0246418,-0.832229,0.609862
4556050199,-0.0736311,-0.832141,0.655187
4556073489,-0.125579,-0.830774,0.703309
4556094182,-0.180006,-0.82835,0.753974
4556110257,-0.236583,-0.824324,0.806742
4556133413,-0.290858,-0.818249,0.858023
4556154633,-0.345202,-0.80973,0.909394
4556170324,-0.398942,-0.799038,0.959756
4556192652,-0.451372,-0.785923,1.0088
4556214497,-0.501704,-0.770521,1.0559
4556230136,-0.550176,-0.753162,1.10121
4556252711,-0.596703,-0.734602,1.14483
4556274518,-0.64156,-0.71538,1.18702
4556290296,-0.684203,-0.695326,1.2271
4556314096,-0.72404,-0.675065,1.26456
4556335896,-0.760119,-0.654022,1.29849
4556350183,-0.786708,-0.637756,1.32541
4556372750,-0.809811,-0.622267,1.34919
4556395876,-0.829665,-0.608238,1.36985
4556410224,-0.846424,-0.595878,1.3879
4556432745,-0.860362,-0.584966,1.40447
4556455901,-0.873147,-0.575225,1.42148
4556470161,-0.885191,-0.568929,1.43827
4556492681,-0.898508,-0.56302,1.45846
4556515834,-0.909275,-0.559627,1.47665
4556530153,-0.91615,-0.557197,1.49534
4556552644,-0.918119,-0.557323,1.50853
4556575801,-0.915805,-0.560686,1.51596
4556596887,-0.906376,-0.567928,1.51664
4556612626,-0.889969,-0.579337,1.51219
4556635819,-0.868981,-0.593799,1.50227
4556656927,-0.845191,-0.612251,1.48863
4556672662,-0.820091,-0.63192,1.4759
4556695801,-0.795165,-0.652067,1.46301
4556716974,-0.77358,-0.672395,1.45372
4556732718,-0.750361,-0.693875,1.44166
4556755888,-0.722368,-0.714565,1.42377
4556777009,-0.685786,-0.736139,1.39713
4556792722,-0.643948,-0.758087,1.36608
4556815849,-0.599405,-0.783274,1.3297
4556837137,-0.55423,-0.810785,1.29401
4556852751,-0.505519,-0.834754,1.25474
4556883423,-0.455937,-0.854738,1.21519
4556897585,-0.407477,-0.873289,1.17543
4556920845,-0.36062,-0.890052,1.13614
4556935809,-0.310667,-0.902602,1.09292
4556957050,-0.256662,-0.91093,1.04617
4556972786,-0.193105,-0.92011,0.991645
4556995822,-0.127457,-0.928753,0.934822
4557016978,-0.0614994,-0.935399,0.876712
4557032658,-0.00798454,-0.93793,0.829304
4557055919,0.038969,-0.938762,0.788005
4557077009,0.0775926,-0.937531,0.755027
4557092722,0.109698,-0.933971,0.728637
4557115225,0.136787,-0.929728,0.706661
4557137041,0.160482,-0.926022,0.686413
4557152732,0.182391,-0.92279,0.667914
4557175320,0.202307,-0.919042,0.652091
4557197024,0.21818,-0.915053,0.640029
4557212759,0.228542,-0.911874,0.632584
4557235246,0.231779,-0.909283,0.631563
4557257101,0.227107,-0.906587,0.638
4557280826,0.214094,-0.904601,0.652115
4557295238,0.194397,-0.903253,0.67216
4557318354,0.169817,-0.90208,0.696726
4557332753,0.14143,-0.901276,0.724007
4557355374,0.110327,-0.900445,0.753271
4557378937,0.0763393,-0.89928,0.78482
4557392704,0.0391709,-0.89637,0.819343
4557415164,-0.00199075,-0.891341,0.857833
4557438343,-0.0476737,-0.884396,0.900155
4557452761,-0.0976918,-0.876538,0.946254
4557483415,-0.15081,-0.867218,0.994767
4557498372,-0.205243,-0.856302,1.0448
4557512717,-0.259723,-0.84372,1.09457
4557535254,-0.312428,-0.829764,1.14281
4557558400,-0.362114,-0.814244,1.18776
4557579470,-0.408568,-0.796874,1.22953
4557595287,-0.452129,-0.778026,1.26854
4557618409,-0.493355,-0.757694,1.30563
4557639572,-0.534646,-0.734286,1.34252
4557655198,-0.574869,-0.710078,1.37822
4557685855,-0.614022,-0.686106,1.41282
4557699457,-0.650782,-0.662085,1.44517
4557715297,-0.680274,-0.642619,1.47203
4557738463,-0.706175,-0.624004,1.49557
4557759571,-0.728453,-0.606434,1.51553
4557775223,-0.74751,-0.590142,1.53245
4557798421,-0.764234,-0.575501,1.54724
4557819639,-0.779862,-0.563504,1.56014
4557835876,-0.795586,-0.553552,1.57226
4557858382,-0.809598,-0.547401,1.58106
4557879426,-0.823172,-0.542906,1.59074
4557895137,-0.83735,-0.540619,1.59668
4557918291,-0.852469,-0.541666,1.60004
4557939397,-0.865198,-0.545378,1.60281
4557963325,-0.873253,-0.551419,1.59929
4557978337,-0.879126,-0.560336,1.59085
4557991197,-0.87872,-0.574065,1.57436
4558014470,-0.871639,-0.59123,1.55376
4558028720,-0.859498,-0.613034,1.52694
4558051748,-0.844417,-0.636584,1.49625
4558074442,-0.825025,-0.662152,1.46419
4558088799,-0.804126,-0.686171,1.43213
4558111487,-0.783929,-0.708496,1.40147
4558134588,-0.759975,-0.728747,1.36854
4558148942,-0.729306,-0.748641,1.3297
4558171431,-0.69274,-0.768902,1.28546
4558194670,-0.653888,-0.790024,1.23826
4558208877,-0.608593,-0.812164,1.18677
4558231453,-0.557138,-0.833413,1.13013
4558254568,-0.502287,-0.85024,1.06965
4558268860,-0.446735,-0.862599,1.0091
4558292822,-0.392121,-0.872316,0.949799
4558314531,-0.338336,-0.87754,0.890329
4558328771,-0.281947,-0.877525,0.82929
4558351381,-0.222678,-0.875209,0.767282
4558374632,-0.163218,-0.871821,0.704693
4558388913,-0.103684,-0.866121,0.642143
4558411335,-0.0452561,-0.85818,0.582159
4558434590,0.00765104,-0.847007,0.528191
4558457063,0.0440886,-0.835095,0.489178
4558471352,0.0731602,-0.822112,0.458909
4558494463,0.0958914,-0.809,0.435361
4558508909,0.11382,-0.79745,0.416422
4558531400,0.129261,-0.787855,0.400443
4558554597,0.143335,-0.779688,0.387222
4558568991,0.155453,-0.773009,0.376814
4558591510,0.164757,-0.767735,0.370076
4558614590,0.170697,-0.764084,0.367398
4558628866,0.171226,-0.762328,0.370606
4558660300,0.165559,-0.761806,0.380479
4558674632,0.154723,-0.763756,0.396465
4558688830,0.13895,-0.768024,0.417566
4558711346,0.118623,-0.774196,0.442738
4558734535,0.0956155,-0.782038,0.470503
4558748871,0.0690865,-0.790469,0.50138
4558771489,0.0397968,-0.7983,0.534736
4558794512,0.00735895,-0.804926,0.57134
4558808904,-0.0287235,-0.810025,0.611506
4558831305,-0.0698165,-0.814034,0.655881
4558854528,-0.115735,-0.817057,0.704559
4558869004,-0.165731,-0.818616,0.757171
4558891452,-0.219172,-0.81897,0.812878
4558914579,-0.271151,-0.817349,0.867881
4558928800,-0.323391,-0.813471,0.923031
4558951468,-0.37503,-0.807022,0.976906
4558974617,-0.424992,-0.798049,1.02909
4558988935,-0.47324,-0.786533,1.07934
4559011303,-0.519711,-0.772367,1.12786
4559034513,-0.565017,-0.756455,1.17529
4559048862,-0.609675,-0.739165,1.22192
4559080965,-0.653,-0.721031,1.26734
4559095885,-0.694006,-0.701853,1.31055
4559133446,-0.731477,-0.682033,1.35008
4559135697,-0.764897,-0.662141,1.38578
4559153815,-0.788098,-0.646567,1.41316
4559168761,-0.807554,-0.632277,1.43697
4559191305,-0.823711,-0.619426,1.45794
4559222610,-0.837673,-0.607978,1.47682
4559228774,-0.849744,-0.59863,1.49556
4559251328,-0.86261,-0.590689,1.51345
4559273799,-0.877679,-0.584523,1.53502
4559288808,-0.891669,-0.578471,1.55573
4559311272,-0.900891,-0.575476,1.5755
4559333789,-0.907782,-0.573556,1.58817
4559348784,-0.908874,-0.576188,1.59147
4559371315,-0.900526,-0.583256,1.59165
4559393790,-0.88746,-0.594503,1.58349
4559408761,-0.872315,-0.608245,1.57028
4559431285,-0.849,-0.625335,1.55202
4559453775,-0.824358,-0.643452,1.534
4559468810,-0.803432,-0.662777,1.51497
4559491297,-0.783416,-0.684756,1.49725
4559513835,-0.759333,-0.702423,1.47821
4559528767,-0.732199,-0.718482,1.45418
4559551305,-0.701854,-0.737004,1.42545
4559582603,-0.661901,-0.757084,1.38691
4559588779,-0.617923,-0.779336,1.34617
4559611316,-0.574134,-0.801924,1.30399
4559633803,-0.528954,-0.823672,1.26227
4559651697,-0.480355,-0.842832,1.21796
4559671319,-0.432298,-0.857068,1.17227
4559693796,-0.38476,-0.868275,1.12696
4559710213,-0.337451,-0.877686,1.08266
4559732749,-0.287486,-0.882824,1.03431
4559756677,-0.228237,-0.886429,0.978419
4559768762,-0.165469,-0.890009,0.920512
4559791279,-0.104225,-0.89325,0.863153
4559813783,-0.0462142,-0.894269,0.808247
4559831703,-0.00173951,-0.890731,0.765714
4559851349,0.035793,-0.884967,0.730505
4559873801,0.0646785,-0.879069,0.703126
4559888761,0.0885037,-0.872136,0.68075
4559911292,0.109797,-0.864996,0.660457
4559935227,0.129197,-0.85887,0.641072
4559948743,0.147622,-0.853775,0.623455
4559971280,0.163121,-0.849001,0.609539
4559993824,0.173809,-0.844672,0.599716
4560010200,0.178575,-0.840948,0.594948
4560031291,0.177381,-0.838561,0.596625
4560061903,0.168387,-0.836812,0.605872
4560070234,0.152819,-0.836011,0.621139
4560091326,0.132782,-0.836394,0.640496
4560113793,0.109555,-0.83818,0.662437
4560130305,0.0836131,-0.840774,0.686368
4560151296,0.0552332,-0.843313,0.712614
4560173819,0.0238309,-0.844661,0.741812
4560197759,-0.0114567,-0.84517,0.77447
4560211311,-0.0511247,-0.843878,0.811317
4560233826,-0.0952898,-0.841655,0.852506
4560250235,-0.144201,-0.839011,0.897514
4560271301,-0.195992,-0.835325,0.945151
4560293785,-0.248488,-0.830136,0.993749
4560310226,-0.300964,-0.823332,1.04231
4560331293,-0.352121,-0.814914,1.08903
4560353743,-0.400623,-0.805011,1.13331
4560370251,-0.446472,-0.79292,1.17496
4560391232,-0.490064,-0.778858,1.21476
4560415265,-0.532647,-0.763626,1.254
4560430204,-0.573698,-0.747608,1.29181
4560451352,-0.617172,-0.729185,1.33097
4560473822,-0.654704,-0.713042,1.36565
4560490232,-0.689197,-0.697067,1.39771
4560511311,-0.720057,-0.681335,1.42624
4560533778,-0.746115,-0.666278,1.45026
4560550235,-0.76899,-0.65243,1.47123
4560571274,-0.788715,-0.639793,1.48924
4560602017,-0.806002,-0.62852,1.50532
4560610260,-0.821384,-0.618827,1.51994
4560631321,-0.836805,-0.611935,1.53521
4560653798,-0.854632,-0.606267,1.55215
4560670270,-0.871986,-0.601551,1.56656
4560691301,-0.887186,-0.599473,1.58403
4560713841,-0.898769,-0.597966,1.59528
4560730243,-0.906193,-0.59908,1.59792
4560751445,-0.904785,-0.604962,1.5955
4560773999,-0.896269,-0.614733,1.5865
4560790351,-0.885674,-0.627546,1.57199
4560811397,-0.867569,-0.643012,1.55131
4560833994,-0.844299,-0.659909,1.52884
4560850295,-0.822663,-0.68009,1.50648
4560871383,-0.801034,-0.699506,1.48322
4560893888,-0.775026,-0.718166,1.45779
4560910315,-0.74652,-0.733502,1.43165
4560932814,-0.71627,-0.748365,1.40217
4560962172,-0.680607,-0.765244,1.36719
4560970286,-0.638348,-0.783312,1.32679
4560992877,-0.592942,-0.803007,1.28333
4561013851,-0.547966,-0.823097,1.24062
4561030264,-0.498659,-0.840726,1.19537
4561052726,-0.448278,-0.853732,1.14824
4561073964,-0.399304,-0.862754,1.10116
4561090311,-0.35108,-0.869228,1.05521
4561112885,-0.302747,-0.873351,1.00935
4561142227,-0.25225,-0.874177,0.960684
4561157841,-0.193735,-0.8748,0.906328
4561172856,-0.134719,-0.876206,0.851825
4561193985,-0.0781511,-0.876288,0.798652
4561210346,-0.0334474,-0.873185,0.75596
4561232795,0.00570805,-0.86675,0.719486
4561253928,0.0374711,-0.859183,0.690287
4561270321,0.062984,-0.851348,0.667025
4561292868,0.0847684,-0.843845,0.647432
4561313814,0.104288,-0.837288,0.62905
4561330370,0.121814,-0.83213,0.612608
4561352795,0.137947,-0.827972,0.598667
4561382260,0.150194,-0.824166,0.588949
4561390401,0.157114,-0.820448,0.583416
4561412813,0.159018,-0.817799,0.58291
4561434012,0.154545,-0.816246,0.589085
4561451783,0.143586,-0.815326,0.601397
4561472792,0.12769,-0.815819,0.618317
4561494029,0.108343,-0.818316,0.638187
4561509650,0.0859836,-0.822352,0.660341
4561532062,0.0603358,-0.826497,0.685085
4561554796,0.0320307,-0.830501,0.712748
4561571058,-0.000186112,-0.833317,0.743945
4561592178,-0.0364476,-0.83447,0.778861
4561614542,-0.0765897,-0.834481,0.817526
4561629669,-0.121459,-0.833856,0.860053
4561652220,-0.170031,-0.832945,0.905838
4561674509,-0.22046,-0.830662,0.953428
4561697217,-0.271833,-0.826858,1.00205
4561712041,-0.322968,-0.821488,1.05033
4561734695,-0.373157,-0.814393,1.09714
4561749651,-0.420506,-0.805049,1.14125
4561772155,-0.465722,-0.793468,1.18345
4561794546,-0.509246,-0.780162,1.22424
4561809642,-0.551405,-0.76621,1.26399
4561832128,-0.592475,-0.751702,1.30257
4561854689,-0.631613,-0.737155,1.33945
4561869579,-0.668428,-0.722606,1.37443
4561892246,-0.701775,-0.707761,1.40605
4561914701,-0.730707,-0.692941,1.43355
4561929302,-0.755834,-0.678723,1.45717
4561952187,-0.777578,-0.66562,1.47775
4561974559,-0.796829,-0.653915,1.49613
4561991050,-0.813702,-0.6437,1.5127
4562012172,-0.827937,-0.634942,1.52711
4562034531,-0.842832,-0.627727,1.54231
4562051014,-0.862371,-0.624102,1.56128
4562072134,-0.88012,-0.619752,1.58088
4562094702,-0.892159,-0.616414,1.595
4562111045,-0.900899,-0.614125,1.60272
4562132198,-0.903084,-0.616961,1.60272
4562154671,-0.897105,-0.623955,1.59831
4562171021,-0.886263,-0.634446,1.58728
4562192060,-0.871246,-0.647286,1.57042
4562214507,-0.849345,-0.661415,1.54976
4562230903,-0.826203,-0.678397,1.52913
4562252005,-0.804931,-0.697061,1.50808
4562281984,-0.781278,-0.713813,1.48422
4562290916,-0.753053,-0.730381,1.45879
4562311979,-0.723125,-0.743668,1.43192
4562334463,-0.690437,-0.758112,1.40052
4562350906,-0.65094,-0.774883,1.36377
4562372180,-0.607735,-0.793397,1.32329
4562394576,-0.562325,-0.811437,1.28019
4562411045,-0.515856,-0.829523,1.23866
4562432035,-0.467741,-0.84401,1.1947
4562454654,-0.420609,-0.853996,1.15034
4562470971,-0.372569,-0.860673,1.10502
4562500989,-0.325477,-0.865951,1.06136
4562514703,-0.277276,-0.8687,1.01557
4562531451,-0.226685,-0.868508,0.967868
4562552245,-0.17447,-0.868533,0.919505
4562574579,-0.125577,-0.869977,0.873776
4562591042,-0.0802586,-0.869931,0.830473
4562612200,-0.0395357,-0.865893,0.792972
4562634699,-0.00439363,-0.859765,0.761103
4562650982,0.023658,-0.853072,0.7359
4562672019,0.0476064,-0.846406,0.714514
4562702203,0.0691712,-0.840168,0.695485
4562710949,0.0887739,-0.834885,0.677006
4562732046,0.106341,-0.831176,0.661283
4562754680,0.121404,-0.828071,0.648901
4562770983,0.131162,-0.824718,0.641393
4562792059,0.135493,-0.821896,0.638029
4562814665,0.134397,-0.820107,0.640626
4562838518,0.127176,-0.818961,0.649405
4562852200,0.114231,-0.818664,0.663308
4562874754,0.0976872,-0.819876,0.680271
4562890362,0.0778164,-0.822908,0.699845
4562912179,0.0552737,-0.82697,0.721466
4562934687,0.029821,-0.830592,0.745934
4562950321,0.000483347,-0.833585,0.774026
4562973489,-0.032879,-0.83509,0.805667
4562994668,-0.0703413,-0.835178,0.841206
4563010351,-0.111962,-0.834622,0.880639
4563033501,-0.157711,-0.833943,0.923317
4563054537,-0.206041,-0.832382,0.968255
4563070336,-0.25495,-0.829473,1.01428
4563093477,-0.304395,-0.825042,1.06062
4563114581,-0.353446,-0.818944,1.10594
4563130327,-0.400493,-0.810912,1.14932
4563153545,-0.445754,-0.800646,1.19103
4563174708,-0.489662,-0.788498,1.23148
4563190414,-0.532035,-0.77523,1.27073
4563213492,-0.573373,-0.761561,1.30922
4563234655,-0.612893,-0.747622,1.34568
4563250365,-0.650362,-0.733805,1.38044
4563280989,-0.684729,-0.719767,1.41258
4563294613,-0.715352,-0.705578,1.44091
4563310410,-0.741798,-0.691447,1.46504
4563333530,-0.764959,-0.678208,1.48629
4563354659,-0.785371,-0.666186,1.50499
4563378575,-0.803719,-0.655613,1.522
4563393498,-0.819786,-0.646406,1.53742
4563414564,-0.834826,-0.64111,1.55263
4563430373,-0.853528,-0.635478,1.57044
4563453504,-0.870857,-0.630974,1.58572
4563474710,-0.885227,-0.627319,1.60286
4563490338,-0.895633,-0.624668,1.61294
4563513558,-0.902142,-0.625247,1.61531
4563534588,-0.899677,-0.62992,1.61206
4563550389,-0.89065,-0.638444,1.60287
4563573580,-0.879063,-0.649563,1.58861
4563594664,-0.860814,-0.66271,1.56868
4563610374,-0.83812,-0.677264,1.54777
4563633559,-0.815452,-0.693684,1.52578
4563654710,-0.793287,-0.710779,1.50222
4563670368,-0.766433,-0.727683,1.47644
4563693525,-0.7365,-0.740469,1.44883
4563714523,-0.704818,-0.753292,1.41898
4563730297,-0.669559,-0.767022,1.38553
4563752941,-0.629807,-0.783941,1.34711
4563783467,-0.587333,-0.801592,1.3072
4563790425,-0.542348,-0.818552,1.26559
4563812805,-0.49661,-0.833539,1.22464
4563835972,-0.449663,-0.845115,1.18098
4563850270,-0.402573,-0.852153,1.13593
4563872896,-0.355266,-0.857637,1.0917
4563894594,-0.308347,-0.860823,1.04789
4563910450,-0.259796,-0.861613,1.00189
4563932917,-0.209756,-0.86091,0.95538
4563956119,-0.160745,-0.861464,0.909814
4563970351,-0.11598,-0.862694,0.867573
4563992887,-0.0748891,-0.86105,0.829022
4564016050,-0.0381784,-0.855334,0.795606
4564030406,-0.00738807,-0.848361,0.768116
4564052897,0.0181897,-0.841925,0.745422
4564076093,0.0409154,-0.835639,0.725352
4564090422,0.0614356,-0.83031,0.706666
4564112893,0.0798094,-0.826225,0.689855
4564135808,0.0959808,-0.823395,0.676284
4564150316,0.107749,-0.820858,0.667222
4564172898,0.114227,-0.81804,0.662382
4564195953,0.11559,-0.815982,0.662304
4564217358,0.11156,-0.814844,0.667896
4564240989,0.101899,-0.814287,0.678793
4564256067,0.0882042,-0.81496,0.693713
4564277232,0.0712385,-0.817369,0.710959
4564293042,0.0515364,-0.82132,0.729999
4564316059,0.0283576,-0.825747,0.752255
4564336861,0.00167585,-0.829501,0.778118
4564352863,-0.0291713,-0.83184,0.80751
4564376027,-0.0641005,-0.833157,0.840837
4564397058,-0.10256,-0.833107,0.877344
4564412857,-0.145215,-0.832993,0.917412
4564443596,-0.19084,-0.832529,0.959928
4564457250,-0.238142,-0.831119,1.00416
4564472962,-0.285838,-0.828332,1.04889
4564495330,-0.333765,-0.823756,1.09353
4564517112,-0.380978,-0.817449,1.13705
4564532818,-0.426857,-0.809011,1.17927
4564556092,-0.471044,-0.798456,1.21986
4564578499,-0.513702,-0.786147,1.25927
4564592951,-0.555405,-0.773489,1.29802
4564616100,-0.595636,-0.760665,1.33515
4564636906,-0.633709,-0.747864,1.37019
4564652891,-0.669096,-0.734702,1.40298
4564676103,-0.701031,-0.721306,1.43257
4564704694,-0.729542,-0.707879,1.45854
4564712909,-0.754196,-0.694554,1.48087
4564735361,-0.776026,-0.682299,1.50061
4564757223,-0.795319,-0.671266,1.51832
4564772846,-0.812405,-0.66179,1.53438
4564795302,-0.827041,-0.654106,1.54839
4564817062,-0.842471,-0.647225,1.56314
4564832807,-0.861107,-0.643868,1.58004
4564855348,-0.878196,-0.639771,1.59801
4564878619,-0.88963,-0.636747,1.61084
4564892911,-0.897625,-0.634393,1.61701
4564915319,-0.89927,-0.637137,1.61597
4564938477,-0.892709,-0.64313,1.61065
4564952836,-0.88161,-0.652596,1.59922
4564975303,-0.866997,-0.664203,1.58269
4564998502,-0.845256,-0.676629,1.56218
4565011396,-0.821066,-0.690967,1.54073
4565026446,-0.798709,-0.707042,1.51861
4565048956,-0.773734,-0.723154,1.49401
4565072189,-0.744193,-0.737583,1.46719
4565086621,-0.713062,-0.749069,1.4396
4565117835,-0.679756,-0.761089,1.40873
4565132159,-0.642515,-0.775108,1.37405
4565146598,-0.603125,-0.792117,1.33735
4565170436,-0.560932,-0.808154,1.29841
4565192155,-0.51696,-0.823209,1.25991
4565206551,-0.471343,-0.835668,1.21955
4565229119,-0.425419,-0.84416,1.1765
4565260369,-0.378187,-0.850042,1.13248
4565266567,-0.331531,-0.85421,1.09012
4565297941,-0.285426,-0.855977,1.04739
4565320310,-0.237645,-0.855947,1.00332
4565326398,-0.189524,-0.856752,0.959977
4565348929,-0.144925,-0.858436,0.918765
4565372397,-0.104054,-0.859627,0.880702
4565386543,-0.0662946,-0.856548,0.846845
4565408943,-0.0329479,-0.850473,0.817619
4565432270,-0.00495343,-0.844344,0.793513
4565446472,0.0193654,-0.838464,0.772603
4565468946,0.0412648,-0.833607,0.753375
4565492228,0.060871,-0.829807,0.735657
4565506583,0.0779632,-0.826846,0.721205
4565528944,0.0917458,-0.825258,0.710701
4565560335,0.0998232,-0.823149,0.704702
4565566639,0.102969,-0.82135,0.702934
4565589074,0.101668,-0.819951,0.705936
4565620235,0.0949474,-0.81897,0.714021
4565626419,0.0835363,-0.818909,0.726552
4565665859,0.0689725,-0.820342,0.741812
4565680203,0.0514803,-0.823707,0.758982
4565686348,0.0302514,-0.828098,0.77909
4565708912,0.00557343,-0.832046,0.80259
4565732117,-0.023202,-0.834858,0.830044
4565746413,-0.0562187,-0.836077,0.86106
4565768940,-0.092713,-0.836551,0.89551
4565791402,-0.132891,-0.836246,0.933021
4565806434,-0.176333,-0.836038,0.973187
4565828924,-0.221631,-0.835091,1.01504
4565851671,-0.267737,-0.832753,1.05801
4565866466,-0.314432,-0.829129,1.1014
4565889003,-0.361296,-0.823737,1.14444
4565911598,-0.407093,-0.816271,1.18622
4565926687,-0.451607,-0.806679,1.22678
4565949113,-0.494482,-0.795125,1.26602
4565980835,-0.536113,-0.782823,1.30425
4565987987,-0.576383,-0.770579,1.34116
4566009190,-0.614864,-0.758326,1.37618
4566031643,-0.650804,-0.745889,1.409
4566046449,-0.683443,-0.733046,1.43881
4566069082,-0.713139,-0.719745,1.46568
4566091603,-0.739172,-0.706559,1.489
4566106585,-0.762039,-0.693923,1.50926
4566129004,-0.782672,-0.682464,1.5276
4566151634,-0.800659,-0.672496,1.54397
4566166664,-0.81643,-0.663928,1.55858
4566189088,-0.831816,-0.658947,1.57337
4566211505,-0.849488,-0.653829,1.58944
4566226632,-0.866005,-0.650098,1.60295
4566249106,-0.8796,-0.646834,1.61821
4566271510,-0.888872,-0.644139,1.62645
4566289309,-0.894862,-0.644873,1.62826
4566308940,-0.891782,-0.64914,1.62375
4566331455,-0.882073,-0.656911,1.6137
4566346507,-0.870204,-0.66695,1.59914
4566369186,-0.852168,-0.678476,1.57867
4566391579,-0.829055,-0.691948,1.55743
4566406477,-0.805684,-0.706567,1.53452
4566428976,-0.78227,-0.722299,1.50969
4566451572,-0.754248,-0.736786,1.48293
4566466479,-0.723296,-0.748667,1.45422
4566489115,-0.691459,-0.759688,1.42439
4566511714,-0.656478,-0.771069,1.39095
4566526690,-0.619302,-0.786271,1.35562
4566549114,-0.57986,-0.802198,1.31837
4566571474,-0.53805,-0.817139,1.28042
4566586604,-0.493387,-0.829068,1.24078
4566609153,-0.447989,-0.838391,1.19869
4566631658,-0.401767,-0.84452,1.15449
4566657520,-0.35533,-0.849088,1.11144
4566669163,-0.309462,-0.851036,1.06897
4566691673,-0.263464,-0.851111,1.02623
4566707965,-0.216957,-0.850934,0.983708
4566728950,-0.172565,-0.852419,0.942995
4566751495,-0.132313,-0.854014,0.90536
4566767908,-0.0944646,-0.852384,0.870469
4566789216,-0.0599458,-0.847056,0.84007
4566811676,-0.029966,-0.840395,0.813989
4566827938,-0.00433259,-0.83409,0.791827
4566849003,0.0186825,-0.829135,0.771893
4566871502,0.0387547,-0.825259,0.75377
4566887982,0.0564725,-0.822158,0.738189
4566909163,0.0711756,-0.82033,0.726811
4566931518,0.0812508,-0.818754,0.719649
4566947839,0.0860905,-0.816993,0.716372
4566969143,0.0869092,-0.815637,0.71704
4566991597,0.0829104,-0.814497,0.722705
4567007943,0.0743473,-0.814153,0.732842
4567029080,0.0622605,-0.815102,0.746098
4567051641,0.0472182,-0.818151,0.761282
4567067908,0.0285608,-0.822521,0.779181
4567089074,0.00616071,-0.827426,0.800485
4567111665,-0.0205439,-0.831041,0.826163
4567128029,-0.050958,-0.833426,0.855167
4567149008,-0.0854606,-0.834431,0.887823
4567171568,-0.123324,-0.834834,0.923247
4567187999,-0.164221,-0.835471,0.961265
4567209026,-0.207348,-0.835434,1.00098
4567231624,-0.251603,-0.834227,1.04204
4567247914,-0.296728,-0.832051,1.08408
4567269156,-0.34282,-0.828167,1.12656
4567291596,-0.388606,-0.822247,1.16811
4567307948,-0.433336,-0.814273,1.20882
4567328984,-0.476795,-0.804227,1.24842
4567351460,-0.51888,-0.793219,1.28701
4567368005,-0.559469,-0.781828,1.32404
4567389012,-0.598435,-0.770698,1.35937
4567411609,-0.635234,-0.759375,1.39263
4567428027,-0.669213,-0.747413,1.42339
4567449164,-0.700036,-0.734977,1.45121
4567471568,-0.727579,-0.72206,1.47564
4567487970,-0.751937,-0.709523,1.49715
4567509039,-0.773852,-0.698152,1.51652
4567531533,-0.793443,-0.688061,1.53386
4567547872,-0.810365,-0.679361,1.5491
4567570512,-0.825225,-0.671863,1.5628
4567591706,-0.839214,-0.666386,1.57586
4567607900,-0.856819,-0.663491,1.59185
4567630513,-0.87264,-0.659777,1.60795
4567651577,-0.882238,-0.656425,1.619
4567667941,-0.889351,-0.654509,1.62483
4567690439,-0.890392,-0.656419,1.62335
4567711697,-0.883098,-0.662244,1.61784
4567727935,-0.870488,-0.670691,1.60602
4567750451,-0.854841,-0.680622,1.58884
4567771593,-0.832421,-0.69206,1.56844
4567787954,-0.807444,-0.704747,1.54699
4567810506,-0.784316,-0.718931,1.5249
4567831643,-0.758969,-0.732509,1.50072
4567848024,-0.729566,-0.744969,1.47485
4567870517,-0.698584,-0.754851,1.44826
4567891583,-0.665195,-0.764874,1.4177
4567907941,-0.630013,-0.77781,1.38602
4567930431,-0.592503,-0.793691,1.35162
4567951495,-0.552899,-0.808591,1.31632
4567967994,-0.509489,-0.821104,1.2792
4567990495,-0.465475,-0.830982,1.24071
4568028699,-0.420978,-0.838681,1.19942
4568030937,-0.375968,-0.844281,1.1583
4568050462,-0.33056,-0.847309,1.11762
4568079848,-0.286022,-0.848323,1.07748
4568087916,-0.240741,-0.848986,1.03706
4568110549,-0.196543,-0.850737,0.997846
4568131613,-0.155304,-0.852999,0.960431
4568147918,-0.117463,-0.853752,0.926081
4568170432,-0.0820215,-0.850733,0.895052
4568191616,-0.0504755,-0.84541,0.868552
4568207999,-0.0229751,-0.839567,0.845485
4568230422,0.00081347,-0.835131,0.825497
4568251705,0.0221877,-0.831857,0.806851
4568267902,0.040768,-0.829502,0.790803
4568290498,0.056964,-0.827735,0.778187
4568311680,0.0689655,-0.826846,0.769846
4568327893,0.0760506,-0.825804,0.765097
4568350453,0.0783979,-0.824611,0.764353
4568371650,0.0766728,-0.823726,0.768055
4568395486,0.0699123,-0.823039,0.776293
4568410507,0.0594772,-0.823419,0.788187
4568431652,0.0459118,-0.825419,0.802288
4568449450,0.0291198,-0.828936,0.818431
4568470523,0.00851754,-0.833554,0.837977
4568492946,-0.0162243,-0.837322,0.861469
4568507298,-0.0449499,-0.839614,0.888955
4568529794,-0.077163,-0.840318,0.919381
4568552368,-0.112972,-0.840446,0.952703
4568567140,-0.151927,-0.840373,0.988785
4568589713,-0.193406,-0.840168,1.02666
4568612264,-0.236495,-0.839069,1.06615
4568627099,-0.280144,-0.836854,1.10657
4568649681,-0.324994,-0.833051,1.14767
4568672151,-0.370293,-0.827688,1.18876
4568688616,-0.414543,-0.820181,1.22866
4568709688,-0.457562,-0.810548,1.26745
4568732204,-0.499232,-0.799633,1.30523
4568748649,-0.539154,-0.78806,1.34158
4568769793,-0.577721,-0.776656,1.37618
4568799906,-0.614557,-0.765596,1.40907
4568808672,-0.649111,-0.754204,1.44009
4568829871,-0.680239,-0.741727,1.46807
4568852387,-0.708724,-0.728954,1.49309
4568868632,-0.734072,-0.716192,1.51518
4568889687,-0.756396,-0.704206,1.53453
4568912169,-0.776587,-0.693546,1.55212
4568928651,-0.794117,-0.684491,1.56758
4568949728,-0.80903,-0.676675,1.58103
4568972291,-0.823611,-0.670795,1.59396
4568988624,-0.839104,-0.666549,1.60739
4569011196,-0.854648,-0.663488,1.61898
4569032413,-0.867324,-0.660995,1.63204
4569048648,-0.875436,-0.658944,1.63931
4569069784,-0.880637,-0.658764,1.63937
4569092366,-0.878005,-0.66339,1.63429
4569108662,-0.867973,-0.670688,1.62399
4569129885,-0.855098,-0.680457,1.6075
4569152294,-0.836646,-0.691564,1.58616
4569168684,-0.812194,-0.703874,1.56232
4569189829,-0.787742,-0.71684,1.53795
4569212392,-0.763649,-0.731168,1.51215
4569228634,-0.736589,-0.744124,1.48525
4569249828,-0.706784,-0.754749,1.45727
4569272311,-0.675212,-0.764007,1.42768
4569288590,-0.643024,-0.774814,1.3966
4569309849,-0.608093,-0.788806,1.36268
4569332246,-0.570505,-0.803897,1.32716
4569356182,-0.528777,-0.816284,1.28924
4569369688,-0.484361,-0.82557,1.24946
4569393636,-0.439518,-0.833385,1.20731
4569408708,-0.394829,-0.839084,1.16432
4569429784,-0.349851,-0.842276,1.12233
4569452250,-0.306055,-0.842983,1.08225
4569468505,-0.262994,-0.842836,1.04256
4569497317,-0.220807,-0.84341,1.00377
4569512191,-0.180207,-0.844875,0.966427
4569527965,-0.142499,-0.845525,0.931385
4569549664,-0.107067,-0.843341,0.898819
4569572145,-0.074137,-0.837865,0.869968
4569587897,-0.0447963,-0.831131,0.844899
4569611849,-0.0198315,-0.825757,0.82335
4569632329,0.00160352,-0.821976,0.80421
4569648025,0.0202144,-0.819157,0.787515
4569671170,0.0361172,-0.816982,0.774446
4569692316,0.0487442,-0.815669,0.765259
4569708013,0.0571082,-0.814874,0.759622
4569731215,0.0608578,-0.813654,0.757283
4569752345,0.0614262,-0.812251,0.758298
4569767962,0.0580063,-0.811281,0.763446
4569791152,0.0503931,-0.811563,0.772745
4569812188,0.0391147,-0.813304,0.785136
4569828015,0.0245591,-0.816776,0.799749
4569851193,0.00594561,-0.821733,0.817509
4569872367,-0.0168532,-0.826643,0.839358
4569888009,-0.0435369,-0.830137,0.865107
4569911187,-0.073677,-0.831947,0.893826
4569934404,-0.107047,-0.83319,0.925419
4569947997,-0.143261,-0.83431,0.959121
4569971174,-0.182008,-0.835059,0.994833
4569992319,-0.222602,-0.835399,1.03212
4570008054,-0.264935,-0.83472,1.07124
4570031108,-0.308521,-0.833063,1.11169
4570052224,-0.353323,-0.829375,1.15269
4570074858,-0.398147,-0.823842,1.19315
4570091258,-0.442075,-0.816429,1.23291
4570112241,-0.483927,-0.807219,1.27094
4570127999,-0.524271,-0.797183,1.30777
4570151192,-0.563244,-0.787011,1.3429
4570173895,-0.600601,-0.777358,1.37634
4570187986,-0.635925,-0.767091,1.40796
4570211224,-0.668484,-0.755894,1.4372
4570232225,-0.698484,-0.744188,1.46399
4570247951,-0.725591,-0.732104,1.48785
4570271159,-0.749888,-0.720572,1.50892
4570292166,-0.771442,-0.710063,1.52758
4570308097,-0.790295,-0.700849,1.54423
4570331219,-0.806529,-0.693051,1.55864
4570352154,-0.820357,-0.686648,1.5715
4570367919,-0.833441,-0.68191,1.5828
4570390424,-0.849087,-0.679259,1.59781
4570412182,-0.863236,-0.675624,1.61161
4570427920,-0.871769,-0.672775,1.62285
4570450437,-0.877245,-0.670369,1.62899
4570472191,-0.878151,-0.671506,1.62782
4570487933,-0.871003,-0.67701,1.62324
4570510478,-0.856885,-0.684889,1.61133
4570532158,-0.839785,-0.693639,1.59434
4570547927,-0.816254,-0.703647,1.57347
4570577170,-0.790239,-0.71476,1.55257
4570593629,-0.765798,-0.727305,1.53074
4570608079,-0.740623,-0.739646,1.50795
4570630469,-0.711677,-0.751203,1.48397
4570653715,-0.680776,-0.759505,1.45861
4570667973,-0.649302,-0.768731,1.4315
4570690507,-0.616775,-0.781202,1.40289
4570713761,-0.581907,-0.79624,1.3719
4570728078,-0.542783,-0.809216,1.33868
4570750453,-0.499879,-0.819358,1.30314
4570774296,-0.45637,-0.827992,1.26532
4570796141,-0.412978,-0.836008,1.22581
4570810513,-0.368902,-0.841169,1.18646
4570833633,-0.325074,-0.843422,1.14834
4570856677,-0.282838,-0.844779,1.11176
4570870582,-0.241538,-0.846791,1.07569
4570899858,-0.201145,-0.849334,1.04043
4570914720,-0.162879,-0.851767,1.00671
4570937461,-0.127402,-0.85223,0.975229
4570953739,-0.0933184,-0.849494,0.946277
4570974893,-0.0619203,-0.844481,0.920675
4570990536,-0.0347018,-0.839656,0.89828
4571013665,-0.0113162,-0.837003,0.87877
4571034678,0.00875652,-0.835432,0.861697
4571050571,0.0260639,-0.833741,0.847886
4571079746,0.0401306,-0.832645,0.838045
4571102335,0.0499716,-0.83237,0.831801
4571117231,0.0553276,-0.832107,0.828859
4571134105,0.0574311,-0.831103,0.828642
4571154726,0.0556765,-0.829976,0.832421
4571170509,0.0500719,-0.829862,0.840106
4571193742,0.0402361,-0.830788,0.851457
4571214759,0.02705,-0.832939,0.865245
4571230477,0.00997819,-0.83655,0.881728
4571253671,-0.0112326,-0.841154,0.902007
4571274666,-0.0368939,-0.843998,0.926427
4571290457,-0.0658784,-0.845357,0.954312
4571313684,-0.0983051,-0.845417,0.984749
4571342230,-0.133272,-0.845523,1.01707
4571350485,-0.170478,-0.845185,1.05116
4571372989,-0.209443,-0.844384,1.08672
4571394739,-0.250308,-0.842601,1.12411
4571410472,-0.292647,-0.839745,1.16297
4571432981,-0.336079,-0.835471,1.2025
4571454701,-0.37977,-0.829452,1.24174
4571470500,-0.423015,-0.821558,1.2805
4571492981,-0.464656,-0.811894,1.3179
4571516118,-0.504609,-0.801154,1.35386
4571530510,-0.542807,-0.790159,1.38807
4571552998,-0.579356,-0.779516,1.42057
4571576164,-0.614061,-0.76889,1.45122
4571590476,-0.646304,-0.757476,1.47975
4571612956,-0.676014,-0.745176,1.50607
4571636097,-0.703218,-0.732598,1.52974
4571650489,-0.727743,-0.720429,1.55077
4571673112,-0.749398,-0.709067,1.56942
4571696175,-0.768501,-0.699,1.58587
4571710515,-0.785074,-0.690419,1.60023
4571733038,-0.799114,-0.683664,1.61222
4571756154,-0.81157,-0.677966,1.6222
4571777227,-0.82313,-0.674262,1.62963
4571793082,-0.83743,-0.672986,1.642
4571816176,-0.849376,-0.670994,1.65123
4571837239,-0.856854,-0.669268,1.65542
4571853034,-0.861356,-0.669828,1.65513
4571876149,-0.860495,-0.674158,1.64903
4571897217,-0.85275,-0.681811,1.63832
4571929131,-0.838466,-0.691367,1.61937
4571936169,-0.819199,-0.701628,1.59535
4571964740,-0.79494,-0.713441,1.56847
4571981148,-0.76961,-0.726256,1.5416
4572002228,-0.745113,-0.739569,1.51377
4572017238,-0.719339,-0.751846,1.48584
4572032218,-0.690736,-0.761232,1.45742
4572046578,-0.661558,-0.77002,1.42844
4572069145,-0.632428,-0.780398,1.39817
4572092230,-0.600458,-0.793684,1.36529
4572106526,-0.563056,-0.806703,1.32928
4572129143,-0.521254,-0.816484,1.28971
4572152233,-0.476708,-0.823902,1.24736
4572168031,-0.431825,-0.830975,1.20386
4572189046,-0.38793,-0.835918,1.16049
4572212215,-0.344605,-0.837463,1.11898
4572235354,-0.303298,-0.837206,1.08075
4572249049,-0.264345,-0.837343,1.04419
4572272212,-0.226664,-0.838058,1.0084
4572286517,-0.189408,-0.838363,0.973263
4572309073,-0.153756,-0.83741,0.939532
4572332205,-0.119867,-0.833897,0.907859
4572346553,-0.0876826,-0.827595,0.879056
4572369057,-0.0588566,-0.821017,0.853889
4572392195,-0.0350831,-0.816147,0.83226
4572406539,-0.0154974,-0.813311,0.814201
4572429139,0.00115622,-0.810864,0.799776
4572452249,0.0142994,-0.808707,0.789303
4572466599,0.0238697,-0.807381,0.782284
4572489129,0.0303369,-0.80663,0.777824
4572512240,0.0336929,-0.805552,0.775859
4572526608,0.0344287,-0.804087,0.776445
4572549046,0.0319699,-0.80357,0.780685
4572572259,0.0268455,-0.80892,0.790521
4572588097,0.0410156,-0.822534,0.777714
4572609126,0.079281,-0.838392,0.758821
4572632247,0.142454,-0.848866,0.73091
4572646602,0.18687,-0.853917,0.728627
4572669080,0.214571,-0.857612,0.745512
4572692419,0.224494,-0.871577,0.789704
4572706576,0.1751,-0.887687,0.894858
4572729224,0.0935511,-0.904842,1.01742
4572752235,0.0024953,-0.91482,1.11886
4572766578,0.0444664,-0.918206,1.08847
4572789240,0.12954,-0.89979,1.07349
4572812401,0.151237,-0.897494,1.06115
4572826732,0.113826,-0.894042,1.07077
4572849246,0.124717,-0.888858,1.08604
4572872394,0.129302,-0.897486,1.11261
4572886749,0.0906539,-0.915338,1.16763
4572909257,0.0469298,-0.934863,1.22526
4572932317,0.01797,-0.958344,1.28763
4572946772,-0.0066005,-0.969011,1.34307
4572969164,-0.0436707,-0.967108,1.40296
4572992482,-0.0821617,-0.96296,1.46555
4573006767,-0.0866701,-0.960187,1.47847
4573029288,-0.0484442,-0.969398,1.43126
4573052266,0.00205432,-0.96514,1.37317
4573066650,0.0227379,-0.954012,1.35411
4573089208,0.0111467,-0.944658,1.36081
4573112356,-0.00893863,-0.933119,1.37117
4573126768,-0.0268482,-0.925733,1.38087
4573149214,-0.0458966,-0.923151,1.39157
4573172442,-0.0583427,-0.926375,1.39639
4573186623,-0.0580701,-0.92959,1.38659
4573209199,-0.0456053,-0.93447,1.36527
4573232390,-0.0317328,-0.939347,1.34255
4573246789,-0.0240314,-0.939747,1.32074
4573269179,-0.0282565,-0.937173,1.30518
4573292328,-0.043413,-0.932932,1.30038
4573308107,-0.0621759,-0.926672,1.30262
4573329345,-0.0763277,-0.919721,1.30591
4573352306,-0.0788483,-0.91325,1.3022
4573366589,-0.0776198,-0.906575,1.29515
4573389247,-0.0804362,-0.902723,1.28934
4573411641,-0.0841511,-0.90043,1.28712
4573426777,-0.0800476,-0.90134,1.28475
4573450558,-0.0738141,-0.902372,1.28117
4573471744,-0.0692432,-0.902041,1.27723
4573486771,-0.0639844,-0.899722,1.27352
4573510667,-0.0610939,-0.899024,1.27015
4573531760,-0.0654106,-0.899371,1.27094
4573546791,-0.069172,-0.899058,1.2732
4573569305,-0.0706152,-0.898442,1.27402
4573593060,-0.0705766,-0.897183,1.27433
4573606791,-0.0668018,-0.896766,1.27345
4573629380,-0.0650229,-0.898305,1.27251
4573653196,-0.0695791,-0.899911,1.27307
4573666745,-0.0750732,-0.901996,1.27499
4573689177,-0.0779701,-0.904968,1.27695
4573721910,-0.0821622,-0.907232,1.27914
4573726736,-0.0822284,-0.908903,1.27866
4573749344,-0.0831726,-0.910848,1.28093
4573771677,-0.0880873,-0.911964,1.28591
4573786751,-0.0927516,-0.911653,1.28956
4573809182,-0.0974619,-0.912888,1.29451
4573825577,-0.102827,-0.914817,1.30095
4573846647,-0.107285,-0.915576,1.30443
4573869272,-0.110932,-0.915303,1.30824
4573885549,-0.110284,-0.914992,1.31062
4573908163,-0.107615,-0.914822,1.31034
4573929205,-0.107893,-0.913655,1.31168
4573945669,-0.109537,-0.911656,1.31421
4573966776,-0.110917,-0.909869,1.31569
4573989303,-0.113043,-0.907777,1.31641
4574005625,-0.114743,-0.907753,1.31813
4574026804,-0.114026,-0.908483,1.31808
4574049222,-0.109929,-0.908934,1.31428
4574071673,-0.107091,-0.909153,1.31003
4574089564,-0.107835,-0.909175,1.30858
4574109281,-0.113398,-0.910604,1.31191
4574125585,-0.120752,-0.912288,1.31581
4574146795,-0.1236,-0.913428,1.3173
4574169305,-0.12073,-0.9134,1.31492
4574187167,-0.117707,-0.911056,1.31098
4574208194,-0.115221,-0.909308,1.30561
4574229254,-0.117063,-0.908344,1.30045
4574245659,-0.122089,-0.906215,1.2995
4574268090,-0.125665,-0.905153,1.30126
4574292031,-0.128968,-0.903902,1.30179
4574305580,-0.131248,-0.902832,1.30102
4574329563,-0.133315,-0.903536,1.29873
4574349161,-0.135298,-0.90446,1.29632
4574371654,-0.135626,-0.905124,1.29579
4574389582,-0.134145,-0.903852,1.29547
4574409301,-0.133202,-0.901964,1.29399
4574433207,-0.134076,-0.900033,1.29199
4574448105,-0.136037,-0.899747,1.29058
4574469289,-0.136514,-0.897429,1.28934
4574485532,-0.136604,-0.894898,1.28931
4574508181,-0.138757,-0.892091,1.28991
4574529238,-0.140474,-0.890549,1.29001
4574547663,-0.142744,-0.890097,1.29182
4574568090,-0.145507,-0.890378,1.2932
4574589338,-0.147101,-0.891617,1.29423
4574605603,-0.147481,-0.892991,1.29451
4574628167,-0.146036,-0.893321,1.29439
4574649211,-0.143926,-0.893629,1.29491
4574671634,-0.143733,-0.894129,1.29668
4574688143,-0.144413,-0.894823,1.29782
4574717411,-0.144299,-0.895466,1.29853
4574725623,-0.143641,-0.8961,1.29896
4574748175,-0.144193,-0.896287,1.29917
4574769303,-0.144074,-0.896188,1.29791
4574785572,-0.14434,-0.895305,1.29633
4574808205,-0.144873,-0.894298,1.29602
4574829289,-0.145108,-0.894711,1.29681
4574847166,-0.146047,-0.896102,1.2979
4574868078,-0.146466,-0.897649,1.29828
4574900177,-0.146488,-0.898542,1.29835
4574905593,-0.146463,-0.898956,1.29735
4574928163,-0.146177,-0.898846,1.2958
4574949178,-0.14687,-0.899416,1.29642
4574971763,-0.147128,-0.899284,1.29717
4574988139,-0.14697,-0.898363,1.29603
4575009349,-0.147466,-0.896333,1.29408
4575025673,-0.146789,-0.895163,1.29308
4575049514,-0.146789,-0.895163,1.29308
4575069315,-0.148276,-0.895362,1.29408
4575085589,-0.148932,-0.895656,1.29591
4575108191,-0.148372,-0.894685,1.29486
4575130603,-0.147176,-0.894628,1.29339
4575145596,-0.146799,-0.894616,1.29251
4575168109,-0.147257,-0.895007,1.29208
4575198766,-0.148629,-0.895364,1.29246
4575205647,-0.148833,-0.895304,1.29272
4575228140,-0.148674,-0.894511,1.29212
4575252103,-0.147606,-0.893699,1.29088
4575265627,-0.146604,-0.892516,1.2902
4575288196,-0.146658,-0.891188,1.28999
4575310524,-0.147222,-0.890658,1.29023
4575327131,-0.147823,-0.890475,1.29047
4575348220,-0.148074,-0.890518,1.29062
4575370692,-0.148157,-0.890315,1.29074
4575401240,-0.148204,-0.890418,1.29064
4575408202,-0.146797,-0.890311,1.2897
4575430591,-0.145133,-0.889626,1.2879
4575447119,-0.145086,-0.889523,1.288
4575468178,-0.145934,-0.89087,1.28883
4575498088,-0.146254,-0.892617,1.28907
4575514546,-0.144948,-0.894563,1.28822
4575527345,-0.143364,-0.896052,1.28703
4575549983,-0.14175,-0.896182,1.28575
4575580489,-0.139488,-0.895735,1.28455
4575587355,-0.139896,-0.896046,1.28655
4575609778,-0.144573,-0.893996,1.29257
4575632311,-0.150586,-0.892646,1.30411
4575648695,-0.161587,-0.892748,1.31741
4575669810,-0.172089,-0.891691,1.33014
4575692470,-0.175851,-0.889394,1.34283
4575707438,-0.180124,-0.887639,1.35707
4575729941,-0.185344,-0.882213,1.37084
4575752368,-0.185787,-0.880685,1.38307
4575767521,-0.188104,-0.880102,1.39321
4575789994,-0.194098,-0.881139,1.40645
4575812453,-0.199915,-0.881023,1.4222
4575827505,-0.204989,-0.881815,1.43584
4575849994,-0.217415,-0.881654,1.45063
4575872415,-0.227429,-0.881249,1.46179
4575887565,-0.238918,-0.881562,1.47892
4575909973,-0.25416,-0.879708,1.49411
4575932513,-0.271459,-0.874295,1.50968
4575947415,-0.282053,-0.868326,1.52279
4575970009,-0.29587,-0.86113,1.53776
4575993751,-0.311214,-0.85664,1.55018
4576007451,-0.32459,-0.853412,1.56346
4576029815,-0.337677,-0.851195,1.57583
4576053803,-0.355267,-0.848287,1.59083
4576068796,-0.371228,-0.843827,1.60514
4576089949,-0.386932,-0.837491,1.6202
4576112412,-0.403561,-0.830606,1.63338
4576128758,-0.419057,-0.823521,1.64562
4576151259,-0.431371,-0.817393,1.65671
4576173813,-0.444673,-0.812317,1.66774
4576187440,-0.457124,-0.808931,1.67743
4576209992,-0.467893,-0.805642,1.68697
4576232365,-0.479339,-0.802844,1.69658
4576248803,-0.491498,-0.799224,1.70579
4576277442,-0.500829,-0.794192,1.71338
4576292476,-0.509258,-0.789033,1.72055
4576308740,-0.517535,-0.784855,1.7264
4576329993,-0.524395,-0.782314,1.73137
4576352436,-0.529147,-0.781789,1.73524
4576368810,-0.533878,-0.782132,1.73831
4576390044,-0.536849,-0.782642,1.73973
4576412366,-0.5384,-0.783035,1.74096
4576428765,-0.539409,-0.782949,1.74085
4576449875,-0.540048,-0.782948,1.73992
4576465662,-0.53866,-0.78342,1.73783
4576488862,-0.536332,-0.785104,1.73502
4576509944,-0.533365,-0.787847,1.73139
4576525699,-0.52867,-0.791983,1.7268
4576548821,-0.522548,-0.796829,1.72075
4576570006,-0.51583,-0.801966,1.71387
4576585633,-0.507453,-0.80648,1.70572
4576608818,-0.49802,-0.810305,1.69704
4576638830,-0.488132,-0.814262,1.6875
4576645636,-0.477544,-0.818699,1.67756
4576668844,-0.465961,-0.823843,1.66705
4576690001,-0.454159,-0.829899,1.65629
4576705755,-0.441495,-0.836408,1.64487
4576736261,-0.427419,-0.842203,1.63226
4576750008,-0.412992,-0.847496,1.61948
4576772357,-0.39834,-0.851967,1.60613
4576788838,-0.383257,-0.855715,1.59252
4576809875,-0.368333,-0.859275,1.57928
4576825667,-0.353845,-0.863067,1.56617
4576848760,-0.33917,-0.867168,1.55336
4576869815,-0.325179,-0.871398,1.54108
4576892309,-0.31184,-0.875192,1.52933
4576908720,-0.298734,-0.878348,1.5179
4576937363,-0.285992,-0.880382,1.50699
4576945586,-0.274358,-0.881779,1.49693
4576968784,-0.263647,-0.882521,1.48779
4576997314,-0.254007,-0.883645,1.47983
4577013735,-0.245588,-0.884589,1.47268
4577028079,-0.238708,-0.885817,1.46706
4577049766,-0.233253,-0.886628,1.46289
4577065569,-0.229158,-0.887062,1.46016
4577088101,-0.226776,-0.886651,1.45847
4577109609,-0.225669,-0.885646,1.45821
4577125670,-0.225865,-0.884105,1.45927
4577154808,-0.227626,-0.882352,1.4616
4577169810,-0.230708,-0.880732,1.46507
4577200021,-0.235247,-0.879373,1.46982
4577214940,-0.241104,-0.878004,1.47582
4577237597,-0.248534,-0.876198,1.48317
4577253877,-0.257376,-0.873812,1.49172
4577268182,-0.267526,-0.870741,1.50152
4577291305,-0.278881,-0.86718,1.51227
4577305636,-0.290637,-0.863384,1.52332
4577328132,-0.302971,-0.859648,1.53476
4577351395,-0.316051,-0.855778,1.54678
4577373876,-0.329503,-0.852167,1.55918
4577388149,-0.343595,-0.848445,1.57196
4577411368,-0.358099,-0.844297,1.58511
4577425676,-0.372799,-0.839488,1.59826
4577456307,-0.387701,-0.834327,1.61152
4577471308,-0.402229,-0.828956,1.62434
4577492395,-0.416609,-0.823731,1.637
4577508162,-0.430367,-0.818765,1.64896
4577531296,-0.443538,-0.814324,1.66041
4577552503,-0.456308,-0.809998,1.67142
4577568139,-0.468732,-0.80589,1.68217
4577591331,-0.48048,-0.80157,1.69241
4577612389,-0.491625,-0.797152,1.70187
4577628213,-0.501737,-0.792813,1.71047
4577651399,-0.510913,-0.788994,1.71811
4577672463,-0.519251,-0.78605,1.72516
4577688179,-0.52632,-0.783715,1.73096
4577711327,-0.532586,-0.781993,1.73626
4577732560,-0.537765,-0.780678,1.74031
4577748088,-0.542036,-0.779913,1.74367
4577771433,-0.545268,-0.779388,1.74603
4577792487,-0.547417,-0.77938,1.74753
4577808259,-0.548486,-0.779523,1.74785
4577831350,-0.54854,-0.780634,1.74748
4577852352,-0.547358,-0.782454,1.74589
4577868166,-0.544993,-0.785004,1.74325
4577891363,-0.541618,-0.788322,1.73973
4577912402,-0.536695,-0.791713,1.73488
4577928232,-0.530936,-0.795402,1.72932
4577951371,-0.524123,-0.79942,1.72288
4577972461,-0.516213,-0.803589,1.71538
4577988142,-0.507588,-0.808157,1.7073
4578010722,-0.498064,-0.813004,1.69848
4578032393,-0.487293,-0.818219,1.68878
4578048109,-0.475946,-0.823728,1.6784
4578070770,-0.46337,-0.829282,1.66713
4578092492,-0.450308,-0.83463,1.65546
4578108249,-0.436848,-0.839658,1.64337
4578130670,-0.422658,-0.844451,1.63073
4578153850,-0.408203,-0.848988,1.61787
4578168183,-0.393622,-0.853467,1.60493
4578190698,-0.378847,-0.857921,1.59192
4578213821,-0.364236,-0.862055,1.57905
4578228205,-0.349738,-0.865903,1.56633
4578250712,-0.335656,-0.869598,1.55414
4578273813,-0.321823,-0.872571,1.54227
4578288290,-0.308537,-0.874976,1.53082
4578310692,-0.295975,-0.877019,1.52017
4578333808,-0.28448,-0.878699,1.51048
4578348069,-0.273675,-0.880317,1.50154
4578370730,-0.264035,-0.881758,1.49372
4578393902,-0.255574,-0.882714,1.48687
4578414871,-0.248558,-0.883409,1.48139
4578430642,-0.242959,-0.88381,1.47726
4578453839,-0.238649,-0.883587,1.47423
4578476404,-0.235953,-0.883012,1.47279
4578490692,-0.234216,-0.882072,1.47222
4578513855,-0.234112,-0.881085,1.47305
4578528611,-0.235495,-0.879914,1.47513
4578550679,-0.23839,-0.878671,1.47869
4578573811,-0.242471,-0.877158,1.48347
4578588197,-0.248091,-0.875099,1.48935
4578610708,-0.255296,-0.872839,1.4967
4578633785,-0.263533,-0.87001,1.50487
4578655053,-0.272889,-0.86701,1.5141
4578678964,-0.283242,-0.863866,1.52418
4578693951,-0.294362,-0.860404,1.53473
4578715030,-0.306178,-0.856962,1.54589
4578730612,-0.318916,-0.853242,1.55764
4578753865,-0.332068,-0.849379,1.56993
4578776405,-0.345584,-0.845191,1.5823
4578790622,-0.359699,-0.840761,1.5951
4578813823,-0.37394,-0.836089,1.60804
4578835029,-0.388074,-0.831488,1.62084
4578850602,-0.402349,-0.826706,1.6335
4578873850,-0.416029,-0.821907,1.64552
4578895092,-0.42951,-0.817365,1.65743
4578910782,-0.442699,-0.812864,1.66884
4578933133,-0.455334,-0.808423,1.67987
4578955119,-0.467702,-0.804092,1.69063
4578978820,-0.479199,-0.799809,1.70047
4578993212,-0.490434,-0.796047,1.7102
4579015040,-0.500828,-0.792345,1.71903
4579029981,-0.510045,-0.789284,1.72697
4579052611,-0.518035,-0.786522,1.73368
4579066745,-0.52552,-0.784215,1.73978
4579089990,-0.531781,-0.782477,1.74507
4579104235,-0.536909,-0.781024,1.74914
4579126784,-0.541195,-0.780174,1.75252
4579150109,-0.544654,-0.779771,1.75521
4579164292,-0.5469,-0.780003,1.75669
4579186867,-0.548271,-0.780721,1.75752
4579209938,-0.548548,-0.782065,1.75729
4579224294,-0.547728,-0.784037,1.75602
4579246951,-0.545716,-0.786472,1.75376
4579270051,-0.542297,-0.789404,1.7503
4579284258,-0.537957,-0.792768,1.74593
4579306853,-0.532405,-0.796514,1.74055
4579329985,-0.525923,-0.80061,1.73426
4579345736,-0.518733,-0.805247,1.72761
4579366765,-0.510409,-0.810112,1.71987
4579389984,-0.501094,-0.815037,1.71122
4579404374,-0.490762,-0.820148,1.70186
4579426856,-0.479573,-0.825421,1.69173
4579449889,-0.467425,-0.83062,1.68063
4579464361,-0.454903,-0.836108,1.66948
4579486899,-0.441333,-0.840996,1.65725
4579509963,-0.427588,-0.846049,1.64513
4579524270,-0.413316,-0.850775,1.63242
4579546944,-0.398599,-0.855259,1.61953
4579570037,-0.384098,-0.859593,1.60672
4579584279,-0.369583,-0.863622,1.59411
4579606807,-0.355222,-0.867018,1.58151
4579630059,-0.341177,-0.870241,1.56952
4579644374,-0.327314,-0.873038,1.55749
4579666751,-0.314118,-0.875538,1.54625
4579689951,-0.301458,-0.87762,1.53566
4579704221,-0.28972,-0.879332,1.52582
4579726859,-0.278955,-0.880795,1.51695
4579749914,-0.269321,-0.881834,1.50906
4579764371,-0.260906,-0.882498,1.50239
4579786899,-0.253831,-0.882686,1.49694
4579810047,-0.247989,-0.882963,1.49276
4579824328,-0.243538,-0.882628,1.48958
4579846832,-0.240182,-0.882131,1.48763
4579870108,-0.238473,-0.881131,1.48704
4579884328,-0.238107,-0.879996,1.48781
4579908282,-0.239225,-0.878674,1.48984
4579930086,-0.241679,-0.876899,1.49308
4579944384,-0.245668,-0.874894,1.49757
4579966746,-0.250961,-0.872873,1.50329
4579989977,-0.257693,-0.870516,1.51034
4580004254,-0.265522,-0.867754,1.51833
4580026741,-0.274612,-0.864876,1.52732
4580049335,-0.284519,-0.861613,1.53678
4580064445,-0.295274,-0.858451,1.54729
4580095088,-0.306816,-0.854816,1.55805
4580109391,-0.318933,-0.851175,1.56949
4580124372,-0.331874,-0.847156,1.58159
4580146819,-0.345077,-0.842921,1.59377
4580169295,-0.35884,-0.838717,1.60633
4580184364,-0.372791,-0.834327,1.61896
4580214983,-0.386866,-0.829894,1.63167
4580229247,-0.400754,-0.825375,1.6441
4580244402,-0.414273,-0.820726,1.65609
4580266800,-0.427301,-0.815959,1.66746
4580289370,-0.440227,-0.811347,1.67872
4580312570,-0.452873,-0.807176,1.68986
4580326742,-0.464749,-0.802867,1.70007
4580349413,-0.476215,-0.798891,1.71005
4580364362,-0.487277,-0.795188,1.71958
4580386899,-0.497413,-0.791786,1.72843
4580409399,-0.506731,-0.788723,1.73633
4580424347,-0.515033,-0.786167,1.74332
4580446873,-0.522601,-0.784117,1.74979
4580469437,-0.528973,-0.782379,1.75506
4580484297,-0.534462,-0.781386,1.75961
4580515033,-0.538867,-0.780539,1.76297
4580530708,-0.542396,-0.780574,1.76582
4580544329,-0.54508,-0.780893,1.76783
4580566776,-0.546809,-0.781753,1.76897
4580589217,-0.547281,-0.783132,1.76892
4580604205,-0.546554,-0.785051,1.76787
4580626748,-0.544725,-0.787602,1.76575
4580649251,-0.541856,-0.790675,1.76257
4580664188,-0.537837,-0.794236,1.75856
4580686752,-0.5328,-0.798067,1.75369
4580709381,-0.526455,-0.802333,1.74759
4580724269,-0.519463,-0.806705,1.74094
4580746799,-0.511498,-0.811557,1.73356
4580769210,-0.502278,-0.816544,1.72511
4580784388,-0.492311,-0.821655,1.71612
4580806741,-0.481491,-0.826934,1.70635
4580829424,-0.469713,-0.832145,1.69562
4580852435,-0.457127,-0.837256,1.68435
4580866944,-0.443908,-0.842242,1.67248
4580889338,-0.430196,-0.847356,1.66037
4580905731,-0.416295,-0.851909,1.64807
4580926912,-0.40195,-0.856363,1.63534
4580949383,-0.387833,-0.860531,1.62295
4580965658,-0.373605,-0.864441,1.61055
4580986723,-0.359437,-0.867828,1.59816
4581009342,-0.345605,-0.871171,1.58632
4581025725,-0.331749,-0.873978,1.57457
4581049725,-0.318588,-0.87634,1.5634
4581069397,-0.305891,-0.878245,1.55265
4581087172,-0.294003,-0.879755,1.54273
4581114976,-0.283412,-0.880754,1.53401
4581129505,-0.273531,-0.881693,1.52606
4581162032,-0.265158,-0.882197,1.51946
4581166743,-0.257979,-0.882534,1.51401
4581190719,-0.252103,-0.882472,1.50978
4581205783,-0.247614,-0.881869,1.50678
4581229642,-0.24422,-0.881151,1.50468
