timestamp,x,y,z,w
492126103471,0.26825,-0.010498,-0.377808,0.886108
492126118449,0.268433,-0.0102539,-0.377808,0.885986
492126142091,0.268433,-0.0102539,-0.377808,0.885986
492126163432,0.268494,-0.0102539,-0.377808,0.885986
492126178443,0.268494,-0.0102539,-0.377808,0.885986
492126232819,0.268433,-0.0102539,-0.377808,0.885986
492126234915,0.268433,-0.0102539,-0.377808,0.885986
492126241098,0.268433,-0.0102539,-0.377808,0.885986
492126249888,0.268433,-0.0102539,-0.377808,0.885986
492126270546,0.268494,-0.0102539,-0.377808,0.885986
492126292791,0.268494,-0.0103149,-0.377808,0.885986
492126314231,0.268494,-0.0103149,-0.377808,0.885986
492126358320,0.268555,-0.0103149,-0.377808,0.885986
492126367866,0.268494,-0.0103149,-0.377808,0.885986
492126373962,0.268494,-0.0103149,-0.377808,0.885986
492126388975,0.268494,-0.0103149,-0.377808,0.885986
492126411513,0.268494,-0.0103149,-0.377808,0.885986
492126425824,0.268555,-0.0103149,-0.377808,0.885986
492126448361,0.268555,-0.0103149,-0.377808,0.885986
492126470885,0.268616,-0.0103149,-0.377808,0.885986
492126485850,0.268127,-0.0102539,-0.377808,0.886108
492126508360,0.268127,-0.0102539,-0.377808,0.886108
492126530841,0.268311,-0.00994873,-0.377747,0.886108
492126545820,0.268311,-0.00958252,-0.377808,0.886108
492126568270,0.268005,-0.00933838,-0.377808,0.886169
492126590924,0.268005,-0.00933838,-0.377808,0.886169
492126605837,0.267944,-0.00915527,-0.377808,0.886169
492126628348,0.267761,-0.00909424,-0.377869,0.88623
492126650847,0.267822,-0.00909424,-0.377869,0.88623
492126665831,0.267822,-0.00909424,-0.377869,0.88623
492126688261,0.267578,-0.00915527,-0.377869,0.886292
492126710827,0.267517,-0.00915527,-0.377869,0.886292
492126725852,0.267578,-0.00915527,-0.377869,0.886292
492126748291,0.267517,-0.00915527,-0.377869,0.886292
492126779551,0.267578,-0.00921631,-0.377869,0.886292
492126785899,0.267578,-0.00915527,-0.377869,0.886292
492126816435,0.267395,-0.0090332,-0.377869,0.886353
492126830781,0.267395,-0.0090332,-0.377869,0.886353
492126853249,0.267395,-0.0090332,-0.377869,0.886353
492126868215,0.267395,-0.0090332,-0.377869,0.886353
492126890744,0.267395,-0.0090332,-0.377869,0.886353
492126913327,0.267395,-0.0090332,-0.377869,0.886353
492126928276,0.267395,-0.0090332,-0.377869,0.886353
492126950768,0.267395,-0.0090332,-0.377869,0.886292
492126965910,0.267395,-0.0090332,-0.377869,0.886353
492126988393,0.267456,-0.0090332,-0.377869,0.886292
492127010848,0.267456,-0.0090332,-0.377869,0.886292
492127025810,0.267456,-0.00897217,-0.377869,0.886292
492127048294,0.267517,-0.00921631,-0.377808,0.886292
492127070803,0.267517,-0.00946045,-0.377808,0.886353
492127085813,0.267517,-0.00952148,-0.377747,0.886353
492127108287,0.267517,-0.00952148,-0.377747,0.886353
492127130813,0.267578,-0.00952148,-0.377747,0.886353
492127145807,0.267578,-0.00952148,-0.377747,0.886353
492127168279,0.267639,-0.00970459,-0.377686,0.886353
492127190730,0.267883,-0.00994873,-0.377563,0.886292
492127213215,0.268311,-0.0100098,-0.377502,0.88623
492127228229,0.268311,-0.0100098,-0.377502,0.88623
492127250733,0.26825,-0.0100098,-0.377502,0.88623
492127265815,0.268372,-0.010437,-0.377441,0.88623
492127289729,0.268616,-0.0111694,-0.377319,0.886169
492127310876,0.268921,-0.0119019,-0.377197,0.886108
492127325733,0.27002,-0.0128174,-0.376831,0.885925
492127349808,0.271301,-0.0135498,-0.376465,0.885681
492127370885,0.272766,-0.0144043,-0.376038,0.885376
492127393369,0.273926,-0.0153198,-0.375854,0.885132
492127409779,0.274719,-0.0163574,-0.37561,0.884949
492127430796,0.275574,-0.017334,-0.375549,0.884705
492127453344,0.277039,-0.0182495,-0.375366,0.884277
492127469724,0.278381,-0.0188599,-0.375122,0.883972
492127490766,0.279358,-0.0194092,-0.374878,0.883728
492127513370,0.280029,-0.0200195,-0.374573,0.883606
492127531212,0.280823,-0.0202637,-0.374084,0.883606
492127550846,0.282043,-0.0200195,-0.373596,0.883423
492127573328,0.283691,-0.0198364,-0.373047,0.883118
492127591195,0.284607,-0.0196533,-0.372681,0.882996
492127610864,0.2854,-0.0192261,-0.372314,0.882874
492127633252,0.28772,-0.0189209,-0.37207,0.882263
492127651178,0.291565,-0.0194092,-0.371399,0.881226
492127670793,0.295227,-0.0195923,-0.370422,0.880432
492127693333,0.299683,-0.0192261,-0.369324,0.879456
492127711274,0.305115,-0.0184937,-0.367981,0.878113
492127730806,0.310486,-0.0167847,-0.366516,0.876892
492127753342,0.315369,-0.0142822,-0.364868,0.875854
492127771298,0.319153,-0.0113525,-0.363037,0.875305
492127790837,0.322449,-0.00817871,-0.360901,0.875061
492127813330,0.325806,-0.00512695,-0.358582,0.874756
492127831219,0.329712,-0.00219727,-0.356506,0.874146
492127850924,0.334351,0.000488281,-0.354248,0.873352
492127873350,0.339722,0.00280762,-0.351685,0.872253
492127891205,0.345947,0.00457764,-0.348877,0.870911
492127910798,0.35321,0.00598145,-0.345947,0.869141
492127933270,0.361267,0.0065918,-0.342712,0.867188
492127951161,0.369995,0.00726318,-0.339111,0.864868
492127970787,0.379211,0.00836182,-0.335266,0.862366
492127993285,0.388123,0.00994873,-0.331116,0.859985
492128011195,0.396179,0.012207,-0.326416,0.858093
492128030866,0.403809,0.0150757,-0.321472,0.856323
492128053387,0.410767,0.0184326,-0.316162,0.854919
492128071235,0.416992,0.0220947,-0.31073,0.853821
492128090819,0.423157,0.0259399,-0.305054,0.852722
492128120870,0.429688,0.0292358,-0.299011,0.851501
492128131234,0.436646,0.0318604,-0.292786,0.850037
492128152279,0.443237,0.0344238,-0.286804,0.848511
492128173353,0.448853,0.0374146,-0.281311,0.84729
492128191213,0.453369,0.0403442,-0.275818,0.846558
492128212270,0.457458,0.043396,-0.270264,0.846008
492128233409,0.46106,0.0467529,-0.264648,0.845642
492128251274,0.46344,0.050415,-0.259277,0.845825
492128272264,0.46582,0.0537109,-0.254395,0.845764
492128293381,0.468933,0.0570068,-0.250122,0.845093
492128311255,0.4729,0.0604248,-0.245728,0.843994
492128332242,0.477356,0.0643311,-0.241028,0.842529
492128353391,0.482178,0.0683594,-0.23584,0.840881
492128371249,0.486816,0.0726929,-0.23053,0.839355
492128398274,0.491028,0.0773315,-0.225037,0.837952
492128413272,0.494873,0.0819092,-0.219177,0.836792
492128431225,0.499023,0.0855713,-0.213135,0.835571
492128453676,0.50354,0.0884399,-0.207764,0.833923
492128473289,0.508423,0.090271,-0.203064,0.831909
492128491159,0.51416,0.0906372,-0.198425,0.829468
492128513701,0.519531,0.09021,-0.193298,0.827332
492128533260,0.524414,0.09021,-0.188049,0.8255
492128551264,0.529358,0.0914917,-0.183228,0.823242
492128573735,0.534607,0.0934448,-0.178955,0.820557
492128593285,0.539001,0.0959473,-0.175537,0.818176
492128611203,0.540771,0.100098,-0.173645,0.816895
492128633735,0.539673,0.106018,-0.172729,0.817078
492128653334,0.537415,0.112183,-0.171692,0.817993
492128670387,0.53656,0.118469,-0.170227,0.817932
492128693775,0.538086,0.125366,-0.168274,0.816345
492128713990,0.541199,0.133118,-0.165283,0.813599
492128730453,0.544495,0.142273,-0.161011,0.81073
492128752894,0.547607,0.151978,-0.155273,0.807983
492128773985,0.550659,0.162292,-0.149536,0.804993
492128790480,0.555359,0.171936,-0.143616,0.800842
492128812922,0.562805,0.180969,-0.137451,0.794678
492128833968,0.571838,0.188782,-0.130676,0.787537
492128850446,0.580688,0.195374,-0.123352,0.78064
492128872920,0.589355,0.201355,-0.117615,0.773438
492128894002,0.598206,0.205322,-0.112244,0.766357
492128909800,0.604919,0.208374,-0.106812,0.760986
492128932896,0.607788,0.210632,-0.100769,0.758972
492128953937,0.607239,0.211914,-0.0945435,0.759827
492128970363,0.606323,0.211304,-0.0884399,0.761475
492128992909,0.605896,0.209167,-0.0825806,0.763062
492129013928,0.605286,0.206238,-0.0775757,0.764832
492129031050,0.604004,0.202271,-0.0732422,0.767334
492129052923,0.601868,0.197449,-0.0701294,0.770569
492129073985,0.600586,0.192139,-0.0679321,0.773071
492129090419,0.599792,0.187012,-0.0661621,0.775085
492129112896,0.598267,0.182373,-0.0645142,0.777527
492129134041,0.595764,0.178467,-0.0635376,0.780457
492129150434,0.594299,0.174561,-0.0634766,0.782471
492129172956,0.59375,0.17041,-0.0632324,0.783813
492129193925,0.59259,0.166443,-0.062439,0.785583
492129209794,0.592163,0.162842,-0.0617676,0.786682
492129233444,0.593445,0.159119,-0.0614014,0.78656
492129261435,0.595398,0.154846,-0.0610962,0.78595
492129269758,0.598633,0.14978,-0.0605469,0.784485
492129292930,0.602356,0.144287,-0.0595093,0.782715
492129313968,0.607178,0.139465,-0.0584106,0.779968
492129329785,0.612122,0.136536,-0.057312,0.776733
492129352936,0.615967,0.135437,-0.0565186,0.773926
492129375404,0.619446,0.135315,-0.0565186,0.771179
492129389754,0.622803,0.134888,-0.0568237,0.768494
492129412919,0.624756,0.133911,-0.0565796,0.76709
492129435428,0.625,0.132629,-0.055481,0.767212
492129449775,0.624634,0.131226,-0.053894,0.767822
492129472980,0.624939,0.130066,-0.0526123,0.767944
492129495525,0.625854,0.129517,-0.0519409,0.767334
492129510414,0.626709,0.129395,-0.0518188,0.766602
492129532907,0.62677,0.129456,-0.0517578,0.766541
492129555439,0.626038,0.129578,-0.0514526,0.767151
492129569838,0.625061,0.129578,-0.0513916,0.768005
492129592916,0.624023,0.129578,-0.0513916,0.768799
492129615418,0.622375,0.129517,-0.0512085,0.770203
492129629789,0.620422,0.129456,-0.0508423,0.77179
492129652943,0.61908,0.129639,-0.0506592,0.772827
492129675409,0.61853,0.129944,-0.0505981,0.773254
492129689806,0.618347,0.130188,-0.050415,0.773376
492129712918,0.618225,0.130432,-0.0501099,0.773376
492129735398,0.61731,0.130981,-0.0500488,0.774048
492129749753,0.615662,0.131409,-0.0501709,0.775269
492129772964,0.613892,0.131592,-0.0505981,0.776672
492129795429,0.611938,0.131714,-0.0511475,0.778137
492129809805,0.610107,0.131775,-0.0515747,0.77948
492129832925,0.608948,0.131836,-0.0519409,0.780396
492129855448,0.608276,0.131897,-0.0521851,0.780884
492129876468,0.607849,0.132141,-0.0523071,0.781189
492129892916,0.607788,0.132568,-0.0524902,0.781128
492129915499,0.608521,0.132874,-0.0527344,0.780518
492129937050,0.60968,0.132996,-0.0527954,0.779541
492129952943,0.610657,0.133057,-0.0527344,0.778809
492129975444,0.610718,0.133057,-0.0526733,0.778748
492129996515,0.610596,0.13324,-0.0527344,0.778809
492130012955,0.610229,0.133301,-0.0527954,0.779114
492130035413,0.609802,0.133423,-0.0527954,0.779358
492130056236,0.609253,0.133545,-0.0527344,0.779785
492130072894,0.608887,0.133972,-0.0528564,0.780029
492130095430,0.608398,0.13446,-0.0530396,0.780273
492130116508,0.608093,0.134827,-0.0532227,0.780457
492130133373,0.608215,0.134949,-0.0534668,0.780334
492130155447,0.608948,0.134888,-0.0535889,0.779785
492130176504,0.609497,0.134705,-0.0534058,0.779358
492130192928,0.609375,0.134521,-0.0529785,0.779541
492130215444,0.60907,0.13446,-0.0527954,0.779785
492130244044,0.60907,0.13446,-0.0527954,0.779785
492130252933,0.609253,0.134521,-0.0529175,0.779602
492130275488,0.609375,0.134705,-0.0529785,0.77948
492130296942,0.609436,0.134888,-0.0531616,0.779419
492130312915,0.609558,0.13501,-0.0532837,0.779236
492130335198,0.609863,0.135193,-0.0534668,0.778992
492130358023,0.610229,0.135254,-0.0535278,0.778687
492130372918,0.610229,0.135315,-0.0535278,0.778687
492130395452,0.610107,0.135315,-0.0532837,0.778809
492130417978,0.60968,0.135315,-0.0531616,0.779114
492130432981,0.609375,0.135315,-0.0532227,0.779358
492130455505,0.609375,0.135315,-0.0532227,0.779358
492130478003,0.609375,0.135254,-0.0532227,0.779358
492130492271,0.609375,0.135254,-0.0532227,0.779358
492130515556,0.609802,0.135254,-0.0533447,0.779053
492130538103,0.610535,0.135071,-0.0534668,0.778503
492130552292,0.611145,0.134827,-0.0534058,0.778076
492130575478,0.61145,0.134705,-0.0534058,0.777832
492130598041,0.61145,0.134705,-0.0534058,0.777832
492130612332,0.611328,0.134644,-0.0533447,0.777954
492130635452,0.610901,0.134521,-0.0534058,0.77832
492130657979,0.610596,0.134155,-0.0535889,0.778625
492130672304,0.610718,0.133789,-0.053833,0.778564
492130695445,0.61084,0.133423,-0.053894,0.778503
492130717941,0.610474,0.13324,-0.053772,0.778809
492130732301,0.609985,0.13324,-0.0535889,0.779236
492130755459,0.609985,0.13324,-0.0535889,0.779236
492130777914,0.609985,0.13324,-0.0535889,0.779236
492130792266,0.609924,0.132996,-0.0534058,0.779297
492130815424,0.609863,0.132812,-0.0531006,0.779419
492130837948,0.609802,0.132629,-0.0529175,0.77948
492130859030,0.610046,0.132629,-0.0528564,0.779358
492130875509,0.610046,0.132568,-0.0528564,0.779297
492130898003,0.609985,0.132507,-0.0524902,0.779419
492130919068,0.609741,0.132568,-0.0521851,0.779663
492130935547,0.609436,0.132629,-0.052002,0.779846
492130958066,0.609436,0.132629,-0.052002,0.779846
492130979114,0.609497,0.13269,-0.0518188,0.779785
492130995455,0.609619,0.13269,-0.0515747,0.779724
492131018043,0.609741,0.13269,-0.0512695,0.779663
492131039141,0.609924,0.13269,-0.0511475,0.779541
492131055593,0.610168,0.13269,-0.0510864,0.779358
492131078031,0.610229,0.132751,-0.0510864,0.779297
492131099107,0.610046,0.13269,-0.0509644,0.779419
492131115498,0.609863,0.132568,-0.0509033,0.779663
492131137988,0.609802,0.132568,-0.0509033,0.779663
492131159072,0.609985,0.132385,-0.0508423,0.779602
492131175538,0.610168,0.132263,-0.0508423,0.779419
492131197980,0.610474,0.132202,-0.0508423,0.779236
492131219110,0.610657,0.13208,-0.0507202,0.779114
492131235542,0.610657,0.13208,-0.0507202,0.779114
492131257912,0.610657,0.13208,-0.0507202,0.779114
492131280476,0.610901,0.132202,-0.0507202,0.77887
492131295545,0.611267,0.132202,-0.0506592,0.778625
492131318019,0.611389,0.132141,-0.0505981,0.778503
492131340474,0.611511,0.13208,-0.0505981,0.778442
492131355500,0.611694,0.132019,-0.0505981,0.778259
492131378090,0.612061,0.131897,-0.0506592,0.778015
492131406558,0.612305,0.131836,-0.0506592,0.777832
492131415489,0.612305,0.131836,-0.0506592,0.777832
492131437943,0.612305,0.131836,-0.0506592,0.777832
492131460494,0.612305,0.131836,-0.0506592,0.777832
492131474899,0.612549,0.131836,-0.0507202,0.777649
492131498035,0.612549,0.131836,-0.0507202,0.777649
492131520594,0.612549,0.131836,-0.0507202,0.777649
492131534902,0.612549,0.13208,-0.0505981,0.777649
492131558049,0.612488,0.132263,-0.0504761,0.777649
492131580482,0.612671,0.132263,-0.050415,0.777527
492131594870,0.613159,0.132202,-0.050415,0.7771
492131617996,0.613525,0.132019,-0.050354,0.776917
492131640579,0.613525,0.131836,-0.0501709,0.776917
492131654810,0.613403,0.131775,-0.0499878,0.777039
492131678061,0.613403,0.131714,-0.0499878,0.777039
492131700449,0.613464,0.131714,-0.0499268,0.777039
492131714836,0.613464,0.131714,-0.0499268,0.777039
492131738036,0.613281,0.131592,-0.0497437,0.777222
492131760565,0.612915,0.131531,-0.0496216,0.777466
492131781547,0.612732,0.131531,-0.0496216,0.777649
492131798008,0.612732,0.13147,-0.0496216,0.777649
492131820553,0.612488,0.131409,-0.0495605,0.777832
492131841633,0.612244,0.131409,-0.0494995,0.778015
492131858016,0.612061,0.131348,-0.0494995,0.778198
492131880543,0.612061,0.131348,-0.0494995,0.778198
492131901567,0.612061,0.131348,-0.0494995,0.778198
492131918056,0.612061,0.131348,-0.0494995,0.778198
492131940569,0.611938,0.131226,-0.0493164,0.77832
492131961568,0.611877,0.131226,-0.0493164,0.778381
492131978081,0.611938,0.131226,-0.0493164,0.778381
492132000585,0.611938,0.131165,-0.0493164,0.77832
492132021618,0.611938,0.131226,-0.0493164,0.77832
492132038055,0.612,0.131226,-0.0493164,0.77832
492132060497,0.612,0.131226,-0.0493164,0.77832
492132082995,0.611694,0.131287,-0.0493164,0.778503
492132098053,0.611511,0.131409,-0.0493774,0.778625
492132120577,0.611328,0.13147,-0.0493774,0.778748
492132141676,0.611145,0.13147,-0.0493774,0.778931
492132158010,0.611145,0.13147,-0.0493774,0.778931
492132180582,0.611145,0.13147,-0.0493774,0.778931
492132201520,0.611145,0.13147,-0.0493164,0.778931
492132218079,0.611145,0.13147,-0.0493164,0.778931
492132240533,0.611145,0.13147,-0.0493164,0.778931
492132262973,0.611084,0.13147,-0.0493164,0.778931
492132284132,0.611145,0.13147,-0.0493164,0.778931
492132300502,0.611145,0.13147,-0.0493164,0.778931
492132322976,0.611145,0.13147,-0.0493164,0.778931
492132338067,0.610901,0.131592,-0.0493164,0.779053
492132360563,0.610657,0.131714,-0.0493164,0.779236
492132383061,0.610657,0.131714,-0.0493164,0.779236
492132397321,0.610657,0.131714,-0.0493164,0.779236
492132420543,0.610657,0.131653,-0.0493164,0.779297
492132443120,0.610657,0.131714,-0.0493164,0.779297
492132457401,0.610657,0.131653,-0.0493164,0.779236
492132480516,0.610596,0.131836,-0.0491943,0.779297
492132503058,0.610291,0.132141,-0.0491943,0.77948
492132517378,0.610046,0.132385,-0.0493164,0.779602
492132540543,0.610046,0.132385,-0.0493774,0.779602
492132563123,0.610168,0.132385,-0.0494385,0.779541
492132577381,0.610168,0.132385,-0.0494385,0.779541
492132608088,0.610168,0.132385,-0.0494385,0.779541
492132623020,0.610168,0.132385,-0.0494385,0.77948
492132637346,0.610168,0.132385,-0.0494385,0.77948
492132660510,0.610046,0.132385,-0.0493164,0.779602
492132683136,0.609802,0.132446,-0.0492554,0.779785
492132697406,0.609802,0.132446,-0.0492554,0.779785
492132720487,0.60968,0.132446,-0.0491943,0.779846
492132743103,0.60968,0.132446,-0.0491943,0.779907
492132764095,0.60968,0.132446,-0.0491943,0.779907
492132780574,0.60968,0.132446,-0.0491943,0.779907
492132803073,0.60968,0.132446,-0.0491333,0.779907
492132824134,0.60968,0.132385,-0.0491333,0.779907
492132840607,0.60968,0.132385,-0.0491333,0.779907
492132863028,0.60968,0.132385,-0.0491333,0.779907
492132884162,0.60968,0.132446,-0.0491333,0.779907
492132900554,0.60968,0.132446,-0.0491943,0.779907
492132922976,0.60968,0.132446,-0.0491943,0.779907
492132944155,0.60968,0.132446,-0.0491943,0.779907
492132960524,0.609741,0.132446,-0.0491333,0.779846
492132983110,0.609619,0.132446,-0.0493774,0.779907
492133005558,0.610046,0.132202,-0.0499268,0.779602
492133020560,0.610901,0.131775,-0.0504761,0.778992
492133043037,0.612,0.131042,-0.0508423,0.778198
492133064040,0.613037,0.130554,-0.0514526,0.777466
492133080532,0.614685,0.130493,-0.0523682,0.776062
492133102993,0.61792,0.130188,-0.0534058,0.773499
492133124070,0.622681,0.129456,-0.0545044,0.769714
492133139869,0.627686,0.128906,-0.0556641,0.765625
492133162999,0.632446,0.129578,-0.0569458,0.761475
492133185623,0.636475,0.131348,-0.057312,0.757812
492133200006,0.638123,0.134216,-0.0564575,0.755981
492133223083,0.637085,0.13855,-0.0540161,0.756287
492133245528,0.63324,0.145325,-0.0499878,0.758484
492133259987,0.625549,0.154602,-0.0440063,0.763367
492133283040,0.612854,0.166321,-0.036377,0.771606
492133305489,0.599792,0.179504,-0.0276489,0.779236
492133326729,0.588867,0.193298,-0.0182495,0.784485
492133343128,0.582642,0.209106,-0.0088501,0.785278
492133365549,0.579041,0.226196,0.000915527,0.783264
492133394106,0.575439,0.24408,0.0119629,0.780396
492133402972,0.570679,0.262085,0.0249023,0.777771
492133425538,0.565308,0.280579,0.0393066,0.774658
492133446584,0.560242,0.299866,0.0546875,0.770142
492133462986,0.555542,0.319763,0.0708618,0.764221
492133485979,0.550293,0.339722,0.0877686,0.757629
492133514054,0.544434,0.359741,0.105164,0.750366
492133522996,0.538574,0.379456,0.122314,0.742188
492133545520,0.533386,0.398804,0.138977,0.732849
492133566593,0.528809,0.417664,0.154419,0.722473
492133582990,0.52356,0.436401,0.169189,0.711853
492133605483,0.517456,0.454102,0.182251,0.701904
492133626602,0.51001,0.471375,0.195496,0.692322
492133643045,0.502441,0.486084,0.210022,0.683411
492133672031,0.493652,0.499146,0.226074,0.675232
492133686593,0.484497,0.51001,0.241577,0.668274
492133703033,0.475342,0.519714,0.256958,0.661682
492133725533,0.467285,0.528259,0.271423,0.654846
492133746569,0.461365,0.536438,0.28479,0.646667
492133763043,0.456116,0.543762,0.297302,0.63855
492133785466,0.451294,0.549744,0.309265,0.631104
492133806576,0.447449,0.554626,0.320129,0.624207
492133823024,0.443787,0.558228,0.330505,0.618164
492133845512,0.440796,0.560669,0.340088,0.612854
492133866587,0.439514,0.562561,0.348022,0.607544
492133883085,0.439209,0.563477,0.355164,0.602783
492133905498,0.437744,0.563721,0.362183,0.599426
492133926601,0.435608,0.564087,0.368103,0.597046
492133942427,0.43396,0.564331,0.372742,0.595093
492133965469,0.433105,0.564636,0.376282,0.593201
492133986598,0.432922,0.565186,0.37915,0.591003
492134002394,0.432434,0.565735,0.381531,0.589233
492134009898,0.431458,0.566345,0.383179,0.588318
492134030950,0.430786,0.567078,0.383728,0.587769
492134053433,0.430908,0.567993,0.383301,0.587097
492134069900,0.431152,0.569092,0.382263,0.586548
492134090941,0.43103,0.569824,0.381042,0.58667
492134113387,0.430481,0.570007,0.380005,0.587585
492134135945,0.429565,0.56958,0.379089,0.589233
492134150940,0.428528,0.568848,0.37793,0.591431
492134173412,0.427917,0.568115,0.376282,0.593628
492134188440,0.427795,0.567444,0.374207,0.595703
492134210932,0.428101,0.567017,0.371582,0.597534
492134233415,0.428528,0.567261,0.367554,0.599426
492134249914,0.429382,0.568237,0.361755,0.60144
492134270936,0.430481,0.569031,0.355103,0.603882
492134293442,0.431519,0.56958,0.348022,0.60675
492134309894,0.432251,0.569458,0.340759,0.610474
492134330945,0.433044,0.56842,0.333618,0.614807
492134353376,0.43396,0.566284,0.32666,0.619873
492134369919,0.434814,0.562805,0.319214,0.626221
492134390907,0.436035,0.557678,0.311401,0.63385
492134413486,0.437805,0.55188,0.303101,0.641663
492134437427,0.440186,0.546082,0.294495,0.648926
492134450978,0.442871,0.5401,0.286072,0.655884
492134473477,0.445312,0.532715,0.277893,0.663757
492134489920,0.447266,0.524353,0.269287,0.672546
492134510970,0.450439,0.516418,0.25885,0.680603
492134533458,0.456482,0.509155,0.246582,0.686646
492134549905,0.464478,0.500854,0.234253,0.69165
492134570959,0.47113,0.490173,0.222534,0.698669
492134596804,0.476929,0.478516,0.210693,0.706421
492134609905,0.483582,0.467834,0.197266,0.712891
492134630941,0.491943,0.457153,0.183044,0.717896
492134653442,0.500244,0.444702,0.169678,0.723267
492134669930,0.506042,0.430969,0.15802,0.730164
492134690935,0.510498,0.417969,0.146118,0.737061
492134713479,0.516602,0.405823,0.132568,0.742065
492134729895,0.524231,0.393127,0.118652,0.745972
492134750946,0.53186,0.378662,0.105652,0.75
492134773450,0.537598,0.363281,0.0930176,0.755127
492134789908,0.543213,0.348389,0.0794067,0.759705
492134810949,0.550781,0.333557,0.0650024,0.762268
492134833449,0.558533,0.317627,0.052002,0.764404
492134849918,0.563904,0.300293,0.0407104,0.768188
492134870919,0.566284,0.282104,0.0299683,0.773804
492134893432,0.568115,0.263855,0.0189819,0.779236
492134909893,0.571533,0.24585,0.0088501,0.782776
492134930938,0.575562,0.228027,0.000427246,0.785278
492134953447,0.578308,0.210815,-0.0065918,0.788025
492134969902,0.579651,0.194458,-0.0131226,0.791138
492134990956,0.581848,0.179932,-0.0194702,0.792847
492135013451,0.583923,0.166626,-0.0249634,0.794067
492135029907,0.584167,0.153503,-0.0292969,0.796387
492135050937,0.583252,0.141846,-0.0322876,0.799133
492135073382,0.581909,0.132507,-0.0342407,0.801575
492135091338,0.580139,0.125793,-0.0352783,0.803894
492135110983,0.57782,0.120544,-0.0351562,0.806396
492135133447,0.575378,0.11615,-0.0338745,0.808838
492135151352,0.573425,0.112244,-0.0323486,0.810791
492135170926,0.571411,0.108398,-0.0302734,0.812866
492135193476,0.569031,0.104431,-0.027771,0.815125
492135211340,0.56665,0.100586,-0.0252686,0.817322
492135231039,0.565674,0.0964966,-0.0228882,0.818604
492135253537,0.565552,0.0917358,-0.0203857,0.819275
492135271386,0.565674,0.0871582,-0.0175171,0.819763
492135291042,0.565063,0.0836792,-0.0140991,0.820618
492135313502,0.563843,0.0820923,-0.010437,0.821655
492135338926,0.562134,0.0820923,-0.00695801,0.822876
492135358546,0.561462,0.0827026,-0.00421143,0.823303
492135380950,0.561401,0.0838013,-0.00286865,0.823242
492135391395,0.56134,0.085144,-0.00268555,0.82312
492135410979,0.561646,0.0859985,-0.00286865,0.822815
492135433533,0.561646,0.0858765,-0.00317383,0.822876
492135451343,0.561401,0.085144,-0.00354004,0.82312
492135471026,0.561768,0.0845337,-0.00402832,0.822876
492135493494,0.562012,0.0841064,-0.00408936,0.822754
492135511416,0.561157,0.0838013,-0.00378418,0.823364
492135531052,0.560181,0.0837402,-0.00335693,0.824036
492135553433,0.559814,0.0839844,-0.00323486,0.82428
492135571341,0.559753,0.0843506,-0.00317383,0.82428
492135592432,0.55957,0.0846558,-0.00305176,0.824402
492135616363,0.559448,0.0849609,-0.00311279,0.824402
492135631396,0.559509,0.085022,-0.00317383,0.824402
492135651035,0.559326,0.085022,-0.00323486,0.824524
492135673594,0.55896,0.0849609,-0.00317383,0.824768
492135691427,0.558655,0.0849609,-0.00305176,0.824951
492135712492,0.558411,0.0849609,-0.00286865,0.825134
492135733480,0.558411,0.0849609,-0.00286865,0.825134
492135751380,0.558838,0.085083,-0.00286865,0.824829
492135772486,0.559265,0.0852051,-0.00268555,0.824524
492135793521,0.559265,0.0855103,-0.00262451,0.824463
492135811405,0.559265,0.0855713,-0.00262451,0.824463
492135832511,0.559448,0.0856934,-0.00274658,0.824341
492135853514,0.559998,0.0856934,-0.00286865,0.823975
492135871413,0.560364,0.0856934,-0.00286865,0.82373
492135892467,0.560364,0.0856323,-0.00286865,0.82373
492135913509,0.560364,0.0856323,-0.00286865,0.82373
492135931377,0.560425,0.0856323,-0.00286865,0.82373
492135952518,0.560791,0.0858154,-0.00286865,0.823425
492135973411,0.560791,0.0858154,-0.00286865,0.823425
492135991373,0.560608,0.0859985,-0.00274658,0.823547
492136018440,0.560547,0.0859985,-0.00274658,0.823547
492136033428,0.560791,0.0861206,-0.00280762,0.823425
492136051395,0.561096,0.0861816,-0.00292969,0.823181
492136073900,0.561096,0.0861816,-0.00292969,0.823181
492136093596,0.561096,0.0862427,-0.00292969,0.823181
492136111471,0.561096,0.0862427,-0.00292969,0.823181
492136133944,0.56134,0.0861206,-0.00299072,0.823059
492136153527,0.561646,0.0860596,-0.00299072,0.822815
492136171436,0.561951,0.0860596,-0.00299072,0.822632
492136193953,0.561951,0.0860596,-0.00299072,0.822632
492136216430,0.562073,0.0859985,-0.0032959,0.82251
492136231480,0.562561,0.0858154,-0.00366211,0.822205
492136253907,0.563416,0.0856323,-0.00396729,0.821655
492136273471,0.564148,0.0855103,-0.00402832,0.821167
492136291398,0.564453,0.0855713,-0.00402832,0.820984
492136313949,0.564758,0.0856934,-0.00427246,0.82074
492136333518,0.565247,0.0857544,-0.00463867,0.820374
492136351435,0.565735,0.0856934,-0.00476074,0.820068
492136373890,0.565735,0.0856934,-0.00476074,0.820068
492136393419,0.565735,0.0856934,-0.00476074,0.820007
492136411396,0.565979,0.0858154,-0.00488281,0.819885
492136433907,0.565979,0.0858154,-0.00488281,0.819885
492136453506,0.565918,0.0858765,-0.00488281,0.819946
492136471367,0.565918,0.0858765,-0.00488281,0.819885
492136493898,0.565918,0.0858765,-0.00488281,0.819885
492136513475,0.565979,0.0858765,-0.00488281,0.819885
492136531497,0.565979,0.0858765,-0.00488281,0.819885
492136553140,0.56604,0.0858765,-0.00488281,0.819824
492136574125,0.565918,0.0859985,-0.00469971,0.819885
492136590680,0.565674,0.0861816,-0.00463867,0.820068
492136613203,0.56543,0.0863647,-0.00457764,0.82019
492136634279,0.565186,0.0866089,-0.0045166,0.820374
492136650610,0.564758,0.0869141,-0.00445557,0.820618
492136673120,0.564392,0.0872192,-0.00439453,0.820801
492136694262,0.564148,0.0875854,-0.00427246,0.820984
492136710726,0.563721,0.0878296,-0.00415039,0.821228
492136733136,0.563293,0.0881348,-0.00402832,0.821472
492136754221,0.562988,0.0883179,-0.00390625,0.821655
492136771144,0.562988,0.0883179,-0.00390625,0.821655
492136793140,0.562622,0.088501,-0.00366211,0.821899
492136814262,0.562195,0.0886841,-0.00360107,0.822205
492136830694,0.562195,0.0886841,-0.00360107,0.822205
492136853152,0.562439,0.0886841,-0.00366211,0.822021
492136874138,0.562439,0.0886841,-0.00366211,0.822021
492136890537,0.562317,0.088623,-0.00354004,0.822083
492136913081,0.562073,0.088623,-0.003479,0.822266
492136941665,0.562073,0.088623,-0.003479,0.822266
492136950557,0.562134,0.0886841,-0.003479,0.822205
492136973108,0.562073,0.0888672,-0.00323486,0.822205
492136995569,0.562073,0.0891724,-0.00280762,0.822205
492137010545,0.561829,0.0895386,-0.0022583,0.822327
492137033175,0.561096,0.0899048,-0.00170898,0.822754
492137055677,0.560303,0.0900879,-0.00128174,0.823303
492137070638,0.559875,0.09021,-0.0012207,0.823608
492137093108,0.559814,0.09021,-0.0012207,0.823608
492137115661,0.560059,0.0901489,-0.0012207,0.823486
492137130008,0.560059,0.0901489,-0.0012207,0.823486
492137153188,0.559998,0.090271,-0.00109863,0.823486
492137175644,0.559875,0.0905151,-0.0010376,0.823547
492137189971,0.559631,0.0906982,-0.0010376,0.82373
492137213194,0.559448,0.0908203,-0.000915527,0.823792
492137235634,0.559143,0.0909424,-0.000610352,0.824036
492137249990,0.558533,0.0910645,-0.000488281,0.824402
492137279226,0.558105,0.0911865,-0.000488281,0.824646
492137295683,0.558105,0.0911865,-0.000488281,0.824707
492137309949,0.55835,0.0910645,-0.000549316,0.824585
492137333178,0.55835,0.0910645,-0.000549316,0.824524
492137355616,0.55835,0.0910034,-0.000549316,0.824524
492137369950,0.558411,0.0910645,-0.000549316,0.824524
492137393113,0.558167,0.0911255,-0.000488281,0.824646
492137415572,0.557861,0.0911255,-0.000427246,0.82489
492137429916,0.557556,0.0911255,-0.000366211,0.825073
492137453083,0.557312,0.0910645,-0.000366211,0.825256
492137475601,0.557312,0.0910645,-0.000366211,0.825256
492137496746,0.557312,0.0910645,-0.000366211,0.825256
492137513067,0.557312,0.0911255,-0.000366211,0.825195
492137535603,0.557373,0.0911255,-0.000366211,0.825195
492137556792,0.557373,0.0910645,-0.000366211,0.825195
492137573198,0.557373,0.0910645,-0.000366211,0.825195
492137595630,0.557251,0.0911255,-0.000427246,0.825256
492137616792,0.557251,0.0911255,-0.000427246,0.825256
492137633179,0.557251,0.0911255,-0.000427246,0.825256
492137655657,0.557251,0.0911255,-0.000427246,0.825256
492137676739,0.557129,0.0910645,-0.000305176,0.825378
492137693175,0.557068,0.0910645,-0.000305176,0.825378
492137715643,0.557129,0.0910645,-0.000305176,0.825378
492137736729,0.557129,0.0910645,-0.000305176,0.825378
492137753131,0.557129,0.0910645,-0.000305176,0.825378
492137775605,0.557129,0.0910645,-0.000305176,0.825378
492137796700,0.557129,0.0910645,-0.000305176,0.825378
492137813097,0.557129,0.0910645,-0.000305176,0.825378
492137835641,0.557129,0.0910645,-0.000305176,0.825378
492137864171,0.557129,0.0910645,-0.000305176,0.825378
492137873184,0.557129,0.0910645,-0.000305176,0.825378
492137895673,0.557129,0.0910645,-0.000305176,0.825378
492137918241,0.557434,0.0910034,-0.000244141,0.825195
492137933196,0.557434,0.0910034,-0.000244141,0.825195
492137955710,0.557251,0.0909424,-0.000183105,0.825317
492137978197,0.557251,0.0909424,-0.000183105,0.825317
492137993146,0.557556,0.0911255,0,0.825073
492138015684,0.558044,0.0914917,0.000488281,0.824707
492138038199,0.558411,0.0917969,0.00115967,0.824402
492138053098,0.558167,0.092041,0.00213623,0.824524
492138075612,0.557617,0.0922241,0.00323486,0.82489
492138098064,0.557373,0.0924683,0.0043335,0.825012
492138112423,0.55719,0.0927734,0.00543213,0.825073
492138135640,0.556885,0.0929565,0.00646973,0.825317
492138158120,0.556274,0.0931396,0.00738525,0.825684
492138172418,0.555786,0.0931396,0.00769043,0.825989
492138195691,0.555725,0.0931396,0.00769043,0.82605
492138218203,0.556152,0.0930786,0.00738525,0.825745
492138232452,0.556152,0.0930176,0.00738525,0.825745
492138255698,0.555969,0.0930176,0.00726318,0.825867
492138278184,0.55603,0.0930786,0.00689697,0.825867
492138292504,0.556335,0.0930176,0.00653076,0.825684
492138315586,0.556213,0.0928955,0.00640869,0.825745
492138338183,0.555969,0.0927124,0.00634766,0.825928
492138352578,0.555786,0.0925293,0.00616455,0.82605
492138375689,0.555847,0.0924683,0.00579834,0.82605
492138398130,0.55603,0.0924072,0.0055542,0.825928
492138419148,0.55603,0.0924072,0.0055542,0.825928
492138435574,0.55603,0.0924072,0.0055542,0.825928
492138458184,0.55603,0.0924072,0.0055542,0.825928
492138479136,0.55603,0.0924072,0.0055542,0.825928
492138495717,0.556091,0.0924072,0.0055542,0.825928
492138518216,0.556091,0.0924072,0.0055542,0.825928
492138539194,0.556091,0.0924072,0.0055542,0.825928
492138555674,0.556091,0.0924072,0.0055542,0.825867
492138578227,0.555969,0.0922852,0.00567627,0.825989
492138599272,0.555664,0.0921631,0.0057373,0.826172
492138615420,0.555664,0.0921631,0.0057373,0.826233
492138638115,0.555664,0.0921021,0.0057373,0.826233
492138659011,0.555664,0.0921021,0.0057373,0.826233
492138675666,0.555664,0.0921021,0.0057373,0.826233
492138698128,0.555603,0.0921021,0.0057373,0.826233
492138719300,0.555664,0.0921021,0.0057373,0.826233
492138735712,0.555664,0.0921021,0.0057373,0.826233
492138758089,0.555664,0.0921021,0.0057373,0.826233
492138779313,0.555664,0.0921021,0.0057373,0.826233
492138795793,0.555847,0.09198,0.0055542,0.826111
492138818224,0.556213,0.0917969,0.00537109,0.825867
492138839308,0.556519,0.0914917,0.00512695,0.825745
492138855710,0.557068,0.0910034,0.00488281,0.825378
492138878236,0.5578,0.0905762,0.00445557,0.824951
492138900644,0.558228,0.0900879,0.00415039,0.824707
492138915066,0.558289,0.0895996,0.00396729,0.824768
492138938302,0.55835,0.0892944,0.00366211,0.824707
492138960647,0.559021,0.0891113,0.00323486,0.82428
492138975674,0.559631,0.0890503,0.00311279,0.823914
492138998122,0.55957,0.0890503,0.00311279,0.823914
492139020610,0.559631,0.0891113,0.00286865,0.823853
492139034915,0.560181,0.0889893,0.00250244,0.823547
492139058192,0.560852,0.0888062,0.0022583,0.82312
492139080626,0.56134,0.0887451,0.0020752,0.822754
492139094949,0.561646,0.0887451,0.0020752,0.822571
492139118173,0.561646,0.0887451,0.0020752,0.82251
492139140709,0.561584,0.0888672,0.0020752,0.822571
492139155061,0.56134,0.0889893,0.00213623,0.822754
492139178253,0.561096,0.0889893,0.00219727,0.822876
492139200790,0.561096,0.0889893,0.00219727,0.822876
492139215057,0.561096,0.0889893,0.00219727,0.822876
492139238210,0.561096,0.0889893,0.00219727,0.822876
492139268193,0.561096,0.0890503,0.00219727,0.822876
492139275109,0.561035,0.0889282,0.00201416,0.822937
492139298183,0.561462,0.088562,0.00183105,0.822693
492139320598,0.562195,0.0879517,0.00170898,0.822266
492139335012,0.563049,0.0872803,0.00152588,0.821716
492139358253,0.563721,0.0866699,0.00109863,0.82135
492139380735,0.56488,0.0858765,0.000305176,0.820679
492139401686,0.566895,0.0847778,-0.000793457,0.819397
492139418190,0.569153,0.0834961,-0.00183105,0.817932
492139440668,0.571228,0.0822754,-0.00305176,0.816589
492139461687,0.572998,0.0808716,-0.00512695,0.815491
492139478124,0.576111,0.0791016,-0.00817871,0.813416
492139501088,0.580139,0.0768433,-0.0109253,0.81073
492139521704,0.583008,0.074646,-0.0140991,0.808838
492139538156,0.585205,0.0734253,-0.019165,0.807251
492139560707,0.584839,0.0744629,-0.0267334,0.80719
492139581867,0.57605,0.0778809,-0.0366821,0.812805
492139597545,0.556885,0.0809326,-0.0482178,0.825134
492139620746,0.536255,0.0830688,-0.0626831,0.837585
492139641764,0.520447,0.0865479,-0.0822754,0.845459
492139657489,0.510559,0.0874634,-0.103455,0.84906
492139680718,0.501282,0.0875854,-0.125916,0.851562
492139701764,0.491333,0.0875854,-0.149597,0.853516
492139717556,0.480957,0.0870972,-0.172668,0.855103
492139740754,0.469177,0.0876465,-0.194397,0.856934
492139761856,0.451904,0.0894775,-0.214478,0.861206
492139777984,0.428833,0.0933838,-0.233704,0.867554
492139800618,0.405518,0.0974121,-0.251343,0.873413
492139823149,0.386475,0.100159,-0.266968,0.877075
492139837472,0.371033,0.101807,-0.280151,0.879456
492139860656,0.355591,0.102844,-0.292053,0.881836
492139883180,0.339111,0.102844,-0.303162,0.884583
492139897597,0.32019,0.104248,-0.314331,0.887573
492139920753,0.299438,0.105957,-0.323792,0.891174
492139943223,0.27655,0.108215,-0.331299,0.895569
492139964339,0.251343,0.111511,-0.337585,0.900208
492139980687,0.222961,0.116638,-0.343628,0.904724
492140003186,0.192688,0.123474,-0.349182,0.90863
492140024199,0.162354,0.131104,-0.353577,0.911804
492140040677,0.133667,0.138,-0.356812,0.914185
492140063192,0.107056,0.143616,-0.358826,0.916016
492140084223,0.0825195,0.14856,-0.359558,0.91748
492140100621,0.0588989,0.153809,-0.358459,0.918884
492140123153,0.0361938,0.160889,-0.355408,0.920044
492140144216,0.0165405,0.169495,-0.351135,0.920715
492140160657,0.000549316,0.176514,-0.346313,0.921326
492140183120,-0.0114136,0.182434,-0.341187,0.922058
492140204360,-0.0249634,0.187927,-0.335266,0.922852
492140220758,-0.0408936,0.195312,-0.328552,0.923157
492140243161,-0.0563354,0.201904,-0.321533,0.92334
492140264243,-0.0687256,0.207825,-0.313782,0.923889
492140280708,-0.0791626,0.213623,-0.305359,0.924561
492140303201,-0.0895996,0.221069,-0.296265,0.924805
492140331819,-0.0983887,0.229797,-0.28656,0.924866
492140340701,-0.10437,0.239258,-0.276489,0.924866
492140363152,-0.109131,0.250122,-0.266296,0.924438
492140384253,-0.112366,0.262329,-0.255676,0.923645
492140400667,-0.112427,0.274658,-0.24469,0.923035
492140423165,-0.110291,0.287231,-0.233032,0.922485
492140444260,-0.107056,0.300354,-0.22052,0.921753
492140466710,-0.103027,0.313538,-0.207458,0.920898
492140483151,-0.0977173,0.32605,-0.194336,0.919983
492140504287,-0.0907593,0.338318,-0.180908,0.919006
492140520786,-0.083252,0.35083,-0.166443,0.917725
492140543200,-0.0759888,0.363464,-0.150513,0.916199
492140564251,-0.0686035,0.37561,-0.133911,0.914429
492140580069,-0.0598145,0.387024,-0.116943,0.912659
492140603159,-0.0497437,0.397095,-0.0999146,0.91095
492140624284,-0.0389404,0.405945,-0.0828247,0.909241
492140640100,-0.0275879,0.413696,-0.0658569,0.907593
492140663187,-0.0158691,0.420471,-0.0485229,0.905823
492140685729,-0.00421143,0.426331,-0.0306396,0.903992
492140700108,0.00744629,0.431152,-0.0126343,0.9021
492140723201,0.0197144,0.435059,0.00494385,0.900146
492140744372,0.0337524,0.438049,0.0217285,0.89801
492140759998,0.0487061,0.43988,0.0385742,0.895874
492140783142,0.0648193,0.439697,0.0550537,0.894043
492140805652,0.0791626,0.437134,0.0719604,0.892944
492140819975,0.0986938,0.436218,0.0862427,0.890198
492140843138,0.115662,0.435852,0.10022,0.886841
492140865676,0.129211,0.433594,0.114502,0.884399
492140880047,0.145142,0.428345,0.127808,0.882629
492140903196,0.161865,0.423889,0.14032,0.879944
492140933243,0.177673,0.418457,0.152344,0.877502
492140946806,0.193787,0.412842,0.164124,0.874634
492140963223,0.210815,0.407532,0.173889,0.871277
492140985745,0.22821,0.4021,0.183105,0.867493
492141006842,0.243286,0.395325,0.192749,0.864441
492141023237,0.256775,0.388184,0.200867,0.861938
492141045701,0.271667,0.38092,0.206543,0.859253
492141066864,0.286133,0.374756,0.211548,0.856079
492141083255,0.296692,0.36554,0.217224,0.855042
492141105738,0.305359,0.355591,0.222229,0.854919
492141126705,0.314209,0.345642,0.224792,0.855042
492141143256,0.323608,0.336487,0.225342,0.855103
492141166169,0.330078,0.325256,0.225037,0.856995
492141186567,0.33374,0.311279,0.224182,0.861023
492141203270,0.337585,0.298218,0.220947,0.86499
492141225648,0.344543,0.28894,0.214966,0.866882
492141246831,0.351624,0.282043,0.208191,0.867981
492141263346,0.354919,0.273193,0.201172,0.871094
492141285699,0.356628,0.263733,0.191833,0.875427
492141306788,0.359192,0.255554,0.179932,0.879333
492141323148,0.363647,0.247925,0.167236,0.882141
492141345673,0.368652,0.239624,0.154358,0.884766
492141366865,0.373352,0.231934,0.139404,0.887268
492141383152,0.376831,0.225342,0.123474,0.889893
492141405723,0.379272,0.217712,0.108337,0.8927
492141426735,0.382568,0.208313,0.0933228,0.895264
492141443191,0.389038,0.198914,0.0761108,0.89624
492141465708,0.398682,0.189331,0.0576782,0.895447
492141486737,0.410828,0.178101,0.0394287,0.89325
492141503258,0.422363,0.165588,0.0221558,0.890808
492141525480,0.430603,0.152771,0.00476074,0.889465
492141546823,0.437073,0.140564,-0.0133667,0.888184
492141569299,0.44043,0.129211,-0.0306396,0.887878
492141585754,0.440979,0.118347,-0.0480347,0.888367
492141606870,0.440796,0.107666,-0.0670776,0.88855
492141622624,0.441284,0.0975342,-0.086792,0.887756
492141645728,0.440918,0.0894165,-0.106812,0.886597
492141666812,0.439697,0.0814819,-0.127197,0.885315
492141682539,0.438049,0.0737305,-0.147644,0.883667
492141705660,0.437073,0.0670166,-0.167664,0.881104
492141728279,0.435242,0.0629272,-0.186462,0.878479
492141742570,0.430542,0.0601807,-0.204102,0.877075
492141765700,0.423706,0.0574341,-0.220947,0.876526
492141788283,0.416321,0.0549927,-0.237671,0.875854
492141802575,0.408386,0.0535278,-0.253906,0.875122
492141825751,0.39917,0.0521851,-0.269104,0.874878
492141848232,0.389099,0.0498047,-0.282959,0.875183
492141870007,0.378784,0.0466309,-0.295654,0.875732
492141871558,0.367004,0.0444946,-0.3078,0.876648
492141891141,0.351013,0.0443726,-0.318787,0.879272
492141913708,0.331787,0.0471802,-0.329407,0.88269
492141931553,0.313904,0.0512085,-0.339478,0.885193
492141951184,0.298279,0.0539551,-0.348572,0.886902
492141973696,0.283813,0.0582886,-0.3573,0.887878
492141991528,0.264709,0.0667114,-0.365051,0.890015
492142011120,0.244629,0.0772705,-0.370911,0.892517
492142041096,0.225952,0.0887451,-0.375305,0.894531
492142051563,0.208008,0.100281,-0.378357,0.896362
492142071188,0.189087,0.112305,-0.379578,0.898621
492142093605,0.170105,0.124939,-0.378845,0.901062
492142119073,0.153564,0.137207,-0.376953,0.903015
492142131057,0.139587,0.148987,-0.374573,0.904419
492142153640,0.125488,0.159058,-0.371582,0.906006
492142171532,0.111206,0.170532,-0.366577,0.907837
492142191165,0.0968018,0.18219,-0.359497,0.910034
492142213664,0.0831299,0.194031,-0.350891,0.912292
492142231541,0.069458,0.205872,-0.341125,0.914551
492142251154,0.0550537,0.217468,-0.329834,0.916992
492142275114,0.0400391,0.228516,-0.316956,0.919617
492142291575,0.024231,0.239075,-0.302795,0.922241
492142311203,0.00793457,0.249268,-0.287781,0.924622
492142333690,-0.00787354,0.259216,-0.272461,0.926514
492142351540,-0.0223389,0.269348,-0.256042,0.928101
492142371227,-0.0335083,0.279968,-0.238403,0.929321
492142393555,-0.0410767,0.290466,-0.221497,0.929993
492142411464,-0.0432739,0.301697,-0.205933,0.929871
492142431135,-0.0423584,0.313599,-0.191467,0.929077
492142453580,-0.0390015,0.326172,-0.177307,0.927673
492142471510,-0.0343018,0.339783,-0.162659,0.925659
492142491120,-0.029541,0.353516,-0.147644,0.923218
492142513556,-0.0244141,0.366333,-0.133118,0.920532
492142531512,-0.0170898,0.377991,-0.119446,0.917847
492142551162,-0.00799561,0.389099,-0.105896,0.915039
492142573669,0.00152588,0.399902,-0.0921021,0.911865
492142599007,0.00970459,0.409668,-0.0776367,0.908813
492142611167,0.0157471,0.418091,-0.0614624,0.906128
492142633675,0.0182495,0.424622,-0.0424805,0.904175
492142656153,0.0168457,0.428833,-0.019043,0.902954
492142672422,0.0140991,0.430786,0.00653076,0.902283
492142693725,0.0136719,0.430664,0.0308228,0.901855
492142711594,0.0178833,0.429382,0.0518799,0.901428
492142731118,0.0250244,0.428711,0.0699463,0.90033
492142753702,0.0281982,0.423706,0.0892944,0.900879
492142776136,0.034729,0.420105,0.106445,0.900513
492142791213,0.0449219,0.423096,0.120728,0.896851
492142813711,0.0559082,0.424866,0.130798,0.893982
492142836161,0.0715332,0.425659,0.139099,0.891235
492142851199,0.0866089,0.427246,0.147705,0.887695
492142873688,0.100159,0.428101,0.156006,0.88446
492142891540,0.115784,0.429016,0.162231,0.880981
492142911101,0.133972,0.42926,0.16748,0.877319
492142933604,0.151245,0.427612,0.17334,0.874146
492142951551,0.168396,0.425293,0.177979,0.871155
492142971235,0.188416,0.423401,0.179688,0.867676
492142993619,0.208618,0.421021,0.180237,0.864075
492143011517,0.225769,0.415466,0.182434,0.862
492143038666,0.240417,0.409363,0.184692,0.860474
492143053692,0.254883,0.403442,0.184998,0.85907
492143071547,0.269165,0.398682,0.182312,0.857483
492143091170,0.281921,0.392456,0.179016,0.856934
492143113746,0.292419,0.383545,0.176575,0.857971
492143131565,0.302551,0.373047,0.173157,0.859741
492143152599,0.313538,0.363892,0.167297,0.860901
492143173671,0.321411,0.358154,0.160156,0.861816
492143191985,0.322693,0.35199,0.15094,0.865479
492143211124,0.322693,0.346313,0.141052,0.869446
492143233703,0.32489,0.34198,0.130493,0.872009
492143251619,0.328003,0.338623,0.11908,0.873779
492143272641,0.330811,0.333679,0.108887,0.875977
492143293581,0.336121,0.326782,0.0990601,0.877686
492143313003,0.348083,0.319397,0.0883179,0.876892
492143332546,0.366333,0.312744,0.0778198,0.872803
492143353690,0.383484,0.30603,0.0687256,0.868591
492143371613,0.397766,0.299011,0.0606689,0.865173
492143394133,0.413452,0.291809,0.0536499,0.860779
492143413707,0.430969,0.285217,0.0458374,0.854858
492143436101,0.446411,0.278442,0.0370483,0.849548
492143452627,0.455994,0.270203,0.0285645,0.847473
492143473674,0.463806,0.259766,0.0204468,0.84668
492143496188,0.473083,0.249023,0.0124512,0.84491
492143512601,0.481628,0.238159,0.00531006,0.843323
492143533672,0.48645,0.22644,-0.000915527,0.843811
492143556114,0.489685,0.214417,-0.00738525,0.845032
492143574004,0.494446,0.203674,-0.0149536,0.844849
492143593656,0.500488,0.193115,-0.0218506,0.843628
492143616211,0.505371,0.181824,-0.026062,0.843079
492143634126,0.50824,0.170959,-0.0293579,0.843506
492143653736,0.510681,0.161072,-0.0336304,0.843811
492143676124,0.51355,0.151428,-0.0384521,0.843689
492143694003,0.517578,0.141174,-0.0422363,0.842834
492143713757,0.523438,0.131653,-0.0457153,0.840515
492143736252,0.529053,0.124329,-0.0505371,0.837891
492143754088,0.530273,0.119141,-0.0567017,0.837463
492143773790,0.527161,0.114929,-0.0625,0.8396
492143796210,0.523315,0.111572,-0.0679932,0.842041
492143814115,0.52002,0.108459,-0.0725708,0.844055
492143833793,0.517883,0.105286,-0.0766602,0.845459
492143856269,0.515564,0.101624,-0.0795898,0.846985
492143874098,0.511292,0.0982056,-0.081543,0.849792
492143893662,0.503601,0.0958252,-0.0826416,0.854553
492143916252,0.49585,0.0939331,-0.0830078,0.859253
492143934111,0.489929,0.0917358,-0.0818481,0.862976
492143953689,0.486938,0.0897827,-0.0805054,0.865051
492143976161,0.486755,0.0880737,-0.0791016,0.865417
492143994074,0.489075,0.086792,-0.0773315,0.864441
492144013836,0.492859,0.0860596,-0.0749512,0.862549
492144036155,0.496094,0.0856934,-0.0726929,0.860901
492144054018,0.498962,0.0852051,-0.071167,0.859436
492144073632,0.503601,0.0852051,-0.0702515,0.856812
492144096108,0.51001,0.0863037,-0.0701904,0.852905
492144114070,0.517517,0.0879517,-0.0709229,0.848145
492144133776,0.524048,0.0893555,-0.0716553,0.843933
492144156247,0.529724,0.090271,-0.0723877,0.84021
492144174107,0.534729,0.0906982,-0.072998,0.836914
492144193674,0.539185,0.0908813,-0.0737305,0.833923
492144216126,0.542786,0.0907593,-0.0753174,0.831482
492144234066,0.545166,0.0896606,-0.0776367,0.829834
492144255184,0.546753,0.0876465,-0.0797119,0.828857
492144276297,0.548157,0.0858154,-0.081543,0.827881
492144294090,0.549805,0.0845337,-0.0834351,0.826782
492144315126,0.55127,0.0842896,-0.085083,0.825623
492144331584,0.551453,0.0845337,-0.0855713,0.825439
492144354059,0.550537,0.0849609,-0.085022,0.82605
492144375091,0.549377,0.0858765,-0.0841064,0.826843
492144391543,0.548584,0.0874634,-0.0831909,0.827332
492144413194,0.547424,0.0890503,-0.081543,0.828064
492144434337,0.545776,0.0907593,-0.0794067,0.829163
492144450751,0.544067,0.0924683,-0.0776978,0.830261
492144473291,0.542969,0.093689,-0.0771484,0.830872
492144495796,0.54248,0.0938721,-0.0772095,0.831177
492144510760,0.542297,0.0933838,-0.0772705,0.83136
492144533321,0.542297,0.0927124,-0.0775146,0.831421
492144555820,0.542786,0.0921631,-0.0780029,0.831116
492144570821,0.543823,0.0918579,-0.0786133,0.830383
492144593358,0.545288,0.0919189,-0.0791626,0.829346
492144623306,0.546692,0.0923462,-0.0794678,0.828369
492144630838,0.546997,0.0929565,-0.0793457,0.828125
492144653282,0.546631,0.093689,-0.0790405,0.828308
492144675746,0.546082,0.0944214,-0.0789795,0.828552
492144690102,0.545654,0.0949707,-0.0790405,0.828796
492144713269,0.545593,0.095459,-0.0793457,0.828735
492144735820,0.545959,0.0958252,-0.0797729,0.82843
492144750132,0.546387,0.0958862,-0.079895,0.828125
492144773292,0.546753,0.0957642,-0.079834,0.827881
492144795857,0.547302,0.0957031,-0.0797729,0.827576
492144810204,0.547974,0.0958252,-0.0797119,0.827087
492144833336,0.548279,0.0959473,-0.0794678,0.826904
492144855864,0.547974,0.0961304,-0.0791016,0.827148
492144870139,0.548096,0.0963745,-0.0787354,0.827087
492144893329,0.548523,0.0966187,-0.0783691,0.826782
492144915838,0.549011,0.0969849,-0.0779419,0.826416
492144930201,0.548889,0.0975342,-0.0774536,0.826538
492144953315,0.548279,0.0979004,-0.0769653,0.826904
492144976246,0.547791,0.0979614,-0.0766602,0.827271
492144990205,0.547729,0.0979614,-0.0766602,0.827332
492145013261,0.547791,0.0980225,-0.0767822,0.827209
492145035770,0.548035,0.0981445,-0.0770264,0.827026
492145056911,0.54834,0.0982056,-0.0773315,0.826782
492145073261,0.549011,0.0982056,-0.0775146,0.826355
492145095739,0.5495,0.0981445,-0.0776367,0.825989
492145116898,0.549438,0.0982666,-0.0776367,0.82605
492145139462,0.549072,0.0983887,-0.0775757,0.826294
492145155756,0.548706,0.0985718,-0.0775757,0.826477
492145176830,0.548706,0.0988159,-0.0778198,0.826477
492145193247,0.548828,0.098999,-0.078064,0.826294
492145215767,0.548828,0.098999,-0.078064,0.826294
492145236823,0.548828,0.0990601,-0.078064,0.826294
492145253235,0.548828,0.0990601,-0.078064,0.826294
492145275565,0.548889,0.0990601,-0.078064,0.826294
492145296808,0.548767,0.0993042,-0.0780029,0.826355
492145320858,0.548401,0.0994873,-0.0778198,0.826538
492145335861,0.548096,0.0996704,-0.0777588,0.826782
492145356916,0.548096,0.0997314,-0.0778198,0.826782
492145373271,0.548096,0.0997314,-0.0778198,0.826782
492145395890,0.548096,0.0997314,-0.0778198,0.826721
492145416876,0.547913,0.0998535,-0.0778198,0.826843
492145433272,0.547913,0.0998535,-0.0778198,0.826843
492145455773,0.547913,0.0999146,-0.0778198,0.826843
492145478327,0.547913,0.0999146,-0.0778198,0.826843
492145493332,0.547913,0.0999756,-0.0778198,0.826843
492145515856,0.547913,0.0999756,-0.0778809,0.826843
492145545816,0.547913,0.0999756,-0.0778809,0.826843
492145553330,0.547913,0.0999756,-0.0778809,0.826843
492145575828,0.547852,0.100098,-0.0778198,0.826843
492145598345,0.547607,0.10022,-0.0777588,0.827026
492145613260,0.547241,0.100281,-0.0776978,0.827271
492145635827,0.546997,0.100403,-0.0777588,0.827393
492145658244,0.546997,0.100403,-0.0777588,0.827393
492145672620,0.546997,0.100464,-0.0777588,0.827393
492145695793,0.546875,0.100464,-0.0777588,0.827454
492145718249,0.546631,0.100525,-0.0777588,0.827637
492145732584,0.546631,0.100586,-0.0777588,0.827637
492145755795,0.546631,0.100586,-0.0777588,0.827637
492145778316,0.546631,0.100647,-0.0778198,0.827637
492145792685,0.546387,0.100647,-0.0777588,0.827759
492145815743,0.546387,0.100647,-0.0777588,0.827759
492145838358,0.546387,0.100647,-0.0777588,0.827759
492145859479,0.546448,0.100647,-0.0777588,0.827759
492145875788,0.546265,0.100769,-0.0776978,0.82782
492145898335,0.545959,0.100891,-0.0776367,0.828003
492145912717,0.545776,0.101074,-0.0776367,0.828125
492145935885,0.545776,0.101074,-0.0776367,0.828125
492145958343,0.545776,0.101074,-0.0776367,0.828125
492145979370,0.545776,0.101074,-0.0776978,0.828125
492145995784,0.545776,0.101135,-0.0776978,0.828125
492146018274,0.545776,0.101135,-0.0776978,0.828125
492146039281,0.545715,0.101135,-0.0776978,0.828125
492146055737,0.545715,0.101135,-0.0776978,0.828125
492146078378,0.545715,0.101135,-0.0776978,0.828125
492146099412,0.545776,0.101135,-0.0776978,0.828125
492146115830,0.545776,0.101196,-0.0776978,0.828125
492146138444,0.545776,0.101196,-0.0776978,0.828125
492146159432,0.545776,0.101196,-0.0776978,0.828125
492146175837,0.545654,0.101318,-0.0776978,0.828186
492146198300,0.545471,0.101379,-0.0776367,0.828308
492146219418,0.545227,0.101501,-0.0775757,0.82843
492146235984,0.545044,0.101624,-0.0775146,0.828552
492146258306,0.5448,0.101685,-0.0774536,0.828674
492146279332,0.544861,0.101685,-0.0774536,0.828674
492146295900,0.544739,0.101685,-0.0774536,0.828796
492146318280,0.544312,0.101624,-0.0773315,0.829041
492146339318,0.544067,0.101562,-0.0772705,0.829224
492146355777,0.544067,0.101562,-0.0772705,0.829224
492146378411,0.544067,0.101562,-0.0772705,0.829224
492146399433,0.543884,0.101562,-0.0772095,0.829346
492146415867,0.543579,0.101624,-0.0771484,0.829529
492146438316,0.543579,0.101624,-0.0771484,0.829529
492146468307,0.543701,0.101746,-0.0773315,0.829468
492146475769,0.544006,0.101868,-0.0775146,0.829224
492146498401,0.544373,0.101929,-0.0775146,0.828918
492146520836,0.544434,0.101929,-0.0775146,0.828918
492146535834,0.544373,0.10199,-0.0773926,0.828979
492146558370,0.54425,0.102112,-0.0773926,0.829041
492146580794,0.544189,0.102112,-0.0773926,0.829041
492146595243,0.544189,0.102112,-0.0773926,0.829041
492146618325,0.544189,0.102173,-0.0774536,0.829041
492146640863,0.544189,0.102173,-0.0774536,0.829041
492146655185,0.544189,0.102173,-0.0774536,0.829041
492146678267,0.544067,0.102112,-0.0773926,0.829163
492146700905,0.544067,0.102112,-0.0773926,0.829163
492146715213,0.544067,0.102112,-0.0773926,0.829163
492146738273,0.544067,0.102173,-0.0773926,0.829163
492146760787,0.544067,0.102173,-0.0773926,0.829163
492146775131,0.544067,0.102173,-0.0773926,0.829163
492146798290,0.544067,0.102173,-0.0773926,0.829163
492146820849,0.544067,0.102173,-0.0773926,0.829163
492146835156,0.544067,0.102173,-0.0773926,0.829163
492146858359,0.544067,0.102173,-0.0773926,0.829163
492146880824,0.544067,0.102173,-0.0773926,0.829163
492146895185,0.544067,0.102173,-0.0773926,0.829163
492146918369,0.544067,0.102173,-0.0774536,0.829163
492146940880,0.544067,0.102173,-0.0774536,0.829163
492146961915,0.544067,0.102173,-0.0774536,0.829102
492146978426,0.544067,0.102234,-0.0774536,0.829102
492147000868,0.544067,0.102234,-0.0774536,0.829102
492147021904,0.544067,0.102234,-0.0774536,0.829102
492147038350,0.544067,0.102234,-0.0774536,0.829102
492147060845,0.544067,0.102234,-0.0774536,0.829102
492147081877,0.544067,0.102295,-0.0774536,0.829102
492147098404,0.544067,0.102295,-0.0774536,0.829102
492147120894,0.544067,0.102295,-0.0775146,0.829102
492147142039,0.544067,0.102112,-0.0776978,0.829102
492147158378,0.544006,0.101807,-0.0777588,0.829224
492147180875,0.543884,0.101501,-0.0778198,0.829285
492147201838,0.543762,0.101257,-0.0778809,0.829407
492147218436,0.543762,0.101257,-0.0778809,0.829407
492147240819,0.543762,0.101257,-0.0778809,0.829407
492147261859,0.543762,0.101318,-0.0778809,0.829407
492147278262,0.543762,0.101318,-0.0778809,0.829407
492147300802,0.543762,0.101318,-0.0778809,0.829407
492147321842,0.543762,0.101318,-0.0778809,0.829407
492147338298,0.543701,0.101318,-0.0778809,0.829407
492147360865,0.543701,0.101318,-0.0778809,0.829407
492147383424,0.543701,0.101318,-0.0778809,0.829407
492147398373,0.543762,0.101318,-0.0778809,0.829407
492147420871,0.543762,0.101318,-0.0778809,0.829407
492147443354,0.543579,0.10144,-0.0778198,0.829468
492147458377,0.543579,0.10144,-0.0778198,0.829468
492147480923,0.543579,0.101501,-0.0778198,0.829468
492147503351,0.54364,0.101501,-0.0778198,0.829468
492147518389,0.543579,0.101501,-0.0778198,0.829468
492147540840,0.543579,0.101501,-0.0778198,0.829468
492147563374,0.54364,0.101501,-0.0778198,0.829468
492147577734,0.54364,0.101501,-0.0778198,0.829468
492147600825,0.543396,0.101501,-0.0777588,0.82959
492147623353,0.543396,0.101562,-0.0777588,0.829651
492147637749,0.543396,0.101562,-0.0777588,0.829651
492147661003,0.543396,0.101562,-0.0777588,0.82959
492147683451,0.543457,0.101562,-0.0777588,0.82959
492147697745,0.543457,0.101562,-0.0777588,0.82959
492147720800,0.543457,0.101562,-0.0777588,0.82959
492147743366,0.543762,0.10144,-0.0775146,0.829407
492147757648,0.543213,0.100952,-0.0767212,0.829895
492147780876,0.541931,0.100403,-0.0759277,0.830872
492147803324,0.541321,0.0998535,-0.0756836,0.831421
492147817724,0.541687,0.0992432,-0.0758057,0.831238
492147840906,0.542114,0.0986938,-0.0758667,0.830994
492147863381,0.542603,0.0982056,-0.0756226,0.83075
492147877745,0.542725,0.0979614,-0.0753174,0.830688
492147900887,0.542419,0.0980225,-0.0750122,0.830933
492147923315,0.541809,0.0981445,-0.0748901,0.83136
492147944397,0.54126,0.0982666,-0.0749512,0.831665
492147960874,0.541199,0.0982666,-0.0749512,0.831726
492147983425,0.541199,0.0982666,-0.0749512,0.831726
492148004479,0.541443,0.0983276,-0.0749512,0.831543
492148020892,0.542175,0.0985718,-0.0750732,0.830994
492148043425,0.542236,0.0985718,-0.0750732,0.830994
492148064459,0.541809,0.0987549,-0.0749512,0.831238
492148080913,0.541443,0.0987549,-0.0748901,0.831482
492148103299,0.541382,0.0987549,-0.0748901,0.831543
492148124519,0.541687,0.0986938,-0.0750122,0.83136
492148148340,0.542175,0.0986938,-0.0750122,0.831055
492148163389,0.54248,0.0986328,-0.0748291,0.830811
492148184531,0.542542,0.0986328,-0.0748291,0.830811
492148200947,0.542542,0.0986938,-0.074646,0.830811
492148223325,0.542175,0.0987549,-0.0744629,0.831055
492148244335,0.541809,0.0988159,-0.0744019,0.831299
492148260793,0.541565,0.098877,-0.0743408,0.831482
492148283351,0.541504,0.098877,-0.0744019,0.831482
492148304364,0.541504,0.098877,-0.0743408,0.831482
492148320791,0.541504,0.098877,-0.0743408,0.831482
492148343351,0.541504,0.098877,-0.0743408,0.831482
492148365867,0.541382,0.098938,-0.0742798,0.831543
492148381267,0.541016,0.0990601,-0.0742188,0.831787
492148403093,0.540833,0.0990601,-0.0740356,0.83197
492148425919,0.540833,0.0990601,-0.0740356,0.83197
492148440809,0.540833,0.0990601,-0.0740356,0.83197
492148463374,0.541016,0.098999,-0.0740356,0.831848
492148485811,0.541016,0.098999,-0.0739746,0.831848
492148500164,0.540894,0.0991211,-0.0737915,0.831909
492148523293,0.540405,0.0992432,-0.0737305,0.832214
492148545851,0.539978,0.0993652,-0.0737915,0.832458
492148560179,0.539978,0.0993652,-0.0737915,0.832458
492148583319,0.539978,0.0993042,-0.0737915,0.83252
492148605909,0.539917,0.0993042,-0.0737915,0.83252
492148620202,0.539917,0.0993652,-0.0737915,0.83252
492148643352,0.5401,0.0993042,-0.0738525,0.832397
492148665802,0.540039,0.0993652,-0.0739136,0.832397
492148680224,0.540344,0.0990601,-0.0739746,0.832275
492148703362,0.540588,0.0985718,-0.0739136,0.832153
492148725837,0.540771,0.0980835,-0.0739136,0.832092
492148740166,0.541321,0.0975342,-0.0739746,0.831848
492148763396,0.541992,0.097229,-0.0740967,0.831421
492148785878,0.542664,0.0970459,-0.0742188,0.830933
492148800153,0.543152,0.0969849,-0.0742188,0.830627
492148823318,0.543213,0.0968628,-0.0739746,0.830688
492148845912,0.543152,0.0968628,-0.0739746,0.830688
492148866978,0.543518,0.0964355,-0.074585,0.830444
492148883335,0.544739,0.0949097,-0.0753174,0.829773
492148905916,0.546692,0.0922241,-0.0758057,0.828735
492148926919,0.549255,0.0890503,-0.076355,0.827332
492148943359,0.552246,0.0859375,-0.0770874,0.825562
492148965834,0.555603,0.0830688,-0.0782471,0.823547
492148986959,0.559509,0.0797119,-0.0800171,0.821045
492149003368,0.564453,0.0761108,-0.0819702,0.81781
492149025837,0.568176,0.0721436,-0.083374,0.81543
492149046968,0.56958,0.0681152,-0.0846558,0.814697
492149063296,0.569397,0.0638428,-0.0866699,0.814941
492149085929,0.569214,0.0594482,-0.0898438,0.815063
492149106960,0.567261,0.0552368,-0.0932617,0.816284
492149122658,0.560547,0.0518188,-0.0966797,0.820801
492149145848,0.550354,0.0491943,-0.100769,0.827332
492149166971,0.538757,0.0473022,-0.105896,0.834412
492149182702,0.527161,0.0454712,-0.111572,0.841125
492149205895,0.515991,0.0441284,-0.117676,0.84729
492149226938,0.50415,0.0438843,-0.125,0.853333
492149242721,0.490295,0.0452271,-0.13324,0.860107
492149265903,0.474426,0.0482788,-0.141479,0.867493
492149288349,0.457031,0.0526733,-0.148743,0.875305
492149302668,0.438171,0.059082,-0.155701,0.883301
492149325842,0.418518,0.0671997,-0.162781,0.89093
492149348377,0.399658,0.0762939,-0.170044,0.897461
492149362704,0.381897,0.0866699,-0.17749,0.902832
492149385891,0.364929,0.0984497,-0.184998,0.907104
492149408397,0.348755,0.111633,-0.192383,0.9104
492149429466,0.332947,0.12616,-0.199524,0.912903
492149445966,0.317444,0.142517,-0.206421,0.914429
492149468316,0.301331,0.160522,-0.212891,0.915466
492149489382,0.284485,0.179565,-0.218872,0.915894
492149505893,0.268066,0.199036,-0.224548,0.915405
492149528363,0.255127,0.217407,-0.229614,0.913696
492149549427,0.244263,0.236145,-0.234863,0.910706
492149565984,0.23468,0.255127,-0.240723,0.906555
492149588370,0.225647,0.273987,-0.247253,0.90155
492149609433,0.217285,0.293335,-0.25415,0.895569
492149625951,0.208801,0.312866,-0.260864,0.889038
492149648398,0.198975,0.332275,-0.266785,0.882446
492149669457,0.187988,0.35144,-0.272278,0.875732
492149685919,0.177429,0.369812,-0.278503,0.868408
492149708346,0.167419,0.387024,-0.285645,0.860535
492149729441,0.15802,0.402466,-0.293274,0.8526
492149747199,0.148987,0.417236,-0.301025,0.844421
492149751282,0.140015,0.43158,-0.308594,0.835938
492149773770,0.131287,0.445374,-0.316528,0.827148
492149796251,0.122375,0.458252,-0.324463,0.818298
492149811446,0.111389,0.468689,-0.332886,0.810608
492149833791,0.107422,0.485596,-0.340332,0.797974
492149856266,0.0978394,0.502869,-0.348083,0.785034
492149871228,0.0872192,0.517151,-0.356323,0.773254
492149893761,0.0786133,0.529297,-0.364136,0.762207
492149916250,0.0723267,0.542419,-0.372437,0.749573
492149931256,0.0662231,0.554871,-0.381409,0.736328
492149953737,0.0601807,0.566528,-0.389587,0.723572
492149976276,0.053772,0.577454,-0.396057,0.711853
492149991257,0.0471191,0.587769,-0.401672,0.700623
492150013734,0.0406494,0.596924,-0.406799,0.690308
492150045122,0.0346069,0.604736,-0.411377,0.681091
492150051284,0.0285034,0.611267,-0.415222,0.673096
492150073751,0.022583,0.616943,-0.418274,0.666199
492150096263,0.0168457,0.621765,-0.420776,0.660339
492150112729,0.0109863,0.626526,-0.422119,0.655029
492150133790,0.0055542,0.631042,-0.422485,0.650513
492150156279,0.00170898,0.634888,-0.422241,0.646912
492150171275,-0.000793457,0.637939,-0.42157,0.644409
492150193744,-0.00244141,0.640381,-0.420471,0.642639
492150216371,-0.00311279,0.642395,-0.419189,0.641479
492150231350,-0.00219727,0.643921,-0.417786,0.640869
492150253877,-0.00012207,0.644897,-0.416321,0.640869
492150271641,0.00256348,0.645691,-0.414856,0.641052
492150291386,0.00549316,0.646484,-0.413025,0.641418
492150321309,0.00842285,0.647278,-0.410217,0.642334
492150336322,0.0114136,0.647705,-0.406982,0.643982
492150351415,0.0147095,0.647339,-0.403992,0.646118
492150373883,0.0187378,0.646362,-0.401123,0.648743
492150396369,0.0232544,0.644958,-0.39801,0.651917
492150411307,0.0280762,0.643188,-0.394714,0.655457
492150433855,0.0334473,0.640808,-0.391602,0.659424
492150456336,0.0396118,0.63739,-0.388428,0.664246
492150472823,0.0457153,0.633423,-0.38446,0.669922
492150493769,0.0516968,0.629089,-0.379883,0.676147
492150516327,0.0580444,0.62439,-0.374634,0.682861
492150531334,0.0646973,0.61908,-0.368774,0.690247
492150553822,0.0722046,0.61261,-0.362854,0.698425
492150576288,0.0808716,0.604736,-0.357178,0.707214
492150591373,0.0892944,0.595459,-0.350586,0.717285
492150613868,0.0974121,0.585266,-0.342896,0.72821
492150636383,0.106201,0.573669,-0.335388,0.739624
492150651265,0.114868,0.560181,-0.327271,0.752197
492150673794,0.123291,0.544922,-0.318848,0.765625
492150696369,0.132141,0.52771,-0.31073,0.779419
492150718774,0.141479,0.51001,-0.302246,0.792725
492150733924,0.150879,0.491394,-0.293274,0.80603
492150756367,0.15918,0.472046,-0.283997,0.819214
492150771384,0.166016,0.452454,-0.274414,0.832092
492150793882,0.173218,0.432251,-0.264709,0.844421
492150816348,0.181152,0.411438,-0.254578,0.85614
492150832774,0.18927,0.389954,-0.244873,0.867188
492150853891,0.198181,0.367615,-0.236145,0.87738
492150877741,0.207642,0.34436,-0.227966,0.886719
492150892752,0.216187,0.321045,-0.219849,0.895447
492150913753,0.225281,0.299316,-0.211304,0.902771
492150936257,0.236816,0.277893,-0.20282,0.908569
492150952717,0.252197,0.257568,-0.195007,0.912109
492150973774,0.268127,0.238892,-0.187561,0.914246
492150996278,0.281982,0.22113,-0.179626,0.916077
492151012746,0.296387,0.205505,-0.171814,0.916687
492151033771,0.316162,0.193237,-0.166504,0.913757
492151056229,0.338501,0.182251,-0.16156,0.908875
492151072702,0.358337,0.171448,-0.154846,0.904541
492151093801,0.373352,0.160034,-0.145447,0.9021
492151116322,0.384094,0.149109,-0.136292,0.900879
492151132708,0.396729,0.139832,-0.128418,0.898071
492151153870,0.413513,0.131714,-0.119507,0.892944
492151176322,0.432129,0.123474,-0.108765,0.886597
492151194228,0.445618,0.114563,-0.0986938,0.882324
492151213848,0.45575,0.105835,-0.0932007,0.878845
492151236325,0.46582,0.0979004,-0.0905151,0.874756
492151254209,0.477661,0.0886841,-0.0859375,0.869751
492151273822,0.489441,0.0803223,-0.0783691,0.864746
492151296406,0.498718,0.074646,-0.0710449,0.860596
492151314234,0.506836,0.0717773,-0.0668335,0.856384
492151333894,0.514221,0.0710449,-0.0649414,0.852173
492151356395,0.521667,0.071167,-0.0631104,0.847778
492151374195,0.528625,0.0705566,-0.0599976,0.84375
492151393811,0.533691,0.0698853,-0.0561523,0.840881
492151416338,0.536499,0.0700684,-0.0521851,0.839355
492151434636,0.537476,0.0716553,-0.0490723,0.838745
492151453838,0.536011,0.0749512,-0.0471191,0.839539
492151476311,0.532349,0.0765991,-0.0445557,0.841797
492151494231,0.528015,0.0767822,-0.0412598,0.844666
492151513851,0.524048,0.0758057,-0.0380249,0.847412
492151536322,0.521606,0.0742798,-0.0357666,0.849121
492151554214,0.520264,0.072998,-0.0356445,0.850098
492151573877,0.519653,0.0717163,-0.0370483,0.850525
492151596410,0.519775,0.0704346,-0.038269,0.850464
492151614242,0.519897,0.0691528,-0.0386963,0.850525
492151641411,0.520935,0.0685425,-0.0386963,0.849915
492151651760,0.523071,0.0681763,-0.0388794,0.848633
492151674314,0.525635,0.067627,-0.0391846,0.847046
492151693918,0.527954,0.0672607,-0.0397949,0.845581
492151711683,0.530212,0.0673218,-0.0410767,0.844177
492151734212,0.531494,0.0680542,-0.043457,0.843201
492151755245,0.53125,0.0693359,-0.0472412,0.843018
492151776286,0.529297,0.0714722,-0.0528564,0.84375
492151794230,0.525146,0.0742188,-0.0587158,0.845703
492151815225,0.518127,0.0772705,-0.0639038,0.849365
492151836259,0.506836,0.0822754,-0.069397,0.855225
492151854232,0.491333,0.0887451,-0.0751953,0.863098
492151875253,0.475098,0.0962524,-0.0822754,0.870728
492151896292,0.462219,0.103821,-0.0914917,0.875854
492151914250,0.453674,0.112427,-0.101562,0.878174
492151935388,0.446777,0.123169,-0.111633,0.879028
492151956338,0.438965,0.134888,-0.121033,0.880005
492151974192,0.429688,0.147644,-0.13092,0.881104
492151995373,0.418274,0.162415,-0.141846,0.882324
492152016331,0.405273,0.178833,-0.153259,0.883301
492152034282,0.390503,0.19635,-0.165894,0.883911
492152055294,0.375,0.214111,-0.179382,0.883911
492152076354,0.358643,0.232361,-0.192505,0.883301
492152094229,0.34021,0.251648,-0.204651,0.882568
492152115389,0.319336,0.272461,-0.215759,0.881592
492152136390,0.296753,0.294189,-0.226257,0.879822
492152154307,0.273987,0.316345,-0.236145,0.876953
492152176756,0.251831,0.33905,-0.245544,0.872498
492152196400,0.231262,0.362366,-0.254944,0.866089
492152214287,0.213379,0.385559,-0.264465,0.857788
492152236694,0.196655,0.408325,-0.273621,0.848328
492152256392,0.179626,0.430359,-0.282471,0.838257
492152273401,0.162598,0.450562,-0.291077,0.828125
492152296924,0.145569,0.469177,-0.299438,0.817871
492152316975,0.127441,0.489929,-0.307739,0.805603
492152333455,0.105896,0.508789,-0.313049,0.794922
492152356041,0.0831299,0.526733,-0.315613,0.784851
492152377004,0.0605469,0.544739,-0.317505,0.773743
492152393456,0.0379028,0.561279,-0.318787,0.762756
492152416005,0.0180664,0.574646,-0.320862,0.752625
492152437079,0.00152588,0.584839,-0.324829,0.743225
492152453465,-0.0117188,0.592529,-0.330872,0.734314
492152475992,-0.0219116,0.598389,-0.338379,0.725891
492152496957,-0.0310669,0.603333,-0.345337,0.71814
492152513434,-0.0415649,0.608459,-0.350647,0.710693
492152542017,-0.0523071,0.613892,-0.354919,0.703125
492152564562,-0.0626221,0.619141,-0.357605,0.696289
492152573534,-0.0731201,0.625,-0.358398,0.689575
492152596022,-0.0834961,0.630798,-0.359192,0.682678
492152617082,-0.0928955,0.635864,-0.359985,0.67627
492152633515,-0.100708,0.640137,-0.360657,0.670776
492152655788,-0.107117,0.643494,-0.362183,0.665771
492152676956,-0.111816,0.646423,-0.364807,0.660706
492152693433,-0.115234,0.649231,-0.367737,0.655701
492152716012,-0.117981,0.652344,-0.369629,0.651062
492152737076,-0.1203,0.655396,-0.370483,0.647095
492152753454,-0.122131,0.658142,-0.37146,0.643311
492152775966,-0.12323,0.660583,-0.372864,0.639771
492152797006,-0.12323,0.66272,-0.373779,0.637085
492152820925,-0.122253,0.664246,-0.373901,0.63562
492152835908,-0.120728,0.665039,-0.373474,0.635315
492152857020,-0.118835,0.665344,-0.372681,0.635803
492152873416,-0.116699,0.665405,-0.371155,0.637024
492152895903,-0.114014,0.664978,-0.368774,0.639343
492152916991,-0.110046,0.663879,-0.365906,0.642822
492152932722,-0.104736,0.662109,-0.362732,0.647339
492152956010,-0.0988159,0.660034,-0.359131,0.652344
492152977063,-0.0925293,0.657776,-0.354797,0.657898
492152992765,-0.0856934,0.655334,-0.34967,0.664001
492153016109,-0.0783691,0.652771,-0.344055,0.670349
492153037062,-0.0703735,0.649353,-0.338684,0.677246
492153052836,-0.062439,0.645447,-0.333069,0.684448
492153076016,-0.0541382,0.64093,-0.327698,0.692017
492153098504,-0.0458374,0.636414,-0.32196,0.699402
492153112822,-0.0376587,0.632324,-0.315918,0.706299
492153136007,-0.0294189,0.628357,-0.310303,0.712708
492153158438,-0.0214844,0.624207,-0.305115,0.718811
492153172919,-0.0136108,0.619385,-0.300537,0.725098
492153196025,-0.00543213,0.613953,-0.296753,0.731384
492153225987,0.00366211,0.607971,-0.294067,0.737427
492153239511,0.0137329,0.601685,-0.291992,0.743286
492153256005,0.0239258,0.595276,-0.289429,0.749146
492153278498,0.0350952,0.586975,-0.287109,0.756104
492153299548,0.0448608,0.578491,-0.282837,0.763733
492153315943,0.053772,0.569336,-0.277466,0.771912
492153338469,0.0652466,0.558533,-0.273438,0.780334
492153359558,0.0779419,0.545227,-0.269409,0.789917
492153375970,0.0887451,0.530762,-0.263977,0.800415
492153398607,0.0991821,0.515015,-0.257507,0.811523
492153421055,0.110474,0.498657,-0.250061,0.82251
492153435935,0.122437,0.481873,-0.242065,0.83313
492153458445,0.133423,0.465149,-0.234253,0.84314
492153479486,0.143127,0.447632,-0.226685,0.853027
492153496016,0.154846,0.427917,-0.220032,0.862793
492153518519,0.171143,0.40625,-0.215088,0.871399
492153539597,0.190491,0.38562,-0.211609,0.877625
492153556054,0.209534,0.365723,-0.208008,0.882629
492153578506,0.22699,0.346924,-0.200928,0.887512
492153599546,0.239319,0.32959,-0.190796,0.893066
492153615969,0.251343,0.31311,-0.180176,0.897949
492153638452,0.264832,0.295776,-0.170227,0.901855
492153659496,0.276611,0.279114,-0.160583,0.905396
492153675981,0.287903,0.262329,-0.150513,0.908569
492153698521,0.303467,0.246216,-0.140503,0.909668
492153719580,0.322754,0.231445,-0.131165,0.908264
492153736010,0.34259,0.218323,-0.122559,0.905457
492153758546,0.360962,0.205505,-0.114197,0.902405
492153779502,0.379944,0.193848,-0.106506,0.898132
492153795940,0.398376,0.184265,-0.0996094,0.892944
492153818514,0.415222,0.175171,-0.0929565,0.887817
492153839613,0.431396,0.167236,-0.0866699,0.882202
492153855335,0.445862,0.159607,-0.0795288,0.877136
492153878497,0.455872,0.152222,-0.0726929,0.873901
492153899546,0.464172,0.145386,-0.0679321,0.871033
492153915394,0.47406,0.139282,-0.0638428,0.867004
492153938473,0.484497,0.133423,-0.0582886,0.862549
492153959629,0.491089,0.128052,-0.052002,0.859985
492153975377,0.49585,0.123535,-0.0474854,0.858215
492153998543,0.500977,0.119995,-0.0446777,0.855896
492154020948,0.506287,0.117065,-0.0418701,0.853271
492154035407,0.511292,0.11499,-0.0379028,0.850769
492154058550,0.515198,0.113403,-0.0336304,0.848816
492154081092,0.518738,0.113281,-0.0307617,0.846802
492154095295,0.521973,0.114258,-0.0289307,0.844727
492154118529,0.524841,0.115295,-0.0264282,0.842896
492154148485,0.526428,0.116577,-0.0236206,0.841797
492154162019,0.52771,0.11731,-0.0202637,0.841003
492154178427,0.528809,0.11792,-0.0175171,0.840271
492154207013,0.530334,0.117859,-0.0148315,0.839355
492154222022,0.532349,0.117126,-0.012085,0.838257
492154238443,0.533875,0.116089,-0.0101318,0.837463
492154260956,0.534668,0.114746,-0.00891113,0.837097
492154282021,0.534912,0.112732,-0.00799561,0.83728
492154298513,0.534851,0.110779,-0.00726318,0.837585
492154320940,0.53418,0.109619,-0.00665283,0.838135
492154335290,0.531982,0.109863,-0.00640869,0.839478
492154358434,0.528564,0.110352,-0.00598145,0.841614
492154380945,0.526001,0.110596,-0.0055542,0.843201
492154402009,0.525146,0.110535,-0.00518799,0.84375
492154418554,0.525757,0.110107,-0.00482178,0.843384
492154441066,0.526611,0.10968,-0.0043335,0.842957
492154455384,0.526855,0.109314,-0.00402832,0.842834
492154478523,0.526855,0.109314,-0.00396729,0.842834
492154507102,0.526917,0.10907,-0.00421143,0.842834
492154522038,0.526917,0.108765,-0.0045166,0.842896
492154538487,0.526978,0.108582,-0.0045166,0.842834
492154560990,0.526855,0.108398,-0.00421143,0.842957
492154582085,0.526367,0.108215,-0.00390625,0.843262
492154598546,0.526306,0.108032,-0.00366211,0.843384
492154621088,0.526611,0.107788,-0.00341797,0.843201
492154642133,0.526672,0.107422,-0.00311279,0.843201
492154658521,0.526489,0.107056,-0.00299072,0.843384
492154680953,0.526306,0.106567,-0.00311279,0.843567
492154702105,0.526611,0.105957,-0.00323486,0.843445
492154718525,0.527344,0.105286,-0.00323486,0.843018
492154741060,0.528137,0.104614,-0.00317383,0.84259
492154762111,0.528564,0.104126,-0.00305176,0.842407
492154778503,0.528625,0.10376,-0.00292969,0.842407
492154808475,0.528687,0.10376,-0.00292969,0.842407
492154822100,0.528931,0.103638,-0.00286865,0.842224
492154838557,0.528992,0.103638,-0.00286865,0.842224
492154861077,0.528992,0.103638,-0.00286865,0.842224
492154882116,0.529419,0.103333,-0.00286865,0.84198
492154898542,0.530579,0.102844,-0.00292969,0.841309
492154921076,0.532471,0.1026,-0.00305176,0.840149
492154942100,0.533447,0.102478,-0.00262451,0.839539
492154958559,0.533386,0.102417,-0.00170898,0.8396
492154981053,0.533508,0.103455,-0.00164795,0.839417
492155003546,0.532898,0.10675,-0.00384521,0.839355
492155017833,0.534119,0.112915,-0.00976562,0.837708
492155041018,0.538208,0.123413,-0.0211182,0.833374
492155063594,0.541199,0.134827,-0.0325317,0.829346
492155084611,0.538086,0.146362,-0.0423584,0.828979
492155100969,0.527039,0.1604,-0.0529175,0.832825
492155123527,0.511841,0.175903,-0.0633545,0.83844
492155144606,0.496521,0.191406,-0.0744629,0.843323
492155161069,0.481018,0.208069,-0.0877075,0.847107
492155183544,0.467407,0.223999,-0.100586,0.849243
492155197133,0.454529,0.240601,-0.114075,0.849915
492155212889,0.440857,0.257812,-0.128174,0.850098
492155236039,0.425415,0.275513,-0.14209,0.85022
492155257173,0.408386,0.293701,-0.155273,0.850159
492155272871,0.390564,0.312683,-0.167725,0.849365
492155303525,0.372253,0.332397,-0.179626,0.847717
492155324575,0.352844,0.352783,-0.190796,0.845337
492155341008,0.332031,0.373535,-0.200867,0.842529
492155363569,0.31134,0.394409,-0.209656,0.838745
492155384579,0.291931,0.415649,-0.217224,0.833496
492155401061,0.273376,0.436646,-0.224426,0.827148
492155423502,0.25592,0.456238,-0.232361,0.819946
492155444609,0.239624,0.473389,-0.240967,0.812622
492155462291,0.224854,0.489685,-0.251282,0.804016
492155483524,0.213379,0.503113,-0.261719,0.795471
492155504622,0.202942,0.5177,-0.271362,0.785522
492155521118,0.190735,0.532837,-0.279968,0.775391
492155543536,0.17511,0.546021,-0.286255,0.767578
492155564638,0.160645,0.55719,-0.29126,0.760803
492155581508,0.145203,0.567932,-0.294739,0.754578
492155603535,0.129578,0.577942,-0.297791,0.748596
492155624618,0.11554,0.586792,-0.30127,0.742615
492155641591,0.103333,0.593933,-0.305603,0.736938
492155663522,0.0916138,0.599976,-0.310059,0.731689
492155684546,0.0801392,0.605225,-0.314575,0.726807
492155701004,0.0688477,0.609924,-0.319153,0.721985
492155723566,0.0576172,0.614746,-0.323486,0.71698
492155744557,0.0462646,0.619751,-0.327637,0.711609
492155760350,0.034729,0.624939,-0.331909,0.70575
492155783492,0.0229492,0.630005,-0.336182,0.699646
492155804648,0.0110474,0.634705,-0.340393,0.693604
492155820459,-0.000671387,0.638794,-0.344604,0.687805
492155843528,-0.0125732,0.641907,-0.349182,0.682495
492155864598,-0.024292,0.643616,-0.354187,0.677979
492155880394,-0.0346069,0.643921,-0.359924,0.674255
492155903543,-0.0425415,0.643188,-0.366211,0.671082
492155926099,-0.0489502,0.642273,-0.372681,0.667969
492155940408,-0.0552979,0.642029,-0.377747,0.664795
492155963511,-0.0614624,0.642822,-0.380554,0.661926
492155986123,-0.067749,0.644775,-0.380859,0.659241
492156000351,-0.0740967,0.647339,-0.379822,0.656616
492156023517,-0.0794678,0.649597,-0.379333,0.654053
492156046001,-0.0828247,0.651001,-0.379517,0.652161
492156067079,-0.0841675,0.651611,-0.379883,0.651123
492156083919,-0.0842285,0.651855,-0.380432,0.650574
492156105992,-0.083374,0.651855,-0.380676,0.650513
492156120344,-0.0817261,0.651855,-0.379944,0.651184
492156143475,-0.0794067,0.65155,-0.378479,0.652588
492156166001,-0.0765991,0.65094,-0.376526,0.654663
492156187176,-0.0733032,0.650024,-0.374451,0.657166
492156203590,-0.0697021,0.648926,-0.371887,0.660095
492156226014,-0.0661621,0.647705,-0.368652,0.663391
492156247154,-0.0628662,0.646362,-0.365051,0.667053
492156263583,-0.0594482,0.644653,-0.361572,0.670898
492156286084,-0.0558472,0.642517,-0.358398,0.674988
492156307094,-0.0526123,0.639954,-0.355469,0.679199
492156323616,-0.0491943,0.636963,-0.352539,0.683777
492156346079,-0.0455322,0.633911,-0.348999,0.688599
492156367093,-0.041687,0.630737,-0.344788,0.693909
492156383584,-0.0373535,0.627319,-0.340271,0.699463
492156406073,-0.0320435,0.623718,-0.335632,0.7052
492156427136,-0.0258789,0.620117,-0.330811,0.710815
492156443601,-0.0185547,0.616272,-0.326111,0.716553
492156466090,-0.0106812,0.612549,-0.321167,0.722107
492156487186,-0.00195312,0.608765,-0.315796,0.727722
492156503508,0.00756836,0.604858,-0.310303,0.733337
492156526028,0.0186157,0.600647,-0.305054,0.73877
492156547145,0.0325928,0.596252,-0.301208,0.743408
492156563570,0.0488281,0.592285,-0.298035,0.746948
492156586061,0.0679932,0.589966,-0.2948,0.748535
492156607049,0.0913696,0.587402,-0.293091,0.748779
492156622866,0.11499,0.585022,-0.291016,0.748169
492156646074,0.136475,0.580627,-0.287781,0.749268
492156667132,0.156555,0.574036,-0.282959,0.752258
492156682970,0.17627,0.56665,-0.276794,0.755737
492156706487,0.196899,0.559631,-0.270935,0.757996
492156727136,0.21759,0.552673,-0.264343,0.759766
492156742893,0.235535,0.543945,-0.255554,0.763733
492156766060,0.24823,0.533203,-0.245667,0.770447
492156787172,0.260925,0.519836,-0.23645,0.778259
492156802943,0.277283,0.504089,-0.229187,0.785095
492156826062,0.294678,0.487122,-0.222473,0.791382
492156847135,0.308289,0.469543,-0.214783,0.79895
492156862879,0.317688,0.4505,-0.205872,0.808533
492156886027,0.327637,0.429382,-0.196411,0.818298
492156908529,0.340271,0.408875,-0.186646,0.825928
492156922986,0.354309,0.391113,-0.17688,0.83075
492156946099,0.36731,0.375793,-0.16687,0.834229
492156968563,0.37915,0.360229,-0.157715,0.837585
492156982934,0.390991,0.34259,-0.148743,0.841125
492157006045,0.404419,0.323669,-0.139893,0.843811
492157028542,0.420715,0.305603,-0.132874,0.84375
492157049670,0.43866,0.288879,-0.126953,0.84137
492157066106,0.455261,0.273376,-0.121094,0.838623
492157088538,0.465698,0.25647,-0.113953,0.839233
492157109677,0.471436,0.239136,-0.107971,0.841919
492157126129,0.478516,0.223328,-0.104492,0.842712
492157148548,0.487488,0.2099,-0.10144,0.84137
492157169643,0.493469,0.19751,-0.097168,0.84137
492157186124,0.494202,0.18457,-0.0926514,0.844421
492157208622,0.495483,0.171143,-0.0907593,0.84668
492157229607,0.502686,0.15802,-0.0897827,0.845093
492157246012,0.51178,0.147156,-0.0864258,0.84198
492157268641,0.517822,0.139465,-0.0803833,0.840149
492157289621,0.518799,0.13501,-0.0742798,0.84082
492157306052,0.517029,0.131592,-0.0693359,0.842896
492157328602,0.51593,0.127563,-0.0649414,0.844543
492157349659,0.514221,0.124878,-0.0621338,0.846191
492157366126,0.509338,0.121155,-0.0587769,0.849915
492157388602,0.503906,0.116272,-0.0548706,0.854065
492157409714,0.499878,0.111206,-0.0523682,0.857239
492157432180,0.497253,0.10614,-0.0512085,0.859497
492157448547,0.495117,0.101929,-0.0501709,0.861328
492157469675,0.493347,0.0996094,-0.050293,0.86261
492157485411,0.492676,0.0979004,-0.0506592,0.863159
492157508582,0.492249,0.0967407,-0.0513306,0.863525
492157529555,0.493469,0.0957031,-0.0523682,0.862854
492157545422,0.49646,0.0942993,-0.0532227,0.861267
492157568602,0.499756,0.0926514,-0.053772,0.859436
492157589641,0.501892,0.0918579,-0.0540161,0.858276
492157605392,0.501953,0.09198,-0.0534668,0.858276
492157612922,0.500366,0.0925903,-0.0525513,0.859192
492157634007,0.497803,0.093689,-0.0518799,0.860596
492157656495,0.495178,0.0947876,-0.0514526,0.862
492157671507,0.49292,0.0956421,-0.0512085,0.86322
492157693954,0.491272,0.0964966,-0.0509644,0.864075
492157716464,0.490173,0.0974121,-0.0507202,0.864624
492157731544,0.48938,0.0981445,-0.0501709,0.865051
492157754013,0.489136,0.0983887,-0.0496826,0.865173
492157776426,0.489624,0.0982666,-0.0494385,0.864929
492157791481,0.490662,0.0978394,-0.0494995,0.86438
492157814019,0.491882,0.0973511,-0.0496216,0.863708
492157836515,0.493103,0.0969238,-0.0496826,0.863098
492157851522,0.493958,0.0965576,-0.0493774,0.862671
492157874039,0.494446,0.0964355,-0.0490723,0.862427
492157896571,0.494629,0.0966187,-0.0489502,0.862305
492157911471,0.49469,0.0969849,-0.0490112,0.862183
492157934069,0.494995,0.0974731,-0.0491943,0.861938
492157956568,0.495239,0.0978394,-0.0492554,0.861755
492157971596,0.495605,0.0982666,-0.0492554,0.861511
492157993987,0.496033,0.0984497,-0.0492554,0.861267
492158016523,0.496521,0.0985718,-0.0493774,0.860962
492158031524,0.497314,0.0986328,-0.0495605,0.860474
492158053995,0.49823,0.0986328,-0.0497437,0.859924
492158076490,0.498596,0.0986938,-0.0498047,0.859741
492158091473,0.498779,0.0986938,-0.0499268,0.859558
492158114043,0.499207,0.0986328,-0.0501099,0.859375
492158136448,0.499634,0.0986328,-0.050354,0.85907
492158151549,0.500366,0.0985107,-0.0506592,0.858643
492158174032,0.501526,0.0982666,-0.0509033,0.857971
492158196513,0.502686,0.0979004,-0.0510864,0.857361
492158211559,0.503784,0.0977173,-0.0511475,0.856689
492158234032,0.504395,0.0977783,-0.0512695,0.856323
492158256520,0.504761,0.0980835,-0.0512695,0.856079
492158271491,0.504517,0.0985107,-0.0509644,0.856201
492158293959,0.503967,0.098999,-0.0505981,0.856506
492158316545,0.503174,0.0993042,-0.0501709,0.856934
492158331509,0.502319,0.0993652,-0.0497437,0.857483
492158354146,0.50177,0.0992432,-0.0494385,0.857788
492158376507,0.501892,0.098999,-0.0494995,0.857788
492158391504,0.502319,0.0987549,-0.0496826,0.857544
492158414051,0.502686,0.0986328,-0.0498047,0.857361
492158436565,0.50293,0.0985718,-0.0498657,0.857178
492158452948,0.50293,0.0985718,-0.0498657,0.857178
492158473961,0.50293,0.0985718,-0.0498047,0.857178
492158496537,0.502991,0.0985107,-0.0498047,0.857178
492158512905,0.502747,0.0986328,-0.0494995,0.8573
492158533918,0.502441,0.0988159,-0.0494385,0.857483
492158556462,0.502136,0.0990601,-0.0494995,0.857605
492158572888,0.502136,0.0990601,-0.0494995,0.857605
492158593974,0.502502,0.0990601,-0.0496216,0.857422
492158616465,0.502808,0.0986938,-0.0493774,0.8573
492158632896,0.502747,0.0982666,-0.0490723,0.857361
492158654010,0.502625,0.0978394,-0.0489502,0.857544
492158676468,0.50238,0.0977173,-0.0489502,0.857666
492158694349,0.502686,0.0976562,-0.0491333,0.857483
492158714086,0.503357,0.0975952,-0.0491333,0.857117
492158736525,0.503479,0.0974731,-0.0488281,0.857056
492158752928,0.503174,0.097229,-0.048645,0.857239
492158774067,0.50293,0.0969238,-0.0485229,0.857483
492158796533,0.502502,0.0968018,-0.048584,0.857727
492158814446,0.502258,0.0966797,-0.048584,0.857849
492158833948,0.502014,0.0964966,-0.0485229,0.858032
492158856555,0.50177,0.0961914,-0.0484009,0.858215
492158874415,0.501465,0.0956421,-0.0482788,0.858459
492158894033,0.500977,0.0948486,-0.0481567,0.858887
492158916574,0.499512,0.0941772,-0.0479126,0.859802
492158934376,0.497925,0.0930786,-0.0480957,0.860779
492158954044,0.497681,0.0908203,-0.0488892,0.861145
492158976559,0.497864,0.0880127,-0.0496216,0.861267
492158994363,0.49762,0.0852051,-0.0499878,0.861694
492159013994,0.496643,0.0830078,-0.0504761,0.862427
492159036520,0.495544,0.081543,-0.0505981,0.86322
492159054469,0.494019,0.0805054,-0.0499878,0.864197
492159074049,0.491638,0.079895,-0.0487671,0.865662
492159096576,0.488892,0.0802612,-0.0473633,0.86731
492159114422,0.486084,0.081543,-0.0462646,0.868835
492159134040,0.482727,0.083374,-0.0452881,0.870544
492159156614,0.47937,0.0853271,-0.0445557,0.872253
492159174459,0.476868,0.0869751,-0.0443726,0.873474
492159194048,0.476074,0.0880127,-0.0447388,0.87384
492159216510,0.476318,0.0884399,-0.045105,0.873596
492159234414,0.476196,0.0889282,-0.0452271,0.873596
492159253962,0.475098,0.0897217,-0.0453491,0.874084
492159276540,0.472961,0.0906372,-0.0458984,0.875183
492159294435,0.470825,0.0914307,-0.0465698,0.876221
492159314021,0.469543,0.092041,-0.0471191,0.87677
492159336569,0.46759,0.0928345,-0.0477295,0.877747
492159354428,0.4646,0.0942383,-0.0484009,0.879089
492159375444,0.460876,0.0957031,-0.0493774,0.880859
492159396431,0.457458,0.0971069,-0.050293,0.882446
492159414348,0.454468,0.0983276,-0.0509644,0.883789
492159435515,0.451477,0.0999146,-0.0512695,0.885132
492159456534,0.448914,0.10144,-0.0514526,0.886292
492159480387,0.447083,0.1026,-0.052002,0.887024
492159495486,0.445984,0.10321,-0.0525513,0.887451
492159516518,0.445435,0.103516,-0.0526733,0.887695
492159534408,0.443115,0.104187,-0.0524292,0.888794
492159555505,0.439697,0.104858,-0.0525513,0.890442
492159576491,0.436523,0.105469,-0.0534668,0.891846
492159594394,0.43396,0.105713,-0.0545044,0.893005
492159615472,0.432251,0.105896,-0.0553589,0.893738
492159636598,0.430725,0.106079,-0.0557251,0.89447
492159654436,0.429871,0.106079,-0.0558472,0.894836
492159675453,0.430054,0.106018,-0.0557861,0.894775
492159696485,0.43042,0.106018,-0.055603,0.894592
492159714412,0.430115,0.106323,-0.0552979,0.894775
492159736984,0.428955,0.10675,-0.0552368,0.895264
492159756532,0.427368,0.107178,-0.0557251,0.895935
492159774421,0.426453,0.107483,-0.0563965,0.896301
492159796927,0.426514,0.107605,-0.0569458,0.896179
492159816572,0.426697,0.107544,-0.0571289,0.896118
492159834413,0.427002,0.107422,-0.0570068,0.895996
492159856938,0.427307,0.107361,-0.0567627,0.895874
492159876569,0.428284,0.107361,-0.0568237,0.895386
492159894440,0.429138,0.1073,-0.0568848,0.89502
492159916945,0.429749,0.107422,-0.0568237,0.894714
492159936572,0.429871,0.107605,-0.0567627,0.894592
492159954404,0.429626,0.107788,-0.0568237,0.894714
492159976162,0.429688,0.108032,-0.0570068,0.894653
492159996563,0.429626,0.108398,-0.0571899,0.894592
492160014404,0.429565,0.108398,-0.0571899,0.894653
492160036903,0.429626,0.108215,-0.057312,0.894653
492160059424,0.430115,0.10791,-0.057373,0.894409
492160081932,0.430786,0.107605,-0.0574951,0.894104
492160096940,0.431396,0.107239,-0.0574951,0.89386
492160116506,0.431885,0.106812,-0.057373,0.893677
492160134422,0.431946,0.106812,-0.057312,0.893677
492160156934,0.431702,0.106934,-0.0571899,0.893799
492160177190,0.431335,0.107056,-0.0570068,0.893921
492160193676,0.431091,0.106995,-0.0568848,0.894104
492160216186,0.430969,0.106812,-0.0567017,0.894165
492160237244,0.430969,0.106506,-0.0566406,0.894226
492160253594,0.43103,0.10614,-0.0566406,0.894226
492160276150,0.431091,0.105774,-0.0566406,0.894226
492160314202,0.431274,0.10553,-0.0567017,0.894165
492160316601,0.431274,0.10553,-0.0566406,0.894165
492160336175,0.431274,0.105469,-0.0566406,0.894165
492160357143,0.431274,0.10553,-0.0567017,0.894165
492160373423,0.431274,0.10553,-0.0567017,0.894165
492160396143,0.431274,0.10553,-0.0566406,0.894165
492160417173,0.43103,0.10553,-0.0565796,0.894287
492160433681,0.430725,0.10553,-0.0565186,0.89447
492160456112,0.430725,0.10553,-0.0565186,0.89447
492160477264,0.430969,0.10553,-0.0565186,0.894348
492160493616,0.43103,0.10553,-0.0565186,0.894287
492160516169,0.43103,0.10553,-0.0565186,0.894287
492160537181,0.43103,0.10553,-0.0565186,0.894287
492160553716,0.43103,0.105469,-0.0565186,0.894287
492160576082,0.43103,0.105469,-0.0565186,0.894348
492160597205,0.43103,0.105469,-0.0565186,0.894287
492160613671,0.431091,0.105469,-0.0564575,0.894287
492160636195,0.431091,0.105469,-0.0564575,0.894287
492160657283,0.430847,0.105469,-0.0564575,0.894409
492160673677,0.430542,0.105408,-0.0564575,0.894592
492160696276,0.430054,0.105225,-0.0564575,0.894836
492160718564,0.430115,0.105225,-0.0564575,0.894836
492160732967,0.430115,0.105286,-0.0564575,0.894775
492160756120,0.430115,0.105286,-0.0564575,0.894775
492160778644,0.430115,0.105225,-0.0564575,0.894775
492160793672,0.430115,0.105225,-0.0564575,0.894775
492160816220,0.430115,0.105225,-0.0564575,0.894775
492160838657,0.430298,0.105103,-0.0564575,0.894714
492160853007,0.430481,0.105042,-0.0564575,0.894653
492160876161,0.430481,0.105042,-0.0564575,0.894653
492160906155,0.430542,0.105042,-0.0564575,0.894653
492160912997,0.430542,0.105042,-0.0564575,0.894592
492160936107,0.430542,0.105042,-0.0564575,0.894592
492160958705,0.430725,0.105042,-0.0563965,0.894531
492160973032,0.430847,0.10498,-0.0562744,0.89447
492160996256,0.431152,0.104858,-0.0562134,0.894348
492161018672,0.431763,0.104736,-0.0562134,0.894104
492161032977,0.432312,0.104675,-0.0562134,0.893799
492161056206,0.432739,0.104614,-0.0562134,0.893616
492161078653,0.433105,0.104675,-0.0562134,0.893433
492161093007,0.433716,0.104736,-0.0562134,0.893127
492161116197,0.433716,0.104675,-0.0562134,0.893127
492161138437,0.433777,0.104675,-0.0562134,0.893127
492161153072,0.433716,0.104675,-0.0562134,0.893127
492161176099,0.43396,0.104675,-0.0561523,0.893005
492161198576,0.434387,0.104736,-0.0561523,0.892822
492161219739,0.434509,0.10498,-0.0561523,0.8927
492161236176,0.434509,0.10498,-0.0561523,0.8927
492161264679,0.434509,0.10498,-0.0561523,0.8927
492161279738,0.434509,0.10498,-0.0561523,0.8927
492161296186,0.434509,0.10498,-0.0561523,0.8927
492161318654,0.434509,0.10498,-0.0561523,0.8927
492161339750,0.434509,0.10498,-0.0561523,0.8927
492161356160,0.434509,0.10498,-0.0561523,0.8927
492161378611,0.434509,0.10498,-0.0560913,0.8927
492161399804,0.434509,0.104919,-0.0560913,0.8927
492161415912,0.434509,0.104919,-0.0560913,0.8927
492161438657,0.43457,0.104919,-0.0560913,0.8927
492161459768,0.43457,0.104919,-0.0560913,0.8927
492161476159,0.43457,0.10498,-0.0560913,0.8927
492161498701,0.43457,0.10498,-0.0560913,0.8927
492161519750,0.43457,0.104919,-0.0560913,0.8927
492161536184,0.43457,0.104919,-0.0560913,0.8927
492161558611,0.43457,0.104919,-0.0560913,0.8927
492161579688,0.43457,0.104919,-0.0560913,0.8927
492161596191,0.43457,0.10498,-0.0560913,0.8927
492161618648,0.434631,0.10498,-0.0560913,0.8927
492161641241,0.434631,0.10498,-0.0560913,0.892639
492161656205,0.434631,0.104919,-0.0560913,0.892639
492161678605,0.434631,0.104919,-0.0560913,0.892639
492161701577,0.434631,0.104919,-0.0560913,0.892639
492161716139,0.434631,0.104919,-0.0560913,0.892639
492161746196,0.434692,0.104919,-0.0560913,0.892639
492161761141,0.434692,0.104919,-0.0560913,0.892639
492161775555,0.434692,0.104919,-0.0560913,0.892639
492161798653,0.434692,0.104919,-0.0560913,0.892639
492161828630,0.434692,0.104919,-0.0560913,0.892639
492161835537,0.434753,0.104919,-0.0560913,0.892639
492161858724,0.434753,0.104919,-0.0560913,0.892578
492161881170,0.434753,0.104919,-0.0560913,0.892578
492161895513,0.434814,0.104919,-0.0560913,0.892578
492161918655,0.434814,0.104919,-0.0560913,0.892578
492161941252,0.434875,0.104919,-0.0560913,0.892578
492161955479,0.434875,0.104919,-0.0560913,0.892578
492161979208,0.434875,0.10498,-0.0560913,0.892578
492162001121,0.435059,0.10498,-0.0560303,0.892456
492162015586,0.435364,0.104919,-0.0560913,0.892334
492162038698,0.43573,0.104797,-0.0560913,0.892151
492162061243,0.436035,0.104858,-0.0561523,0.891968
492162075502,0.436096,0.104858,-0.0561523,0.891968
492162098719,0.436096,0.104858,-0.0561523,0.891968
492162121158,0.436096,0.104858,-0.0561523,0.891968
492162142261,0.43634,0.104797,-0.0560913,0.891846
492162158696,0.43634,0.104797,-0.0560913,0.891846
492162188777,0.43634,0.104797,-0.0560913,0.891846
492162209765,0.436401,0.104797,-0.0560913,0.891846
492162218728,0.436401,0.104797,-0.0560913,0.891846
492162241221,0.436646,0.104736,-0.0560913,0.891663
492162262264,0.437073,0.104675,-0.0561523,0.891479
492162278753,0.437439,0.104614,-0.0560913,0.891296
492162301626,0.4375,0.104614,-0.0560913,0.891296
492162322312,0.437378,0.104675,-0.0559692,0.891357
492162338673,0.437317,0.104675,-0.0559692,0.891357
492162361202,0.437378,0.104675,-0.0560303,0.891357
492162382264,0.437378,0.104675,-0.0560303,0.891357
492162398655,0.437378,0.104675,-0.0560303,0.891357
492162421238,0.437378,0.104675,-0.0560303,0.891357
492162442240,0.437439,0.104675,-0.0559692,0.891357
492162458648,0.437439,0.104675,-0.0559692,0.891296
492162481211,0.4375,0.104675,-0.0559692,0.891296
492162502264,0.4375,0.104675,-0.0559692,0.891296
492162518729,0.4375,0.104675,-0.0559692,0.891296
492162541188,0.4375,0.104675,-0.0559692,0.891296
492162563643,0.4375,0.104675,-0.0559692,0.891296
492162578705,0.4375,0.104675,-0.0559692,0.891296
492162601273,0.437561,0.104675,-0.0559692,0.891296
492162623683,0.437561,0.104736,-0.0559692,0.891296
492162638725,0.437561,0.104736,-0.0559692,0.891296
492162661255,0.437561,0.104736,-0.0559692,0.891296
492162683676,0.437561,0.104736,-0.0559692,0.891235
492162698679,0.437622,0.104675,-0.0559692,0.891235
492162721129,0.437622,0.104675,-0.0559692,0.891235
492162743604,0.437683,0.104736,-0.0559692,0.891235
492162764707,0.4375,0.104858,-0.0559692,0.891296
492162781154,0.4375,0.104858,-0.0559082,0.891296
492162809670,0.4375,0.104858,-0.0559082,0.891296
492162817975,0.437561,0.104858,-0.0559082,0.891296
492162841138,0.437561,0.104858,-0.0559082,0.891235
492162863650,0.437378,0.104919,-0.0559082,0.891357
492162878008,0.437317,0.104919,-0.0559082,0.891357
492162901166,0.437378,0.104919,-0.0559082,0.891357
492162923621,0.437378,0.10498,-0.0559082,0.891357
492162938044,0.437378,0.104919,-0.0559082,0.891296
492162961159,0.437439,0.10498,-0.0559082,0.891296
492162983731,0.437439,0.10498,-0.0559082,0.891296
492162998078,0.437317,0.105103,-0.0558472,0.891357
492163021190,0.437317,0.105103,-0.0558472,0.891357
492163043714,0.43689,0.105347,-0.0558472,0.891541
492163064796,0.43689,0.105408,-0.0558472,0.891541
492163081047,0.437012,0.105347,-0.0559082,0.891479
492163111235,0.437195,0.105286,-0.0559692,0.891357
492163124823,0.437439,0.105408,-0.0560303,0.891235
492163141237,0.437439,0.105408,-0.0560303,0.891235
492163163711,0.4375,0.105408,-0.0560303,0.891235
492163184770,0.4375,0.105408,-0.0560303,0.891235
492163201162,0.437439,0.10553,-0.0560303,0.891235
492163223719,0.437134,0.105591,-0.0559692,0.891357
492163244825,0.437134,0.105591,-0.0559692,0.891357
492163261219,0.437134,0.105591,-0.0559692,0.891357
492163283806,0.437134,0.105591,-0.0559692,0.891357
492163304713,0.437134,0.105591,-0.0559692,0.891357
492163321182,0.437134,0.105591,-0.0559692,0.891357
492163343827,0.437134,0.105591,-0.0559692,0.891357
492163364814,0.437195,0.105652,-0.0559692,0.891357
492163381214,0.437195,0.105652,-0.0559692,0.891357
492163403627,0.437195,0.105652,-0.0559692,0.891357
492163424737,0.437195,0.105652,-0.0559692,0.891357
492163441195,0.437195,0.105652,-0.0559692,0.891296
492163463631,0.437195,0.105652,-0.0559692,0.891296
492163484711,0.437195,0.105652,-0.0559692,0.891296
492163501222,0.437195,0.105652,-0.0559692,0.891357
492163523649,0.437195,0.105713,-0.0559692,0.891296
492163546187,0.437195,0.105713,-0.0559692,0.891357
492163567292,0.437195,0.105713,-0.0559692,0.891357
492163583670,0.437195,0.105713,-0.0559692,0.891296
492163606149,0.437256,0.105652,-0.0559692,0.891296
492163621173,0.437256,0.105713,-0.0559692,0.891296
492163643678,0.437256,0.105713,-0.0559692,0.891296
492163666152,0.437256,0.105713,-0.0559692,0.891296
492163680515,0.437256,0.105713,-0.0559692,0.891296
492163703664,0.437256,0.105713,-0.0559692,0.891296
492163726148,0.437317,0.105713,-0.0559692,0.891296
492163740493,0.437317,0.105713,-0.0559692,0.891296
492163764089,0.437317,0.105713,-0.0559692,0.891296
492163786208,0.437256,0.105713,-0.0559692,0.891296
492163800525,0.437256,0.105713,-0.0559692,0.891296
492163823680,0.437317,0.105713,-0.0559692,0.891296
492163846150,0.437317,0.105713,-0.0559692,0.891296
492163860520,0.437317,0.105713,-0.0559692,0.891235
492163883680,0.437317,0.105713,-0.0559692,0.891235
492163906180,0.437317,0.105713,-0.0559692,0.891235
492163920464,0.437317,0.105713,-0.0560303,0.891235
492163943703,0.437317,0.105713,-0.0560303,0.891296
492163966167,0.437317,0.105713,-0.0560303,0.891296
492163980545,0.437744,0.105774,-0.0560913,0.891052
492164003646,0.437744,0.105774,-0.0560913,0.891052
492164026175,0.437744,0.105774,-0.0560913,0.891052
492164047259,0.437744,0.105774,-0.0560913,0.891052
492164063661,0.437744,0.105774,-0.0560913,0.891052
492164086214,0.437805,0.105835,-0.0561523,0.890991
492164107281,0.437805,0.105835,-0.0561523,0.890991
492164123704,0.437744,0.105835,-0.0561523,0.891052
492164146143,0.437744,0.105835,-0.0561523,0.891052
492164167284,0.437927,0.105835,-0.0562134,0.89093
492164183677,0.438293,0.105957,-0.0563354,0.890747
492164206142,0.438293,0.105896,-0.0563354,0.890747
492164227219,0.438293,0.105896,-0.0563354,0.890747
492164243701,0.438538,0.106079,-0.0565186,0.890564
492164266142,0.438965,0.106079,-0.0565796,0.890381
492164287230,0.439392,0.10614,-0.0567017,0.890137
492164303643,0.440125,0.106323,-0.0568237,0.889771
492164326166,0.440247,0.106384,-0.0568237,0.889709
492164347254,0.439941,0.106323,-0.0567627,0.889832
492164363684,0.43927,0.10614,-0.0567017,0.890198
492164386199,0.438538,0.105835,-0.0567627,0.890625
492164407263,0.437927,0.105652,-0.0568237,0.89093
492164423701,0.437866,0.105225,-0.0568237,0.890991
492164446158,0.43689,0.104614,-0.0570679,0.891541
492164476147,0.435425,0.103821,-0.0574951,0.892334
492164483660,0.434143,0.102783,-0.0580444,0.893066
492164506204,0.432434,0.101929,-0.0585327,0.893921
492164528604,0.430115,0.101257,-0.059021,0.895081
492164543640,0.428101,0.100708,-0.0593872,0.896118
492164566223,0.426575,0.0999146,-0.0595703,0.896912
492164588640,0.425476,0.0991821,-0.0596924,0.897461
492164602995,0.424194,0.0985718,-0.0597534,0.898132
492164626149,0.423218,0.0983887,-0.0596313,0.898621
492164648697,0.422302,0.0985107,-0.0596313,0.899048
492164663023,0.421204,0.098877,-0.0596313,0.899536
492164692214,0.420105,0.0991211,-0.0596313,0.900024
492164708642,0.419434,0.0992432,-0.0596924,0.90033
492164723062,0.419617,0.0990601,-0.0599976,0.900269
492164746208,0.420166,0.0986938,-0.0601807,0.900024
492164768712,0.420959,0.0985718,-0.0604248,0.899658
492164783026,0.422119,0.0985107,-0.0606079,0.899109
492164806243,0.423462,0.0983276,-0.0606079,0.898499
492164828700,0.4245,0.0983887,-0.0606079,0.897949
492164843001,0.425537,0.0987549,-0.0605469,0.897461
492164866174,0.425781,0.0995483,-0.0605469,0.897278
492164888715,0.425415,0.100403,-0.0604858,0.897339
492164903044,0.425903,0.101135,-0.0604858,0.897034
492164926186,0.426331,0.10144,-0.0604858,0.89679
492164948694,0.426086,0.101746,-0.0604248,0.896851
492164969786,0.426025,0.101746,-0.0604248,0.896851
492164986242,0.426025,0.101746,-0.0604248,0.896912
492165008643,0.426025,0.101746,-0.0604248,0.896912
492165029772,0.425964,0.101685,-0.0604248,0.896912
492165046216,0.425964,0.101685,-0.0604248,0.896912
492165068754,0.426208,0.101685,-0.0604248,0.89679
492165089751,0.426514,0.101746,-0.0604858,0.896667
492165106139,0.426758,0.101807,-0.0605469,0.896545
492165128705,0.426758,0.101807,-0.0605469,0.896545
492165149807,0.426941,0.10199,-0.0605469,0.896423
492165166253,0.427307,0.102234,-0.0605469,0.89624
492165188832,0.427307,0.102539,-0.0604248,0.896179
492165209849,0.427795,0.102783,-0.0604858,0.895935
492165226249,0.428162,0.102783,-0.0606079,0.895752
492165248702,0.428528,0.102661,-0.0608521,0.895569
492165269850,0.428711,0.102661,-0.0612183,0.895447
492165286288,0.428711,0.102722,-0.0612793,0.895447
492165308721,0.428894,0.102783,-0.0614624,0.895325
492165329751,0.429199,0.102722,-0.0614624,0.895203
492165346243,0.429504,0.102539,-0.0614624,0.895081
492165368732,0.429749,0.102356,-0.0614624,0.894958
492165389849,0.429932,0.102417,-0.0614624,0.894897
492165406270,0.430176,0.1026,-0.0615234,0.894714
492165428779,0.43042,0.102844,-0.0614624,0.894592
492165451221,0.430481,0.103149,-0.0614014,0.894531
492165466285,0.430542,0.103455,-0.0614014,0.89447
492165471699,0.430725,0.103638,-0.0614624,0.894348
492165494173,0.430664,0.103638,-0.0614624,0.894348
492165516772,0.430725,0.103516,-0.0614014,0.894348
492165531652,0.431396,0.103394,-0.0615234,0.894043
492165554237,0.432007,0.103149,-0.0615234,0.893799
492165576658,0.432495,0.102966,-0.0614624,0.893555
492165591656,0.432983,0.102722,-0.0612183,0.893372
492165617063,0.433411,0.102539,-0.0610962,0.89325
492165636617,0.433655,0.102417,-0.0610352,0.893066
492165651682,0.433899,0.102356,-0.0611572,0.893005
492165674203,0.43396,0.102234,-0.0612183,0.892944
492165696614,0.434204,0.102173,-0.0613403,0.892822
492165711672,0.434814,0.102051,-0.0615234,0.892517
492165734100,0.435486,0.101929,-0.0617065,0.892212
492165756706,0.435913,0.101868,-0.0618896,0.892029
492165771679,0.435913,0.101929,-0.0618896,0.892029
492165794182,0.435852,0.101929,-0.0618896,0.892029
492165816684,0.435852,0.101929,-0.0618896,0.892029
492165831645,0.435974,0.101746,-0.0618286,0.892029
492165854230,0.436218,0.101746,-0.0617065,0.891907
492165876701,0.436584,0.101807,-0.0615234,0.891724
492165891636,0.436768,0.10199,-0.0612793,0.891663
492165914224,0.43689,0.102112,-0.0610352,0.891602
492165936669,0.437134,0.102295,-0.0609131,0.891418
492165951742,0.4375,0.102356,-0.0609131,0.891235
492165974164,0.437927,0.102295,-0.0609131,0.891052
492165996683,0.438477,0.102295,-0.0610352,0.890747
492166013079,0.439148,0.102295,-0.0610962,0.890442
492166034246,0.439575,0.102417,-0.0612183,0.890198
492166056722,0.439514,0.102539,-0.0612793,0.890198
492166073124,0.439148,0.1026,-0.0612183,0.890381
492166094192,0.439087,0.1026,-0.0612183,0.890381
492166116626,0.439087,0.1026,-0.0612183,0.890442
492166133142,0.439087,0.1026,-0.0612183,0.890442
492166154133,0.439087,0.1026,-0.0612183,0.890442
492166184875,0.439026,0.1026,-0.0612793,0.890442
492166193123,0.439026,0.1026,-0.0612793,0.890442
492166214231,0.439026,0.1026,-0.0612183,0.890442
492166236687,0.439026,0.1026,-0.0612183,0.890442
492166253198,0.438965,0.1026,-0.0612793,0.890442
492166274236,0.438965,0.1026,-0.0612793,0.890442
492166296672,0.439209,0.102722,-0.0614014,0.89032
492166313127,0.439209,0.102722,-0.0614014,0.89032
492166334170,0.439209,0.102722,-0.0614014,0.89032
492166356666,0.439026,0.102905,-0.0613403,0.890442
492166374553,0.439026,0.102905,-0.0613403,0.890442
492166394113,0.439026,0.102905,-0.0613403,0.890442
492166416667,0.438965,0.102905,-0.0613403,0.890442
492166434650,0.438782,0.103027,-0.0613403,0.890503
492166454162,0.438721,0.103027,-0.0614014,0.890564
492166478148,0.438721,0.103027,-0.0614014,0.890564
492166494566,0.438721,0.103027,-0.0614014,0.890564
492166514216,0.43866,0.103027,-0.0614014,0.890564
492166536649,0.43866,0.103088,-0.0614014,0.890564
492166554546,0.43866,0.103088,-0.0614014,0.890564
492166574189,0.43866,0.103088,-0.0614014,0.890564
492166596634,0.438599,0.103088,-0.0614014,0.890564
492166614612,0.43866,0.103088,-0.0614014,0.890564
492166634185,0.43866,0.103088,-0.0614014,0.890564
492166656710,0.438599,0.103088,-0.0614014,0.890564
492166674551,0.438599,0.103149,-0.0614014,0.890564
492166695625,0.438599,0.103149,-0.0614624,0.890564
492166716667,0.438599,0.103149,-0.0614624,0.890564
492166734580,0.438293,0.10321,-0.0614014,0.890747
492166754071,0.438293,0.10321,-0.0614014,0.890747
492166776580,0.438293,0.10321,-0.0614014,0.890747
492166794553,0.438293,0.10321,-0.0614624,0.890747
492166814179,0.438293,0.10321,-0.0614624,0.890747
492166836596,0.438049,0.103149,-0.0614014,0.890869
492166854533,0.438049,0.103149,-0.0614014,0.890869
492166874127,0.437988,0.103149,-0.0614014,0.890869
492166896660,0.438049,0.103149,-0.0614014,0.890869
492166914575,0.438049,0.10321,-0.0614014,0.890869
492166934203,0.437988,0.10321,-0.0614014,0.890869
492166956694,0.437988,0.10321,-0.0614014,0.890869
492166975058,0.437927,0.10321,-0.0614014,0.89093
492166995675,0.437927,0.10321,-0.0614624,0.89093
492167019542,0.438049,0.10321,-0.0614624,0.890869
492167034596,0.438049,0.10321,-0.0614624,0.890808
