timestamp,roll,pitch,yaw
151290967262,-1.07066,-1.52225,1.03482
151290989742,-1.07867,-1.52188,1.04335
151291006765,-1.08655,-1.52151,1.05175
151291027480,-1.09132,-1.5211,1.05704
151291049737,-1.09899,-1.52073,1.06522
151291071053,-1.10446,-1.52032,1.07112
151291087561,-1.11217,-1.52007,1.079
151291122748,-1.11885,-1.51798,1.08553
151291147330,-1.12998,-1.5176,1.09612
151291148166,-1.13491,-1.51709,1.10071
151291167745,-1.13949,-1.51496,1.10513
151291190869,-1.14887,-1.51439,1.11406
151291206708,-1.1517,-1.51389,1.1167
151291227750,-1.1544,-1.51192,1.11925
151291244163,-1.15436,-1.51133,1.1192
151291266713,-1.156,-1.50934,1.12111
151291287795,-1.15996,-1.50875,1.1255
151291304104,-1.15962,-1.50827,1.1255
151291326622,-1.15443,-1.50657,1.12067
151291347724,-1.15616,-1.50624,1.12248
151291364139,-1.14924,-1.50598,1.116
151291386650,-1.14858,-1.50599,1.11542
151291407780,-1.14803,-1.50605,1.11479
151291424146,-1.14803,-1.50605,1.11479
151291446733,-1.14803,-1.50605,1.11479
151291467780,-1.14724,-1.50607,1.11347
151291484168,-1.14408,-1.50606,1.10979
151291506728,-1.13791,-1.50472,1.1032
151291529138,-1.13307,-1.50591,1.09791
151291544208,-1.12654,-1.50569,1.09102
151291566740,-1.12036,-1.50427,1.08416
151291589135,-1.1183,-1.50404,1.08211
151291604134,-1.1136,-1.50261,1.07716
151291626713,-1.11415,-1.50255,1.0778
151291649117,-1.11282,-1.50206,1.07776
151291670185,-1.11663,-1.50288,1.08276
151291686714,-1.114,-1.50121,1.08102
151291709148,-1.11022,-1.50085,1.0781
151291724134,-1.10333,-1.50061,1.07173
151291746749,-1.09705,-1.50032,1.06605
151291769144,-1.09172,-1.50015,1.06133
151291784152,-1.08584,-1.50003,1.05597
151291806754,-1.08212,-1.50117,1.05275
151291829155,-1.07486,-1.50109,1.04618
151291844140,-1.06698,-1.50097,1.03865
151291866722,-1.05786,-1.50081,1.02961
151291889165,-1.05036,-1.50065,1.02185
151291904148,-1.04234,-1.50041,1.0134
151291936263,-1.03564,-1.499,1.00653
151291948373,-1.02989,-1.49879,1.00035
151291970892,-1.02216,-1.4985,0.992351
151291985879,-1.01394,-1.49711,0.983795
151292024060,-1.01058,-1.49681,0.979912
151292030897,-1.00137,-1.49647,0.970439
151292047318,-0.998044,-1.49495,0.967643
151292068364,-0.999694,-1.49455,0.969981
151292098158,-1.00442,-1.4943,0.975309
151292108847,-1.00513,-1.49428,0.97593
151292128419,-1.00294,-1.49414,0.974259
151292158830,-1.0077,-1.4941,0.979375
151292167340,-1.01388,-1.49401,0.98572
151292188341,-1.01817,-1.49388,0.990187
151292210844,-1.02128,-1.49369,0.993375
151292225887,-1.02795,-1.49355,1.0003
151292248361,-1.03392,-1.49343,1.00662
151292279035,-1.03964,-1.49325,1.01304
151292285861,-1.04524,-1.49291,1.01941
151292309105,-1.05214,-1.4924,1.02665
151292330886,-1.05788,-1.48926,1.03163
151292347296,-1.0538,-1.48741,1.02659
151292375642,-1.05953,-1.48665,1.03257
151292390875,-1.07483,-1.48612,1.04925
151292405830,-1.08953,-1.48603,1.06499
151292428453,-1.10027,-1.48606,1.07591
151292459072,-1.10791,-1.48487,1.08338
151292465897,-1.11568,-1.48447,1.09098
151292488412,-1.11963,-1.48267,1.09483
151292512285,-1.12115,-1.48053,1.09627
151292525906,-1.10954,-1.47282,1.08361
151292564046,-1.06773,-1.46382,1.03825
151292570898,-1.04199,-1.4579,1.01025
151292594788,-1.02916,-1.45389,0.995948
151292608373,-1.02373,-1.45032,0.990353
151292647926,-1.023,-1.44854,0.99023
151292650348,-1.02507,-1.44772,0.993237
151292675888,-1.03027,-1.4465,0.999649
151292692284,-1.03423,-1.44612,1.00543
151292707338,-1.03732,-1.44597,1.01042
151292735888,-1.04595,-1.44689,1.0201
151292744158,-1.05866,-1.44874,1.03383
151292767317,-1.06992,-1.45009,1.04718
151292789838,-1.08056,-1.45159,1.05964
151292804196,-1.09571,-1.45312,1.07583
151292834827,-1.10957,-1.45514,1.09133
151292855973,-1.1186,-1.45557,1.10183
151292872360,-1.13072,-1.45671,1.11464
151292887390,-1.14106,-1.4577,1.12566
151292916301,-1.14597,-1.45779,1.13144
151292925672,-1.14925,-1.45789,1.1355
151292947373,-1.15706,-1.45889,1.14339
151292968530,-1.16472,-1.45919,1.15088
151292984302,-1.17048,-1.45946,1.15691
151293008101,-1.17446,-1.46068,1.16141
151293028458,-1.18453,-1.46215,1.17087
151293044266,-1.1955,-1.46277,1.18123
151293067331,-1.20718,-1.46406,1.19266
151293095963,-1.21599,-1.46449,1.20138
151293104227,-1.22787,-1.46576,1.21335
151293127386,-1.23786,-1.46596,1.22395
151293149879,-1.24861,-1.46705,1.23582
151293178432,-1.25687,-1.46732,1.24433
151293194932,-1.26459,-1.46745,1.25223
151293208438,-1.27136,-1.46746,1.25917
151293224270,-1.28028,-1.46741,1.26827
151293247389,-1.28669,-1.46821,1.27554
151293268460,-1.28868,-1.46752,1.27814
151293284265,-1.29299,-1.46734,1.28288
151293314877,-1.29707,-1.46803,1.2873
151293328446,-1.29741,-1.46711,1.28799
151293344225,-1.30019,-1.46691,1.29102
151293374867,-1.30356,-1.46664,1.29448
151293389810,-1.30303,-1.46564,1.29395
151293410943,-1.30595,-1.46627,1.29679
151293427172,-1.30667,-1.46533,1.29759
151293455910,-1.30665,-1.46425,1.29757
151293472346,-1.30806,-1.46492,1.29829
151293486785,-1.30697,-1.46386,1.29633
151293509849,-1.3058,-1.46367,1.29404
151293524203,-1.3013,-1.46268,1.2885
151293554866,-1.2996,-1.46236,1.28543
151293575898,-1.29794,-1.46127,1.28238
151293590908,-1.29679,-1.46116,1.27984
151293606736,-1.29269,-1.46023,1.27436
151293629907,-1.28919,-1.45992,1.26991
151293652452,-1.287,-1.45885,1.26711
151293666764,-1.28433,-1.45854,1.26428
151293690348,-1.2826,-1.45759,1.26237
151293704709,-1.28098,-1.45748,1.25997
151293734913,-1.28073,-1.45778,1.25834
151293749933,-1.2819,-1.45815,1.25925
151293770959,-1.28161,-1.45937,1.2594
151293786793,-1.28355,-1.46057,1.26141
151293816037,-1.28355,-1.46057,1.26141
151293832409,-1.28301,-1.46065,1.26087
151293846797,-1.28301,-1.46065,1.26087
151293869922,-1.28301,-1.46065,1.26087
151293884227,-1.28268,-1.46069,1.26064
151293906802,-1.28098,-1.45994,1.25885
151293929977,-1.27879,-1.45984,1.25631
151293944257,-1.2788,-1.46061,1.25632
151293966759,-1.2788,-1.46061,1.25632
151293989877,-1.27653,-1.46041,1.25431
151294028753,-1.27574,-1.46023,1.25378
151294033419,-1.27394,-1.45993,1.25241
151294050348,-1.27038,-1.45888,1.24937
151294070934,-1.26828,-1.45786,1.2478
151294095305,-1.26905,-1.4575,1.24856
151294111309,-1.26715,-1.45765,1.24606
151294132415,-1.27027,-1.45801,1.24736
151294146775,-1.27392,-1.45908,1.25031
151294170565,-1.27756,-1.45982,1.25361
151294190932,-1.284,-1.46113,1.25997
151294206719,-1.28812,-1.46231,1.264
151294229841,-1.28754,-1.4619,1.26325
151294251044,-1.29113,-1.46376,1.26778
151294266768,-1.29519,-1.46395,1.27297
151294289878,-1.30056,-1.46483,1.28042
151294311027,-1.30497,-1.46609,1.28734
151294326766,-1.31205,-1.46746,1.2958
151294349256,-1.31216,-1.46901,1.29825
151294378499,-1.31183,-1.47054,1.29921
151294386731,-1.31183,-1.47054,1.29921
151294409258,-1.31129,-1.46978,1.29867
151294430959,-1.30554,-1.46971,1.29197
151294446779,-1.3003,-1.47039,1.28595
151294469298,-1.29374,-1.46924,1.27913
151294492362,-1.29247,-1.46882,1.27838
151294506780,-1.28812,-1.46795,1.27507
151294529209,-1.29126,-1.46876,1.27882
151294552398,-1.29863,-1.46874,1.28592
151294566766,-1.30585,-1.46885,1.2941
151294604871,-1.31385,-1.46888,1.3027
151294612419,-1.32199,-1.46997,1.31188
151294626713,-1.33172,-1.47003,1.32221
151294649296,-1.33897,-1.47018,1.33033
151294678439,-1.34014,-1.47028,1.3315
151294686743,-1.33653,-1.4704,1.32711
151294709326,-1.32806,-1.46911,1.31717
151294732481,-1.31712,-1.46744,1.30459
151294746755,-1.31939,-1.46773,1.30625
151294777388,-1.3073,-1.46576,1.29105
151294792856,-1.28722,-1.46647,1.26942
151294814878,-1.29121,-1.46964,1.27479
151294829238,-1.28808,-1.47086,1.27217
151294859955,-1.30959,-1.47153,1.29144
151294873436,-1.30157,-1.47086,1.28161
151294889323,-1.29236,-1.47197,1.27118
151294912440,-1.28422,-1.47215,1.2627
151294942422,-1.27641,-1.47242,1.25515
151294949246,-1.27363,-1.47246,1.25151
151294972415,-1.264,-1.47256,1.24161
151294993472,-1.25359,-1.47272,1.23112
151295016670,-1.25058,-1.47384,1.2288
151295039903,-1.24767,-1.47516,1.22805
151295053487,-1.24249,-1.47673,1.22538
151295069291,-1.23294,-1.47835,1.21851
151295092480,-1.22052,-1.4799,1.20843
151295120991,-1.20877,-1.48151,1.19788
151295137384,-1.19809,-1.48209,1.18799
151295152461,-1.18754,-1.48366,1.17752
151295173513,-1.17614,-1.48536,1.16568
151295189289,-1.16907,-1.4858,1.15862
151295219873,-1.15919,-1.4874,1.14951
151295234904,-1.14679,-1.48801,1.13764
151295249271,-1.13749,-1.49062,1.12877
151295272431,-1.12847,-1.49091,1.12026
151295300999,-1.11741,-1.49116,1.10972
151295317397,-1.10524,-1.49149,1.0979
151295331748,-1.09708,-1.49279,1.0899
151295356403,-1.08576,-1.49196,1.07877
151295369226,-1.08091,-1.4934,1.07365
151295391759,-1.07711,-1.49492,1.07002
151295414951,-1.07025,-1.49427,1.063
151295429304,-1.06609,-1.49588,1.05823
151295451790,-1.06294,-1.49743,1.05464
151295474924,-1.05703,-1.49782,1.04839
151295497356,-1.05686,-1.49805,1.0477
151295512238,-1.05425,-1.49689,1.04501
151295525313,-1.05629,-1.49809,1.04705
151295548508,-1.05358,-1.49693,1.04443
151295562797,-1.0536,-1.49808,1.04445
151295585255,-1.0536,-1.49808,1.04445
151295608446,-1.05303,-1.49812,1.04378
151295624293,-1.05083,-1.49792,1.04167
151295645313,-1.05009,-1.49766,1.04067
151295676654,-1.05188,-1.49626,1.04229
151295690940,-1.05237,-1.49593,1.04252
151295706733,-1.04961,-1.49436,1.03942
151295728410,-1.04809,-1.49369,1.03747
151295742815,-1.04535,-1.49199,1.03447
151295774160,-1.04489,-1.49136,1.03418
151295788582,-1.04353,-1.48967,1.0336
151295802829,-1.04403,-1.48923,1.03496
151295825326,-1.04512,-1.48774,1.03682
151295848464,-1.04448,-1.48739,1.03705
151295870957,-1.04445,-1.48701,1.0378
151295885362,-1.04569,-1.48558,1.03947
151295909932,-1.05255,-1.48516,1.04564
151295931037,-1.05871,-1.48491,1.05145
151295945391,-1.06061,-1.48377,1.0537
151295968501,-1.06458,-1.48354,1.05707
151295984300,-1.06815,-1.48335,1.05977
151296005324,-1.06795,-1.48328,1.05871
151296029202,-1.07206,-1.4832,1.06213
151296051006,-1.07221,-1.48213,1.06168
151296065331,-1.07635,-1.48316,1.06538
151296088903,-1.07945,-1.48234,1.06805
151296102897,-1.08367,-1.48352,1.07209
151296125354,-1.09055,-1.48465,1.07897
151296148536,-1.09561,-1.48379,1.08421
151296162896,-1.10555,-1.48482,1.09457
151296185354,-1.11251,-1.48378,1.10189
151296208526,-1.11849,-1.48359,1.10855
151296222866,-1.12216,-1.48339,1.11301
151296246825,-1.12807,-1.48319,1.1196
151296268498,-1.12963,-1.48301,1.12168
151296284268,-1.13251,-1.48292,1.12499
151296305358,-1.13113,-1.48296,1.12448
151296329931,-1.13077,-1.48313,1.12464
151296342873,-1.13503,-1.48332,1.12907
151296373525,-1.13503,-1.48332,1.12907
151296387854,-1.1348,-1.48447,1.12919
151296402843,-1.14099,-1.48444,1.13632
151296425429,-1.14726,-1.48441,1.14338
151296456478,-1.15055,-1.48427,1.14718
151296464313,-1.14988,-1.48411,1.14694
151296485417,-1.15113,-1.48283,1.14828
151296507942,-1.15277,-1.48247,1.15009
151296525767,-1.15082,-1.48129,1.14849
151296545412,-1.15293,-1.48109,1.15068
151296567906,-1.15511,-1.48089,1.15278
151296591067,-1.15466,-1.48188,1.15241
151296606817,-1.15291,-1.4809,1.15067
151296627881,-1.15466,-1.48188,1.15241
151296650999,-1.15253,-1.48094,1.1502
151296673468,-1.1538,-1.48196,1.15155
151296687936,-1.15206,-1.48097,1.14981
151296702816,-1.15567,-1.48086,1.15307
151296733582,-1.15888,-1.48078,1.15586
151296747819,-1.16037,-1.48067,1.15691
151296762940,-1.16222,-1.48052,1.15842
151296785399,-1.16404,-1.47943,1.1599
151296816707,-1.16633,-1.47925,1.16175
151296822849,-1.16904,-1.47921,1.16411
151296845354,-1.16905,-1.48014,1.16413
151296878172,-1.16733,-1.47917,1.16241
151296882901,-1.16688,-1.47921,1.16204
151296905439,-1.17201,-1.47913,1.167
151296927949,-1.17147,-1.47897,1.16655
151296942854,-1.17264,-1.47866,1.16763
151296965374,-1.17539,-1.47857,1.17064
151296996643,-1.17643,-1.47753,1.17194
151297011063,-1.1796,-1.4774,1.17528
151297033568,-1.18172,-1.47691,1.17835
151297047862,-1.15439,-1.46507,1.14903
151297062910,-1.10477,-1.45172,1.09267
151297085343,-1.07953,-1.44712,1.06543
151297116657,-1.07031,-1.44214,1.05353
151297122874,-1.05655,-1.43493,1.03561
151297145379,-1.04065,-1.43052,1.01729
151297167907,-1.03223,-1.42815,1.00756
151297182904,-1.02732,-1.42687,1.00178
151297205388,-1.02479,-1.42532,0.99874
151297235999,-1.02493,-1.42509,0.998276
151297244323,-1.02439,-1.42422,0.997218
151297265400,-1.02501,-1.42406,0.997487
151297287849,-1.0253,-1.42401,0.997866
151297311817,-1.02681,-1.4243,0.999377
151297325346,-1.03311,-1.42536,1.00584
151297347840,-1.03891,-1.42659,1.01217
151297365755,-1.04568,-1.42857,1.01972
151297385346,-1.05449,-1.43104,1.02905
151297407855,-1.06681,-1.43455,1.04207
151297425777,-1.08375,-1.43926,1.06099
151297445332,-1.10745,-1.44426,1.08695
151297467829,-1.13557,-1.44934,1.1168
151297484323,-1.16186,-1.45371,1.14491
151297506846,-1.18529,-1.45776,1.17007
151297527933,-1.20581,-1.46068,1.19189
151297544390,-1.22139,-1.46236,1.20843
151297568250,-1.2324,-1.46283,1.22013
151297596442,-1.24081,-1.4638,1.22896
151297605773,-1.24511,-1.46387,1.23361
151297625327,-1.25222,-1.46381,1.24089
151297649259,-1.25897,-1.46378,1.24791
151297664299,-1.26422,-1.46373,1.25342
151297685379,-1.27097,-1.46369,1.26043
151297707823,-1.27782,-1.46367,1.26736
151297731794,-1.28291,-1.46366,1.27245
151297745326,-1.29127,-1.46366,1.2809
151297767836,-1.29537,-1.46354,1.285
151297790333,-1.29923,-1.46268,1.28877
151297813513,-1.30188,-1.46254,1.29125
151297827825,-1.30712,-1.46234,1.29571
151297845763,-1.30871,-1.46216,1.29669
151297866868,-1.31009,-1.46119,1.29782
151297887862,-1.31496,-1.46096,1.30243
151297913257,-1.3182,-1.46069,1.30558
151297928281,-1.32291,-1.46045,1.3102
151297947911,-1.32431,-1.45943,1.3116
151297964411,-1.32691,-1.45923,1.31429
151297988236,-1.32949,-1.45904,1.31696
151298007883,-1.32985,-1.45819,1.31748
151298024374,-1.33231,-1.45799,1.32021
151298045467,-1.33431,-1.45787,1.32247
151298067894,-1.33666,-1.45766,1.32525
151298090429,-1.33975,-1.45759,1.32885
151298106766,-1.34087,-1.45732,1.33032
151298127833,-1.34146,-1.45713,1.33143
151298145786,-1.34145,-1.456,1.33194
151298175046,-1.3383,-1.45488,1.3294
151298187926,-1.33615,-1.45414,1.32707
151298205794,-1.33189,-1.45308,1.32264
151298228262,-1.33144,-1.45284,1.32245
151298247933,-1.33169,-1.45275,1.32304
151298270335,-1.33143,-1.45279,1.32287
151298288300,-1.33143,-1.45279,1.32287
151298309318,-1.33143,-1.45279,1.32287
151298325799,-1.33143,-1.45279,1.32287
151298346871,-1.33143,-1.45279,1.32287
151298370875,-1.33125,-1.45283,1.32261
151298384332,-1.33098,-1.45281,1.32285
151298406826,-1.32984,-1.45275,1.32163
151298429334,-1.32941,-1.45284,1.32119
151298451812,-1.32941,-1.45284,1.32119
151298466874,-1.32941,-1.45284,1.32119
151298487934,-1.32922,-1.45282,1.32135
151298505780,-1.32922,-1.45282,1.32135
151298534384,-1.32755,-1.4518,1.32002
151298549372,-1.32322,-1.45146,1.31587
151298565838,-1.31904,-1.45112,1.31169
151298592969,-1.31617,-1.45009,1.30899
151298607903,-1.31543,-1.44994,1.30834
151298631808,-1.31298,-1.44981,1.30624
151298648247,-1.31216,-1.44965,1.30568
151298667804,-1.31017,-1.44873,1.30403
151298684308,-1.30847,-1.44847,1.30259
151298706843,-1.30688,-1.44821,1.30108
151298730891,-1.3067,-1.44826,1.30082
151298744403,-1.30625,-1.44733,1.30081
151298768818,-1.30566,-1.44782,1.30055
151298790816,-1.30399,-1.44687,1.29915
151298820011,-1.30086,-1.44658,1.29662
151298826841,-1.29679,-1.44555,1.2929
151298847959,-1.29195,-1.44509,1.28841
151298873325,-1.28543,-1.44313,1.28197
151298893018,-1.27341,-1.44159,1.27012
151298907909,-1.25929,-1.43893,1.25557
151298925929,-1.24635,-1.43749,1.24237
151298946893,-1.24045,-1.43626,1.23647
151298976078,-1.23682,-1.43593,1.2331
151298984394,-1.23549,-1.43567,1.23221
151299008320,-1.22526,-1.43248,1.22137
151299036110,-1.21541,-1.43054,1.21117
151299044400,-1.20998,-1.43015,1.20565
151299066903,-1.20785,-1.42926,1.20361
151299091254,-1.20765,-1.4299,1.20332
151299103649,-1.20911,-1.43003,1.2053
151299125900,-1.21271,-1.43088,1.20916
151299148596,-1.21704,-1.43123,1.21358
151299172512,-1.22273,-1.43236,1.21979
151299186095,-1.22908,-1.433,1.22683
151299208603,-1.24241,-1.43579,1.2399
151299224983,-1.25852,-1.43735,1.25618
151299253521,-1.27201,-1.43888,1.27063
151299268500,-1.28457,-1.44112,1.28344
151299284958,-1.29545,-1.44165,1.29459
151299306033,-1.30474,-1.44294,1.30387
151299337450,-1.31637,-1.44416,1.31464
151299344988,-1.32368,-1.44541,1.32143
151299373554,-1.3282,-1.44662,1.32595
151299388615,-1.33322,-1.44775,1.33097
151299405642,-1.33736,-1.44808,1.33511
151299426169,-1.33965,-1.44821,1.3374
151299449982,-1.33805,-1.44823,1.33589
151299465798,-1.33805,-1.44823,1.33589
151299486109,-1.33924,-1.44829,1.337
151299510047,-1.33924,-1.44829,1.337
151299525049,-1.33789,-1.44827,1.33564
151299546163,-1.33789,-1.44827,1.33564
151299568624,-1.33764,-1.44831,1.33548
151299585096,-1.33764,-1.44831,1.33548
151299606103,-1.33764,-1.44831,1.33548
151299628575,-1.33748,-1.44836,1.33523
151299645046,-1.33748,-1.44836,1.33523
151299665847,-1.33723,-1.4484,1.33507
151299696098,-1.33723,-1.4484,1.33507
151299705005,-1.33724,-1.4491,1.33508
151299726151,-1.33588,-1.44838,1.33372
151299748633,-1.33572,-1.44842,1.33347
151299771050,-1.33572,-1.44842,1.33347
151299786045,-1.33547,-1.44846,1.3333
151299808563,-1.33547,-1.44846,1.3333
151299825042,-1.33548,-1.44916,1.33331
151299846012,-1.33548,-1.44916,1.33331
151299868525,-1.33548,-1.44916,1.33331
151299884981,-1.33395,-1.44848,1.3317
151299906074,-1.33506,-1.44924,1.3329
151299928570,-1.33506,-1.44924,1.3329
151299945003,-1.33506,-1.44924,1.3329
151299966059,-1.33506,-1.44924,1.3329
151299988520,-1.33465,-1.44933,1.33249
151300004966,-1.33465,-1.44933,1.33249
151300026182,-1.33448,-1.44937,1.33224
151300048656,-1.33423,-1.44941,1.33207
151300064393,-1.33286,-1.44869,1.3307
151300086121,-1.33245,-1.44878,1.33028
151300108647,-1.33245,-1.44878,1.33028
151300124422,-1.33245,-1.44878,1.33028
151300147514,-1.33246,-1.44948,1.33029
151300168623,-1.33204,-1.44956,1.32987
151300184359,-1.33204,-1.44956,1.32987
151300207534,-1.33204,-1.44956,1.32987
151300228659,-1.33204,-1.44956,1.32987
151300244364,-1.33204,-1.44956,1.32987
151300267523,-1.33024,-1.44892,1.32808
151300288598,-1.33162,-1.44964,1.32945
151300304349,-1.33162,-1.44964,1.32945
151300327569,-1.32983,-1.44971,1.32767
151300350051,-1.32983,-1.44971,1.32767
151300364370,-1.32983,-1.44971,1.32767
151300387552,-1.32983,-1.44971,1.32767
151300408598,-1.32983,-1.44971,1.32767
151300424422,-1.32941,-1.44979,1.32724
151300447570,-1.32941,-1.44979,1.32724
151300468674,-1.32941,-1.44979,1.32724
151300484384,-1.32915,-1.44983,1.32707
151300507560,-1.32693,-1.44966,1.32511
151300528675,-1.32607,-1.44951,1.32452
151300544393,-1.32361,-1.44939,1.3224
151300573613,-1.32293,-1.4485,1.32207
151300588577,-1.32227,-1.44831,1.32175
151300604403,-1.31975,-1.44818,1.31975
151300627605,-1.31839,-1.44743,1.31883
151300648631,-1.31775,-1.44724,1.31853
151300664354,-1.31776,-1.44793,1.31854
151300687577,-1.3175,-1.44797,1.31836
151300708601,-1.31733,-1.44801,1.3181
151300724449,-1.31733,-1.44801,1.3181
151300747593,-1.31598,-1.4473,1.31676
151300768623,-1.31598,-1.4473,1.31676
151300784431,-1.31598,-1.4473,1.31676
151300807509,-1.31598,-1.4473,1.31676
151300828647,-1.31598,-1.4473,1.31676
151300844402,-1.31573,-1.44803,1.31659
151300867611,-1.31555,-1.44808,1.31633
151300888624,-1.31555,-1.44808,1.31633
151300904444,-1.31555,-1.44808,1.31633
151300927581,-1.31555,-1.44808,1.31633
151300948655,-1.31555,-1.44808,1.31633
151300964361,-1.31473,-1.44724,1.31577
151300986858,-1.31418,-1.44705,1.31539
151301008584,-1.3139,-1.44682,1.31519
151301024394,-1.31334,-1.44595,1.31481
151301046938,-1.31387,-1.44651,1.3156
151301070051,-1.31218,-1.44557,1.31417
151301084391,-1.31042,-1.44465,1.31284
151301106919,-1.30973,-1.44447,1.31267
151301130070,-1.30679,-1.44416,1.31042
151301144422,-1.30424,-1.44286,1.3083
151301173611,-1.2934,-1.44133,1.29773
151301190060,-1.27835,-1.439,1.2825
151301204393,-1.26368,-1.43649,1.26731
151301226918,-1.23966,-1.43369,1.242
151301250034,-1.22119,-1.43104,1.22197
151301264356,-1.21124,-1.42979,1.21115
151301295060,-1.20706,-1.42884,1.20671
151301310037,-1.20556,-1.42865,1.2053
151301324429,-1.20539,-1.42865,1.20548
151301346882,-1.20705,-1.42876,1.20774
151301369999,-1.21024,-1.42964,1.21145
151301384367,-1.2149,-1.43071,1.21672
151301406926,-1.22135,-1.43112,1.2236
151301430149,-1.22164,-1.43108,1.2238
151301444408,-1.22135,-1.43112,1.2236
151301466906,-1.22304,-1.43126,1.22546
151301490071,-1.22739,-1.43222,1.23007
151301504395,-1.23141,-1.43262,1.23461
151301526987,-1.23741,-1.43376,1.24096
151301550091,-1.24613,-1.43496,1.2495
151301571185,-1.25603,-1.43618,1.25957
151301586896,-1.26471,-1.43766,1.26843
151301610058,-1.27712,-1.43898,1.28127
151301631087,-1.2889,-1.44046,1.29349
151301646920,-1.30255,-1.44262,1.30705
151301670056,-1.31544,-1.44405,1.31993
151301691128,-1.32387,-1.44464,1.32819
151301706967,-1.33249,-1.44658,1.33664
151301730097,-1.33873,-1.44708,1.34279
151301751173,-1.34268,-1.44814,1.34683
151301766922,-1.34677,-1.44851,1.35083
151301790071,-1.35115,-1.44954,1.35504
151301811136,-1.35411,-1.44985,1.358
151301826889,-1.35409,-1.45016,1.35807
151301850044,-1.35586,-1.45112,1.35993
151301871064,-1.35657,-1.45131,1.36046
151301886852,-1.3583,-1.45231,1.36202
151301910021,-1.35839,-1.45262,1.36203
151301931120,-1.35849,-1.45294,1.36204
151301946921,-1.36057,-1.45387,1.36411
151301969450,-1.36091,-1.45414,1.36428
151301991118,-1.36094,-1.45445,1.3644
151302006938,-1.36412,-1.45549,1.36757
151302029385,-1.36417,-1.45581,1.36771
151302052510,-1.36423,-1.45687,1.36786
151302066913,-1.36444,-1.45714,1.36825
151302089435,-1.36426,-1.4575,1.36824
151302112582,-1.36496,-1.45769,1.36894
151302126931,-1.36371,-1.45947,1.36786
151302149414,-1.36052,-1.45903,1.36484
151302172606,-1.36033,-1.46015,1.36483
151302186907,-1.35928,-1.46037,1.36386
151302209424,-1.35644,-1.46061,1.3612
151302232630,-1.35148,-1.46173,1.35632
151302246971,-1.34816,-1.46205,1.35317
151302269488,-1.34318,-1.46236,1.34854
151302292593,-1.33945,-1.46352,1.34524
151302306903,-1.33612,-1.46412,1.34226
151302329422,-1.3346,-1.46549,1.341
151302360082,-1.33493,-1.46686,1.3415
151302366974,-1.33393,-1.46817,1.34059
151302389423,-1.3359,-1.46874,1.34273
151302412573,-1.33765,-1.47019,1.34473
151302426890,-1.34223,-1.4715,1.34923
151302449383,-1.34535,-1.47161,1.35183
151302472540,-1.347,-1.47166,1.35304
151302486952,-1.34743,-1.4716,1.35305
151302509430,-1.34851,-1.47057,1.35378
151302532633,-1.34852,-1.47142,1.35379
151302553659,-1.34852,-1.47142,1.35379
151302569879,-1.34852,-1.47142,1.35379
151302592604,-1.34852,-1.47142,1.35379
151302613630,-1.34575,-1.47158,1.35137
151302637628,-1.34167,-1.47196,1.3479
151302652547,-1.33972,-1.47227,1.34655
151302673547,-1.33567,-1.4747,1.34344
151302689416,-1.32899,-1.4743,1.33728
151302703023,-1.32463,-1.47559,1.3331
151302725478,-1.3202,-1.4769,1.32884
151302748698,-1.31463,-1.47719,1.3231
151302762976,-1.30714,-1.47746,1.31561
151302785527,-1.30168,-1.47862,1.31007
151302808680,-1.29496,-1.47876,1.30326
151302822999,-1.29463,-1.4788,1.30301
151302845526,-1.29463,-1.4788,1.30301
151302868626,-1.29438,-1.47884,1.30267
151302883027,-1.28693,-1.47787,1.29531
151302914320,-1.28339,-1.47782,1.29177
151302928660,-1.27904,-1.47762,1.28734
151302943003,-1.27395,-1.47727,1.28207
151302965510,-1.2654,-1.47687,1.27353
151302988656,-1.25521,-1.47554,1.26351
151303002962,-1.24753,-1.47418,1.256
151303025431,-1.24104,-1.4738,1.24968
151303049090,-1.23348,-1.47246,1.24264
151303062984,-1.22852,-1.47215,1.23855
151303085476,-1.22231,-1.47091,1.23328
151303108689,-1.22071,-1.47066,1.23177
151303122990,-1.22108,-1.47061,1.23206
151303145414,-1.21873,-1.47068,1.23066
151303168689,-1.21813,-1.47075,1.23066
151303183026,-1.21784,-1.47079,1.23028
151303206931,-1.21876,-1.47091,1.23199
151303228428,-1.2175,-1.47107,1.23133
151303243066,-1.2175,-1.47107,1.23133
151303265483,-1.2191,-1.47133,1.23284
151303288605,-1.22153,-1.47235,1.23562
151303302995,-1.22168,-1.47279,1.23602
151303325610,-1.22424,-1.47403,1.23789
151303348600,-1.22683,-1.47439,1.2398
151303363010,-1.22492,-1.47574,1.23762
151303385546,-1.22326,-1.47617,1.23579
151303408624,-1.22345,-1.4775,1.23546
151303422966,-1.21978,-1.47791,1.23058
151303445545,-1.21826,-1.47923,1.22759
151303468693,-1.19433,-1.47182,1.20125
151303482995,-1.15887,-1.46514,1.15982
151303505535,-1.13296,-1.46184,1.13288
151303528710,-1.04802,-1.44429,1.03894
151303544420,-1.02235,-1.44054,1.00998
151303565507,-1.00138,-1.43802,0.990391
151303588724,-0.983502,-1.43519,0.973379
151303603022,-0.963427,-1.43233,0.954686
151303625603,-0.943547,-1.43038,0.93576
151303648683,-0.927153,-1.4289,0.920057
151303663040,-0.903374,-1.42753,0.897316
151303685534,-0.877309,-1.42636,0.872203
151303708647,-0.850547,-1.42618,0.846306
151303723118,-0.819002,-1.4263,0.81606
151303745549,-0.781843,-1.42811,0.780371
151303768686,-0.736875,-1.42995,0.736615
151303783126,-0.682546,-1.43465,0.683065
151303805500,-0.612572,-1.44116,0.613523
151303828746,-0.521924,-1.45003,0.523135
151303843040,-0.388543,-1.46332,0.389754
151303865485,-0.171827,-1.47847,0.172691
151303888679,0.194273,-1.49234,-0.191853
151303903033,0.741963,-1.49123,-0.736435
151303925557,1.14967,-1.47415,-1.13809
151303956818,1.33019,-1.45895,-1.32137
151303963052,1.46177,-1.4382,-1.45035
151303985527,1.58716,-1.41905,-1.57132
151304008065,1.65395,-1.40584,-1.63958
151304023025,1.67139,-1.40237,-1.65935
151304045502,1.69362,-1.42479,-1.67804
151304068020,1.69112,-1.45722,-1.67296
151304083029,1.58388,-1.50263,-1.56695
151304105502,1.07157,-1.54197,-1.05483
151304128065,-0.692327,-1.52785,0.711143
151304142973,-0.975484,-1.4692,0.997693
151304165450,-1.05065,-1.40431,1.07802
151304188019,-1.07772,-1.33727,1.11144
151304203069,-1.0833,-1.27165,1.12363
151304225552,-1.07904,-1.20629,1.12564
151304248111,-1.06648,-1.14415,1.12425
151304263032,-1.04758,-1.09064,1.11585
151304285496,-1.02915,-1.05057,1.1143
151304308067,-1.00365,-1.02345,1.11766
151304323053,-0.990628,-1.00229,1.12093
151304345533,-0.983033,-1.05049,1.10682
151304367959,-1.06819,-1.06225,1.13019
151304383027,-1.08526,-1.08936,1.1957
151304405583,-1.05782,-1.12313,1.18494
151304428014,-1.03109,-1.14903,1.18289
151304443060,-1.00673,-1.17923,1.17138
151304465512,-1.05002,-1.20066,1.21389
151304487934,-1.10392,-1.21187,1.27071
151304502970,-1.14917,-1.22169,1.32398
151304525474,-1.17657,-1.2321,1.35642
151304548044,-1.20582,-1.2463,1.38151
151304563050,-1.24648,-1.25776,1.4127
151304585580,-1.27553,-1.26834,1.43216
151304608033,-1.30448,-1.28181,1.4515
151304623001,-1.33426,-1.29496,1.47276
151304645602,-1.36237,-1.31138,1.49182
151304668050,-1.39318,-1.3275,1.51255
151304683022,-1.42914,-1.34425,1.54039
151304705487,-1.46141,-1.36301,1.56751
151304728028,-1.50007,-1.38217,1.60147
151304743041,-1.55701,-1.40159,1.6532
151304765556,-1.61837,-1.41823,1.71146
151304788048,-1.73717,-1.43477,1.82961
151304804429,-1.90984,-1.45074,2.00578
151304825562,-2.12414,-1.4638,2.22175
151304848015,-2.36406,-1.47103,2.46342
151304864489,-2.62464,-1.47513,2.72679
151304886966,-2.92432,-1.47233,3.03038
151304908100,3.04987,-1.46526,-2.95278
151304924468,2.83254,-1.4476,-2.73314
151304945506,2.64323,-1.42268,-2.54155
151304968079,2.51606,-1.39344,-2.41523
151304984409,2.43072,-1.35821,-2.33068
151305005562,2.3614,-1.31962,-2.26594
151305028075,2.3071,-1.277,-2.22289
151305044491,2.24981,-1.2295,-2.18762
151305065563,2.20428,-1.17857,-2.16582
151305088033,2.15876,-1.12753,-2.15902
151305104475,2.08102,-1.08366,-2.11348
151305125528,2.0666,-1.02217,-2.08803
151305148053,2.09268,-0.965686,-2.08744
151305164581,2.08513,-0.947745,-2.08032
151305185590,2.08193,-0.932014,-2.07947
151305208075,2.118,-0.917189,-2.1098
151305224558,2.07218,-0.937359,-2.07518
151305245483,2.08439,-0.967622,-2.08357
151305276203,2.08359,-1.02191,-2.07346
151305284529,2.0887,-1.0796,-2.06877
151305305593,2.09726,-1.15296,-2.06726
151305328042,2.10193,-1.23867,-2.06578
151305344555,2.11336,-1.33482,-2.07894
151305365549,2.13944,-1.4406,-2.11124
151305388097,2.62918,-1.5522,-2.60699
151305404461,-1.18755,-1.46331,1.20441
151305425579,-1.14629,-1.34088,1.1588
151305447988,-1.14161,-1.22649,1.15089
151305464480,-1.12982,-1.11126,1.13922
151305485525,-1.10217,-1.0157,1.11698
151305508044,-1.07053,-0.948156,1.10907
151305524479,-1.04231,-0.904341,1.11632
151305545508,-1.03514,-0.913768,1.12135
151305568058,-1.14452,-0.95405,1.14307
151305584503,-1.17033,-0.981546,1.2038
151305605535,-1.15729,-0.999546,1.20758
151305628080,-1.12263,-1.03753,1.17203
151305644527,-1.12827,-1.07445,1.17885
151305666203,-1.15933,-1.10409,1.19953
151305688088,-1.19687,-1.11897,1.23877
151305704438,-1.22993,-1.13446,1.27326
151305726960,-1.26154,-1.1507,1.30037
151305748023,-1.28593,-1.17216,1.31341
151305764550,-1.30715,-1.19497,1.32261
151305787018,-1.31903,-1.22006,1.3263
151305808090,-1.32933,-1.24515,1.3316
151305824510,-1.3454,-1.26782,1.34426
151305847025,-1.3716,-1.2903,1.36672
151305868010,-1.40968,-1.31322,1.39793
151305884565,-1.44661,-1.3365,1.4307
151305906963,-1.48804,-1.36067,1.47224
151305928021,-1.53502,-1.38566,1.52366
151305944469,-1.59002,-1.41497,1.58465
151305966966,-1.68165,-1.4415,1.67948
151305988058,-1.81461,-1.46652,1.81703
151306004474,-2.03145,-1.48975,2.04044
151306026941,-2.39382,-1.5066,2.40609
151306048033,-2.93157,-1.51193,2.94754
151306064428,2.85026,-1.49564,-2.83228
151306087021,2.50694,-1.46524,-2.48956
151306107991,2.32739,-1.42713,-2.31181
151306124496,2.21885,-1.38391,-2.20732
151306147024,2.14455,-1.33738,-2.13708
151306168085,2.09278,-1.28598,-2.09566
151306184506,2.04392,-1.23069,-2.07221
151306208501,1.99315,-1.17544,-2.06394
151306228045,1.92138,-1.11473,-2.03859
151306244499,1.9149,-1.04121,-2.04198
151306266982,1.95535,-0.969496,-2.05126
151306287971,1.92619,-0.97278,-2.03616
151306303733,1.93866,-0.953948,-2.04325
151306326202,1.94512,-0.952507,-2.0373
151306348873,1.9314,-0.961046,-2.02663
151306363763,1.92915,-1.00222,-2.01559
151306386181,1.94384,-1.05427,-2.01706
151306408777,1.94189,-1.12444,-2.00306
151306423646,1.94523,-1.20693,-1.99456
151306446200,1.93386,-1.2999,-1.97638
151306468739,1.92062,-1.40063,-1.95952
151306483792,1.88272,-1.50659,-1.91787
151306506217,-1.12463,-1.52359,1.09717
151306528731,-1.18112,-1.4061,1.16493
151306543728,-1.18935,-1.28868,1.18255
151306566218,-1.18439,-1.1777,1.18342
151306590160,-1.17183,-1.06658,1.17379
151306603704,-1.15507,-0.974841,1.1613
151306626214,-1.12548,-0.907953,1.15341
151306648769,-1.09307,-0.863993,1.15509
151306663689,-1.083,-0.870972,1.16489
151306686192,-1.1378,-0.917277,1.16951
151306708765,-1.12285,-0.926909,1.2105
151306723739,-1.10709,-0.972235,1.20161
151306746257,-1.13002,-1.02916,1.24385
151306768782,-1.10392,-1.05212,1.24487
151306783757,-1.1001,-1.09062,1.2556
151306807626,-1.1422,-1.12196,1.29436
151306828643,-1.1761,-1.1423,1.32978
151306845101,-1.21332,-1.16155,1.36199
151306866194,-1.24367,-1.1801,1.38625
151306888770,-1.26938,-1.19975,1.40587
151306905161,-1.30273,-1.22362,1.42866
151306926217,-1.32745,-1.24899,1.44381
151306948762,-1.33993,-1.2743,1.451
151306965112,-1.35372,-1.29772,1.46207
151306986210,-1.37419,-1.32136,1.48063
151307008757,-1.40618,-1.34596,1.50855
151307025157,-1.4368,-1.37156,1.5386
151307046230,-1.47615,-1.39818,1.57999
151307076171,-1.53808,-1.42369,1.64502
151307085120,-1.62334,-1.44895,1.73556
151307106179,-1.74544,-1.47385,1.86461
151307128693,-1.95407,-1.49737,2.07878
151307145169,-2.34171,-1.51514,2.47136
151307166172,-2.98502,-1.51705,3.1218
151307188754,2.77707,-1.49706,-2.63851
151307205163,2.49071,-1.46452,-2.347
151307226184,2.34118,-1.42604,-2.20102
151307248660,2.25436,-1.38764,-2.12347
151307265170,2.20242,-1.34966,-2.0772
151307287709,2.15031,-1.30815,-2.04176
151307308738,2.10731,-1.26393,-2.01898
151307325125,2.06532,-1.21642,-2.00384
151307346262,2.01732,-1.16506,-1.99458
151307368765,1.95062,-1.10955,-1.98707
151307385179,1.89173,-1.04725,-1.98434
151307406219,1.90625,-0.967608,-2.00446
151307428730,1.91337,-0.917899,-2.01265
151307445142,1.87679,-0.923709,-2.00433
151307466167,1.88737,-0.918798,-2.02286
151307488787,1.88265,-0.94317,-2.04099
151307505178,1.87575,-0.97701,-2.05226
151307526228,1.88727,-1.03881,-2.0676
151307550123,1.92036,-1.10885,-2.09527
151307565169,1.93703,-1.18137,-2.11091
151307586230,1.96803,-1.26032,-2.14174
151307608742,2.00436,-1.34188,-2.17817
151307624499,2.08725,-1.42674,-2.25501
151307646215,2.4139,-1.51228,-2.56802
151307668772,-1.84242,-1.52154,1.70756
151307684484,-1.40716,-1.43348,1.29419
151307706221,-1.29633,-1.34319,1.20733
151307728765,-1.22515,-1.2537,1.1664
151307744454,-1.17096,-1.1737,1.14173
151307767630,-1.12276,-1.107,1.12028
151307788787,-1.0806,-1.04494,1.10616
151307804567,-1.04063,-1.00067,1.09568
151307827752,-1.02052,-0.972862,1.0937
151307848824,-1.03232,-0.977565,1.10029
151307864487,-1.11294,-0.991208,1.10492
151307887752,-1.15514,-0.998513,1.13535
151307908851,-1.19174,-1.01103,1.16893
151307924609,-1.19605,-1.04055,1.1931
151307947746,-1.15581,-1.08049,1.16071
151307968788,-1.19265,-1.11468,1.18636
151307984506,-1.22319,-1.13034,1.20789
151308007739,-1.24923,-1.14735,1.22892
151308028769,-1.27191,-1.1592,1.24669
151308044507,-1.29144,-1.17001,1.26422
151308067759,-1.30294,-1.18236,1.27188
151308088836,-1.31683,-1.19337,1.28054
151308104596,-1.3302,-1.20214,1.28946
151308127768,-1.3417,-1.21126,1.29941
151308148809,-1.35717,-1.22001,1.31079
151308164571,-1.36322,-1.22982,1.31242
151308187795,-1.37874,-1.24013,1.31844
151308208846,-1.39104,-1.24864,1.32387
151308224570,-1.40182,-1.25802,1.3298
151308247806,-1.41981,-1.26745,1.34242
151308268773,-1.43725,-1.2763,1.35686
151308284517,-1.45252,-1.28627,1.37175
151308307729,-1.4618,-1.29764,1.38223
151308328752,-1.46786,-1.30812,1.38878
151308344544,-1.47641,-1.31584,1.39798
151308367723,-1.49077,-1.32098,1.41472
151308388739,-1.50596,-1.32547,1.43359
151308404511,-1.52228,-1.33285,1.4529
151308427764,-1.53337,-1.34209,1.46585
151308448762,-1.54538,-1.35092,1.48041
151308464543,-1.56169,-1.36032,1.49876
151308487737,-1.5854,-1.36739,1.52405
151308508747,-1.61044,-1.37423,1.5518
151308524504,-1.6294,-1.38239,1.5739
151308547775,-1.64551,-1.39154,1.59151
151308568849,-1.66377,-1.3983,1.61013
151308584536,-1.68046,-1.40474,1.62891
151308607079,-1.69728,-1.4109,1.6467
151308628837,-1.71139,-1.4162,1.661
151308644618,-1.72598,-1.42014,1.67438
151308667099,-1.73742,-1.42362,1.68808
151308688843,-1.74583,-1.42781,1.69772
151308704607,-1.75716,-1.43071,1.7113
151308727020,-1.76742,-1.43277,1.72381
151308750253,-1.77163,-1.43666,1.73253
151308764511,-1.78313,-1.4398,1.74749
151308787035,-1.79622,-1.44187,1.76257
151308810182,-1.80258,-1.44518,1.77136
151308824568,-1.80336,-1.44893,1.77395
151308847056,-1.80349,-1.4516,1.77478
151308870795,-1.80269,-1.45314,1.77398
151308884537,-1.80239,-1.45575,1.77498
151308907074,-1.80151,-1.45857,1.77376
151308930271,-1.79765,-1.45944,1.77024
151308944626,-1.79531,-1.46197,1.76894
151308967063,-1.795,-1.4642,1.77045
151308990290,-1.79156,-1.46565,1.76831
151309004537,-1.78432,-1.4671,1.76331
151309027069,-1.7775,-1.46962,1.75857
151309050250,-1.77295,-1.47102,1.7567
151309064610,-1.76878,-1.47112,1.75512
151309087084,-1.76666,-1.47208,1.75456
151309110238,-1.76148,-1.47336,1.75172
151309124604,-1.75476,-1.47471,1.74682
151309147108,-1.74303,-1.47484,1.73776
151309177796,-1.73239,-1.47527,1.72876
151309184564,-1.72351,-1.47557,1.72074
151309207075,-1.70857,-1.47662,1.70675
151309230266,-1.69318,-1.47653,1.6924
151309252797,-1.68512,-1.47657,1.6859
151309267038,-1.67106,-1.47513,1.67305
151309290319,-1.66301,-1.47501,1.66638
151309311298,-1.65299,-1.47393,1.65809
151309327028,-1.65006,-1.47406,1.65766
151309350238,-1.64729,-1.47521,1.65723
151309371313,-1.64151,-1.47437,1.65231
151309387076,-1.64146,-1.47456,1.65261
151309410299,-1.63757,-1.47542,1.64924
151309431408,-1.63344,-1.47443,1.64614
151309447121,-1.62767,-1.47464,1.64133
151309470270,-1.62924,-1.47544,1.64333
151309491240,-1.62905,-1.47484,1.64382
151309507128,-1.62502,-1.47502,1.64084
151309529516,-1.62483,-1.47606,1.64116
151309551336,-1.62651,-1.47622,1.64327
151309573879,-1.62649,-1.47628,1.64334
151309589585,-1.62652,-1.47636,1.64337
151309611315,-1.62657,-1.47548,1.64334
151309627115,-1.6266,-1.47648,1.64337
151309649560,-1.62664,-1.47566,1.6434
151309672773,-1.62681,-1.47663,1.64323
151309687123,-1.62891,-1.47661,1.64473
151309709580,-1.62891,-1.47661,1.64473
151309732748,-1.62889,-1.47666,1.6448
151309753832,-1.62895,-1.4767,1.64476
151309769594,-1.62898,-1.47678,1.6448
151309793198,-1.63076,-1.47722,1.64718
151309807111,-1.6308,-1.4773,1.64722
151309829591,-1.63079,-1.47823,1.64721
151309852801,-1.63449,-1.47866,1.65151
151309867126,-1.63833,-1.47903,1.6557
151309889607,-1.6421,-1.48027,1.65999
151309911962,-1.6438,-1.47962,1.66264
151309926371,-1.64973,-1.48099,1.669
151309940582,-1.65774,-1.48224,1.67709
151309963104,-1.66174,-1.48156,1.68161
151309986271,-1.66793,-1.4829,1.68815
151310000644,-1.67205,-1.48209,1.69244
151310023109,-1.67415,-1.48315,1.69454
151310046749,-1.67888,-1.48321,1.69815
151310060620,-1.68356,-1.48325,1.70179
151310084588,-1.68822,-1.48443,1.70593
151310105991,-1.69525,-1.4844,1.71123
151310120598,-1.70125,-1.48536,1.71377
151310143101,-1.70657,-1.48565,1.71815
151310166778,-1.71417,-1.48603,1.72497
151310180619,-1.72587,-1.48721,1.7352
151310203186,-1.73504,-1.48721,1.74308
151310226343,-1.73661,-1.48761,1.74412
151310248808,-1.74144,-1.48874,1.74835
151310263247,-1.74829,-1.4877,1.75451
151310286358,-1.75066,-1.48882,1.75688
151310300676,-1.75568,-1.48788,1.76138
151310332009,-1.75776,-1.48892,1.76346
151310346302,-1.75807,-1.48901,1.76378
151310362142,-1.75807,-1.48901,1.76378
151310383176,-1.75819,-1.48905,1.76398
151310406342,-1.75839,-1.48909,1.76409
151310420687,-1.75851,-1.48914,1.7643
151310443237,-1.75772,-1.48898,1.76385
151310466373,-1.75705,-1.48887,1.76361
151310480714,-1.75403,-1.48874,1.76129
151310503187,-1.74909,-1.48763,1.75713
151310526326,-1.74584,-1.48743,1.75457
151310540677,-1.74237,-1.4872,1.75205
151310563159,-1.73463,-1.48589,1.74526
151310586292,-1.73072,-1.48551,1.74247
151310608822,-1.72275,-1.48411,1.73571
151310623088,-1.71846,-1.48367,1.73315
151310645586,-1.71451,-1.48233,1.73092
151310660641,-1.71044,-1.48101,1.72884
151310683109,-1.70274,-1.47973,1.72296
151310705658,-1.69898,-1.47932,1.72076
151310720594,-1.69546,-1.47794,1.71845
151310743118,-1.69035,-1.47667,1.71455
151310765731,-1.68783,-1.47644,1.71246
151310780714,-1.68525,-1.47518,1.71014
151310804633,-1.68457,-1.47502,1.71015
151310827081,-1.68444,-1.47527,1.71097
151310840675,-1.67795,-1.47406,1.70543
151310863212,-1.67231,-1.47414,1.70039
151310895971,-1.66648,-1.47363,1.69414
151310908814,-1.64323,-1.47181,1.66951
151310923189,-1.62799,-1.47106,1.65228
151310945684,-1.62148,-1.47062,1.64447
151310960656,-1.61869,-1.47013,1.63987
151310983111,-1.61733,-1.46897,1.63756
151311005617,-1.61943,-1.46892,1.6387
151311023530,-1.62325,-1.46872,1.64148
151311043148,-1.62694,-1.46964,1.64457
151311065681,-1.63436,-1.4705,1.65069
151311080654,-1.64009,-1.46946,1.65496
151311103134,-1.64722,-1.46939,1.6614
151311125684,-1.6542,-1.46938,1.66811
151311140681,-1.6646,-1.46941,1.67834
151311163183,-1.67536,-1.46952,1.6885
151311185745,-1.68456,-1.47071,1.69744
151311200705,-1.69393,-1.47194,1.70664
151311223190,-1.70022,-1.47245,1.71267
151311245746,-1.70829,-1.47397,1.72117
151311260724,-1.71615,-1.47437,1.72937
151311283242,-1.72454,-1.47584,1.73811
151311307109,-1.7274,-1.47626,1.74097
151311320672,-1.73009,-1.47664,1.74392
151311351372,-1.73275,-1.47791,1.74674
151311365679,-1.73275,-1.47791,1.74674
151311380652,-1.73143,-1.47821,1.74578
151311403136,-1.73143,-1.47821,1.74578
151311425633,-1.73143,-1.47821,1.74578
151311442094,-1.73175,-1.47847,1.7467
151311463171,-1.732,-1.47868,1.74747
151311485637,-1.73389,-1.4788,1.74987
151311502048,-1.73406,-1.47991,1.75048
151311531365,-1.73228,-1.47909,1.74905
151311545681,-1.73424,-1.48008,1.75109
151311562078,-1.7323,-1.48018,1.74958
151311583200,-1.7323,-1.48018,1.74958
151311613876,-1.73248,-1.48035,1.7502
151311622104,-1.73248,-1.48035,1.7502
151311643206,-1.73257,-1.4804,1.75037
151311665717,-1.73272,-1.48043,1.75044
151311682151,-1.73272,-1.48043,1.75044
151311703172,-1.73272,-1.48043,1.75044
151311725618,-1.73281,-1.48049,1.75061
151311742126,-1.73281,-1.48049,1.75061
151311763172,-1.73297,-1.48052,1.75068
151311785727,-1.73297,-1.48052,1.75068
151311808207,-1.73305,-1.48057,1.75085
151311823224,-1.73305,-1.48057,1.75085
151311853850,-1.73276,-1.48057,1.75099
151311862116,-1.73262,-1.48061,1.75119
151311883170,-1.73248,-1.48064,1.7514
151311905638,-1.73248,-1.48064,1.7514
151311922122,-1.73228,-1.4807,1.75172
151311943146,-1.73183,-1.48067,1.75179
151311973822,-1.73009,-1.47976,1.74997
151311982132,-1.73009,-1.47976,1.74997
151312004684,-1.73009,-1.47976,1.74997
151312025650,-1.73153,-1.47964,1.75166
151312042172,-1.73168,-1.47968,1.75173
151312063311,-1.73177,-1.47973,1.7519
151312085735,-1.73328,-1.48063,1.75376
151312108212,-1.73139,-1.47968,1.75187
151312123181,-1.73139,-1.47968,1.75187
151312148635,-1.73457,-1.47959,1.75566
151312168245,-1.73625,-1.47964,1.75786
151312183189,-1.73744,-1.47952,1.75956
151312205720,-1.73668,-1.47943,1.75949
151312223557,-1.73826,-1.47848,1.76151
151312243228,-1.74179,-1.47946,1.76555
151312265673,-1.74512,-1.47844,1.76923
151312282106,-1.74738,-1.47847,1.77114
151312303124,-1.75107,-1.47921,1.77414
151312325653,-1.75485,-1.47821,1.77775
151312342113,-1.75506,-1.47831,1.77814
151312364576,-1.76009,-1.47933,1.78195
151312387083,-1.76382,-1.47835,1.78569
151312402104,-1.76567,-1.47928,1.78753
151312424634,-1.76567,-1.47928,1.78753
151312445639,-1.76579,-1.47933,1.78774
151312462154,-1.76579,-1.47933,1.78774
151312484620,-1.76597,-1.47936,1.78783
151312505683,-1.76597,-1.47936,1.78783
151312529628,-1.76597,-1.47936,1.78783
151312544655,-1.76995,-1.47934,1.79155
151312565761,-1.76983,-1.47929,1.79134
151312582146,-1.76995,-1.47934,1.79155
151312612144,-1.77014,-1.47842,1.79167
151312625683,-1.772,-1.47935,1.79352
151312642108,-1.77036,-1.47827,1.79093
151312664739,-1.77035,-1.47922,1.79092
151312693849,-1.77035,-1.47922,1.79092
151312702090,-1.77035,-1.47922,1.79092
151312726064,-1.77035,-1.47922,1.79092
151312745718,-1.77035,-1.47922,1.79092
151312762112,-1.77054,-1.47925,1.79102
151312784662,-1.77054,-1.47925,1.79102
151312808647,-1.77054,-1.47925,1.79102
151312822130,-1.77253,-1.47929,1.79309
151312844680,-1.77253,-1.47929,1.79309
151312865733,-1.77253,-1.47929,1.79309
151312889704,-1.77419,-1.47933,1.79527
151312904655,-1.77451,-1.47941,1.79559
151312925800,-1.77451,-1.47941,1.79559
151312942182,-1.77451,-1.47941,1.79559
151312972200,-1.77637,-1.47939,1.79745
151312985705,-1.77637,-1.47939,1.79745
151313002107,-1.77637,-1.47939,1.79745
151313024657,-1.77637,-1.47939,1.79745
151313053882,-1.77669,-1.47948,1.79778
151313062125,-1.77669,-1.47948,1.79778
151313084634,-1.78435,-1.47934,1.80492
151313113882,-1.7898,-1.47964,1.80993
151313122103,-1.79656,-1.48077,1.81652
151313144726,-1.80115,-1.48097,1.82137
151313168655,-1.806,-1.4812,1.82639
151313182199,-1.80788,-1.48216,1.82827
151313204654,-1.80789,-1.48118,1.82828
151313225682,-1.80805,-1.48123,1.82853
151313249615,-1.80805,-1.48123,1.82853
151313270701,-1.80805,-1.48123,1.82853
151313285771,-1.80828,-1.48126,1.82867
151313309676,-1.80828,-1.48126,1.82867
151313332175,-1.81017,-1.48124,1.83057
151313347121,-1.81017,-1.48124,1.83057
151313362202,-1.81017,-1.48124,1.83057
151313384612,-1.81017,-1.48124,1.83057
151313413846,-1.80958,-1.48122,1.83049
151313422150,-1.8107,-1.48112,1.83204
151313446125,-1.81166,-1.48097,1.83334
151313467164,-1.8109,-1.4809,1.83302
151313489668,-1.81,-1.47981,1.83246
151313504629,-1.81085,-1.47959,1.8334
151313528575,-1.80979,-1.47846,1.8326
151313542775,-1.81269,-1.47825,1.83551
151313563808,-1.81208,-1.47814,1.83498
151313586399,-1.81307,-1.47797,1.83614
151313610275,-1.81307,-1.47797,1.83614
151313623849,-1.81307,-1.47797,1.83614
151313646417,-1.81307,-1.47797,1.83614
151313662819,-1.81307,-1.47797,1.83614
151313691441,-1.81307,-1.47797,1.83614
151313707123,-1.81323,-1.47802,1.83639
151313722823,-1.81323,-1.47802,1.83639
151313743870,-1.81323,-1.47802,1.83639
151313766376,-1.81323,-1.47802,1.83639
151313782847,-1.81323,-1.47802,1.83639
151313805379,-1.81345,-1.47805,1.83653
151313826417,-1.81345,-1.47805,1.83653
151313842843,-1.81528,-1.47803,1.83835
151313863927,-1.81635,-1.47794,1.83985
151313887941,-1.81979,-1.47702,1.84382
151313902828,-1.82101,-1.47698,1.84555
151313923944,-1.82101,-1.47698,1.84555
151313946451,-1.82101,-1.47698,1.84555
151313970436,-1.82304,-1.47793,1.84749
151313983827,-1.82101,-1.47698,1.84555
151314006459,-1.82245,-1.47698,1.84743
151314028873,-1.82332,-1.47683,1.84864
151314043978,-1.82446,-1.47682,1.85047
151314066396,-1.82746,-1.47584,1.85399
151314082843,-1.82397,-1.47661,1.85127
151314103854,-1.81735,-1.47555,1.845
151314126421,-1.81485,-1.47551,1.84293
151314142850,-1.81485,-1.47551,1.84293
151314165344,-1.81486,-1.4746,1.84295
151314193881,-1.81486,-1.4746,1.84295
151314202863,-1.81485,-1.47551,1.84293
151314223914,-1.81486,-1.4746,1.84295
151314247823,-1.81662,-1.47549,1.8447
151314262137,-1.81662,-1.47549,1.8447
151314283869,-1.82112,-1.47553,1.84869
151314306353,-1.82761,-1.47549,1.85414
151314322159,-1.83424,-1.47644,1.85999
151314343873,-1.8392,-1.47647,1.864
151314366354,-1.847,-1.47661,1.87051
151314382901,-1.85205,-1.47758,1.8746
151314405403,-1.85962,-1.47762,1.88071
151314426462,-1.86324,-1.47784,1.8839
151314442230,-1.87103,-1.47914,1.89186
151314471456,-1.87684,-1.47948,1.89792
151314486401,-1.88416,-1.48065,1.90515
151314502193,-1.88932,-1.48075,1.90988
151314525306,-1.89065,-1.47999,1.91131
151314546414,-1.89065,-1.47999,1.91131
151314562208,-1.89065,-1.47999,1.91131
151314585395,-1.89248,-1.48093,1.91313
151314606412,-1.89197,-1.48118,1.91271
151314622192,-1.89363,-1.48142,1.91437
151314645338,-1.89418,-1.48185,1.91518
151314667894,-1.89437,-1.48312,1.91511
151314682186,-1.89444,-1.48344,1.91527
151314705342,-1.89425,-1.48385,1.91585
151314726439,-1.89869,-1.48524,1.92055
151314742173,-1.89869,-1.48524,1.92055
151314765366,-1.89869,-1.48524,1.92055
151314786434,-1.89869,-1.48524,1.92055
151314810380,-1.89929,-1.48532,1.92114
151314825311,-1.89929,-1.48532,1.92114
151314846450,-1.89929,-1.48532,1.92114
151314862287,-1.89542,-1.48538,1.91728
151314885353,-1.88929,-1.48543,1.91123
151314906560,-1.88477,-1.48543,1.90689
151314928902,-1.88013,-1.48547,1.90276
151314945288,-1.88013,-1.48547,1.90276
151314966454,-1.88013,-1.48547,1.90276
151314982207,-1.87611,-1.48557,1.89909
151315005381,-1.86954,-1.48462,1.89304
151315026502,-1.86954,-1.48462,1.89304
151315042249,-1.86478,-1.48573,1.88914
151315065404,-1.86176,-1.48574,1.88689
151315086487,-1.85675,-1.48479,1.88285
151315102226,-1.85565,-1.48481,1.88269
151315125338,-1.854,-1.48377,1.88217
151315146499,-1.85303,-1.48392,1.88258
151315162208,-1.85218,-1.48402,1.88276
151315185390,-1.85349,-1.48315,1.8852
151315206431,-1.8544,-1.48333,1.88767
151315222223,-1.85313,-1.48353,1.88803
151315244795,-1.85462,-1.48378,1.8909
151315266427,-1.85393,-1.48305,1.8917
151315282243,-1.85085,-1.48328,1.89007
151315304651,-1.85056,-1.48351,1.89081
151315326404,-1.84455,-1.48244,1.88568
151315342253,-1.82408,-1.48201,1.86512
151315364742,-1.80421,-1.48141,1.84447
151315387888,-1.7696,-1.48075,1.80856
151315402259,-1.74763,-1.4801,1.78504
151315424754,-1.73561,-1.47873,1.77217
151315447814,-1.72939,-1.47927,1.76516
151315462174,-1.72335,-1.47799,1.75843
151315484624,-1.71329,-1.47666,1.74795
151315507924,-1.70722,-1.47633,1.74144
151315522203,-1.7048,-1.47692,1.73876
151315544733,-1.70079,-1.47576,1.7345
151315567859,-1.69108,-1.47539,1.72452
151315582222,-1.68367,-1.47439,1.71704
151315604799,-1.68158,-1.47513,1.71494
151315627825,-1.67023,-1.47468,1.70332
151315642276,-1.65739,-1.47356,1.69057
151315664775,-1.64481,-1.47339,1.67791
151315695301,-1.63943,-1.47321,1.67236
151315702214,-1.63038,-1.47193,1.66331
151315724717,-1.61804,-1.47157,1.65088
151315747851,-1.6042,-1.47045,1.63687
151315762183,-1.59406,-1.47005,1.62621
151315784714,-1.58556,-1.47081,1.61754
151315807843,-1.57735,-1.46956,1.60873
151315822203,-1.57059,-1.46951,1.60188
151315844786,-1.56226,-1.46938,1.59321
151315867827,-1.54606,-1.46884,1.57605
151315888911,-1.536,-1.46797,1.56582
151315904795,-1.53069,-1.46898,1.56051
151315935386,-1.52837,-1.46938,1.55828
151315948961,-1.53133,-1.47052,1.56141
151315964820,-1.5323,-1.47101,1.56272
151315987847,-1.53665,-1.47158,1.56742
151316008948,-1.5429,-1.47301,1.57409
151316024740,-1.5475,-1.47355,1.57913
151316047897,-1.55933,-1.47505,1.59148
151316076443,-1.57134,-1.4758,1.60409
151316084754,-1.58735,-1.47762,1.62071
151316107832,-1.60769,-1.47948,1.64182
151316128894,-1.63271,-1.48063,1.66788
151316144754,-1.65671,-1.48263,1.693
151316167767,-1.68362,-1.48467,1.7212
151316188924,-1.70522,-1.48555,1.74384
151316204807,-1.72698,-1.48624,1.76664
151316227250,-1.75504,-1.48835,1.79573
151316250363,-1.77228,-1.48911,1.81384
151316264818,-1.78271,-1.48965,1.82488
151316295428,-1.79463,-1.49104,1.83722
151316310517,-1.80241,-1.49034,1.84561
151316324802,-1.812,-1.49162,1.85545
151316347173,-1.81958,-1.49179,1.86311
151316377913,-1.82697,-1.49079,1.87053
151316384795,-1.83415,-1.49191,1.87761
151316407222,-1.84165,-1.49196,1.88494
151316430437,-1.84468,-1.49199,1.8877
151316444821,-1.84958,-1.49304,1.89224
151316467275,-1.85054,-1.49193,1.8928
151316490397,-1.85334,-1.49301,1.89523
151316504743,-1.85373,-1.49293,1.8952
151316527224,-1.85373,-1.49293,1.8952
151316550351,-1.85404,-1.49295,1.89542
151316564729,-1.85404,-1.49295,1.89542
151316587204,-1.85773,-1.49282,1.8991
151316610366,-1.85773,-1.49282,1.8991
151316624763,-1.85946,-1.49175,1.90128
151316647219,-1.86301,-1.49282,1.90516
151316670431,-1.86559,-1.49162,1.90835
151316684764,-1.87017,-1.49044,1.91372
151316707816,-1.87497,-1.49044,1.91938
151316730355,-1.87709,-1.49033,1.92218
151316744755,-1.87714,-1.48917,1.92294
151316767208,-1.8751,-1.48815,1.92194
151316790359,-1.87576,-1.48816,1.92328
151316811385,-1.87334,-1.48934,1.92128
151316827229,-1.86714,-1.48814,1.91449
151316850423,-1.86425,-1.48835,1.91161
151316871405,-1.86245,-1.48878,1.90999
151316887204,-1.86619,-1.49161,1.91413
151316910181,-1.86952,-1.49099,1.91757
151316931374,-1.87403,-1.49358,1.92136
151316947232,-1.87733,-1.49335,1.92269
151316970404,-1.87214,-1.49425,1.915
151316998962,-1.87005,-1.49488,1.91005
151317007286,-1.86736,-1.49431,1.90555
151317030441,-1.86987,-1.49514,1.90684
151317051534,-1.87263,-1.49492,1.90865
151317067262,-1.87321,-1.4959,1.90827
151317090414,-1.87032,-1.49592,1.90453
151317111482,-1.86812,-1.49479,1.90234
151317133981,-1.86812,-1.49479,1.90234
151317149751,-1.86673,-1.4959,1.90025
151317163339,-1.86679,-1.49733,1.90003
151317186489,-1.86947,-1.49755,1.9034
151317200849,-1.87409,-1.49687,1.9089
151317223335,-1.8812,-1.49722,1.91636
151317247019,-1.88153,-1.4989,1.9172
151317260891,-1.87769,-1.49979,1.91492
151317283346,-1.87921,-1.50025,1.91738
151317306513,-1.88039,-1.49946,1.91961
151317320826,-1.87796,-1.50007,1.91814
