timestamp,roll,pitch,yaw
355814418,-0.194205,-1.11871,0.443693
355838062,-0.194334,-1.12295,0.449615
355853088,-0.196171,-1.12558,0.4592
355874355,-0.188355,-1.13077,0.460989
355898056,-0.191522,-1.13398,0.465589
355913085,-0.195686,-1.13479,0.473356
355958103,-0.190485,-1.1358,0.474199
355967024,-0.191393,-1.13701,0.476418
355975784,-0.193688,-1.13854,0.479621
355994993,-0.196622,-1.14056,0.482794
356018778,-0.203152,-1.14126,0.488288
356033116,-0.207368,-1.14199,0.493022
356076917,-0.207625,-1.14384,0.493677
356087042,-0.216649,-1.14543,0.499016
356093173,-0.219369,-1.14627,0.502225
356115022,-0.218616,-1.14847,0.501879
356137543,-0.223542,-1.15011,0.505299
356151886,-0.224656,-1.15175,0.506048
356176397,-0.229662,-1.15451,0.508517
356197357,-0.237092,-1.15815,0.51348
356211769,-0.244394,-1.16178,0.517203
356234875,-0.256823,-1.16331,0.523967
356257383,-0.269487,-1.16534,0.531676
356271715,-0.282329,-1.16744,0.538238
356294861,-0.299007,-1.16981,0.546671
356317361,-0.319147,-1.17097,0.559825
356331713,-0.333435,-1.16978,0.572413
356354834,-0.34296,-1.16939,0.582137
356377398,-0.353705,-1.17038,0.59111
356391711,-0.364755,-1.17319,0.599231
356414831,-0.377398,-1.17654,0.605411
356437357,-0.388857,-1.17842,0.612499
356451714,-0.39587,-1.18019,0.617684
356474888,-0.404406,-1.18207,0.62476
356497394,-0.411408,-1.18416,0.630848
356513176,-0.41777,-1.18609,0.634952
356534912,-0.423516,-1.18721,0.638738
356557354,-0.42781,-1.18705,0.641883
356573155,-0.432013,-1.18674,0.646263
356594880,-0.438708,-1.18706,0.652972
356617365,-0.446384,-1.18649,0.660198
356633204,-0.450415,-1.18545,0.664273
356654847,-0.451249,-1.18505,0.665012
356677198,-0.449628,-1.18488,0.663928
356693157,-0.446487,-1.18637,0.661115
356714877,-0.443798,-1.18758,0.658544
356737355,-0.437978,-1.18898,0.654661
356753153,-0.430791,-1.19108,0.649649
356774228,-0.423151,-1.19368,0.644071
356797393,-0.418026,-1.19666,0.640125
356813172,-0.412208,-1.19897,0.635561
356834230,-0.406538,-1.20112,0.631776
356857399,-0.399701,-1.20408,0.626837
356873167,-0.393045,-1.20756,0.621167
356894274,-0.387067,-1.21125,0.615735
356917422,-0.380677,-1.21516,0.609451
356933166,-0.375602,-1.21904,0.604102
356954275,-0.370674,-1.22279,0.599537
356977377,-0.363404,-1.22643,0.593955
356993198,-0.356804,-1.23057,0.588544
357014229,-0.351846,-1.23394,0.584656
357037380,-0.346688,-1.23641,0.580866
357053139,-0.34369,-1.23817,0.579191
357075690,-0.341876,-1.24012,0.577962
357098853,-0.342361,-1.24103,0.579254
357113179,-0.340323,-1.24155,0.578707
357135651,-0.340189,-1.24175,0.578832
357158822,-0.339793,-1.2417,0.578846
357173151,-0.339307,-1.24174,0.578352
357195643,-0.340105,-1.24223,0.578646
357218843,-0.340105,-1.24223,0.578646
357233184,-0.339919,-1.2422,0.578968
357255665,-0.341784,-1.2419,0.580394
357278812,-0.341993,-1.24192,0.580701
357293206,-0.34206,-1.24179,0.580695
357315654,-0.341982,-1.24214,0.580744
357338783,-0.341982,-1.24214,0.580744
357353182,-0.341785,-1.24184,0.580509
357375736,-0.343736,-1.24139,0.582554
357398848,-0.345352,-1.24071,0.584716
357413154,-0.346348,-1.24019,0.586625
357435662,-0.347199,-1.23966,0.587989
357458813,-0.34741,-1.23918,0.588703
357479926,-0.348033,-1.23831,0.589312
357495684,-0.347835,-1.23801,0.589077
357518831,-0.348255,-1.23768,0.589868
357539919,-0.349424,-1.23733,0.591214
357555662,-0.350863,-1.23693,0.592739
357578867,-0.350852,-1.23714,0.592782
357599878,-0.351057,-1.23716,0.593085
357615692,-0.35113,-1.23681,0.593031
357639230,-0.35113,-1.23681,0.593031
357659916,-0.35113,-1.23681,0.593031
357675702,-0.351603,-1.23712,0.593338
357698821,-0.353848,-1.23727,0.59505
357719859,-0.355757,-1.23682,0.597055
357735637,-0.355757,-1.23682,0.597055
357758196,-0.356111,-1.23633,0.597915
357779862,-0.355979,-1.23611,0.598333
357795724,-0.355979,-1.23611,0.598333
357818279,-0.355979,-1.23611,0.598333
357839966,-0.356807,-1.23657,0.599262
357855776,-0.35718,-1.2367,0.60051
357878300,-0.355586,-1.23671,0.60012
357901390,-0.353658,-1.23719,0.599498
357915789,-0.351574,-1.23816,0.598312
357938198,-0.349802,-1.23875,0.596614
357961338,-0.349802,-1.23875,0.596614
357975707,-0.349323,-1.23879,0.596127
357998176,-0.349323,-1.23879,0.596127
358021333,-0.349323,-1.23879,0.596127
358035687,-0.350376,-1.23834,0.597677
358058212,-0.350595,-1.23856,0.598657
358081435,-0.350683,-1.23883,0.598988
358095797,-0.350221,-1.2395,0.598888
358118375,-0.34941,-1.23972,0.59823
358141439,-0.348893,-1.24023,0.598208
358155831,-0.348637,-1.24091,0.598413
358178318,-0.348461,-1.24095,0.598629
358201377,-0.349027,-1.24112,0.599564
358215699,-0.349027,-1.24112,0.599564
358238274,-0.348546,-1.24116,0.599073
358261549,-0.348546,-1.24116,0.599073
358275742,-0.348546,-1.24116,0.599073
358298309,-0.348546,-1.24116,0.599073
358321437,-0.348546,-1.24116,0.599073
358335691,-0.348546,-1.24116,0.599073
358358238,-0.348546,-1.24116,0.599073
358381418,-0.348332,-1.24108,0.598877
358402550,-0.348541,-1.24109,0.599184
358418373,-0.348814,-1.24104,0.599368
358441458,-0.348814,-1.24104,0.599368
358462584,-0.348612,-1.24074,0.599128
358478297,-0.3486,-1.24096,0.599171
358501407,-0.3486,-1.24096,0.599171
358522623,-0.3486,-1.24096,0.599171
358538340,-0.3486,-1.24096,0.599171
358561455,-0.348327,-1.24101,0.598988
358582470,-0.3486,-1.24096,0.599171
358598349,-0.3486,-1.24096,0.599171
358621438,-0.349082,-1.24092,0.599662
358650119,-0.34888,-1.24062,0.599422
358658372,-0.348176,-1.24122,0.59849
358671757,-0.347332,-1.24146,0.597192
358694272,-0.346705,-1.24142,0.59627
358717447,-0.346705,-1.24142,0.59627
358731720,-0.346705,-1.24142,0.59627
358754227,-0.346223,-1.24146,0.595778
358777416,-0.34621,-1.24168,0.595821
358791734,-0.34601,-1.24138,0.595583
358814300,-0.34601,-1.24138,0.595583
358837664,-0.34601,-1.24138,0.595583
358851995,-0.34601,-1.24138,0.595583
358874601,-0.34601,-1.24138,0.595583
358897372,-0.34601,-1.24138,0.595583
358911842,-0.34601,-1.24138,0.595583
358934491,-0.34601,-1.24138,0.595583
358957450,-0.34601,-1.24138,0.595583
358971822,-0.34601,-1.24138,0.595583
358994222,-0.34601,-1.24138,0.595583
359017444,-0.346019,-1.24109,0.595652
359031749,-0.34581,-1.24108,0.595344
359054221,-0.346019,-1.24109,0.595652
359077579,-0.346019,-1.24109,0.595652
359091968,-0.34581,-1.24108,0.595344
359114460,-0.346019,-1.24109,0.595652
359137591,-0.34581,-1.24108,0.595344
359151968,-0.346007,-1.24132,0.595695
359174525,-0.34628,-1.24126,0.595879
359197676,-0.34644,-1.24118,0.596154
359211990,-0.346242,-1.24173,0.596344
359234329,-0.345414,-1.24224,0.59561
359257494,-0.345414,-1.24224,0.59561
359271722,-0.345414,-1.24224,0.59561
359294217,-0.345414,-1.24224,0.59561
359317435,-0.345414,-1.24224,0.59561
359331741,-0.345414,-1.24224,0.59561
359354503,-0.345414,-1.24224,0.59561
359377679,-0.345414,-1.24224,0.59561
359391994,-0.345507,-1.24217,0.596122
359414500,-0.345046,-1.24255,0.596084
359437533,-0.344585,-1.24293,0.596045
359451970,-0.344804,-1.24392,0.596559
359474486,-0.343944,-1.24462,0.596357
359497508,-0.343349,-1.24556,0.596271
359511841,-0.342909,-1.24622,0.596802
359543118,-0.341706,-1.24711,0.59642
359557429,-0.340388,-1.24836,0.595445
359571807,-0.339727,-1.25009,0.59422
359594285,-0.337906,-1.25169,0.591763
359617419,-0.334909,-1.25322,0.587943
359631848,-0.331614,-1.25451,0.583975
359654430,-0.328865,-1.25628,0.580866
359677478,-0.327671,-1.258,0.578917
359692030,-0.325337,-1.26016,0.576856
359714365,-0.320975,-1.26223,0.572369
359737606,-0.315352,-1.26536,0.56663
359760036,-0.30964,-1.26826,0.560743
359774272,-0.30423,-1.27163,0.555986
359796795,-0.297649,-1.27539,0.550597
359811756,-0.290328,-1.27903,0.544592
359834299,-0.282492,-1.28269,0.537684
359856772,-0.274864,-1.28624,0.53071
359871742,-0.267241,-1.28994,0.523609
359894234,-0.261885,-1.29378,0.517159
359916751,-0.257379,-1.29698,0.511767
359931792,-0.25017,-1.30041,0.505565
359954462,-0.240817,-1.30301,0.49757
359976904,-0.224926,-1.30561,0.483539
359991999,-0.21099,-1.30892,0.47024
360014345,-0.197933,-1.3124,0.457298
360037013,-0.18478,-1.31551,0.444746
360051989,-0.172169,-1.31759,0.433398
360074487,-0.158035,-1.31915,0.421322
360097000,-0.141645,-1.32103,0.40675
360112035,-0.129248,-1.32269,0.394916
360134476,-0.116092,-1.32358,0.383236
360156890,-0.101244,-1.32369,0.368963
360171995,-0.0887698,-1.32281,0.356219
360194367,-0.0765869,-1.32109,0.344202
360216977,-0.0649762,-1.31917,0.332812
360231877,-0.054937,-1.31707,0.323154
360254423,-0.0446546,-1.31397,0.313797
360276961,-0.034636,-1.31044,0.30417
360291842,-0.0269674,-1.30688,0.29581
360314467,-0.0237374,-1.30208,0.291476
360336949,-0.0204947,-1.29796,0.288388
360351905,-0.015433,-1.29321,0.283963
360374473,-0.011181,-1.28867,0.28025
360396865,-0.00654332,-1.28409,0.275963
360412004,-1.25227e-05,-1.27988,0.270029
360434399,0.00688241,-1.27593,0.263283
360465674,0.0127405,-1.27226,0.257228
360471839,0.0186165,-1.26924,0.251773
360494305,0.0269774,-1.26546,0.244347
360516874,0.0354362,-1.26196,0.236716
360531800,0.0433813,-1.25798,0.229895
360554536,0.0519134,-1.25406,0.222301
360576834,0.0599588,-1.24923,0.214864
360593315,0.0684838,-1.2436,0.20754
360614564,0.0765236,-1.2381,0.20072
360637019,0.0853637,-1.23214,0.193528
360653383,0.093667,-1.22643,0.186942
360674561,0.102662,-1.22061,0.179513
360697017,0.108922,-1.21537,0.173374
360713282,0.111491,-1.2098,0.170175
360734492,0.11366,-1.20502,0.16825
360757075,0.115874,-1.20081,0.167496
360773367,0.117843,-1.19741,0.167618
360794516,0.119864,-1.19528,0.167491
360817000,0.120449,-1.19327,0.167831
360833338,0.120365,-1.19197,0.168043
360854536,0.119439,-1.19169,0.16893
360876924,0.120944,-1.19215,0.168658
360893328,0.125418,-1.19391,0.165506
360914404,0.128238,-1.19566,0.162962
360936851,0.132364,-1.19763,0.161674
360953295,0.141638,-1.19881,0.157515
360977304,0.152895,-1.20123,0.154774
360996976,0.16877,-1.20411,0.150307
361013290,0.185266,-1.20706,0.145176
361034503,0.201079,-1.20929,0.139606
361056819,0.216759,-1.21074,0.133778
361073212,0.231451,-1.21256,0.129169
361094320,0.242682,-1.21404,0.127263
361116833,0.250965,-1.217,0.129247
361133283,0.257004,-1.22012,0.133691
361154305,0.259633,-1.22358,0.141089
361176774,0.260477,-1.22688,0.150402
361194741,0.259039,-1.23009,0.161187
361214547,0.257811,-1.23243,0.170594
361236939,0.258349,-1.23417,0.175365
361253388,0.257676,-1.23537,0.177999
361274476,0.253816,-1.23761,0.182962
361296927,0.249052,-1.2425,0.190394
361313349,0.242001,-1.24899,0.202111
361334361,0.232284,-1.25718,0.217915
361356883,0.220046,-1.26474,0.236477
361373340,0.202396,-1.2729,0.26
361394452,0.181514,-1.28115,0.286281
361417020,0.160452,-1.28998,0.31237
361433359,0.137837,-1.29848,0.337817
361454474,0.114263,-1.30701,0.362508
361476830,0.0933279,-1.3141,0.384434
361493254,0.0752769,-1.32073,0.404195
361515797,0.0562604,-1.32716,0.425162
361536841,0.0352187,-1.33516,0.449326
361553245,0.00691305,-1.34452,0.480605
361575776,-0.0288971,-1.3548,0.519155
361597020,-0.0590381,-1.36316,0.55301
361613352,-0.092083,-1.37125,0.588623
361635790,-0.135261,-1.37988,0.633748
361656921,-0.181402,-1.38839,0.682803
361673356,-0.240394,-1.39702,0.74356
361702062,-0.300464,-1.40423,0.805735
361716850,-0.36502,-1.41076,0.871864
361733299,-0.442528,-1.41663,0.950926
361755769,-0.524921,-1.42147,1.03513
361776844,-0.608057,-1.42479,1.12011
361793273,-0.693876,-1.42731,1.20902
361815755,-0.786815,-1.42912,1.3059
361836809,-0.879187,-1.42983,1.40186
361853267,-0.976966,-1.42871,1.50296
361875779,-1.08053,-1.42678,1.61182
361896787,-1.1826,-1.42292,1.72167
361913284,-1.28002,-1.4181,1.8263
361935910,-1.37279,-1.413,1.92322
361957069,-1.4607,-1.40693,2.01359
361973352,-1.5406,-1.39797,2.0955
361995823,-1.61422,-1.38831,2.17247
362016932,-1.67951,-1.37915,2.23854
362033394,-1.73373,-1.36851,2.29224
362055790,-1.77574,-1.35846,2.33849
362076873,-1.81582,-1.34982,2.37966
362093249,-1.8547,-1.34483,2.41318
362115748,-1.88328,-1.34231,2.43281
362136825,-1.89047,-1.34144,2.43543
362153259,-1.8835,-1.3434,2.4315
362175787,-1.88053,-1.34414,2.43302
362196833,-1.90178,-1.34487,2.45647
362213382,-1.93218,-1.34419,2.48501
362235858,-1.94975,-1.34115,2.5039
362257643,-1.96194,-1.33896,2.52246
362272749,-1.97574,-1.33855,2.54482
362295183,-2.00042,-1.34038,2.57608
362317782,-2.03238,-1.34382,2.6103
362332622,-2.0683,-1.34492,2.64572
362355056,-2.10157,-1.34451,2.67669
362377737,-2.13473,-1.34182,2.71004
362392627,-2.17983,-1.33999,2.75719
362415270,-2.23374,-1.33831,2.81439
362437757,-2.2859,-1.33444,2.87201
362452744,-2.32734,-1.32928,2.92304
362475122,-2.36151,-1.32303,2.96914
362497708,-2.39363,-1.31712,3.01245
362512805,-2.43695,-1.31258,3.05935
362535058,-2.47548,-1.30658,3.09769
362557793,-2.50576,-1.30025,3.13018
362572721,-2.53005,-1.29422,-3.12366
362595195,-2.54835,-1.28678,-3.09929
362617812,-2.56353,-1.27978,-3.0778
362632571,-2.57897,-1.27279,-3.05718
362655119,-2.59236,-1.26568,-3.03905
362678989,-2.60935,-1.25915,-3.01499
362701633,-2.62522,-1.25232,-2.98755
362715216,-2.63822,-1.24504,-2.96077
362737821,-2.65079,-1.23912,-2.93518
362754042,-2.66088,-1.23452,-2.91679
362775225,-2.66632,-1.23099,-2.90587
362797743,-2.67154,-1.2289,-2.89735
362814070,-2.67547,-1.22653,-2.89355
362835025,-2.67818,-1.22409,-2.88991
362857712,-2.67863,-1.22355,-2.88779
362874061,-2.68367,-1.22465,-2.88115
362895240,-2.68398,-1.22504,-2.88116
362917704,-2.68463,-1.22562,-2.88103
362934037,-2.6853,-1.22533,-2.8815
362955178,-2.68245,-1.22451,-2.88523
362977747,-2.68651,-1.22435,-2.88204
362994039,-2.69135,-1.22291,-2.8788
363015215,-2.68922,-1.22248,-2.8804
363037818,-2.68299,-1.22167,-2.88374
363054138,-2.6803,-1.22126,-2.88467
363075276,-2.67867,-1.22228,-2.88379
363097607,-2.6828,-1.22368,-2.87905
363113940,-2.68572,-1.22811,-2.87483
363135066,-2.67723,-1.23629,-2.87102
363157531,-2.66749,-1.24135,-2.87108
363173955,-2.66375,-1.24409,-2.8681
363194982,-2.65962,-1.24802,-2.86636
363217525,-2.65308,-1.25018,-2.86826
363233931,-2.64137,-1.24817,-2.87371
363255023,-2.62746,-1.24399,-2.87705
363277734,-2.61138,-1.24131,-2.88101
363294016,-2.59649,-1.23954,-2.88548
363315210,-2.58758,-1.23695,-2.89115
363345050,-2.58046,-1.23344,-2.89809
363354012,-2.57741,-1.2292,-2.90287
363375197,-2.5744,-1.22687,-2.90418
363397738,-2.57875,-1.22349,-2.89772
363413419,-2.59104,-1.2202,-2.88465
363435249,-2.60644,-1.21739,-2.86997
363457753,-2.61954,-1.21259,-2.8594
363473366,-2.63921,-1.20432,-2.84648
363495141,-2.65881,-1.1947,-2.83683
363517716,-2.67504,-1.19147,-2.82763
363533474,-2.68597,-1.19247,-2.81737
363556604,-2.69667,-1.19603,-2.80753
363577742,-2.70647,-1.20113,-2.80002
363593321,-2.71183,-1.20754,-2.79691
363616494,-2.71167,-1.21289,-2.79951
363637741,-2.70876,-1.22093,-2.80656
363653435,-2.70069,-1.22958,-2.8182
363676581,-2.69381,-1.23927,-2.82895
363697805,-2.68809,-1.25061,-2.83942
363713313,-2.68441,-1.26221,-2.84686
363736512,-2.6816,-1.27642,-2.8513
363757556,-2.66872,-1.29084,-2.86286
363773321,-2.65215,-1.30608,-2.87757
363796511,-2.63631,-1.32214,-2.89277
363817583,-2.61948,-1.34083,-2.91107
363833285,-2.59722,-1.35924,-2.93556
363856508,-2.57496,-1.37787,-2.96009
363877545,-2.5449,-1.39503,-2.99166
363893345,-2.51337,-1.41249,-3.02318
363924070,-2.47858,-1.43186,-3.05913
363937746,-2.43286,-1.45008,-3.10484
363953339,-2.38572,-1.46639,3.13309
363976673,-2.34323,-1.47996,3.09268
363997827,-2.28647,-1.49478,3.03692
364013471,-2.23061,-1.50391,2.98553
364036535,-2.17116,-1.51454,2.92861
364057530,-2.10398,-1.52302,2.86299
364073385,-2.06166,-1.53146,2.82068
364096521,-2.0056,-1.5382,2.763
364117548,-1.83082,-1.54426,2.58751
364133295,-1.58974,-1.54739,2.34844
364156512,-1.52165,-1.54614,2.28663
364177564,-1.52992,-1.55084,2.29871
364193450,-1.60608,-1.55029,2.37603
364216567,-1.7262,-1.55261,2.49737
364237651,-2.03004,-1.55096,2.80631
364253384,-2.28274,-1.54742,3.06226
364276584,-2.427,-1.54393,-3.07498
364299039,-2.44733,-1.54262,-3.04828
364313366,-2.50046,-1.53715,-2.99012
364335925,-2.54384,-1.5313,-2.94036
364357340,-2.62966,-1.52134,-2.8457
364373441,-2.67831,-1.51096,-2.79468
364395920,-2.70593,-1.4982,-2.76402
364417731,-2.73344,-1.48548,-2.73549
364433479,-2.75899,-1.47151,-2.71196
364455884,-2.77678,-1.45586,-2.69699
364477743,-2.79827,-1.44018,-2.67789
364493368,-2.82946,-1.42523,-2.64997
364515880,-2.85786,-1.40991,-2.6279
364539068,-2.88421,-1.39317,-2.60846
364561636,-2.91227,-1.37386,-2.58567
364575946,-2.95379,-1.35606,-2.54317
364599056,-2.95686,-1.34335,-2.51232
364613306,-2.9137,-1.33025,-2.53777
364635841,-2.88801,-1.31204,-2.53887
364659067,-2.87773,-1.29242,-2.53396
364673444,-2.86259,-1.2755,-2.53318
364695909,-2.83214,-1.26464,-2.53797
364719165,-2.78251,-1.25865,-2.55133
364733400,-2.72739,-1.25487,-2.56038
364756032,-2.65554,-1.25734,-2.57865
364779096,-2.57771,-1.26663,-2.60396
364800321,-2.49657,-1.28303,-2.64056
364815964,-2.40978,-1.30477,-2.69257
364839076,-2.28908,-1.33644,-2.78506
364860143,-2.14131,-1.36772,-2.90809
364884157,-1.93591,-1.39967,-3.09337
364899086,-1.63873,-1.42669,2.90827
364920119,-1.23208,-1.43973,2.51487
364935832,-0.799039,-1.42857,2.09606
364959000,-0.471776,-1.39729,1.78872
364980108,-0.262131,-1.3571,1.60627
364995836,-0.114567,-1.31361,1.4873
365019031,-0.00187657,-1.27133,1.40925
365040019,0.0858677,-1.23203,1.35351
365055807,0.144516,-1.19799,1.31925
365078989,0.158153,-1.1869,1.319
365100015,0.144425,-1.18608,1.33841
365115939,0.111524,-1.19719,1.37378
365139111,0.03479,-1.21982,1.44482
365167758,-0.0793308,-1.25101,1.5606
365175939,-0.127831,-1.27282,1.62733
365199126,-0.132357,-1.27503,1.64212
365220265,-0.142619,-1.27805,1.66713
365235997,-0.175535,-1.30502,1.71775
365259079,-0.255603,-1.33135,1.80647
365287656,-0.303541,-1.34777,1.86652
365295980,-0.406657,-1.35253,1.95889
365318455,-0.522751,-1.34794,2.06985
365340263,-0.597632,-1.34666,2.15318
365355893,-0.669321,-1.35176,2.22619
365378333,-0.76039,-1.35595,2.31073
365400034,-0.853788,-1.3582,2.40329
365424014,-0.935807,-1.35974,2.48528
365438349,-1.02268,-1.35744,2.56635
365460078,-1.11,-1.35322,2.64881
365484123,-1.18728,-1.35083,2.72151
365498343,-1.26328,-1.348,2.79196
365521635,-1.33385,-1.34604,2.85604
365535994,-1.40331,-1.3431,2.91804
365558430,-1.46397,-1.338,2.97438
365581644,-1.51947,-1.33285,3.02689
365595965,-1.56656,-1.32489,3.07239
365618407,-1.60536,-1.31721,3.11261
365641519,-1.64292,-1.30984,-3.13472
365655838,-1.67856,-1.30335,-3.10275
365678316,-1.71028,-1.29741,-3.07472
365701512,-1.73769,-1.2921,-3.05114
365715868,-1.76103,-1.28657,-3.03075
365738341,-1.78201,-1.2804,-3.01324
365761592,-1.79796,-1.27214,-2.99901
365782640,-1.81239,-1.26482,-2.98482
365798414,-1.83269,-1.25981,-2.96764
365811937,-1.85307,-1.25556,-2.95163
365834632,-1.87336,-1.25283,-2.93438
365857654,-1.89696,-1.25004,-2.91425
365871905,-1.92457,-1.24636,-2.8912
365894451,-1.94945,-1.23992,-2.86857
365917599,-1.96888,-1.23288,-2.84602
365931892,-1.99102,-1.22625,-2.81901
365954479,-2.01766,-1.21894,-2.78866
365977620,-2.04741,-1.21202,-2.75704
365992146,-2.08715,-1.20635,-2.72026
366014683,-2.13434,-1.20161,-2.67878
366037851,-2.1845,-1.19654,-2.63667
366052162,-2.23812,-1.18981,-2.59108
366074653,-2.29843,-1.18272,-2.54082
366097770,-2.32595,-1.17151,-2.5091
366112178,-2.34228,-1.1411,-2.50398
366134551,-2.36948,-1.09489,-2.48274
366165773,-2.38829,-1.04362,-2.46352
366171870,-2.40915,-0.995387,-2.44627
366194398,-2.44437,-0.955864,-2.43124
366218264,-2.47908,-0.932954,-2.42373
366231879,-2.49942,-0.924976,-2.41317
366254394,-2.49715,-0.925373,-2.41411
366277518,-2.47962,-0.935214,-2.41854
366291984,-2.45483,-0.957001,-2.42683
366314524,-2.42106,-0.992093,-2.44133
366337773,-2.38178,-1.0329,-2.46043
366352089,-2.3314,-1.08276,-2.48844
366374680,-2.272,-1.13768,-2.52904
366397764,-2.19257,-1.19877,-2.5907
366412132,-2.08202,-1.26392,-2.68892
366434676,-1.91263,-1.32716,-2.8506
366457628,-1.63549,-1.37976,-3.11955
366471946,-1.20561,-1.4105,2.7439
366494385,-0.698723,-1.40539,2.2512
366517860,-0.306274,-1.36608,1.87664
366532111,-0.0614621,-1.31144,1.65242
366554604,0.0872417,-1.2526,1.51701
366577742,0.178198,-1.19632,1.43548
366592121,0.241672,-1.14559,1.38724
366614492,0.295866,-1.10154,1.36182
366637783,0.335268,-1.06802,1.35564
366652063,0.35282,-1.06791,1.36552
366674687,0.345419,-1.08371,1.3859
366697760,0.312068,-1.11172,1.42739
366712133,0.281134,-1.14897,1.47546
366734623,0.235118,-1.18507,1.53455
366757789,0.189316,-1.196,1.58805
366772092,0.194581,-1.20229,1.59038
366794659,0.122312,-1.22723,1.64603
366817804,0.109061,-1.25007,1.6723
366832153,0.0918707,-1.27198,1.69194
366854660,0.0591187,-1.28786,1.72983
366877756,0.0198184,-1.29644,1.777
366892149,-0.0320042,-1.29824,1.82735
366914655,-0.0908109,-1.29787,1.87794
366937789,-0.155286,-1.29494,1.94284
366952224,-0.190495,-1.29412,1.99512
366974510,-0.207856,-1.29708,2.02944
366997861,-0.234955,-1.29897,2.06026
367012208,-0.269264,-1.30138,2.09533
367034664,-0.299208,-1.3061,2.12713
367057810,-0.327792,-1.31328,2.15697
367072125,-0.35054,-1.31771,2.18045
367094614,-0.373874,-1.32135,2.20717
367117810,-0.398913,-1.3283,2.23809
367132162,-0.425939,-1.33323,2.26952
367154641,-0.45087,-1.33681,2.29853
367177756,-0.475321,-1.33856,2.32629
367192153,-0.505674,-1.34103,2.35847
367214676,-0.539926,-1.3444,2.39513
367237765,-0.576466,-1.34732,2.43342
367252165,-0.61657,-1.35126,2.47598
367274467,-0.659099,-1.35405,2.52047
367297831,-0.710985,-1.35843,2.57382
367312174,-0.770404,-1.36319,2.63437
367334677,-0.840218,-1.368,2.70445
367357822,-0.921941,-1.37283,2.784
367372142,-1.00312,-1.37729,2.86109
367394611,-1.08026,-1.37951,2.93546
367417163,-1.16578,-1.37999,3.0205
367440287,-1.25271,-1.38185,3.10398
367454495,-1.33949,-1.38358,-3.09978
367477138,-1.42503,-1.38404,-3.02198
367492170,-1.50978,-1.38356,-2.9447
367514640,-1.59876,-1.38091,-2.86146
367537105,-1.69348,-1.37774,-2.77084
367552160,-1.79712,-1.37263,-2.67063
367574646,-1.91094,-1.36542,-2.56019
367597172,-2.02818,-1.35613,-2.44404
367612193,-2.13233,-1.34336,-2.34103
367634533,-2.22605,-1.32472,-2.24647
367658541,-2.3172,-1.30776,-2.15232
367672112,-2.41137,-1.28101,-2.06534
367694631,-2.48743,-1.25049,-1.99439
367717204,-2.53624,-1.21479,-1.94281
367732007,-2.51635,-1.19765,-1.93049
367754726,-2.50107,-1.16394,-1.92676
367777095,-2.50677,-1.12268,-1.90304
367792144,-2.51993,-1.08177,-1.87875
367814553,-2.53585,-1.04485,-1.85404
367837174,-2.55814,-1.01621,-1.83439
367852168,-2.57101,-1.00468,-1.81738
367874679,-2.57744,-1.00633,-1.79995
367897195,-2.58333,-1.01859,-1.78554
367912176,-2.59065,-1.04257,-1.77043
367934531,-2.59909,-1.07597,-1.75722
367957163,-2.60849,-1.12038,-1.74725
367972130,-2.62785,-1.16934,-1.73073
367994640,-2.65296,-1.22535,-1.71198
368016994,-2.67294,-1.28715,-1.69782
368032054,-2.67454,-1.35071,-1.69577
368054660,-2.61686,-1.4138,-1.73773
368078487,-2.42764,-1.47178,-1.88787
368092020,-1.80241,-1.51778,-2.45998
368114634,-0.610097,-1.50867,2.69191
368145185,-0.130716,-1.4579,2.27765
368161617,0.0587873,-1.40135,2.14892
368175945,0.170445,-1.34532,2.08997
368197090,0.242225,-1.29062,2.05677
368213502,0.292782,-1.23921,2.03685
368242867,0.322743,-1.18909,2.029
368256991,0.334682,-1.14499,2.03174
368296535,0.338508,-1.10936,2.04063
368298985,0.327943,-1.10546,2.05715
368318436,0.292818,-1.12058,2.08745
368340897,0.250565,-1.14703,2.13084
368366274,0.198795,-1.18118,2.18828
368377041,0.126129,-1.2151,2.27327
368394914,0.0821856,-1.23562,2.33793
368414725,0.0562156,-1.24416,2.37142
368437172,0.00512193,-1.25832,2.42769
368453449,-0.011822,-1.27839,2.45418
368474568,-0.0275493,-1.29828,2.47316
368497168,-0.0493959,-1.31469,2.49667
368513508,-0.112887,-1.32295,2.56011
368534712,-0.174155,-1.32628,2.63367
368557200,-0.219079,-1.32817,2.68764
368573408,-0.273242,-1.32808,2.73685
368594745,-0.327804,-1.32759,2.79066
368617037,-0.364218,-1.32997,2.83771
368633423,-0.39622,-1.33162,2.88075
368654608,-0.433692,-1.33267,2.92502
368677227,-0.467112,-1.33379,2.9626
368693516,-0.499672,-1.33514,2.99897
368714726,-0.520159,-1.34008,3.02415
368737000,-0.544541,-1.34472,3.05057
368754919,-0.570918,-1.34881,3.07906
368775948,-0.595322,-1.35318,3.10826
368797033,-0.622784,-1.35733,3.13896
368813447,-0.652508,-1.36116,-3.11231
368834521,-0.68279,-1.3639,-3.07989
368856978,-0.71454,-1.3674,-3.04427
368874881,-0.746894,-1.37122,-3.00767
368894466,-0.784988,-1.37403,-2.96636
368917168,-0.822387,-1.37577,-2.92477
368933508,-0.86086,-1.37953,-2.88231
368954701,-0.905666,-1.383,-2.8338
368977184,-0.949537,-1.38813,-2.78608
368993529,-1.00183,-1.39245,-2.73193
369014782,-1.06026,-1.39619,-2.6725
369037217,-1.12358,-1.3997,-2.60643
369053485,-1.19123,-1.40227,-2.53691
369076028,-1.2544,-1.40573,-2.47183
369097218,-1.32845,-1.40767,-2.39723
369113452,-1.41257,-1.40919,-2.31362
369135885,-1.50334,-1.41049,-2.22188
369156944,-1.60192,-1.41096,-2.12373
369173413,-1.70609,-1.40961,-2.0207
369197402,-1.8108,-1.40617,-1.91749
369216986,-1.92198,-1.40149,-1.80824
369233413,-2.03889,-1.39572,-1.69216
369256039,-2.16457,-1.38724,-1.56635
369277056,-2.29003,-1.37533,-1.44076
369293459,-2.41676,-1.36022,-1.31481
369315968,-2.5283,-1.33592,-1.20483
369337041,-2.63301,-1.30648,-1.10619
369353464,-2.71063,-1.26999,-1.03191
369382290,-2.75754,-1.22899,-0.983835
369397167,-2.7871,-1.18441,-0.946013
369412710,-2.7883,-1.14079,-0.917734
369435325,-2.76702,-1.10388,-0.900972
369457690,-2.74842,-1.06675,-0.881254
369472649,-2.74149,-1.02818,-0.855396
369495097,-2.74886,-0.997046,-0.826325
369517675,-2.74614,-0.978127,-0.801965
369532594,-2.72983,-0.974225,-0.779019
369555146,-2.70704,-0.970745,-0.751709
369579077,-2.67605,-0.978325,-0.723405
369592859,-2.64964,-0.996599,-0.693065
369615379,-2.62791,-1.02436,-0.662215
369637841,-2.61009,-1.06104,-0.630922
369652874,-2.59562,-1.10453,-0.599545
369675371,-2.58285,-1.15418,-0.568852
369697816,-2.56891,-1.20896,-0.541014
369712832,-2.54719,-1.26726,-0.520272
369735342,-2.50446,-1.32773,-0.513001
369757820,-2.41678,-1.3884,-0.540203
369772776,-2.23774,-1.44556,-0.64842
369796617,-1.81942,-1.49116,-0.983792
369817672,-0.954027,-1.50454,-1.76339
369832670,-0.279492,-1.47531,-2.36377
369855418,0.0003886,-1.42815,-2.57586
369877835,0.141675,-1.38336,-2.66406
369892856,0.213229,-1.33985,-2.71163
369915402,0.245854,-1.3,-2.73331
369937837,0.260966,-1.26557,-2.74498
369952885,0.227085,-1.25531,-2.72407
369975200,0.169112,-1.2581,-2.68996
369997840,0.0957559,-1.27731,-2.6419
370012857,0.0399771,-1.28621,-2.60722
370035369,-0.0243772,-1.3121,-2.55149
370057752,-0.0438508,-1.30955,-2.53406
370072840,-0.0670797,-1.30903,-2.50022
370095171,-0.102237,-1.31892,-2.44631
370117624,-0.161127,-1.33051,-2.37918
370132620,-0.204994,-1.33682,-2.33139
370154918,-0.285014,-1.34228,-2.25794
370185819,-0.353276,-1.34863,-2.18713
370192620,-0.414495,-1.35451,-2.12003
370215166,-0.46942,-1.35763,-2.05846
370231098,-0.527234,-1.36203,-1.99457
370254173,-0.589,-1.36831,-1.92995
370275342,-0.661077,-1.37181,-1.85985
370291023,-0.733977,-1.36993,-1.7866
370314119,-0.774246,-1.36687,-1.74208
370335440,-0.814294,-1.36492,-1.70568
370351078,-0.846647,-1.3636,-1.67703
370374242,-0.872659,-1.36537,-1.65519
370395367,-0.898634,-1.36817,-1.63533
370411044,-0.934879,-1.36965,-1.60417
370433910,-0.977827,-1.37175,-1.56425
370455192,-1.03236,-1.37445,-1.51176
370479145,-1.09669,-1.37622,-1.45052
370494107,-1.16584,-1.37565,-1.3837
370515364,-1.23094,-1.37237,-1.31835
370530948,-1.2891,-1.3674,-1.25927
370560407,-1.34402,-1.36301,-1.20053
370575408,-1.39907,-1.35955,-1.14327
370591063,-1.45533,-1.35625,-1.08498
370614172,-1.51458,-1.35371,-1.02384
370635233,-1.56177,-1.34813,-0.970602
370651120,-1.6047,-1.34337,-0.922958
370674229,-1.64854,-1.33986,-0.877155
370695366,-1.69387,-1.33681,-0.833793
370710972,-1.73742,-1.33362,-0.790935
370734150,-1.78087,-1.3309,-0.748985
370755399,-1.8258,-1.32698,-0.706048
370771073,-1.87324,-1.3225,-0.658452
370794129,-1.92649,-1.3171,-0.606442
370815146,-1.97671,-1.31095,-0.556886
370830957,-2.02987,-1.30359,-0.503202
370854107,-2.08873,-1.29561,-0.445391
370875373,-2.15567,-1.28525,-0.381106
370891030,-2.22625,-1.27256,-0.316407
370914208,-2.30278,-1.25483,-0.245595
370935396,-2.37673,-1.22761,-0.178137
370951043,-2.46169,-1.19712,-0.112445
370973648,-2.54482,-1.16111,-0.0603913
370995276,-2.62909,-1.11926,-0.0189364
371011020,-2.70231,-1.07565,0.0156597
371033623,-2.74265,-1.0321,0.0371355
371055420,-2.76371,-0.996857,0.046482
371070956,-2.77559,-0.96832,0.0477777
371093567,-2.77984,-0.942272,0.049671
371115179,-2.76531,-0.925683,0.0489296
371137669,-2.73727,-0.915071,0.0435142
371153549,-2.69551,-0.91572,0.0451457
371176735,-2.6548,-0.926147,0.0466375
371191028,-2.61618,-0.948313,0.0494481
371213509,-2.5754,-0.979887,0.0495831
371236777,-2.53179,-1.02043,0.0486595
371251049,-2.48982,-1.06991,0.0457879
371273589,-2.4458,-1.12709,0.0368368
371296600,-2.38822,-1.19146,0.0148718
371311076,-2.30423,-1.26116,-0.0349825
371333665,-2.15936,-1.33161,-0.142831
371356719,-1.88346,-1.3957,-0.374434
371371081,-1.3585,-1.43676,-0.845752
371393605,-0.691026,-1.42785,-1.45267
371416681,-0.233319,-1.37807,-1.849
371437763,0.0225561,-1.31369,-2.05468
371453514,0.167147,-1.24733,-2.16488
371476633,0.241408,-1.18586,-2.22209
371497691,0.279664,-1.13002,-2.24161
371513509,0.294591,-1.08803,-2.24884
371536610,0.286799,-1.05636,-2.25564
371557652,0.255686,-1.05105,-2.25591
371573507,0.193424,-1.0912,-2.20223
371596634,0.146391,-1.13306,-2.14564
371617716,0.0825539,-1.1522,-2.06923
371633546,0.110018,-1.14985,-2.07236
371656649,0.0701457,-1.17407,-2.03093
371677714,0.0398185,-1.1958,-1.98383
371693570,0.0490081,-1.22054,-1.98057
371716667,0.0220028,-1.24156,-1.95352
371737723,-0.0107112,-1.25685,-1.91612
371753533,-0.0571568,-1.26291,-1.86292
371784112,-0.0931982,-1.26516,-1.81566
371797668,-0.15278,-1.26875,-1.75788
371813512,-0.212998,-1.27333,-1.69753
371836608,-0.264614,-1.28017,-1.63634
371857743,-0.309175,-1.28461,-1.58078
371873512,-0.349942,-1.28768,-1.52964
371896657,-0.387571,-1.29096,-1.48252
371925210,-0.421244,-1.29753,-1.44237
371933526,-0.45736,-1.30526,-1.40295
371956023,-0.490579,-1.31047,-1.3681
371977700,-0.527379,-1.31587,-1.32498
371993543,-0.558489,-1.32276,-1.28628
372016006,-0.598066,-1.32835,-1.24588
372037714,-0.637151,-1.33281,-1.20401
372053511,-0.669561,-1.33741,-1.16721
372075997,-0.69385,-1.34173,-1.13751
372099146,-0.724564,-1.34486,-1.10119
372113517,-0.759732,-1.34807,-1.06127
372135962,-0.806422,-1.35372,-1.01263
372159136,-0.864456,-1.35849,-0.955123
372173552,-0.904661,-1.35959,-0.915323
372196012,-0.965197,-1.3629,-0.848452
372219165,-1.02576,-1.36909,-0.785539
372233516,-1.08847,-1.37169,-0.726767
372256058,-1.14151,-1.37325,-0.673902
372279151,-1.19287,-1.37402,-0.622077
372293566,-1.25182,-1.37566,-0.564624
372316025,-1.32895,-1.37605,-0.490595
372339199,-1.41465,-1.37513,-0.404794
372361640,-1.51728,-1.37431,-0.30429
372375960,-1.62388,-1.37084,-0.202567
372399114,-1.73388,-1.36585,-0.097653
372420278,-1.8463,-1.35992,0.00845821
372435985,-1.95982,-1.35169,0.117071
372459144,-2.07802,-1.34227,0.229397
372480225,-2.196,-1.32903,0.339572
372495968,-2.29517,-1.31126,0.432412
372519107,-2.38626,-1.28402,0.519282
372540227,-2.46838,-1.25082,0.594616
372556039,-2.52747,-1.21138,0.647552
372579181,-2.56035,-1.16912,0.681556
372600189,-2.5703,-1.12791,0.705025
372616005,-2.56905,-1.08978,0.714463
372639143,-2.56359,-1.0541,0.711267
372660243,-2.57661,-1.02782,0.721128
372676009,-2.60561,-1.01062,0.732847
372699170,-2.62602,-1.01094,0.742716
372720229,-2.63169,-1.01993,0.74885
372735998,-2.62759,-1.04098,0.746928
372759278,-2.60154,-1.07018,0.730081
372780454,-2.56026,-1.11115,0.707819
372796061,-2.5096,-1.15634,0.679536
372819166,-2.44892,-1.20546,0.640791
372841642,-2.37889,-1.26091,0.5878
372855969,-2.28762,-1.31812,0.505073
372878510,-2.14499,-1.37361,0.366341
372900223,-1.88814,-1.42466,0.114816
372916068,-1.4209,-1.45658,-0.336063
372938633,-0.826699,-1.4531,-0.900388
372967904,-0.402576,-1.41864,-1.29034
372976099,-0.161101,-1.37187,-1.50122
372989873,-0.0106081,-1.32135,-1.62692
373012177,0.0868351,-1.26866,-1.70825
373035438,0.148982,-1.21616,-1.76078
373057752,0.183724,-1.16753,-1.79427
373072067,0.198101,-1.12622,-1.8151
373095258,0.208933,-1.09136,-1.82669
373109599,0.215186,-1.08135,-1.82695
373132012,0.209878,-1.0848,-1.81635
373163486,0.20291,-1.10102,-1.80109
373169789,0.185469,-1.12741,-1.77697
373192109,0.156868,-1.16178,-1.74359
373215457,0.122844,-1.19147,-1.70925
373229773,0.0915897,-1.18979,-1.68087
373252246,0.0829381,-1.17072,-1.67665
373275475,0.0347303,-1.18144,-1.63884
373289733,-0.0293766,-1.19935,-1.57146
373312260,-0.0338139,-1.21414,-1.55035
373335759,-0.0508414,-1.23199,-1.53622
373349749,-0.0780183,-1.24804,-1.51323
373372238,-0.119524,-1.25982,-1.47441
373395489,-0.146009,-1.26171,-1.44131
373409780,-0.17558,-1.26626,-1.40385
373432188,-0.218292,-1.27124,-1.36227
373455356,-0.267283,-1.27645,-1.31546
373469830,-0.311529,-1.28024,-1.2675
373492153,-0.352279,-1.28414,-1.22175
373515438,-0.394681,-1.28614,-1.1776
373529786,-0.441141,-1.28857,-1.13196
373552041,-0.481055,-1.29231,-1.09175
373575260,-0.51788,-1.29729,-1.0556
373589748,-0.553946,-1.30251,-1.02126
373612316,-0.586517,-1.30656,-0.989755
373635881,-0.618076,-1.31164,-0.955816
373649770,-0.644662,-1.31639,-0.926026
373672257,-0.670682,-1.31991,-0.89623
373695356,-0.692098,-1.32405,-0.870703
373709786,-0.717086,-1.32778,-0.845384
373732266,-0.742547,-1.33084,-0.820481
373755346,-0.771279,-1.33406,-0.792496
373769747,-0.803388,-1.33679,-0.76191
373792301,-0.835234,-1.33944,-0.73105
373815448,-0.868253,-1.34234,-0.699039
373829760,-0.904519,-1.34545,-0.663545
373852318,-0.942888,-1.3491,-0.627197
373875319,-0.985982,-1.35166,-0.585843
373891008,-1.03337,-1.35444,-0.539423
373913514,-1.08413,-1.35736,-0.488755
373936665,-1.14075,-1.35915,-0.433735
373949544,-1.19955,-1.36043,-0.376816
373972068,-1.25132,-1.36076,-0.326335
373994630,-1.30783,-1.3595,-0.266288
374009840,-1.36905,-1.36046,-0.20011
374032123,-1.44062,-1.36122,-0.131117
374054799,-1.5052,-1.36033,-0.0673078
374069833,-1.57056,-1.35955,-0.000565739
374092203,-1.64084,-1.35785,0.0678102
374114627,-1.7118,-1.3541,0.139379
374129623,-1.78822,-1.35018,0.219977
374152096,-1.87586,-1.34552,0.310795
374174782,-1.96545,-1.33816,0.403928
374189642,-2.05525,-1.3292,0.498317
374212282,-2.15117,-1.31826,0.59638
374234847,-2.24711,-1.30425,0.690889
374249786,-2.33683,-1.28596,0.775599
374272343,-2.42218,-1.25742,0.852597
374294781,-2.49587,-1.22441,0.917417
374309814,-2.49209,-1.21273,0.94662
374332190,-2.48058,-1.18641,0.94982
374354702,-2.4858,-1.14825,0.971912
374369812,-2.49742,-1.10673,0.998434
374392321,-2.51191,-1.07063,1.02382
374414770,-2.53158,-1.0477,1.04672
374429777,-2.54273,-1.03793,1.06088
374452204,-2.53739,-1.04405,1.06981
374474726,-2.5223,-1.06169,1.07321
374489700,-2.50418,-1.09109,1.07581
374512145,-2.4857,-1.12924,1.07877
374534575,-2.46246,-1.17392,1.07715
374549575,-2.43396,-1.21945,1.07014
374572077,-2.39465,-1.27011,1.05119
374596031,-2.33785,-1.32393,1.01428
374609580,-2.2425,-1.37913,0.940828
374632096,-2.05255,-1.43336,0.778176
374654590,-1.6201,-1.47604,0.380173
374669746,-0.90808,-1.48421,-0.289826
374692290,-0.398151,-1.45551,-0.748128
374714794,-0.11271,-1.41267,-0.969491
374729684,0.0761037,-1.36608,-1.09406
374752370,0.195706,-1.31807,-1.16145
374774759,0.266926,-1.26994,-1.19646
374791173,0.305362,-1.22437,-1.21499
374812361,0.317621,-1.18304,-1.22341
374834622,0.319684,-1.14422,-1.22311
374851211,0.322416,-1.11248,-1.21876
374872320,0.309012,-1.10338,-1.19636
374894697,0.294683,-1.10359,-1.16725
374911197,0.282675,-1.11608,-1.13521
374932292,0.262789,-1.13962,-1.09735
374954857,0.237653,-1.17153,-1.05449
374971148,0.202457,-1.20021,-1.00182
374992119,0.177809,-1.21529,-0.952617
375014682,0.19522,-1.20376,-0.960877
375031146,0.180002,-1.21016,-0.948892
375052359,0.136569,-1.22965,-0.908583
375074676,0.1357,-1.2495,-0.905696
375091150,0.0994207,-1.2675,-0.880283
375112159,0.0600788,-1.28185,-0.843328
375134782,0.0254616,-1.28799,-0.804049
375151132,-0.034358,-1.29591,-0.737419
375172327,-0.0935474,-1.29837,-0.67227
375194848,-0.148988,-1.30183,-0.61083
375211153,-0.19257,-1.30588,-0.559945
375232351,-0.240491,-1.30738,-0.504258
375254891,-0.281205,-1.30486,-0.447999
375271099,-0.309255,-1.30425,-0.39966
375292337,-0.338179,-1.30744,-0.362498
375314716,-0.378509,-1.31022,-0.321377
375331084,-0.415525,-1.31282,-0.280486
375352260,-0.441838,-1.31653,-0.24965
375374837,-0.470345,-1.31926,-0.219922
375391131,-0.497216,-1.32154,-0.193048
375412322,-0.521731,-1.32447,-0.169076
375434789,-0.547864,-1.3273,-0.142884
375451155,-0.574782,-1.33012,-0.116382
375472284,-0.600719,-1.33203,-0.0924433
375494747,-0.631937,-1.33328,-0.0633305
375511184,-0.659451,-1.33513,-0.0372624
375533656,-0.686786,-1.33642,-0.0121039
375554790,-0.711734,-1.33782,0.0109304
375577385,-0.734205,-1.33844,0.0329932
375592284,-0.754248,-1.33947,0.0540555
375614809,-0.774219,-1.34116,0.0750373
375631119,-0.794837,-1.34342,0.0962161
375652308,-0.8176,-1.34566,0.120137
375674757,-0.838762,-1.34896,0.14445
375691184,-0.864568,-1.35276,0.170607
375713651,-0.893847,-1.35623,0.199096
375734834,-0.924558,-1.36021,0.229103
375751174,-0.957333,-1.36489,0.262611
375773651,-0.998723,-1.36937,0.304004
375794854,-1.03746,-1.37343,0.345195
375811137,-1.085,-1.37746,0.393198
375833625,-1.13678,-1.38046,0.445285
375854684,-1.19414,-1.38388,0.503364
375871201,-1.25159,-1.38728,0.562263
375893581,-1.31443,-1.39002,0.625118
375914839,-1.38258,-1.3926,0.692106
375931138,-1.45434,-1.39453,0.762947
375953639,-1.52999,-1.39593,0.837284
375974788,-1.61145,-1.39684,0.917901
375991127,-1.70038,-1.39759,1.00709
376013655,-1.79715,-1.39687,1.10574
376034869,-1.90351,-1.39374,1.21539
376051194,-2.00957,-1.38827,1.32643
376073644,-2.117,-1.38108,1.44042
376094781,-2.22408,-1.37024,1.55293
376111124,-2.31792,-1.35603,1.65075
376133557,-2.40167,-1.33927,1.73619
376154781,-2.47221,-1.31811,1.80513
376171125,-2.52936,-1.29547,1.85952
376193583,-2.5537,-1.28174,1.90164
376214918,-2.54954,-1.26489,1.92573
376231132,-2.54679,-1.24154,1.93701
376253658,-2.55772,-1.21225,1.96376
376274884,-2.57348,-1.185,1.9916
376291193,-2.59627,-1.16275,2.02487
376313683,-2.62446,-1.15002,2.06001
376334676,-2.64799,-1.14482,2.09154
376351223,-2.66408,-1.14674,2.11913
376373690,-2.66995,-1.15565,2.14182
376394771,-2.66508,-1.17047,2.15842
376411139,-2.64858,-1.1901,2.1683
376433679,-2.62283,-1.2137,2.17508
376454782,-2.59598,-1.23529,2.18487
376471244,-2.56731,-1.26044,2.19286
376493653,-2.52901,-1.29285,2.18979
376514810,-2.48776,-1.32785,2.17954
376531149,-2.43532,-1.36554,2.15397
376553652,-2.35125,-1.40375,2.09481
376574816,-2.22861,-1.44236,1.99863
376590468,-1.98276,-1.47663,1.78445
376612975,-1.5079,-1.4983,1.34899
376635369,-0.909486,-1.49571,0.798223
376650494,-0.493346,-1.47447,0.435608
376672972,-0.251449,-1.44563,0.244876
376695509,-0.0983009,-1.41537,0.133454
376710439,0.0137914,-1.38516,0.055672
376732949,0.0652771,-1.35862,0.032709
376755393,0.0898073,-1.33502,0.0340847
376778002,0.10554,-1.31128,0.0481785
376792868,0.10602,-1.28965,0.0783138
376815478,0.0963654,-1.2715,0.116622
376830380,0.0899949,-1.25557,0.152698
376852939,0.0825505,-1.24449,0.192586
376875488,0.0747174,-1.23912,0.229055
376891840,0.048102,-1.24065,0.27551
376912990,0.00695292,-1.24933,0.329146
376935477,-0.0467024,-1.26715,0.391471
376951804,-0.0726881,-1.29194,0.422058
376972918,-0.0776222,-1.29733,0.415968
376995521,-0.0887758,-1.293,0.4133
377011825,-0.123392,-1.29668,0.441836
377033017,-0.164645,-1.30223,0.484978
377055331,-0.183605,-1.30709,0.518046
377071785,-0.200662,-1.31327,0.540874
377092925,-0.240244,-1.31753,0.576793
377115528,-0.283499,-1.32145,0.619063
377131858,-0.32534,-1.32515,0.664075
377153022,-0.362856,-1.3289,0.708173
377175446,-0.401535,-1.33247,0.752891
377191835,-0.436343,-1.33548,0.792668
377213031,-0.470059,-1.33751,0.82959
377235451,-0.498252,-1.33856,0.862312
377251784,-0.521098,-1.33906,0.888382
377273022,-0.548296,-1.33963,0.917695
377295468,-0.568772,-1.33933,0.942562
377311812,-0.587027,-1.3396,0.962844
377332987,-0.611278,-1.33849,0.986044
377355548,-0.630045,-1.33781,1.00672
377371929,-0.646633,-1.33465,1.02569
377393011,-0.661048,-1.33243,1.04415
377415465,-0.672655,-1.33025,1.05988
377431901,-0.681794,-1.32821,1.07222
377452990,-0.691443,-1.32734,1.08394
377476899,-0.698807,-1.32581,1.0931
377491681,-0.704779,-1.32509,1.10079
377513106,-0.709622,-1.32407,1.10549
377535501,-0.71439,-1.32285,1.10881
377551888,-0.718285,-1.3229,1.11148
377572878,-0.722775,-1.32343,1.11454
377595299,-0.728782,-1.32407,1.11822
377611055,-0.735183,-1.325,1.12234
377634255,-0.739198,-1.32673,1.12507
377655535,-0.745875,-1.3281,1.13072
377671236,-0.749882,-1.32942,1.13504
377693008,-0.75365,-1.33063,1.13847
377715564,-0.758285,-1.33256,1.14278
377731260,-0.762788,-1.33381,1.14837
377752966,-0.765631,-1.33482,1.15377
377775515,-0.768059,-1.33675,1.15852
377791203,-0.771765,-1.33888,1.16561
377814241,-0.772162,-1.34288,1.16786
377835604,-0.772707,-1.34663,1.168
377851247,-0.771505,-1.34934,1.16701
377874277,-0.769391,-1.35231,1.16562
377895345,-0.771812,-1.35539,1.16842
377911084,-0.780349,-1.35936,1.17688
377934238,-0.792849,-1.3644,1.18968
377955542,-0.808509,-1.37026,1.20413
377971154,-0.829089,-1.37557,1.22413
377994326,-0.854745,-1.38248,1.24891
378015516,-0.881951,-1.38703,1.27424
378031249,-0.91076,-1.39238,1.30223
378054342,-0.942449,-1.39738,1.33315
378075507,-0.974128,-1.40172,1.3647
378091163,-1.01168,-1.40708,1.4028
378114451,-1.05169,-1.41018,1.4431
378135582,-1.08388,-1.41295,1.47826
378151234,-1.12184,-1.41583,1.51809
378181830,-1.15862,-1.41974,1.55552
378195511,-1.19321,-1.42238,1.5897
378211193,-1.22201,-1.42537,1.61903
378234368,-1.23962,-1.42707,1.63703
378255531,-1.24978,-1.42853,1.64725
378271184,-1.25512,-1.43047,1.65259
378294348,-1.25767,-1.43183,1.65466
378315456,-1.25888,-1.43295,1.65523
378331155,-1.26068,-1.43495,1.65638
378354841,-1.26803,-1.4378,1.6623
378375588,-1.28121,-1.43881,1.67343
378391234,-1.29722,-1.43999,1.68845
378414423,-1.31009,-1.44196,1.70121
378435523,-1.33196,-1.44277,1.7235
378451254,-1.35136,-1.4447,1.74314
378474331,-1.36594,-1.44644,1.75692
378495656,-1.37436,-1.4482,1.76469
378511270,-1.38053,-1.44984,1.77084
378533661,-1.38836,-1.4515,1.77866
378555342,-1.39873,-1.45355,1.78838
378571131,-1.40712,-1.45559,1.79665
378593616,-1.41404,-1.45661,1.8033
378615310,-1.42463,-1.45813,1.81396
378631147,-1.43891,-1.45938,1.82858
378653621,-1.45509,-1.46145,1.84497
378675581,-1.47083,-1.46219,1.86022
378691265,-1.48466,-1.4643,1.87302
378713715,-1.49135,-1.46441,1.87965
378736879,-1.49973,-1.46496,1.88901
378751225,-1.51043,-1.46564,1.89988
378773780,-1.52165,-1.46617,1.9117
378796860,-1.53869,-1.46711,1.92945
378811249,-1.55823,-1.46828,1.94893
378833738,-1.57418,-1.46825,1.96532
378856831,-1.58922,-1.46812,1.98118
378871179,-1.60545,-1.46827,1.99792
378893731,-1.62148,-1.46795,2.01426
378916858,-1.63695,-1.46804,2.02978
378931181,-1.64872,-1.46726,2.04172
378953741,-1.66371,-1.46725,2.05675
378976857,-1.67561,-1.4676,2.06884
378991232,-1.68456,-1.46737,2.07815
379013714,-1.69622,-1.46761,2.09032
379036950,-1.70584,-1.46695,2.10056
379051224,-1.71662,-1.46784,2.11171
379073782,-1.7254,-1.46715,2.12068
379096923,-1.7341,-1.46683,2.12925
379111228,-1.73833,-1.46666,2.13346
379133717,-1.74314,-1.46665,2.13915
379164401,-1.75155,-1.46704,2.14813
379171227,-1.76203,-1.46702,2.15901
379193763,-1.77353,-1.46726,2.17057
379216886,-1.78545,-1.46687,2.18277
379231175,-1.7988,-1.46778,2.19599
379253684,-1.8082,-1.4675,2.20528
379276779,-1.81544,-1.46816,2.21272
379298060,-1.82225,-1.4683,2.21996
379313775,-1.83227,-1.46874,2.23009
379336851,-1.83955,-1.46998,2.23728
379358112,-1.84396,-1.47111,2.24157
379373645,-1.84794,-1.47157,2.24521
379396892,-1.84828,-1.4715,2.24549
379418006,-1.84838,-1.47155,2.24558
379441887,-1.85061,-1.47266,2.24768
379456911,-1.84901,-1.4727,2.24609
379477909,-1.84901,-1.4727,2.24609
379493773,-1.85397,-1.47353,2.25085
379516258,-1.85702,-1.47275,2.25409
379537878,-1.86223,-1.47352,2.25953
379553654,-1.86741,-1.4734,2.26511
379576175,-1.87025,-1.47276,2.26819
379597895,-1.87658,-1.47328,2.27466
379613654,-1.88131,-1.47383,2.27956
379636145,-1.88495,-1.47375,2.2836
379657909,-1.89149,-1.47373,2.29057
379673640,-1.89673,-1.4736,2.29621
379696167,-1.9044,-1.47351,2.30428
379719307,-1.90947,-1.47392,2.30946
379733764,-1.91394,-1.47351,2.31468
379756166,-1.9204,-1.47471,2.32146
379779463,-1.9226,-1.47496,2.32458
379793763,-1.92723,-1.47575,2.33027
379816252,-1.93195,-1.47587,2.33586
379839429,-1.93644,-1.47675,2.34055
379853741,-1.94193,-1.4777,2.34626
379876244,-1.9506,-1.47861,2.35471
379899394,-1.95895,-1.47971,2.36244
379913857,-1.96629,-1.48067,2.36956
379936350,-1.97615,-1.48127,2.37912
379959398,-1.98936,-1.48181,2.39158
379973714,-2.00063,-1.48131,2.40189
379996240,-2.01209,-1.48187,2.41172
380019360,-2.01745,-1.48209,2.41582
380033818,-2.02505,-1.48137,2.42328
380056243,-2.03801,-1.48211,2.4364
380079450,-2.04838,-1.48284,2.44649
380093732,-2.0603,-1.48461,2.4579
380116243,-2.06458,-1.48695,2.4631
380139353,-2.05517,-1.49034,2.46004
380160530,-2.04197,-1.49424,2.45267
380176275,-2.02712,-1.49683,2.44034
380189768,-2.01819,-1.49731,2.43239
380212370,-2.02064,-1.49806,2.43454
380235549,-2.02863,-1.49876,2.44094
380249888,-2.03816,-1.49903,2.44839
380272842,-2.04252,-1.49807,2.45141
380295558,-2.05424,-1.49766,2.46218
380309962,-2.06816,-1.49702,2.47471
380332297,-2.08008,-1.49661,2.48351
380355521,-2.08649,-1.49584,2.48676
380369907,-2.09163,-1.49496,2.48913
380392476,-2.09711,-1.4952,2.49154
380415450,-2.09435,-1.49433,2.48643
380429957,-2.09042,-1.49493,2.48079
380453170,-2.0879,-1.49545,2.47748
380475635,-2.08995,-1.4954,2.4791
380489965,-2.08952,-1.49438,2.47899
380512471,-2.10124,-1.49492,2.49038
380535578,-2.11047,-1.49577,2.49929
380550010,-2.11526,-1.49533,2.50406
380572301,-2.12335,-1.49737,2.51107
380595718,-2.12813,-1.49715,2.51496
380609908,-2.13264,-1.49758,2.51864
380632474,-2.14145,-1.49829,2.52665
380655594,-2.14619,-1.49931,2.53064
380669980,-2.14609,-1.49811,2.53086
380692341,-2.15251,-1.49884,2.53786
380715555,-2.15839,-1.49929,2.54382
380729964,-2.1614,-1.50029,2.54652
380752461,-2.16217,-1.50081,2.54739
380775546,-2.16154,-1.5007,2.54681
380789979,-2.16478,-1.50244,2.54984
380812437,-2.16888,-1.50248,2.554
380835592,-2.17862,-1.50373,2.56343
380849883,-2.18625,-1.50314,2.57105
380872268,-2.19984,-1.50427,2.58429
380895363,-2.21346,-1.50277,2.59781
380909702,-2.22911,-1.50379,2.6126
380932229,-2.24597,-1.50428,2.62903
380955338,-2.26362,-1.50455,2.64623
380969723,-2.27832,-1.5033,2.66086
380992230,-2.29623,-1.50359,2.67874
381015433,-2.3109,-1.50276,2.6942
381029786,-2.32674,-1.50269,2.71089
381052277,-2.34273,-1.50144,2.72766
381075396,-2.35832,-1.50171,2.74281
381089909,-2.37494,-1.50329,2.75827
381112400,-2.39342,-1.50354,2.77644
381135522,-2.41642,-1.50426,2.79959
381149980,-2.44056,-1.50548,2.82436
381172297,-2.46723,-1.5073,2.85158
381195539,-2.50311,-1.507,2.88801
381209905,-2.5453,-1.50675,2.92748
381232418,-2.59071,-1.50621,2.9687
381255642,-2.64442,-1.50582,3.01809
381269812,-2.71057,-1.503,3.08048
381292410,-2.78314,-1.49779,-3.13336
381315671,-2.84947,-1.4907,-3.07086
381329941,-2.90232,-1.4822,-3.02145
381352397,-2.9368,-1.47144,-2.99075
381375641,-2.95897,-1.45883,-2.97282
381390008,-2.98545,-1.44407,-2.94984
381412453,-3.01968,-1.42921,-2.91478
381435608,-3.03239,-1.41411,-2.8902
381449956,-3.04251,-1.39779,-2.86048
381472434,-3.06067,-1.38916,-2.81216
381495611,-3.07412,-1.37463,-2.77615
381509981,-3.06084,-1.35682,-2.76527
381532442,-3.02233,-1.33525,-2.77127
381555593,-2.99853,-1.30839,-2.75318
381571215,-2.96439,-1.27895,-2.73912
381592393,-2.91193,-1.24737,-2.7407
381614820,-2.84193,-1.21493,-2.75415
381629968,-2.76522,-1.18462,-2.77287
381652460,-2.68912,-1.15815,-2.79322
381674921,-2.61824,-1.1361,-2.81352
381689992,-2.55234,-1.12012,-2.83487
381712516,-2.49671,-1.11202,-2.85694
381734882,-2.45366,-1.12347,-2.87717
381749939,-2.41764,-1.14517,-2.8967
381772431,-2.3856,-1.17706,-2.91953
381794969,-2.35716,-1.21777,-2.94544
381809993,-2.32599,-1.26439,-2.97822
381832473,-2.26712,-1.30885,-3.04054
381855008,-2.16419,-1.35812,3.13501
381869970,-1.96865,-1.41059,2.94008
381892502,-1.58844,-1.4558,2.56828
381914818,-0.945561,-1.47321,1.93625
381929825,-0.340437,-1.44765,1.3368
381952462,0.00386683,-1.39802,0.998909
381974983,0.188517,-1.33917,0.821708
381989956,0.297599,-1.28247,0.729088
382012403,0.371407,-1.23385,0.685474
382034929,0.433824,-1.19757,0.666959
382049990,0.49199,-1.18426,0.657513
382072515,0.544233,-1.18943,0.639402
382094981,0.58049,-1.21499,0.61414
382109927,0.606284,-1.25461,0.588203
382132496,0.610018,-1.30216,0.580385
382154803,0.580334,-1.36857,0.58716
382169932,0.427456,-1.41877,0.696072
382192400,0.386434,-1.4516,0.722259
382214953,0.168459,-1.49461,0.911329
382229972,-0.364398,-1.53105,1.44933
382252548,-1.61065,-1.53955,2.74107
382274946,-2.14984,-1.50118,-3.01169
382289818,-2.30291,-1.45178,-2.88264
382312339,-2.36868,-1.40637,-2.82643
382334971,-2.38133,-1.36019,-2.81883
382351300,-2.35603,-1.3185,-2.83993
382372315,-2.36178,-1.28099,-2.83705
382394945,-2.38498,-1.24766,-2.821
382411238,-2.39143,-1.22041,-2.81855
382433791,-2.3973,-1.2056,-2.82178
382454939,-2.40607,-1.19826,-2.82331
382471258,-2.40606,-1.19955,-2.82159
382493850,-2.3953,-1.2124,-2.81383
382515000,-2.39811,-1.21686,-2.79062
382531310,-2.41802,-1.22265,-2.75601
382552318,-2.47542,-1.25343,-2.72712
382574822,-2.57405,-1.24406,-2.67587
382591241,-2.63491,-1.20261,-2.6481
382612471,-2.68613,-1.14542,-2.608
382634874,-2.70928,-1.07333,-2.57945
382651266,-2.70126,-0.994548,-2.56626
382672492,-2.69852,-0.91098,-2.55823
382694769,-2.7032,-0.828119,-2.55249
382711198,-2.70043,-0.759362,-2.54607
382732216,-2.68055,-0.698642,-2.53782
382754746,-2.648,-0.651154,-2.53065
382771210,-2.60726,-0.633552,-2.52658
382792246,-2.57759,-0.660092,-2.52381
382814736,-2.56221,-0.705922,-2.52637
382831209,-2.54762,-0.780706,-2.5373
382852272,-2.5191,-0.881046,-2.5602
382874749,-2.4667,-1.00027,-2.60633
382891248,-2.37032,-1.12884,-2.70091
382912282,-2.17855,-1.2573,-2.90274
382934825,-1.73884,-1.35819,2.91187
382951196,-1.00495,-1.36952,2.14768
382972307,-0.505883,-1.29323,1.61175
383003144,-0.275371,-1.18648,1.35582
383011262,-0.157619,-1.09891,1.24342
383032290,-0.10976,-1.04907,1.20003
383055063,-0.116324,-1.03807,1.19597
383071337,-0.201633,-1.05365,1.24414
383093765,-0.312259,-1.11778,1.35896
383114883,-0.470207,-1.18114,1.53056
383131313,-0.641216,-1.23201,1.75875
383160568,-0.926183,-1.25822,2.03046
383174900,-1.12315,-1.26416,2.21627
383198869,-1.3332,-1.24553,2.42981
383212407,-1.47817,-1.22971,2.56123
383243028,-1.60231,-1.20899,2.68146
383257364,-1.72954,-1.18582,2.79841
383272276,-1.8108,-1.17427,2.8647
383297766,-1.85224,-1.17442,2.8982
383311322,-1.85688,-1.19102,2.89408
383335241,-1.86202,-1.22005,2.88883
383354938,-1.89192,-1.2488,2.89702
383372693,-1.94296,-1.27309,2.9193
383393851,-2.01521,-1.28944,2.96745
383414953,-2.0932,-1.29695,3.02467
383432769,-2.19333,-1.28613,3.10455
383453806,-2.29528,-1.26156,-3.08411
383475035,-2.38729,-1.22068,-2.99102
383491242,-2.45655,-1.15898,-2.91435
383513812,-2.51447,-1.09204,-2.8455
383534987,-2.55929,-1.0316,-2.79285
383551272,-2.58519,-0.977125,-2.75295
383573779,-2.60439,-0.924164,-2.70523
383594916,-2.63742,-0.896668,-2.65752
383611312,-2.62954,-0.90147,-2.63086
383633771,-2.61979,-0.91526,-2.5844
383654846,-2.61415,-0.956061,-2.53398
383671379,-2.62135,-1.02675,-2.48151
383693800,-2.63026,-1.12099,-2.42673
383714882,-2.64378,-1.23113,-2.36814
383731254,-2.65697,-1.35284,-2.31775
383753850,-2.63486,-1.483,-2.30082
383774894,0.149227,-1.52815,1.22667
383790632,0.312054,-1.4004,1.10765
383813223,0.378607,-1.28416,1.13439
383835695,0.432851,-1.17736,1.17053
383850702,0.465982,-1.08835,1.19928
383880725,0.413557,-1.02754,1.21343
383895623,0.321336,-0.994107,1.22043
383910556,0.202847,-0.99999,1.24424
383933070,0.185116,-1.04854,1.27065
383955522,0.167286,-1.12179,1.32874
383970544,0.14301,-1.19746,1.40465
383993017,0.0643575,-1.2689,1.51458
384015701,-0.0660988,-1.30986,1.63441
384030700,-0.210229,-1.34829,1.75496
384053130,-0.360486,-1.38866,1.90765
384075714,-0.477131,-1.41232,2.03247
384090646,-0.615313,-1.42665,2.17419
384113026,-0.753551,-1.4313,2.30339
384135676,-0.825634,-1.43333,2.36429
384150509,-0.838252,-1.43301,2.36528
384173145,-0.787461,-1.43182,2.30528
384195649,-0.69891,-1.43007,2.20811
384210485,-0.613887,-1.42564,2.11017
384232986,-0.545847,-1.42019,2.02837
384255742,-0.501838,-1.4149,1.97134
384270675,-0.476096,-1.41112,1.93312
384293186,-0.473745,-1.40911,1.92108
384315658,-0.483845,-1.40918,1.92351
384330661,-0.5127,-1.41292,1.94694
384353205,-0.557927,-1.41977,1.98945
384375749,-0.619555,-1.42867,2.0499
384390662,-0.733415,-1.441,2.16301
384413160,-0.894977,-1.45171,2.31955
384436961,-0.955276,-1.45646,2.37088
384451989,-1.04478,-1.46079,2.45928
384473056,-1.11171,-1.47077,2.53505
384495675,-1.17792,-1.48529,2.61178
384512038,-1.27216,-1.49574,2.72115
384533060,-1.34315,-1.49806,2.80463
384555712,-1.38765,-1.4986,2.86062
384571906,-1.42168,-1.4991,2.89124
384593135,-1.44585,-1.49968,2.90637
384615900,-1.45351,-1.50082,2.90806
384631962,-1.42161,-1.50281,2.87329
384653174,-1.41929,-1.505,2.87153
384675642,-1.4329,-1.50593,2.88707
384692000,-1.48094,-1.50876,2.93442
384713156,-1.55555,-1.51128,3.00573
384728767,-1.65056,-1.51318,3.09808
384751966,-1.79331,-1.51299,-3.04694
384773191,-1.98194,-1.50923,-2.8716
384795755,-2.12536,-1.50297,-2.74388
384812018,-2.19116,-1.49822,-2.6881
384833154,-2.21445,-1.49384,-2.66797
384855542,-2.2217,-1.49309,-2.66334
384871954,-2.22281,-1.49391,-2.66409
384893270,-2.22791,-1.49451,-2.66023
384908801,-2.22475,-1.49567,-2.66386
384931936,-2.22003,-1.49535,-2.66803
384953194,-2.21411,-1.49458,-2.67329
384968830,-2.21127,-1.49309,-2.67858
384992035,-2.22556,-1.49092,-2.66781
385013119,-2.23907,-1.48928,-2.66001
385028825,-2.24611,-1.48771,-2.65641
385052025,-2.25175,-1.48382,-2.65061
385073173,-2.25036,-1.48283,-2.65129
385088789,-2.24652,-1.48309,-2.65568
385111993,-2.2416,-1.48132,-2.65837
385133188,-2.23797,-1.48093,-2.66204
385148875,-2.22914,-1.4797,-2.67037
385171332,-2.22207,-1.47838,-2.6785
385193184,-2.21516,-1.47598,-2.68517
385208852,-2.20642,-1.47366,-2.69406
385231270,-2.19351,-1.47173,-2.70679
385252974,-2.17907,-1.47006,-2.72044
385268792,-2.16168,-1.46894,-2.73722
385291250,-2.14246,-1.46819,-2.7561
385312994,-2.13013,-1.46841,-2.76938
385328793,-2.12024,-1.46759,-2.77827
385351267,-2.11065,-1.4672,-2.78755
385374387,-2.10331,-1.46651,-2.79457
385388744,-2.09919,-1.46517,-2.79795
385411289,-2.09634,-1.46444,-2.80126
385434516,-2.0961,-1.46424,-2.80172
385448762,-2.09673,-1.46416,-2.80119
385471303,-2.09485,-1.46309,-2.80314
385494411,-2.09547,-1.46301,-2.80262
385508898,-2.0961,-1.46293,-2.80209
385531387,-2.09776,-1.46225,-2.80086
385554542,-2.09725,-1.46165,-2.80095
385568781,-2.09729,-1.4614,-2.80082
385591387,-2.0959,-1.45984,-2.80255
385614553,-2.09709,-1.45863,-2.80204
385628826,-2.09688,-1.45672,-2.80195
385651298,-2.09935,-1.45635,-2.80064
385674631,-2.10127,-1.45432,-2.79756
385688842,-2.10227,-1.4535,-2.79684
385711346,-2.10304,-1.45189,-2.79553
385734438,-2.10622,-1.4508,-2.79296
385748851,-2.10617,-1.44934,-2.7927
385771336,-2.10895,-1.44785,-2.78932
385794492,-2.10949,-1.44777,-2.78888
385808895,-2.11078,-1.44819,-2.78843
385831433,-2.10926,-1.44758,-2.78933
385854555,-2.10851,-1.44747,-2.79022
385875726,-2.10904,-1.44739,-2.78978
385891429,-2.10858,-1.44685,-2.78988
385914511,-2.10912,-1.44676,-2.78945
385935621,-2.11302,-1.44594,-2.78517
385951425,-2.11256,-1.4454,-2.78528
385974602,-2.11279,-1.44575,-2.78563
385995744,-2.11234,-1.44521,-2.78574
386011421,-2.11234,-1.44521,-2.78574
386034473,-2.11286,-1.44513,-2.78531
386055675,-2.11309,-1.44547,-2.78566
386071408,-2.11365,-1.44433,-2.78414
386094609,-2.11416,-1.44425,-2.78372
386115424,-2.11468,-1.44417,-2.7833
386131446,-2.11342,-1.44414,-2.78459
386153887,-2.11394,-1.44406,-2.78417
386175715,-2.11349,-1.44353,-2.78428
386191403,-2.11323,-1.4429,-2.78395
386213830,-2.11396,-1.44338,-2.78395
386235747,-2.11447,-1.4433,-2.78354
386251310,-2.1133,-1.44229,-2.78365
386273796,-2.11247,-1.4425,-2.78483
386296982,-2.11173,-1.44173,-2.78483
386311336,-2.11322,-1.44106,-2.78283
386333915,-2.11348,-1.44036,-2.7821
386357082,-2.11445,-1.43955,-2.78047
386371340,-2.11448,-1.43831,-2.77935
386393791,-2.115,-1.43757,-2.77877
386416939,-2.11382,-1.43688,-2.7798
386431327,-2.11218,-1.43628,-2.78122
386453795,-2.10952,-1.43565,-2.78272
386476965,-2.10998,-1.43517,-2.78158
386491345,-2.11067,-1.43561,-2.78158
386513847,-2.1117,-1.43474,-2.77976
386536940,-2.11356,-1.43544,-2.77862
386551309,-2.11313,-1.43515,-2.77879
386573772,-2.10895,-1.43632,-2.7834
386596996,-2.10417,-1.43699,-2.78702
386611294,-2.09822,-1.43841,-2.79185
386633816,-2.09206,-1.43968,-2.79773
386656984,-2.08506,-1.44106,-2.80466
386671271,-2.07651,-1.44186,-2.81257
386701999,-2.07066,-1.44326,-2.81901
386716965,-2.0646,-1.44371,-2.82486
386731304,-2.06111,-1.44417,-2.82813
386753815,-2.05972,-1.44433,-2.82901
386784547,-2.05876,-1.44388,-2.82954
386798014,-2.05876,-1.44388,-2.82954
386813874,-2.05849,-1.4443,-2.83028
386836982,-2.06061,-1.44342,-2.82791
386858003,-2.06058,-1.44281,-2.82738
386874317,-2.06005,-1.44204,-2.82659
386896971,-2.06215,-1.44248,-2.82368
386918010,-2.06546,-1.44223,-2.81909
386933800,-2.06839,-1.4426,-2.81636
386957026,-2.06988,-1.44337,-2.81464
386978007,-2.06604,-1.44314,-2.81684
386993788,-2.0591,-1.44526,-2.82483
387017021,-2.04659,-1.44674,-2.83689
387038019,-2.03707,-1.44879,-2.84665
387053770,-2.02846,-1.45048,-2.85498
387076326,-2.021,-1.4518,-2.86192
387098026,-2.0125,-1.45386,-2.87106
387113774,-2.0051,-1.45574,-2.87866
387136354,-2.0004,-1.45772,-2.88386
387158027,-1.99658,-1.45916,-2.88777
387173810,-1.98831,-1.46072,-2.89575
387196316,-1.98196,-1.46313,-2.90208
387218069,-1.98189,-1.46491,-2.90134
387233840,-1.98601,-1.46581,-2.89691
387256319,-1.98634,-1.46766,-2.89679
387279549,-1.98739,-1.46876,-2.89473
387293800,-1.99271,-1.47096,-2.88943
387316331,-1.99696,-1.472,-2.88363
387339549,-2.00574,-1.47462,-2.87596
387353853,-2.00606,-1.47563,-2.87409
387376384,-2.0026,-1.47669,-2.87488
387389941,-2.01038,-1.47898,-2.86621
387413098,-2.01369,-1.48204,-2.86545
387427421,-2.00683,-1.48446,-2.8751
387449865,-1.96804,-1.48627,-2.91518
387472978,-1.94134,-1.48897,-2.93988
387487402,-1.92831,-1.49127,-2.95103
387511295,-1.92428,-1.49399,-2.95378
387533073,-1.92051,-1.49741,-2.95686
387547370,-1.91216,-1.50045,-2.96286
387569855,-1.90845,-1.50431,-2.96451
387593023,-1.91997,-1.50578,-2.94983
387607402,-1.94303,-1.50614,-2.92504
387629897,-1.95506,-1.50779,-2.9149
387653079,-1.96698,-1.50672,-2.90189
387667388,-1.97052,-1.50543,-2.89628
387689886,-1.97562,-1.50456,-2.8897
387713134,-1.98877,-1.50423,-2.8754
387728900,-2.00281,-1.50533,-2.86127
387750127,-2.02188,-1.50451,-2.84095
387773267,-2.03323,-1.50214,-2.82957
387787565,-2.03183,-1.49761,-2.83153
387810094,-2.02842,-1.49498,-2.83847
387833259,-2.02137,-1.49454,-2.85012
387847497,-1.99588,-1.49394,-2.87593
387870013,-1.97925,-1.49387,-2.88928
387901423,-1.96655,-1.49318,-2.89915
387907596,-1.95646,-1.49097,-2.90745
387930146,-1.96169,-1.48968,-2.90178
387953234,-1.9724,-1.48908,-2.89061
387967600,-1.98892,-1.4876,-2.87165
387990119,-2.00611,-1.4861,-2.85326
388021422,-2.01849,-1.48336,-2.84078
388027627,-2.02747,-1.48078,-2.83415
388050075,-2.03311,-1.4785,-2.83246
388073257,-2.02863,-1.4756,-2.83892
388087539,-2.02511,-1.4718,-2.84249
388109913,-2.02023,-1.46854,-2.84943
388133234,-2.02051,-1.46389,-2.85098
388147642,-2.02379,-1.46031,-2.84982
388170047,-2.03133,-1.45625,-2.84349
388193241,-2.04196,-1.45242,-2.83309
388215785,-2.049,-1.44968,-2.82569
388230069,-2.05644,-1.44609,-2.81611
388252604,-2.06622,-1.44238,-2.80481
388267547,-2.07366,-1.43853,-2.7972
388290104,-2.07866,-1.43543,-2.79245
388312436,-2.08314,-1.43202,-2.78864
388327492,-2.08207,-1.42943,-2.78987
388350139,-2.07248,-1.42836,-2.79928
388372624,-2.06635,-1.4276,-2.80433
388387592,-2.06948,-1.42628,-2.79887
388410092,-2.07888,-1.42408,-2.78654
388432544,-2.08902,-1.42238,-2.77521
388447687,-2.09398,-1.41944,-2.76912
388469982,-2.09625,-1.41702,-2.7665
388492560,-2.09439,-1.41456,-2.7681
388507595,-2.09431,-1.41215,-2.76893
388530139,-2.09199,-1.40998,-2.77176
388552653,-2.08597,-1.40961,-2.77823
388567615,-2.07966,-1.40904,-2.78342
388590087,-2.08041,-1.40746,-2.78045
388612581,-2.08682,-1.40563,-2.77318
388627498,-2.09463,-1.40365,-2.76575
388649955,-2.1002,-1.40181,-2.76093
388672580,-2.10151,-1.39923,-2.75903
388687568,-2.09958,-1.39759,-2.76125
388709888,-2.09742,-1.39582,-2.76413
388732373,-2.09447,-1.39461,-2.76765
388747436,-2.09257,-1.39403,-2.77057
388769888,-2.09067,-1.39337,-2.77206
388792377,-2.09169,-1.39283,-2.77096
388807419,-2.09495,-1.39225,-2.76819
388829895,-2.09612,-1.39128,-2.76734
388852386,-2.09788,-1.39105,-2.76635
388867405,-2.09788,-1.39105,-2.76635
388889899,-2.0972,-1.39073,-2.76673
388912398,-2.09815,-1.39085,-2.76637
388927424,-2.09871,-1.39106,-2.76629
388949906,-2.09978,-1.39138,-2.76558
388972388,-2.1012,-1.39181,-2.76463
388988926,-2.10162,-1.39242,-2.76418
389010114,-2.10304,-1.39276,-2.7618
389032666,-2.10597,-1.39316,-2.75834
389048953,-2.10972,-1.39368,-2.75492
389070078,-2.11061,-1.39389,-2.75401
389092465,-2.11165,-1.39471,-2.75344
389108978,-2.11179,-1.3951,-2.75308
389130112,-2.11371,-1.39565,-2.75095
389152616,-2.11371,-1.39565,-2.75095
389168893,-2.11371,-1.39565,-2.75095
389190153,-2.11371,-1.39565,-2.75095
389212590,-2.11371,-1.39565,-2.75095
389228946,-2.11387,-1.39607,-2.75126
389249964,-2.11387,-1.39607,-2.75126
389272537,-2.11387,-1.39607,-2.75126
389288993,-2.11387,-1.39607,-2.75126
389310125,-2.11387,-1.39607,-2.75126
389332615,-2.11387,-1.39607,-2.75126
389348949,-2.11484,-1.39597,-2.75019
389370124,-2.11591,-1.39642,-2.74955
389392641,-2.11591,-1.39642,-2.74955
389408945,-2.11591,-1.39642,-2.74955
389430131,-2.11537,-1.39608,-2.74952
389452474,-2.11553,-1.3965,-2.74983
389468922,-2.11553,-1.3965,-2.74983
389490124,-2.11553,-1.3965,-2.74983
389512506,-2.11553,-1.3965,-2.74983
389528904,-2.11499,-1.39617,-2.74979
389550090,-2.11515,-1.39658,-2.7501
389572669,-2.11586,-1.39692,-2.74972
389588999,-2.11607,-1.39661,-2.74915
389610054,-2.11607,-1.39661,-2.74915
389632685,-2.11607,-1.39661,-2.74915
389648963,-2.11607,-1.39661,-2.74915
389670128,-2.11607,-1.39661,-2.74915
389692656,-2.11607,-1.39661,-2.74915
389708899,-2.11607,-1.39661,-2.74915
389730164,-2.11607,-1.39661,-2.74915
389752611,-2.11677,-1.39695,-2.74877
389768941,-2.11677,-1.39695,-2.74877
389790115,-2.11677,-1.39695,-2.74877
389812624,-2.11699,-1.39664,-2.7482
389828975,-2.11699,-1.39664,-2.7482
389850015,-2.11878,-1.39681,-2.74642
389872544,-2.11878,-1.39681,-2.74642
389888970,-2.11824,-1.39648,-2.74639
389911411,-2.11824,-1.39648,-2.74639
389932613,-2.1191,-1.39723,-2.74631
389948942,-2.11932,-1.39692,-2.74574
389971400,-2.11932,-1.39692,-2.74574
389992660,-2.11932,-1.39692,-2.74574
390008878,-2.11932,-1.39692,-2.74574
390031384,-2.11932,-1.39692,-2.74574
390052588,-2.11932,-1.39692,-2.74574
390068970,-2.12019,-1.39665,-2.74419
390091470,-2.12144,-1.3963,-2.74237
390112648,-2.12305,-1.39587,-2.74028
390128940,-2.12518,-1.39577,-2.73825
390151417,-2.12788,-1.39487,-2.73467
390175426,-2.12998,-1.39417,-2.73194
390188949,-2.13191,-1.39325,-2.72892
390211505,-2.13344,-1.39263,-2.72691
390232658,-2.13443,-1.3921,-2.72559
390248985,-2.13512,-1.39243,-2.72522
390271470,-2.13512,-1.39243,-2.72522
390292683,-2.13518,-1.39172,-2.72436
390308890,-2.13518,-1.39172,-2.72436
390331396,-2.13459,-1.3926,-2.72529
390352594,-2.13313,-1.39324,-2.72643
390368988,-2.13332,-1.39393,-2.72611
390391418,-2.13239,-1.39509,-2.72731
390412502,-2.13094,-1.39592,-2.72846
390428952,-2.13164,-1.39704,-2.7276
390451476,-2.13199,-1.39824,-2.727
390472684,-2.13178,-1.39934,-2.72709
390488904,-2.13121,-1.40053,-2.72746
390511458,-2.13195,-1.40166,-2.72658
390532534,-2.13215,-1.40288,-2.72641
390548926,-2.13141,-1.40427,-2.72722
390571447,-2.13128,-1.40525,-2.72717
390592522,-2.13172,-1.40668,-2.72654
390609033,-2.13201,-1.40778,-2.72619
390631521,-2.13323,-1.40905,-2.72499
390652633,-2.13591,-1.41046,-2.72244
390669004,-2.13799,-1.41177,-2.72063
390691485,-2.13957,-1.41225,-2.71792
390712622,-2.14314,-1.41339,-2.71406
390729012,-2.14657,-1.41508,-2.71077
390751462,-2.14821,-1.41638,-2.70893
390772642,-2.15056,-1.41815,-2.70643
390788959,-2.1524,-1.41918,-2.70363
390811458,-2.15476,-1.42172,-2.7016
390832623,-2.15738,-1.42372,-2.69889
390848952,-2.15838,-1.42493,-2.69701
390879056,-2.16092,-1.42646,-2.69383
390893938,-2.16136,-1.42787,-2.6932
390909001,-2.1633,-1.43002,-2.69166
390931441,-2.16222,-1.43178,-2.69215
390953871,-2.16311,-1.43459,-2.69147
390968908,-2.16348,-1.43606,-2.68954
390991445,-2.16298,-1.43831,-2.68869
391013428,-2.1611,-1.44112,-2.69029
391028177,-2.15652,-1.4435,-2.69456
391050767,-2.15369,-1.44647,-2.699
391073323,-2.1466,-1.44905,-2.70722
391089655,-2.13965,-1.45084,-2.71395
391110851,-2.1307,-1.45248,-2.72249
391133300,-2.12082,-1.4539,-2.73074
391149636,-2.11311,-1.45729,-2.73918
391170654,-2.105,-1.45996,-2.74822
391193235,-2.09393,-1.46306,-2.75948
391209695,-2.07699,-1.46827,-2.77735
391230880,-2.05395,-1.47381,-2.80093
391253172,-2.02538,-1.47886,-2.82899
391269585,-1.99453,-1.48416,-2.8604
391290788,-1.95554,-1.48745,-2.8975
391313229,-1.91745,-1.49179,-2.93495
391329650,-1.87398,-1.49538,-2.97693
391350786,-1.82925,-1.4994,-3.02214
391373322,-1.78291,-1.50298,-3.06877
391389631,-1.73637,-1.50606,-3.11576
391410793,-1.68414,-1.50933,3.11538
391433160,-1.63616,-1.5129,3.06754
391449581,-1.58179,-1.51549,3.01399
391470865,-1.52691,-1.51801,2.9588
391493396,-1.47092,-1.51947,2.90287
391509607,-1.4122,-1.52074,2.84404
391530783,-1.3484,-1.52074,2.78064
391553154,-1.28804,-1.52463,2.71711
391569617,-1.20271,-1.52373,2.63069
391590830,-1.12473,-1.52394,2.55172
391613314,-1.05764,-1.52264,2.48502
391629717,-0.999087,-1.5242,2.42531
391650719,-0.94964,-1.5219,2.37412
391673343,-0.91315,-1.52139,2.33591
391689695,-0.873546,-1.51933,2.29565
391710898,-0.83593,-1.51688,2.25755
391733383,-0.82143,-1.51617,2.24308
391749635,-0.797586,-1.51507,2.21812
391770829,-0.792077,-1.5161,2.2116
391800703,-0.786453,-1.51195,2.2058
391808962,-0.779596,-1.51221,2.19857
391830806,-0.763088,-1.51119,2.18086
391853347,-0.760866,-1.50901,2.17886
391869048,-0.760777,-1.50809,2.18082
391890875,-0.775324,-1.50863,2.19628
391913284,-0.797963,-1.50603,2.21865
391928971,-0.814113,-1.50519,2.23414
391950786,-0.831327,-1.50251,2.25048
391973378,-0.855402,-1.50077,2.27515
391989038,-0.870969,-1.49998,2.29107
392012169,-0.900367,-1.49798,2.31944
392033189,-0.942055,-1.49805,2.3604
392049008,-0.977821,-1.49723,2.39488
392072086,-0.937205,-1.49442,2.35327
392093259,-0.960026,-1.49029,2.38111
392109094,-0.978217,-1.48972,2.40627
392132214,-1.00033,-1.48972,2.42931
392153368,-1.01806,-1.48835,2.4457
392168985,-1.0172,-1.48574,2.44584
392192136,-1.01197,-1.48478,2.44261
392213341,-1.00339,-1.48354,2.43476
392228974,-1.00167,-1.48162,2.43287
392252210,-1.00945,-1.48108,2.43962
392273315,-1.01768,-1.47909,2.4472
392289013,-1.02559,-1.47861,2.45468
392312177,-1.04358,-1.47745,2.47337
392333271,-1.07382,-1.47656,2.50531
392348925,-1.11074,-1.47618,2.54225
392372128,-1.1467,-1.47515,2.57779
392393384,-1.18386,-1.47361,2.61528
392409034,-1.22415,-1.47196,2.65624
392432200,-1.2671,-1.47081,2.69869
392453391,-1.31198,-1.469,2.74291
392468993,-1.35765,-1.46845,2.78699
392492121,-1.36718,-1.46806,2.79456
392513385,-1.39312,-1.46495,2.82183
392529053,-1.4223,-1.46453,2.85455
392552211,-1.45445,-1.46297,2.88673
392573378,-1.47878,-1.46052,2.90992
392589040,-1.49769,-1.4595,2.92805
392612142,-1.51237,-1.45801,2.94253
392633195,-1.52772,-1.45739,2.95713
392648984,-1.54455,-1.45601,2.97407
392672212,-1.55981,-1.45409,2.98996
392693373,-1.5835,-1.45204,3.01487
392708962,-1.60995,-1.45033,3.04183
392732210,-1.63509,-1.4486,3.06596
392753322,-1.65282,-1.44601,3.08414
392769092,-1.67324,-1.44491,3.10452
392791611,-1.69066,-1.44316,3.12235
392813418,-1.70518,-1.4421,3.13733
392829010,-1.71571,-1.44129,-3.13462
392851486,-1.72021,-1.43989,-3.12941
392873370,-1.72449,-1.43927,-3.12431
392889022,-1.73207,-1.43797,-3.11505
392911518,-1.74505,-1.43657,-3.10172
392933241,-1.75916,-1.43533,-3.08833
392949035,-1.77385,-1.43362,-3.07405
392971517,-1.78708,-1.43085,-3.06029
393000810,-1.79965,-1.42886,-3.04752
393008974,-1.80918,-1.42681,-3.03695
393039621,-1.81879,-1.42501,-3.02583
393054700,-1.83059,-1.42311,-3.01314
393069072,-1.84319,-1.42179,-3.00025
393091595,-1.8527,-1.42067,-2.9909
393114695,-1.86189,-1.41984,-2.98229
393128987,-1.86621,-1.41908,-2.97871
393151457,-1.87018,-1.41863,-2.97573
393174655,-1.87567,-1.41771,-2.96953
393189041,-1.88098,-1.41633,-2.96327
393211507,-1.88804,-1.41585,-2.95604
393234655,-1.8971,-1.41555,-2.94708
393248989,-1.90864,-1.4149,-2.93576
393271539,-1.92008,-1.41387,-2.92492
393294703,-1.93056,-1.41251,-2.91472
393308967,-1.9402,-1.41157,-2.9054
393331507,-1.94924,-1.41035,-2.89648
393354590,-1.95908,-1.40953,-2.8866
393368940,-1.96859,-1.40923,-2.87697
393391417,-1.97558,-1.40892,-2.8701
393414606,-1.98112,-1.40816,-2.86417
393428968,-1.98621,-1.40834,-2.86007
393451519,-1.9872,-1.4077,-2.85904
393474594,-1.98702,-1.40803,-2.85959
393495701,-1.98992,-1.40823,-2.85718
393511418,-1.99011,-1.40819,-2.857
393534565,-1.99011,-1.40819,-2.857
393555728,-1.99024,-1.40863,-2.85735
393571545,-1.99333,-1.4085,-2.85438
393594775,-1.99613,-1.40841,-2.85194
393615875,-2.00016,-1.40846,-2.84833
393631561,-2.00405,-1.40807,-2.84438
393654735,-2.00585,-1.4075,-2.84223
393675874,-2.00758,-1.40728,-2.8403
393691507,-2.01102,-1.40774,-2.83731
393714083,-2.01102,-1.40774,-2.83731
393735753,-2.01052,-1.40782,-2.83771
393751621,-2.01052,-1.40782,-2.83771
393774030,-2.01176,-1.40859,-2.83706
393795888,-2.01135,-1.40825,-2.83638
393811551,-2.01054,-1.40919,-2.83736
393834023,-2.00867,-1.40995,-2.83934
393855893,-2.00551,-1.41057,-2.84255
393871606,-2.0056,-1.41112,-2.84185
393894014,-2.0056,-1.41112,-2.84185
393917212,-2.0056,-1.41112,-2.84185
393931498,-2.00574,-1.41157,-2.84221
393953972,-2.00509,-1.4112,-2.84227
393977217,-2.00509,-1.4112,-2.84227
393991616,-2.00417,-1.41151,-2.84311
394014034,-2.00352,-1.41115,-2.84317
394037175,-2.00564,-1.41147,-2.84169
394051443,-2.00759,-1.41091,-2.83914
394073987,-2.01164,-1.41066,-2.83513
394097146,-2.01762,-1.41024,-2.82986
394111617,-2.0233,-1.40873,-2.82413
394134019,-2.03082,-1.40759,-2.81697
394157192,-2.03962,-1.40592,-2.80835
394171557,-2.04472,-1.40474,-2.80388
394194035,-2.04913,-1.4037,-2.79973
394217214,-2.05481,-1.40271,-2.79352
394231676,-2.05215,-1.40416,-2.79432
394254047,-1.95061,-1.42058,-2.86421
394277259,-1.87626,-1.42815,-2.91496
394298416,-1.83537,-1.43192,-2.94184
394314004,-1.83182,-1.43122,-2.94045
394337155,-1.83818,-1.42895,-2.93399
394358438,-1.84701,-1.42526,-2.92677
394374041,-1.85701,-1.42039,-2.91761
394397297,-1.86578,-1.41618,-2.90971
394418353,-1.87372,-1.41196,-2.90062
394433966,-1.87718,-1.40885,-2.89574
394457204,-1.88248,-1.4035,-2.88846
394478399,-1.89745,-1.3978,-2.87214
394494089,-1.91629,-1.39174,-2.85368
394517233,-1.93478,-1.38358,-2.83635
394538410,-1.95832,-1.37261,-2.81684
394554048,-1.99367,-1.35867,-2.78522
394577204,-2.01517,-1.34338,-2.76403
394598285,-2.0144,-1.33008,-2.76279
394613348,-2.01551,-1.31753,-2.76195
394627696,-2.04262,-1.30785,-2.74078
394650105,-2.05782,-1.2957,-2.73202
394673417,-2.05659,-1.28908,-2.73646
394687757,-2.04547,-1.28922,-2.75034
394710272,-2.02232,-1.29898,-2.77761
394733247,-1.98909,-1.31467,-2.81349
394747745,-1.95072,-1.33343,-2.85297
394770150,-1.91602,-1.35186,-2.89281
394793391,-1.87895,-1.37076,-2.93593
394807604,-1.7452,-1.39353,-3.0568
394830245,-1.62596,-1.40566,3.11702
394853397,-1.56539,-1.41045,3.04646
394867770,-1.5686,-1.41034,3.028
394890190,-1.66941,-1.40446,3.09257
394913321,-1.76829,-1.38459,-3.12208
394927797,-1.8729,-1.35769,-3.03439
394950201,-1.97761,-1.32276,-2.93552
394973340,-2.06225,-1.28366,-2.84643
394987741,-2.11695,-1.24346,-2.78296
395010102,-2.14731,-1.20582,-2.73614
395033390,-2.16295,-1.1751,-2.69722
395047732,-2.17089,-1.15588,-2.6633
395070300,-2.17988,-1.15119,-2.62927
395093364,-2.1859,-1.15884,-2.60192
395107741,-2.1847,-1.17494,-2.57912
395130231,-2.17285,-1.19677,-2.56187
395153248,-2.14614,-1.22129,-2.55261
395167588,-2.1124,-1.24538,-2.54663
395191587,-2.089,-1.26295,-2.53605
395213387,-2.08384,-1.26965,-2.52032
395227811,-2.09315,-1.27589,-2.50101
395259095,-2.12838,-1.28115,-2.46521
395273462,-2.1602,-1.30346,-2.43501
395287748,-2.19067,-1.31,-2.41533
395310084,-2.21197,-1.30846,-2.39088
395333298,-2.19949,-1.28474,-2.37466
395347773,-2.17558,-1.26446,-2.35797
395370136,-2.04746,-1.26254,-2.45598
395393298,-2.03129,-1.25462,-2.47456
395407601,-2.0587,-1.22937,-2.44202
395430178,-2.16101,-1.19799,-2.34616
395453386,-2.19114,-1.16453,-2.31994
395467652,-2.1799,-1.16169,-2.3309
395490239,-2.16875,-1.17339,-2.34689
395513448,-2.15699,-1.19315,-2.36058
395527768,-2.1362,-1.21208,-2.37167
395550249,-2.12425,-1.23476,-2.36628
395573390,-2.12526,-1.26863,-2.3595
395587819,-2.06774,-1.31395,-2.39355
395610175,-2.04469,-1.32061,-2.41922
395633287,-2.05741,-1.30527,-2.42289
395647652,-2.094,-1.26785,-2.39287
395670248,-2.16966,-1.22351,-2.32207
395693095,-2.25321,-1.16768,-2.24804
395707740,-2.31769,-1.10533,-2.18473
395730210,-2.3564,-1.04172,-2.13313
395753378,-2.37074,-0.984378,-2.08876
395767745,-2.36861,-0.93704,-2.05207
395790239,-2.36412,-0.907159,-2.02068
395812693,-2.3504,-0.899895,-2.00499
395827742,-2.34288,-0.918503,-2.00374
395850251,-2.33992,-0.96185,-2.02048
395872766,-2.32712,-1.02412,-2.0545
395895816,-2.28561,-1.09776,-2.1108
395910157,-2.19116,-1.17409,-2.20123
395932744,-2.03085,-1.24062,-2.33385
395947793,-1.86035,-1.28985,-2.48159
395970212,-1.69659,-1.32291,-2.6088
395992675,-1.63821,-1.34196,-2.63665
396007730,-1.66755,-1.35857,-2.57825
396030313,-1.67255,-1.37228,-2.5297
396052775,-1.68367,-1.34842,-2.45366
396067655,-1.6409,-1.32966,-2.42209
396091581,-1.68947,-1.32615,-2.38529
396112646,-1.79536,-1.28854,-2.30996
396127741,-1.78048,-1.27377,-2.31381
396150252,-1.78119,-1.26018,-2.33344
396172687,-1.78341,-1.25913,-2.34423
396187688,-1.73655,-1.28646,-2.38563
396210266,-1.63936,-1.3243,-2.48404
396232797,-1.47647,-1.36439,-2.66822
396247802,-1.22722,-1.39797,-2.9521
396270229,-0.945814,-1.41019,3.01948
396292727,-0.95381,-1.41285,2.97643
396307833,-1.27761,-1.39292,-3.0178
396330305,-1.60085,-1.36909,-2.73502
396352763,-1.90988,-1.31636,-2.46278
396377296,-2.1326,-1.24921,-2.26687
396390107,-2.28501,-1.17354,-2.14322
396412730,-2.37974,-1.09697,-2.06929
396427783,-2.43629,-1.02531,-2.0237
396450206,-2.46505,-0.965353,-1.99224
396472669,-2.46878,-0.915853,-1.97717
396487659,-2.43937,-0.879239,-1.9821
396510173,-2.39273,-0.863787,-1.99504
396532814,-2.33984,-0.876822,-2.00919
396549059,-2.27864,-0.916936,-2.04135
396570271,-2.2126,-0.979387,-2.09411
396592785,-2.13216,-1.0569,-2.16578
396609105,-2.04728,-1.13771,-2.25687
396630239,-1.95354,-1.20761,-2.36209
396652650,-1.87968,-1.26142,-2.45476
396669166,-1.80462,-1.30435,-2.55063
396690226,-1.82786,-1.31907,-2.53982
396712759,-1.91213,-1.31058,-2.45674
396729128,-1.91862,-1.32808,-2.42259
396750250,-1.89969,-1.32614,-2.39681
396772769,-1.85503,-1.29568,-2.39818
396796606,-1.75845,-1.26372,-2.4812
396818275,-1.74661,-1.24953,-2.52607
396832740,-1.7655,-1.2414,-2.55448
396849067,-1.7499,-1.25565,-2.58314
396870277,-1.66707,-1.27538,-2.64825
396892692,-1.55763,-1.30641,-2.74709
396909118,-1.47818,-1.33443,-2.85299
396930321,-1.37764,-1.35618,-2.97489
396952837,-1.25401,-1.37529,-3.10774
396969121,-1.26637,-1.38803,-3.10876
396990266,-1.47264,-1.38482,-2.93026
397012792,-1.74264,-1.36693,-2.67145
397029046,-2.00184,-1.33301,-2.41555
397050254,-2.20111,-1.28197,-2.21729
397072611,-2.34526,-1.22575,-2.07085
397089110,-2.45448,-1.17166,-1.96215
397110284,-2.5179,-1.1305,-1.88866
397132798,-2.54671,-1.09667,-1.83879
397149137,-2.54063,-1.07666,-1.80493
397170264,-2.51208,-1.07233,-1.7834
397192843,-2.4659,-1.08598,-1.77717
397209098,-2.39643,-1.12093,-1.78734
397230282,-2.31398,-1.1731,-1.81538
397252710,-2.19432,-1.23375,-1.87471
397269101,-2.04621,-1.29236,-1.96666
397290271,-1.88691,-1.33707,-2.07585
397312786,-1.72854,-1.37465,-2.19111
397329015,-1.59163,-1.39762,-2.27992
397350286,-1.5666,-1.4107,-2.2663
397372752,-1.56091,-1.42984,-2.2476
397389164,-1.40062,-1.44436,-2.38507
397410313,-1.27415,-1.44813,-2.48022
397432775,-1.48387,-1.42065,-2.24158
397449078,-1.54103,-1.40439,-2.10751
397478277,-1.59984,-1.38283,-2.01474
397492731,-1.66893,-1.35259,-1.95002
397509115,-1.64261,-1.33142,-1.98486
397531560,-1.55615,-1.33404,-2.06698
397560972,-1.49444,-1.35639,-2.12211
397569070,-1.42247,-1.38523,-2.1919
397591616,-1.32757,-1.41218,-2.29027
397612810,-1.18438,-1.43426,-2.43796
397629083,-1.06052,-1.44771,-2.56101
397651555,-1.12882,-1.4477,-2.5139
397672759,-1.37105,-1.42052,-2.30397
397689127,-1.61629,-1.38196,-2.08802
397711584,-1.8531,-1.32979,-1.8911
397732775,-2.02111,-1.26486,-1.76871
397749119,-2.12387,-1.19235,-1.69258
397771654,-2.17584,-1.12283,-1.64903
397792770,-2.20055,-1.05988,-1.62437
397809145,-2.21514,-1.00729,-1.61102
397831629,-2.22395,-0.970169,-1.60426
397852795,-2.21948,-0.95325,-1.60914
397869112,-2.19707,-0.959068,-1.62711
397891645,-2.1677,-0.991709,-1.65153
397912775,-2.12905,-1.04218,-1.69456
397929092,-2.07172,-1.10312,-1.75576
397951610,-1.99689,-1.17017,-1.82889
397972851,-1.92303,-1.22914,-1.89818
397989029,-1.85665,-1.27955,-1.94282
398011588,-1.82799,-1.31032,-1.93231
398032659,-1.78692,-1.33138,-1.92191
398056629,-1.74091,-1.34417,-1.9281
398071684,-1.58238,-1.34998,-2.05977
398095565,-1.54401,-1.3306,-2.07546
398116575,-1.51417,-1.31404,-2.09311
398131626,-1.5242,-1.29194,-2.07558
398152804,-1.55921,-1.28387,-2.04079
398169090,-1.59935,-1.28281,-2.00557
398191660,-1.57511,-1.29572,-2.02293
398212737,-1.52378,-1.31814,-2.06812
398228318,-1.45897,-1.34642,-2.13376
398252286,-1.3772,-1.37286,-2.21709
398282270,-1.30995,-1.39684,-2.29112
398288367,-1.2797,-1.41444,-2.31847
398310759,-1.31859,-1.41506,-2.28593
398333287,-1.47635,-1.39189,-2.13225
398348348,-1.65325,-1.35748,-1.94812
398370972,-1.80686,-1.32405,-1.78727
398393128,-1.94606,-1.28299,-1.65957
398411181,-2.04839,-1.23994,-1.56889
398430965,-2.1141,-1.19651,-1.50245
398453364,-2.14507,-1.1574,-1.45491
398468503,-2.14004,-1.12216,-1.42378
398490784,-2.1198,-1.10189,-1.39688
398513290,-2.09191,-1.09797,-1.38223
398528466,-2.05555,-1.11361,-1.38643
398550812,-1.99051,-1.15218,-1.41767
398573340,-1.89075,-1.20445,-1.48603
398588258,-1.75728,-1.25797,-1.59091
398610898,-1.62173,-1.29889,-1.71141
398633314,-1.57777,-1.31463,-1.73307
398649734,-1.51274,-1.33408,-1.7609
398672371,-1.50844,-1.35644,-1.73705
398693446,-1.47298,-1.37788,-1.75487
398709816,-1.30315,-1.39262,-1.91208
398730836,-1.30993,-1.38981,-1.90859
398753438,-1.46378,-1.36151,-1.73707
398769742,-1.48614,-1.34653,-1.66139
398790837,-1.50028,-1.32404,-1.6294
398813473,-1.52359,-1.2995,-1.61546
398829730,-1.52094,-1.29374,-1.624
398850994,-1.49328,-1.3032,-1.6498
398873394,-1.43067,-1.32113,-1.70035
398889793,-1.3288,-1.34737,-1.79815
398911031,-1.20447,-1.37083,-1.93293
398933549,-1.07116,-1.39477,-2.08678
398949835,-0.879993,-1.40608,-2.29937
398971018,-0.747374,-1.41281,-2.4621
398993319,-0.861048,-1.41969,-2.39229
399009803,-1.10328,-1.42505,-2.16363
399030969,-1.47691,-1.41378,-1.77778
399053526,-1.80461,-1.38307,-1.44369
399069879,-2.03118,-1.33405,-1.22025
399090930,-2.15213,-1.27921,-1.09167
399113336,-2.20609,-1.22634,-1.0093
399129791,-2.23135,-1.18051,-0.950585
399152395,-2.23478,-1.14682,-0.90118
399173471,-2.23104,-1.12615,-0.865607
399189887,-2.23784,-1.12279,-0.832787
399210948,-2.24973,-1.13998,-0.803176
399233444,-2.24469,-1.17836,-0.787198
399249797,-2.21018,-1.22908,-0.787291
399271014,-2.13577,-1.28869,-0.818679
399293540,-2.0199,-1.35125,-0.885312
399309845,-1.88375,-1.40502,-0.97926
399331042,-1.78046,-1.44545,-1.05274
399353568,-1.89413,-1.4739,-0.928141
399369123,-2.05706,-1.48679,-0.762506
399391001,-1.97243,-1.4955,-0.805157
399420970,-1.80064,-1.49248,-0.945923
399429174,-1.77256,-1.48366,-0.934421
399450858,-1.78924,-1.462,-0.888762
399481060,-1.86179,-1.44069,-0.798425
399489177,-1.87261,-1.41398,-0.77205
399510791,-1.90357,-1.40542,-0.736093
399533534,-1.89904,-1.4053,-0.738652
399549209,-1.84131,-1.42053,-0.7868
399572319,-1.73269,-1.44645,-0.894103
399600970,-1.57493,-1.47392,-1.05834
399609120,-1.30027,-1.49754,-1.34611
399632222,-0.877562,-1.50831,-1.76776
399653347,-0.645291,-1.51178,-1.99612
399669183,-1.12485,-1.51379,-1.51043
399692311,-1.76971,-1.50627,-0.844626
399713523,-2.28647,-1.46523,-0.315558
399729224,-2.50686,-1.39782,-0.0793801
399752287,-2.61673,-1.3267,0.0409054
399773261,-2.67628,-1.25673,0.106663
399789087,-2.67782,-1.19002,0.137994
399812244,-2.6392,-1.13305,0.155012
399833268,-2.57912,-1.09214,0.156067
399849104,-2.53151,-1.07344,0.144339
399872223,-2.47114,-1.0723,0.101397
399893245,-2.40938,-1.09745,0.0417331
399909043,-2.33237,-1.13661,-0.0444145
399932243,-2.23454,-1.18127,-0.163393
399953312,-2.12044,-1.22653,-0.30964
399969121,-2.02633,-1.27248,-0.450925
399992341,-1.97116,-1.32128,-0.572143
400013522,-1.93596,-1.36215,-0.664562
400029173,-1.93336,-1.38406,-0.694456
400052333,-1.84577,-1.37049,-0.747624
400073576,-1.81696,-1.36467,-0.725039
400089184,-1.8312,-1.35335,-0.645584
400112327,-1.89619,-1.35339,-0.547544
400133455,-1.92818,-1.32797,-0.519236
400149101,-1.86014,-1.30291,-0.586023
400172334,-1.77811,-1.30154,-0.660498
400193517,-1.76021,-1.31036,-0.6773
400209171,-1.75785,-1.32066,-0.675456
400232321,-1.73222,-1.34457,-0.695112
400253532,-1.67601,-1.37902,-0.759921
400269112,-1.59732,-1.41217,-0.85093
400292279,-1.4227,-1.44262,-1.02466
400313576,-1.25636,-1.46329,-1.16093
400329116,-1.38123,-1.476,-1.03268
400351665,-1.72165,-1.45837,-0.695151
400373410,-2.00136,-1.42656,-0.397376
400389151,-2.18449,-1.37639,-0.166278
400411697,-2.27064,-1.32188,-0.0516774
400433545,-2.34809,-1.26745,0.0563654
400449180,-2.40988,-1.21623,0.136418
400471652,-2.45272,-1.1728,0.196853
400494745,-2.48977,-1.13617,0.239007
400509202,-2.50169,-1.10673,0.255356
400532117,-2.49222,-1.09258,0.256802
400554887,-2.45899,-1.09473,0.244904
400576024,-2.41736,-1.11061,0.228144
400591725,-2.37758,-1.13924,0.209565
400614768,-2.33238,-1.179,0.177303
400629235,-2.26498,-1.21766,0.117061
400651610,-2.19013,-1.25251,0.0459368
400674871,-2.19104,-1.26172,0.0345533
400689185,-2.19966,-1.26929,0.019576
400718531,-2.22004,-1.29685,0.0258705
400734841,-2.24357,-1.31424,0.0216609
400749197,-2.24984,-1.29376,0.0202577
400771589,-2.23058,-1.28265,0.0370099
400794729,-2.19325,-1.26025,0.0367362
400816035,-2.10559,-1.24181,-0.0344174
400831759,-2.03154,-1.24192,-0.102844
400854847,-2.02842,-1.24037,-0.0987076
400875952,-2.1142,-1.24662,-0.00775408
400891675,-2.14095,-1.24304,0.0359538
400914764,-2.15895,-1.24999,0.0597621
400936026,-2.15245,-1.26778,0.0534171
400951715,-2.12138,-1.29251,0.0271177
400974859,-2.07132,-1.3154,-0.00893221
400996033,-2.0245,-1.33653,-0.0439723
401011729,-1.98425,-1.36096,-0.084645
401034874,-1.91959,-1.3803,-0.14775
401056055,-1.88542,-1.3921,-0.182496
401071709,-1.87518,-1.39877,-0.194816
401094843,-1.88862,-1.39815,-0.176844
401115889,-1.94381,-1.39638,-0.12107
401131654,-2.02488,-1.38964,-0.0443595
401154828,-2.14112,-1.37839,0.0648676
401175977,-2.24489,-1.36728,0.16427
401191739,-2.28649,-1.35796,0.206184
401214894,-2.3047,-1.33186,0.238444
401236007,-2.35418,-1.29047,0.297553
401251658,-2.38272,-1.25024,0.324815
401274100,-2.40513,-1.22689,0.344457
401295813,-2.41277,-1.2165,0.343381
401311594,-2.39648,-1.21264,0.32729
401334089,-2.35811,-1.21802,0.298409
401355785,-2.30727,-1.23144,0.259506
401371582,-2.25106,-1.25184,0.211863
401394231,-2.19662,-1.27583,0.158948
401416028,-2.15014,-1.30267,0.108584
401431571,-2.10818,-1.32942,0.0565912
401454112,-2.06654,-1.35354,0.00164184
401477300,-2.02249,-1.37301,-0.0543049
401491613,-1.96395,-1.38886,-0.1176
401514104,-1.87714,-1.40494,-0.198667
401537267,-1.77602,-1.42065,-0.287032
401551589,-1.64821,-1.4319,-0.397986
401574099,-1.49515,-1.44239,-0.52796
401597292,-1.31982,-1.44873,-0.674031
401611648,-1.32475,-1.44508,-0.653758
401642242,-1.43655,-1.44139,-0.526795
401657233,-1.46193,-1.44284,-0.489288
401678346,-1.35673,-1.45402,-0.596412
401694118,-1.29702,-1.44763,-0.670184
401717263,-1.23848,-1.43934,-0.731196
401738350,-1.13843,-1.43396,-0.829997
401754089,-1.05876,-1.42742,-0.919358
401777263,-0.987718,-1.41917,-1.00476
401798325,-0.940312,-1.41496,-1.06526
401814165,-0.909797,-1.41072,-1.10588
401837327,-0.869165,-1.40497,-1.14707
401850196,-0.834131,-1.39883,-1.17848
401873342,-0.807682,-1.39408,-1.20606
401887695,-0.790139,-1.38854,-1.22251
401910201,-0.768936,-1.38716,-1.24418
401933354,-0.760336,-1.3854,-1.254
401947684,-0.753458,-1.38229,-1.25903
401970856,-0.753812,-1.37874,-1.25412
401993347,-0.758097,-1.37706,-1.24423
402007685,-0.764668,-1.37525,-1.23404
402030857,-0.771624,-1.374,-1.22432
402053319,-0.78294,-1.37318,-1.21278
402067671,-0.794133,-1.37082,-1.19947
402090845,-0.797987,-1.36822,-1.19451
402113396,-0.807662,-1.36738,-1.18575
402127666,-0.814299,-1.36632,-1.18034
402150916,-0.821979,-1.36477,-1.17163
402173384,-0.826777,-1.3648,-1.1654
402187671,-0.831784,-1.36355,-1.16111
402210889,-0.825598,-1.36136,-1.16625
402233372,-0.81448,-1.36156,-1.17795
402247743,-0.805895,-1.36245,-1.18954
402270817,-0.800744,-1.36224,-1.19592
402293381,-0.800114,-1.36222,-1.19543
402307672,-0.806834,-1.36217,-1.18944
402330808,-0.814701,-1.36105,-1.18066
402353326,-0.822594,-1.36107,-1.17297
402367725,-0.840061,-1.36237,-1.15742
402390905,-0.868363,-1.36357,-1.1294
402413370,-0.873388,-1.36199,-1.12214
402427683,-0.87538,-1.35741,-1.1147
402450235,-0.872069,-1.35737,-1.11147
402473375,-0.852336,-1.35952,-1.12887
402487742,-0.830214,-1.36015,-1.15198
402510225,-0.804006,-1.35885,-1.17643
402533372,-0.783218,-1.35785,-1.19683
402547714,-0.774943,-1.35741,-1.20776
402570183,-0.787108,-1.35703,-1.19813
402593354,-0.818924,-1.35865,-1.16947
402607713,-0.80174,-1.3556,-1.19281
402630192,-0.815625,-1.34991,-1.17723
402653329,-0.805806,-1.35177,-1.1796
402667655,-0.793534,-1.35464,-1.19548
402690194,-0.781556,-1.35353,-1.20869
402713348,-0.765596,-1.35138,-1.22039
402727695,-0.758092,-1.34986,-1.22612
402750232,-0.765653,-1.34873,-1.22093
402765246,-0.793763,-1.34893,-1.19442
402787826,-0.803061,-1.34836,-1.18603
402810246,-0.830216,-1.34758,-1.15709
402825336,-0.846098,-1.3484,-1.13687
402847805,-0.853688,-1.35017,-1.12605
402870438,-0.856856,-1.35021,-1.12095
402885318,-0.858778,-1.34948,-1.11858
402907847,-0.856384,-1.34795,-1.11841
402930191,-0.856624,-1.3476,-1.11679
402945169,-0.864501,-1.34728,-1.10881
402967665,-0.87433,-1.3464,-1.09753
402990234,-0.879835,-1.34593,-1.0902
403005183,-0.887557,-1.34685,-1.08206
403027652,-0.895988,-1.34652,-1.07355
403050295,-0.901746,-1.34543,-1.06689
403065387,-0.901205,-1.34464,-1.06556
403087962,-0.898849,-1.34308,-1.06674
403110484,-0.896131,-1.34139,-1.06882
403125320,-0.892798,-1.34052,-1.07112
403147900,-0.894322,-1.34011,-1.07294
403170395,-0.896492,-1.33929,-1.07359
403186717,-0.898663,-1.33843,-1.07442
403207797,-0.901906,-1.33701,-1.07288
403230262,-0.902194,-1.33603,-1.07321
403246629,-0.901827,-1.3362,-1.07512
403267730,-0.902214,-1.3364,-1.07575
403290177,-0.902253,-1.33656,-1.07659
403306659,-0.903728,-1.33636,-1.07567
403327681,-0.905787,-1.33564,-1.0743
403350159,-0.906082,-1.33414,-1.07422
403366629,-0.905423,-1.33298,-1.07344
403387839,-0.903656,-1.332,-1.07404
403410455,-0.902402,-1.33146,-1.07663
403426738,-0.900201,-1.33021,-1.07868
403447921,-0.895373,-1.32871,-1.08345
403470288,-0.895248,-1.32627,-1.08146
403486765,-0.891306,-1.32604,-1.08319
403507974,-0.890983,-1.327,-1.08544
403530441,-0.892106,-1.32702,-1.08539
403546635,-0.893354,-1.32655,-1.08559
403567761,-0.893925,-1.32516,-1.0863
403590192,-0.895829,-1.32366,-1.08427
403612665,-0.89511,-1.32253,-1.08415
403627703,-0.895929,-1.32256,-1.08225
403650221,-0.895796,-1.32265,-1.08224
403666662,-0.898144,-1.32279,-1.08112
403687840,-0.898144,-1.32279,-1.08112
403710334,-0.897587,-1.3227,-1.08184
403726703,-0.897587,-1.3227,-1.08184
403747846,-0.895438,-1.323,-1.08406
403770283,-0.893702,-1.32299,-1.08649
403786786,-0.892468,-1.32247,-1.08781
403807864,-0.891555,-1.32201,-1.08926
403830399,-0.889416,-1.32148,-1.09161
403846794,-0.8891,-1.32101,-1.09169
403867925,-0.88641,-1.32158,-1.0949
403890436,-0.887395,-1.3213,-1.0951
403906788,-0.88923,-1.32163,-1.09433
403927919,-0.892621,-1.32137,-1.09141
403950447,-0.89719,-1.32132,-1.08808
403966750,-0.899396,-1.3203,-1.086
403989255,-0.899486,-1.32002,-1.08537
404010488,-0.902276,-1.32021,-1.08342
404026756,-0.906452,-1.32121,-1.08043
404047988,-0.906875,-1.32095,-1.08014
404070372,-0.90632,-1.32085,-1.08085
404086666,-0.906076,-1.32054,-1.07988
404115924,-0.898304,-1.32066,-1.0839
404130411,-0.880843,-1.32065,-1.09148
404152750,-0.869087,-1.32042,-1.09471
404169305,-0.865613,-1.31987,-1.0922
404190418,-0.874079,-1.32068,-1.08103
404212859,-0.898314,-1.32174,-1.05733
404229266,-0.928067,-1.32166,-1.03006
404250303,-0.939701,-1.31846,-1.01715
404272909,-0.958494,-1.31697,-0.98985
404289297,-0.981311,-1.32139,-0.961904
404310416,-1.00941,-1.32325,-0.932517
404332769,-1.03276,-1.32434,-0.904234
404349265,-1.0538,-1.3248,-0.877806
404370315,-1.07595,-1.32433,-0.852924
404392813,-1.0983,-1.32191,-0.829219
404415475,-1.10928,-1.32029,-0.813694
404430332,-1.1128,-1.31963,-0.803159
404446768,-1.11505,-1.31949,-0.795882
404469232,-1.12329,-1.31953,-0.783667
404498621,-1.13797,-1.31817,-0.766776
404506806,-1.1531,-1.31698,-0.74958
404529218,-1.15572,-1.31482,-0.744043
404550405,-1.17035,-1.31392,-0.725714
404566783,-1.18432,-1.31507,-0.712128
404589247,-1.19749,-1.31563,-0.701559
404610408,-1.20373,-1.31632,-0.696062
404626750,-1.21074,-1.31685,-0.691764
404649277,-1.21779,-1.31631,-0.687855
404670400,-1.22472,-1.31597,-0.682662
404686696,-1.23534,-1.31714,-0.675174
404715340,-1.25125,-1.31764,-0.664253
404730435,-1.27126,-1.31676,-0.645854
404746786,-1.29573,-1.31709,-0.622672
404769328,-1.32464,-1.31675,-0.596627
404790466,-1.35113,-1.31508,-0.57035
404812904,-1.38088,-1.31371,-0.538266
404829280,-1.41564,-1.31248,-0.501935
404850501,-1.45037,-1.31039,-0.465014
404872968,-1.4899,-1.30959,-0.424058
404889278,-1.53211,-1.30903,-0.383187
404910317,-1.57637,-1.3089,-0.34083
404932856,-1.61878,-1.30658,-0.301976
404949189,-1.66203,-1.30364,-0.263044
404970511,-1.70353,-1.29983,-0.226175
404992954,-1.74631,-1.29579,-0.189233
405009266,-1.79271,-1.29151,-0.148556
405030487,-1.84206,-1.28713,-0.104332
405052954,-1.89253,-1.28148,-0.0584692
405069332,-1.94538,-1.27513,-0.00968043
405091776,-2.00004,-1.26788,0.0422787
405112832,-2.05765,-1.25993,0.096474
405129311,-2.11939,-1.24947,0.152543
405151732,-2.17768,-1.23775,0.205092
405172866,-2.23956,-1.22583,0.261195
405189267,-2.30327,-1.21071,0.315366
405211760,-2.3555,-1.18342,0.361621
405232937,-2.34099,-1.16598,0.363014
405249307,-2.34741,-1.13122,0.371131
405271824,-2.37579,-1.08736,0.40178
405292982,-2.40877,-1.04261,0.434406
405309270,-2.43597,-1.00015,0.464818
405331788,-2.46724,-0.963303,0.492315
405352810,-2.48468,-0.946075,0.507133
405369299,-2.49099,-0.940129,0.521375
405391743,-2.48939,-0.945998,0.532508
405421108,-2.48253,-0.959022,0.533182
405429263,-2.46383,-0.986216,0.526133
405451776,-2.44516,-1.0274,0.515592
405473690,-2.4193,-1.07256,0.493428
405488617,-2.38493,-1.12848,0.459654
405511071,-2.33884,-1.19489,0.408489
405533600,-2.2737,-1.26977,0.328373
405548657,-2.15092,-1.34927,0.183995
405571170,-1.8524,-1.42486,-0.13582
405593531,-1.12002,-1.46165,-0.885774
405608627,-0.406054,-1.41922,-1.60655
405631180,-0.102383,-1.33569,-1.89793
405653609,0.0565524,-1.24457,-2.02314
405668545,0.164654,-1.15475,-2.09077
405691127,0.242798,-1.0735,-2.13677
405713629,0.297087,-0.994058,-2.17452
405736167,0.316388,-0.933611,-2.19996
405751079,0.310855,-0.902222,-2.21181
405773632,0.28012,-0.904047,-2.21517
405788608,0.245298,-0.928127,-2.20415
405811173,0.186034,-0.985459,-2.15305
405833670,0.163197,-1.00087,-2.09381
405848661,0.184047,-1.02519,-2.05323
405871091,0.19575,-1.07073,-2.0318
405893674,0.187155,-1.13272,-1.99705
405908615,0.194216,-1.17666,-2.00626
405931148,0.114917,-1.20164,-1.96616
405953601,0.01454,-1.22464,-1.88127
405968614,-0.0316825,-1.23762,-1.81828
405991128,-0.0836518,-1.2503,-1.7524
406013577,-0.153605,-1.26312,-1.69478
406028458,-0.252512,-1.2773,-1.61119
406051051,-0.327987,-1.29066,-1.53675
406073640,-0.396268,-1.29992,-1.46981
406088655,-0.473724,-1.30535,-1.39612
406111016,-0.542768,-1.31281,-1.32685
406133658,-0.608249,-1.32203,-1.26313
406148617,-0.669227,-1.32931,-1.20352
406171136,-0.724834,-1.33604,-1.15087
406193703,-0.780928,-1.34122,-1.09862
406209910,-0.83608,-1.34449,-1.04661
406231108,-0.895364,-1.34662,-0.990858
406253621,-0.956201,-1.34602,-0.933154
406269970,-1.01444,-1.34349,-0.877535
406291031,-1.07229,-1.33983,-0.821843
406313493,-1.12901,-1.33636,-0.767261
406329903,-1.18556,-1.33297,-0.712842
406350912,-1.23983,-1.32982,-0.660858
406373170,-1.29617,-1.32627,-0.607871
406389849,-1.35086,-1.32116,-0.555949
406410897,-1.40211,-1.31538,-0.504832
406433430,-1.45143,-1.30896,-0.452811
406449841,-1.50296,-1.30324,-0.402379
406470937,-1.55133,-1.29746,-0.357889
406493683,-1.59796,-1.29064,-0.315344
406509979,-1.65045,-1.28276,-0.266067
406530836,-1.71344,-1.27394,-0.204163
406553687,-1.78055,-1.26332,-0.136988
406569951,-1.85616,-1.2517,-0.0635776
406591113,-1.94199,-1.23925,0.0147642
406613632,-2.04116,-1.21864,0.101746
406629894,-2.13989,-1.19494,0.185811
406658588,-2.24613,-1.16998,0.266179
406673694,-2.36781,-1.13855,0.336298
406690037,-2.46084,-1.08646,0.373865
406711141,-2.49117,-1.0255,0.396615
406733427,-2.5074,-0.974065,0.42416
406749862,-2.52299,-0.930768,0.441725
406770877,-2.5374,-0.90355,0.4441
406793429,-2.5405,-0.887157,0.446592
406809885,-2.52444,-0.889204,0.445453
406830953,-2.51113,-0.881513,0.436799
406853420,-2.46884,-0.902752,0.427763
406869914,-2.43935,-0.938332,0.417765
406891058,-2.41688,-0.982094,0.401727
406915038,-2.3883,-1.03657,0.380483
406929960,-2.35191,-1.0991,0.348216
406951186,-2.29953,-1.17134,0.298474
406973505,-2.21878,-1.24801,0.215887
406989269,-2.07739,-1.3238,0.0702214
407011132,-1.81082,-1.39117,-0.202371
407033447,-1.29929,-1.43093,-0.720417
407049278,-0.66694,-1.41733,-1.35532
407070919,-0.256775,-1.35847,-1.76684
407093450,-0.0461585,-1.27924,-1.97504
407109246,0.0791576,-1.19351,-2.08882
407131198,0.158751,-1.10875,-2.15958
407153695,0.208291,-1.02962,-2.20603
407169404,0.233763,-0.962618,-2.23616
407192530,0.241221,-0.905491,-2.25713
407213674,0.228524,-0.879136,-2.26943
407229330,0.219667,-0.889765,-2.2686
407252445,0.202099,-0.949864,-2.24248
407273620,0.184744,-0.993386,-2.21558
407289378,0.178044,-1.01334,-2.18862
407312438,0.190086,-0.999892,-2.1806
407333625,0.170776,-1.02456,-2.1608
407349283,0.154434,-1.06658,-2.13405
407372437,0.154829,-1.09971,-2.11841
407393690,0.125116,-1.12774,-2.09538
407409333,0.0829863,-1.1477,-2.0519
407432524,0.0382743,-1.16213,-1.99996
407453691,0.00320189,-1.17263,-1.9517
407469366,-0.0279276,-1.1804,-1.91698
407492412,-0.076778,-1.18983,-1.87796
407513609,-0.123329,-1.20128,-1.83788
407529376,-0.174307,-1.21339,-1.7878
407552423,-0.218035,-1.22341,-1.74094
407573452,-0.267703,-1.2325,-1.69565
407589234,-0.327316,-1.2413,-1.64773
407612390,-0.384725,-1.25095,-1.60101
407633438,-0.430769,-1.263,-1.56212
407649211,-0.482731,-1.27514,-1.51994
407672478,-0.542681,-1.28607,-1.46878
407693711,-0.598966,-1.29557,-1.41673
407709339,-0.656045,-1.30428,-1.36348
407732488,-0.713975,-1.31133,-1.31046
407753653,-0.770028,-1.31681,-1.25772
407769347,-0.826125,-1.32135,-1.20297
407792458,-0.882406,-1.32425,-1.14783
407813616,-0.938885,-1.32731,-1.09164
407829362,-0.997535,-1.33186,-1.03513
407852519,-1.06016,-1.33462,-0.977439
407873540,-1.12426,-1.33513,-0.91608
407889288,-1.18662,-1.33525,-0.854103
407911808,-1.25158,-1.334,-0.789428
407933561,-1.32188,-1.33308,-0.722315
407949273,-1.39681,-1.32974,-0.650657
407971845,-1.47077,-1.32453,-0.578259
407993653,-1.54534,-1.31734,-0.503728
408009297,-1.62005,-1.30862,-0.427537
408031844,-1.69711,-1.29882,-0.348012
408053539,-1.77509,-1.28919,-0.270064
408069379,-1.85858,-1.27999,-0.191153
408091859,-1.94869,-1.2689,-0.11249
408114968,-2.03393,-1.25551,-0.0353599
408129332,-2.11878,-1.24388,0.042734
408151824,-2.21453,-1.22118,0.125672
408175011,-2.31505,-1.19513,0.203502
408189266,-2.40741,-1.16274,0.266407
408211910,-2.48269,-1.12102,0.305817
408234990,-2.52749,-1.06779,0.326573
408249330,-2.55007,-1.01533,0.347002
408271882,-2.58066,-0.972531,0.365413
408294692,-2.61,-0.938285,0.374552
408309329,-2.63355,-0.916692,0.378276
408331862,-2.66279,-0.904478,0.386712
408354948,-2.68478,-0.921251,0.397352
408376172,-2.68715,-0.924101,0.386516
408391858,-2.64592,-0.959342,0.371175
408414989,-2.6072,-1.00046,0.346496
408436126,-2.56979,-1.05202,0.32413
408451909,-2.52116,-1.11373,0.293237
408474980,-2.45963,-1.18469,0.244606
408496174,-2.37718,-1.26199,0.166116
408511852,-2.24154,-1.33972,0.0283357
408535010,-1.96898,-1.4114,-0.24711
408556070,-1.39876,-1.4548,-0.822284
408571808,-0.696317,-1.43831,-1.52392
408602471,-0.281026,-1.3808,-1.92408
408616170,-0.0633914,-1.30755,-2.11403
408631850,0.0715253,-1.23142,-2.21281
408655083,0.167177,-1.15864,-2.26893
408676188,0.233646,-1.09555,-2.29852
408691908,0.279115,-1.04405,-2.31333
408714993,0.299631,-1.00408,-2.31794
408736210,0.295136,-1.00535,-2.3115
408751829,0.255977,-1.02697,-2.28876
408775001,0.197863,-1.0643,-2.23806
408796219,0.157072,-1.09979,-2.18097
408811913,0.159559,-1.10059,-2.148
408834321,0.18098,-1.11515,-2.14843
408857569,0.152091,-1.14854,-2.11534
408871799,0.159333,-1.18178,-2.10176
408894293,0.123676,-1.20948,-2.07416
408916148,0.0694163,-1.23094,-2.01954
408931827,0.0183375,-1.24309,-1.96118
408954408,-0.0248704,-1.24685,-1.90459
408976174,-0.0648188,-1.25003,-1.85781
408991874,-0.111103,-1.25336,-1.81491
409014385,-0.15359,-1.25884,-1.77709
409037528,-0.200344,-1.26558,-1.73268
409058670,-0.243371,-1.27153,-1.68608
409074389,-0.293497,-1.2757,-1.63633
409087958,-0.349734,-1.27842,-1.5831
409111167,-0.394944,-1.28172,-1.53918
409125354,-0.425907,-1.2888,-1.50774
409148047,-0.45481,-1.2963,-1.48013
409171075,-0.48694,-1.30195,-1.4474
409185536,-0.518589,-1.30739,-1.41457
409208064,-0.554335,-1.31258,-1.38014
409231099,-0.588684,-1.3154,-1.34778
409245531,-0.62442,-1.31842,-1.31288
409267986,-0.65046,-1.32074,-1.28438
409291185,-0.678085,-1.32237,-1.2544
409305521,-0.701757,-1.32298,-1.22782
409327906,-0.725539,-1.32391,-1.20297
409351183,-0.751921,-1.32472,-1.17555
409365515,-0.774972,-1.32664,-1.15026
409387912,-0.80273,-1.32995,-1.1221
409410968,-0.835144,-1.33269,-1.09145
409425300,-0.870903,-1.33569,-1.05571
409448059,-0.9089,-1.33883,-1.01847
409471244,-0.944136,-1.34096,-0.984027
409485536,-0.984924,-1.34496,-0.945123
409516832,-1.03173,-1.34829,-0.902885
409531226,-1.08156,-1.35154,-0.854432
409545460,-1.13826,-1.35384,-0.799008
409568045,-1.19927,-1.35575,-0.739489
409591215,-1.26361,-1.35776,-0.677957
409605566,-1.33357,-1.35954,-0.611847
409628048,-1.40745,-1.36143,-0.541477
409651285,-1.48841,-1.36299,-0.464265
409665488,-1.57499,-1.36362,-0.380959
409687843,-1.67051,-1.36404,-0.289671
409711142,-1.77233,-1.36243,-0.191856
409725390,-1.87186,-1.35948,-0.0941211
409747979,-1.97064,-1.35505,0.00342298
409771091,-2.07084,-1.3481,0.100005
409785596,-2.16854,-1.33838,0.190837
409808015,-2.26398,-1.3255,0.274407
409831273,-2.3565,-1.3087,0.346473
409845579,-2.44264,-1.28862,0.403064
409867923,-2.52189,-1.2578,0.449159
409891188,-2.58219,-1.22293,0.47983
409905386,-2.58301,-1.20379,0.476882
409928034,-2.53918,-1.18976,0.460606
409951154,-2.52717,-1.16561,0.454292
409965531,-2.52332,-1.13425,0.452097
409988012,-2.51894,-1.10612,0.450208
410010629,-2.5247,-1.08774,0.455291
410025491,-2.53377,-1.08273,0.459313
410047937,-2.5384,-1.09428,0.463695
410070417,-2.54087,-1.11263,0.464832
410085468,-2.53545,-1.14276,0.459787
410107929,-2.52262,-1.17822,0.447262
410130573,-2.4975,-1.21921,0.429632
410145566,-2.4655,-1.26175,0.413848
410168075,-2.43561,-1.3073,0.398524
410190521,-2.3945,-1.35414,0.370912
410205599,-2.31725,-1.40191,0.313654
410228033,-2.15344,-1.44993,0.17982
410250585,-1.77647,-1.49076,-0.153649
410265405,-1.061,-1.5066,-0.812322
410287926,-0.436366,-1.48664,-1.36193
410310475,-0.120214,-1.45802,-1.60229
410325548,0.0378971,-1.434,-1.69473
410348004,0.103571,-1.42319,-1.71351
410370425,0.135049,-1.42519,-1.72365
410385508,-0.116749,-1.46276,-1.47123
410408091,-0.175503,-1.46363,-1.41328
410430563,-0.0731646,-1.45476,-1.52709
410445540,-0.231376,-1.4581,-1.38697
410468051,-0.274555,-1.46556,-1.33526
410490542,-0.229433,-1.47299,-1.37816
410505588,-0.244744,-1.47635,-1.37237
410528123,-0.275092,-1.47518,-1.35127
410550507,-0.323427,-1.47143,-1.30907
410565350,-0.369969,-1.46496,-1.26143
410588120,-0.39075,-1.45852,-1.23882
410610411,-0.396248,-1.45218,-1.2327
410625563,-0.388198,-1.44783,-1.24232
410649346,-0.389184,-1.44494,-1.24298
410670575,-0.40731,-1.44402,-1.22385
410685565,-0.43101,-1.44254,-1.19416
410708095,-0.465804,-1.4432,-1.15562
410730510,-0.502893,-1.44207,-1.11646
410753778,-0.546453,-1.44189,-1.07186
410768074,-0.586912,-1.44267,-1.03057
410790371,-0.616986,-1.44387,-0.998427
410806767,-0.644483,-1.4443,-0.969411
410827987,-0.673245,-1.44532,-0.941961
410850532,-0.696467,-1.44306,-0.915047
410866922,-0.713795,-1.4427,-0.894749
410888061,-0.724208,-1.44222,-0.881757
410910519,-0.729553,-1.44148,-0.876284
410926880,-0.728204,-1.44,-0.87697
410950829,-0.722768,-1.43766,-0.881192
410970447,-0.716158,-1.4354,-0.887713
410986888,-0.71134,-1.4347,-0.893861
411008015,-0.706509,-1.43283,-0.89897
411030551,-0.706635,-1.4313,-0.898514
411046936,-0.711282,-1.42987,-0.895078
411067959,-0.707201,-1.42772,-0.90045
411090525,-0.704263,-1.42562,-0.903801
411106927,-0.702344,-1.42503,-0.902449
411128022,-0.698142,-1.42616,-0.905503
411150598,-0.699732,-1.42582,-0.904567
411166888,-0.701154,-1.42551,-0.902932
411188065,-0.703425,-1.42528,-0.900032
411210581,-0.706509,-1.42479,-0.895882
411226953,-0.713383,-1.42493,-0.888819
411248061,-0.723109,-1.42553,-0.878864
411270639,-0.733125,-1.427,-0.868689
411286877,-0.746244,-1.42804,-0.856196
411307997,-0.760372,-1.42884,-0.84288
411330558,-0.77676,-1.42961,-0.825576
411346956,-0.791287,-1.43086,-0.810942
411367908,-0.807275,-1.43119,-0.793691
411390532,-0.821926,-1.43237,-0.778433
411406854,-0.836055,-1.43324,-0.763467
411428051,-0.851822,-1.43445,-0.748684
411450567,-0.861557,-1.43342,-0.737239
411466907,-0.871499,-1.43378,-0.727027
411488106,-0.877739,-1.43399,-0.720187
411510511,-0.885089,-1.43449,-0.713475
411526859,-0.885132,-1.43457,-0.713311
411548088,-0.892415,-1.43378,-0.705396
411570517,-0.899622,-1.43401,-0.699204
411586930,-0.904563,-1.43324,-0.693703
411607956,-0.909673,-1.43257,-0.688198
411630580,-0.916561,-1.43284,-0.681649
411646895,-0.924066,-1.43292,-0.673711
411668044,-0.932348,-1.43306,-0.666794
411690560,-0.939918,-1.43224,-0.659677
411706956,-0.946516,-1.43106,-0.651018
411729371,-0.953365,-1.43179,-0.644061
411750549,-0.960907,-1.43214,-0.634886
411766972,-0.967974,-1.43172,-0.624993
411789349,-0.97771,-1.43207,-0.614441
411810432,-0.98691,-1.43192,-0.603684
411826784,-0.996702,-1.43173,-0.59256
411849336,-1.00551,-1.43141,-0.582469
411870390,-1.01412,-1.43148,-0.572635
411886987,-1.02595,-1.43137,-0.559266
411909432,-1.03856,-1.4319,-0.545123
411930603,-1.04973,-1.43192,-0.532845
411946887,-1.05932,-1.43179,-0.522612
411969343,-1.06693,-1.43119,-0.513341
411990502,-1.0722,-1.43103,-0.506706
412006796,-1.07746,-1.43087,-0.500094
412029341,-1.08406,-1.43077,-0.49182
412050368,-1.09237,-1.43059,-0.48209
412066837,-1.10297,-1.43051,-0.470108
412089377,-1.11259,-1.42992,-0.459305
412110624,-1.12086,-1.42967,-0.450511
412126908,-1.12751,-1.42958,-0.442509
412149432,-1.13579,-1.42963,-0.432248
412170454,-1.14387,-1.42988,-0.42243
412186975,-1.15066,-1.4298,-0.41458
412209377,-1.15689,-1.42925,-0.406852
412230592,-1.16125,-1.42843,-0.401466
412246873,-1.16524,-1.42767,-0.396511
412269329,-1.16827,-1.42746,-0.392959
412290371,-1.17238,-1.42737,-0.388089
412306844,-1.17595,-1.42638,-0.382499
412329406,-1.18068,-1.4262,-0.377671
412350509,-1.18415,-1.42539,-0.374104
412366838,-1.18695,-1.42467,-0.370568
412389362,-1.18724,-1.42446,-0.369792
412410675,-1.18956,-1.42422,-0.367351
412426941,-1.19174,-1.42304,-0.36401
412449469,-1.19435,-1.4222,-0.360734
412470474,-1.19574,-1.42126,-0.358702
412486814,-1.19656,-1.42002,-0.356547
412509341,-1.19538,-1.41909,-0.357105
412530395,-1.19331,-1.41753,-0.356917
412546785,-1.19255,-1.41669,-0.356972
412569360,-1.19093,-1.41586,-0.357591
412590424,-1.18944,-1.41501,-0.358312
412606886,-1.18536,-1.41404,-0.362175
412629460,-1.18123,-1.41234,-0.364863
412651966,-1.17591,-1.41162,-0.369004
412667031,-1.17306,-1.4109,-0.371355
412689411,-1.16938,-1.40954,-0.375027
412711276,-1.16415,-1.40805,-0.379935
412726181,-1.15743,-1.4067,-0.385694
412748791,-1.15135,-1.40492,-0.390496
412771118,-1.1464,-1.40394,-0.395135
412787545,-1.14142,-1.40229,-0.398629
412808533,-1.13793,-1.40089,-0.401112
412831065,-1.13073,-1.39951,-0.40677
412847513,-1.1218,-1.3978,-0.414745
412868555,-1.11403,-1.39696,-0.422639
412891035,-1.10498,-1.39576,-0.431431
412907519,-1.09726,-1.39524,-0.440462
412928821,-1.08805,-1.39325,-0.450247
412951308,-1.07966,-1.39187,-0.458928
412967588,-1.0745,-1.39092,-0.464765
412988764,-1.07471,-1.38997,-0.465628
413011100,-1.07486,-1.38884,-0.465088
413027505,-1.07557,-1.38873,-0.464518
413056076,-1.07725,-1.38813,-0.463551
413071132,-1.08226,-1.38769,-0.459991
413087581,-1.08661,-1.38683,-0.455002
413108728,-1.09221,-1.38622,-0.448998
413131204,-1.09762,-1.38639,-0.443801
413163252,-1.10117,-1.38541,-0.43989
413168633,-1.10255,-1.38487,-0.438112
413191110,-1.10464,-1.38477,-0.43606
413207545,-1.10783,-1.3846,-0.433379
413228555,-1.10783,-1.3846,-0.433379
413252540,-1.10783,-1.3846,-0.433379
413267527,-1.10783,-1.3846,-0.433379
413288590,-1.10482,-1.38431,-0.43548
413320075,-1.10482,-1.38431,-0.43548
413328344,-1.10469,-1.38464,-0.436079
413348795,-1.10693,-1.38463,-0.434242
413372513,-1.10683,-1.38421,-0.433983
413387609,-1.10677,-1.3841,-0.433891
413408812,-1.10677,-1.3841,-0.433891
413431278,-1.1069,-1.38377,-0.433294
413447604,-1.10703,-1.38431,-0.432982
413468812,-1.10703,-1.38431,-0.432982
413491068,-1.10793,-1.38428,-0.43212
413507615,-1.10793,-1.38428,-0.43212
413528816,-1.10831,-1.38465,-0.432059
413551212,-1.10831,-1.38465,-0.432059
413575022,-1.1062,-1.38477,-0.433443
413588775,-1.10543,-1.38446,-0.433708
413611263,-1.10651,-1.38471,-0.433785
413626971,-1.10664,-1.38437,-0.433187
413648659,-1.10651,-1.38471,-0.433785
413671073,-1.10412,-1.38443,-0.435344
413686853,-1.10139,-1.38454,-0.437275
413708558,-1.09779,-1.38442,-0.440648
413731065,-1.09563,-1.38387,-0.442337
413746832,-1.09269,-1.38333,-0.44499
413770069,-1.08884,-1.38271,-0.448377
413791135,-1.08642,-1.38223,-0.44969
413806941,-1.08422,-1.38183,-0.450674
413830101,-1.0852,-1.38181,-0.449269
413851340,-1.0863,-1.38133,-0.447818
413866974,-1.08764,-1.38057,-0.446486
413890093,-1.08587,-1.37969,-0.447096
413911317,-1.08362,-1.37876,-0.448336
413927095,-1.08135,-1.37828,-0.449726
413950069,-1.08036,-1.37823,-0.450338
413971282,-1.07996,-1.37767,-0.45015
413986954,-1.08037,-1.37668,-0.448855
414010088,-1.07892,-1.37567,-0.449004
414031324,-1.07723,-1.37429,-0.449304
414046964,-1.07598,-1.37367,-0.44982
414070029,-1.07224,-1.37242,-0.451944
414091076,-1.06809,-1.37173,-0.455485
414106841,-1.0604,-1.37023,-0.462087
414129986,-1.05101,-1.3691,-0.470783
414151140,-1.04041,-1.36822,-0.481456
414166882,-1.03041,-1.36666,-0.491083
414190080,-1.02002,-1.36469,-0.500746
414211085,-1.01137,-1.36328,-0.509371
414226860,-1.00356,-1.36169,-0.516481
414250049,-0.997094,-1.36045,-0.52312
414271252,-0.992035,-1.35873,-0.52845
414286943,-0.985865,-1.35714,-0.534053
414310164,-0.979154,-1.35589,-0.540908
414338813,-0.971563,-1.35358,-0.547742
414346984,-0.964121,-1.3528,-0.554776
414370043,-0.958154,-1.35174,-0.560991
414391254,-0.952523,-1.35019,-0.566658
414406907,-0.947246,-1.34936,-0.5721
414430121,-0.943845,-1.34807,-0.57583
414452607,-0.940602,-1.34663,-0.578672
414466972,-0.938632,-1.3452,-0.580327
414490120,-0.936573,-1.34468,-0.582226
414512667,-0.935026,-1.34394,-0.583054
414535160,-0.935205,-1.34329,-0.582895
414549487,-0.935184,-1.3427,-0.582523
414571333,-0.934976,-1.34168,-0.582408
414586843,-0.935018,-1.34118,-0.58186
414609422,-0.934618,-1.34004,-0.581254
414631123,-0.934895,-1.33925,-0.580281
414646885,-0.935736,-1.33938,-0.579941
414669398,-0.935228,-1.33884,-0.580341
414691120,-0.934251,-1.3379,-0.581319
414706908,-0.932382,-1.33693,-0.583081
414729428,-0.930063,-1.33637,-0.585406
414752628,-0.928728,-1.33626,-0.587229
414766959,-0.929395,-1.33596,-0.587136
414789493,-0.931797,-1.33511,-0.584559
414812640,-0.932866,-1.33376,-0.582989
414827016,-0.93274,-1.33285,-0.582703
414849532,-0.932641,-1.33225,-0.582875
414872573,-0.931026,-1.33148,-0.583718
414886939,-0.929604,-1.33071,-0.584131
414909408,-0.929677,-1.33053,-0.584048
414932608,-0.930045,-1.32953,-0.583656
414947072,-0.92745,-1.32862,-0.585943
414969476,-0.925081,-1.32821,-0.587803
414992624,-0.923716,-1.32796,-0.588207
415007032,-0.920066,-1.32733,-0.59093
415029530,-0.915255,-1.32641,-0.5953
415052685,-0.907774,-1.32601,-0.601533
415066899,-0.899961,-1.32502,-0.607655
415089478,-0.894032,-1.32402,-0.611993
415112627,-0.887251,-1.3231,-0.616778
415127021,-0.883112,-1.32244,-0.619696
415149437,-0.880273,-1.32163,-0.621902
415172670,-0.878574,-1.321,-0.622285
415186953,-0.878493,-1.32005,-0.621403
415209496,-0.873473,-1.3184,-0.624115
415232431,-0.86887,-1.3169,-0.627672
415261312,-0.864625,-1.31674,-0.631986
415269436,-0.859402,-1.31617,-0.636596
415292635,-0.855048,-1.31616,-0.642023
415313771,-0.851708,-1.31567,-0.646715
415329389,-0.846855,-1.31444,-0.651464
415352618,-0.843433,-1.31426,-0.656503
415373668,-0.840336,-1.31342,-0.659912
415389455,-0.838469,-1.31357,-0.66272
415412679,-0.837085,-1.31301,-0.664421
415433876,-0.83406,-1.31264,-0.667024
415449459,-0.833387,-1.31265,-0.667687
415471973,-0.832248,-1.31251,-0.669327
415493833,-0.831283,-1.31255,-0.67032
415516198,-0.829192,-1.31236,-0.673058
415531929,-0.827927,-1.31184,-0.674731
415553840,-0.825941,-1.31169,-0.676926
415569412,-0.824379,-1.3113,-0.678818
415591976,-0.82228,-1.3118,-0.681919
415613789,-0.820984,-1.31207,-0.683858
415629461,-0.819611,-1.31222,-0.686439
415651999,-0.815769,-1.31178,-0.690753
415675186,-0.815069,-1.31193,-0.692676
415689536,-0.814714,-1.31225,-0.69353
415711944,-0.814647,-1.31251,-0.693242
415735050,-0.815744,-1.31412,-0.692959
415749387,-0.817545,-1.31519,-0.692872
415771859,-0.818214,-1.31618,-0.693785
415795009,-0.813211,-1.31726,-0.697876
415809414,-0.808577,-1.31788,-0.701877
415831914,-0.8042,-1.31814,-0.705569
415855057,-0.801013,-1.31906,-0.708904
415869384,-0.79901,-1.31948,-0.711534
415891921,-0.797233,-1.32017,-0.714371
415915034,-0.790389,-1.32067,-0.719132
415936354,-0.759812,-1.32119,-0.740401
415951982,-0.716903,-1.32126,-0.768922
415975192,-0.692708,-1.3217,-0.783773
415996282,-0.67904,-1.32328,-0.792968
416011981,-0.671033,-1.32418,-0.7987
416035137,-0.665073,-1.32498,-0.80165
416056144,-0.659845,-1.32637,-0.80351
416071905,-0.65234,-1.3278,-0.806986
416095061,-0.647828,-1.33036,-0.808975
416117562,-0.642924,-1.33182,-0.810879
416131887,-0.637726,-1.33222,-0.813467
416155197,-0.637019,-1.3343,-0.81206
416176369,-0.637998,-1.3357,-0.810452
416192002,-0.639455,-1.33724,-0.80989
416215154,-0.636514,-1.33853,-0.812405
416236263,-0.631081,-1.33997,-0.817222
416251960,-0.62713,-1.34096,-0.822116
416275168,-0.631694,-1.34223,-0.817401
416296371,-0.636962,-1.34342,-0.812862
416311960,-0.641756,-1.34403,-0.808943
416325655,-0.644103,-1.34478,-0.807228
416348591,-0.651275,-1.34639,-0.803041
416371205,-0.66532,-1.34773,-0.794044
416385471,-0.686843,-1.34938,-0.778231
416408002,-0.713587,-1.35129,-0.756909
416431123,-0.741657,-1.35325,-0.734505
416445461,-0.761912,-1.35511,-0.717826
416468037,-0.778372,-1.35696,-0.703943
416491170,-0.783306,-1.35827,-0.701158
416505578,-0.767779,-1.35879,-0.709917
416527993,-0.757629,-1.35931,-0.715144
416551202,-0.736742,-1.3589,-0.728582
416565425,-0.727024,-1.35952,-0.733566
416587970,-0.72474,-1.35996,-0.732943
416611146,-0.726117,-1.36124,-0.730243
416625482,-0.728299,-1.36262,-0.726637
416647970,-0.734632,-1.36469,-0.718698
416671150,-0.741488,-1.36624,-0.710213
416685513,-0.751005,-1.36844,-0.699844
416708036,-0.759814,-1.36957,-0.689335
416731171,-0.770645,-1.37119,-0.677877
416745543,-0.781889,-1.37309,-0.666466
416768012,-0.792724,-1.3748,-0.654956
416791169,-0.805364,-1.37677,-0.643126
416805571,-0.81667,-1.37826,-0.633444
416827935,-0.827111,-1.37915,-0.624716
416851186,-0.85477,-1.38057,-0.600929
416865486,-0.878823,-1.38163,-0.581497
416887961,-0.899084,-1.38267,-0.565
416911126,-0.913355,-1.38318,-0.55348
416925494,-0.922446,-1.38376,-0.547007
416947985,-0.931332,-1.3846,-0.541353
416971127,-0.941804,-1.38434,-0.53283
416985562,-0.949658,-1.38562,-0.527326
417008017,-0.958175,-1.38595,-0.520785
417031178,-0.965607,-1.3864,-0.513989
417045564,-0.971203,-1.38718,-0.509384
417068068,-0.97421,-1.38789,-0.506385
417091202,-0.976764,-1.38856,-0.504975
417105527,-0.976428,-1.38816,-0.504966
417127990,-0.976428,-1.38816,-0.504966
417151198,-0.975475,-1.3888,-0.50581
417165469,-0.975475,-1.3888,-0.50581
417187995,-0.97471,-1.38849,-0.506079
417211117,-0.977404,-1.38912,-0.50446
417225493,-0.97722,-1.38881,-0.504189
417248025,-0.97636,-1.38897,-0.504746
417271190,-0.974535,-1.38958,-0.506604
417285583,-0.973894,-1.38977,-0.506998
417308019,-0.973894,-1.38977,-0.506998
417331177,-0.975113,-1.39013,-0.506389
417345586,-0.977571,-1.3905,-0.504388
417368047,-0.981026,-1.3912,-0.500938
417391155,-0.986315,-1.39213,-0.496352
417405499,-0.992335,-1.39213,-0.489502
417428021,-0.99992,-1.39347,-0.482878
417450976,-1.00731,-1.3939,-0.474891
417465525,-1.01423,-1.39493,-0.468439
417488058,-1.01955,-1.39537,-0.462417
417511170,-1.02523,-1.39602,-0.456832
417525565,-1.03096,-1.39666,-0.451208
417548038,-1.03736,-1.39729,-0.444961
417570558,-1.0434,-1.39792,-0.440266
417585583,-1.04895,-1.39755,-0.434351
417607960,-1.05428,-1.39758,-0.428982
417630571,-1.06323,-1.39782,-0.419848
417645571,-1.07978,-1.39874,-0.40543
417667971,-1.10547,-1.39973,-0.38206
417690609,-1.14764,-1.40105,-0.343062
417705494,-1.21769,-1.40286,-0.276897
417727981,-1.32044,-1.40379,-0.178588
417750686,-1.45021,-1.39947,-0.0515595
417765738,-1.59032,-1.39524,0.0844437
417788216,-1.72072,-1.38362,0.205856
417810583,-1.80901,-1.3709,0.295889
417825695,-1.88563,-1.3606,0.384163
417848200,-1.95713,-1.34473,0.458496
417870742,-2.01319,-1.32574,0.525344
417885763,-2.09103,-1.30988,0.609934
417908244,-2.16755,-1.29112,0.684716
417930773,-2.2422,-1.26933,0.758832
417945775,-2.30084,-1.2467,0.814674
417968193,-2.34322,-1.22256,0.853751
417990785,-2.37735,-1.20644,0.884833
418005768,-2.39957,-1.2064,0.917406
418028236,-2.4192,-1.23208,0.963141
418050688,-2.4379,-1.26714,1.01142
418065774,-2.44856,-1.28882,1.04129
418088055,-2.4687,-1.31166,1.07915
418119470,-2.46886,-1.33764,1.10192
418125736,-2.43256,-1.36632,1.10132
418148176,-2.36437,-1.40104,1.08788
418170765,-2.17177,-1.43226,0.980115
418185698,-1.82749,-1.44805,0.757542
418208010,-1.41919,-1.43702,0.516219
418230571,-1.12246,-1.40639,0.41579
418245527,-0.92849,-1.37248,0.421871
418267987,-0.818888,-1.3513,0.47384
418290752,-0.782816,-1.35444,0.529724
418306954,-0.730675,-1.37176,0.502354
418328073,-0.80281,-1.37406,0.566784
418350728,-1.03746,-1.38521,0.790964
418367054,-1.31367,-1.38374,1.04925
418388108,-1.54263,-1.36042,1.2525
418410736,-1.64393,-1.34879,1.3313
418427041,-1.68738,-1.34276,1.34937
418448208,-1.7008,-1.33836,1.34365
418470751,-1.70503,-1.3361,1.3366
418487117,-1.70572,-1.33295,1.32865
418508285,-1.70194,-1.33023,1.31869
418530798,-1.69514,-1.32978,1.30852
418547096,-1.68749,-1.33187,1.30172
418568145,-1.6931,-1.337,1.31284
418590741,-1.71277,-1.34113,1.33774
418607076,-1.72601,-1.3441,1.35802
418628309,-1.73709,-1.34645,1.37799
418650753,-1.74426,-1.34803,1.39155
418667108,-1.74176,-1.34865,1.39373
418688084,-1.73434,-1.35038,1.38908
418710720,-1.72574,-1.35258,1.38317
418727059,-1.72038,-1.35414,1.38056
418748115,-1.72559,-1.35548,1.388
418770746,-1.73417,-1.356,1.39782
418787099,-1.73524,-1.35737,1.40006
418808036,-1.73494,-1.35659,1.40345
418830590,-1.73419,-1.35609,1.41052
418848526,-1.73351,-1.35632,1.41679
418867985,-1.73289,-1.35605,1.42012
418890557,-1.72752,-1.35631,1.41906
418906998,-1.72786,-1.35766,1.42127
418928140,-1.72684,-1.35738,1.41444
418950767,-1.7127,-1.35854,1.39346
418967099,-1.70159,-1.36031,1.37878
418988286,-1.69476,-1.36352,1.37104
419010641,-1.68812,-1.3673,1.36482
419027077,-1.68335,-1.36955,1.36306
419048190,-1.68142,-1.3725,1.36575
419070740,-1.68287,-1.37404,1.37004
419087055,-1.68236,-1.37503,1.3713
419108014,-1.68262,-1.37601,1.37087
419130575,-1.68463,-1.377,1.37158
419146991,-1.68946,-1.37867,1.37319
419168015,-1.69251,-1.37994,1.37266
419190536,-1.70371,-1.38116,1.38036
419206984,-1.71484,-1.38276,1.38854
419228259,-1.72211,-1.38328,1.39291
419250804,-1.72933,-1.38424,1.39997
419267034,-1.73876,-1.385,1.40818
419289628,-1.74652,-1.38696,1.41396
419310650,-1.75495,-1.38859,1.42179
419327040,-1.76276,-1.39207,1.42597
419357694,-1.76475,-1.39325,1.42348
419370758,-1.75679,-1.39274,1.41456
419387014,-1.75285,-1.3919,1.41279
419409512,-1.7396,-1.39308,1.40036
419430529,-1.72954,-1.39424,1.39014
419446957,-1.7246,-1.39623,1.38576
419469508,-1.71854,-1.40143,1.3817
419490515,-1.70272,-1.40711,1.36895
419506963,-1.6863,-1.4112,1.35812
419529572,-1.66288,-1.41232,1.33796
419553564,-1.63072,-1.41349,1.30862
419567156,-1.59753,-1.41483,1.27703
419589582,-1.56899,-1.41722,1.2492
419610732,-1.53936,-1.41865,1.22065
419627159,-1.5073,-1.42002,1.19019
419649566,-1.48696,-1.42036,1.17049
419670838,-1.48676,-1.42135,1.168
419687068,-1.50024,-1.42053,1.17762
419709649,-1.51752,-1.41985,1.19223
419730707,-1.53261,-1.41845,1.20496
419747092,-1.55031,-1.41707,1.22019
419769592,-1.56995,-1.41621,1.23796
419790749,-1.58717,-1.41473,1.25428
419806996,-1.5964,-1.41341,1.26368
419829611,-1.59664,-1.41333,1.26392
419850585,-1.60103,-1.41263,1.26697
419867063,-1.60538,-1.41256,1.26896
419889608,-1.61366,-1.41255,1.27354
419910782,-1.61665,-1.41038,1.27617
419927070,-1.62249,-1.4089,1.28427
419948907,-1.63242,-1.40789,1.29444
419971166,-1.64552,-1.40621,1.30576
419986476,-1.66131,-1.40464,1.31977
420008953,-1.67367,-1.40449,1.33107
420031417,-1.68336,-1.40358,1.34145
420046296,-1.70156,-1.40345,1.36071
420068977,-1.72198,-1.40412,1.38175
420091418,-1.74409,-1.40354,1.40518
420106266,-1.77146,-1.40801,1.43612
420128949,-1.77871,-1.41793,1.4608
420151409,-1.80173,-1.41752,1.49021
420166319,-1.82195,-1.41739,1.51727
420188943,-1.84697,-1.41632,1.54585
420211381,-1.87239,-1.41522,1.57361
420226442,-1.89708,-1.41394,1.59997
420248915,-1.91997,-1.41137,1.62431
420271290,-1.92888,-1.41041,1.6348
420286445,-1.93216,-1.40836,1.63928
420308752,-1.93505,-1.40836,1.64384
420331509,-1.94042,-1.40728,1.64875
420346405,-1.95447,-1.40649,1.65857
420368887,-1.96548,-1.4061,1.66678
420391445,-1.9661,-1.40595,1.66971
420407814,-1.95891,-1.40521,1.66958
420428951,-1.94962,-1.4038,1.66856
420451385,-1.94649,-1.40214,1.67191
420467812,-1.95341,-1.39917,1.68263
420488901,-1.95455,-1.39785,1.68594
420511331,-1.94836,-1.39641,1.6823
420527816,-1.95491,-1.39245,1.69306
420548934,-1.97547,-1.39015,1.71494
