timestamp,x,y,z,w
105687531,-0.123169,-0.630798,0.192871,0.741455
105711254,-0.122986,-0.630859,0.193115,0.741333
105726203,-0.122742,-0.63092,0.193298,0.741272
105747602,-0.122314,-0.630981,0.19342,0.741272
105771233,-0.121826,-0.630981,0.193359,0.741333
105786242,-0.121277,-0.631165,0.193176,0.741333
105833207,-0.121033,-0.631226,0.193176,0.741333
105834080,-0.120728,-0.631348,0.193237,0.741272
105846274,-0.120728,-0.631348,0.193237,0.741272
105868416,-0.120728,-0.631348,0.193237,0.741272
105892316,-0.121033,-0.631348,0.193237,0.741211
105905232,-0.121399,-0.631287,0.193237,0.741211
105928813,-0.121643,-0.631287,0.193115,0.741211
105958210,-0.121643,-0.631287,0.193115,0.74115
105968579,-0.121582,-0.631287,0.19342,0.74115
105988257,-0.121582,-0.631165,0.193665,0.74115
106010618,-0.121643,-0.631165,0.193726,0.74115
106025726,-0.121582,-0.631165,0.193726,0.74115
106048144,-0.121582,-0.631165,0.193726,0.74115
106070784,-0.121582,-0.631165,0.193726,0.74115
106085744,-0.121338,-0.631226,0.193726,0.74115
106108126,-0.121338,-0.631226,0.193726,0.74115
106130735,-0.121338,-0.631226,0.193726,0.74115
106145764,-0.121338,-0.631226,0.193726,0.741089
106168312,-0.121338,-0.631287,0.193726,0.741089
106190789,-0.121155,-0.631226,0.193848,0.74115
106205777,-0.12085,-0.631165,0.19397,0.741211
106228275,-0.12085,-0.631165,0.19397,0.741211
106250736,-0.12085,-0.631165,0.19397,0.741211
106265632,-0.12085,-0.631165,0.19397,0.741211
106288246,-0.12085,-0.631165,0.19397,0.741211
106310736,-0.120605,-0.631287,0.194031,0.74115
106325751,-0.120605,-0.631287,0.194031,0.74115
106348123,-0.120605,-0.631287,0.194031,0.74115
106371428,-0.120544,-0.631287,0.194031,0.74115
106385787,-0.120544,-0.631287,0.19397,0.74115
106416426,-0.1203,-0.631409,0.19397,0.741089
106430638,-0.119995,-0.631409,0.194153,0.741089
106445146,-0.11969,-0.63147,0.194214,0.741089
106468255,-0.11969,-0.631409,0.194214,0.741089
106490618,-0.119629,-0.631409,0.194214,0.741089
106504860,-0.119629,-0.631409,0.194214,0.74115
106528031,-0.119629,-0.63147,0.194153,0.741089
106550532,-0.119385,-0.631531,0.194336,0.741028
106564836,-0.119141,-0.631653,0.194519,0.740906
106588053,-0.118958,-0.631714,0.194946,0.740784
106610665,-0.11853,-0.631714,0.195496,0.740723
106625048,-0.117859,-0.631653,0.195984,0.740723
106648167,-0.116882,-0.631653,0.196228,0.740845
106670812,-0.115417,-0.631775,0.196228,0.740967
106685089,-0.113464,-0.63208,0.196106,0.741028
106708296,-0.110229,-0.632446,0.19635,0.74115
106730814,-0.106323,-0.633118,0.196289,0.74115
106745188,-0.103577,-0.633606,0.196472,0.741089
106769509,-0.0999756,-0.63385,0.197754,0.741028
106790545,-0.0970459,-0.634155,0.198669,0.740906
106804867,-0.0958252,-0.634399,0.199463,0.740662
106828095,-0.0949097,-0.634521,0.200562,0.740356
106850588,-0.0944824,-0.634705,0.201843,0.739929
106864913,-0.0938721,-0.634705,0.203186,0.739624
106888054,-0.0929565,-0.634338,0.204529,0.739685
106910571,-0.0908813,-0.633484,0.206116,0.740234
106924851,-0.0883789,-0.63324,0.207092,0.740479
106947413,-0.0866699,-0.633362,0.207703,0.740417
106969908,-0.0852661,-0.633362,0.208679,0.740234
106984886,-0.0838013,-0.63324,0.210205,0.740112
107007400,-0.0819702,-0.633057,0.211853,0.73999
107029851,-0.0806274,-0.632996,0.213196,0.739807
107044836,-0.0795898,-0.632629,0.214661,0.739868
107067508,-0.0786133,-0.631897,0.215698,0.740234
107090136,-0.0768433,-0.63147,0.216187,0.740662
107104985,-0.0744629,-0.631165,0.216248,0.74115
107127569,-0.0720215,-0.630981,0.216064,0.741577
107150022,-0.069397,-0.63092,0.215759,0.742004
107165013,-0.0673828,-0.630676,0.215576,0.742432
107187589,-0.0655518,-0.630432,0.215454,0.742859
107210110,-0.0643921,-0.629944,0.215332,0.743408
107225178,-0.062439,-0.628296,0.21521,0.744995
107247586,-0.0586548,-0.62738,0.213684,0.746521
107270096,-0.0546875,-0.627258,0.211304,0.747559
107284886,-0.0513916,-0.627136,0.209229,0.748474
107307407,-0.0481567,-0.626709,0.207886,0.749451
107329929,-0.0442505,-0.626099,0.20697,0.750488
107344932,-0.0405884,-0.625549,0.205322,0.751587
107367386,-0.0374756,-0.624695,0.203552,0.75293
107389896,-0.0343628,-0.623901,0.201782,0.754211
107405029,-0.0311279,-0.62323,0.19989,0.755371
107427495,-0.0272217,-0.622742,0.198303,0.756348
107450130,-0.022644,-0.622192,0.197021,0.757324
107465190,-0.0181885,-0.621643,0.195679,0.75824
107487628,-0.0145874,-0.621216,0.194336,0.758972
107509995,-0.0114746,-0.620789,0.193054,0.759766
107524953,-0.00817871,-0.620361,0.191895,0.760437
107547557,-0.00500488,-0.619751,0.19104,0.761169
107578814,-0.00170898,-0.618652,0.190491,0.762207
107585112,0.00177002,-0.616821,0.189453,0.763977
107607628,0.00488281,-0.614319,0.187866,0.766357
107630088,0.00756836,-0.612549,0.185791,0.76825
107645073,0.00915527,-0.611572,0.183411,0.769592
107667429,0.010498,-0.610535,0.181519,0.770813
107690045,0.0117188,-0.609436,0.180115,0.772034
107706408,0.0131226,-0.608093,0.179016,0.773254
107727474,0.0144653,-0.606873,0.177856,0.774475
107749925,0.0158081,-0.605652,0.176758,0.775635
107766336,0.0169678,-0.604675,0.175171,0.776733
107787414,0.0171509,-0.603638,0.173279,0.778015
107809895,0.0170898,-0.6026,0.171509,0.779175
107833860,0.0176392,-0.60144,0.170105,0.780396
107847415,0.0184326,-0.600098,0.168579,0.781738
107870141,0.0192261,-0.598938,0.16687,0.782959
107886435,0.0201416,-0.597778,0.165161,0.78418
107907712,0.0209351,-0.596619,0.16333,0.7854
107930038,0.0218506,-0.595459,0.161621,0.786621
107946420,0.0228271,-0.594299,0.159851,0.787842
107967625,0.0236816,-0.59314,0.157959,0.789062
107990097,0.0248413,-0.592041,0.155945,0.790283
108006441,0.0257568,-0.591064,0.153748,0.791382
108027476,0.0267334,-0.590149,0.151794,0.792419
108050150,0.027771,-0.589294,0.150024,0.793396
108066394,0.0288696,-0.58844,0.148438,0.79425
108087437,0.0305176,-0.587646,0.147034,0.795044
108109911,0.0322266,-0.586975,0.145447,0.795776
108126377,0.0340576,-0.586365,0.144165,0.796387
108147388,0.036377,-0.585876,0.142944,0.796875
108169951,0.0386963,-0.585449,0.141418,0.797363
108186353,0.0404053,-0.585083,0.139771,0.797791
108207501,0.0421753,-0.584717,0.138428,0.798218
108230097,0.0440063,-0.584412,0.137207,0.798584
108246406,0.0455322,-0.584106,0.136047,0.798889
108267613,0.0469971,-0.583923,0.135132,0.799072
108289959,0.0480347,-0.583862,0.134277,0.799194
108306423,0.0490112,-0.583923,0.133484,0.799255
108327711,0.0501099,-0.583923,0.13269,0.799316
108350008,0.0509033,-0.584045,0.131958,0.799316
108366380,0.052002,-0.584045,0.131531,0.799316
108387472,0.0530396,-0.584045,0.131226,0.799255
108409975,0.0534668,-0.584106,0.131042,0.799194
108426387,0.053894,-0.584106,0.131042,0.799194
108447460,0.0546875,-0.583984,0.131287,0.799194
108469904,0.055603,-0.583862,0.131714,0.799133
108486342,0.0562134,-0.583801,0.131775,0.799133
108507449,0.0560913,-0.583862,0.131348,0.799194
108530063,0.055481,-0.583862,0.130737,0.799316
108546481,0.0548096,-0.584045,0.130493,0.799255
108567639,0.0544434,-0.584167,0.130798,0.799133
108590109,0.0545654,-0.584229,0.13147,0.799011
108606487,0.0547485,-0.584229,0.132019,0.798889
108637154,0.0547485,-0.58429,0.132385,0.798767
108650132,0.0544434,-0.58429,0.132446,0.798767
108666503,0.053772,-0.584351,0.132141,0.798828
108688936,0.0527954,-0.584473,0.131653,0.798889
108709959,0.0516968,-0.584534,0.131287,0.799011
108726504,0.0509033,-0.584473,0.131348,0.799072
108750378,0.0505981,-0.584473,0.131714,0.799072
108770110,0.0507202,-0.584412,0.132263,0.799011
108786439,0.0507202,-0.584412,0.132568,0.79895
108808876,0.0506592,-0.584351,0.132751,0.79895
108830170,0.0505981,-0.584412,0.132629,0.79895
108846493,0.0499878,-0.584412,0.132202,0.799011
108868916,0.0493774,-0.584473,0.131958,0.799072
108890176,0.0488892,-0.584412,0.131714,0.799194
108906476,0.048584,-0.584351,0.131592,0.799255
108928998,0.048645,-0.584229,0.131836,0.799316
108949936,0.0488892,-0.584167,0.131958,0.799316
108973884,0.0488892,-0.584106,0.131958,0.799377
108988938,0.0488892,-0.584106,0.131958,0.799377
109009925,0.0488892,-0.584106,0.131958,0.799377
109026387,0.0487061,-0.584045,0.131897,0.799438
109048884,0.0485229,-0.584167,0.131775,0.799377
109078065,0.0485229,-0.584106,0.131775,0.799377
109086476,0.0485229,-0.584106,0.131775,0.799377
109108901,0.0485229,-0.584106,0.131836,0.799377
109130170,0.048645,-0.584167,0.131958,0.799316
109146450,0.048645,-0.584167,0.131958,0.799316
109168957,0.048645,-0.584167,0.131958,0.799316
109190171,0.048645,-0.584167,0.131958,0.799316
109206442,0.048645,-0.584167,0.131958,0.799316
109229057,0.0484009,-0.584167,0.131897,0.799377
109250635,0.0484009,-0.584167,0.131897,0.799377
109265700,0.0484009,-0.584106,0.131897,0.799377
109288154,0.0484009,-0.584106,0.131897,0.799377
109310609,0.0484009,-0.584106,0.131897,0.799377
109325628,0.0484009,-0.584106,0.131897,0.799377
109348149,0.0484009,-0.584106,0.131897,0.799377
109370589,0.0480957,-0.584045,0.131775,0.7995
109385619,0.0477295,-0.583984,0.131714,0.799561
109408084,0.0477295,-0.583984,0.131714,0.799561
109430585,0.0477295,-0.583984,0.131714,0.799561
109445623,0.0477295,-0.583984,0.131714,0.799561
109468272,0.0476685,-0.583984,0.131775,0.799561
109490675,0.0476685,-0.583984,0.131775,0.799561
109505566,0.0476685,-0.583984,0.131775,0.799561
109528201,0.0476685,-0.583923,0.131775,0.799622
109550764,0.0476685,-0.583923,0.131775,0.799622
109565717,0.0476685,-0.583984,0.131775,0.799561
109588390,0.0476685,-0.583984,0.131775,0.799561
109610830,0.0476685,-0.583984,0.131775,0.799561
109625786,0.0476074,-0.583984,0.131775,0.799561
109648150,0.0476074,-0.583984,0.131836,0.799561
109670643,0.0477295,-0.583923,0.13208,0.799561
109685625,0.0480347,-0.583862,0.132263,0.799561
109708143,0.0480347,-0.583923,0.132263,0.7995
109730607,0.0479126,-0.583801,0.132141,0.799622
109747062,0.0479736,-0.583801,0.132141,0.799622
109768087,0.0479126,-0.583801,0.131897,0.799683
109790719,0.0474243,-0.583801,0.131836,0.799683
109807174,0.0475464,-0.58374,0.13208,0.799744
109828422,0.0477295,-0.583801,0.132385,0.799622
109850792,0.0477295,-0.583618,0.132812,0.799622
109867153,0.0479736,-0.583435,0.132874,0.799744
109888309,0.0475464,-0.583252,0.132507,0.799988
109910867,0.0472412,-0.581848,0.132324,0.801086
109927127,0.0466919,-0.580872,0.131348,0.801941
109948173,0.0465698,-0.580627,0.130859,0.802246
109970663,0.0469971,-0.580383,0.130188,0.80249
109987058,0.0457153,-0.580078,0.128906,0.802979
110008107,0.0452271,-0.579163,0.128113,0.803772
110030608,0.0447388,-0.577698,0.12793,0.804932
110047041,0.0447388,-0.577087,0.128174,0.805359
110068120,0.0458984,-0.576843,0.128113,0.80542
110090652,0.0456543,-0.576904,0.127136,0.805542
110107098,0.0452881,-0.57666,0.126709,0.805786
110128369,0.0455322,-0.576233,0.126465,0.806152
110150746,0.0454712,-0.575989,0.12616,0.806335
110167079,0.0455322,-0.575806,0.125854,0.806519
110188203,0.0454102,-0.575745,0.125488,0.806641
110210749,0.0452881,-0.575867,0.125183,0.80658
110227145,0.0449829,-0.576355,0.124756,0.806335
110248174,0.0441895,-0.577209,0.12439,0.805847
110270617,0.043396,-0.578308,0.124573,0.805115
110287061,0.0430298,-0.57959,0.125366,0.804016
110308091,0.043335,-0.580872,0.126404,0.802917
110330586,0.0437012,-0.581909,0.126953,0.802063
110347086,0.043396,-0.582642,0.126953,0.801575
110368180,0.0426636,-0.583069,0.12677,0.801331
110384025,0.0418091,-0.583191,0.126587,0.80127
110407113,0.0410767,-0.58313,0.126526,0.801392
110428286,0.0405273,-0.582825,0.126526,0.801636
110443953,0.039978,-0.582764,0.126831,0.801697
110467171,0.039856,-0.582642,0.127319,0.801697
110495663,0.0396118,-0.582642,0.127686,0.801636
110503926,0.0396118,-0.582581,0.128235,0.801575
110526417,0.0394287,-0.582458,0.128479,0.801697
110548118,0.0386963,-0.582336,0.128601,0.801758
110563914,0.0378418,-0.582153,0.129028,0.80188
110586392,0.0376587,-0.581726,0.129883,0.802002
110608177,0.038269,-0.581482,0.130432,0.802124
110623920,0.0385132,-0.581604,0.130432,0.802002
110646443,0.0385742,-0.58197,0.130188,0.801758
110669639,0.0378418,-0.582336,0.130005,0.801575
110684041,0.0388794,-0.582642,0.130066,0.80127
110706652,0.036499,-0.584106,0.131042,0.800171
110729673,0.0374756,-0.583618,0.133484,0.80011
110743936,0.038147,-0.583557,0.133545,0.80011
110766491,0.0372925,-0.584351,0.132202,0.799744
110789658,0.0363159,-0.58551,0.13092,0.799133
110803914,0.0357056,-0.587402,0.130249,0.797913
110826512,0.0358887,-0.589844,0.129761,0.796204
110857058,0.0362549,-0.592957,0.129395,0.793884
110878111,0.0370483,-0.596741,0.129395,0.791077
110886416,0.0377197,-0.601501,0.129211,0.787415
110910039,0.0386963,-0.606934,0.128784,0.783325
110938319,0.0393066,-0.613037,0.128174,0.778564
110946653,0.0401611,-0.619568,0.128235,0.773376
110969695,0.0413818,-0.62616,0.128784,0.767822
110998268,0.0430298,-0.632874,0.129639,0.762085
111006568,0.0446777,-0.639771,0.130493,0.756104
111030897,0.0458374,-0.646606,0.13147,0.75
111050792,0.046814,-0.652649,0.132507,0.744507
111066522,0.0474243,-0.658264,0.133362,0.739319
111089640,0.0481567,-0.662903,0.134216,0.734985
111112174,0.0484619,-0.667236,0.134705,0.730957
111126628,0.0489502,-0.670959,0.135132,0.727417
111149697,0.0490112,-0.674194,0.135559,0.724365
111170853,0.0494385,-0.677002,0.135986,0.721619
111186581,0.0496216,-0.679321,0.136597,0.719299
111209632,0.0501709,-0.681091,0.137207,0.717468
111230813,0.0505371,-0.682434,0.137878,0.716064
111246510,0.0512085,-0.683044,0.138672,0.71521
111269607,0.052063,-0.682922,0.139526,0.715149
111290650,0.0529785,-0.681702,0.139954,0.716187
111306408,0.0529175,-0.680481,0.140503,0.717163
111337238,0.0531006,-0.680664,0.141235,0.716919
111350871,0.0527954,-0.681885,0.141785,0.715637
111366656,0.0523071,-0.683716,0.142517,0.713745
111389711,0.0516357,-0.685547,0.142883,0.711975
111410903,0.0511475,-0.686951,0.142883,0.710632
111426489,0.0505981,-0.688171,0.142273,0.709656
111449672,0.0494385,-0.689392,0.141235,0.70874
111470707,0.0476685,-0.690857,0.140259,0.707642
111486391,0.0458984,-0.692383,0.139832,0.70636
111517121,0.0444946,-0.69397,0.140137,0.704834
111530657,0.0435791,-0.695435,0.140198,0.70343
111546504,0.0426636,-0.696655,0.139771,0.702332
111569058,0.0411987,-0.697693,0.139343,0.701477
111590888,0.0400391,-0.698303,0.139526,0.700928
111606468,0.0393066,-0.69873,0.140259,0.700378
111637105,0.0394287,-0.699219,0.141418,0.699646
111652208,0.039978,-0.69989,0.142395,0.698792
111666638,0.0405884,-0.7005,0.143005,0.697998
111689029,0.0407104,-0.70105,0.142883,0.697449
111712200,0.0405273,-0.701538,0.142639,0.697021
111726576,0.0402832,-0.701965,0.142334,0.696655
111749047,0.0400391,-0.702271,0.142273,0.69635
111772128,0.0403442,-0.702454,0.142639,0.696106
111786530,0.0411987,-0.702698,0.142944,0.695801
111808934,0.0418701,-0.702881,0.142944,0.695496
111832085,0.0423584,-0.703125,0.143005,0.695251
111846520,0.0425415,-0.703247,0.142822,0.695129
111868979,0.0425415,-0.703369,0.142517,0.695129
111892129,0.0425415,-0.703369,0.142517,0.695129
111906610,0.0426636,-0.703369,0.142334,0.695129
111929026,0.0426636,-0.70343,0.142212,0.695068
111952141,0.0427856,-0.703247,0.142456,0.69519
111966565,0.0431519,-0.703064,0.1427,0.695312
111989074,0.0430908,-0.702881,0.142761,0.695496
112019689,0.0429077,-0.70282,0.142883,0.695557
112026628,0.0427246,-0.702759,0.142944,0.695557
112049047,0.0425415,-0.70282,0.142944,0.695557
112072002,0.0424805,-0.70282,0.142944,0.695557
112086534,0.0425415,-0.70282,0.142944,0.695557
112108933,0.0426025,-0.702881,0.143005,0.695496
112132093,0.0428467,-0.703003,0.143188,0.695312
112153119,0.0430908,-0.703125,0.143433,0.695068
112168906,0.043396,-0.703308,0.143433,0.694885
112192173,0.043457,-0.703308,0.143433,0.694885
112213366,0.0429077,-0.703491,0.142517,0.694885
112229091,0.0419312,-0.703735,0.141479,0.694946
112252244,0.0413208,-0.704041,0.141113,0.694763
112273340,0.0415039,-0.704407,0.140869,0.694458
112288960,0.0418091,-0.704773,0.140747,0.694092
112312225,0.0424194,-0.705017,0.140686,0.693787
112333202,0.0426025,-0.705383,0.14032,0.693481
112348960,0.0425415,-0.705872,0.140015,0.693054
112372112,0.0422974,-0.706543,0.139709,0.692444
112393359,0.0423584,-0.707275,0.139465,0.691711
112408975,0.0422974,-0.708008,0.139221,0.69104
112431482,0.0422974,-0.70874,0.139343,0.690247
112453386,0.0421753,-0.709595,0.139587,0.689331
112469025,0.0419312,-0.710571,0.139832,0.688293
112491483,0.041687,-0.711548,0.140442,0.687195
112513206,0.0419922,-0.712402,0.141296,0.686096
112528933,0.0427856,-0.713074,0.142029,0.685181
112551519,0.0435791,-0.713745,0.142517,0.684326
112574630,0.0443115,-0.714417,0.142883,0.683533
112588981,0.0448608,-0.715088,0.142883,0.6828
112611676,0.045105,-0.715881,0.142456,0.682007
112634677,0.0453491,-0.716614,0.141785,0.681396
112649010,0.0455322,-0.717285,0.141296,0.680786
112671570,0.0457153,-0.717773,0.141174,0.680237
112694663,0.0460815,-0.71814,0.141235,0.67981
112709102,0.0463867,-0.718506,0.141357,0.679443
112731502,0.0464478,-0.71875,0.141479,0.679077
112754655,0.0466309,-0.719055,0.141418,0.678833
112768959,0.0465088,-0.719238,0.141113,0.67865
112782567,0.0464478,-0.719238,0.141113,0.67865
112805052,0.0464478,-0.719299,0.141113,0.67865
112828434,0.0464478,-0.719299,0.141113,0.67865
112850844,0.0466309,-0.719116,0.141052,0.678772
112865132,0.0466309,-0.718933,0.140991,0.679016
112888307,0.0466919,-0.718811,0.14093,0.679199
112902608,0.0467529,-0.718567,0.140869,0.679382
112925054,0.046875,-0.718262,0.140747,0.679749
112948234,0.0471191,-0.718018,0.140686,0.679993
112962597,0.0473633,-0.717834,0.140686,0.680176
112985276,0.0476074,-0.717651,0.140808,0.680359
113008267,0.0479736,-0.717529,0.140869,0.68042
113022564,0.0482788,-0.717407,0.140869,0.680542
113045198,0.0485229,-0.717285,0.140808,0.680664
113068310,0.0485229,-0.717285,0.140747,0.680664
113090833,0.0485229,-0.717285,0.140747,0.680664
113106620,0.0487671,-0.717285,0.140991,0.680603
113128331,0.0490112,-0.717285,0.141174,0.680542
113144058,0.0492554,-0.717285,0.141357,0.680481
113165237,0.0494995,-0.717285,0.141357,0.680481
113188401,0.0496216,-0.717285,0.141235,0.680542
113202783,0.0499268,-0.717224,0.141113,0.680603
113225043,0.050354,-0.717041,0.141052,0.680725
113256478,0.0507812,-0.716919,0.141052,0.680847
113262602,0.0512695,-0.716797,0.14093,0.680969
113285230,0.0518188,-0.716614,0.140564,0.681152
113308401,0.0522461,-0.716431,0.140015,0.681396
113322600,0.0527344,-0.71637,0.139709,0.68158
113345265,0.0532837,-0.716248,0.139404,0.681702
113369695,0.0537109,-0.716187,0.139099,0.681824
113382789,0.0541382,-0.716125,0.138733,0.681885
113406532,0.0545044,-0.716187,0.138367,0.681885
113428391,0.0548706,-0.716187,0.138123,0.681885
113442734,0.0551147,-0.71637,0.137939,0.681763
113465264,0.0552979,-0.716492,0.137878,0.68158
113487576,0.0553589,-0.716492,0.137878,0.68158
113510927,0.0553589,-0.716492,0.137878,0.68158
113525145,0.0553589,-0.716492,0.137817,0.68158
113547674,0.0552368,-0.716675,0.137817,0.681458
113564019,0.0549927,-0.716858,0.137939,0.681213
113585225,0.0549316,-0.717041,0.138306,0.680908
113607589,0.0548096,-0.717224,0.138672,0.680664
113622661,0.0545654,-0.717529,0.138855,0.680359
113645195,0.0543213,-0.717773,0.138977,0.680115
113667574,0.0541382,-0.71814,0.139099,0.679749
113683942,0.0540771,-0.718567,0.139038,0.67926
113705005,0.053894,-0.719055,0.139038,0.678711
113727521,0.053894,-0.719543,0.139282,0.678162
113742619,0.0540161,-0.720093,0.139526,0.677551
113773243,0.0540771,-0.72052,0.139709,0.677002
113787523,0.0540771,-0.721008,0.139648,0.676514
113802519,0.0540771,-0.721497,0.139526,0.676025
113825114,0.0540161,-0.721802,0.139526,0.67572
113847773,0.0541382,-0.721985,0.139526,0.675476
113862734,0.0541382,-0.721985,0.139526,0.675476
113885253,0.0541382,-0.721985,0.139526,0.675476
113907532,0.0541382,-0.721985,0.139526,0.675476
113922769,0.0541382,-0.721985,0.139526,0.675476
113945180,0.0541382,-0.722046,0.139526,0.675476
113967751,0.0541382,-0.722046,0.139526,0.675476
113982757,0.0540771,-0.721863,0.139709,0.675598
114005216,0.0540161,-0.72168,0.139648,0.675842
114027610,0.053833,-0.721497,0.139771,0.675964
114042561,0.0534668,-0.721436,0.140015,0.676086
114064991,0.0534668,-0.72113,0.14032,0.676331
114087552,0.053772,-0.720886,0.140625,0.676453
114102507,0.0537109,-0.720459,0.140991,0.67688
114125025,0.0532837,-0.719849,0.141724,0.677429
114147608,0.0526733,-0.719421,0.142639,0.677734
114162784,0.0518799,-0.719238,0.143616,0.677795
114185108,0.0511475,-0.719055,0.144775,0.677795
114207736,0.050354,-0.718811,0.145386,0.677979
114222806,0.0490112,-0.718567,0.14563,0.678284
114245105,0.0477295,-0.71875,0.14624,0.677979
114267762,0.0465698,-0.719421,0.146851,0.677307
114282637,0.0455322,-0.720215,0.147278,0.676392
114305260,0.0447998,-0.721191,0.147583,0.675354
114327723,0.0441284,-0.722168,0.147644,0.674316
114344067,0.043457,-0.723083,0.147705,0.673401
114365086,0.0431519,-0.723877,0.14801,0.672424
114387581,0.0431519,-0.724609,0.148438,0.67157
114404117,0.0430908,-0.725281,0.148743,0.670776
114425210,0.0430298,-0.725891,0.149048,0.670105
114447777,0.0428467,-0.726379,0.149231,0.669556
114464132,0.0424805,-0.726624,0.149719,0.669128
114485217,0.0422974,-0.726807,0.150269,0.668823
114507688,0.0422974,-0.726868,0.150635,0.668701
114524105,0.0421143,-0.726868,0.150635,0.668762
114545252,0.0420532,-0.726868,0.150635,0.668762
114567775,0.0419312,-0.726685,0.15094,0.668884
114584067,0.0418091,-0.726624,0.151001,0.668945
114605233,0.0418091,-0.726562,0.151001,0.668945
114627762,0.0418091,-0.726562,0.151001,0.669006
114644139,0.0418091,-0.726562,0.151001,0.669006
114665252,0.0419922,-0.726624,0.151001,0.668945
114687560,0.0421753,-0.726624,0.151062,0.668884
114703953,0.0421753,-0.726624,0.151062,0.668884
114725110,0.0422363,-0.726624,0.151062,0.668945
114747515,0.0422363,-0.726624,0.151001,0.668884
114763980,0.0422363,-0.726624,0.151001,0.668945
114785012,0.0422974,-0.726624,0.15094,0.668884
114807719,0.0422974,-0.726624,0.15094,0.668884
114824013,0.0422363,-0.726624,0.151001,0.668884
114845224,0.0422363,-0.726624,0.151001,0.668884
114867785,0.0422363,-0.726624,0.151001,0.668884
114884105,0.0422363,-0.726624,0.151001,0.668884
114913258,0.0422363,-0.726624,0.151001,0.668945
114927650,0.0422363,-0.726624,0.151001,0.668945
114944121,0.0422363,-0.726624,0.151001,0.668945
114965296,0.0421143,-0.72644,0.151001,0.669067
114987669,0.0421753,-0.726257,0.151062,0.669312
115004047,0.0423584,-0.725891,0.151062,0.669678
115025090,0.0437012,-0.72522,0.150635,0.67041
115047564,0.0458984,-0.723267,0.150635,0.672363
115064189,0.0474243,-0.720581,0.150818,0.67511
115085253,0.0485229,-0.715576,0.151123,0.680237
115107741,0.0495605,-0.71051,0.151428,0.685364
115124119,0.0513916,-0.707703,0.151428,0.688171
115145319,0.0513306,-0.706421,0.151123,0.689575
115167630,0.0506592,-0.705322,0.151428,0.690674
115184095,0.0499878,-0.704285,0.151733,0.691711
115205221,0.0489502,-0.703491,0.152283,0.692444
115227820,0.0481567,-0.702942,0.153381,0.69281
115244117,0.0472412,-0.702637,0.154968,0.692871
115266616,0.0462646,-0.702393,0.156616,0.692749
115287737,0.0452881,-0.702209,0.157898,0.69281
115304122,0.0441895,-0.702087,0.158264,0.692871
115326643,0.0426636,-0.702271,0.157715,0.692871
115349016,0.0410156,-0.702454,0.156616,0.693054
115364005,0.0394287,-0.702942,0.154968,0.693054
115386517,0.0377808,-0.703491,0.153076,0.692993
115407558,0.036377,-0.704285,0.15094,0.692688
115424002,0.0354004,-0.7052,0.149414,0.692139
115446563,0.0358887,-0.705994,0.149414,0.691284
115467760,0.0377808,-0.706665,0.150574,0.690308
115484144,0.0408325,-0.707642,0.152161,0.688782
115506577,0.0429688,-0.708984,0.153748,0.686951
115527772,0.0445557,-0.710754,0.155701,0.684509
115544081,0.0462646,-0.713135,0.158569,0.681274
115566649,0.0482788,-0.715576,0.161682,0.677856
115587730,0.050354,-0.718323,0.162659,0.674561
115604042,0.0511475,-0.721741,0.161926,0.671021
115626615,0.050415,-0.724487,0.16156,0.668152
115647876,0.0495605,-0.727844,0.16217,0.664429
115664114,0.0491943,-0.731812,0.161499,0.660278
115686552,0.0492554,-0.735352,0.159485,0.656799
115707849,0.0490112,-0.739197,0.158081,0.652832
115724142,0.048645,-0.742859,0.156799,0.648987
115746695,0.0466309,-0.747253,0.15509,0.644531
115767741,0.0456543,-0.750061,0.153442,0.641724
115784146,0.0453491,-0.752563,0.152039,0.63916
115806583,0.0444946,-0.754578,0.150818,0.637146
115827594,0.0435181,-0.755554,0.150269,0.636108
115851511,0.0419922,-0.756592,0.150085,0.63501
115866502,0.0394897,-0.757874,0.149109,0.63385
115887583,0.0362549,-0.759216,0.148315,0.63269
115904135,0.0332642,-0.760986,0.148254,0.630737
115926688,0.0310059,-0.761353,0.14801,0.630432
115947823,0.0290527,-0.760864,0.147461,0.631287
115964099,0.0272217,-0.760132,0.147644,0.632202
115986648,0.0257568,-0.759766,0.147766,0.632629
116007806,0.0237427,-0.76001,0.147522,0.632446
116024086,0.0217285,-0.759705,0.146912,0.633057
116046645,0.0194092,-0.758728,0.145508,0.634644
116067864,0.0170898,-0.757263,0.143921,0.636841
116084080,0.0151978,-0.755371,0.143066,0.639343
116106634,0.0137939,-0.752869,0.141724,0.642639
116130542,0.0117798,-0.750305,0.139648,0.646057
116144049,0.0100098,-0.747986,0.138672,0.648987
116172556,0.00927734,-0.74585,0.138184,0.65155
116187562,0.00830078,-0.744141,0.137024,0.653748
116204037,0.00732422,-0.742249,0.135864,0.656128
116226524,0.00585938,-0.739807,0.135254,0.659058
116249016,0.00445557,-0.736511,0.136108,0.662598
116264042,0.00439453,-0.73291,0.138062,0.666138
116286630,0.00512695,-0.730835,0.139099,0.668152
116309061,0.00439453,-0.72937,0.138611,0.669922
116324056,0.00354004,-0.727539,0.139526,0.671753
116345781,0.00518799,-0.725647,0.142334,0.673157
116368243,0.0067749,-0.723938,0.144043,0.674622
116390759,0.00640869,-0.721924,0.144836,0.676575
116405788,0.00720215,-0.720886,0.146179,0.677368
116435773,0.00854492,-0.720032,0.147156,0.678101
116444696,0.0098877,-0.718994,0.148804,0.678833
116465756,0.0114746,-0.71814,0.15033,0.679382
116488301,0.0124512,-0.717102,0.151123,0.680298
116504730,0.0128174,-0.715942,0.152832,0.681091
116525748,0.015564,-0.715759,0.155334,0.680603
116548257,0.0169678,-0.715942,0.155518,0.68042
116572210,0.0169067,-0.716309,0.156189,0.679871
116585772,0.0176392,-0.716675,0.156738,0.679321
116608293,0.0175781,-0.71637,0.157654,0.679443
116624725,0.0178223,-0.716125,0.158569,0.679443
116645802,0.0182495,-0.716614,0.158325,0.679016
116668280,0.0176392,-0.717407,0.157837,0.678284
116684663,0.0177002,-0.71814,0.157959,0.67749
116705823,0.0177002,-0.718933,0.158081,0.676575
116728305,0.017395,-0.719849,0.158264,0.675659
116744718,0.0169067,-0.720276,0.157898,0.675232
116765784,0.0157471,-0.720459,0.157532,0.675232
116788234,0.0165405,-0.720581,0.158508,0.674805
116804696,0.0179443,-0.721252,0.159302,0.673828
116825720,0.019165,-0.722412,0.159363,0.672546
116848271,0.0197754,-0.723755,0.159119,0.671143
116864747,0.0200806,-0.725342,0.159607,0.669373
116885789,0.0204468,-0.725708,0.160522,0.668762
116908275,0.0206299,-0.72583,0.162292,0.668152
116924696,0.0214844,-0.725647,0.163879,0.667908
116945765,0.0214233,-0.725586,0.163452,0.668091
116968275,0.0203247,-0.725342,0.163147,0.668457
116984717,0.0202026,-0.725037,0.163879,0.66864
117005776,0.019043,-0.724548,0.165222,0.668823
117028274,0.0180664,-0.723389,0.16687,0.669739
117044691,0.0169067,-0.722839,0.168518,0.669922
117065743,0.0166016,-0.722412,0.169312,0.670166
117088284,0.0155029,-0.721985,0.169861,0.670532
117104716,0.0148926,-0.722046,0.170349,0.67041
117125764,0.0142822,-0.721924,0.171631,0.670166
117148254,0.0140381,-0.721619,0.172974,0.670227
117170745,0.0126953,-0.721375,0.173401,0.670349
117185806,0.0112915,-0.720825,0.174133,0.670776
117208297,0.0112305,-0.719788,0.176636,0.671204
117224044,0.0123291,-0.718933,0.178345,0.671692
117245813,0.0124512,-0.718323,0.17981,0.671936
117268278,0.0133667,-0.718079,0.181763,0.671692
117290784,0.0149536,-0.717957,0.183472,0.671265
117305771,0.0150757,-0.717712,0.184387,0.671326
117328280,0.0148315,-0.717407,0.185547,0.671326
117344024,0.0148926,-0.717346,0.18634,0.671143
117367238,0.015564,-0.714478,0.187317,0.673889
117388257,0.0168457,-0.711121,0.188171,0.677185
117404057,0.0195312,-0.706055,0.188965,0.68219
117427232,0.0206909,-0.703552,0.189209,0.684692
117448278,0.0200806,-0.702087,0.189148,0.686218
117470779,0.0194702,-0.701294,0.188965,0.687073
117487255,0.0180664,-0.701111,0.188416,0.687439
117508294,0.0168457,-0.70105,0.188232,0.687561
117524092,0.0158081,-0.701172,0.187805,0.687561
117547214,0.0134888,-0.701843,0.186951,0.687256
117575831,0.012146,-0.702759,0.187134,0.686218
117584046,0.0116577,-0.704346,0.187561,0.684509
117607664,0.0103149,-0.706665,0.186829,0.682373
117628251,0.00830078,-0.709412,0.186096,0.679749
117644036,0.00738525,-0.71167,0.185913,0.677429
117667242,0.00585938,-0.71344,0.186401,0.675415
117688455,0.00561523,-0.715027,0.187012,0.673584
117704189,0.00506592,-0.716187,0.187256,0.672302
117727302,0.00506592,-0.717102,0.187744,0.671204
117748499,0.00585938,-0.717651,0.188599,0.670349
117764148,0.00604248,-0.718018,0.189636,0.669617
117787788,0.00640869,-0.718323,0.190796,0.669006
117816004,0.00726318,-0.718689,0.191589,0.668396
117824174,0.00750732,-0.718933,0.192322,0.667908
117847712,0.00799561,-0.719116,0.19281,0.667542
117868309,0.00848389,-0.719177,0.193665,0.667236
117884046,0.0101929,-0.719238,0.194641,0.66687
117907239,0.0115967,-0.719543,0.195068,0.666382
117928284,0.0128174,-0.719727,0.195618,0.666016
117944056,0.0137329,-0.719849,0.196228,0.66571
117967282,0.0148926,-0.719666,0.197083,0.665588
117988470,0.0158691,-0.719482,0.19751,0.665649
118004091,0.0170898,-0.719238,0.197998,0.66571
118027271,0.0183105,-0.71936,0.197937,0.665588
118048494,0.0189819,-0.719727,0.197388,0.665344
118064210,0.0195923,-0.720093,0.197327,0.664978
118087954,0.0202637,-0.720215,0.197144,0.664856
118108470,0.020874,-0.720215,0.196899,0.664917
118124091,0.0215454,-0.720459,0.195862,0.664917
118153292,0.0209961,-0.720276,0.195496,0.665222
118168261,0.0220337,-0.719849,0.197083,0.665161
118184027,0.0222168,-0.719788,0.197083,0.665222
118206530,0.0220337,-0.719543,0.197388,0.665405
118228240,0.0238037,-0.719849,0.19873,0.664612
118244029,0.0240479,-0.72052,0.198303,0.664001
118266677,0.0233765,-0.719849,0.19928,0.66449
118289844,0.0255127,-0.719543,0.200623,0.664307
118304163,0.0262451,-0.719788,0.199707,0.664307
118326620,0.02771,-0.720154,0.199097,0.664062
118349813,0.0327759,-0.719421,0.199646,0.664429
118364232,0.0360107,-0.718384,0.199829,0.665344
118386654,0.0371704,-0.717407,0.200073,0.66626
118409875,0.0383911,-0.716675,0.200134,0.666931
118424218,0.0390015,-0.716675,0.199097,0.667236
118446649,0.0390015,-0.716919,0.197632,0.667419
118469720,0.0385742,-0.716187,0.196533,0.668518
118484042,0.0396729,-0.717346,0.195251,0.667664
118506538,0.0405884,-0.71875,0.193481,0.666565
118529757,0.0421753,-0.720093,0.192505,0.665283
118544091,0.0440063,-0.721802,0.190857,0.663818
118566562,0.0460205,-0.723328,0.189575,0.662354
118589827,0.0482178,-0.724731,0.188599,0.66095
118611022,0.050415,-0.726624,0.187317,0.659058
118626562,0.0522461,-0.72876,0.18512,0.657166
118649827,0.0532837,-0.731201,0.182739,0.65509
118671060,0.0543213,-0.73407,0.179993,0.652527
118686700,0.0551147,-0.737427,0.177612,0.649292
118709816,0.0565796,-0.741211,0.174622,0.645691
118730833,0.0576782,-0.745605,0.170837,0.641541
118746584,0.0595093,-0.750305,0.166626,0.636963
118769710,0.0617676,-0.754883,0.161682,0.632629
118790783,0.0647583,-0.759521,0.156921,0.62793
118806588,0.0684814,-0.764465,0.150818,0.622986
118837224,0.0709839,-0.76947,0.14502,0.61792
118850969,0.0768433,-0.774658,0.141113,0.611633
118866592,0.0842285,-0.780334,0.134644,0.604858
118889780,0.0925293,-0.785828,0.125061,0.598511
118910960,0.103027,-0.791382,0.11261,0.591919
118926697,0.110168,-0.796387,0.0941772,0.587158
118949840,0.113892,-0.801331,0.0784302,0.58197
118971023,0.121521,-0.806213,0.0708008,0.574707
118986707,0.133606,-0.813354,0.0661621,0.562317
119009829,0.141602,-0.813782,0.0674438,0.559631
119031014,0.156433,-0.821838,0.069458,0.543457
119046625,0.175171,-0.830811,0.0814209,0.521912
119069177,0.194885,-0.837952,0.0956421,0.500671
119098526,0.206238,-0.845093,0.0952759,0.483887
119106690,0.213135,-0.848572,0.0983276,0.474243
119129222,0.221069,-0.850037,0.106506,0.466125
119151025,0.230042,-0.8479,0.120667,0.462158
119166679,0.242371,-0.845886,0.137207,0.454895
119189189,0.258545,-0.83905,0.164551,0.449585
119212328,0.272644,-0.828735,0.189575,0.450439
119226686,0.282776,-0.816223,0.210083,0.457947
119249203,0.289795,-0.800842,0.228577,0.471619
119272341,0.293274,-0.782532,0.244629,0.491699
119286676,0.293152,-0.761292,0.258972,0.51709
119309200,0.290283,-0.736938,0.273926,0.545532
119332281,0.28479,-0.709473,0.290283,0.575562
119347111,0.278381,-0.678772,0.310303,0.604553
119369196,0.27417,-0.644348,0.336365,0.6297
119392413,0.27356,-0.606506,0.367737,0.649597
119406677,0.278076,-0.56543,0.401794,0.66449
119429179,0.282227,-0.524475,0.431641,0.677429
119452308,0.28302,-0.486694,0.454163,0.690491
119466637,0.277222,-0.456848,0.468018,0.703796
119489196,0.268982,-0.430664,0.478333,0.716431
119512307,0.263428,-0.411621,0.486877,0.723877
119533559,0.261963,-0.400146,0.494324,0.72583
119549170,0.264771,-0.398071,0.498474,0.723145
119572317,0.271118,-0.403809,0.50061,0.716064
119593483,0.282471,-0.422974,0.5,0.700867
119609188,0.290466,-0.431152,0.502747,0.690552
119632317,0.303406,-0.441284,0.503601,0.677856
119653588,0.318298,-0.454834,0.50177,0.663269
119669218,0.325439,-0.47113,0.499023,0.650391
119692297,0.328613,-0.483643,0.499146,0.639465
119714878,0.329895,-0.495056,0.499634,0.629578
119729163,0.332275,-0.503174,0.501587,0.6203
119752292,0.335754,-0.508118,0.503662,0.61261
119773567,0.340515,-0.51355,0.506348,0.60321
119789180,0.344116,-0.520264,0.509155,0.592957
119812373,0.345947,-0.526917,0.51239,0.58313
119833576,0.348816,-0.531982,0.515686,0.573853
119849260,0.352844,-0.535706,0.51886,0.565002
119872372,0.357544,-0.538208,0.520752,0.557922
119885359,0.360291,-0.541992,0.520996,0.552185
119908590,0.363281,-0.546387,0.518555,0.548218
119922856,0.362488,-0.551697,0.515991,0.545837
119945337,0.361572,-0.556702,0.514954,0.542358
119968412,0.36145,-0.561707,0.513123,0.539001
119982941,0.359619,-0.567932,0.510864,0.535828
120005318,0.35907,-0.573547,0.509399,0.531555
120028414,0.358582,-0.579163,0.507446,0.52771
120042728,0.357422,-0.584839,0.505493,0.524048
120065419,0.357544,-0.590088,0.503967,0.519531
120088491,0.358032,-0.59491,0.502869,0.514709
120102926,0.360229,-0.59906,0.502258,0.508911
120125343,0.362488,-0.603943,0.499878,0.503906
120148618,0.362732,-0.610657,0.496277,0.499146
120162759,0.363892,-0.617249,0.492737,0.493713
120185405,0.364441,-0.625366,0.487854,0.487915
120208321,0.365051,-0.633728,0.483032,0.481445
120222678,0.365356,-0.642212,0.477783,0.475159
120245120,0.36615,-0.650635,0.471741,0.469116
120268412,0.367493,-0.659119,0.465027,0.46283
120282640,0.369934,-0.66687,0.458923,0.455811
120305133,0.372986,-0.674255,0.452148,0.449219
120328289,0.374695,-0.682556,0.443115,0.444214
120342661,0.37616,-0.690857,0.432983,0.440063
120365329,0.377502,-0.699219,0.422424,0.436035
120388574,0.381592,-0.704956,0.413696,0.431519
120402705,0.38623,-0.710999,0.403198,0.42749
120425368,0.389465,-0.713745,0.39447,0.428101
120448371,0.38916,-0.716553,0.385498,0.431824
120462871,0.390503,-0.728882,0.36731,0.425842
120485160,0.390564,-0.746155,0.344177,0.414978
120508298,0.389282,-0.764526,0.318665,0.403015
120522659,0.384949,-0.782227,0.29187,0.393311
120545189,0.378601,-0.797852,0.268921,0.384338
120568349,0.37085,-0.811707,0.246582,0.377869
120582810,0.361572,-0.82312,0.224243,0.37616
120605357,0.351379,-0.831116,0.207031,0.377991
120628504,0.341675,-0.832642,0.199158,0.387634
120642834,0.334717,-0.830933,0.20166,0.396057
120665423,0.329529,-0.82489,0.213135,0.406799
120688520,0.326294,-0.814148,0.231934,0.420532
120702702,0.323792,-0.80072,0.254211,0.435242
120725383,0.321533,-0.782837,0.2771,0.455017
120748589,0.317688,-0.762512,0.296753,0.479126
120764210,0.312195,-0.739441,0.314758,0.506592
120785366,0.304871,-0.713928,0.329651,0.537292
120816609,0.294861,-0.68689,0.342468,0.569153
120822729,0.283569,-0.657654,0.355713,0.600464
120846588,0.2724,-0.625916,0.371033,0.629578
120868386,0.263,-0.590515,0.389954,0.655762
120890872,0.254578,-0.553406,0.408875,0.679504
120905204,0.2453,-0.517212,0.425049,0.701172
120928398,0.234497,-0.483826,0.4375,0.720764
120942723,0.220276,-0.457092,0.444336,0.738281
120965429,0.204224,-0.436523,0.446899,0.753601
120988575,0.188599,-0.422485,0.447449,0.765259
121002890,0.177673,-0.430664,0.44165,0.766724
121025309,0.167419,-0.450317,0.433472,0.76239
121048407,0.162598,-0.474426,0.425903,0.753052
121062708,0.166992,-0.497742,0.418823,0.740906
121085157,0.170959,-0.514038,0.415527,0.730652
121108361,0.178894,-0.516907,0.415588,0.726624
121122634,0.182983,-0.520752,0.418884,0.721008
121145364,0.201416,-0.529297,0.423767,0.706848
121167914,0.21698,-0.538086,0.42981,0.691833
121182853,0.22345,-0.551758,0.428894,0.679443
121205276,0.22229,-0.565491,0.426636,0.669922
121227865,0.221008,-0.576416,0.427185,0.660583
121242838,0.224792,-0.584595,0.42926,0.650696
121265248,0.225647,-0.593811,0.428101,0.642822
121287746,0.224915,-0.603027,0.425659,0.636047
121302717,0.227478,-0.610046,0.4245,0.629211
121325217,0.230713,-0.61554,0.423096,0.623535
121347640,0.232422,-0.621094,0.421021,0.618774
121362684,0.2323,-0.626953,0.418701,0.614502
121385432,0.23114,-0.632751,0.416992,0.610168
121407877,0.230774,-0.638123,0.416077,0.605286
121422916,0.231934,-0.642639,0.413696,0.601685
121453449,0.230103,-0.64856,0.408997,0.599243
121467826,0.228027,-0.654053,0.406494,0.595825
121482871,0.229065,-0.657654,0.407043,0.591064
121505269,0.231323,-0.661194,0.407104,0.586121
121527739,0.23291,-0.665527,0.406433,0.581055
121542648,0.235413,-0.669678,0.405579,0.575806
121566604,0.238281,-0.673523,0.404968,0.570618
121587687,0.239807,-0.677551,0.404968,0.565125
121602669,0.243469,-0.68103,0.40625,0.558472
121625240,0.247375,-0.684387,0.406616,0.552307
121649282,0.248352,-0.689636,0.403748,0.547424
121662792,0.248901,-0.695129,0.401184,0.542114
121685426,0.251465,-0.700012,0.399231,0.536011
121710693,0.254211,-0.705261,0.397034,0.52948
121730962,0.257324,-0.710632,0.394409,0.522766
121745271,0.25885,-0.717651,0.388794,0.516541
121767737,0.260803,-0.724548,0.383667,0.509705
121785629,0.263794,-0.731323,0.377869,0.502747
121805183,0.265686,-0.738892,0.370667,0.496033
121827681,0.266663,-0.747253,0.362183,0.489136
121842711,0.267334,-0.755249,0.353943,0.482544
121865430,0.270752,-0.762146,0.344788,0.476379
121887863,0.273193,-0.769409,0.331116,0.472961
121904192,0.272522,-0.777527,0.313904,0.471863
121925333,0.267334,-0.790466,0.293335,0.466553
121947896,0.25824,-0.804993,0.270203,0.460754
121964299,0.247437,-0.820557,0.247986,0.45166
121985329,0.236145,-0.83313,0.22876,0.444702
122007884,0.224182,-0.84436,0.21106,0.438416
122024237,0.210266,-0.854553,0.192993,0.433899
122045435,0.194763,-0.86261,0.176025,0.432495
122067933,0.176941,-0.867798,0.159302,0.436218
122084311,0.157837,-0.869385,0.144409,0.445435
122105408,0.142151,-0.86615,0.134399,0.4599
122127753,0.127258,-0.859985,0.131042,0.476501
122144144,0.111938,-0.850952,0.129028,0.496704
122165197,0.0970459,-0.838501,0.129272,0.520325
122187768,0.0822144,-0.82312,0.125732,0.547668
122204136,0.0652466,-0.806335,0.11499,0.576538
122225213,0.0478516,-0.787659,0.101746,0.605713
122247704,0.0325317,-0.766724,0.0891724,0.634888
122264148,0.0195312,-0.743591,0.078125,0.663757
122288203,0.00927734,-0.718262,0.0689087,0.692261
122307981,0.00140381,-0.69104,0.0610352,0.720215
122324186,-0.00427246,-0.662781,0.0535889,0.746887
122345299,-0.0108032,-0.635742,0.0442505,0.770569
122376108,-0.019104,-0.610596,0.0327759,0.791016
122384258,-0.0281372,-0.588074,0.0214844,0.808044
122405320,-0.036499,-0.568115,0.0122681,0.822021
122427921,-0.0422363,-0.552979,0.00592041,0.832092
122444207,-0.050415,-0.551025,0.000244141,0.832947
122465450,-0.0563965,-0.557251,-0.00317383,0.82843
122487964,-0.0639038,-0.569519,-0.00604248,0.819458
122511653,-0.0747681,-0.583008,-0.00939941,0.80896
122525217,-0.085083,-0.587219,-0.0133057,0.80481
122547671,-0.0958252,-0.582458,-0.0160522,0.807068
122564128,-0.100525,-0.583862,-0.0111694,0.805542
122585158,-0.090332,-0.591187,-0.00268555,0.801453
122607701,-0.0836792,-0.598694,0.00286865,0.79657
122624168,-0.0810547,-0.604614,0.00634766,0.792358
122645229,-0.0838013,-0.609741,0.00909424,0.788086
122667743,-0.0893555,-0.613403,0.0133057,0.784546
122684214,-0.0947266,-0.615723,0.0194702,0.782043
122705411,-0.0992432,-0.617676,0.0256958,0.779724
122727915,-0.1026,-0.621033,0.0305786,0.776428
122744353,-0.106018,-0.624878,0.0340576,0.772766
122765306,-0.107788,-0.630188,0.0359497,0.768066
122787980,-0.112366,-0.635742,0.0357666,0.762817
122804216,-0.11554,-0.640198,0.0368652,0.758545
122825452,-0.118225,-0.644165,0.0368652,0.754822
122847846,-0.122192,-0.646973,0.036499,0.751831
122864297,-0.125488,-0.649475,0.0360107,0.749146
122886787,-0.128906,-0.651917,0.0360107,0.746399
122907971,-0.130676,-0.654663,0.0361938,0.743652
122924316,-0.132446,-0.657104,0.0362549,0.741211
122946754,-0.134888,-0.659607,0.0360718,0.738525
122967953,-0.136719,-0.662292,0.0362549,0.735779
122984207,-0.13855,-0.665161,0.036499,0.732788
123006683,-0.14032,-0.667725,0.0375366,0.730103
123027750,-0.141785,-0.670105,0.0385132,0.7276
123044178,-0.143555,-0.672241,0.0392456,0.72522
123066676,-0.144775,-0.674683,0.0392456,0.722656
123087756,-0.146912,-0.677185,0.0384521,0.719971
123118530,-0.148987,-0.679077,0.038147,0.717773
123126759,-0.150635,-0.681458,0.0379028,0.71521
123147823,-0.15332,-0.683716,0.0371704,0.712463
123164312,-0.155518,-0.686157,0.036438,0.709717
123186714,-0.157532,-0.688782,0.0350952,0.706726
123207981,-0.159485,-0.691528,0.0332642,0.703735
123224259,-0.161499,-0.694458,0.0304565,0.7005
123246756,-0.164246,-0.697571,0.026001,0.69696
123267959,-0.168823,-0.700195,0.0206909,0.69342
123284288,-0.172974,-0.703064,0.0163574,0.689575
123306770,-0.177551,-0.706116,0.0114746,0.685425
123327804,-0.18219,-0.709106,0.0067749,0.681152
123344247,-0.186096,-0.712585,0.00274658,0.676453
123366732,-0.188904,-0.716736,-6.10352e-05,0.671326
123387999,-0.190796,-0.721741,-0.00305176,0.665405
123404159,-0.192261,-0.726746,-0.00646973,0.659424
123426822,-0.191772,-0.732361,-0.010437,0.653259
123447901,-0.1922,-0.725952,-0.0157471,0.660217
123463628,-0.195923,-0.726074,-0.0204468,0.658813
123486182,-0.20105,-0.730957,-0.0270996,0.651611
123516747,-0.209534,-0.735779,-0.0342407,0.643127
123523656,-0.219971,-0.740784,-0.0407104,0.633423
123545972,-0.2323,-0.745178,-0.0479126,0.62323
123568384,-0.246948,-0.748535,-0.0580444,0.612671
123583386,-0.264404,-0.749207,-0.0731201,0.602905
123605889,-0.284546,-0.747009,-0.0916748,0.593872
123628396,-0.304504,-0.741882,-0.111511,0.586914
123643425,-0.324097,-0.733948,-0.13385,0.581726
123665704,-0.343872,-0.7229,-0.16095,0.577332
123688395,-0.363647,-0.708801,-0.1922,0.573059
123703409,-0.382935,-0.691589,-0.22583,0.569336
123726041,-0.401733,-0.671631,-0.260437,0.565491
123748547,-0.419983,-0.649109,-0.295044,0.561462
123763578,-0.436096,-0.625366,-0.327271,0.558228
123786000,-0.450195,-0.601074,-0.356201,0.55603
123808614,-0.461609,-0.576233,-0.382935,0.555237
123823589,-0.471436,-0.550354,-0.408569,0.554932
123846164,-0.480103,-0.524475,-0.432434,0.554504
123868491,-0.487732,-0.49939,-0.453735,0.554016
123883623,-0.494629,-0.476013,-0.47168,0.553467
123906144,-0.499329,-0.454346,-0.488403,0.552979
123928612,-0.50116,-0.434326,-0.503479,0.553833
123943614,-0.503967,-0.419556,-0.515015,0.552124
123966060,-0.506714,-0.408447,-0.523132,0.550232
123988586,-0.509155,-0.403076,-0.527405,0.547913
124004959,-0.515076,-0.400391,-0.528259,0.543457
124026118,-0.525818,-0.403198,-0.523315,0.535889
124048600,-0.534424,-0.407471,-0.516357,0.530823
124064969,-0.535828,-0.410095,-0.510193,0.533386
124086080,-0.529785,-0.41333,-0.505615,0.541199
124108662,-0.524048,-0.421021,-0.498413,0.547485
124124968,-0.522766,-0.427307,-0.494019,0.547852
124146010,-0.528198,-0.426392,-0.492981,0.544312
124168623,-0.534973,-0.422119,-0.491333,0.542419
124184910,-0.536987,-0.421021,-0.487366,0.544922
124206166,-0.537109,-0.421753,-0.48407,0.547119
124228648,-0.539856,-0.420654,-0.482544,0.54657
124244993,-0.543518,-0.418335,-0.480896,0.546204
124266107,-0.545166,-0.417969,-0.4776,0.547729
124289934,-0.546143,-0.419128,-0.474426,0.548706
124304912,-0.548096,-0.418579,-0.472717,0.548645
124325924,-0.549377,-0.418274,-0.47168,0.548462
124348360,-0.550232,-0.417419,-0.471619,0.548279
124364828,-0.551147,-0.415955,-0.472534,0.547668
124385908,-0.552917,-0.414246,-0.47345,0.546448
124408471,-0.554626,-0.412415,-0.475281,0.544495
124424953,-0.556396,-0.409363,-0.477722,0.542847
124446177,-0.5495,-0.402039,-0.486511,0.547485
124468586,-0.546509,-0.398499,-0.493164,0.54718
124484992,-0.547241,-0.395142,-0.497864,0.544556
124505974,-0.54895,-0.391968,-0.501343,0.541992
124528645,-0.550598,-0.389221,-0.503723,0.5401
124544944,-0.552063,-0.387207,-0.505554,0.538269
124566109,-0.553589,-0.385925,-0.506897,0.536377
124588664,-0.555725,-0.385376,-0.508118,0.533447
124604935,-0.55835,-0.384399,-0.509155,0.530334
124626153,-0.560974,-0.383545,-0.509583,0.527771
124648590,-0.562927,-0.382812,-0.51001,0.525879
124664946,-0.565186,-0.382996,-0.508911,0.524353
124686169,-0.567078,-0.384949,-0.506714,0.52301
124708456,-0.56897,-0.388,-0.504517,0.520813
124724211,-0.572144,-0.389954,-0.504517,0.515808
124746162,-0.576782,-0.389343,-0.50531,0.510376
124768658,-0.5802,-0.389954,-0.504761,0.50647
124784392,-0.583069,-0.391418,-0.503723,0.503113
124806092,-0.586121,-0.392761,-0.50293,0.499268
124828690,-0.589417,-0.393433,-0.502747,0.495056
124844278,-0.592407,-0.394653,-0.502014,0.491211
124865990,-0.595215,-0.396118,-0.501587,0.487122
124888551,-0.598022,-0.397583,-0.501587,0.482422
124904325,-0.601196,-0.398682,-0.502014,0.477173
124927397,-0.604614,-0.399353,-0.502441,0.471741
124948678,-0.608032,-0.401001,-0.501587,0.466919
124964294,-0.611267,-0.403564,-0.499573,0.462585
124987516,-0.614624,-0.406921,-0.496887,0.458008
125008622,-0.617859,-0.409302,-0.494995,0.453613
125024302,-0.621277,-0.412231,-0.491638,0.449951
125047430,-0.624695,-0.416077,-0.488342,0.44519
125068492,-0.627808,-0.418091,-0.487183,0.440186
125084295,-0.624695,-0.413147,-0.494751,0.440857
125107492,-0.625305,-0.410461,-0.499512,0.437134
125128646,-0.633057,-0.407837,-0.499207,0.42865
125152873,-0.639526,-0.406616,-0.496582,0.423279
125167458,-0.64624,-0.406677,-0.493042,0.417114
125188640,-0.65448,-0.404297,-0.491638,0.408142
125204354,-0.663452,-0.398865,-0.492554,0.397644
125227415,-0.672668,-0.389282,-0.496277,0.386963
125249981,-0.680725,-0.378418,-0.50238,0.37561
125264278,-0.687317,-0.365784,-0.511169,0.364075
125287381,-0.691833,-0.352356,-0.522705,0.352234
125308403,-0.694702,-0.337402,-0.537537,0.338562
125324180,-0.695984,-0.320312,-0.555847,0.322632
125347343,-0.695374,-0.301514,-0.577087,0.30426
125368428,-0.693665,-0.279724,-0.600098,0.283936
125384301,-0.689758,-0.257812,-0.621887,0.266663
125407410,-0.683594,-0.238403,-0.641052,0.255005
125428563,-0.675415,-0.221191,-0.658203,0.248413
125444306,-0.66571,-0.206421,-0.673584,0.246216
125467406,-0.655579,-0.192383,-0.687927,0.245056
125488625,-0.646179,-0.176941,-0.701843,0.242004
125504395,-0.638,-0.161194,-0.714783,0.236938
125527412,-0.633179,-0.146667,-0.725098,0.227722
125548440,-0.628662,-0.129028,-0.735962,0.215881
125564289,-0.626587,-0.11084,-0.744324,0.20282
125587524,-0.627075,-0.09375,-0.749817,0.189331
125609307,-0.634094,-0.0825195,-0.747803,0.178772
125624341,-0.644043,-0.0784302,-0.740601,0.17511
125647476,-0.648438,-0.0802612,-0.735291,0.180298
125668565,-0.646667,-0.0847778,-0.733643,0.190979
125684337,-0.643066,-0.0909424,-0.732971,0.202576
125706839,-0.641602,-0.0944214,-0.731812,0.209839
125728586,-0.642761,-0.0913086,-0.730835,0.210876
125744303,-0.644958,-0.0895386,-0.72876,0.211975
125766753,-0.646851,-0.0928345,-0.725708,0.215393
125788653,-0.648132,-0.0974731,-0.722656,0.219849
125804297,-0.649902,-0.0979004,-0.72052,0.221375
125826735,-0.651917,-0.0933838,-0.719421,0.220886
125848618,-0.653625,-0.0876465,-0.718872,0.220032
125864326,-0.655151,-0.0822144,-0.718506,0.218689
125893496,-0.65625,-0.0769653,-0.718079,0.21875
125909881,-0.656738,-0.072937,-0.71759,0.220276
125924377,-0.657104,-0.0705566,-0.717041,0.221741
125946763,-0.658508,-0.0653687,-0.716431,0.22113
125969996,-0.659668,-0.0603638,-0.716003,0.220581
125984263,-0.6604,-0.0560913,-0.71582,0.220032
126006841,-0.661499,-0.0515747,-0.715454,0.218933
126030011,-0.662292,-0.0476685,-0.715149,0.218506
126044379,-0.663452,-0.0449219,-0.714539,0.217529
126066853,-0.664978,-0.0420532,-0.713684,0.216187
126089993,-0.666626,-0.0400391,-0.712646,0.214844
126111142,-0.667358,-0.038147,-0.712708,0.212891
126126879,-0.668152,-0.0368652,-0.712402,0.211609
126149983,-0.669128,-0.0357666,-0.712036,0.2099
126164343,-0.670105,-0.0342407,-0.711853,0.207642
126186799,-0.670959,-0.0326538,-0.711487,0.20636
126209952,-0.671631,-0.0325317,-0.71106,0.205688
126224261,-0.672607,-0.031311,-0.710815,0.203674
126246762,-0.673584,-0.0294189,-0.71051,0.20166
126269958,-0.674683,-0.0281372,-0.7099,0.200256
126284365,-0.676086,-0.0266724,-0.709106,0.198547
126306844,-0.677185,-0.0254517,-0.708618,0.196716
126329952,-0.678467,-0.0237427,-0.708069,0.19458
126344320,-0.680054,-0.0224609,-0.707214,0.1922
126366820,-0.681946,-0.0213623,-0.706055,0.190002
126397453,-0.684265,-0.0204468,-0.704346,0.187988
126411249,-0.686646,-0.0194092,-0.702576,0.185913
126426845,-0.688904,-0.0192261,-0.7005,0.185364
126450091,-0.691467,-0.0189819,-0.698303,0.184326
126471523,-0.694519,-0.0174561,-0.695923,0.181946
126486853,-0.698059,-0.0161743,-0.693054,0.179382
126509953,-0.702454,-0.0149536,-0.689392,0.176575
126531140,-0.707458,-0.0142822,-0.684814,0.174316
126546790,-0.713135,-0.0141602,-0.679321,0.172791
126569943,-0.719177,-0.0153198,-0.673218,0.17157
126591189,-0.725525,-0.015625,-0.666992,0.168945
126606788,-0.731995,-0.0162354,-0.660706,0.16571
126629243,-0.738525,-0.0167236,-0.65448,0.161194
126650939,-0.744934,-0.0171509,-0.648376,0.156616
126666734,-0.751099,-0.0183105,-0.64209,0.152771
126689246,-0.757263,-0.0203857,-0.635498,0.149597
126710965,-0.763611,-0.0231323,-0.628418,0.146667
126726743,-0.77002,-0.0269775,-0.621033,0.144226
126749215,-0.776428,-0.031311,-0.613342,0.141602
126771021,-0.779724,-0.0350342,-0.609436,0.139404
126786756,-0.781311,-0.0363159,-0.60791,0.13678
126809289,-0.786316,-0.0338135,-0.602661,0.131958
126832453,-0.794373,-0.0305176,-0.593384,0.126831
126846916,-0.805481,-0.0305176,-0.578735,0.124146
126870812,-0.8172,-0.0314331,-0.562256,0.122925
126892461,-0.828186,-0.0311279,-0.546448,0.120972
126906759,-0.836304,-0.0300903,-0.53418,0.120056
126929331,-0.843018,-0.0273438,-0.524475,0.116394
126952509,-0.84729,-0.0230713,-0.519043,0.110901
126966875,-0.84845,-0.0184937,-0.518555,0.104736
126989343,-0.846191,-0.0149536,-0.523376,0.0991821
127002876,-0.841614,-0.0114746,-0.531555,0.0953369
127026203,-0.83429,-0.0100098,-0.542969,0.0956421
127048652,-0.824158,-0.010437,-0.557739,0.0983276
127064331,-0.813354,-0.0118408,-0.572876,0.100769
127086138,-0.800598,-0.0113525,-0.591003,0.0987549
127108695,-0.785828,-0.00817871,-0.61145,0.0928955
127122983,-0.768738,-0.0043335,-0.633667,0.0872192
127146064,-0.749084,-0.000366211,-0.657288,0.0831909
127168760,-0.727112,0.00360107,-0.681763,0.0811157
127183067,-0.702576,0.00476074,-0.706726,0.0835571
127206230,-0.675964,0.00299072,-0.731628,0.0887451
127228707,-0.648499,0.000976562,-0.755493,0.0934448
127243024,-0.62146,0.000488281,-0.777649,0.0957031
127266215,-0.594666,0.00500488,-0.798523,0.0935059
127288668,-0.569275,0.0107422,-0.817078,0.0912476
127303063,-0.54657,0.015625,-0.832336,0.0909424
127326046,-0.52655,0.0168457,-0.844971,0.0926514
127348679,-0.510864,0.0172119,-0.854492,0.0928345
127363017,-0.508423,0.0189819,-0.85614,0.0908813
127386163,-0.512512,0.0216675,-0.853821,0.0892944
127408636,-0.523804,0.0258789,-0.846863,0.0888062
127423012,-0.539612,0.0269775,-0.83667,0.0901489
127446197,-0.55603,0.0252686,-0.825745,0.0913696
127468527,-0.561462,0.027771,-0.82196,0.0916748
127482984,-0.562256,0.0326538,-0.821167,0.0927124
127506472,-0.569824,0.0304565,-0.815369,0.0979004
127528751,-0.581055,0.0206299,-0.806885,0.104736
127543002,-0.592163,0.0145264,-0.79834,0.108582
127566165,-0.602051,0.0111694,-0.790466,0.112427
127588731,-0.610535,0.0106201,-0.783386,0.11615
127602852,-0.617554,0.0122681,-0.7771,0.121155
127626001,-0.623352,0.012146,-0.771362,0.12793
127648495,-0.627991,0.0126953,-0.766785,0.132446
127662913,-0.632629,0.0147095,-0.762634,0.134277
127686195,-0.638367,0.0186768,-0.757507,0.13562
127708571,-0.643372,0.0202637,-0.752686,0.13855
127723040,-0.648193,0.0211792,-0.747864,0.142151
127745553,-0.652527,0.0231934,-0.743469,0.144897
127768633,-0.656982,0.0262451,-0.739136,0.146423
127783020,-0.660767,0.0282593,-0.735474,0.147522
127805438,-0.664368,0.0286865,-0.732117,0.147827
127828606,-0.667725,0.0300293,-0.729248,0.146851
127843069,-0.671448,0.0324707,-0.725891,0.145874
127865536,-0.675476,0.0338745,-0.722168,0.145508
127888644,-0.679871,0.0360718,-0.717957,0.145264
127902825,-0.684082,0.0366211,-0.713745,0.146118
127925517,-0.688904,0.0363159,-0.709106,0.145935
127948669,-0.693787,0.0368042,-0.704651,0.144348
127962994,-0.698181,0.0372314,-0.700684,0.142212
127985553,-0.702454,0.0386963,-0.696777,0.140015
128008534,-0.706848,0.0402222,-0.692566,0.138489
128022846,-0.711243,0.0414429,-0.688171,0.137573
128054377,-0.715759,0.0427246,-0.683655,0.136353
128068640,-0.720093,0.0444946,-0.67926,0.134644
128091227,-0.724487,0.0461426,-0.674805,0.133118
128106876,-0.729248,0.0465088,-0.669861,0.131897
128120583,-0.734192,0.0471802,-0.664795,0.130005
128143001,-0.738892,0.0480957,-0.659851,0.128235
128174729,-0.743591,0.048645,-0.654846,0.126465
128181770,-0.74884,0.0493164,-0.649292,0.123779
128202948,-0.754639,0.0499268,-0.643005,0.121216
128226848,-0.760742,0.0494995,-0.63623,0.118774
128240365,-0.767151,0.0489502,-0.629211,0.115234
128264266,-0.773438,0.0495605,-0.622192,0.110718
128294330,-0.779785,0.0490112,-0.614746,0.107971
128300523,-0.786621,0.0476074,-0.606812,0.10437
128322946,-0.793762,0.0463867,-0.59845,0.0988159
128345510,-0.800659,0.0436401,-0.590393,0.0924683
128360586,-0.808044,0.039978,-0.581909,0.083374
128382924,-0.815491,0.0368652,-0.57312,0.0726318
128405450,-0.825928,0.0375366,-0.559326,0.0606689
128420353,-0.83783,0.0404053,-0.542053,0.0513916
128442932,-0.850708,0.0447998,-0.52179,0.0457153
128465370,-0.864075,0.0487061,-0.499023,0.0449829
128480322,-0.87616,0.0500488,-0.47699,0.0484009
128502880,-0.886353,0.0514526,-0.457458,0.0498047
128525327,-0.894592,0.0556641,-0.441223,0.0449219
128541766,-0.90033,0.060791,-0.429382,0.0379639
128562812,-0.90448,0.0640869,-0.420654,0.0305786
128585375,-0.905701,0.0671387,-0.417725,0.0274658
128601785,-0.904114,0.0671997,-0.420959,0.0297852
128622907,-0.899719,0.0628662,-0.430542,0.0355835
128645510,-0.892883,0.06073,-0.444763,0.0372925
128661868,-0.884155,0.0580444,-0.462036,0.0393677
128683025,-0.872375,0.0548096,-0.483948,0.0430908
128713747,-0.857361,0.0514526,-0.51001,0.0478516
128721921,-0.839111,0.0476074,-0.539368,0.0525513
128742880,-0.818542,0.0441895,-0.57019,0.0551758
128765390,-0.795471,0.0435791,-0.602051,0.0542603
128781839,-0.769836,0.0435791,-0.634705,0.0518188
128802932,-0.742371,0.0435791,-0.666809,0.0497437
128825562,-0.712646,0.0427856,-0.698425,0.0507812
128843333,-0.680603,0.0385132,-0.729614,0.0545044
128863099,-0.6474,0.0339355,-0.759277,0.0578613
128885545,-0.614014,0.0314941,-0.786438,0.0598755
128901818,-0.581726,0.0314331,-0.810486,0.0610352
128923049,-0.551392,0.0324097,-0.831299,0.0623169
128945540,-0.524231,0.0336914,-0.848572,0.0634766
128961890,-0.500488,0.036499,-0.862793,0.0618896
128983058,-0.483398,0.0411987,-0.872498,0.0588989
129005431,-0.486877,0.0493774,-0.870361,0.0552368
129021893,-0.499207,0.05896,-0.862793,0.0547485
129043091,-0.516968,0.0620728,-0.851685,0.0598755
129065585,-0.536743,0.0565186,-0.839111,0.0679932
129081897,-0.556702,0.0483398,-0.825928,0.0755005
129103008,-0.568665,0.0442505,-0.817505,0.0802612
129125436,-0.567322,0.0461426,-0.817932,0.0842285
129141930,-0.570129,0.0419312,-0.815308,0.0922852
129162969,-0.581665,0.0296021,-0.806335,0.103333
129185469,-0.594971,0.0170898,-0.795776,0.112122
129201854,-0.606628,0.00854492,-0.786377,0.116699
129223061,-0.616394,0.0057373,-0.778015,0.121582
129245389,-0.624634,0.00665283,-0.770508,0.127258
129261885,-0.629639,0.00787354,-0.765137,0.134705
129283032,-0.634033,0.0090332,-0.76062,0.139526
129305590,-0.639648,0.0159912,-0.755798,0.13916
129321865,-0.645081,0.0222168,-0.751221,0.138306
129343072,-0.649597,0.026123,-0.74707,0.139099
129365530,-0.652588,0.0270386,-0.743774,0.142334
129381927,-0.655701,0.02948,-0.740662,0.143982
129403070,-0.65979,0.0339355,-0.736877,0.143677
129425619,-0.664368,0.0372925,-0.732788,0.142395
129441853,-0.668579,0.039917,-0.729309,0.140015
129464426,-0.673706,0.0435791,-0.724976,0.136902
129485529,-0.678894,0.046875,-0.720215,0.135193
129508075,-0.683777,0.0480347,-0.715637,0.13446
129524396,-0.689209,0.0500488,-0.710571,0.132812
129545553,-0.694702,0.0521851,-0.705322,0.131348
129561877,-0.69989,0.0532837,-0.700134,0.13092
129584408,-0.704773,0.0548096,-0.69519,0.130676
129605439,-0.70929,0.0556641,-0.690613,0.13031
129621955,-0.713745,0.0564575,-0.686157,0.128967
129644374,-0.718384,0.0585327,-0.681519,0.126709
129665555,-0.722839,0.0599976,-0.677063,0.124817
129681853,-0.727295,0.0615845,-0.672302,0.123718
129704462,-0.731384,0.0629272,-0.667725,0.12384
129725558,-0.735352,0.0635376,-0.663025,0.125305
129741947,-0.739807,0.0639038,-0.657959,0.125793
129764411,-0.744385,0.0649414,-0.65271,0.125244
129785605,-0.749207,0.0649414,-0.647156,0.125122
129801926,-0.754395,0.0653687,-0.641479,0.123535
129824351,-0.75946,0.0662842,-0.635681,0.121887
129845593,-0.764893,0.0656128,-0.629211,0.121582
129861917,-0.770874,0.06427,-0.622192,0.120789
129891865,-0.777222,0.0636597,-0.614746,0.118347
129905631,-0.783936,0.0634155,-0.606934,0.114441
129921932,-0.791138,0.0640869,-0.598572,0.108826
129944318,-0.798828,0.0647583,-0.589355,0.102356
129965446,-0.806702,0.0652466,-0.579773,0.0947876
129981922,-0.814453,0.0650635,-0.569946,0.0872803
130004377,-0.825195,0.0661621,-0.555725,0.0775146
130025597,-0.83606,0.0715332,-0.540649,0.06073
130041880,-0.847229,0.0802612,-0.523499,0.0419922
130064324,-0.858887,0.0898438,-0.50354,0.0272827
130085468,-0.8703,0.0953369,-0.482788,0.0223999
130101962,-0.87915,0.0990601,-0.465759,0.0206909
130124372,-0.888733,0.102417,-0.446777,0.0137939
130145442,-0.896606,0.109497,-0.429138,0.00268555
130161921,-0.900757,0.116699,-0.418457,-0.00384521
130184473,-0.903259,0.121094,-0.411682,-0.00762939
130205599,-0.901733,0.123718,-0.414185,-0.010376
130221938,-0.899597,0.122681,-0.419128,-0.00463867
130244415,-0.894287,0.119141,-0.431458,-0.000305176
130265617,-0.886719,0.118408,-0.447021,-0.00189209
130281829,-0.877319,0.117676,-0.465332,-0.00109863
130304403,-0.864807,0.115479,-0.488708,0.00250244
130325573,-0.84906,0.113159,-0.516052,0.00610352
130341953,-0.830139,0.110229,-0.54657,0.00854492
130365872,-0.808167,0.109558,-0.578674,0.00531006
130385652,-0.78363,0.111633,-0.611145,-0.00164795
130401859,-0.756714,0.113281,-0.64386,-0.00793457
130424430,-0.728027,0.112732,-0.676208,-0.010376
130446911,-0.698303,0.109009,-0.707458,-0.00952148
130461943,-0.668213,0.101624,-0.737061,-0.00500488
130484439,-0.638,0.0940552,-0.764282,0.000427246
130506943,-0.608032,0.0843506,-0.789429,0.00756836
130521980,-0.579102,0.0756836,-0.811707,0.0127563
130544376,-0.551025,0.0684814,-0.831604,0.0150146
130566069,-0.525024,0.064209,-0.848572,0.0135498
130588543,-0.503357,0.0648193,-0.861633,0.0115356
130603518,-0.487732,0.0662231,-0.870422,0.0114136
130626241,-0.489807,0.0632935,-0.869446,0.0169678
130648821,-0.500977,0.0571899,-0.863281,0.0252686
130663618,-0.518677,0.0489502,-0.852844,0.0358887
130686041,-0.539429,0.0410767,-0.839844,0.0452881
130708766,-0.55835,0.036499,-0.827209,0.0526733
130723812,-0.565186,0.0355225,-0.822327,0.0565796
130746330,-0.5625,0.041687,-0.823792,0.057373
130768767,-0.568237,0.0414429,-0.819519,0.0617065
130783785,-0.582092,0.0332031,-0.809692,0.0672607
130806300,-0.594421,0.0288086,-0.800598,0.0707397
130828765,-0.604675,0.0250854,-0.792664,0.0744629
130843757,-0.612061,0.0272827,-0.786621,0.0770874
130866321,-0.616333,0.0338135,-0.782593,0.0817261
130888574,-0.620361,0.0375977,-0.778503,0.0883789
130903540,-0.624451,0.043335,-0.774719,0.0900269
130926067,-0.629456,0.0519409,-0.770142,0.0894165
130948527,-0.634949,0.0564575,-0.764954,0.0925293
130963517,-0.640381,0.0562134,-0.759827,0.0974121
130986033,-0.645081,0.0581665,-0.75531,0.10022
131008529,-0.650146,0.0618896,-0.750427,0.101685
131023526,-0.654541,0.0650635,-0.746094,0.103943
131046060,-0.65863,0.0655518,-0.741882,0.10791
131068584,-0.663452,0.0626831,-0.737244,0.111633
131083566,-0.668762,0.0612793,-0.732605,0.110901
131113723,-0.674011,0.0633545,-0.727905,0.109314
131128804,-0.678833,0.0633545,-0.723267,0.110168
131143775,-0.68335,0.0628052,-0.718811,0.111633
131166204,-0.687561,0.0632324,-0.714355,0.113892
131188831,-0.691345,0.0634766,-0.71051,0.115417
131203742,-0.694458,0.06427,-0.707092,0.117065
131226278,-0.697571,0.0638428,-0.703735,0.118958
131248684,-0.700806,0.0640259,-0.700439,0.119324
131263687,-0.704407,0.0639038,-0.69696,0.118652
131286195,-0.708191,0.064209,-0.693237,0.117676
131301898,-0.711853,0.0643921,-0.689392,0.117798
131323683,-0.715576,0.0650024,-0.685486,0.117798
131346198,-0.719177,0.0662231,-0.68158,0.117981
131361925,-0.7229,0.0673218,-0.677551,0.117798
131383663,-0.726746,0.0682983,-0.673462,0.116882
131406080,-0.730957,0.0692139,-0.669128,0.115417
131421835,-0.735107,0.0704346,-0.664673,0.113586
131443596,-0.73938,0.0714111,-0.660095,0.112183
131466058,-0.743835,0.0719604,-0.655212,0.110596
131481840,-0.748596,0.0726318,-0.650024,0.108765
131504964,-0.753662,0.0733643,-0.64447,0.106812
131526093,-0.75885,0.0730591,-0.638489,0.105591
131541896,-0.764587,0.0722656,-0.632141,0.103394
131565016,-0.770386,0.0717163,-0.625732,0.0996704
131586056,-0.776428,0.071106,-0.619019,0.0952759
131601868,-0.782471,0.0691528,-0.612061,0.0917358
131625033,-0.788696,0.0656738,-0.604919,0.088501
131646125,-0.79541,0.0623779,-0.597229,0.0827026
131661870,-0.802124,0.0606689,-0.589233,0.0760498
131685017,-0.808655,0.0578003,-0.581116,0.0713501
131706101,-0.814697,0.0533447,-0.573425,0.0683594
131721897,-0.821289,0.0499878,-0.564697,0.0645142
131745024,-0.827148,0.0483398,-0.556763,0.0600586
131766073,-0.828735,0.0494995,-0.55481,0.0551147
131782280,-0.833496,0.0526123,-0.548096,0.046814
131805005,-0.839844,0.0559692,-0.538513,0.0408325
131826099,-0.846619,0.0581665,-0.52771,0.0380859
131841872,-0.853821,0.0596924,-0.515869,0.0378418
131864985,-0.860413,0.060791,-0.504639,0.0375977
131886084,-0.865967,0.0611572,-0.495178,0.0352173
131901815,-0.870178,0.0619507,-0.488037,0.0291138
131925021,-0.872559,0.0629272,-0.48407,0.0200195
131946081,-0.872864,0.0629272,-0.483826,0.00946045
131961856,-0.870239,0.0617065,-0.48877,-0.00280762
131984992,-0.86554,0.0613403,-0.496887,-0.0153198
132006071,-0.858948,0.0593872,-0.50824,-0.0211182
132021867,-0.850708,0.0543823,-0.522461,-0.0210571
132045076,-0.841309,0.0487671,-0.538025,-0.019043
132066095,-0.831604,0.0426636,-0.55365,-0.0148926
132081885,-0.82019,0.0369263,-0.570801,-0.0117798
132105014,-0.807678,0.0317993,-0.588806,-0.0100708
132126041,-0.794312,0.0270386,-0.606934,-0.00946045
132141846,-0.780151,0.0221558,-0.625183,-0.00854492
132165053,-0.765442,0.0169067,-0.64325,-0.0067749
132186120,-0.750427,0.00982666,-0.66095,-0.00195312
132201866,-0.735291,-6.10352e-05,-0.677795,0.00732422
132225011,-0.720337,-0.0130005,-0.693237,0.020752
132246100,-0.705505,-0.0283813,-0.707275,0.0368042
132261848,-0.690796,-0.0453491,-0.719727,0.0534058
132285024,-0.676697,-0.0621948,-0.73053,0.0683594
132306085,-0.664307,-0.0787964,-0.73877,0.0823975
132321891,-0.65387,-0.0959473,-0.744263,0.0969238
132344365,-0.645691,-0.112305,-0.74707,0.11145
132366131,-0.639587,-0.127197,-0.747498,0.12677
132381900,-0.636108,-0.142151,-0.744873,0.142822
132404345,-0.636414,-0.154541,-0.73938,0.156494
132426134,-0.646362,-0.162842,-0.726807,0.166016
132441894,-0.652039,-0.165405,-0.719666,0.172058
132464408,-0.653992,-0.16449,-0.717163,0.175964
132486110,-0.653015,-0.163757,-0.717468,0.179199
132501871,-0.652771,-0.162903,-0.717102,0.182068
132524343,-0.65448,-0.16272,-0.714966,0.184692
132547509,-0.657349,-0.16156,-0.712524,0.184875
132561924,-0.660461,-0.156677,-0.711304,0.182617
132584384,-0.663391,-0.150269,-0.710693,0.179871
132607573,-0.665649,-0.145752,-0.709778,0.178833
132621929,-0.667969,-0.1427,-0.708008,0.179749
132644347,-0.670471,-0.141602,-0.705078,0.182678
132667555,-0.672485,-0.140137,-0.70282,0.185242
132681843,-0.674011,-0.137207,-0.701416,0.187073
132704419,-0.675232,-0.134277,-0.700195,0.189453
132727540,-0.676208,-0.133118,-0.698547,0.192688
132741932,-0.677185,-0.13269,-0.696838,0.19574
132764413,-0.678101,-0.131775,-0.695435,0.198303
132787642,-0.679138,-0.130798,-0.693787,0.200867
132801883,-0.680176,-0.129822,-0.692261,0.203308
132831324,-0.681152,-0.128784,-0.690857,0.205505
132847676,-0.681885,-0.127686,-0.689636,0.207825
132861910,-0.683105,-0.126892,-0.687866,0.210144
132884471,-0.684326,-0.126221,-0.686096,0.21228
132907644,-0.685791,-0.125549,-0.684204,0.214233
132921892,-0.687012,-0.125244,-0.682312,0.216614
132944480,-0.687561,-0.125183,-0.680847,0.219299
132967668,-0.687866,-0.125122,-0.679504,0.222412
132982017,-0.688538,-0.125732,-0.677917,0.224976
133004494,-0.689697,-0.125366,-0.676331,0.226379
133027582,-0.690613,-0.124817,-0.675049,0.2276
133048789,-0.691406,-0.124146,-0.674072,0.228577
133064474,-0.6922,-0.12323,-0.673035,0.229797
133087653,-0.692627,-0.122803,-0.671936,0.231873
133108805,-0.69342,-0.123657,-0.670349,0.233704
133124500,-0.694214,-0.123535,-0.669067,0.235046
133147633,-0.69519,-0.12262,-0.667725,0.236389
133168759,-0.696289,-0.122192,-0.666199,0.23761
133184465,-0.697205,-0.120972,-0.665161,0.238586
133207603,-0.697449,-0.119751,-0.664673,0.239746
133228846,-0.697998,-0.119385,-0.663818,0.240662
133244501,-0.698486,-0.118652,-0.663391,0.240906
133266938,-0.698792,-0.117981,-0.662964,0.241516
133288825,-0.699097,-0.117004,-0.662659,0.241882
133304471,-0.699524,-0.115662,-0.662292,0.24231
133326898,-0.69989,-0.114563,-0.661804,0.243042
133348818,-0.700195,-0.113892,-0.661316,0.243958
133364422,-0.700562,-0.113708,-0.660706,0.24469
133386928,-0.701294,-0.113403,-0.659912,0.244812
133410102,-0.701965,-0.11261,-0.659363,0.244751
133424438,-0.702393,-0.111755,-0.658997,0.244812
133446997,-0.702515,-0.111145,-0.658813,0.2453
133470165,-0.702332,-0.11084,-0.658875,0.245667
133484442,-0.702087,-0.110413,-0.65918,0.245789
133506938,-0.701782,-0.109924,-0.659546,0.245972
133530081,-0.70166,-0.109375,-0.65979,0.24585
133544448,-0.701538,-0.108704,-0.659973,0.246094
133566945,-0.701416,-0.108154,-0.660095,0.246216
133590229,-0.701599,-0.107727,-0.659912,0.246582
133604457,-0.702026,-0.107178,-0.659546,0.246582
133626967,-0.702332,-0.107239,-0.659058,0.246948
133650129,-0.702698,-0.107178,-0.65863,0.247009
133664518,-0.703247,-0.107239,-0.658081,0.246887
133686993,-0.703735,-0.106812,-0.657715,0.246643
133710109,-0.704285,-0.106873,-0.657043,0.246887
133724481,-0.704773,-0.107178,-0.656494,0.246887
133747017,-0.705078,-0.106812,-0.656128,0.247009
133770202,-0.7052,-0.1073,-0.655579,0.247803
133784510,-0.705505,-0.107727,-0.655212,0.247864
133806957,-0.706055,-0.10791,-0.654724,0.247559
133837586,-0.706543,-0.107971,-0.654236,0.247375
133844538,-0.707031,-0.108215,-0.653687,0.247375
133866967,-0.707458,-0.108337,-0.653198,0.247375
133890138,-0.707703,-0.108582,-0.65271,0.247681
133904487,-0.707947,-0.109192,-0.652222,0.248169
133926974,-0.708252,-0.109558,-0.651855,0.248169
133950161,-0.708435,-0.109253,-0.651794,0.247864
133971354,-0.708435,-0.109253,-0.651672,0.248108
133986945,-0.708374,-0.109253,-0.651672,0.248352
134010164,-0.708191,-0.108887,-0.651733,0.248901
134031272,-0.708008,-0.109375,-0.651367,0.250061
134047446,-0.708191,-0.109863,-0.651001,0.250305
134070151,-0.708496,-0.109741,-0.650635,0.250549
134091335,-0.70874,-0.110291,-0.649963,0.251282
134107013,-0.709106,-0.110107,-0.649414,0.251587
134120651,-0.709351,-0.109924,-0.648987,0.252319
134143254,-0.709656,-0.109985,-0.648376,0.25293
134166370,-0.710083,-0.110046,-0.647888,0.253052
134180669,-0.71051,-0.109802,-0.647339,0.253296
134203167,-0.710754,-0.109863,-0.64679,0.253906
134226134,-0.710693,-0.110107,-0.646301,0.255188
134240453,-0.710571,-0.110352,-0.645996,0.256287
134262937,-0.710388,-0.110657,-0.645813,0.25708
134286081,-0.710327,-0.110718,-0.64563,0.257568
134300407,-0.710266,-0.110352,-0.645691,0.257874
134322940,-0.710083,-0.109985,-0.645447,0.259094
134346109,-0.709778,-0.110352,-0.645203,0.260376
134360460,-0.709595,-0.110474,-0.645081,0.26123
134382984,-0.709778,-0.11084,-0.644714,0.261353
134406158,-0.710144,-0.111023,-0.644348,0.261292
134420503,-0.710388,-0.111023,-0.643982,0.261536
134443169,-0.710571,-0.110779,-0.643677,0.261841
134466325,-0.710632,-0.110474,-0.643494,0.262207
134480579,-0.710815,-0.110229,-0.643311,0.262268
134503179,-0.711182,-0.109192,-0.643372,0.261658
134526332,-0.711365,-0.108337,-0.643433,0.261475
134540737,-0.711426,-0.107971,-0.643311,0.261597
134563177,-0.711487,-0.107483,-0.64325,0.261719
134586356,-0.711548,-0.106995,-0.643311,0.26178
134600683,-0.711792,-0.105713,-0.643555,0.260986
134623095,-0.711609,-0.105042,-0.643677,0.261353
134646347,-0.711548,-0.105347,-0.643616,0.261597
134660665,-0.711426,-0.105286,-0.643555,0.262207
134683181,-0.711243,-0.105591,-0.643311,0.263062
134706173,-0.71106,-0.106262,-0.643066,0.263855
134720551,-0.710876,-0.106995,-0.643005,0.264282
134743083,-0.710693,-0.107422,-0.643127,0.264221
134766272,-0.710449,-0.107605,-0.643188,0.264587
134782012,-0.710083,-0.108032,-0.643311,0.265198
134803007,-0.709656,-0.108093,-0.643555,0.265686
134826345,-0.709167,-0.108521,-0.643738,0.266357
134840744,-0.708679,-0.10907,-0.643982,0.266968
134863233,-0.707947,-0.109802,-0.644226,0.267883
134886328,-0.707153,-0.110779,-0.64447,0.268982
134900621,-0.706482,-0.111877,-0.644531,0.270142
134923095,-0.705933,-0.112366,-0.644592,0.271301
134946419,-0.704651,-0.112671,-0.64502,0.273499
134960710,-0.702881,-0.115967,-0.645447,0.275635
134983203,-0.702026,-0.117188,-0.646423,0.275024
135006190,-0.701172,-0.117004,-0.647461,0.274841
135020700,-0.700012,-0.11792,-0.648193,0.275696
135043134,-0.699036,-0.118713,-0.648743,0.276489
135066273,-0.698425,-0.119141,-0.649048,0.277039
135080600,-0.698303,-0.119263,-0.64917,0.277161
135103057,-0.698486,-0.119019,-0.649292,0.276489
135126343,-0.698303,-0.117493,-0.649841,0.276245
135140649,-0.697815,-0.118042,-0.650085,0.276733
135163106,-0.697571,-0.118347,-0.650452,0.276367
135186296,-0.697266,-0.118469,-0.650757,0.276245
135200606,-0.69696,-0.11908,-0.65094,0.276367
135223175,-0.696777,-0.119507,-0.651062,0.276428
135246375,-0.696533,-0.120056,-0.651184,0.27655
135260734,-0.696472,-0.120361,-0.651245,0.276306
135283178,-0.696533,-0.120789,-0.651184,0.276245
135306227,-0.696533,-0.121521,-0.651001,0.276306
135320605,-0.696838,-0.121887,-0.650757,0.276001
135343171,-0.69696,-0.122009,-0.650635,0.275879
135365780,-0.697327,-0.122253,-0.65033,0.275513
135388862,-0.697815,-0.122498,-0.649902,0.275269
135403052,-0.69812,-0.12323,-0.649475,0.275146
135425770,-0.698547,-0.123779,-0.648987,0.275024
135440777,-0.699036,-0.12384,-0.648499,0.27478
135463130,-0.699402,-0.124146,-0.648132,0.274658
135485682,-0.699829,-0.124573,-0.647644,0.274414
135500695,-0.700317,-0.124939,-0.647278,0.273926
135523257,-0.700745,-0.125183,-0.647034,0.273376
135545800,-0.701111,-0.125183,-0.646912,0.272644
135560662,-0.701477,-0.124878,-0.646912,0.271912
135583174,-0.701599,-0.124634,-0.647034,0.271362
135605569,-0.701721,-0.124329,-0.647156,0.270935
135620731,-0.701782,-0.124207,-0.647217,0.270569
135643102,-0.701843,-0.124023,-0.647522,0.269775
135665810,-0.702026,-0.123413,-0.647949,0.268738
135688856,-0.701965,-0.122925,-0.648254,0.26825
135703264,-0.701904,-0.122803,-0.648499,0.267883
135725583,-0.701965,-0.122498,-0.648743,0.267334
135740709,-0.702087,-0.122131,-0.648865,0.266846
135763234,-0.702209,-0.122009,-0.648926,0.266479
135785740,-0.702393,-0.121826,-0.648926,0.26593
135800652,-0.702393,-0.121765,-0.648926,0.265991
135823175,-0.702393,-0.121765,-0.648926,0.265991
135845741,-0.702637,-0.12146,-0.648926,0.265625
135860661,-0.702637,-0.121094,-0.649109,0.265381
135883180,-0.702576,-0.121155,-0.649109,0.26532
135905600,-0.702637,-0.121033,-0.649292,0.264893
135920829,-0.70282,-0.120789,-0.649231,0.264648
135943028,-0.702881,-0.120422,-0.649231,0.264587
135965675,-0.703125,-0.11969,-0.649292,0.264221
135980766,-0.703186,-0.118591,-0.649597,0.263794
136003045,-0.703064,-0.117981,-0.649963,0.263428
136025530,-0.703064,-0.117493,-0.650208,0.262939
136040742,-0.703003,-0.116943,-0.650513,0.262756
136063228,-0.702881,-0.116394,-0.650818,0.262573
136085690,-0.70282,-0.115967,-0.651001,0.262329
136102084,-0.70282,-0.115295,-0.651245,0.262085
136123058,-0.702881,-0.114624,-0.651428,0.261902
136145811,-0.702881,-0.113892,-0.651611,0.261658
136161994,-0.702942,-0.113281,-0.651855,0.261108
136191375,-0.703064,-0.112732,-0.6521,0.260498
136205683,-0.703125,-0.112183,-0.652222,0.260315
136223409,-0.703064,-0.111694,-0.652405,0.260132
136243194,-0.702942,-0.110596,-0.652893,0.259766
136265705,-0.70282,-0.109558,-0.65332,0.259399
136282036,-0.702637,-0.108765,-0.653809,0.258972
136303122,-0.702393,-0.108215,-0.654236,0.258728
136325743,-0.702271,-0.107544,-0.654663,0.258423
136342086,-0.702148,-0.10675,-0.654907,0.25824
136363267,-0.702087,-0.106201,-0.65509,0.25824
136385719,-0.702087,-0.105835,-0.655151,0.25824
136402105,-0.702087,-0.105469,-0.655273,0.258179
136423091,-0.702148,-0.105103,-0.655273,0.25824
136445645,-0.702209,-0.104797,-0.655151,0.258484
136461969,-0.702332,-0.104919,-0.654907,0.258606
136483235,-0.702332,-0.104675,-0.654846,0.258911
136505664,-0.702271,-0.104675,-0.654724,0.259399
136522072,-0.702271,-0.104614,-0.654724,0.259399
136543193,-0.702271,-0.104431,-0.654785,0.259338
136565753,-0.702148,-0.104431,-0.654846,0.259583
136582066,-0.702148,-0.104431,-0.654846,0.259583
136603050,-0.702087,-0.104431,-0.654846,0.259583
136625757,-0.701965,-0.104614,-0.654907,0.259766
136642057,-0.701965,-0.104614,-0.654907,0.259766
136663105,-0.701965,-0.104614,-0.654907,0.259766
136685801,-0.701965,-0.104553,-0.654907,0.259766
136702047,-0.701904,-0.104614,-0.654846,0.260071
136732731,-0.701782,-0.104797,-0.654846,0.260315
136745657,-0.701721,-0.105042,-0.654785,0.260498
136762115,-0.701721,-0.105042,-0.654785,0.260498
136783213,-0.701904,-0.105103,-0.65448,0.260803
136805749,-0.701843,-0.105286,-0.654358,0.26123
136829604,-0.701843,-0.105286,-0.654236,0.261475
136843111,-0.701843,-0.105286,-0.654236,0.261475
136865737,-0.70166,-0.105591,-0.654175,0.261963
136882054,-0.70166,-0.105652,-0.654236,0.261902
136904557,-0.701721,-0.105408,-0.654236,0.261841
136925741,-0.701782,-0.105408,-0.654053,0.262146
136942095,-0.701843,-0.105469,-0.653748,0.262634
136963184,-0.701904,-0.105408,-0.653625,0.262939
136985611,-0.701904,-0.105408,-0.653564,0.262939
137002062,-0.701782,-0.105469,-0.653503,0.263306
137023191,-0.701721,-0.105591,-0.653503,0.263489
137045734,-0.701721,-0.105652,-0.653442,0.263733
137062048,-0.701599,-0.105713,-0.65332,0.26416
137084618,-0.701599,-0.105896,-0.653137,0.264648
137107032,-0.701538,-0.105957,-0.653015,0.265137
137122046,-0.701599,-0.106201,-0.652832,0.265259
137144617,-0.701599,-0.106201,-0.652832,0.265259
137165810,-0.701477,-0.106323,-0.652771,0.265625
137182118,-0.701477,-0.106567,-0.652588,0.266052
137204566,-0.701477,-0.106567,-0.652405,0.266479
137225741,-0.701355,-0.106628,-0.652344,0.266968
137241995,-0.70105,-0.10675,-0.652466,0.267456
137264633,-0.700989,-0.10675,-0.652466,0.267395
137285736,-0.700806,-0.106873,-0.652588,0.267639
137302028,-0.700684,-0.106873,-0.652649,0.267944
137324606,-0.700439,-0.106934,-0.652649,0.268494
137345805,-0.700134,-0.106934,-0.65271,0.269043
137362057,-0.700012,-0.10675,-0.652832,0.269165
137384582,-0.699829,-0.106567,-0.653015,0.269287
137405739,-0.699585,-0.106628,-0.653198,0.269531
137422073,-0.699402,-0.106384,-0.65332,0.269653
137445946,-0.699219,-0.105896,-0.653442,0.270142
137465805,-0.698914,-0.105652,-0.653625,0.270569
137482036,-0.698608,-0.105286,-0.65387,0.270813
137504631,-0.698364,-0.104736,-0.654297,0.270691
137525727,-0.69812,-0.10437,-0.654602,0.270752
137542083,-0.697937,-0.104065,-0.654846,0.270691
137564620,-0.697876,-0.103516,-0.65509,0.270447
137585683,-0.697937,-0.102295,-0.655457,0.269897
137602064,-0.697815,-0.101501,-0.65564,0.27002
137624559,-0.697571,-0.101746,-0.655762,0.270386
137645713,-0.69751,-0.101562,-0.655823,0.270508
137662122,-0.697388,-0.101562,-0.65564,0.271179
137684600,-0.697449,-0.101624,-0.655518,0.271301
137706366,-0.697449,-0.101257,-0.655396,0.271606
137721287,-0.697266,-0.101257,-0.655457,0.272034
137743853,-0.697205,-0.10083,-0.655518,0.272156
137766352,-0.697083,-0.100586,-0.655457,0.272766
137781385,-0.69696,-0.100586,-0.655396,0.273193
137803929,-0.697083,-0.100403,-0.655334,0.273254
137826441,-0.697083,-0.0998535,-0.655334,0.273376
137841460,-0.697021,-0.0996094,-0.655396,0.273499
137863926,-0.696777,-0.098999,-0.655701,0.273438
137886371,-0.696777,-0.0986328,-0.655762,0.273499
137901407,-0.696899,-0.0984497,-0.655579,0.273804
137923869,-0.69696,-0.0985107,-0.655396,0.274048
137946469,-0.697021,-0.0979004,-0.655396,0.274048
137961378,-0.697021,-0.0973511,-0.655518,0.273926
137983911,-0.697144,-0.0965576,-0.65564,0.27356
138006266,-0.697327,-0.0959473,-0.655457,0.273804
138021345,-0.697388,-0.0958252,-0.655212,0.27417
138043855,-0.697632,-0.0955811,-0.654907,0.274475
138066442,-0.697815,-0.0952148,-0.654846,0.274292
138081442,-0.697937,-0.0945435,-0.654907,0.274109
138103934,-0.697876,-0.0944824,-0.654907,0.274292
138126400,-0.697815,-0.0945435,-0.654907,0.274475
138141463,-0.697693,-0.0945435,-0.654663,0.275208
138163876,-0.697571,-0.0950928,-0.654358,0.276184
138186446,-0.697754,-0.0947876,-0.654175,0.276184
138202638,-0.697815,-0.0943604,-0.654175,0.276123
138223814,-0.697937,-0.0943604,-0.654236,0.275635
138246446,-0.697937,-0.0941772,-0.654419,0.275452
138262767,-0.697937,-0.0938721,-0.65448,0.275391
138283925,-0.697815,-0.0934448,-0.654663,0.275269
138306352,-0.697815,-0.0934448,-0.654663,0.27533
138322477,-0.697693,-0.093689,-0.654663,0.275635
138343884,-0.697693,-0.093689,-0.654663,0.275635
138366376,-0.697754,-0.0935059,-0.654663,0.275513
138382753,-0.697693,-0.0935059,-0.654663,0.275574
138403870,-0.697693,-0.0935059,-0.654663,0.275513
138426432,-0.697815,-0.0934448,-0.654541,0.275513
138442809,-0.697998,-0.0936279,-0.654297,0.275696
138463895,-0.698059,-0.093811,-0.653992,0.276245
138486457,-0.698059,-0.0941162,-0.653809,0.27655
138502810,-0.698242,-0.0939941,-0.653687,0.276489
138523906,-0.698242,-0.0939941,-0.653625,0.276489
138546365,-0.698242,-0.0941162,-0.653503,0.276733
138562733,-0.698242,-0.0941772,-0.653503,0.276672
138583908,-0.698242,-0.0941162,-0.653503,0.276733
138606412,-0.698242,-0.0942383,-0.653259,0.277283
138622726,-0.698364,-0.0946045,-0.652954,0.277649
138643813,-0.698364,-0.0942383,-0.652893,0.277893
138666332,-0.698364,-0.0947876,-0.652527,0.278503
138682679,-0.698364,-0.0949097,-0.652527,0.278442
138703961,-0.698425,-0.0944824,-0.652588,0.278259
138726280,-0.698425,-0.0944214,-0.652588,0.278259
138742780,-0.698303,-0.0946655,-0.652588,0.278564
138763902,-0.698303,-0.0942383,-0.652771,0.27832
138786394,-0.698486,-0.0939331,-0.652588,0.278381
138802662,-0.69873,-0.0941162,-0.652222,0.278625
138823933,-0.698914,-0.0944214,-0.651855,0.27887
138846409,-0.698975,-0.0947266,-0.651306,0.279785
138862772,-0.698853,-0.0961304,-0.650696,0.281067
138883888,-0.698792,-0.0974121,-0.650208,0.282043
138906255,-0.69873,-0.0988159,-0.649719,0.282837
138921966,-0.69873,-0.100159,-0.649109,0.283569
138943667,-0.698853,-0.10083,-0.648865,0.283752
138966195,-0.69928,-0.101074,-0.648438,0.283508
138981961,-0.699463,-0.101746,-0.648132,0.283447
139005163,-0.699707,-0.102417,-0.648071,0.282715
139026198,-0.700073,-0.102539,-0.648315,0.281311
139041986,-0.700439,-0.102356,-0.648499,0.279968
139063768,-0.700928,-0.102844,-0.648438,0.278809
139086262,-0.701294,-0.103699,-0.648193,0.278198
139101985,-0.701721,-0.104553,-0.648071,0.276978
139125177,-0.702515,-0.105286,-0.647827,0.275208
139146391,-0.703369,-0.106567,-0.647522,0.273315
139162547,-0.703979,-0.10791,-0.647156,0.271973
139185263,-0.704651,-0.109436,-0.646729,0.270752
139206412,-0.705444,-0.110535,-0.646362,0.269165
139222080,-0.706238,-0.111755,-0.645935,0.267578
139245272,-0.707275,-0.113647,-0.645447,0.265198
139266389,-0.708862,-0.114685,-0.644714,0.262207
139282013,-0.710327,-0.116211,-0.64386,0.259583
139305302,-0.712036,-0.116882,-0.643066,0.256775
139326407,-0.713989,-0.117676,-0.641785,0.254028
139342143,-0.716248,-0.119263,-0.640076,0.25116
139365249,-0.718689,-0.121033,-0.638184,0.248291
139386449,-0.72113,-0.12384,-0.636047,0.2453
139402114,-0.723755,-0.126221,-0.634094,0.241394
139425310,-0.726501,-0.12915,-0.631775,0.23761
139446414,-0.729187,-0.133118,-0.62915,0.234131
139462146,-0.732361,-0.138,-0.625793,0.230347
139485721,-0.736084,-0.142578,-0.622314,0.225098
139506432,-0.73999,-0.146912,-0.618652,0.219421
139522014,-0.744263,-0.151001,-0.614563,0.213623
139545141,-0.748657,-0.154968,-0.610474,0.207031
139566297,-0.75293,-0.160889,-0.606262,0.199341
139582017,-0.753052,-0.167725,-0.606812,0.191223
139605162,-0.748413,-0.170105,-0.614075,0.184326
139626248,-0.751648,-0.171082,-0.611938,0.177185
139642000,-0.756775,-0.178162,-0.604675,0.173035
139665266,-0.764282,-0.18335,-0.595398,0.16687
139686449,-0.772583,-0.188477,-0.584229,0.162537
139702035,-0.780762,-0.193909,-0.572021,0.160217
139725339,-0.787415,-0.200562,-0.560547,0.160034
139746358,-0.791809,-0.208801,-0.551025,0.160767
139762147,-0.793457,-0.215576,-0.545166,0.163635
139785358,-0.792297,-0.223572,-0.541443,0.170776
139806388,-0.787659,-0.232544,-0.540588,0.182495
139830235,-0.781372,-0.243774,-0.539917,0.196411
139845296,-0.77179,-0.255127,-0.542542,0.212097
139866477,-0.759583,-0.265991,-0.547913,0.228394
139882092,-0.744995,-0.27655,-0.555237,0.245483
139904542,-0.728333,-0.287231,-0.563293,0.264343
139926391,-0.709778,-0.297852,-0.571228,0.285156
139942172,-0.689453,-0.308655,-0.578308,0.308167
139964614,-0.66748,-0.32074,-0.583252,0.333923
139986083,-0.644104,-0.333679,-0.585815,0.361572
140002090,-0.620056,-0.346436,-0.586243,0.389771
140024651,-0.596497,-0.358704,-0.584778,0.416687
140046464,-0.574768,-0.369324,-0.582214,0.440918
140062063,-0.554749,-0.378967,-0.578308,0.462891
140084630,-0.53656,-0.388,-0.572998,0.482971
140107736,-0.519165,-0.39801,-0.565308,0.502563
140122124,-0.501465,-0.409302,-0.554504,0.523071
140144621,-0.484436,-0.420715,-0.541748,0.54303
140167766,-0.470337,-0.430115,-0.529175,0.560181
140182053,-0.460449,-0.437805,-0.517212,0.573486
140204579,-0.459839,-0.446716,-0.502441,0.580139
140227777,-0.462524,-0.456787,-0.488098,0.582458
140242146,-0.463074,-0.466797,-0.478516,0.582031
140264631,-0.46637,-0.468811,-0.476685,0.579285
140287759,-0.469177,-0.465149,-0.478149,0.578735
140308989,-0.469604,-0.46167,-0.479309,0.5802
140324625,-0.472717,-0.461243,-0.474182,0.582214
140347733,-0.475525,-0.4646,-0.467285,0.582825
140368912,-0.480103,-0.463623,-0.463928,0.582581
140384593,-0.485962,-0.462219,-0.462097,0.580261
140407771,-0.491272,-0.460938,-0.460571,0.577942
140428907,-0.492798,-0.461853,-0.45752,0.57843
140444584,-0.494019,-0.463562,-0.453674,0.579041
140467762,-0.495789,-0.464966,-0.449646,0.579529
140488988,-0.497864,-0.466187,-0.445068,0.580261
140504630,-0.499207,-0.467834,-0.439941,0.581787
140527744,-0.499817,-0.46936,-0.434875,0.583801
140548938,-0.499939,-0.471497,-0.429688,0.585815
140564567,-0.499512,-0.47406,-0.42572,0.586975
140587749,-0.499939,-0.475464,-0.423157,0.587341
140608958,-0.500366,-0.476746,-0.421143,0.587402
140624662,-0.500977,-0.477417,-0.419556,0.587463
140647807,-0.501404,-0.477905,-0.418335,0.587585
140669008,-0.501892,-0.478271,-0.417664,0.587402
140684583,-0.502747,-0.477966,-0.417847,0.586731
140707756,-0.503479,-0.478516,-0.417603,0.585815
140728887,-0.504456,-0.479492,-0.417297,0.584412
140744588,-0.505493,-0.480774,-0.416382,0.583069
140767800,-0.506104,-0.482483,-0.414734,0.582397
140788896,-0.506287,-0.484741,-0.413208,0.581421
140804598,-0.506714,-0.486816,-0.412109,0.580017
140827117,-0.50708,-0.489014,-0.411194,0.578552
140848973,-0.507202,-0.49115,-0.410706,0.576965
140864637,-0.507202,-0.493225,-0.409912,0.575745
140887113,-0.507019,-0.495544,-0.408997,0.574585
140908858,-0.507141,-0.49762,-0.408752,0.572876
140924605,-0.507874,-0.499329,-0.408997,0.570496
140947102,-0.508423,-0.501465,-0.409241,0.567993
140968793,-0.509094,-0.504089,-0.409546,0.564819
140984647,-0.509949,-0.507324,-0.409302,0.56134
141007111,-0.510498,-0.511475,-0.408813,0.557434
141030350,-0.511414,-0.51593,-0.408691,0.55249
141044714,-0.511963,-0.521057,-0.408508,0.547302
141067205,-0.512085,-0.527039,-0.40802,0.541809
141090334,-0.511414,-0.533875,-0.407532,0.536133
141104548,-0.510376,-0.542053,-0.406982,0.529297
141127160,-0.506165,-0.553101,-0.407715,0.521301
141150353,-0.504944,-0.557678,-0.410339,0.515442
141164705,-0.504211,-0.562317,-0.412415,0.50946
141187144,-0.505005,-0.568115,-0.41333,0.501465
141210254,-0.506836,-0.575623,-0.413574,0.490723
141224572,-0.511292,-0.583252,-0.413147,0.477295
141246427,-0.515686,-0.591675,-0.4104,0.464355
141260767,-0.519836,-0.600281,-0.403931,0.454285
141283943,-0.52179,-0.610718,-0.39447,0.446411
141306502,-0.520752,-0.623169,-0.383911,0.439514
141320753,-0.517883,-0.635803,-0.37207,0.434937
141343939,-0.513062,-0.647644,-0.361633,0.432007
141366462,-0.50769,-0.656677,-0.35144,0.433167
141380717,-0.499451,-0.667175,-0.336853,0.438171
141403979,-0.48822,-0.676758,-0.320435,0.448364
141426508,-0.474609,-0.684326,-0.304993,0.462036
141440720,-0.460205,-0.689026,-0.293152,0.477051
141463996,-0.445557,-0.690796,-0.285828,0.492554
141486473,-0.430298,-0.689392,-0.282288,0.509827
141500640,-0.415527,-0.68573,-0.280579,0.527649
141523917,-0.401611,-0.680359,-0.279419,0.545715
141546540,-0.386963,-0.674805,-0.276917,0.564148
141560711,-0.370667,-0.668884,-0.271729,0.58429
141584014,-0.352234,-0.662598,-0.264465,0.605835
141606426,-0.331909,-0.655701,-0.255432,0.628296
141620830,-0.30957,-0.648315,-0.244629,0.651184
141643842,-0.286316,-0.640503,-0.232727,0.673584
141666492,-0.262695,-0.632202,-0.220886,0.694641
141680812,-0.240967,-0.623047,-0.211365,0.713501
141703940,-0.220459,-0.613708,-0.203125,0.730408
141726381,-0.202271,-0.605347,-0.195618,0.744568
141740831,-0.185486,-0.59845,-0.186951,0.756653
141763942,-0.170593,-0.593262,-0.177246,0.766479
141786561,-0.162231,-0.593689,-0.16626,0.770447
141800772,-0.159363,-0.597961,-0.158752,0.769287
141823357,-0.167786,-0.604614,-0.154846,0.763123
141846482,-0.183899,-0.61554,-0.152344,0.751038
141860855,-0.195435,-0.622925,-0.151917,0.742065
141883832,-0.208191,-0.619324,-0.155151,0.740967
141906345,-0.214355,-0.61377,-0.154724,0.743958
141920760,-0.211304,-0.617859,-0.145508,0.743225
141943256,-0.208496,-0.629272,-0.135376,0.736389
141966505,-0.207581,-0.637878,-0.129944,0.730164
141980810,-0.214355,-0.643005,-0.128479,0.723938
142003177,-0.220703,-0.647949,-0.124084,0.718384
142026521,-0.223022,-0.651489,-0.117004,0.715637
142040883,-0.224487,-0.653625,-0.110474,0.714294
142063370,-0.227417,-0.654724,-0.105713,0.713074
142086511,-0.22937,-0.656067,-0.101685,0.711792
142100833,-0.231445,-0.657654,-0.0988159,0.710022
142123220,-0.233643,-0.658569,-0.0952148,0.708923
142146425,-0.234802,-0.660095,-0.0900269,0.707825
142160664,-0.235962,-0.662109,-0.085083,0.706238
142183353,-0.237427,-0.664185,-0.0812988,0.704224
142206457,-0.238342,-0.666382,-0.078064,0.702148
142220683,-0.239014,-0.66925,-0.0758057,0.699463
142243348,-0.239014,-0.672363,-0.0744629,0.696594
142266492,-0.239807,-0.674988,-0.0742798,0.693787
142280833,-0.240479,-0.677307,-0.0735474,0.691345
142303176,-0.240112,-0.679382,-0.0723267,0.689575
142326436,-0.240051,-0.680908,-0.0720825,0.688171
142340709,-0.241455,-0.682129,-0.0731812,0.68634
142363287,-0.243408,-0.683167,-0.074707,0.684448
142378322,-0.244995,-0.684326,-0.0767212,0.682495
142400689,-0.246948,-0.685547,-0.078186,0.68042
142423277,-0.248352,-0.686829,-0.0791626,0.678467
142438355,-0.249573,-0.688293,-0.0800171,0.676453
142460715,-0.250977,-0.689758,-0.0807495,0.674316
142483332,-0.251526,-0.691467,-0.0802002,0.672424
142498266,-0.252014,-0.69281,-0.0797729,0.670898
142520690,-0.251953,-0.694458,-0.079834,0.66925
142543399,-0.252441,-0.696289,-0.0805054,0.667053
142566506,-0.25293,-0.698486,-0.081543,0.66449
142580729,-0.253296,-0.70105,-0.0823364,0.66156
142603205,-0.253479,-0.703979,-0.0826416,0.658325
142626529,-0.253418,-0.707458,-0.0825195,0.654541
142640842,-0.253662,-0.711609,-0.0829468,0.649963
142663297,-0.254211,-0.715881,-0.083374,0.644958
142686399,-0.253845,-0.721069,-0.0834961,0.639282
142700895,-0.253723,-0.726807,-0.0844116,0.63269
142723315,-0.253662,-0.733032,-0.0848999,0.625427
142746555,-0.252258,-0.740173,-0.085144,0.617432
142768861,-0.250854,-0.747925,-0.0866089,0.608459
142783238,-0.248901,-0.755737,-0.0876465,0.599426
142806474,-0.247009,-0.763977,-0.0893555,0.589355
142820715,-0.245361,-0.7724,-0.0914917,0.578674
142843170,-0.243103,-0.780579,-0.0949097,0.567993
142866368,-0.24054,-0.786621,-0.10022,0.559814
142880802,-0.239929,-0.789307,-0.104614,0.555481
142903210,-0.242798,-0.796143,-0.105591,0.544128
142925841,-0.243103,-0.805969,-0.101013,0.530273
142940895,-0.239441,-0.817383,-0.0896606,0.516296
142963301,-0.237183,-0.82782,-0.0806885,0.501953
142985781,-0.23645,-0.836914,-0.0758057,0.487854
143000800,-0.237061,-0.843262,-0.0747681,0.476562
143023154,-0.237915,-0.84729,-0.0778198,0.468506
143045880,-0.23761,-0.84845,-0.0825195,0.465759
143060641,-0.235901,-0.847656,-0.0870361,0.467285
143083255,-0.233704,-0.844604,-0.0911255,0.472961
143105824,-0.230286,-0.839294,-0.0927124,0.483765
143120876,-0.224243,-0.831665,-0.0911255,0.499756
143151486,-0.215698,-0.823792,-0.0876465,0.516968
143165761,-0.205261,-0.814514,-0.0823975,0.536316
143180808,-0.195374,-0.803589,-0.0792847,0.556641
143203298,-0.187134,-0.79071,-0.0793457,0.577515
143235166,-0.178284,-0.775696,-0.0802002,0.600098
143240823,-0.169434,-0.758972,-0.081665,0.623352
143263169,-0.160645,-0.741089,-0.0817261,0.646729
143293693,-0.151184,-0.722595,-0.0782471,0.669983
143303606,-0.140076,-0.703613,-0.0706177,0.693054
143323379,-0.126404,-0.684265,-0.0587158,0.715759
143339673,-0.110107,-0.664673,-0.0444946,0.737671
143368862,-0.0930786,-0.644775,-0.0302734,0.758118
143391372,-0.0756836,-0.62561,-0.0169678,0.776306
143399656,-0.0599365,-0.607361,-0.00610352,0.792114
143420882,-0.0465698,-0.589966,0.00280762,0.806091
143443324,-0.0356445,-0.5755,0.0115356,0.816956
143459674,-0.0319824,-0.571655,0.0181885,0.819641
143480683,-0.0323486,-0.572388,0.0222168,0.819031
143503345,-0.0360718,-0.579163,0.024231,0.814026
143519646,-0.0427856,-0.592834,0.0258179,0.803772
143540669,-0.0476074,-0.608643,0.0281372,0.791504
143563321,-0.0532227,-0.612244,0.0302734,0.788269
143579583,-0.0580444,-0.610107,0.0349121,0.789429
143600740,-0.0535889,-0.610596,0.0442505,0.788879
143623260,-0.0476685,-0.616333,0.0534058,0.784241
143639614,-0.045166,-0.624207,0.0579834,0.777771
143662167,-0.0446777,-0.630127,0.0595093,0.772888
143683355,-0.0476074,-0.635315,0.0598755,0.768433
143699630,-0.0500488,-0.639526,0.0626221,0.764587
143722136,-0.0493774,-0.642456,0.0684814,0.761658
143743150,-0.0497437,-0.645203,0.0734863,0.75885
143759621,-0.0515747,-0.648254,0.0778809,0.755676
143782153,-0.0531616,-0.651489,0.0812378,0.752441
143803341,-0.0549927,-0.654541,0.083252,0.74939
143819636,-0.055481,-0.657532,0.0855713,0.74646
143842179,-0.0562134,-0.66156,0.0874634,0.742676
143863338,-0.0581055,-0.665527,0.0888672,0.73877
143879673,-0.0599976,-0.669006,0.0910034,0.735168
143902194,-0.0599976,-0.67157,0.0935669,0.732544
143923384,-0.0602417,-0.673767,0.0943604,0.730408
143939655,-0.0610352,-0.67627,0.0930786,0.72821
143962180,-0.0621338,-0.678345,0.0906982,0.726501
143983280,-0.0633545,-0.680176,0.0875244,0.725037
143999601,-0.0645142,-0.681824,0.0839233,0.723816
144022117,-0.0661011,-0.683655,0.0795898,0.722412
144043132,-0.0680542,-0.685669,0.0758667,0.720764
144059580,-0.0689087,-0.687622,0.0732422,0.719055
144082103,-0.069519,-0.689697,0.0712891,0.717224
144103422,-0.0692749,-0.6922,0.0702515,0.714966
144119723,-0.0687866,-0.695007,0.0688477,0.712402
144142207,-0.0689697,-0.697449,0.0678711,0.710083
144163370,-0.0684204,-0.699951,0.0678711,0.707642
144179622,-0.0678101,-0.702576,0.0675659,0.705139
144202154,-0.0673828,-0.705444,0.0671997,0.702332
144223473,-0.0670166,-0.708618,0.0670166,0.699219
144239760,-0.0663452,-0.711792,0.0668945,0.696045
144262202,-0.0665283,-0.715271,0.065918,0.692505
144283429,-0.06604,-0.718994,0.0655518,0.688782
144299713,-0.065918,-0.722656,0.0640869,0.685059
144322206,-0.065979,-0.726501,0.0628052,0.681091
144343334,-0.0654297,-0.730347,0.0621948,0.677124
144359753,-0.0651245,-0.734192,0.0609741,0.673035
144382176,-0.0654297,-0.738342,0.0591431,0.66864
144403299,-0.0651855,-0.742981,0.0575562,0.663696
144425675,-0.0643311,-0.747986,0.0559082,0.658203
144442270,-0.062561,-0.75354,0.0539551,0.652161
144463402,-0.0598755,-0.759399,0.0527954,0.645691
144479698,-0.0561523,-0.765747,0.0516357,0.638611
144502234,-0.0533447,-0.772278,0.048645,0.631226
144523267,-0.0510254,-0.778809,0.0457153,0.623535
144539683,-0.0499878,-0.785034,0.041687,0.616089
144562203,-0.0479126,-0.791931,0.0375977,0.607544
144591556,-0.0460205,-0.799438,0.0317993,0.598145
144599684,-0.0466309,-0.806946,0.0245361,0.588257
144622232,-0.0479126,-0.815063,0.0192871,0.577026
144644653,-0.0493164,-0.825073,0.0144043,0.562683
144659804,-0.0516357,-0.835449,0.00933838,0.547058
144682196,-0.0540161,-0.846069,0.00506592,0.530273
144711483,-0.0559692,-0.856018,0.00189209,0.513916
144719685,-0.0588989,-0.863159,-0.00012207,0.501465
144742176,-0.0602417,-0.869995,-0.00213623,0.489441
144764665,-0.0604248,-0.87616,-0.00183105,0.478271
144779662,-0.0598145,-0.881653,-0.0020752,0.468079
144802155,-0.0593262,-0.885498,-0.00366211,0.460815
144824009,-0.0579224,-0.88678,-0.00311279,0.458557
144846561,-0.0529785,-0.887085,-0.0010376,0.458557
144861529,-0.0482178,-0.88324,0.00317383,0.466492
144884019,-0.0415649,-0.877563,0.0105591,0.4776
144906400,-0.0332031,-0.870056,0.0217285,0.491394
144921586,-0.0249634,-0.860107,0.0331421,0.508423
144944040,-0.0167847,-0.849487,0.0430298,0.525635
144966563,-0.00799561,-0.837158,0.0532837,0.54425
144981511,0.000244141,-0.823181,0.0620728,0.564392
145003853,0.0067749,-0.807312,0.067627,0.586243
145026602,0.0123901,-0.789612,0.0720215,0.609253
145041507,0.017334,-0.770325,0.0768433,0.632751
145063968,0.0241089,-0.749329,0.0852051,0.65625
145086553,0.0339355,-0.726929,0.0976562,0.678894
145101596,0.0436401,-0.704041,0.109985,0.700195
145123956,0.0516968,-0.681702,0.119507,0.719971
145146550,0.0570679,-0.661133,0.126709,0.737305
145161403,0.0629272,-0.641785,0.136536,0.752014
145183921,0.0737305,-0.624512,0.152222,0.762451
145206571,0.0900879,-0.609436,0.173401,0.768372
145221529,0.109009,-0.597107,0.195312,0.770325
145243945,0.124146,-0.589355,0.212463,0.76947
145266466,0.135742,-0.593018,0.222717,0.76178
145281542,0.142395,-0.601562,0.226685,0.752625
145304031,0.142029,-0.614868,0.224609,0.742493
145327881,0.139282,-0.632263,0.21936,0.729858
145341391,0.136108,-0.650391,0.213257,0.716187
145365295,0.132202,-0.665527,0.207642,0.70459
145386316,0.130798,-0.676636,0.205261,0.694946
145401348,0.13208,-0.685913,0.207336,0.684875
145431356,0.136841,-0.692017,0.213013,0.676025
145446321,0.141785,-0.703064,0.218445,0.661682
145461376,0.1474,-0.716064,0.225647,0.64386
145483826,0.152771,-0.729858,0.231567,0.624756
145506352,0.151672,-0.744751,0.22821,0.608459
145521325,0.150757,-0.760071,0.223694,0.591248
145543902,0.150024,-0.775452,0.219788,0.572571
145566434,0.148926,-0.791077,0.215515,0.552795
145581364,0.147766,-0.805237,0.211914,0.533752
145603863,0.145203,-0.817078,0.20929,0.517212
145619636,0.144348,-0.823792,0.20697,0.507629
145641326,0.143494,-0.827148,0.20459,0.503357
145663835,0.145447,-0.829285,0.204163,0.499451
145679642,0.148987,-0.830322,0.201477,0.497742
145701425,0.151245,-0.828735,0.200745,0.5
145724071,0.156311,-0.822876,0.202271,0.507446
145739697,0.162842,-0.811646,0.202637,0.523071
145762880,0.168335,-0.804199,0.199036,0.534119
145783929,0.167358,-0.802124,0.188293,0.541382
145799674,0.165833,-0.811829,0.168396,0.533936
145822844,0.171387,-0.824463,0.156799,0.515991
145844096,0.182373,-0.83905,0.149597,0.490295
145866464,0.194031,-0.853516,0.143738,0.461731
145882885,0.204041,-0.868408,0.13916,0.429993
145904035,0.216125,-0.880981,0.137939,0.397644
145919712,0.227905,-0.890259,0.140381,0.368591
145942815,0.23999,-0.895752,0.143982,0.345337
145964117,0.250549,-0.899048,0.14978,0.326477
145979770,0.264038,-0.896667,0.168274,0.312988
146002874,0.274841,-0.890808,0.186951,0.309753
146024116,0.281006,-0.879822,0.202942,0.325195
146039680,0.283508,-0.866516,0.215515,0.349731
146062876,0.281189,-0.849182,0.227173,0.384949
146084029,0.276062,-0.825684,0.241882,0.428406
146107897,0.26886,-0.795654,0.260376,0.476257
146122938,0.255554,-0.760986,0.27655,0.528259
146144107,0.238342,-0.721436,0.29364,0.580017
146159648,0.216553,-0.679626,0.310547,0.628235
146182899,0.194214,-0.637817,0.328064,0.669128
146204108,0.175842,-0.596741,0.344177,0.703186
146219787,0.169556,-0.560242,0.359863,0.726501
146242967,0.152039,-0.533936,0.364075,0.747803
146264031,0.125916,-0.521667,0.356812,0.764648
146279683,0.100708,-0.523193,0.344788,0.772766
146302803,0.0823364,-0.532959,0.332947,0.773499
146324112,0.0678711,-0.552856,0.325256,0.76416
146339663,0.0736694,-0.574829,0.333252,0.743652
146362861,0.0840454,-0.603699,0.33783,0.717163
146383893,0.0888062,-0.630859,0.337708,0.692871
146400284,0.0993042,-0.658386,0.33844,0.664917
146422891,0.101135,-0.674438,0.341003,0.647034
146443917,0.102173,-0.695496,0.339417,0.624939
146459696,0.106873,-0.71051,0.345215,0.603821
146482827,0.107849,-0.724792,0.342346,0.588013
146503889,0.107666,-0.737305,0.33374,0.577393
146519696,0.10968,-0.744202,0.327393,0.571777
146542585,0.111511,-0.746399,0.321716,0.571777
146563870,0.113831,-0.745361,0.31665,0.5755
146586372,0.11261,-0.742004,0.308594,0.584351
146602143,0.11322,-0.737122,0.294861,0.597412
146623867,0.115051,-0.737488,0.27655,0.605286
146639667,0.113953,-0.739319,0.261108,0.610107
146662188,0.113892,-0.741943,0.255615,0.609314
146683871,0.121033,-0.748108,0.251099,0.602173
146699660,0.125427,-0.760376,0.242371,0.589294
146722216,0.127441,-0.778076,0.230957,0.570068
146745343,0.129883,-0.797241,0.217346,0.547974
146767786,0.129211,-0.817505,0.198792,0.524902
146782192,0.125977,-0.837708,0.176025,0.501404
146805318,0.124573,-0.853394,0.158203,0.480774
146819670,0.137512,-0.860718,0.16095,0.462952
146850303,0.15979,-0.862732,0.173584,0.447266
146865356,0.175476,-0.862183,0.176025,0.441406
146879726,0.190979,-0.856812,0.179382,0.444092
146902172,0.209717,-0.847717,0.182617,0.451721
146932827,0.22876,-0.833191,0.18866,0.466797
146939636,0.246399,-0.812988,0.195129,0.490112
146962164,0.259338,-0.788269,0.198975,0.521301
146985307,0.267578,-0.758972,0.203491,0.557556
147006374,0.269897,-0.72583,0.2099,0.596863
147030293,0.267334,-0.688293,0.221069,0.637085
147045292,0.265015,-0.645874,0.240784,0.674255
147066422,0.266235,-0.600891,0.269653,0.703796
147082235,0.278809,-0.548767,0.305725,0.726379
147105331,0.302979,-0.495178,0.34259,0.738647
147126395,0.333801,-0.442627,0.378906,0.740967
147142190,0.352295,-0.402649,0.404236,0.741821
147165306,0.362122,-0.377869,0.42334,0.739502
147186341,0.362427,-0.369141,0.431946,0.73877
147210349,0.350769,-0.386108,0.427185,0.738464
147225358,0.351746,-0.40686,0.426331,0.727295
147246406,0.359009,-0.427368,0.427795,0.710876
147262139,0.376465,-0.450562,0.429138,0.68634
147285304,0.39386,-0.468079,0.434692,0.660889
147306451,0.391724,-0.491516,0.431946,0.64679
147322196,0.377319,-0.511719,0.434814,0.637695
147345336,0.375244,-0.518188,0.439148,0.630676
147373832,0.391479,-0.517883,0.448547,0.614258
147382141,0.406738,-0.52002,0.44812,0.602722
147412843,0.402283,-0.528015,0.44519,0.600952
147426365,0.39917,-0.534546,0.443787,0.598267
147442193,0.397156,-0.535583,0.445129,0.597717
147464708,0.39502,-0.532959,0.448059,0.599243
147486430,0.393494,-0.529419,0.450806,0.601318
147502166,0.391113,-0.526978,0.452332,0.603882
147524688,0.388611,-0.525574,0.453674,0.605713
147546419,0.387024,-0.525085,0.455139,0.606018
147562194,0.386719,-0.523926,0.45813,0.60498
147584690,0.385559,-0.522095,0.46167,0.604614
147606377,0.383423,-0.521179,0.46405,0.604919
147622187,0.381348,-0.521545,0.465881,0.604492
147644673,0.380676,-0.521912,0.467773,0.603149
147667825,0.3797,-0.523376,0.468323,0.602112
147682135,0.379883,-0.52594,0.468262,0.599792
147704822,0.381042,-0.529053,0.468262,0.596252
147727993,0.383667,-0.531982,0.468262,0.592041
147742259,0.386292,-0.534119,0.468445,0.588196
147764781,0.388794,-0.535217,0.469482,0.584717
147787938,0.391418,-0.535645,0.47052,0.581726
147802195,0.395935,-0.536865,0.470703,0.577393
147832898,0.400391,-0.537048,0.469666,0.575012
147847888,0.402527,-0.53656,0.46936,0.57428
147862266,0.403259,-0.533142,0.470703,0.575806
147884766,0.402283,-0.529175,0.472717,0.578491
147907976,0.401794,-0.528198,0.473145,0.579346
147929187,0.401611,-0.528503,0.472595,0.579651
147944747,0.401123,-0.530273,0.471313,0.579407
147967979,0.401245,-0.533081,0.469604,0.578125
147990453,0.401917,-0.536499,0.467346,0.576294
148004757,0.402283,-0.539734,0.465271,0.574768
148027911,0.403259,-0.542786,0.463684,0.57251
148049084,0.405396,-0.545715,0.461975,0.569519
148064762,0.407776,-0.548889,0.460144,0.566223
148087903,0.40918,-0.552002,0.458679,0.563416
148109053,0.409485,-0.55481,0.457397,0.561523
148124825,0.408447,-0.557861,0.456055,0.560242
148155425,0.406494,-0.560547,0.4552,0.559692
148169105,0.405151,-0.562805,0.454834,0.558716
148184738,0.404907,-0.56427,0.454346,0.557861
148207911,0.404236,-0.56604,0.453369,0.557373
148229071,0.403809,-0.567688,0.452759,0.556458
148244790,0.404053,-0.569092,0.452576,0.554993
148267892,0.404785,-0.570129,0.452759,0.553223
148289102,0.405945,-0.570251,0.453552,0.551575
148304772,0.407104,-0.569885,0.454651,0.550171
148327894,0.408081,-0.569824,0.4552,0.549133
148349076,0.408447,-0.57019,0.455383,0.548279
148364784,0.408752,-0.570801,0.455505,0.547363
148387273,0.409241,-0.571228,0.455872,0.546143
148400800,0.409668,-0.571472,0.456421,0.545166
148424123,0.410095,-0.572083,0.45697,0.543762
148438407,0.410828,-0.572876,0.457275,0.542114
148460847,0.411438,-0.57373,0.457214,0.540771
148483915,0.41156,-0.57489,0.456848,0.539795
148498320,0.411194,-0.57605,0.456604,0.539062
148521020,0.411011,-0.577026,0.456482,0.538269
148544088,0.410828,-0.578064,0.45636,0.537292
148558314,0.410706,-0.578918,0.456543,0.536377
148580994,0.410461,-0.579529,0.45697,0.535522
148604148,0.4104,-0.580139,0.457581,0.534363
148618327,0.410156,-0.580627,0.458313,0.533386
148641009,0.409912,-0.581055,0.458984,0.532593
148664167,0.409607,-0.58136,0.459656,0.531921
148678494,0.409302,-0.581726,0.460144,0.53125
148700919,0.408752,-0.582092,0.460938,0.530579
148724181,0.408691,-0.582214,0.461975,0.529602
148738444,0.40863,-0.58252,0.462891,0.528564
148760880,0.408325,-0.582764,0.463806,0.52771
148784119,0.408081,-0.582825,0.464966,0.526794
148798444,0.407959,-0.583008,0.465881,0.52594
148820874,0.407593,-0.583313,0.466614,0.525208
148844140,0.407288,-0.583679,0.467407,0.524292
148858363,0.406921,-0.584045,0.468323,0.523315
148880940,0.406921,-0.58429,0.469421,0.522095
148904140,0.406616,-0.584656,0.470215,0.52124
148918432,0.406189,-0.585205,0.470825,0.520386
148940928,0.405945,-0.585571,0.471436,0.519592
148964100,0.405701,-0.585938,0.471924,0.518982
148978432,0.40509,-0.586487,0.47229,0.518494
149001015,0.404419,-0.586975,0.472839,0.517944
149024053,0.404053,-0.587402,0.473328,0.517334
149038358,0.403503,-0.587891,0.473755,0.516846
149060898,0.403076,-0.588257,0.474426,0.516113
149084118,0.402771,-0.588684,0.474915,0.515381
149098509,0.402344,-0.589172,0.475342,0.514771
149120846,0.402039,-0.589539,0.475769,0.51416
149144139,0.401672,-0.589966,0.476318,0.513489
149158312,0.401367,-0.59021,0.476807,0.512939
149180800,0.401001,-0.590515,0.477295,0.512451
149204136,0.400635,-0.59082,0.478027,0.511719
149218458,0.400146,-0.591064,0.47876,0.511169
149240907,0.399658,-0.591248,0.479431,0.510681
149264612,0.399048,-0.591492,0.479919,0.510376
149278490,0.398376,-0.591858,0.480408,0.510071
149300940,0.397705,-0.592102,0.481018,0.509766
149324182,0.397034,-0.592407,0.481262,0.509644
149338440,0.395874,-0.592896,0.481384,0.509888
149360832,0.394409,-0.593445,0.481812,0.51001
149383992,0.393555,-0.593567,0.482483,0.509888
149398457,0.3927,-0.593811,0.483154,0.509644
149420973,0.391907,-0.59375,0.484436,0.509094
149444094,0.391907,-0.593384,0.48584,0.508118
149458451,0.391846,-0.593079,0.48761,0.506897
149480975,0.39209,-0.592468,0.48938,0.505615
149512234,0.391968,-0.592346,0.490234,0.505066
149518469,0.391174,-0.59259,0.490906,0.504761
149540868,0.390564,-0.592529,0.491821,0.504395
149563491,0.389893,-0.592651,0.492371,0.504272
149578492,0.388977,-0.593201,0.492493,0.50415
149600947,0.388367,-0.593445,0.49353,0.503357
149623447,0.388611,-0.593201,0.49469,0.502319
149638404,0.388428,-0.593445,0.495178,0.501648
149660990,0.388367,-0.59375,0.495544,0.501038
149683522,0.387939,-0.593994,0.495911,0.500671
149698472,0.387634,-0.593872,0.496521,0.500488
149720969,0.386658,-0.594177,0.496704,0.500671
149743496,0.38562,-0.594604,0.496887,0.500793
149758510,0.38501,-0.594727,0.497314,0.500671
149780991,0.384705,-0.594727,0.497986,0.500305
149803497,0.384338,-0.59491,0.498169,0.500122
149818512,0.383911,-0.595215,0.498352,0.499939
149840976,0.383484,-0.595703,0.498047,0.5
149864826,0.382996,-0.596191,0.49823,0.499634
149878485,0.382874,-0.596497,0.498291,0.499268
149900960,0.382446,-0.596924,0.498291,0.499084
149923530,0.382202,-0.59729,0.49823,0.49884
149938539,0.382202,-0.597351,0.49823,0.498779
149960861,0.382202,-0.597412,0.49823,0.498718
149983432,0.382446,-0.597351,0.498596,0.49823
149998494,0.382446,-0.597351,0.498657,0.49823
150020966,0.382385,-0.597412,0.498657,0.498169
150052157,0.382446,-0.597229,0.498962,0.498108
150058459,0.382019,-0.597351,0.499023,0.498169
150080999,0.381958,-0.597168,0.49939,0.498108
150112268,0.381958,-0.596924,0.499695,0.498047
150126643,0.381775,-0.596863,0.500061,0.497925
150140955,0.381775,-0.596558,0.50061,0.497742
150163459,0.381897,-0.596436,0.500793,0.49762
150178550,0.381653,-0.596558,0.500793,0.497681
150200985,0.381714,-0.596375,0.50116,0.497437
150223512,0.381775,-0.596191,0.501526,0.497192
150238517,0.381775,-0.59613,0.501892,0.496948
150261018,0.381714,-0.59613,0.502197,0.496582
150283326,0.381714,-0.596008,0.502502,0.496521
150299861,0.381531,-0.596313,0.502258,0.49646
150321012,0.38147,-0.596375,0.502319,0.49646
150343493,0.381592,-0.596313,0.502502,0.496216
150359764,0.381287,-0.596558,0.502441,0.496277
150380977,0.381104,-0.596802,0.502563,0.495972
150403480,0.381348,-0.59668,0.503052,0.495422
150419867,0.381348,-0.59668,0.503052,0.495422
150441031,0.381287,-0.596741,0.503113,0.495361
150463541,0.38147,-0.59668,0.502808,0.495544
150479797,0.381287,-0.596558,0.503052,0.495605
150500807,0.38208,-0.59491,0.504517,0.495483
150531563,0.383118,-0.591125,0.506714,0.496948
150539763,0.383057,-0.588257,0.50885,0.49823
150561039,0.384094,-0.584961,0.511047,0.499084
150583428,0.384766,-0.582947,0.511536,0.500427
150599805,0.384521,-0.582214,0.511169,0.501831
150621015,0.384827,-0.581116,0.511353,0.502686
150651466,0.385193,-0.578796,0.511963,0.504456
150659766,0.386047,-0.576721,0.511597,0.506531
150680748,0.386597,-0.575134,0.510681,0.50885
150703324,0.387146,-0.573486,0.51001,0.510986
150719747,0.387573,-0.572205,0.508545,0.513489
150740732,0.387817,-0.572021,0.506409,0.515686
150763478,0.389282,-0.572083,0.503662,0.517151
150779799,0.390381,-0.573669,0.5,0.518188
150801025,0.392212,-0.575439,0.49646,0.518188
150823465,0.394348,-0.576355,0.493713,0.518127
150839886,0.396851,-0.577576,0.48999,0.518433
150861025,0.39856,-0.580566,0.484802,0.518616
150883569,0.400757,-0.584045,0.480225,0.517334
150899780,0.406311,-0.585999,0.476624,0.514099
150921038,0.409973,-0.589233,0.471313,0.512329
150943542,0.413757,-0.592041,0.465698,0.51123
150959873,0.417603,-0.594238,0.460938,0.509888
150981088,0.423889,-0.594482,0.457275,0.50769
151003344,0.429871,-0.594482,0.453247,0.506226
151019783,0.43512,-0.593933,0.44928,0.505981
151040947,0.440857,-0.592773,0.444946,0.506226
151063460,0.448364,-0.590942,0.440857,0.50531
151079796,0.458069,-0.58844,0.436584,0.503235
151100974,0.470032,-0.586243,0.430725,0.499878
151123567,0.482605,-0.584534,0.423157,0.496338
151139840,0.496826,-0.583679,0.413879,0.491028
151161059,0.514526,-0.583618,0.401184,0.483398
151183447,0.535156,-0.583008,0.387085,0.473083
151199803,0.554321,-0.580872,0.372498,0.465332
151220926,0.570129,-0.575012,0.361633,0.461975
151243505,0.593567,-0.566467,0.355957,0.447327
151267384,0.615845,-0.559753,0.350769,0.429321
151282362,0.635254,-0.554504,0.34729,0.410278
151303533,0.649292,-0.550903,0.351257,0.389343
151319794,0.662415,-0.542297,0.371216,0.359497
151342294,0.674011,-0.529053,0.403503,0.320801
151363627,0.683167,-0.505066,0.447815,0.278564
151379848,0.685791,-0.475891,0.493042,0.245056
151402286,0.683411,-0.444641,0.53363,0.224487
151423518,0.677063,-0.413269,0.568115,0.218994
151439874,0.666809,-0.386475,0.595032,0.227661
151462293,0.653442,-0.364319,0.617676,0.24231
151491767,0.642029,-0.346313,0.63562,0.252563
151499890,0.640076,-0.320251,0.654846,0.242493
151522356,0.647644,-0.286194,0.673584,0.211792
151543438,0.657166,-0.259827,0.6828,0.185181
151559850,0.674866,-0.25415,0.672241,0.167236
151582400,0.68573,-0.2771,0.652954,0.163025
151603329,0.700195,-0.279907,0.641541,0.140564
151619803,0.717529,-0.281433,0.625671,0.119751
151643730,0.731384,-0.287109,0.609253,0.106812
151663504,0.742249,-0.300903,0.588806,0.108337
151679815,0.751953,-0.305664,0.57489,0.102905
151702352,0.760071,-0.302551,0.567383,0.0936279
151723515,0.763062,-0.296143,0.566772,0.0932007
151739811,0.761475,-0.285217,0.57373,0.0980835
151762362,0.75708,-0.268921,0.585876,0.106018
151783586,0.752197,-0.249512,0.598511,0.117004
151799801,0.751587,-0.234802,0.603394,0.125916
151822458,0.753479,-0.226868,0.60199,0.13562
151843452,0.760681,-0.225952,0.592285,0.139465
151859866,0.776306,-0.22168,0.575012,0.132385
151882375,0.796997,-0.216187,0.551208,0.118774
151903416,0.818115,-0.212585,0.52417,0.103516
151919829,0.837463,-0.210144,0.496155,0.0907593
151942392,0.852905,-0.212463,0.468689,0.0876465
151964132,0.864502,-0.216858,0.444275,0.09021
151979053,0.874756,-0.213806,0.426636,0.0836792
152001661,0.877686,-0.204407,0.427917,0.0680542
152024228,0.882385,-0.185852,0.429626,0.0466919
152039163,0.882202,-0.159485,0.442444,0.0213013
152061666,0.875427,-0.131409,0.465088,0.00354004
152084141,0.861145,-0.102966,0.497742,-0.00622559
152099031,0.838623,-0.0725708,0.539673,-0.0134277
152121669,0.8078,-0.0465698,0.587402,-0.0125122
152144131,0.76886,-0.0286865,0.638672,-0.00488281
152159157,0.722351,-0.020874,0.691162,0.00421143
152181728,0.672058,-0.0151367,0.740295,0.00299072
152204186,0.625977,-0.000915527,0.779724,-0.0111694
152219242,0.589661,0.02771,0.806335,-0.034729
152241736,0.567383,0.0495605,0.820435,-0.0496216
152264195,0.562134,0.0432129,0.824341,-0.0496826
152279068,0.569458,0.0377197,0.819336,-0.0537109
152301805,0.59668,0.032959,0.799744,-0.0563965
152324257,0.62854,0.0186768,0.775391,-0.0570068
152339252,0.657837,0.0241089,0.74884,-0.0766602
152361660,0.687805,0.0357056,0.718384,-0.0973511
152384151,0.706787,0.0357056,0.697205,-0.113953
152400510,0.72821,0.0220337,0.675903,-0.110657
152421663,0.741943,0.0137939,0.661316,-0.109192
152444174,0.753479,0.0140381,0.647461,-0.113098
152460578,0.758423,0.0166626,0.640869,-0.116943
152481752,0.757751,0.0230103,0.641785,-0.11554
152504187,0.75415,0.027771,0.647766,-0.10376
152520506,0.75061,0.0303345,0.654114,-0.0880737
152541705,0.749207,0.0348511,0.657104,-0.0748901
152564144,0.749451,0.0372314,0.657959,-0.0629272
152580641,0.755981,0.0358887,0.651428,-0.0527344
152601785,0.769836,0.0355835,0.635559,-0.0459595
152624194,0.788269,0.0371094,0.612549,-0.0437012
152640563,0.810486,0.0352173,0.583252,-0.039856
152661664,0.832458,0.0346069,0.551697,-0.0371094
152684171,0.851746,0.0296631,0.522339,-0.026123
152700535,0.866089,0.0264282,0.498901,-0.0152588
152721732,0.875854,0.0321045,0.481079,-0.0164185
152744194,0.877319,0.0408936,0.477417,-0.0256348
152760649,0.875488,0.0454712,0.479553,-0.0371704
152789237,0.870789,0.0552368,0.485291,-0.0553589
152804155,0.85791,0.0662231,0.503784,-0.0761108
152820520,0.836975,0.0758057,0.533691,-0.0939331
152841596,0.807251,0.0858765,0.573425,-0.110168
152864011,0.770752,0.0945435,0.617981,-0.122437
152880616,0.727478,0.103516,0.665039,-0.132935
152901578,0.680664,0.104858,0.712646,-0.133179
152924224,0.632935,0.0994873,0.756287,-0.13208
152940494,0.582947,0.0965576,0.795776,-0.132324
152961662,0.540527,0.10791,0.822327,-0.141174
152984134,0.513611,0.124634,0.835083,-0.152466
153000489,0.510071,0.110718,0.840515,-0.144958
153021827,0.523376,0.0952759,0.835632,-0.136475
153044251,0.546692,0.0845947,0.822815,-0.130005
153060654,0.572632,0.0998535,0.800049,-0.148315
153081825,0.598877,0.121338,0.774109,-0.165283
153104245,0.624023,0.126526,0.750549,-0.176514
153119907,0.648682,0.115784,0.732361,-0.171387
153141777,0.673828,0.109131,0.710999,-0.168701
153164164,0.69989,0.10791,0.685181,-0.170166
153179940,0.716919,0.10968,0.667297,-0.169312
153201826,0.724792,0.109558,0.65918,-0.167419
153224131,0.726685,0.115967,0.656982,-0.163696
153239894,0.724792,0.126648,0.658264,-0.158997
153261770,0.722107,0.138184,0.660706,-0.151245
153284201,0.721252,0.146729,0.661621,-0.142883
153299838,0.723022,0.15387,0.65979,-0.134766
153323039,0.72876,0.154053,0.654724,-0.12793
153344107,0.740417,0.160583,0.641235,-0.121399
153366714,0.756348,0.167847,0.621094,-0.117859
153383072,0.776062,0.177246,0.593933,-0.116089
153404074,0.796265,0.184814,0.565063,-0.111389
153426787,0.815369,0.186646,0.539307,-0.0970459
153443032,0.83075,0.187012,0.517883,-0.0813599
153464214,0.840637,0.193726,0.499268,-0.0803833
153479881,0.841614,0.20105,0.492065,-0.0948486
153503008,0.838318,0.206116,0.493164,-0.106873
153524210,0.829346,0.206421,0.506287,-0.114746
153539878,0.815918,0.205139,0.526428,-0.122375
153563067,0.793823,0.204712,0.556213,-0.135986
153584224,0.762512,0.203064,0.594849,-0.153015
153599890,0.722046,0.202942,0.638,-0.174133
153623105,0.673767,0.203674,0.68219,-0.197693
153644120,0.622681,0.199707,0.725281,-0.215149
153659860,0.568237,0.19989,0.762573,-0.235718
153683053,0.512268,0.197205,0.79718,-0.251343
153704262,0.468506,0.197998,0.820618,-0.260376
153719860,0.441406,0.199707,0.834351,-0.262817
153743004,0.435547,0.192139,0.840515,-0.258423
153764135,0.44397,0.192932,0.836426,-0.256958
153779906,0.460815,0.196045,0.82666,-0.256531
153810531,0.481201,0.200684,0.812256,-0.261414
153824230,0.500732,0.204041,0.797729,-0.266724
153839818,0.523132,0.210938,0.776855,-0.279724
153863095,0.547058,0.21167,0.758606,-0.283386
153884201,0.573792,0.207886,0.741028,-0.279968
153899951,0.5979,0.200806,0.725342,-0.275696
153930628,0.618042,0.197266,0.709106,-0.276001
153944221,0.630432,0.192322,0.700195,-0.274231
153959846,0.639343,0.186096,0.696472,-0.267334
153983569,0.64325,0.182495,0.69635,-0.26062
154004310,0.643188,0.181885,0.69928,-0.253296
154019903,0.641113,0.183289,0.703247,-0.246338
154043060,0.638977,0.185242,0.707886,-0.236938
154064127,0.639282,0.185364,0.711304,-0.225647
154079875,0.642578,0.187561,0.710815,-0.215881
154102385,0.651733,0.188721,0.705139,-0.205811
154124108,0.668396,0.194702,0.69043,-0.196533
154140411,0.687439,0.209167,0.667664,-0.194458
154162367,0.705811,0.232666,0.638,-0.201355
154184159,0.723938,0.255615,0.606384,-0.206909
154199877,0.741638,0.273193,0.577026,-0.205505
154222359,0.757019,0.288635,0.551025,-0.199829
154244195,0.767883,0.30658,0.528442,-0.192627
154259835,0.773621,0.325623,0.511108,-0.184814
154282344,0.773743,0.346069,0.499146,-0.179688
154305515,0.766663,0.370117,0.491821,-0.182495
154319807,0.751282,0.396851,0.490967,-0.192322
154342284,0.727722,0.424194,0.497864,-0.206299
154365535,0.696228,0.449097,0.513733,-0.222534
154379827,0.658325,0.467651,0.539185,-0.238953
154402328,0.614929,0.480469,0.568787,-0.259583
154425511,0.566467,0.489563,0.597473,-0.287048
154439821,0.514771,0.495544,0.620239,-0.323486
154462317,0.455078,0.50885,0.629761,-0.370483
154485527,0.397339,0.532227,0.617554,-0.421143
154506569,0.349548,0.557617,0.595276,-0.460876
154522291,0.317871,0.579285,0.570862,-0.487305
154545544,0.305359,0.591736,0.553467,-0.500244
154566729,0.308289,0.597168,0.543396,-0.503052
154582319,0.328186,0.603882,0.532898,-0.493591
154605573,0.357117,0.602112,0.528137,-0.48053
154626772,0.377808,0.612,0.508301,-0.473572
154642443,0.389465,0.635681,0.475708,-0.466858
154665578,0.408752,0.646729,0.453369,-0.457275
154686739,0.431152,0.646912,0.444153,-0.445251
154702407,0.450073,0.647034,0.434937,-0.435303
154725602,0.460022,0.654785,0.417236,-0.430664
154746812,0.467957,0.660583,0.402588,-0.427246
154762394,0.47229,0.664246,0.394226,-0.424561
154785607,0.472168,0.666443,0.391663,-0.423584
154806794,0.466858,0.668274,0.39209,-0.426147
154822388,0.45697,0.6698,0.395325,-0.431458
154845606,0.444153,0.670349,0.402039,-0.437805
154866781,0.431702,0.674561,0.40686,-0.43927
154882349,0.42218,0.679749,0.41156,-0.436218
154905680,0.41571,0.682922,0.416016,-0.433167
154926806,0.4104,0.689148,0.414734,-0.429565
154942436,0.408386,0.700806,0.401062,-0.425659
154965648,0.403137,0.72168,0.378601,-0.41626
154986732,0.398376,0.747864,0.345764,-0.402954
155002367,0.396118,0.773499,0.310608,-0.385071
155031684,0.39386,0.797119,0.276184,-0.364929
155046791,0.391846,0.817261,0.245056,-0.344055
155062398,0.385193,0.835449,0.212158,-0.329468
155084889,0.371826,0.853088,0.177917,-0.319885
155106786,0.356201,0.866333,0.153625,-0.314636
155122441,0.339722,0.872803,0.138245,-0.321838
155144927,0.316345,0.880493,0.123901,-0.330566
155166730,0.288025,0.884583,0.116821,-0.347595
155182378,0.256653,0.883911,0.117188,-0.372803
155205003,0.223022,0.877136,0.12384,-0.40686
155228062,0.190002,0.862915,0.13501,-0.448303
155242385,0.159729,0.84082,0.147034,-0.495789
155264940,0.136719,0.81134,0.160095,-0.545288
155288027,0.11438,0.77887,0.158264,-0.595947
155302397,0.0806274,0.750671,0.131958,-0.642273
155324848,0.041748,0.726685,0.104187,-0.677734
155348107,0.00640869,0.710388,0.0776978,-0.699463
155362415,-0.00585938,0.699951,0.0697021,-0.710754
155384920,-0.00317383,0.698242,0.0681763,-0.712585
155408080,0.00592041,0.704468,0.0657959,-0.706665
155422388,0.0202637,0.722595,0.0628662,-0.68811
155453096,0.0325317,0.744995,0.053772,-0.664124
155468101,0.038269,0.765137,0.0394287,-0.641479
155489236,0.0432739,0.781128,0.0220947,-0.622498
155504952,0.0348511,0.793579,-0.00933838,-0.607422
155528095,0.0472412,0.807068,-0.00610352,-0.588562
155541105,0.0570679,0.819824,-0.00622559,-0.569763
155564241,0.0617065,0.829956,-0.0115356,-0.55426
155578531,0.0621948,0.834473,-0.015686,-0.547302
155601131,0.0609131,0.833923,-0.0166016,-0.548218
