timestamp,x,y,z,w
84595004635,0.295654,-0.23938,-0.0911865,0.920288
84595025973,0.295593,-0.23938,-0.0911255,0.920288
84595040968,0.295593,-0.23938,-0.0911255,0.920288
84595065852,0.295593,-0.23938,-0.0911255,0.920288
84595085948,0.295715,-0.239319,-0.0911255,0.920288
84595100995,0.295715,-0.239319,-0.0911255,0.920288
84595140317,0.295715,-0.239319,-0.0911255,0.920288
84595155166,0.295715,-0.239319,-0.0911255,0.920288
84595162427,0.295715,-0.239319,-0.0911255,0.920288
84595184619,0.295715,-0.239319,-0.0911255,0.920288
84595206677,0.295715,-0.239319,-0.0911255,0.920288
84595222535,0.295715,-0.239319,-0.0911255,0.920288
84595258970,0.295715,-0.239319,-0.0911255,0.920288
84595267768,0.295837,-0.239258,-0.0910034,0.920288
84595282278,0.296143,-0.239136,-0.0910034,0.920227
84595303265,0.296326,-0.239014,-0.0908813,0.920166
84595326425,0.296509,-0.239014,-0.0906982,0.920105
84595342235,0.296509,-0.239075,-0.0906982,0.920105
84595363298,0.29657,-0.239136,-0.0906982,0.920105
84595387959,0.296326,-0.239197,-0.0906982,0.920166
84595402224,0.296082,-0.239075,-0.0908203,0.920288
84595431450,0.295837,-0.238892,-0.0910034,0.920349
84595446470,0.295776,-0.238892,-0.0910034,0.92041
84595462265,0.295776,-0.238831,-0.0910034,0.92041
84595483310,0.295776,-0.238831,-0.0910034,0.92041
84595506456,0.295776,-0.238831,-0.0910034,0.92041
84595522225,0.295715,-0.238831,-0.0909424,0.92041
84595543307,0.295898,-0.239014,-0.0909424,0.920349
84595565710,0.296082,-0.239258,-0.0908813,0.920227
84595582229,0.296082,-0.239258,-0.0908813,0.920227
84595603243,0.296082,-0.239258,-0.0908813,0.920166
84595625770,0.296082,-0.239319,-0.0908813,0.920166
84595642223,0.296082,-0.239319,-0.0908813,0.920166
84595663277,0.296082,-0.239319,-0.0908813,0.920166
84595685741,0.296082,-0.239319,-0.0908813,0.920166
84595702235,0.296082,-0.239319,-0.0908813,0.920166
84595723278,0.296082,-0.239319,-0.0908813,0.920166
84595745751,0.296082,-0.239319,-0.0908813,0.920166
84595762229,0.296082,-0.239319,-0.0908813,0.920166
84595783259,0.295959,-0.239319,-0.0908813,0.920227
84595805769,0.295715,-0.239197,-0.0909424,0.920349
84595822219,0.295654,-0.239197,-0.0909424,0.920349
84595843289,0.295654,-0.239136,-0.0909424,0.920349
84595865835,0.295654,-0.239136,-0.0909424,0.920349
84595882231,0.295654,-0.239075,-0.0909424,0.92041
84595904749,0.295654,-0.239075,-0.0909424,0.92041
84595925820,0.295349,-0.238953,-0.0909424,0.920532
84595942217,0.295105,-0.238953,-0.0907593,0.920593
84595964739,0.295044,-0.238953,-0.090332,0.920654
84595985796,0.295227,-0.239136,-0.0895996,0.920654
84596002218,0.295227,-0.239014,-0.0886841,0.920715
84596024751,0.295105,-0.238464,-0.0877686,0.921021
84596045785,0.295288,-0.23761,-0.0870972,0.921265
84596062253,0.295715,-0.236511,-0.0866699,0.921448
84596084701,0.296143,-0.235474,-0.0864868,0.92157
84596105799,0.296082,-0.234985,-0.086731,0.921692
84596122258,0.293945,-0.234558,-0.0874023,0.922424
84596144728,0.291687,-0.234375,-0.0877686,0.923157
84596165773,0.289734,-0.234314,-0.088623,0.923706
84596182203,0.288452,-0.233887,-0.0899658,0.924072
84596205379,0.287048,-0.233276,-0.0913696,0.924561
84596225787,0.285217,-0.232178,-0.0925293,0.925293
84596242240,0.28363,-0.230774,-0.0939331,0.925964
84596264660,0.282349,-0.229004,-0.0953979,0.926636
84596285782,0.28125,-0.227234,-0.0968018,0.927246
84596302216,0.280945,-0.22583,-0.0984497,0.927551
84596324760,0.280151,-0.223511,-0.10083,0.928101
84596345800,0.278687,-0.220947,-0.103394,0.928894
84596362289,0.277954,-0.218323,-0.105835,0.929443
84596384755,0.27832,-0.216003,-0.107971,0.929626
84596405798,0.279236,-0.213745,-0.109985,0.929626
84596422262,0.279358,-0.211731,-0.111938,0.92981
84596444745,0.279358,-0.209656,-0.113525,0.930115
84596465775,0.27948,-0.207886,-0.114868,0.930298
84596482220,0.280212,-0.206421,-0.116516,0.930176
84596504725,0.279053,-0.205322,-0.117859,0.930603
84596525801,0.278687,-0.201904,-0.120056,0.931213
84596543654,0.278931,-0.198669,-0.122192,0.931519
84596564705,0.280151,-0.195679,-0.12439,0.931519
84596585851,0.281067,-0.192261,-0.12616,0.931702
84596602220,0.282349,-0.189636,-0.127563,0.931641
84596624756,0.28363,-0.187317,-0.128967,0.931519
84596645798,0.28479,-0.185303,-0.130127,0.931458
84596668368,0.285767,-0.183533,-0.131409,0.931274
84596684786,0.287048,-0.181824,-0.132874,0.93103
84596705764,0.287842,-0.180054,-0.13446,0.930908
84596722238,0.288696,-0.178162,-0.136047,0.930786
84596744704,0.289429,-0.176147,-0.137451,0.930725
84596765832,0.290527,-0.174011,-0.138611,0.930603
84596782253,0.291992,-0.171936,-0.139648,0.930359
84596804783,0.293701,-0.170044,-0.140381,0.930115
84596825850,0.29541,-0.167786,-0.140869,0.929871
84596842235,0.297607,-0.165344,-0.140991,0.929565
84596864787,0.301208,-0.162842,-0.141174,0.928833
84596887257,0.30542,-0.159973,-0.141479,0.927917
84596902256,0.310181,-0.15686,-0.141968,0.926819
84596924773,0.315063,-0.153748,-0.142883,0.925537
84596947234,0.319946,-0.150757,-0.143494,0.924255
84596962264,0.324036,-0.147461,-0.143738,0.92334
84596984738,0.327576,-0.144104,-0.143738,0.922607
84597007234,0.331543,-0.141479,-0.143616,0.921631
84597023698,0.335815,-0.139404,-0.143127,0.920471
84597044730,0.341003,-0.137634,-0.142517,0.918945
84597066418,0.345947,-0.135742,-0.141785,0.91748
84597088968,0.35022,-0.133606,-0.14093,0.916321
84597103935,0.354065,-0.131592,-0.139954,0.915222
84597126522,0.358826,-0.130066,-0.139038,0.913757
84597148958,0.364929,-0.129333,-0.138611,0.911499
84597163985,0.370239,-0.12854,-0.138794,0.909424
84597186549,0.37323,-0.127258,-0.139343,0.908325
84597208993,0.374146,-0.125854,-0.139954,0.90802
84597224011,0.374207,-0.124634,-0.140198,0.908142
84597246460,0.374634,-0.124023,-0.140137,0.90802
84597262954,0.375,-0.123596,-0.140076,0.907959
84597283951,0.375122,-0.123291,-0.140198,0.907959
84597306451,0.375183,-0.123291,-0.140198,0.907898
84597322994,0.374451,-0.12323,-0.139954,0.908264
84597344047,0.373291,-0.123474,-0.139465,0.908752
84597366519,0.371887,-0.124329,-0.13855,0.909363
84597382941,0.371155,-0.125854,-0.137085,0.909668
84597403939,0.372253,-0.128479,-0.135498,0.909119
84597426468,0.373413,-0.131226,-0.134033,0.908447
84597442948,0.373108,-0.133484,-0.132935,0.908447
84597463983,0.37146,-0.135254,-0.132263,0.908936
84597486474,0.36908,-0.136841,-0.131836,0.909729
84597502946,0.367065,-0.138367,-0.13147,0.910339
84597523960,0.365784,-0.139343,-0.131409,0.910767
84597546462,0.364807,-0.139709,-0.13147,0.911072
84597562921,0.363586,-0.139832,-0.13147,0.911499
84597583939,0.36261,-0.140381,-0.13147,0.911865
84597606465,0.36084,-0.140625,-0.131042,0.912537
84597622922,0.359558,-0.140869,-0.13031,0.913147
84597644415,0.359009,-0.141174,-0.129639,0.913391
84597666459,0.358521,-0.141968,-0.129272,0.913513
84597682928,0.357788,-0.142822,-0.129089,0.913696
84597703941,0.356873,-0.14325,-0.129089,0.914001
84597726462,0.356812,-0.143311,-0.129028,0.914062
84597742928,0.357605,-0.14325,-0.129211,0.913696
84597763955,0.35907,-0.14325,-0.129456,0.913086
84597786487,0.360168,-0.142883,-0.129639,0.912659
84597802291,0.360474,-0.142395,-0.129822,0.912598
84597823986,0.360474,-0.141724,-0.129883,0.91272
84597846492,0.360657,-0.141174,-0.129822,0.91272
84597862256,0.361206,-0.14093,-0.129761,0.912537
84597883977,0.362061,-0.140747,-0.129822,0.912231
84597906474,0.363159,-0.140686,-0.130005,0.911804
84597928960,0.364319,-0.14093,-0.130249,0.911255
84597943963,0.365112,-0.141113,-0.130432,0.910889
84597966465,0.36554,-0.141235,-0.130798,0.910645
84597982246,0.365479,-0.141235,-0.131226,0.910583
84598005414,0.365234,-0.141174,-0.13147,0.910645
84598026438,0.364929,-0.141174,-0.13147,0.910828
84598042298,0.364807,-0.141235,-0.131287,0.910828
84598065435,0.364929,-0.141479,-0.131104,0.910828
84598086469,0.365051,-0.141602,-0.130981,0.910767
84598102283,0.365112,-0.141602,-0.130981,0.910706
84598125402,0.365112,-0.141602,-0.130981,0.910706
84598146462,0.36499,-0.141602,-0.131042,0.910767
84598169015,0.364685,-0.141541,-0.130981,0.910889
84598185439,0.364624,-0.141541,-0.130981,0.91095
84598206457,0.364624,-0.141541,-0.130981,0.91095
84598222291,0.364868,-0.141602,-0.130859,0.910828
84598246094,0.364868,-0.141602,-0.130859,0.910828
84598266447,0.364685,-0.141418,-0.130859,0.91095
84598282219,0.364502,-0.141235,-0.130859,0.911072
84598305452,0.364624,-0.141052,-0.130737,0.911072
84598326522,0.364807,-0.14093,-0.130676,0.911011
84598342283,0.365479,-0.140991,-0.130615,0.910767
84598365431,0.36615,-0.141174,-0.130615,0.910461
84598386475,0.366516,-0.141479,-0.130493,0.910278
84598402247,0.366577,-0.141602,-0.130127,0.910278
84598426052,0.366943,-0.141418,-0.129639,0.910217
84598446487,0.368103,-0.141052,-0.128906,0.909912
84598462275,0.370483,-0.140564,-0.128296,0.909119
84598485935,0.373352,-0.139587,-0.127808,0.908142
84598506466,0.376221,-0.138184,-0.127441,0.907227
84598522291,0.378906,-0.136719,-0.127319,0.906372
84598545413,0.381104,-0.135376,-0.12738,0.905579
84598566502,0.38269,-0.134277,-0.127197,0.905151
84598582284,0.383667,-0.133301,-0.127014,0.904907
84598605443,0.384033,-0.132629,-0.126953,0.904846
84598626464,0.384033,-0.132629,-0.126953,0.904846
84598642254,0.383972,-0.132507,-0.126648,0.904907
84598665403,0.383423,-0.132019,-0.126404,0.905273
84598686440,0.382751,-0.131226,-0.126221,0.905701
84598702345,0.382507,-0.130615,-0.126038,0.905945
84598724809,0.382507,-0.130249,-0.12561,0.906067
84598746487,0.382385,-0.130188,-0.124817,0.906189
84598762298,0.382385,-0.130798,-0.124023,0.906189
84598784821,0.382629,-0.132202,-0.123413,0.906006
84598806484,0.382446,-0.134216,-0.12323,0.905823
84598822287,0.381104,-0.135925,-0.123413,0.906067
84598844783,0.379456,-0.137207,-0.123962,0.906555
84598867186,0.378723,-0.138184,-0.12439,0.906616
84598882287,0.37915,-0.139038,-0.124695,0.90625
84598904804,0.380127,-0.139343,-0.125,0.905762
84598927959,0.38092,-0.139221,-0.125183,0.905396
84598942248,0.381531,-0.138916,-0.125366,0.905212
84598964811,0.381714,-0.138489,-0.125366,0.905212
84598993997,0.382019,-0.138123,-0.125183,0.905151
84599002324,0.382385,-0.138,-0.124817,0.905029
84599024785,0.382812,-0.137939,-0.124573,0.904907
84599047946,0.382874,-0.137939,-0.124573,0.904907
84599062267,0.382507,-0.138,-0.124634,0.905029
84599084755,0.381958,-0.138062,-0.124817,0.905212
84599107926,0.381348,-0.138428,-0.124939,0.905396
84599122271,0.380676,-0.138916,-0.124939,0.905579
84599144817,0.38031,-0.139709,-0.124695,0.90564
84599167957,0.380249,-0.140442,-0.124512,0.90564
84599182282,0.380066,-0.14093,-0.124634,0.905579
84599204820,0.379272,-0.141296,-0.125061,0.905823
84599227934,0.377869,-0.141174,-0.125366,0.906372
84599242251,0.377014,-0.140686,-0.125061,0.90686
84599271546,0.37738,-0.140381,-0.124695,0.906799
84599287951,0.378235,-0.140137,-0.12439,0.906494
84599302338,0.379211,-0.139709,-0.124329,0.906189
84599324820,0.379761,-0.139282,-0.12439,0.906006
84599347934,0.379639,-0.138977,-0.124451,0.906067
84599362269,0.379395,-0.138916,-0.124512,0.906189
84599384818,0.378967,-0.139221,-0.124573,0.906311
84599407978,0.378601,-0.139404,-0.124634,0.906433
84599428998,0.378296,-0.139526,-0.124634,0.906555
84599444794,0.378296,-0.139526,-0.124634,0.906555
84599467982,0.378174,-0.139282,-0.124695,0.906616
84599489014,0.378052,-0.139038,-0.124756,0.906738
84599504776,0.37793,-0.138855,-0.124878,0.906799
84599527977,0.377625,-0.138672,-0.125,0.906921
84599549030,0.377075,-0.138428,-0.125061,0.907166
84599564846,0.376465,-0.138245,-0.125183,0.90741
84599588024,0.375488,-0.138184,-0.125244,0.907837
84599609010,0.373901,-0.138184,-0.125183,0.908508
84599624821,0.372253,-0.138306,-0.125122,0.90918
84599647932,0.370422,-0.138367,-0.125122,0.909912
84599669034,0.368835,-0.138611,-0.125122,0.910522
84599684831,0.367676,-0.138794,-0.125,0.91095
84599707346,0.36676,-0.138794,-0.124756,0.911377
84599729017,0.366211,-0.138672,-0.124573,0.911621
84599744819,0.36615,-0.138489,-0.124451,0.911682
84599767321,0.366577,-0.138367,-0.12439,0.91156
84599789085,0.366882,-0.138123,-0.124329,0.911499
84599804785,0.366943,-0.137695,-0.12439,0.911499
84599827297,0.366821,-0.137451,-0.124329,0.911621
84599849021,0.366821,-0.137451,-0.124329,0.911621
84599872962,0.366821,-0.137451,-0.124329,0.911621
84599887336,0.36676,-0.137451,-0.124329,0.911621
84599910494,0.36676,-0.137451,-0.124329,0.911621
84599924853,0.36676,-0.137451,-0.124329,0.911621
84599947311,0.366821,-0.137451,-0.124329,0.911621
84599970452,0.366821,-0.137573,-0.124512,0.91156
84599984783,0.366699,-0.137878,-0.124634,0.91156
84600007333,0.366699,-0.137878,-0.124634,0.91156
84600030550,0.366943,-0.137634,-0.124512,0.911499
84600044852,0.367676,-0.137512,-0.124451,0.911255
84600067321,0.368347,-0.137146,-0.12439,0.911011
84600090523,0.369263,-0.136597,-0.124268,0.910767
84600104799,0.370117,-0.135864,-0.124329,0.910522
84600127293,0.370667,-0.135376,-0.12439,0.910339
84600150508,0.370972,-0.13501,-0.124512,0.910278
84600164830,0.370972,-0.13501,-0.124512,0.910278
84600187321,0.370972,-0.134949,-0.124512,0.910278
84600210462,0.370972,-0.13501,-0.124512,0.910278
84600224820,0.371155,-0.135071,-0.124512,0.910156
84600247290,0.371521,-0.134888,-0.124573,0.910034
84600270434,0.371887,-0.134583,-0.124634,0.909912
84600292982,0.372253,-0.134338,-0.124695,0.909851
84600307332,0.372375,-0.134155,-0.124695,0.90979
84600330469,0.372559,-0.134033,-0.124695,0.909729
84600344793,0.372559,-0.134033,-0.124695,0.909729
84600367344,0.37262,-0.134033,-0.124695,0.909729
84600390503,0.37262,-0.134033,-0.124695,0.909729
84600411638,0.37262,-0.134033,-0.124695,0.909729
84600427837,0.372559,-0.134033,-0.124695,0.909729
84600450470,0.372803,-0.134033,-0.124756,0.909607
84600471566,0.372803,-0.134033,-0.124756,0.909607
84600487327,0.372864,-0.134033,-0.124756,0.909607
84600510501,0.372803,-0.134033,-0.124756,0.909607
84600531524,0.372803,-0.134033,-0.124756,0.909607
84600547330,0.372864,-0.133911,-0.124634,0.909668
84600570467,0.372864,-0.133911,-0.124634,0.909668
84600591614,0.372864,-0.133911,-0.124634,0.909607
84600607303,0.372864,-0.133911,-0.124634,0.909607
84600637991,0.373169,-0.133667,-0.124634,0.909546
84600652989,0.373169,-0.133667,-0.124634,0.909546
84600667341,0.373169,-0.133667,-0.124634,0.909546
84600689838,0.373169,-0.133667,-0.124634,0.909546
84600711535,0.373169,-0.133667,-0.124634,0.909546
84600727313,0.373108,-0.133606,-0.124634,0.909546
84600749819,0.37323,-0.133545,-0.124695,0.909546
84600771554,0.373535,-0.133606,-0.124695,0.909424
84600787343,0.373535,-0.133606,-0.124695,0.909424
84600809799,0.373535,-0.133606,-0.124695,0.909424
84600833007,0.373535,-0.133606,-0.124695,0.909424
84600847357,0.373535,-0.133606,-0.124695,0.909424
84600869834,0.373535,-0.133606,-0.124695,0.909424
84600893040,0.373596,-0.133606,-0.124695,0.909363
84600906569,0.373108,-0.133789,-0.124695,0.909546
84600920911,0.372742,-0.134033,-0.124573,0.909668
84600943407,0.372559,-0.134399,-0.124634,0.909668
84600966576,0.372192,-0.134644,-0.124634,0.90979
84600982350,0.371826,-0.134766,-0.124695,0.909912
84601003369,0.371582,-0.134827,-0.124756,0.910034
84601026595,0.371582,-0.134888,-0.124756,0.910034
84601040882,0.371582,-0.134827,-0.124756,0.910034
84601063396,0.371582,-0.134827,-0.124756,0.910034
84601086555,0.371521,-0.134827,-0.124756,0.910034
84601100935,0.371521,-0.134827,-0.124756,0.910034
84601123329,0.371582,-0.134827,-0.124756,0.910034
84601146581,0.371582,-0.134827,-0.124756,0.910034
84601160855,0.371521,-0.134827,-0.124756,0.910034
84601183409,0.371521,-0.134827,-0.124756,0.910034
84601206572,0.371521,-0.134827,-0.124756,0.910034
84601220886,0.371521,-0.134827,-0.124756,0.910034
84601243389,0.371521,-0.134827,-0.124817,0.910034
84601266544,0.371582,-0.134949,-0.124878,0.909973
84601280920,0.371582,-0.134949,-0.124878,0.909973
84601303382,0.371582,-0.134949,-0.124878,0.909973
84601326639,0.371582,-0.134949,-0.124878,0.909973
84601340985,0.371582,-0.134949,-0.124878,0.909973
84601363396,0.371582,-0.13501,-0.124878,0.909973
84601386557,0.371582,-0.13501,-0.124878,0.909973
84601400965,0.371399,-0.13501,-0.124817,0.910095
84601423346,0.371338,-0.13501,-0.124817,0.910095
84601446598,0.371338,-0.13501,-0.124817,0.910095
84601460853,0.371399,-0.13501,-0.124817,0.910095
84601483385,0.371033,-0.135132,-0.124817,0.910217
84601506602,0.370728,-0.135132,-0.124878,0.910278
84601520892,0.370728,-0.135132,-0.124878,0.910339
84601543419,0.370667,-0.135132,-0.124878,0.910339
84601568009,0.370667,-0.135132,-0.124878,0.910339
84601580882,0.370667,-0.135132,-0.124878,0.910339
84601603419,0.370667,-0.135132,-0.124878,0.910339
84601626571,0.370728,-0.134949,-0.124817,0.910339
84601640867,0.370911,-0.134644,-0.124634,0.910339
84601663376,0.371277,-0.134033,-0.12439,0.910278
84601686588,0.372009,-0.133728,-0.124268,0.910095
84601701119,0.37262,-0.133789,-0.124146,0.909851
84601724858,0.372864,-0.134033,-0.123901,0.909729
84601745957,0.372681,-0.134399,-0.123657,0.90979
84601760969,0.372253,-0.134888,-0.123413,0.909912
84601783444,0.371948,-0.135437,-0.123047,0.910034
84601805904,0.371704,-0.135864,-0.122681,0.910095
84601820905,0.371582,-0.136108,-0.122314,0.910156
84601843384,0.371399,-0.13623,-0.12207,0.910217
84601865989,0.371094,-0.13623,-0.12207,0.9104
84601881024,0.370911,-0.136169,-0.122314,0.9104
84601903472,0.370789,-0.13623,-0.122559,0.910461
84601925944,0.370667,-0.136353,-0.122742,0.910461
84601940883,0.3703,-0.136475,-0.122925,0.910522
84601963429,0.369751,-0.136536,-0.122986,0.910767
84601985973,0.369263,-0.136658,-0.123108,0.910889
84602000963,0.369202,-0.136597,-0.123108,0.91095
84602023388,0.369202,-0.136597,-0.123108,0.91095
84602045905,0.369202,-0.136597,-0.123108,0.91095
84602060957,0.36908,-0.136475,-0.122925,0.911072
84602091552,0.369507,-0.13623,-0.122742,0.91095
84602105930,0.370422,-0.136475,-0.122559,0.910522
84602120965,0.370972,-0.136841,-0.12262,0.910278
84602143451,0.370728,-0.137146,-0.122864,0.910278
84602165980,0.370178,-0.137451,-0.123169,0.9104
84602180960,0.369873,-0.137939,-0.123291,0.910461
84602203461,0.369934,-0.138184,-0.12323,0.9104
84602225936,0.370544,-0.138367,-0.123169,0.910095
84602240997,0.370911,-0.138428,-0.12323,0.909973
84602263410,0.370789,-0.138428,-0.123474,0.909973
84602286020,0.370422,-0.138428,-0.123718,0.910095
84602300907,0.370117,-0.138489,-0.123779,0.910156
84602324938,0.370117,-0.138489,-0.123779,0.910217
84602345933,0.370117,-0.138489,-0.123779,0.910217
84602360860,0.370239,-0.138184,-0.123657,0.910217
84602383407,0.370483,-0.137817,-0.123596,0.910156
84602405985,0.370728,-0.137573,-0.123535,0.910095
84602420987,0.370667,-0.137268,-0.123596,0.910217
84602443448,0.370605,-0.136963,-0.123291,0.910278
84602465880,0.371216,-0.136597,-0.122864,0.910156
84602480955,0.372437,-0.136414,-0.122375,0.909729
84602503402,0.373596,-0.136047,-0.122131,0.909363
84602525956,0.373962,-0.135254,-0.122192,0.909363
84602542435,0.374451,-0.134277,-0.122253,0.909241
84602563474,0.375061,-0.133179,-0.121887,0.909241
84602585875,0.37616,-0.132263,-0.121216,0.908997
84602602377,0.377808,-0.131653,-0.1203,0.908508
84602623382,0.379211,-0.131104,-0.119324,0.908142
84602647368,0.379944,-0.130676,-0.118347,0.90802
84602662377,0.38031,-0.130371,-0.117554,0.90802
84602683453,0.380615,-0.130249,-0.116455,0.90802
84602705978,0.381165,-0.13031,-0.115234,0.907959
84602722375,0.381775,-0.130798,-0.113953,0.907837
84602743486,0.381836,-0.131348,-0.112854,0.907837
84602765981,0.381226,-0.131897,-0.112061,0.908081
84602782358,0.380371,-0.13269,-0.111572,0.908386
84602803394,0.379089,-0.133789,-0.11084,0.908875
84602825995,0.377808,-0.135071,-0.109741,0.909363
84602842358,0.376526,-0.13678,-0.108521,0.90979
84602871345,0.375,-0.138916,-0.107361,0.910217
84602885944,0.373413,-0.141357,-0.106689,0.910583
84602902356,0.371155,-0.143555,-0.106506,0.911194
84602923435,0.36792,-0.145447,-0.106506,0.91217
84602945962,0.363525,-0.146545,-0.106628,0.913757
84602962394,0.358521,-0.1474,-0.106628,0.915588
84602983399,0.353699,-0.148499,-0.106628,0.917297
84603006028,0.349792,-0.149719,-0.106445,0.918579
84603022415,0.346558,-0.15033,-0.106018,0.9198
84603043446,0.344299,-0.150757,-0.105347,0.920654
84603065956,0.345337,-0.152161,-0.104126,0.920166
84603082402,0.349548,-0.153992,-0.102173,0.918457
84603103456,0.354614,-0.155273,-0.0999146,0.916565
84603125961,0.358704,-0.155334,-0.0975952,0.915222
84603142377,0.363159,-0.154419,-0.0948486,0.913879
84603163399,0.36792,-0.152527,-0.0916138,0.912659
84603185935,0.373901,-0.150024,-0.0872803,0.911072
84603203827,0.382202,-0.146057,-0.0822754,0.908691
84603223484,0.392212,-0.141174,-0.0767822,0.905701
84603245948,0.402588,-0.137573,-0.069519,0.902283
84603262380,0.41333,-0.134094,-0.062439,0.898438
84603283404,0.424927,-0.131592,-0.0540771,0.893921
84603305936,0.433533,-0.127625,-0.0476685,0.890747
84603328439,0.445923,-0.127625,-0.0366821,0.885132
84603343441,0.451538,-0.122375,-0.0374146,0.882996
84603365991,0.45813,-0.12085,-0.0220337,0.88031
84603382396,0.463501,-0.11676,-0.0180664,0.878113
84603403472,0.467468,-0.117432,-0.00970459,0.876099
84603425944,0.467773,-0.11554,-0.00311279,0.876221
84603442356,0.463989,-0.111938,0.00292969,0.878662
84603464926,0.461182,-0.107666,0.0103149,0.880676
84603485934,0.460876,-0.102539,0.0180664,0.881287
84603502373,0.462708,-0.0971069,0.0270386,0.880737
84603524969,0.4646,-0.090332,0.0361938,0.880127
84603545991,0.465698,-0.0817871,0.0456543,0.879944
84603569952,0.46637,-0.0715942,0.055603,0.879883
84603584969,0.46698,-0.0609131,0.0658569,0.879639
84603605986,0.467712,-0.0497437,0.076416,0.879089
84603622395,0.469116,-0.0374756,0.0872192,0.877991
84603644947,0.470581,-0.0239258,0.0980225,0.876526
84603665965,0.471252,-0.00927734,0.108643,0.875183
84603682502,0.471619,0.00549316,0.119019,0.873657
84603691067,0.471619,0.00549316,0.119019,0.873657
84603692636,0.462708,-0.0971069,0.0270386,0.880737
84603698621,0.4646,-0.090332,0.0361938,0.880127
84603704998,0.471863,0.0202637,0.128967,0.871887
84603725948,0.471252,0.0346069,0.138916,0.870239
84603742408,0.469543,0.0494385,0.149231,0.868774
84603764951,0.467529,0.0646973,0.159729,0.866943
84603785984,0.466187,0.0795288,0.170044,0.864502
84603802359,0.466187,0.0941162,0.179565,0.861084
84603824941,0.466736,0.107605,0.188293,0.857361
84603845949,0.467529,0.1203,0.196228,0.853455
84603862369,0.467773,0.131409,0.203308,0.849976
84603884952,0.465515,0.141663,0.209351,0.848083
84603905954,0.459106,0.150391,0.215149,0.848633
84603922356,0.451965,0.156982,0.220398,0.849915
84603944932,0.44928,0.162598,0.224304,0.849304
84603965931,0.4505,0.167969,0.226807,0.846924
84603988458,0.452759,0.173584,0.228638,0.844116
84604004934,0.454773,0.179749,0.230774,0.841125
84604025950,0.456299,0.186462,0.233154,0.838196
84604048469,0.457703,0.192871,0.235718,0.835205
84604064958,0.460144,0.198669,0.237793,0.831909
84604085966,0.464905,0.204346,0.239502,0.827454
84604108484,0.470276,0.209412,0.241882,0.822449
84604124988,0.473999,0.213318,0.245056,0.818298
84604145966,0.476868,0.216309,0.248413,0.81488
84604168438,0.47937,0.21759,0.251648,0.812073
84604184931,0.481323,0.217041,0.25415,0.810242
84604205960,0.482666,0.214966,0.256165,0.809387
84604228441,0.484436,0.212341,0.257385,0.808655
84604244939,0.486816,0.209839,0.257996,0.807617
84604265941,0.489136,0.207397,0.258728,0.806641
84604288461,0.491577,0.205139,0.259705,0.80542
84604305551,0.494385,0.202698,0.261108,0.803833
84604325939,0.498108,0.200134,0.262573,0.801758
84604348475,0.502136,0.197571,0.263367,0.799561
84604364973,0.506104,0.194519,0.264099,0.797607
84604385957,0.508362,0.191406,0.264893,0.796631
84604408465,0.509827,0.189941,0.26416,0.796326
84604424947,0.511963,0.190125,0.261902,0.795654
84604447414,0.515869,0.190491,0.257629,0.794434
84604468423,0.519714,0.191284,0.252075,0.793457
84604484954,0.521912,0.19281,0.246582,0.793457
84604507399,0.5224,0.194458,0.241394,0.794312
84604528445,0.522278,0.195496,0.236938,0.795471
84604544929,0.523132,0.19574,0.232788,0.796082
84604567399,0.524597,0.194946,0.229126,0.796387
84604588489,0.526001,0.192505,0.226257,0.796814
84604604950,0.526489,0.188843,0.225098,0.797729
84604627409,0.527832,0.185242,0.224854,0.797729
84604648490,0.529114,0.181519,0.225952,0.797424
84604664947,0.53186,0.177002,0.228149,0.796021
84604687417,0.537476,0.171936,0.230774,0.792603
84604708473,0.5448,0.166199,0.235291,0.787476
84604724941,0.553406,0.160645,0.241089,0.780823
84604746629,0.562012,0.152466,0.249268,0.773743
84604769160,0.570312,0.147339,0.25769,0.765869
84604784102,0.570251,0.148376,0.260315,0.764771
84604806602,0.557251,0.150146,0.259399,0.774292
84604829099,0.544556,0.152039,0.256042,0.783997
84604844111,0.545044,0.154663,0.251831,0.784546
84604866595,0.554382,0.154297,0.250366,0.778503
84604889087,0.560852,0.151184,0.25177,0.774048
84604904113,0.559448,0.146912,0.254333,0.775024
84604926617,0.554321,0.144409,0.255981,0.778625
84604949136,0.551758,0.14386,0.25769,0.779968
84604964133,0.554749,0.145142,0.259399,0.777039
84604986682,0.56073,0.147156,0.260193,0.772095
84605009136,0.564697,0.148438,0.261292,0.768616
84605024210,0.564575,0.148438,0.263123,0.768066
84605046619,0.561829,0.147461,0.264893,0.769592
84605069156,0.558899,0.146118,0.266052,0.771606
84605084812,0.557251,0.144531,0.266235,0.77301
84605106661,0.556824,0.142822,0.265625,0.773865
84605122415,0.556702,0.141357,0.264587,0.774597
84605145585,0.556091,0.140442,0.263367,0.775635
84605166648,0.55426,0.139832,0.261658,0.777588
84605189217,0.553162,0.140442,0.25946,0.779053
84605204110,0.553284,0.141235,0.257446,0.77948
84605226605,0.553406,0.141296,0.256287,0.779724
84605249161,0.553345,0.140625,0.256104,0.779968
84605264092,0.553711,0.139893,0.256531,0.779724
84605286676,0.554138,0.139343,0.257385,0.779175
84605302453,0.554138,0.139282,0.258118,0.778992
84605324224,0.554077,0.139221,0.258484,0.77887
84605346724,0.554932,0.139038,0.258667,0.778259
84605362971,0.555725,0.138733,0.259094,0.777588
84605384186,0.555969,0.138245,0.259705,0.777344
84605406641,0.555908,0.137756,0.260254,0.777222
84605422476,0.555969,0.137695,0.260315,0.777222
84605443971,0.556458,0.137329,0.260315,0.776917
84605466664,0.557007,0.136658,0.26062,0.77655
84605482462,0.557373,0.135925,0.261108,0.776245
84605504591,0.557678,0.135498,0.261475,0.776001
84605526620,0.557678,0.135498,0.261475,0.776001
84605542467,0.557617,0.135498,0.261475,0.776001
84605565627,0.5578,0.135498,0.261414,0.77594
84605586668,0.557922,0.135315,0.261292,0.775879
84605602452,0.557922,0.135315,0.261292,0.775879
84605625614,0.557861,0.135437,0.261108,0.776001
84605654236,0.557861,0.135437,0.261108,0.776001
84605662451,0.558105,0.135498,0.26123,0.775757
84605685628,0.558594,0.135559,0.261353,0.77533
84605706704,0.55896,0.135498,0.261414,0.775085
84605722494,0.558838,0.135376,0.261353,0.775208
84605745611,0.558472,0.134949,0.261414,0.775513
84605766745,0.558228,0.134521,0.261597,0.775696
84605782424,0.558167,0.134277,0.261719,0.775818
84605805641,0.557861,0.134338,0.261536,0.776062
84605826667,0.557617,0.134521,0.261414,0.776184
84605842451,0.557678,0.134888,0.261353,0.776123
84605865609,0.557922,0.135254,0.261414,0.775879
84605886673,0.558105,0.13562,0.261475,0.775635
84605902442,0.55835,0.136047,0.261353,0.775452
84605931683,0.55835,0.136047,0.261353,0.775452
84605946629,0.558411,0.136047,0.261353,0.775452
84605962428,0.558411,0.136047,0.261353,0.775452
84605985614,0.557983,0.136108,0.261475,0.775635
84606006682,0.557373,0.136047,0.261536,0.776123
84606022446,0.557312,0.136047,0.261536,0.776123
84606045603,0.557312,0.135986,0.261536,0.776123
84606066642,0.557312,0.135986,0.261536,0.776123
84606082416,0.557312,0.135986,0.261597,0.776123
84606105556,0.557495,0.136169,0.261719,0.77594
84606126641,0.557983,0.136597,0.261658,0.775513
84606142454,0.558472,0.137024,0.261658,0.775085
84606165603,0.559204,0.137451,0.261414,0.774536
84606186674,0.560364,0.137939,0.261169,0.773682
84606202426,0.561401,0.138489,0.261047,0.772888
84606225576,0.562561,0.138184,0.260803,0.772217
84606246716,0.563721,0.137268,0.259705,0.771851
84606262472,0.565063,0.135803,0.257751,0.771851
84606285623,0.565674,0.134155,0.25592,0.772278
84606306655,0.565002,0.132446,0.254578,0.773499
84606322441,0.563904,0.131531,0.253906,0.774658
84606344981,0.564026,0.131897,0.252747,0.774902
84606366679,0.565063,0.132812,0.251282,0.774475
84606382418,0.565491,0.133057,0.249939,0.774536
84606404955,0.564819,0.132996,0.248108,0.775635
84606435610,0.564209,0.133179,0.245056,0.777039
84606449141,0.565063,0.133423,0.241394,0.777527
84606464926,0.567078,0.133423,0.23877,0.776855
84606488584,0.568237,0.133057,0.237671,0.776428
84606509150,0.567688,0.133057,0.237,0.777039
84606525576,0.566589,0.133545,0.235352,0.778259
84606548200,0.566467,0.134094,0.232971,0.778931
84606562494,0.567444,0.134521,0.231323,0.778687
84606584972,0.568726,0.134521,0.231079,0.777771
84606608127,0.569336,0.134338,0.231567,0.777222
84606622465,0.569763,0.134399,0.231628,0.776917
84606644944,0.57074,0.134644,0.23114,0.776245
84606668117,0.573181,0.134766,0.23053,0.774597
84606689183,0.57666,0.134705,0.230286,0.772156
84606704949,0.57959,0.134521,0.23053,0.769897
84606728129,0.580994,0.134094,0.231079,0.768738
84606749174,0.581787,0.133667,0.231201,0.768188
84606764972,0.58313,0.133179,0.231079,0.767273
84606788094,0.585083,0.132751,0.231079,0.765869
84606802490,0.587097,0.132812,0.231079,0.764343
84606824965,0.588562,0.132935,0.231079,0.763123
84606848120,0.589905,0.133118,0.230896,0.762146
84606862474,0.591125,0.132874,0.230896,0.761292
84606884941,0.592468,0.132202,0.230835,0.760376
84606908096,0.594543,0.131714,0.230469,0.758911
84606922421,0.596619,0.13147,0.229736,0.757507
84606944975,0.5979,0.130981,0.229004,0.756836
84606968147,0.598816,0.130005,0.228455,0.75647
84606982457,0.600464,0.129028,0.228088,0.755432
84607004938,0.602356,0.128357,0.227661,0.75415
84607028108,0.604065,0.127869,0.227173,0.753052
84607049122,0.606262,0.127258,0.226624,0.751526
84607064978,0.608887,0.126526,0.226562,0.749512
84607088139,0.611572,0.125854,0.226624,0.747437
84607109183,0.614258,0.125305,0.226257,0.745422
84607125627,0.616882,0.124512,0.225647,0.743591
84607148133,0.619507,0.123901,0.225281,0.741638
84607169189,0.621826,0.123657,0.225098,0.739807
84607184948,0.62384,0.123474,0.225037,0.738159
84607208146,0.625916,0.122864,0.225098,0.73645
84607229268,0.627991,0.122192,0.22522,0.734741
84607244978,0.629822,0.121338,0.225464,0.733215
84607267480,0.631531,0.120483,0.226013,0.73175
84607289170,0.63324,0.119629,0.226562,0.730286
84607305607,0.63501,0.119019,0.226685,0.72876
84607327463,0.637207,0.118164,0.226624,0.72699
84607349156,0.639404,0.116821,0.22644,0.725342
84607365435,0.641418,0.115417,0.226074,0.723877
84607387425,0.643555,0.114136,0.225769,0.722351
84607409243,0.645752,0.113098,0.22583,0.720459
84607424960,0.647949,0.112488,0.226257,0.718445
84607447448,0.650085,0.112183,0.226746,0.716431
84607470640,0.651978,0.111877,0.227051,0.714661
84607484999,0.653687,0.111572,0.22699,0.713135
84607507482,0.655579,0.111084,0.226562,0.71167
84607530647,0.657227,0.110657,0.225891,0.710388
84607544992,0.659058,0.110046,0.225769,0.708801
84607567473,0.6604,0.109863,0.225403,0.707764
84607590618,0.661377,0.109924,0.225037,0.706909
84607604988,0.661926,0.110046,0.224976,0.706421
84607627474,0.662415,0.110046,0.225342,0.705872
84607650620,0.662964,0.109924,0.226013,0.705139
84607664950,0.663635,0.109741,0.226624,0.704346
84607687459,0.664917,0.109924,0.226685,0.703064
84607710666,0.666809,0.110107,0.226379,0.701355
84607725012,0.66803,0.110413,0.226013,0.700256
84607747502,0.669128,0.110474,0.225708,0.699341
84607770645,0.670349,0.110413,0.225525,0.698181
84607784986,0.671631,0.110229,0.225708,0.69696
84607807464,0.673096,0.109985,0.226074,0.695435
84607830630,0.675537,0.109863,0.225586,0.693237
84607844976,0.677917,0.109558,0.226196,0.690796
84607867542,0.680115,0.10907,0.226685,0.688538
84607890682,0.682495,0.108643,0.226746,0.686157
84607913128,0.685547,0.108215,0.226685,0.683228
84607927452,0.689148,0.108154,0.226196,0.67981
84607950608,0.692322,0.108459,0.225525,0.676758
84607973132,0.694275,0.108765,0.225098,0.674805
84607987461,0.695068,0.108826,0.225098,0.67395
84608010644,0.695129,0.109131,0.223511,0.674438
84608031667,0.694153,0.10907,0.223389,0.675476
84608047491,0.692566,0.108887,0.223267,0.677124
84608070716,0.690491,0.108582,0.223145,0.679382
84608091735,0.688232,0.108459,0.223083,0.681702
84608107477,0.686279,0.108398,0.222839,0.683777
84608136662,0.684937,0.108521,0.22229,0.685242
84608153112,0.684509,0.108826,0.221252,0.685974
84608167515,0.684387,0.109253,0.220276,0.68634
84608190007,0.684204,0.109619,0.219727,0.686646
84608211679,0.683838,0.109863,0.219543,0.687012
84608227503,0.683289,0.109863,0.219727,0.6875
84608249995,0.682983,0.109741,0.21991,0.687744
84608271631,0.683228,0.109558,0.220032,0.6875
84608287530,0.683533,0.109375,0.220337,0.687134
84608318158,0.683594,0.109375,0.220764,0.686951
84608331707,0.68335,0.109436,0.221008,0.687073
84608347512,0.683533,0.109558,0.220886,0.686951
84608369956,0.68396,0.109619,0.22052,0.686646
84608393122,0.684509,0.109802,0.220032,0.686218
84608407488,0.684753,0.109924,0.219788,0.686035
84608430013,0.684631,0.109924,0.219727,0.686157
84608453156,0.684509,0.109741,0.219788,0.686279
84608467494,0.684326,0.109558,0.219788,0.686462
84608490014,0.684326,0.109558,0.219849,0.686462
84608513179,0.68457,0.109436,0.219788,0.686279
84608527477,0.684692,0.109436,0.219666,0.686157
84608550002,0.684753,0.109436,0.219666,0.686157
84608563504,0.684753,0.109436,0.219666,0.686157
84608586711,0.684509,0.109497,0.219666,0.686401
84608601032,0.684265,0.109497,0.219666,0.686584
84608623550,0.684265,0.109497,0.219666,0.686584
84608646723,0.684448,0.109619,0.219421,0.686462
84608661083,0.684448,0.109619,0.219421,0.686462
84608683586,0.684448,0.10968,0.219421,0.686462
84608706710,0.684448,0.10968,0.219421,0.686462
84608729170,0.684448,0.109436,0.219543,0.686523
84608752323,0.684509,0.109253,0.219666,0.686401
84608766721,0.684509,0.109253,0.219666,0.686401
84608781056,0.684448,0.109253,0.21991,0.686401
84608803527,0.684509,0.109497,0.219788,0.68634
84608826723,0.684448,0.109802,0.219604,0.686401
84608841034,0.684326,0.110107,0.21936,0.686523
84608863575,0.684204,0.110352,0.219116,0.686707
84608886690,0.684021,0.110596,0.218994,0.68689
84608901089,0.684021,0.110596,0.218994,0.68689
84608932373,0.683838,0.110718,0.219055,0.687012
84608946738,0.683533,0.110718,0.219299,0.687256
84608961076,0.683228,0.110657,0.21936,0.687561
84608985006,0.682922,0.110657,0.21936,0.687866
84609006679,0.682922,0.110718,0.219299,0.687866
84609022484,0.683105,0.110596,0.21936,0.687683
84609052388,0.683411,0.110413,0.219604,0.687317
84609066764,0.683655,0.110291,0.219788,0.687012
84609081099,0.683655,0.110291,0.219849,0.687012
84609128471,0.683655,0.110229,0.219849,0.687012
84609134846,0.683655,0.110352,0.219727,0.687073
84609141017,0.683655,0.110474,0.219482,0.687073
84609163547,0.683777,0.110779,0.219238,0.687073
84609186778,0.683777,0.111023,0.219177,0.687012
84609201073,0.684021,0.111267,0.219116,0.686768
84609223535,0.684265,0.111328,0.219177,0.686462
84609246726,0.684448,0.111267,0.219238,0.686279
84609262515,0.684753,0.111145,0.219177,0.685974
84609284993,0.684937,0.111023,0.219238,0.685791
84609306059,0.684937,0.111084,0.219238,0.685791
84609322556,0.684937,0.111023,0.219238,0.685791
84609351779,0.68512,0.111023,0.219299,0.685669
84609366081,0.685425,0.111084,0.219238,0.685303
84609381058,0.685791,0.111145,0.219177,0.684937
84609404972,0.686035,0.111328,0.219055,0.684753
84609426033,0.686035,0.111328,0.219055,0.684753
84609441055,0.686035,0.111328,0.219055,0.684753
84609463532,0.686035,0.111267,0.219055,0.684753
84609486031,0.686035,0.111267,0.219055,0.684753
84609501081,0.686035,0.111267,0.219055,0.684753
84609531752,0.686035,0.111267,0.219055,0.684753
84609546093,0.685852,0.111267,0.219177,0.684875
84609561052,0.685608,0.111145,0.21936,0.68512
84609583551,0.685303,0.111023,0.219604,0.685364
84609606097,0.685181,0.110901,0.219727,0.685486
84609621069,0.68512,0.110901,0.219727,0.685486
84609643572,0.685181,0.110962,0.219727,0.685486
84609666031,0.684998,0.110962,0.219727,0.685608
84609681006,0.684998,0.110962,0.219727,0.685608
84609711714,0.684998,0.111023,0.219727,0.685608
84609726044,0.684998,0.111023,0.219727,0.685669
84609741049,0.684998,0.111023,0.219727,0.685669
84609763590,0.684998,0.111023,0.219727,0.685669
84609786108,0.684692,0.111084,0.219788,0.685852
84609801031,0.684448,0.111145,0.21991,0.686096
84609823562,0.684265,0.111145,0.220032,0.686218
84609846061,0.684021,0.111084,0.220154,0.686462
84609863972,0.683655,0.110962,0.220398,0.686707
84609883587,0.68335,0.110901,0.220642,0.686951
84609906079,0.683044,0.110962,0.220825,0.687256
84609921117,0.683044,0.110962,0.220825,0.687256
84609943565,0.6828,0.111084,0.220825,0.687439
84609966004,0.682434,0.111206,0.220825,0.687805
84609981035,0.681824,0.111267,0.220947,0.688354
84610003544,0.680847,0.111389,0.221375,0.689148
84610027512,0.679688,0.111389,0.222229,0.690002
84610041064,0.678162,0.11145,0.22345,0.691162
84610063555,0.676453,0.111511,0.225281,0.692139
84610086115,0.674622,0.111511,0.227661,0.693237
84610102491,0.672852,0.111694,0.230103,0.694031
84610131805,0.671326,0.112061,0.232117,0.694824
84610146133,0.669922,0.112732,0.233276,0.695679
84610163969,0.668762,0.113708,0.233643,0.696533
84610183593,0.667542,0.114929,0.233398,0.697571
84610206042,0.665955,0.116089,0.232788,0.699097
84610229250,0.663757,0.117249,0.232056,0.701233
84610243604,0.661072,0.118286,0.230774,0.704041
84610266118,0.657654,0.119141,0.229553,0.707458
84610288606,0.653809,0.119995,0.228577,0.711182
84610303536,0.650696,0.120789,0.227539,0.714233
84610327484,0.648438,0.12207,0.226318,0.716431
84610348564,0.645996,0.123413,0.225159,0.71875
84610363530,0.643311,0.124878,0.224182,0.721252
84610386105,0.640564,0.126038,0.223328,0.723755
84610408599,0.637695,0.127686,0.221985,0.726379
84610423615,0.635132,0.128906,0.221619,0.728577
84610446157,0.631775,0.130798,0.220154,0.731506
84610468624,0.629333,0.132996,0.218628,0.733704
84610483580,0.627197,0.134949,0.217041,0.735657
84610506059,0.625977,0.13623,0.216248,0.736694
84610528612,0.62323,0.137451,0.215576,0.739014
84610543614,0.619324,0.137878,0.218079,0.741455
84610566102,0.615173,0.137573,0.222534,0.743652
84610588570,0.609985,0.138855,0.223083,0.747498
84610603553,0.605591,0.140625,0.22229,0.750977
84610626107,0.602234,0.142151,0.221619,0.753601
84610648617,0.598694,0.143066,0.221863,0.756165
84610663619,0.594238,0.144775,0.221436,0.75946
84610686107,0.589539,0.145386,0.221985,0.762817
84610708632,0.584839,0.147034,0.222046,0.766113
84610723543,0.579773,0.148865,0.222351,0.769531
84610746065,0.573975,0.150208,0.222839,0.773499
84610768584,0.567871,0.151489,0.223022,0.777649
84610783573,0.56366,0.153015,0.222168,0.78064
84610806087,0.562683,0.154663,0.220459,0.781555
84610828591,0.56366,0.155457,0.219177,0.781006
84610843577,0.564941,0.154968,0.219299,0.780151
84610866081,0.565857,0.153381,0.220398,0.77948
84610882541,0.566956,0.151062,0.221619,0.778809
84610903615,0.569214,0.148254,0.22229,0.777527
84610926075,0.573059,0.14563,0.222046,0.775269
84610948649,0.578064,0.143616,0.220459,0.772339
84610971820,0.583557,0.142334,0.218567,0.768982
84610986154,0.588379,0.141479,0.216797,0.765991
84611008644,0.59198,0.140503,0.215759,0.763672
84611023564,0.594727,0.13916,0.215515,0.761841
84611046070,0.597107,0.137573,0.215942,0.760132
84611068618,0.599121,0.13623,0.216614,0.758606
84611085106,0.60144,0.135132,0.217224,0.756775
84611106100,0.603882,0.134277,0.218018,0.754761
84611128559,0.605896,0.133362,0.219299,0.75293
84611145035,0.607666,0.132019,0.220947,0.751282
84611166061,0.609863,0.130859,0.22229,0.749329
84611188583,0.612183,0.129639,0.223267,0.747314
84611206501,0.614197,0.128235,0.224304,0.745605
84611226115,0.615662,0.126282,0.225342,0.744385
84611250010,0.616699,0.123474,0.226257,0.743774
84611265054,0.61731,0.119568,0.226868,0.743652
84611286063,0.617493,0.115234,0.2276,0.743958
84611308581,0.617432,0.110901,0.228333,0.744507
84611325027,0.617432,0.106384,0.229431,0.744812
84611346115,0.617737,0.101624,0.230835,0.744751
84611368616,0.618225,0.0967407,0.2323,0.744568
84611385065,0.618896,0.0924072,0.233521,0.744202
84611406168,0.619385,0.0884399,0.234802,0.743835
84611428628,0.619934,0.0845947,0.236145,0.743408
84611445076,0.62085,0.0812988,0.237183,0.742676
84611466091,0.621826,0.0785522,0.237793,0.741943
84611488629,0.622925,0.0762329,0.237976,0.741211
84611505112,0.624084,0.0739746,0.237915,0.740479
84611526150,0.624878,0.0719604,0.238098,0.73999
84611542543,0.625488,0.0703125,0.238464,0.739502
84611565703,0.62616,0.0691528,0.238953,0.738831
84611594249,0.627197,0.0682373,0.239197,0.737976
84611602551,0.628113,0.0672607,0.239441,0.737244
84611625049,0.628601,0.065979,0.240112,0.736694
84611646160,0.629089,0.0649414,0.240906,0.736145
84611662541,0.629761,0.0640869,0.241455,0.735474
84611685083,0.630554,0.0633545,0.241699,0.734741
84611706141,0.631042,0.062561,0.241699,0.734375
84611722532,0.63147,0.0617065,0.241516,0.734192
84611745702,0.631775,0.06073,0.24115,0.73407
84611766103,0.632324,0.0597534,0.240784,0.733826
84611782622,0.633057,0.0591431,0.240479,0.733337
84611805055,0.633728,0.0588379,0.240112,0.73291
84611826151,0.63446,0.0587769,0.239624,0.732422
84611842571,0.635254,0.0587769,0.239319,0.731873
84611865068,0.635864,0.0587769,0.239136,0.731384
84611886141,0.636414,0.05896,0.23877,0.731018
84611902553,0.636963,0.0591431,0.23822,0.730713
84611925065,0.637451,0.0592651,0.237793,0.730408
84611946100,0.637939,0.0594482,0.237488,0.730103
84611962576,0.638489,0.0596313,0.237244,0.729614
84611985025,0.639099,0.0598755,0.237183,0.729126
84612007554,0.639771,0.0598755,0.237,0.728577
84612022570,0.640564,0.0598145,0.236755,0.727966
84612045049,0.641418,0.0596924,0.236694,0.727295
84612067638,0.64209,0.0596313,0.236877,0.726624
84612084092,0.642456,0.0595093,0.237244,0.726135
84612105087,0.642578,0.0593262,0.237549,0.726013
84612127563,0.642517,0.059021,0.23761,0.726074
84612142576,0.642151,0.0585938,0.237549,0.72644
84612165101,0.641663,0.0582886,0.237427,0.726929
84612187610,0.641357,0.0581665,0.237366,0.727173
84612204025,0.641235,0.0582886,0.237244,0.727356
84612225062,0.641357,0.0584717,0.237122,0.727295
84612247596,0.641724,0.0587769,0.237,0.72699
84612264064,0.642273,0.0591431,0.236694,0.726562
84612285055,0.642822,0.0593262,0.236267,0.726135
84612307551,0.643311,0.0593872,0.235779,0.725891
84612324040,0.643555,0.0595093,0.235352,0.725769
84612345033,0.643616,0.0600586,0.234863,0.725891
84612367579,0.643677,0.0609131,0.234253,0.725952
84612384059,0.643677,0.0620728,0.233704,0.726013
84612404286,0.643494,0.0630493,0.233337,0.726257
84612426788,0.643311,0.0636597,0.233154,0.726379
84612449280,0.643372,0.0639648,0.233154,0.726318
84612464276,0.643677,0.06427,0.233154,0.726013
84612486791,0.644043,0.0648193,0.233093,0.725647
84612509260,0.644287,0.0653687,0.233032,0.725403
84612524275,0.644348,0.0657959,0.233032,0.725342
84612546749,0.644348,0.0661011,0.233032,0.725281
84612569270,0.644348,0.0661011,0.233032,0.725281
84612591799,0.644653,0.06604,0.232788,0.725098
84612606748,0.644897,0.06604,0.232422,0.724976
84612629322,0.645325,0.06604,0.232117,0.724731
84612644291,0.64563,0.065979,0.231995,0.724487
84612666811,0.645813,0.065979,0.231934,0.724304
84612689315,0.646118,0.065979,0.231628,0.724182
84612704320,0.646301,0.0657959,0.231323,0.724121
84612726811,0.64624,0.0654297,0.231262,0.724243
84612749299,0.64624,0.0654297,0.231262,0.724243
84612764310,0.646423,0.0655518,0.23114,0.724121
84612786831,0.646606,0.0655518,0.230896,0.723999
84612809277,0.646851,0.0654907,0.23053,0.723938
84612824299,0.646973,0.0651245,0.230347,0.723877
84612846791,0.647217,0.0649414,0.230042,0.723816
84612869284,0.6474,0.0647583,0.229675,0.723755
84612884276,0.647766,0.0646973,0.229309,0.723572
84612914288,0.648071,0.0646362,0.229065,0.723389
84612929345,0.648071,0.0646362,0.229065,0.723389
84612944555,0.648254,0.0645752,0.228882,0.723267
84612966787,0.64856,0.0644531,0.228638,0.723083
84612989268,0.648743,0.06427,0.228516,0.722961
84613004285,0.648926,0.06427,0.228577,0.722778
84613026776,0.649048,0.06427,0.228577,0.722717
84613042572,0.649292,0.0644531,0.228455,0.722412
84613064285,0.649536,0.0646362,0.228333,0.72229
84613086766,0.649841,0.0647583,0.227966,0.722107
84613102608,0.650146,0.0648804,0.2276,0.721924
84613125758,0.65033,0.0649414,0.227478,0.721802
84613146820,0.650391,0.0651855,0.227356,0.721802
84613162580,0.650391,0.0653076,0.227173,0.721802
84613193202,0.650269,0.0654297,0.226868,0.721985
84613206765,0.650269,0.0654907,0.226685,0.722107
84613222557,0.650024,0.0655518,0.226624,0.72229
84613245767,0.649841,0.0656738,0.226624,0.722473
84613266807,0.649719,0.065918,0.226562,0.722595
84613282601,0.64978,0.0661621,0.226379,0.722534
84613305747,0.649658,0.0663452,0.226257,0.722656
84613326771,0.649658,0.0663452,0.226257,0.722656
84613342562,0.649658,0.0663452,0.226257,0.722656
84613365708,0.649597,0.0665894,0.226196,0.722717
84613386815,0.649597,0.0665894,0.226135,0.722717
84613402624,0.649597,0.0666504,0.226135,0.722717
84613425747,0.649597,0.0665283,0.226074,0.722778
84613446779,0.649841,0.0664062,0.225891,0.722595
84613462588,0.650391,0.0664673,0.225586,0.722229
84613485704,0.651001,0.0665283,0.22522,0.721802
84613506822,0.651489,0.0665283,0.224976,0.721436
84613522615,0.651672,0.0664673,0.22467,0.721375
84613545754,0.651733,0.0663452,0.224365,0.721375
84613566804,0.652039,0.0663452,0.223877,0.721252
84613582603,0.652222,0.0664673,0.223633,0.721191
84613605760,0.652222,0.0665894,0.22345,0.721191
84613626816,0.652344,0.0667114,0.223389,0.72113
84613642621,0.652466,0.0668945,0.223267,0.721008
84613665767,0.65271,0.0669556,0.223267,0.720764
84613686806,0.653198,0.0669556,0.223267,0.720337
84613703076,0.653503,0.0668335,0.22345,0.720032
84613725755,0.654114,0.0668335,0.223572,0.719421
84613746786,0.654663,0.0667725,0.223633,0.718872
84613762620,0.655396,0.0668945,0.223511,0.718262
84613786419,0.656128,0.0668335,0.22345,0.717651
84613806811,0.656799,0.0667725,0.22345,0.717041
84613822586,0.657471,0.0668335,0.223633,0.71637
84613845732,0.658264,0.0670166,0.223877,0.715515
84613868287,0.659241,0.0670776,0.224121,0.714539
84613882604,0.6604,0.0670166,0.224304,0.71344
84613905084,0.661743,0.0667725,0.224548,0.712158
84613926791,0.663147,0.0662842,0.224731,0.710815
84613942615,0.664734,0.0658569,0.224792,0.709351
84613965736,0.666016,0.0656128,0.224731,0.708191
84613986784,0.666809,0.0651855,0.224976,0.707397
84614002587,0.667542,0.0646362,0.225342,0.706604
84614025138,0.668518,0.0641479,0.225952,0.705566
84614046773,0.669495,0.0638428,0.226685,0.704407
84614062650,0.670532,0.0634766,0.227661,0.703125
84614085118,0.671692,0.0632935,0.228699,0.701721
84614115748,0.672974,0.0631104,0.229248,0.700317
84614122585,0.674316,0.0623779,0.229553,0.699036
84614145088,0.676025,0.0615845,0.22937,0.697449
84614168237,0.677734,0.0609131,0.229309,0.695862
84614182636,0.679138,0.0605469,0.229248,0.69458
84614205141,0.68042,0.0598755,0.229187,0.69342
84614228294,0.681458,0.0593872,0.229004,0.692505
84614242616,0.682556,0.0583496,0.229431,0.691345
84614265094,0.683533,0.0578003,0.229797,0.690308
84614288267,0.684204,0.0570679,0.230591,0.689453
84614302590,0.68512,0.0562744,0.231323,0.688293
84614325130,0.686707,0.0550537,0.231689,0.686768
84614348308,0.688354,0.053894,0.231384,0.685303
84614362609,0.689453,0.0526123,0.231079,0.684387
84614385107,0.690369,0.0516357,0.230957,0.683594
84614408261,0.691101,0.0507202,0.230713,0.682983
84614422597,0.692017,0.0497437,0.230347,0.682251
84614445139,0.692993,0.0490723,0.229797,0.681519
84614468295,0.693726,0.0482178,0.229309,0.680969
84614482608,0.694397,0.0474243,0.229004,0.680481
84614505138,0.694946,0.0464478,0.228943,0.679993
84614528268,0.695618,0.0455933,0.228943,0.679321
84614542606,0.695862,0.0446777,0.229004,0.679138
84614565124,0.695801,0.0437012,0.228882,0.679321
84614588298,0.695679,0.0427246,0.229187,0.679382
84614609362,0.695679,0.0419312,0.229736,0.67926
84614625134,0.695557,0.0414429,0.230835,0.679016
84614648272,0.69574,0.0415649,0.231812,0.678528
84614669318,0.695679,0.0419312,0.232422,0.678345
84614685115,0.695801,0.0422363,0.232849,0.67804
84614708231,0.695618,0.0422363,0.233337,0.67804
84614729412,0.695496,0.041687,0.234009,0.67804
84614745136,0.695435,0.0413208,0.23468,0.677856
84614768297,0.695435,0.0411377,0.235474,0.677612
84614789325,0.695312,0.0407715,0.236267,0.67749
84614805126,0.695496,0.0406494,0.237061,0.677002
84614827588,0.695557,0.0403442,0.237549,0.676819
84614849340,0.695801,0.0401001,0.237976,0.676392
84614865110,0.695801,0.0397339,0.238342,0.676331
84614887666,0.695862,0.0394287,0.238586,0.676147
84614909394,0.695862,0.0391235,0.23877,0.676086
84614925159,0.695862,0.0388794,0.23877,0.676147
84614947657,0.695862,0.0385132,0.238708,0.676208
84614969343,0.695679,0.0380859,0.238647,0.676392
84614985136,0.695557,0.0376587,0.23877,0.676514
84615007634,0.695557,0.0372925,0.23877,0.676514
84615038328,0.695496,0.0369263,0.238831,0.676636
84615045126,0.695312,0.036499,0.239014,0.676697
84615067666,0.695312,0.0361938,0.239258,0.676697
84615090834,0.695251,0.0358887,0.239441,0.676697
84615105132,0.695251,0.0358887,0.239441,0.676636
84615127644,0.695435,0.0358887,0.239502,0.676453
84615150800,0.695435,0.0358887,0.239502,0.676514
84615165118,0.695435,0.0358887,0.239502,0.676514
84615187618,0.695374,0.0358276,0.239502,0.676514
84615210814,0.695251,0.0357056,0.239502,0.676697
84615225153,0.695129,0.0354614,0.239441,0.676819
84615247629,0.695068,0.0352173,0.239319,0.676941
84615270793,0.695129,0.0351562,0.239319,0.676941
84615285107,0.695068,0.0352173,0.239319,0.676941
84615307623,0.695068,0.0351562,0.23938,0.676941
84615330758,0.695068,0.0351562,0.239319,0.676941
84615345160,0.695068,0.0351562,0.23938,0.676941
84615367660,0.695068,0.0351562,0.23938,0.676941
84615390799,0.695007,0.0352783,0.239319,0.677002
84615413271,0.69519,0.0355835,0.239197,0.676819
84615428254,0.695251,0.0360107,0.239136,0.676819
84615450809,0.69519,0.036377,0.239258,0.676758
84615465140,0.695129,0.0366211,0.23938,0.676758
84615487659,0.695251,0.0366821,0.239319,0.676697
84615510790,0.695251,0.0366821,0.239014,0.676819
84615531803,0.695129,0.0366821,0.238708,0.677002
84615547613,0.694946,0.0366821,0.238586,0.677246
84615570822,0.695007,0.0366821,0.238586,0.677185
84615591846,0.694946,0.0368042,0.238647,0.677246
84615607650,0.694885,0.0369263,0.238525,0.677307
84615630799,0.695068,0.0371094,0.238342,0.677246
84615653266,0.695007,0.0375366,0.237976,0.677307
84615667679,0.694885,0.0379639,0.237793,0.67749
84615690825,0.694702,0.0383301,0.237854,0.677673
84615711857,0.694641,0.0386963,0.238037,0.677673
84615727636,0.694458,0.0391235,0.238281,0.677734
84615750850,0.694275,0.0394287,0.238342,0.677856
84615771845,0.694153,0.0395508,0.238464,0.677979
84615787684,0.694031,0.0396118,0.238708,0.677979
84615810158,0.69397,0.0397339,0.238953,0.677979
84615831904,0.693787,0.039917,0.239136,0.678101
84615847653,0.693665,0.0401611,0.239014,0.678223
84615870186,0.693604,0.0403442,0.238831,0.678345
84615891893,0.693604,0.0405273,0.238586,0.678406
84615907666,0.693542,0.0407104,0.238464,0.678528
84615930131,0.693542,0.0407104,0.238464,0.678528
84615951934,0.693542,0.0407715,0.238464,0.678528
84615968146,0.693542,0.0407715,0.238464,0.678528
84615996846,0.693604,0.0405884,0.238403,0.678528
84616013298,0.693726,0.0404663,0.238464,0.678345
84616027614,0.693726,0.0404663,0.238525,0.678345
84616050168,0.693909,0.0403442,0.238464,0.678162
84616073332,0.694275,0.0401611,0.238281,0.677856
84616087664,0.694641,0.0400391,0.238098,0.67749
84616110145,0.695007,0.039917,0.237915,0.677246
84616133294,0.695312,0.039856,0.237671,0.677063
84616147658,0.695435,0.0396729,0.237366,0.677063
84616170184,0.695435,0.0394897,0.237122,0.677124
84616193337,0.695435,0.0393677,0.236938,0.677185
84616207665,0.695374,0.0393677,0.236938,0.677185
84616230621,0.695435,0.0393677,0.236938,0.677185
84616243724,0.695374,0.0393677,0.236938,0.677246
84616266870,0.695374,0.0394287,0.236938,0.677246
84616281237,0.695618,0.0393677,0.236633,0.677124
84616303728,0.695923,0.0391846,0.23645,0.67688
84616326892,0.696167,0.0390015,0.236389,0.676636
84616341191,0.696289,0.0389404,0.236389,0.676514
84616363680,0.696533,0.0389404,0.236328,0.676331
84616386876,0.696716,0.0388794,0.236328,0.676086
84616409407,0.697021,0.0387573,0.236389,0.675781
84616423743,0.697205,0.0387573,0.236389,0.675598
84616446900,0.697205,0.0387573,0.236389,0.675598
84616469381,0.697205,0.0387573,0.236389,0.675598
84616483704,0.697205,0.0387573,0.236389,0.675598
84616506917,0.697205,0.0386963,0.236389,0.675598
84616522689,0.697266,0.0386963,0.236389,0.675537
84616543778,0.697144,0.0388184,0.236389,0.675659
84616566885,0.697021,0.0390015,0.236328,0.675781
84616581208,0.696838,0.0393066,0.236267,0.675964
84616603762,0.696472,0.0396729,0.236206,0.676331
84616626891,0.696045,0.039978,0.236267,0.676819
84616641195,0.695557,0.0401611,0.236328,0.677246
84616663708,0.695129,0.0404053,0.236389,0.677612
84616686213,0.694763,0.0406494,0.236389,0.677979
84616701184,0.694275,0.0408936,0.23645,0.678467
84616723713,0.693848,0.0410767,0.236633,0.678833
84616746868,0.693665,0.0415039,0.236816,0.678894
84616761206,0.693726,0.0418091,0.236816,0.678833
84616783732,0.693787,0.0418701,0.236755,0.678833
84616806891,0.693848,0.0418091,0.236816,0.678711
84616821226,0.693787,0.041687,0.237061,0.678711
84616843699,0.693726,0.041687,0.237305,0.67865
84616866865,0.693481,0.0418091,0.237549,0.678833
84616881221,0.693359,0.0418701,0.237488,0.678955
84616903752,0.693237,0.0419922,0.237305,0.679199
84616926231,0.693115,0.0421143,0.237,0.679382
84616941238,0.692993,0.0423584,0.236694,0.679626
84616963756,0.692932,0.0425415,0.236389,0.679688
84616986239,0.693054,0.0424805,0.236084,0.679749
84617001238,0.69342,0.0424194,0.235657,0.679504
84617023706,0.693787,0.0424194,0.235474,0.679199
84617046224,0.693848,0.0424194,0.235657,0.679077
84617061236,0.693726,0.0425415,0.235657,0.679138
84617083741,0.693542,0.0427246,0.235168,0.679504
84617106186,0.693176,0.0429688,0.234497,0.680115
84617121219,0.692322,0.0432129,0.234009,0.681152
84617143702,0.691284,0.043457,0.233704,0.682251
84617166250,0.690063,0.0437622,0.233521,0.683594
84617181236,0.688904,0.0440063,0.233459,0.684692
84617203745,0.688049,0.0439453,0.233765,0.685486
84617226210,0.687622,0.0438232,0.234314,0.68573
84617241208,0.687622,0.0439453,0.234863,0.685547
84617263712,0.687622,0.0439453,0.235291,0.685425
84617286244,0.6875,0.0437622,0.235718,0.685364
84617301242,0.687378,0.0436401,0.236145,0.685364
84617323684,0.687012,0.0435181,0.236633,0.685547
84617346233,0.686646,0.043396,0.237122,0.685791
84617361225,0.686462,0.0432739,0.237488,0.685852
84617391887,0.686218,0.0430908,0.237793,0.685974
84617406232,0.686035,0.0429688,0.238037,0.686096
84617421233,0.685852,0.0428467,0.238159,0.686279
84617443776,0.685669,0.0426636,0.238098,0.686462
84617466293,0.685669,0.0426636,0.238098,0.686462
84617481221,0.685486,0.0426025,0.238342,0.686584
84617503703,0.68512,0.0426025,0.23877,0.686768
84617526238,0.684814,0.0427246,0.239136,0.686951
84617541246,0.684448,0.0427856,0.239502,0.687195
84617563770,0.684204,0.0428467,0.239807,0.687317
84617586228,0.684082,0.0428467,0.240295,0.687256
84617601268,0.684082,0.0427856,0.240967,0.687073
84617631850,0.684021,0.0427246,0.24176,0.686829
84617646210,0.684021,0.0427856,0.24231,0.686584
84617664140,0.68396,0.0427856,0.242737,0.686523
84617683731,0.683533,0.0426025,0.243225,0.686768
84617706268,0.683044,0.0424194,0.243896,0.687073
84617722733,0.682495,0.0422974,0.244568,0.687378
84617743806,0.682007,0.0421753,0.245056,0.687744
84617766265,0.68158,0.0421753,0.245361,0.687988
84617782652,0.681152,0.0420532,0.245544,0.688354
84617803733,0.680603,0.0419312,0.245789,0.688843
84617826254,0.680054,0.0418701,0.246094,0.68927
84617844179,0.679565,0.0418701,0.24646,0.689636
84617865177,0.679321,0.0419922,0.246704,0.689758
84617886238,0.679138,0.0421143,0.246826,0.68988
84617910201,0.678833,0.0421143,0.246887,0.690186
84617923735,0.678528,0.0420532,0.246887,0.690491
84617946238,0.678223,0.0419312,0.24707,0.690735
84617962755,0.67804,0.0420532,0.247253,0.690857
84617983733,0.677856,0.0422363,0.247314,0.690979
84618006253,0.677856,0.0422363,0.247314,0.690979
84618022679,0.67749,0.0422363,0.247437,0.691345
84618043842,0.677063,0.0421753,0.247559,0.69165
84618066251,0.676758,0.0420532,0.247742,0.691956
84618082659,0.676392,0.0419922,0.247925,0.6922
84618103682,0.676086,0.0420532,0.248047,0.692444
84618126211,0.675781,0.0420532,0.24823,0.692688
84618144124,0.675537,0.0419312,0.248413,0.692871
84618163763,0.675354,0.041626,0.248535,0.693054
84618186203,0.67511,0.0413208,0.248718,0.693176
84618202686,0.67511,0.0411987,0.248718,0.693237
84618231960,0.67511,0.0412598,0.248718,0.693237
84618246259,0.67511,0.0412598,0.248718,0.693237
84618262673,0.674927,0.0412598,0.24884,0.693359
84618283789,0.674927,0.0411987,0.24884,0.693359
84618306262,0.674927,0.0411987,0.24884,0.693359
84618322730,0.674927,0.0411987,0.24884,0.693359
84618343713,0.674927,0.0411987,0.24884,0.693359
84618366270,0.674927,0.0411987,0.24884,0.693359
84618382706,0.674927,0.0411987,0.24884,0.693359
84618411919,0.674927,0.0414429,0.248901,0.693359
84618426241,0.674866,0.041748,0.248901,0.693359
84618442694,0.674866,0.041748,0.24884,0.693359
84618463735,0.674866,0.041748,0.24884,0.69342
84618486279,0.6745,0.0414429,0.249084,0.693665
84618502718,0.674072,0.0411377,0.249268,0.694031
84618523776,0.673767,0.0408325,0.24939,0.694336
84618546260,0.673462,0.0406494,0.249451,0.69458
84618562721,0.673218,0.0405884,0.249512,0.694824
84618583783,0.673035,0.0405273,0.249512,0.695007
84618606331,0.673035,0.0404663,0.249512,0.695007
84618622673,0.673035,0.0404663,0.249512,0.695007
84618645190,0.673035,0.0404663,0.249512,0.695007
84618666257,0.673035,0.0404663,0.249512,0.695007
84618682702,0.673035,0.0404663,0.249512,0.695007
84618705198,0.673035,0.0404663,0.249512,0.695007
84618726223,0.673035,0.0404663,0.249573,0.695007
84618744171,0.673035,0.0404053,0.249573,0.695007
84618766638,0.673035,0.0404663,0.249573,0.695007
84618786314,0.673035,0.0404663,0.249512,0.695007
84618802725,0.672974,0.0404663,0.249573,0.695007
84618825286,0.672974,0.0404053,0.249573,0.695007
84618846286,0.672974,0.0404053,0.249573,0.695007
84618862668,0.672974,0.0404053,0.249573,0.695007
84618885208,0.672974,0.0404053,0.249573,0.695068
84618906280,0.672974,0.0404053,0.249573,0.695068
84618930242,0.672913,0.0404053,0.249573,0.695068
84618945221,0.672913,0.0404053,0.249634,0.695068
84618966291,0.672913,0.0404053,0.249634,0.695068
84618982725,0.672913,0.0404053,0.249573,0.695068
84619005199,0.672913,0.0404053,0.249573,0.695068
84619026321,0.672913,0.0404053,0.249634,0.695129
84619042753,0.672913,0.0404053,0.249634,0.695129
84619065258,0.672913,0.0404053,0.249634,0.695129
84619094466,0.672913,0.0404053,0.249634,0.695129
84619102762,0.672913,0.0404053,0.249634,0.695068
84619125260,0.672913,0.0404053,0.249634,0.695068
84619146290,0.672913,0.0404053,0.249634,0.695129
84619162752,0.672852,0.0404053,0.249634,0.695129
84619185247,0.672852,0.0404053,0.249634,0.695129
84619206239,0.672852,0.0404053,0.249634,0.695129
84619222777,0.672852,0.0404053,0.249634,0.695129
84619245216,0.672913,0.0404053,0.249634,0.695068
84619274405,0.672913,0.0404053,0.249634,0.695068
84619282716,0.672913,0.0404053,0.249634,0.695068
84619305213,0.672913,0.0404053,0.249634,0.695068
84619326279,0.672913,0.0404053,0.249634,0.695068
84619344195,0.672913,0.0404053,0.249634,0.695129
84619365249,0.672852,0.0404053,0.249634,0.695129
84619386267,0.672729,0.0402222,0.249512,0.695312
84619402754,0.672729,0.0402222,0.249512,0.695312
84619425204,0.672729,0.0401001,0.249512,0.695312
84619446254,0.672729,0.0401001,0.249512,0.695312
84619462761,0.672791,0.0401001,0.249512,0.695251
84619485234,0.672791,0.0401001,0.249512,0.695312
84619506268,0.672913,0.0403442,0.249268,0.69519
84619528731,0.673035,0.0404663,0.249146,0.695129
84619545201,0.672974,0.0404663,0.249146,0.69519
84619567727,0.672974,0.0404663,0.249146,0.69519
84619582693,0.672974,0.0404663,0.249146,0.69519
84619605213,0.672974,0.0404663,0.249146,0.69519
84619627682,0.673035,0.0404663,0.249146,0.695129
84619642762,0.673035,0.0404663,0.249146,0.695129
84619665204,0.672974,0.0404663,0.249146,0.69519
84619687708,0.672974,0.0404663,0.249146,0.69519
84619702649,0.672974,0.0404663,0.249207,0.69519
84619725180,0.672974,0.0404663,0.249146,0.69519
84619747735,0.673035,0.0405273,0.249146,0.695129
84619764202,0.673035,0.0405273,0.249084,0.695129
84619785230,0.673035,0.0405273,0.249084,0.695129
84619807748,0.673035,0.0405273,0.249084,0.695129
84619824197,0.673035,0.0405273,0.249084,0.69519
84619845974,0.672974,0.0405273,0.249146,0.69519
84619867689,0.672974,0.0405273,0.249146,0.69519
84619884237,0.672974,0.0405273,0.249084,0.69519
84619905256,0.672974,0.0405273,0.249084,0.69519
84619927732,0.672974,0.0405884,0.249084,0.69519
84619944205,0.672974,0.0405884,0.249084,0.69519
84619965220,0.672974,0.0405884,0.249084,0.69519
84619987709,0.672974,0.0405884,0.249084,0.69519
84620004185,0.672974,0.0405884,0.249084,0.69519
84620025940,0.672974,0.0405884,0.249084,0.69519
84620047733,0.672974,0.0405884,0.249084,0.695251
84620068796,0.672729,0.0407104,0.248962,0.695435
84620084485,0.672546,0.0407715,0.248962,0.695679
84620106975,0.672241,0.0409546,0.248901,0.695923
84620129472,0.671997,0.0413818,0.248596,0.696289
84620144442,0.671692,0.041748,0.248352,0.696655
84620166962,0.671326,0.0421753,0.248169,0.697083
84620197653,0.670959,0.0427856,0.247986,0.697388
84620204440,0.670532,0.0435791,0.247681,0.697876
84620226927,0.669922,0.0444946,0.247314,0.698486
84620249498,0.66925,0.0452881,0.24707,0.699158
84620264447,0.668579,0.0461426,0.246948,0.69989
84620286976,0.667725,0.046936,0.246887,0.700623
84620309482,0.666809,0.0478516,0.246765,0.701538
84620324544,0.665955,0.0490723,0.246338,0.702332
84620346972,0.6651,0.050293,0.24585,0.703247
84620369453,0.66394,0.0513916,0.245544,0.704407
84620384477,0.662476,0.0526123,0.245117,0.70575
84620408403,0.661133,0.0540771,0.244629,0.707153
84620429497,0.659668,0.055603,0.24408,0.708557
84620445108,0.65802,0.057373,0.243591,0.710144
84620467008,0.656555,0.0587769,0.243591,0.711365
84620489467,0.655823,0.0606689,0.243469,0.711975
84620504469,0.655579,0.0631104,0.242981,0.712097
84620527046,0.654785,0.0657349,0.242798,0.712646
84620549461,0.653137,0.0680542,0.243347,0.713745
84620564487,0.651001,0.0697021,0.244751,0.715088
84620587022,0.64856,0.071228,0.246094,0.716736
84620609485,0.646301,0.0726318,0.24707,0.718262
84620625156,0.644165,0.0740967,0.247803,0.719788
84620646969,0.641296,0.0754395,0.249023,0.721741
84620669491,0.638,0.0768433,0.250366,0.72406
84620684473,0.634766,0.0782471,0.251587,0.726318
84620707014,0.631775,0.0804443,0.25238,0.728455
84620729431,0.629089,0.083374,0.252625,0.730347
84620745959,0.627014,0.0870361,0.252441,0.73175
84620766982,0.625854,0.0914307,0.251648,0.732483
84620789512,0.625244,0.0963135,0.250549,0.732727
84620805993,0.62561,0.101501,0.249084,0.732239
84620826988,0.625183,0.107483,0.24707,0.732422
84620849469,0.622925,0.113037,0.244751,0.734314
84620865645,0.618591,0.117065,0.241516,0.738403
84620887006,0.614441,0.119751,0.238403,0.742432
84620917018,0.610657,0.121521,0.237305,0.745605
84620925980,0.606201,0.122925,0.23761,0.74884
84620947008,0.602478,0.125,0.238464,0.751282
84620969489,0.599915,0.127625,0.239502,0.752563
84620985927,0.597717,0.130554,0.241211,0.753235
84621007000,0.594421,0.134399,0.242554,0.754761
84621029453,0.5896,0.137573,0.243896,0.757507
84621045956,0.584656,0.139893,0.244812,0.76062
84621066964,0.580139,0.141541,0.245667,0.763489
84621089490,0.575806,0.142456,0.247131,0.766113
84621105953,0.571289,0.143127,0.249329,0.768677
84621126992,0.565979,0.143738,0.251831,0.771667
84621149463,0.562073,0.145386,0.251892,0.774231
84621165958,0.559998,0.148621,0.249207,0.77594
84621188180,0.558777,0.151794,0.246582,0.777039
84621209446,0.558411,0.154175,0.244751,0.777466
84621226559,0.558838,0.154785,0.245117,0.776855
84621247009,0.559631,0.154175,0.247253,0.775757
84621269521,0.560425,0.153076,0.25,0.774475
84621285963,0.561462,0.152161,0.252258,0.773193
84621306977,0.562439,0.151184,0.253601,0.772278
84621329454,0.563171,0.149109,0.2547,0.77179
84621345953,0.564026,0.145996,0.256042,0.771301
84621366982,0.565552,0.142517,0.257568,0.770325
84621389494,0.566772,0.138672,0.259094,0.769592
84621405987,0.567139,0.135559,0.26062,0.769348
84621426987,0.566406,0.13385,0.261658,0.769836
84621449469,0.565002,0.132935,0.262268,0.770874
84621465267,0.564148,0.132263,0.262756,0.771423
84621486956,0.564209,0.131714,0.262817,0.771423
84621509457,0.564636,0.13147,0.26239,0.771362
84621525281,0.565247,0.131592,0.261719,0.771057
84621546966,0.565796,0.131653,0.26123,0.770874
84621562781,0.565674,0.131958,0.260864,0.770996
84621585296,0.566284,0.132446,0.260315,0.770691
84621607005,0.565613,0.131226,0.260681,0.77124
84621622840,0.565491,0.129517,0.260742,0.771545
84621645248,0.565918,0.128235,0.261292,0.771301
84621668447,0.56604,0.127441,0.26123,0.771362
84621689456,0.566589,0.127075,0.259827,0.771545
84621705267,0.567566,0.125549,0.258789,0.771362
84621728433,0.568542,0.12323,0.257935,0.771362
84621749561,0.569336,0.121094,0.257629,0.771179
84621765301,0.569275,0.119324,0.258057,0.771362
84621797373,0.569153,0.118042,0.257263,0.771912
84621811520,0.569214,0.116638,0.256165,0.772461
84621812295,0.569214,0.116638,0.256165,0.772461
84621817559,0.565491,0.129517,0.260742,0.771545
84621825353,0.57196,0.116089,0.253845,0.77124
84621848428,0.573486,0.116516,0.251526,0.770813
84621869508,0.571594,0.116943,0.249023,0.77301
84621885308,0.567017,0.117981,0.245056,0.777405
84621908452,0.558472,0.119751,0.239746,0.784973
84621929475,0.548035,0.122864,0.23291,0.793823
84621945282,0.53717,0.128235,0.223328,0.803101
84621968420,0.524719,0.13562,0.211243,0.813354
84621989474,0.509521,0.143372,0.198608,0.824829
84622005309,0.491577,0.1521,0.185364,0.837097
84622028460,0.471313,0.161865,0.172241,0.849609
84622049516,0.44928,0.173035,0.158752,0.861938
84622065931,0.42627,0.186096,0.14502,0.87323
84622089936,0.401367,0.200012,0.131836,0.883972
84622109461,0.375244,0.214539,0.118774,0.89386
84622125297,0.348877,0.229553,0.105957,0.902344
84622148484,0.321167,0.245056,0.0946045,0.90979
84622169528,0.290222,0.26123,0.0848999,0.916626
84622185280,0.256836,0.277222,0.0770264,0.922607
84622208430,0.223999,0.292358,0.0701294,0.927002
84622229522,0.19281,0.307129,0.0639038,0.929688
84622245259,0.162964,0.322632,0.0582886,0.930542
84622268412,0.133606,0.339355,0.0535889,0.929504
84622289555,0.103699,0.357422,0.0505981,0.926697
84622305293,0.0740356,0.375793,0.0488281,0.922424
84622328442,0.0471191,0.393433,0.0478516,0.91687
84622349491,0.024292,0.410522,0.0458984,0.910339
84622365280,0.00622559,0.427185,0.041748,0.903137
84622388637,-0.00927734,0.443542,0.0371094,0.895386
84622409493,-0.0258179,0.45929,0.0341797,0.887207
84622425341,-0.0436401,0.473938,0.0325928,0.878845
84622447804,-0.0618286,0.485107,0.03125,0.871643
84622469548,-0.0753784,0.499695,0.0281372,0.862427
84622488090,-0.0897217,0.505371,0.0250244,0.857788
84622507780,-0.10083,0.510132,0.0223389,0.853821
84622529553,-0.110535,0.514893,0.0182495,0.849854
84622545950,-0.119568,0.517029,0.0128784,0.847412
84622567768,-0.1297,0.529785,0.00671387,0.838074
84622590933,-0.135498,0.531067,0.000183105,0.836365
84622605315,-0.143372,0.543945,-0.00671387,0.826721
84622627824,-0.146667,0.542542,-0.0126343,0.826965
84622650971,-0.15094,0.552185,-0.0164185,0.819702
84622665940,-0.152283,0.547791,-0.0202026,0.822388
84622687766,-0.154358,0.555176,-0.0216675,0.816956
84622710939,-0.152954,0.549377,-0.0223999,0.821106
84622725282,-0.155396,0.553101,-0.0213623,0.818176
84622747831,-0.154053,0.54895,-0.0192261,0.821289
84622770976,-0.155945,0.549377,-0.0177612,0.820679
84622785291,-0.153015,0.548096,-0.0133057,0.822144
84622807861,-0.153992,0.544739,-0.0106201,0.824219
84622830972,-0.14978,0.547058,-0.00646973,0.823486
84622853451,-0.147095,0.542175,-0.00408936,0.827271
84622867824,-0.144592,0.541138,-0.00158691,0.828369
84622890969,-0.142883,0.540161,0.000671387,0.829285
84622911998,-0.141174,0.539368,0.00292969,0.830078
84622927837,-0.139771,0.538269,0.00488281,0.831055
84622950939,-0.138184,0.536865,0.00598145,0.832214
84622965262,-0.136597,0.535706,0.00683594,0.833191
84622987809,-0.135559,0.534851,0.00799561,0.833923
84623010992,-0.13501,0.533691,0.00939941,0.834717
84623025318,-0.133911,0.532166,0.0101318,0.835876
84623047839,-0.132141,0.530701,0.0107422,0.837097
84623071009,-0.130615,0.529785,0.0112305,0.837891
84623092019,-0.129578,0.528931,0.0115967,0.838623
84623107830,-0.128296,0.528137,0.0117798,0.839294
84623130986,-0.126709,0.527588,0.0119629,0.839844
84623152038,-0.125122,0.527161,0.012207,0.840393
84623167818,-0.123169,0.527039,0.0117798,0.840759
84623190982,-0.119995,0.526917,0.0106812,0.841309
84623212008,-0.115051,0.526123,0.00970459,0.842468
84623227783,-0.110291,0.524231,0.0101929,0.844299
84623251018,-0.105835,0.521118,0.0112915,0.846802
84623272122,-0.100525,0.517273,0.012146,0.849792
84623287805,-0.0928955,0.51239,0.0130615,0.853577
84623310977,-0.0834961,0.506104,0.0153809,0.858215
84623333447,-0.0737305,0.498901,0.0199585,0.86322
84623347837,-0.0632324,0.491516,0.0251465,0.868164
84623370315,-0.0494995,0.484558,0.0289917,0.872803
84623392065,-0.0313721,0.477966,0.0324097,0.877197
84623407833,-0.0117188,0.470886,0.0372314,0.881287
84623430368,0.00915527,0.46344,0.0422363,0.88501
84623452033,0.0319824,0.454956,0.046875,0.888672
84623467832,0.0558472,0.445862,0.052124,0.891785
84623490333,0.0775146,0.434326,0.059082,0.895447
84623513480,0.0980835,0.422546,0.0661621,0.89856
84623527776,0.117493,0.4104,0.0732422,0.901306
84623550284,0.135437,0.396667,0.0812378,0.904236
84623573491,0.154785,0.381775,0.0905151,0.906677
84623587838,0.171936,0.367371,0.101013,0.908386
84623610325,0.188904,0.35144,0.112366,0.909973
84623640954,0.209229,0.333984,0.122681,0.910767
84623647805,0.233276,0.316772,0.132324,0.909729
84623670305,0.259338,0.301819,0.141357,0.906433
84623693459,0.283569,0.289612,0.150024,0.901733
84623707854,0.304321,0.277771,0.159973,0.896973
84623737039,0.324646,0.265137,0.170044,0.891785
84623753480,0.348328,0.253418,0.177917,0.884705
84623767856,0.373535,0.24469,0.183167,0.875732
84623790301,0.397461,0.237915,0.187988,0.866028
84623813455,0.420044,0.232056,0.192993,0.855774
84623834527,0.442749,0.227905,0.196899,0.844482
84623850367,0.464722,0.224548,0.200378,0.832703
84623873538,0.484863,0.221375,0.204102,0.821045
84623894524,0.503357,0.217896,0.207764,0.809875
84623910333,0.521301,0.214966,0.210693,0.798462
84623923910,0.539307,0.212524,0.212891,0.786438
84623946416,0.55603,0.210022,0.215759,0.774658
84623970007,0.568054,0.205688,0.219666,0.76593
84623983866,0.575195,0.199158,0.223999,0.761047
84624006366,0.580261,0.191101,0.228088,0.758057
84624029614,0.585266,0.181152,0.231567,0.755554
84624052696,0.589966,0.168945,0.235413,0.753601
84624066346,0.593262,0.156006,0.240601,0.752136
84624089565,0.596375,0.144165,0.245911,0.750366
84624103876,0.601135,0.139221,0.246826,0.747131
84624126384,0.599365,0.138672,0.242859,0.75
84624149557,0.590027,0.137512,0.238159,0.759033
84624163838,0.585022,0.138367,0.234436,0.763916
84624186389,0.588562,0.142212,0.232178,0.761169
84624209626,0.593872,0.145386,0.232422,0.756348
84624223933,0.596558,0.146057,0.234314,0.753479
84624246857,0.596619,0.144836,0.236572,0.752991
84624269542,0.595154,0.143372,0.238159,0.753967
84624292714,0.593994,0.142578,0.238403,0.754944
84624306378,0.594543,0.141846,0.237793,0.754822
84624329643,0.597107,0.140808,0.237183,0.753174
84624343873,0.599609,0.140076,0.237488,0.751221
84624367101,0.600708,0.14032,0.238037,0.750122
84624389544,0.600586,0.141418,0.238098,0.75
84624403909,0.600525,0.143005,0.237549,0.749939
84624427058,0.601318,0.144653,0.236511,0.749268
84624449549,0.602539,0.145874,0.235657,0.748352
84624463918,0.602966,0.146851,0.235413,0.747864
84624486411,0.602722,0.147522,0.235413,0.747986
84624509583,0.602417,0.147827,0.235535,0.748108
84624524018,0.602417,0.147827,0.235535,0.748108
84624546361,0.602417,0.147827,0.235596,0.748047
84624569576,0.602478,0.147766,0.235657,0.748047
84624583859,0.602783,0.147583,0.235901,0.747742
84624606459,0.603149,0.147339,0.236145,0.747437
84624629690,0.603638,0.147034,0.236572,0.746948
84624643955,0.604065,0.14679,0.236938,0.746521
84624666349,0.604492,0.146729,0.237122,0.746155
84624689577,0.604736,0.146667,0.237061,0.745972
84624703921,0.605103,0.146729,0.236755,0.745789
84624726376,0.605591,0.146667,0.236511,0.745483
84624749521,0.605713,0.146667,0.236389,0.745361
84624763836,0.605774,0.146973,0.236206,0.7453
84624786420,0.605896,0.1474,0.235962,0.745239
84624809587,0.606018,0.147705,0.23584,0.745117
84624823956,0.605957,0.147888,0.23584,0.745117
84624847834,0.606079,0.148254,0.235718,0.744995
84624869547,0.606201,0.14856,0.235657,0.744812
84624892011,0.606262,0.148743,0.235718,0.744751
84624906373,0.606079,0.14856,0.236023,0.744812
84624929508,0.605896,0.148438,0.236267,0.744934
84624943882,0.605957,0.148376,0.236267,0.744934
84624966394,0.605957,0.148376,0.236267,0.744873
84624989533,0.606018,0.148315,0.236328,0.744812
84625003904,0.606018,0.148132,0.236511,0.744812
84625026410,0.605835,0.147949,0.236694,0.744934
84625073169,0.605835,0.147949,0.236694,0.744934
84625081681,0.605896,0.147949,0.236694,0.744934
84625086416,0.605896,0.147949,0.236694,0.744873
84625117528,0.605835,0.147766,0.236816,0.744934
84625125326,0.605591,0.147644,0.237061,0.745056
84625146432,0.605469,0.147583,0.237305,0.745117
84625169566,0.605408,0.147705,0.23761,0.745056
84625183990,0.605469,0.147949,0.237793,0.744873
84625206472,0.605652,0.148071,0.237915,0.74469
84625229573,0.605713,0.14801,0.237915,0.74469
84625252066,0.605713,0.14801,0.237976,0.744629
84625266447,0.60553,0.147888,0.23822,0.74469
84625289625,0.605469,0.147705,0.238403,0.744751
84625303976,0.605469,0.147705,0.238403,0.744751
84625326451,0.605469,0.147827,0.238586,0.74469
84625357795,0.605469,0.14801,0.23877,0.744568
84625364004,0.605591,0.148193,0.238892,0.744385
84625386424,0.605591,0.148132,0.238892,0.744385
84625408995,0.605652,0.148132,0.238892,0.744385
84625423984,0.605652,0.148132,0.238953,0.744385
84625446427,0.605652,0.148132,0.238953,0.744385
84625468864,0.605652,0.148071,0.238953,0.744385
84625483957,0.605652,0.148071,0.239014,0.744385
84625506404,0.605591,0.147949,0.239136,0.744385
84625528906,0.605713,0.14801,0.239441,0.744141
84625543887,0.605835,0.148071,0.239746,0.743958
84625566489,0.605835,0.148193,0.239929,0.743835
84625589019,0.605896,0.148193,0.239929,0.743835
84625603862,0.606201,0.148315,0.239868,0.74353
84625626455,0.606506,0.148499,0.239929,0.743225
84625648871,0.606934,0.148804,0.240356,0.742737
84625663991,0.607361,0.149719,0.240967,0.741943
84625686437,0.60791,0.151062,0.241577,0.741089
84625709002,0.608765,0.152588,0.241943,0.739929
84625723925,0.610107,0.153931,0.242371,0.738403
84625746399,0.611694,0.154846,0.243103,0.736633
84625768916,0.612488,0.155334,0.244934,0.735291
84625783983,0.612488,0.156067,0.246643,0.734558
84625806443,0.612793,0.157227,0.24762,0.733704
84625828968,0.613586,0.158386,0.248108,0.732666
84625843873,0.614197,0.158997,0.248291,0.731934
84625866371,0.614563,0.158875,0.248291,0.731689
84625889053,0.614624,0.158203,0.24823,0.731812
84625903971,0.614563,0.157471,0.248169,0.731995
84625926459,0.614563,0.156799,0.247803,0.732239
84625948920,0.615051,0.156311,0.247131,0.732178
84625963903,0.616455,0.156189,0.246094,0.731384
84625986430,0.617493,0.155884,0.244995,0.730957
84626008941,0.617371,0.155701,0.243591,0.731567
84626024024,0.616394,0.156372,0.241821,0.732849
84626046420,0.615112,0.157654,0.239807,0.734253
84626068996,0.612549,0.159485,0.238159,0.736572
84626083958,0.607605,0.162537,0.236328,0.740601
84626106472,0.599365,0.169067,0.234009,0.746521
84626128997,0.58783,0.178711,0.230652,0.754456
84626143954,0.57373,0.190186,0.225647,0.763977
84626166429,0.5578,0.203369,0.218872,0.774292
84626188985,0.541382,0.217468,0.210632,0.784302
84626205381,0.52356,0.232727,0.200134,0.794739
84626226475,0.502686,0.24823,0.189331,0.806091
84626248865,0.476379,0.262634,0.179749,0.81958
84626265385,0.446045,0.276428,0.170532,0.833923
84626286412,0.413208,0.28949,0.161682,0.848022
84626308975,0.378418,0.301941,0.153503,0.861389
84626325450,0.342407,0.314148,0.146057,0.873291
84626346433,0.305603,0.326111,0.139893,0.883484
84626368973,0.268616,0.33844,0.134949,0.891602
84626385356,0.232666,0.351013,0.130981,0.897461
84626406505,0.19873,0.363647,0.127991,0.901001
84626428968,0.167053,0.376282,0.125183,0.902649
84626446822,0.136963,0.388367,0.123596,0.902832
84626466380,0.108337,0.400696,0.12262,0.901428
84626488971,0.0807495,0.413452,0.121887,0.898682
84626512888,0.0534668,0.426025,0.121582,0.894836
84626526435,0.0273438,0.438232,0.121216,0.890198
84626548941,0.00305176,0.450256,0.120422,0.884705
84626565425,-0.0198975,0.462036,0.11908,0.87854
84626586420,-0.0421143,0.474487,0.115906,0.871521
84626609122,-0.0620117,0.49054,0.110474,0.862122
84626625430,-0.0814819,0.498474,0.104614,0.856628
84626646415,-0.0947266,0.509583,0.0980225,0.849487
84626668970,-0.105286,0.521118,0.0907593,0.842041
84626686065,-0.113159,0.53418,0.081665,0.83374
84626706482,-0.120422,0.545349,0.0714111,0.826355
84626728978,-0.124451,0.556152,0.0611572,0.819397
84626754344,-0.128479,0.565491,0.0529785,0.812927
84626774556,-0.132874,0.573181,0.0463867,0.80719
84626788984,-0.136719,0.579224,0.0411987,0.802551
84626805406,-0.139099,0.583435,0.0369263,0.799255
84626826407,-0.139832,0.585999,0.0333252,0.797424
84626848933,-0.138855,0.586853,0.0309448,0.797058
84626865375,-0.136963,0.585938,0.0302124,0.798096
84626886431,-0.135376,0.583862,0.0304565,0.799866
84626909009,-0.134216,0.580688,0.0316162,0.802307
84626925385,-0.132446,0.576965,0.0333252,0.805237
84626954584,-0.1297,0.572876,0.0357666,0.808472
84626968957,-0.126343,0.568054,0.0391235,0.812256
84626985426,-0.122986,0.563171,0.0430908,0.815918
84627006492,-0.119568,0.558777,0.0471802,0.819275
84627028966,-0.114685,0.554565,0.0501099,0.822632
84627045407,-0.107178,0.550842,0.0515747,0.82605
84627066438,-0.0966797,0.547485,0.0517578,0.829529
84627089011,-0.0831299,0.544189,0.0505981,0.833252
84627105999,-0.0675049,0.540161,0.0490723,0.837402
84627126496,-0.0512085,0.534607,0.0482788,0.842102
84627148979,-0.0344238,0.527344,0.0491333,0.847473
84627165350,-0.0169067,0.518188,0.0508423,0.853577
84627187983,0.0010376,0.506531,0.0532837,0.860535
84627209004,0.0200806,0.49292,0.0560913,0.867981
84627225394,0.039856,0.477295,0.0595703,0.875732
84627247930,0.0620728,0.461121,0.0640869,0.882751
84627268971,0.0849609,0.444824,0.0699463,0.888794
84627286091,0.107605,0.427979,0.0766602,0.894043
84627307947,0.130188,0.409485,0.0842285,0.898987
84627328979,0.155334,0.389832,0.0916748,0.902954
84627345444,0.182434,0.37146,0.0988159,0.904907
84627367970,0.209656,0.354675,0.105225,0.905029
84627388972,0.235962,0.339294,0.111267,0.903748
84627405383,0.260132,0.323853,0.118286,0.901855
84627427932,0.282959,0.308167,0.125427,0.899536
84627448966,0.30658,0.293762,0.131531,0.895691
84627465406,0.329468,0.280884,0.137146,0.890869
84627487929,0.351562,0.26947,0.142456,0.885132
84627509011,0.373169,0.258179,0.147766,0.878723
84627525401,0.394409,0.244934,0.155334,0.871887
84627547956,0.412964,0.232483,0.163818,0.865173
84627568956,0.429321,0.220886,0.171936,0.858643
84627585396,0.445312,0.210449,0.179016,0.851624
84627607973,0.460815,0.200439,0.186035,0.844238
84627628962,0.475647,0.190979,0.193115,0.836609
84627645376,0.48938,0.183167,0.199463,0.828918
84627667957,0.502747,0.176819,0.204407,0.821045
84627697128,0.516296,0.171753,0.209167,0.8125
84627705421,0.529785,0.168152,0.215149,0.802917
84627727942,0.540955,0.166138,0.221069,0.79425
84627748944,0.552246,0.166748,0.224915,0.785217
84627764623,0.566467,0.168579,0.227783,0.773743
84627787122,0.581116,0.170349,0.229736,0.761841
84627809663,0.593506,0.170532,0.232788,0.751282
84627824663,0.601196,0.170776,0.234192,0.744629
84627847143,0.606812,0.170044,0.232971,0.740601
84627877832,0.612488,0.16748,0.230835,0.737183
84627884576,0.617432,0.165039,0.227295,0.73468
84627907165,0.618042,0.165405,0.221191,0.735962
84627929618,0.614868,0.167358,0.217651,0.739197
84627944621,0.611694,0.170349,0.216736,0.741394
84627967179,0.610352,0.172852,0.217896,0.741638
84627989668,0.609253,0.174255,0.220947,0.741272
84628004656,0.609009,0.175293,0.22229,0.740845
84628027106,0.608154,0.174744,0.223389,0.741333
84628049620,0.609436,0.173645,0.227905,0.739197
84628064637,0.609924,0.172729,0.230286,0.73822
84628087140,0.609802,0.172058,0.229248,0.738831
84628109648,0.610352,0.170959,0.230164,0.738342
84628124360,0.610168,0.170288,0.230835,0.738464
84628147148,0.609497,0.169739,0.231506,0.738892
84628169656,0.608521,0.169739,0.231873,0.739624
84628184673,0.607361,0.169983,0.231567,0.740601
84628207105,0.606445,0.170288,0.231018,0.741455
84628229613,0.606079,0.17041,0.23053,0.741821
84628246099,0.606201,0.170776,0.230164,0.741821
84628267069,0.605957,0.171143,0.22998,0.742004
84628289611,0.605103,0.171265,0.230164,0.742615
84628306153,0.604187,0.171021,0.230652,0.743225
84628327182,0.604004,0.170654,0.231445,0.743225
84628349594,0.604126,0.170471,0.232178,0.74292
84628366084,0.604309,0.170227,0.232666,0.742676
84628387111,0.60437,0.169861,0.233215,0.742554
84628411078,0.60437,0.169189,0.233643,0.742554
84628426041,0.604431,0.169067,0.233704,0.742493
84628447117,0.604858,0.168701,0.233765,0.742249
84628469626,0.605103,0.168274,0.233582,0.742249
84628486051,0.605225,0.167725,0.233276,0.74231
84628507147,0.60553,0.167236,0.232971,0.742249
84628529622,0.605774,0.166748,0.23291,0.742188
84628546070,0.605835,0.166565,0.23291,0.742188
84628567168,0.605591,0.166382,0.233093,0.742371
84628589612,0.605408,0.166382,0.233215,0.742493
84628606054,0.605469,0.166382,0.233459,0.742371
84628627104,0.605469,0.166321,0.233521,0.742371
84628649663,0.605469,0.16626,0.233582,0.742371
84628666092,0.60553,0.165894,0.233887,0.742249
84628688558,0.605591,0.165833,0.233948,0.742249
84628709612,0.606079,0.165466,0.234131,0.741882
84628726680,0.606506,0.165405,0.234131,0.741516
84628747138,0.606567,0.165405,0.234131,0.741455
84628769645,0.606445,0.165283,0.234253,0.741577
84628786070,0.606506,0.165222,0.234314,0.741516
84628807152,0.606506,0.165161,0.234375,0.741516
84628829588,0.606567,0.165161,0.234375,0.741455
84628846030,0.606567,0.1651,0.234436,0.741455
84628867142,0.606567,0.165039,0.234436,0.741455
84628889672,0.606812,0.164917,0.234497,0.741211
84628906079,0.607117,0.164856,0.234619,0.740967
84628927141,0.607178,0.164795,0.234619,0.740967
84628949645,0.607178,0.164795,0.23468,0.740967
84628966070,0.607239,0.164734,0.23468,0.740906
84628987181,0.607544,0.164551,0.234802,0.740662
84629009670,0.607605,0.16449,0.234802,0.740601
84629026075,0.607605,0.16449,0.234863,0.740601
84629047123,0.607605,0.164429,0.234863,0.740601
84629069626,0.607666,0.164429,0.234924,0.74054
84629085433,0.607666,0.164368,0.234924,0.74054
84629107165,0.60791,0.164307,0.234924,0.740356
84629129603,0.608215,0.164307,0.234985,0.740112
84629145373,0.608521,0.164368,0.234985,0.739807
84629167125,0.608582,0.164307,0.234985,0.739807
84629189632,0.608582,0.164307,0.235046,0.739807
84629205439,0.608643,0.164246,0.235046,0.739746
84629228579,0.608643,0.164185,0.235107,0.739746
84629249648,0.608643,0.164185,0.235107,0.739746
84629265407,0.608643,0.164001,0.235168,0.739746
84629288555,0.608704,0.16394,0.235229,0.739685
84629311079,0.608704,0.16394,0.235229,0.739685
84629326086,0.608765,0.163879,0.235291,0.739685
84629348583,0.608765,0.163879,0.235291,0.739624
84629369641,0.608765,0.163818,0.235352,0.739624
84629385408,0.608826,0.163757,0.235352,0.739624
84629408557,0.608826,0.163696,0.235413,0.739624
84629429664,0.608826,0.163696,0.235413,0.739624
84629445424,0.608826,0.163696,0.235413,0.739563
84629476057,0.608887,0.163635,0.235474,0.739563
84629489646,0.608887,0.163574,0.235474,0.739563
84629519672,0.609131,0.163574,0.235535,0.739319
84629528552,0.609253,0.163513,0.235657,0.739197
84629549614,0.609253,0.163513,0.235657,0.739197
84629565463,0.609314,0.163513,0.235657,0.739197
84629588609,0.609314,0.163452,0.235657,0.739136
84629609635,0.609375,0.163452,0.235718,0.739136
84629625426,0.609375,0.163391,0.235718,0.739136
84629648580,0.609375,0.16333,0.235779,0.739075
84629669642,0.609375,0.16333,0.235779,0.739075
84629685428,0.609436,0.163269,0.23584,0.739075
84629708632,0.609436,0.163269,0.23584,0.739075
84629729660,0.609436,0.163208,0.235901,0.739075
84629745447,0.609436,0.163147,0.235901,0.739014
84629768655,0.609436,0.163147,0.235901,0.739014
84629789435,0.609436,0.163147,0.235962,0.739014
84629805461,0.609497,0.163086,0.235962,0.739014
84629828588,0.609497,0.163025,0.236023,0.739014
84629849607,0.609192,0.163086,0.235962,0.739258
84629865453,0.609558,0.163025,0.235962,0.738953
84629889082,0.609924,0.163025,0.236145,0.738586
84629909672,0.609863,0.162964,0.236389,0.738586
84629925428,0.609802,0.163086,0.236694,0.738525
84629948575,0.610474,0.163147,0.236694,0.737976
84629969666,0.611084,0.163086,0.236694,0.737488
84629985445,0.611084,0.163086,0.236694,0.737488
84630007964,0.610901,0.162964,0.236755,0.73761
84630029627,0.610901,0.162964,0.236755,0.73761
84630045473,0.610901,0.162964,0.236816,0.73761
84630067976,0.610962,0.162903,0.236816,0.737549
84630089685,0.610962,0.162842,0.236877,0.737549
84630105471,0.611023,0.162537,0.236816,0.73761
84630127929,0.610901,0.16217,0.236755,0.737793
84630149658,0.610901,0.161743,0.236755,0.737915
84630165445,0.610962,0.161377,0.236572,0.737976
84630187942,0.610962,0.161316,0.236633,0.737976
84630211562,0.610962,0.161316,0.236633,0.737976
84630225408,0.610962,0.161438,0.236755,0.737915
84630247951,0.611084,0.161499,0.236816,0.737793
84630271151,0.611511,0.161499,0.236877,0.737427
84630285470,0.612,0.161499,0.236877,0.737
84630307926,0.612488,0.161377,0.236938,0.736572
84630331082,0.613586,0.161377,0.236938,0.735718
84630345430,0.614441,0.161499,0.237244,0.734863
84630367959,0.61438,0.161621,0.237488,0.734802
84630390946,0.613647,0.161499,0.237915,0.735291
84630405421,0.613708,0.161255,0.238281,0.735168
84630427950,0.614563,0.160767,0.238647,0.734436
84630451165,0.614929,0.15979,0.239197,0.734192
84630465454,0.614746,0.159302,0.23938,0.734375
84630487960,0.615417,0.159424,0.238892,0.733948
84630511112,0.616638,0.159912,0.238647,0.73291
84630525436,0.616516,0.160034,0.23938,0.732788
84630547930,0.614746,0.160645,0.239746,0.733948
84630571146,0.613281,0.162109,0.239136,0.735046
84630585450,0.612793,0.163452,0.237549,0.735657
84630607975,0.607361,0.161438,0.234802,0.741455
84630632551,0.599792,0.158691,0.230957,0.74939
84630652181,0.592102,0.158081,0.225769,0.757202
84630667983,0.585571,0.157104,0.221252,0.763794
84630691164,0.578369,0.156372,0.218262,0.770264
84630712176,0.570068,0.157043,0.214722,0.777283
84630727953,0.559509,0.161194,0.210083,0.785339
84630751108,0.546631,0.168701,0.204224,0.794312
84630772171,0.531921,0.178101,0.197144,0.803955
84630788018,0.515259,0.188232,0.189087,0.814392
84630811169,0.497681,0.199768,0.179443,0.824646
84630832233,0.47699,0.211914,0.169373,0.835938
84630847981,0.453308,0.224304,0.158875,0.847839
84630871131,0.426331,0.23645,0.148438,0.860352
84630892175,0.395752,0.248535,0.138489,0.873108
84630907929,0.362671,0.260132,0.129639,0.885376
84630930510,0.327576,0.271362,0.122192,0.896667
84630953632,0.290833,0.282593,0.115601,0.906677
84630967989,0.252563,0.294128,0.109375,0.915222
84630990470,0.213867,0.305969,0.103699,0.921875
84631012193,0.176514,0.318542,0.098938,0.926025
84631027989,0.141357,0.331238,0.0946045,0.92804
84631050458,0.107605,0.343506,0.0899658,0.928589
84631072216,0.0726929,0.3526,0.0853271,0.928955
84631088003,0.0360718,0.359009,0.0827637,0.928894
84631110466,-6.10352e-05,0.363831,0.0837402,0.927673
84631133594,-0.0334473,0.369507,0.086853,0.9245
84631148037,-0.0623169,0.376709,0.0888672,0.919922
84631170502,-0.0875854,0.385376,0.0878906,0.914307
84631193660,-0.110779,0.396423,0.085083,0.907349
84631207982,-0.132385,0.410461,0.0791626,0.898682
84631230969,-0.145203,0.425659,0.0701904,0.89032
84631253607,-0.152222,0.441956,0.0563965,0.882202
84631267979,-0.156433,0.458374,0.039917,0.873962
84631290467,-0.159302,0.475281,0.0219727,0.86499
84631321363,-0.161804,0.492493,0.00543213,0.855103
84631329341,-0.16803,0.505432,-0.00665283,0.846252
84631350431,-0.171936,0.514832,-0.0184937,0.8396
84631373704,-0.17218,0.522522,-0.02771,0.834534
84631394712,-0.170349,0.530762,-0.0333252,0.829529
84631410477,-0.169312,0.536133,-0.0360107,0.826172
84631433656,-0.167664,0.539185,-0.0360718,0.824463
84631462251,-0.165894,0.540344,-0.0343628,0.824158
84631470449,-0.163391,0.539368,-0.0314331,0.825439
84631493610,-0.160583,0.537598,-0.0267334,0.827271
84631514728,-0.158569,0.535278,-0.0203247,0.829346
84631530492,-0.156494,0.532227,-0.0137329,0.831848
84631553647,-0.152466,0.528809,-0.00756836,0.834839
84631574681,-0.146118,0.525269,-0.00219727,0.838257
84631590513,-0.139832,0.521423,0.003479,0.841736
84631604041,-0.134094,0.517639,0.00933838,0.84491
84631626518,-0.127563,0.513489,0.0150757,0.848389
84631649678,-0.119446,0.509033,0.0212402,0.852112
84631664035,-0.110535,0.503845,0.0281372,0.856201
84631686534,-0.101074,0.49823,0.0344238,0.860413
84631709753,-0.0895996,0.492188,0.0394897,0.864929
84631732889,-0.0760498,0.486328,0.0447998,0.869263
84631746598,-0.0618896,0.480652,0.0507812,0.87323
84631769682,-0.0454712,0.474487,0.055481,0.877258
84631784051,-0.0213013,0.467896,0.057373,0.881592
84631806584,0.00726318,0.461792,0.0568848,0.885071
84631829719,0.0351562,0.455627,0.057251,0.887573
84631844033,0.0604858,0.449097,0.0606079,0.889282
84631866533,0.0858765,0.441406,0.0655518,0.890747
84631889724,0.11084,0.432922,0.0717773,0.891663
84631904048,0.135803,0.422119,0.0789185,0.892761
84631926562,0.159973,0.410339,0.0860596,0.893616
84631949695,0.185974,0.397034,0.0939941,0.893799
84631964023,0.211487,0.382568,0.103027,0.893433
84631986554,0.235535,0.366821,0.112671,0.892822
84632009714,0.257446,0.349854,0.12384,0.892151
84632024090,0.277832,0.33197,0.136169,0.891052
84632046537,0.297058,0.313416,0.148071,0.889648
84632069717,0.315857,0.293701,0.158386,0.888123
84632084004,0.335266,0.273499,0.167419,0.885803
84632106576,0.355591,0.253479,0.176331,0.882141
84632129734,0.374939,0.234375,0.185242,0.877502
84632144064,0.393127,0.216492,0.193115,0.872437
84632166509,0.411743,0.198975,0.200012,0.866455
84632189692,0.429504,0.183044,0.206482,0.859802
84632204053,0.44519,0.170044,0.212402,0.853088
84632226583,0.459351,0.160522,0.216919,0.846252
84632249709,0.473389,0.153259,0.220703,0.838806
84632264099,0.486633,0.1474,0.224548,0.831238
84632286569,0.500793,0.144775,0.227661,0.822388
84632309776,0.516235,0.145203,0.230042,0.812012
84632324088,0.531372,0.147034,0.233276,0.800903
84632346521,0.546204,0.1521,0.236816,0.788879
84632369752,0.560059,0.15863,0.240173,0.776794
84632384071,0.571594,0.163879,0.242065,0.766602
84632406532,0.580872,0.168884,0.24408,0.757874
84632429733,0.587341,0.172241,0.247314,0.751038
84632444015,0.593201,0.172485,0.249939,0.745544
84632466516,0.599548,0.168152,0.251892,0.740723
84632489708,0.606384,0.159607,0.254089,0.736328
84632504063,0.612183,0.15155,0.256287,0.732483
84632526576,0.613831,0.147034,0.256104,0.732056
84632549791,0.606689,0.142639,0.2547,0.739319
84632564079,0.59552,0.137451,0.252869,0.749939
84632586568,0.590454,0.134338,0.251831,0.754822
84632609798,0.592712,0.134155,0.25116,0.753357
84632624134,0.597107,0.135193,0.251587,0.749573
84632646511,0.59906,0.135376,0.252747,0.747559
84632669735,0.597473,0.134827,0.253906,0.748474
84632684039,0.594482,0.134399,0.255127,0.750549
84632706533,0.593262,0.134155,0.256287,0.75116
84632729722,0.593628,0.134277,0.257507,0.750427
84632752248,0.594177,0.135315,0.259155,0.749268
84632766556,0.594666,0.137634,0.260498,0.747986
84632789748,0.59491,0.140869,0.261169,0.746948
84632804063,0.595398,0.144287,0.261719,0.745728
84632826551,0.596863,0.148438,0.262146,0.743591
84632849729,0.59845,0.153015,0.262573,0.741211
84632864068,0.599487,0.15741,0.262756,0.73938
84632886561,0.599609,0.160767,0.262878,0.738525
84632909793,0.599182,0.162231,0.264404,0.737976
84632924063,0.598999,0.163391,0.265381,0.737549
84632946533,0.59906,0.164551,0.265869,0.737061
84632969720,0.599243,0.164917,0.266235,0.736694
84632984057,0.599609,0.164856,0.266785,0.736206
84633006571,0.599976,0.164917,0.267334,0.735657
84633029108,0.600037,0.165283,0.268066,0.735291
84633044059,0.599915,0.165955,0.268677,0.735046
84633066557,0.599792,0.166382,0.269165,0.734863
84633089095,0.599731,0.166504,0.26947,0.734741
84633104070,0.599792,0.166443,0.269531,0.73468
84633126623,0.599915,0.166382,0.269592,0.734619
84633149093,0.600098,0.16626,0.26947,0.734497
84633172240,0.599915,0.166016,0.269287,0.734802
84633186551,0.599548,0.165649,0.268921,0.735291
84633209073,0.599365,0.165161,0.268616,0.735657
84633224109,0.599365,0.164917,0.268555,0.735718
84633246573,0.599182,0.164795,0.268677,0.735901
84633269109,0.598694,0.16449,0.268982,0.736267
84633284072,0.598694,0.164429,0.269043,0.736267
84633306573,0.599121,0.164185,0.269409,0.735779
84633329067,0.59967,0.163818,0.269653,0.735352
84633344113,0.600159,0.163513,0.269775,0.734985
84633366541,0.600586,0.163391,0.269775,0.734619
84633389119,0.600647,0.163391,0.269775,0.734619
84633404038,0.600647,0.163391,0.269775,0.734558
84633426562,0.600708,0.163391,0.269775,0.734497
84633449106,0.600647,0.163086,0.269836,0.734619
84633464154,0.600525,0.162842,0.269714,0.734802
84633486590,0.600647,0.162659,0.269592,0.734802
84633509151,0.600647,0.162598,0.269592,0.734802
84633524061,0.600708,0.162598,0.269653,0.734802
84633546588,0.600769,0.162659,0.269836,0.734619
84633569067,0.600769,0.162598,0.269897,0.734619
84633584077,0.60083,0.162598,0.269897,0.734558
84633606617,0.600891,0.162292,0.27002,0.734558
84633629109,0.60083,0.162109,0.27002,0.734619
84633644087,0.600586,0.162231,0.269958,0.734802
84633674788,0.600281,0.162476,0.269836,0.735107
84633689116,0.600098,0.162476,0.269836,0.735229
84633704066,0.600098,0.162476,0.269836,0.735229
84633726614,0.600098,0.162231,0.269958,0.735229
84633749129,0.600098,0.161987,0.269958,0.735291
84633772289,0.599976,0.161743,0.269958,0.735474
84633786604,0.599976,0.161377,0.269897,0.735535
84633809115,0.600098,0.16095,0.269958,0.735535
84633825500,0.600159,0.1604,0.269958,0.735596
84633846557,0.600281,0.159912,0.269958,0.735596
84633869090,0.600403,0.159546,0.269836,0.735596
84633885532,0.60083,0.159424,0.269714,0.735352
84633906617,0.601318,0.159546,0.269653,0.734985
84633929058,0.601501,0.159668,0.269775,0.73468
84633947620,0.601624,0.15979,0.269897,0.734558
84633966558,0.601624,0.15979,0.269897,0.734558
84633989145,0.601685,0.15979,0.269897,0.734497
84634007019,0.601685,0.15979,0.269897,0.734497
84634026605,0.601685,0.159729,0.269897,0.734497
84634049099,0.601624,0.159607,0.270081,0.734497
84634065561,0.601624,0.159607,0.270081,0.734497
84634086609,0.601624,0.159607,0.270081,0.734558
84634109088,0.601685,0.159851,0.269958,0.734436
84634127061,0.601807,0.160095,0.269897,0.734314
84634146593,0.601807,0.160095,0.269897,0.734314
84634169068,0.601868,0.160034,0.269897,0.734314
84634185560,0.601868,0.160034,0.269897,0.734253
84634206612,0.601929,0.160034,0.269897,0.734253
84634237242,0.601929,0.160034,0.269897,0.734253
84634245544,0.601746,0.159912,0.27002,0.734375
84634266631,0.601685,0.159851,0.270081,0.734436
84634289087,0.601929,0.159729,0.269897,0.734314
84634305532,0.602234,0.159363,0.269897,0.734131
84634326604,0.602295,0.159363,0.269897,0.734131
84634349117,0.602295,0.159363,0.269897,0.73407
84634371608,0.602478,0.159302,0.269897,0.733948
84634386625,0.602783,0.159302,0.269836,0.733704
84634409109,0.602966,0.15918,0.269897,0.733582
84634425521,0.602966,0.15918,0.269897,0.733582
84634446595,0.60321,0.158936,0.269958,0.733459
84634469064,0.603271,0.158936,0.269958,0.733398
84634485572,0.603271,0.158875,0.269958,0.733337
84634516170,0.603516,0.158875,0.269958,0.733215
84634529097,0.603516,0.158875,0.269958,0.733215
84634545547,0.603516,0.158875,0.269958,0.733154
84634566549,0.60376,0.158813,0.27002,0.732971
84634589123,0.604065,0.158752,0.27002,0.732727
84634605532,0.604248,0.158569,0.27002,0.732605
84634634722,0.604736,0.158569,0.269897,0.732239
84634649052,0.605103,0.158569,0.27002,0.731873
84634665544,0.605286,0.15863,0.270142,0.731689
84634686578,0.605713,0.158691,0.270142,0.731323
84634709116,0.60614,0.15863,0.270325,0.730896
84634725563,0.606262,0.158203,0.270691,0.730774
84634748088,0.606323,0.158203,0.270691,0.730774
84634769092,0.606323,0.158203,0.270691,0.730713
84634785581,0.606567,0.158264,0.270935,0.730408
84634808020,0.606689,0.158447,0.271057,0.730225
84634829140,0.606812,0.158569,0.271057,0.730103
84634845530,0.606934,0.158691,0.270935,0.730042
84634868085,0.607056,0.15863,0.270691,0.730042
84634889149,0.607239,0.158569,0.270447,0.72998
84634905523,0.607239,0.158569,0.270447,0.72998
84634928038,0.607239,0.158569,0.270447,0.72998
84634949142,0.607239,0.158569,0.270447,0.72998
84634965533,0.607239,0.158569,0.270447,0.72998
84634988070,0.6073,0.158508,0.270447,0.729919
84635009139,0.6073,0.158508,0.270447,0.729919
84635025502,0.607361,0.158386,0.270508,0.729919
84635048071,0.607056,0.158264,0.270508,0.730164
84635069112,0.606384,0.158081,0.270569,0.730713
84635085572,0.605713,0.157593,0.270691,0.731384
84635108047,0.605042,0.157288,0.270935,0.731934
84635129084,0.604858,0.157288,0.271179,0.731934
84635145577,0.605408,0.157898,0.27124,0.731384
84635168071,0.606506,0.158325,0.271179,0.730347
84635189118,0.607727,0.158691,0.270996,0.729309
84635205547,0.608276,0.158508,0.270996,0.728882
84635228064,0.609131,0.157654,0.270996,0.728394
84635249086,0.610718,0.15564,0.270813,0.7276
84635265562,0.612549,0.152039,0.269775,0.727173
84635288035,0.609009,0.146301,0.268005,0.731934
84635309149,0.595581,0.138367,0.266724,0.744934
84635325538,0.579712,0.13446,0.266174,0.75824
84635348054,0.561401,0.130249,0.265564,0.772827
84635377298,0.54248,0.12793,0.263916,0.787109
84635386243,0.52417,0.130554,0.260132,0.800293
84635408083,0.503906,0.138123,0.254395,0.813721
84635429124,0.482117,0.149719,0.246704,0.827148
84635444810,0.459351,0.163635,0.23822,0.839844
84635467256,0.434326,0.17865,0.229492,0.852417
84635489779,0.407104,0.194275,0.220459,0.864746
84635504784,0.378906,0.210266,0.210571,0.876221
84635527306,0.350098,0.226013,0.200317,0.886658
84635557999,0.320801,0.241699,0.189514,0.895935
84635564773,0.290894,0.256897,0.178528,0.904114
84635587302,0.258911,0.271484,0.168152,0.91156
84635609796,0.224731,0.286072,0.158325,0.917908
84635626249,0.190491,0.301758,0.148621,0.922241
84635647246,0.156921,0.318054,0.139587,0.9245
84635669781,0.122498,0.334229,0.131531,0.925171
84635686265,0.0892334,0.349304,0.123779,0.924438
84635707276,0.0587158,0.362732,0.116516,0.922668
84635729763,0.0308228,0.375671,0.109009,0.919739
84635744785,0.00402832,0.388611,0.101562,0.91571
84635767281,-0.0223999,0.401855,0.0946655,0.910461
84635789816,-0.0471802,0.415222,0.0874634,0.904236
84635804802,-0.0698853,0.428589,0.0787964,0.897278
84635827276,-0.0899658,0.442444,0.0678101,0.889648
84635849781,-0.108459,0.456787,0.055542,0.881165
84635866193,-0.125977,0.473022,0.0415039,0.870972
84635887525,-0.141174,0.489197,0.0264282,0.860229
84635909785,-0.15802,0.504272,0.0112305,0.848877
84635926230,-0.173096,0.516724,-0.00494385,0.83844
84635947330,-0.188538,0.526306,-0.0228271,0.828796
84635969812,-0.200012,0.537231,-0.038147,0.81842
84635986975,-0.210388,0.547363,-0.0523071,0.808289
84636007329,-0.219116,0.555298,-0.06427,0.799683
84636029763,-0.225708,0.561829,-0.0736694,0.792419
84636046224,-0.229736,0.56665,-0.0806274,0.787109
84636067256,-0.231567,0.569946,-0.0848389,0.783752
84636089823,-0.231506,0.572205,-0.0856934,0.782043
84636106247,-0.228699,0.57312,-0.0840454,0.782349
84636127347,-0.223572,0.572021,-0.0795898,0.785095
84636149785,-0.217224,0.569885,-0.072876,0.789124
84636166234,-0.210083,0.567078,-0.0639038,0.793823
84636187259,-0.202148,0.562927,-0.0536499,0.799561
84636209844,-0.193787,0.557373,-0.0427856,0.806152
84636226650,-0.184692,0.550659,-0.0310669,0.813416
84636247279,-0.175171,0.543274,-0.0174561,0.820862
84636269796,-0.166504,0.534973,-0.0012207,0.828247
84636286281,-0.157288,0.524475,0.0163574,0.836548
84636307267,-0.14624,0.513184,0.0335083,0.844971
84636329773,-0.132874,0.501282,0.0496826,0.853516
84636346204,-0.118164,0.48877,0.0652466,0.861877
84636367346,-0.104065,0.475525,0.0812378,0.86969
84636389790,-0.0910645,0.461243,0.0969849,0.877197
84636406238,-0.0767822,0.446777,0.110962,0.884338
84636427292,-0.0583496,0.435242,0.121033,0.890198
84636449769,-0.0341797,0.422974,0.129822,0.896057
84636466202,-0.0111694,0.41095,0.139038,0.900879
84636487344,0.00939941,0.397522,0.148499,0.905396
84636509809,0.0303345,0.386414,0.156921,0.908325
84636526226,0.055603,0.376892,0.16333,0.910034
84636547311,0.0863037,0.368896,0.166748,0.910278
84636569797,0.117615,0.36084,0.169189,0.909546
84636586226,0.1474,0.35199,0.173157,0.907898
84636607334,0.17749,0.34259,0.179077,0.904968
84636629864,0.208374,0.332153,0.185608,0.90094
84636645599,0.240234,0.321167,0.192627,0.895508
84636667291,0.271118,0.309509,0.200623,0.889038
84636689850,0.298096,0.296509,0.210205,0.882568
84636705586,0.32135,0.282593,0.220154,0.876526
84636727349,0.343689,0.268311,0.228821,0.8703
84636749816,0.365356,0.254028,0.237122,0.863525
84636765632,0.385742,0.240173,0.244751,0.856445
84636787286,0.405518,0.223877,0.252197,0.849548
84636809816,0.426514,0.20813,0.258789,0.841248
84636825571,0.446533,0.193115,0.265503,0.832275
84636848739,0.463928,0.179993,0.271545,0.82373
84636869831,0.479309,0.169128,0.27533,0.815918
84636885610,0.494385,0.160767,0.278442,0.807556
84636908773,0.508423,0.151489,0.279663,0.800171
84636929800,0.520691,0.140381,0.279236,0.794434
84636945606,0.530884,0.131775,0.277039,0.789917
84636968715,0.538513,0.125793,0.275757,0.786133
84636991322,0.535461,0.123474,0.268616,0.791077
84637013752,0.516296,0.112061,0.266602,0.80603
84637028732,0.485474,0.0952759,0.27002,0.825989
84637049834,0.469238,0.0830688,0.274536,0.835144
84637065618,0.468933,0.0820923,0.274109,0.83551
84637088792,0.46875,0.0776978,0.278015,0.834778
84637109831,0.472717,0.0794067,0.27887,0.832092
84637125604,0.487244,0.0872803,0.279846,0.822571
84637156307,0.506287,0.0919189,0.28186,0.809753
84637169826,0.524231,0.097168,0.282654,0.797363
84637186289,0.533997,0.0961304,0.289551,0.788452
84637208780,0.538269,0.0992432,0.292664,0.783997
84637229823,0.542847,0.10321,0.292603,0.780334
84637245588,0.545044,0.105896,0.291443,0.77887
84637268762,0.544128,0.107361,0.290344,0.779724
84637289796,0.541748,0.108215,0.289856,0.781433
84637305617,0.538208,0.107727,0.290527,0.783752
84637334813,0.533752,0.106201,0.291809,0.786499
84637349891,0.529236,0.104614,0.292847,0.789368
84637365636,0.525635,0.103516,0.29303,0.79187
84637388789,0.522949,0.1026,0.293091,0.793701
84637409866,0.520691,0.101562,0.293396,0.795227
84637425609,0.519104,0.10083,0.293762,0.796204
84637448785,0.518555,0.100647,0.294006,0.796509
84637469809,0.518799,0.101013,0.29425,0.796204
84637485636,0.519836,0.101624,0.294434,0.79541
84637508812,0.52124,0.102112,0.294495,0.794373
84637529829,0.522339,0.1026,0.294495,0.79364
84637545572,0.52301,0.102844,0.294434,0.793152
84637568083,0.523254,0.102905,0.294495,0.792969
84637589855,0.522949,0.102783,0.294739,0.793091
84637613757,0.522461,0.102539,0.294983,0.793335
84637628158,0.521851,0.102356,0.295105,0.793762
84637649810,0.521179,0.102112,0.295166,0.794189
84637665631,0.520569,0.101807,0.295227,0.794556
84637688140,0.519897,0.101318,0.295349,0.795044
84637711296,0.519043,0.100952,0.29541,0.795654
84637725608,0.51825,0.100586,0.29541,0.796204
84637748077,0.517578,0.100159,0.295532,0.796631
84637771239,0.51709,0.0997925,0.295715,0.796936
84637785577,0.516785,0.0996094,0.295959,0.797058
84637808165,0.517029,0.0994873,0.296082,0.796875
84637831304,0.5177,0.0994263,0.296021,0.796509
84637845634,0.51825,0.0992432,0.295959,0.796143
84637868084,0.518311,0.0992432,0.295959,0.796143
84637891281,0.518188,0.0991211,0.295959,0.796204
84637913811,0.517822,0.098938,0.296021,0.796448
84637928126,0.517456,0.0988159,0.296021,0.796692
84637951261,0.517151,0.0986938,0.295959,0.796936
84637965672,0.517212,0.0986938,0.295959,0.796936
84637988107,0.517029,0.0986328,0.296082,0.796997
84638011261,0.516907,0.0985718,0.296204,0.797058
84638025647,0.516968,0.0985107,0.296204,0.796997
84638048119,0.516907,0.0983276,0.296326,0.797058
84638078761,0.516663,0.0980225,0.29657,0.797119
84638085605,0.516479,0.0977783,0.296814,0.79718
84638108138,0.516296,0.0977173,0.296997,0.797241
84638131234,0.516235,0.0977783,0.29718,0.79718
84638145657,0.516235,0.0979004,0.297302,0.797119
84638168116,0.516235,0.0979004,0.297363,0.797119
84638191314,0.516235,0.0979004,0.297363,0.797119
84638206257,0.516174,0.0976562,0.297424,0.79718
84638228071,0.516174,0.0975952,0.297485,0.797119
84638251240,0.516174,0.0975952,0.297485,0.797119
84638272366,0.516174,0.0975952,0.297485,0.797119
84638288156,0.516235,0.0975342,0.297485,0.797119
84638311285,0.516174,0.097229,0.297668,0.797119
84638332357,0.515991,0.0969849,0.297791,0.797241
84638348102,0.515808,0.0968018,0.297852,0.797363
84638371264,0.515808,0.0967407,0.297852,0.797363
84638392162,0.515808,0.0967407,0.297913,0.797363
84638408128,0.515808,0.0967407,0.297913,0.797363
84638431276,0.515808,0.0966797,0.297913,0.797302
84638452378,0.515808,0.0966797,0.297913,0.797363
84638468156,0.51593,0.0965576,0.297913,0.797241
84638491293,0.516235,0.0964966,0.297852,0.797058
84638512358,0.516479,0.0964355,0.297852,0.796936
84638528134,0.516479,0.0964966,0.298096,0.796875
84638550620,0.516357,0.0966187,0.298401,0.796814
84638572380,0.516235,0.0966187,0.298767,0.796753
84638588104,0.516296,0.0964355,0.299011,0.796631
84638610608,0.516113,0.0961304,0.299255,0.796692
84638632311,0.515808,0.0959473,0.299438,0.796814
84638648097,0.515442,0.0957031,0.299438,0.797119
84638678847,0.515015,0.0956421,0.299316,0.797424
84638692386,0.515015,0.0956421,0.299316,0.797424
84638708175,0.515015,0.0955811,0.299316,0.797424
84638730630,0.515015,0.0956421,0.2995,0.797363
84638753754,0.515015,0.0955811,0.2995,0.797363
84638768123,0.515015,0.0955811,0.2995,0.797363
84638790595,0.515076,0.0955811,0.2995,0.797363
84638813836,0.514893,0.0953369,0.299683,0.797424
84638828184,0.514709,0.0950928,0.299988,0.797424
84638850637,0.514465,0.0949097,0.300354,0.797485
84638873808,0.514526,0.0949097,0.300598,0.797363
84638888099,0.514648,0.0950317,0.30072,0.797241
84638910625,0.514893,0.0951538,0.30072,0.797058
84638933788,0.514893,0.0951538,0.300781,0.797058
84638948186,0.514893,0.0950928,0.300781,0.797058
84638970645,0.514893,0.0950928,0.300781,0.797058
84639001262,0.514893,0.0950928,0.300781,0.797058
84639008129,0.514893,0.0950928,0.300781,0.797058
84639030664,0.514893,0.0950317,0.300781,0.797058
84639053785,0.514893,0.0950317,0.300842,0.796997
84639068163,0.514893,0.0950317,0.300842,0.796997
84639090678,0.514893,0.0949707,0.300842,0.796997
84639113811,0.514893,0.0949707,0.300842,0.796997
84639128142,0.514954,0.0949707,0.300842,0.796997
84639150625,0.514954,0.0949707,0.300842,0.796997
84639173824,0.514954,0.0949097,0.300842,0.796997
84639188099,0.514954,0.0949097,0.300903,0.796997
84639210687,0.514954,0.0949097,0.300903,0.796997
84639233832,0.514954,0.0949097,0.300903,0.796997
84639254857,0.514893,0.0948486,0.300903,0.796997
84639270632,0.514893,0.0948486,0.300903,0.796997
84639284201,0.514893,0.0948486,0.300964,0.796997
84639306691,0.514893,0.0947876,0.300964,0.796997
84639329887,0.514893,0.0947876,0.300964,0.796997
84639344205,0.514893,0.0947876,0.300964,0.796997
84639366736,0.514954,0.0947876,0.300964,0.796997
84639389834,0.514954,0.0947266,0.300964,0.796997
84639413017,0.515259,0.0947876,0.300781,0.796875
84639426749,0.515625,0.0949707,0.300537,0.796692
84639449863,0.515991,0.0951538,0.300293,0.796509
84639464196,0.516235,0.0952148,0.300171,0.796387
84639486651,0.516235,0.0952148,0.300171,0.796387
84639510316,0.516052,0.0950928,0.300293,0.796448
84639524217,0.515808,0.0949707,0.300293,0.796692
84639546728,0.515808,0.0949707,0.300293,0.796692
84639569844,0.515747,0.0949707,0.300293,0.796692
84639584205,0.515747,0.0949097,0.300293,0.796692
84639606726,0.515747,0.0949097,0.300293,0.796692
84639629889,0.515747,0.0949097,0.300293,0.796692
84639644239,0.515869,0.0949097,0.300293,0.796631
84639666714,0.516052,0.0949097,0.300049,0.79657
84639689890,0.51709,0.0953369,0.299316,0.796143
84639704274,0.520325,0.0959473,0.298645,0.794189
84639726737,0.523865,0.0961304,0.298462,0.791931
84639749943,0.525879,0.0960083,0.298767,0.790527
84639764293,0.527832,0.0962524,0.299133,0.789001
84639786694,0.530762,0.0968628,0.298889,0.787048
84639809934,0.536072,0.0983887,0.298096,0.783569
84639832431,0.542114,0.100647,0.297485,0.779358
84639846656,0.55072,0.10498,0.295776,0.773376
84639869885,0.561829,0.113708,0.29126,0.765869
84639884155,0.569519,0.124756,0.283447,0.761292
84639906720,0.569946,0.133301,0.276306,0.762207
84639929890,0.56073,0.138184,0.271484,0.769897
84639944228,0.547241,0.141907,0.267029,0.780396
84639966721,0.532776,0.14801,0.260376,0.791443
84639989889,0.520081,0.157532,0.250977,0.800964
84640012340,0.507324,0.168457,0.240601,0.810059
84640026683,0.491089,0.17981,0.229919,0.820679
84640049873,0.47168,0.192322,0.219116,0.832092
84640064206,0.44989,0.205872,0.208496,0.843567
84640086720,0.426147,0.220825,0.197754,0.854675
84640109906,0.401733,0.236755,0.186584,0.864685
84640124220,0.377014,0.253479,0.174988,0.873413
84640146716,0.352234,0.270569,0.16272,0.880981
84640169867,0.327087,0.287109,0.150513,0.887634
84640184247,0.30072,0.303223,0.14032,0.893188
84640206749,0.273682,0.318787,0.132019,0.897766
84640229931,0.246765,0.334106,0.124573,0.901001
84640244262,0.220947,0.350037,0.117798,0.902588
84640266694,0.196472,0.366943,0.111755,0.902283
84640289893,0.174072,0.384155,0.105835,0.900452
84640304195,0.153076,0.401245,0.0992432,0.897583
84640326758,0.134338,0.418884,0.0909424,0.893372
84640349930,0.121155,0.437195,0.0812378,0.88739
84640364186,0.111755,0.454102,0.0725708,0.880859
84640386728,0.100891,0.468872,0.0664062,0.874878
84640409955,0.0865479,0.482239,0.0612183,0.869568
84640432363,0.0717773,0.494568,0.0552979,0.86438
84640446962,0.0612793,0.508423,0.046936,0.857605
84640469927,0.0533447,0.51593,0.0395508,0.854004
84640484186,0.0479126,0.528503,0.0325928,0.846924
84640506713,0.039978,0.542603,0.0249023,0.838623
84640529904,0.0294189,0.555115,0.0149536,0.831055
84640544231,0.0175171,0.564087,0.0032959,0.825439
84640566811,0.00604248,0.571838,-0.00848389,0.820251
84640598080,-0.00616455,0.578064,-0.0194092,0.815674
84640604261,-0.0186157,0.582336,-0.0293579,0.812134
84640626747,-0.0298462,0.585144,-0.0380249,0.809448
84640649258,-0.0403442,0.586975,-0.0438232,0.807312
84640664232,-0.0504761,0.588074,-0.0472412,0.805786
84640686715,-0.0588989,0.588989,-0.0495605,0.804443
84640709235,-0.0646973,0.589661,-0.0510864,0.803406
84640724256,-0.0683594,0.59021,-0.052063,0.802612
84640746738,-0.0703735,0.590454,-0.0523071,0.802246
84640769241,-0.0704346,0.590515,-0.0517578,0.802246
84640784210,-0.0681763,0.590027,-0.0505371,0.802856
84640806682,-0.0643311,0.588867,-0.0478516,0.804199
84640829248,-0.0598145,0.587036,-0.043396,0.806091
84640844238,-0.0548096,0.584412,-0.0373535,0.808716
84640866738,-0.0489502,0.580933,-0.0308228,0.811829
84640889254,-0.0413818,0.576538,-0.0245972,0.815613
84640904202,-0.031311,0.571533,-0.0185547,0.819702
84640926710,-0.019165,0.565186,-0.0117188,0.824646
84640949250,-0.00610352,0.557495,-0.00360107,0.830078
84640964221,0.00701904,0.548096,0.0055542,0.836304
84640986735,0.0211182,0.537415,0.0147705,0.842896
84641009255,0.036499,0.525208,0.0241699,0.849792
84641024249,0.0518799,0.51239,0.0343628,0.856445
84641046666,0.0681152,0.498779,0.0441284,0.862854
84641069240,0.0869751,0.485291,0.0523682,0.868408
84641084162,0.109009,0.471497,0.0591431,0.873047
84641108207,0.132141,0.457825,0.0656738,0.876648
84641129198,0.153259,0.443542,0.0726318,0.880005
84641144267,0.175781,0.427063,0.0790405,0.883362
84641166735,0.201599,0.409729,0.0842285,0.88562
84641189276,0.229492,0.393433,0.0883179,0.885803
84641204240,0.257629,0.379272,0.0914307,0.883911
84641226744,0.283813,0.365601,0.0962524,0.881165
84641250658,0.3078,0.349976,0.102417,0.878723
84641264230,0.332031,0.33252,0.109924,0.875793
84641286775,0.355225,0.315247,0.119141,0.871826
84641309286,0.379333,0.300049,0.12854,0.865662
84641324247,0.405579,0.2854,0.138489,0.857178
84641354908,0.432251,0.26825,0.149414,0.847839
84641369262,0.456909,0.249084,0.16095,0.838562
84641385650,0.477173,0.230713,0.173462,0.829956
84641406711,0.494202,0.213196,0.186768,0.821777
84641429213,0.51062,0.19696,0.200073,0.812622
84641445669,0.526184,0.182861,0.212219,0.802795
84641466743,0.540405,0.171265,0.222595,0.793091
84641489362,0.553528,0.165405,0.229858,0.783142
84641505650,0.566895,0.163269,0.236206,0.772095
84641526717,0.577881,0.161865,0.24292,0.762024
84641549218,0.5849,0.160522,0.249512,0.754822
84641565655,0.589478,0.158569,0.25592,0.749512
84641586727,0.595825,0.158264,0.259277,0.743408
84641609278,0.601013,0.162415,0.256165,0.73938
84641625716,0.596252,0.167175,0.250671,0.74408
84641646762,0.588623,0.171204,0.244873,0.751099
84641669235,0.588135,0.17572,0.240784,0.751709
84641685716,0.594971,0.179932,0.238647,0.746033
84641706775,0.602295,0.18219,0.238159,0.739746
84641729252,0.603516,0.181396,0.239746,0.738403
84641745716,0.599792,0.178894,0.240173,0.741943
84641766757,0.597107,0.177429,0.238403,0.744995
84641789287,0.599243,0.177246,0.234985,0.744446
84641807215,0.604126,0.177368,0.231384,0.741577
84641826753,0.60791,0.177612,0.228455,0.739319
84641849266,0.608887,0.177856,0.226135,0.739136
84641865714,0.608643,0.177917,0.223877,0.73999
84641886782,0.608215,0.177856,0.222473,0.740845
84641909273,0.606873,0.177673,0.22168,0.742188
84641925677,0.606018,0.177368,0.219788,0.743591
84641946711,0.607666,0.177734,0.215576,0.743347
84641969234,0.611145,0.177612,0.210571,0.741943
84641985682,0.613525,0.176636,0.206116,0.741455
84642006745,0.613281,0.17511,0.202698,0.742981
84642029226,0.612122,0.17395,0.199951,0.744995
84642046331,0.611877,0.17218,0.197998,0.746094
84642066761,0.61322,0.170105,0.196472,0.74585
84642089263,0.615967,0.167297,0.195984,0.744324
84642105705,0.618652,0.164551,0.196045,0.742737
84642126777,0.620972,0.162109,0.196167,0.741272
84642149283,0.623657,0.159546,0.196228,0.739624
84642165705,0.626648,0.156921,0.197327,0.737366
84642186794,0.629028,0.154053,0.199768,0.735229
84642209281,0.630554,0.151062,0.202454,0.733826
84642226345,0.632446,0.148193,0.204529,0.732178
84642246702,0.634949,0.14502,0.205933,0.730286
84642277504,0.637756,0.141296,0.207153,0.728271
84642285654,0.640198,0.136597,0.208618,0.726501
84642316383,0.641846,0.13147,0.210327,0.725525
84642329271,0.643433,0.126343,0.213135,0.724243
84642345702,0.644592,0.12262,0.216187,0.7229
84642368215,0.64563,0.118958,0.219055,0.721741
84642389295,0.6474,0.115417,0.221313,0.720032
84642405716,0.649902,0.112305,0.223022,0.717773
84642428248,0.652222,0.109009,0.224792,0.715576
84642449237,0.653992,0.10553,0.226929,0.713867
84642465713,0.655029,0.102295,0.229004,0.712646
84642488188,0.656128,0.0987549,0.230957,0.711548
84642509291,0.658325,0.0939331,0.232849,0.709534
84642525696,0.663391,0.0888672,0.235352,0.704651
84642548201,0.667603,0.0857544,0.237732,0.700195
84642569289,0.670471,0.0834351,0.240112,0.69696
84642585687,0.67334,0.0812378,0.242493,0.693604
84642608299,0.676697,0.0782471,0.2453,0.689697
84642629261,0.679565,0.0749512,0.248657,0.686035
84642646425,0.681091,0.0717773,0.252136,0.683594
84642668209,0.682617,0.0683594,0.255005,0.681335
84642689291,0.684998,0.0646362,0.256775,0.67865
84642705706,0.688477,0.0606689,0.256836,0.675476
84642728225,0.691711,0.0564575,0.256287,0.672729
84642749286,0.693481,0.0526733,0.256226,0.671204
84642765745,0.695923,0.0497437,0.256042,0.669006
84642789648,0.699219,0.0474243,0.255371,0.666016
84642809320,0.701477,0.0444336,0.253784,0.664368
84642825712,0.702393,0.0412598,0.252075,0.664307
84642848197,0.703613,0.0385132,0.250916,0.663635
84642869283,0.704468,0.0355835,0.25,0.663269
84642885688,0.705017,0.0328979,0.248901,0.663208
84642908257,0.705078,0.0308838,0.247314,0.663818
84642929319,0.705078,0.0296631,0.244934,0.664734
84642945760,0.704773,0.0286865,0.241272,0.666504
84642968232,0.704834,0.0274658,0.235901,0.668335
84642989294,0.704163,0.0253906,0.229126,0.671448
84643005730,0.702881,0.0227051,0.22168,0.675476
84643028264,0.701172,0.0206299,0.213806,0.679749
84643049273,0.699097,0.019165,0.205994,0.684387
84643065758,0.696167,0.0178833,0.197815,0.689819
84643088203,0.692322,0.0160522,0.189392,0.695984
84643109290,0.687988,0.0140381,0.180542,0.702698
84643124984,0.683044,0.012146,0.171143,0.7099
84643147472,0.678467,0.0106201,0.160828,0.716675
84643169991,0.67395,0.00915527,0.149231,0.723389
84643184933,0.669617,0.00744629,0.135803,0.730103
84643207419,0.664734,0.00506592,0.120789,0.737183
84643238166,0.659363,0.00115967,0.10498,0.744385
84643244978,0.65387,-0.00445557,0.0880737,0.751343
84643267514,0.646729,-0.0123291,0.0710449,0.759277
84643289995,0.638855,-0.0244141,0.0526123,0.76709
84643304979,0.6297,-0.0393677,0.0332642,0.775085
84643327488,0.618469,-0.0551758,0.0129395,0.783691
84643349974,0.606384,-0.0703735,-0.00848389,0.791931
84643365052,0.59314,-0.085144,-0.0305176,0.799927
84643387455,0.578735,-0.0999146,-0.0510254,0.807678
84643410008,0.56366,-0.114441,-0.0691528,0.815063
84643425010,0.548035,-0.127808,-0.0854492,0.822144
84643447463,0.532288,-0.139832,-0.100159,0.828857
84643469982,0.519226,-0.151428,-0.112427,0.833557
84643486364,0.507629,-0.162231,-0.121643,0.837341
84643507473,0.497803,-0.172119,-0.128113,0.840271
84643529974,0.488281,-0.180115,-0.132935,0.843445
84643546405,0.482361,-0.186584,-0.136841,0.844849
84643567457,0.4776,-0.191589,-0.137939,0.846252
84643589972,0.473877,-0.195679,-0.137268,0.847473
84643606359,0.471497,-0.19928,-0.135681,0.848267
84643627467,0.469604,-0.202209,-0.133057,0.848999
84643649997,0.464844,-0.203979,-0.130676,0.851562
84643672466,0.458191,-0.204529,-0.128906,0.855347
84643687412,0.451172,-0.204651,-0.126404,0.859375
84643709738,0.443848,-0.206421,-0.122253,0.863342
84643726385,0.435303,-0.206726,-0.119141,0.868042
84643747499,0.425964,-0.205688,-0.117615,0.873108
84643769959,0.418274,-0.204346,-0.11676,0.877258
84643786379,0.41272,-0.203125,-0.116394,0.880249
84643807490,0.410156,-0.202026,-0.116821,0.881592
84643829992,0.406494,-0.199646,-0.117737,0.883728
84643846381,0.403198,-0.196228,-0.11908,0.885803
84643867470,0.40155,-0.193542,-0.120117,0.887024
84643890022,0.402039,-0.192017,-0.121033,0.887024
84643906414,0.401978,-0.190247,-0.12207,0.887268
84643927510,0.401855,-0.188171,-0.122925,0.887695
84643951362,0.402222,-0.186768,-0.123413,0.887695
84643966444,0.40332,-0.186218,-0.123718,0.887268
84643987461,0.403381,-0.185669,-0.124329,0.887329
84644009999,0.402954,-0.184937,-0.124817,0.887573
84644026404,0.402954,-0.184875,-0.124817,0.887573
84644047466,0.403442,-0.185547,-0.124939,0.887207
84644069959,0.404785,-0.186584,-0.125488,0.886292
84644086416,0.405518,-0.186951,-0.126465,0.885742
84644108126,0.40509,-0.186584,-0.127808,0.885864
84644129995,0.404785,-0.18634,-0.128906,0.885864
84644146403,0.405029,-0.186523,-0.129944,0.885559
84644167448,0.405396,-0.18634,-0.131104,0.885254
84644189975,0.404907,-0.185852,-0.131958,0.885437
84644205720,0.403992,-0.185486,-0.132568,0.885864
84644227487,0.403564,-0.185608,-0.132935,0.885986
84644249989,0.403198,-0.185913,-0.133179,0.886047
84644266384,0.402527,-0.186157,-0.13324,0.886292
84644287442,0.402466,-0.186646,-0.132935,0.886292
84644310022,0.402771,-0.187439,-0.132263,0.886047
