timestamp,x,y,z,w
9919492787,-0.0908813,0.0335083,0.76239,-0.639771
9919508579,-0.0922852,0.0352783,0.762573,-0.639343
9919530327,-0.0947266,0.0388794,0.762634,-0.638672
9919552777,-0.0964966,0.0449219,0.762756,-0.637817
9919568580,-0.0975342,0.0482178,0.763062,-0.637085
9919590314,-0.0983887,0.0489502,0.762878,-0.637146
9919612670,-0.0997925,0.0495605,0.762878,-0.636902
9919628589,-0.101807,0.0512085,0.763062,-0.63623
9919650287,-0.102844,0.0534668,0.762878,-0.636047
9919672876,-0.103271,0.0546875,0.763,-0.635742
9919688608,-0.104065,0.0559692,0.763062,-0.635376
9919711785,-0.105103,0.0585327,0.763184,-0.634888
9919732770,-0.106567,0.0628052,0.763916,-0.633362
9919748665,-0.107056,0.0650024,0.764587,-0.632263
9919771733,-0.107239,0.0643311,0.764648,-0.632202
9919792826,-0.107849,0.0637817,0.764893,-0.631836
9919808582,-0.108215,0.0650024,0.765747,-0.630615
9919831719,-0.108887,0.0665894,0.76593,-0.630127
9919852987,-0.108948,0.0670166,0.765686,-0.63031
9919868732,-0.108704,0.0670776,0.765564,-0.630554
9919891599,-0.108521,0.0675659,0.765259,-0.63092
9919912813,-0.108521,0.0679932,0.765259,-0.630859
9919928597,-0.108521,0.0680542,0.765381,-0.630737
9919951771,-0.10907,0.0682373,0.765564,-0.630371
9919972787,-0.108948,0.0675659,0.765503,-0.630554
9919988578,-0.108093,0.0670776,0.765381,-0.630859
9920011735,-0.106506,0.0667725,0.76532,-0.631226
9920040326,-0.104797,0.0656738,0.76532,-0.631653
9920048590,-0.103027,0.0646362,0.765564,-0.631775
9920071734,-0.101196,0.0632324,0.766418,-0.631165
9920092860,-0.0997314,0.0603027,0.767517,-0.630371
9920108616,-0.0976562,0.0557861,0.768127,-0.63031
9920131824,-0.0963135,0.0531616,0.768005,-0.63092
9920152991,-0.0962524,0.0531006,0.768005,-0.63092
9920175520,-0.0966187,0.0543823,0.768372,-0.63031
9920191775,-0.0969238,0.055542,0.768127,-0.630493
9920212949,-0.0971069,0.0559692,0.767761,-0.630859
9920228705,-0.0975952,0.0560303,0.767456,-0.631165
9920251772,-0.0983887,0.0567627,0.767456,-0.630981
9920272854,-0.0991211,0.0579834,0.767517,-0.630615
9920288595,-0.0996704,0.0584717,0.767395,-0.630676
9920319215,-0.0999146,0.0578613,0.76709,-0.631042
9920332952,-0.100037,0.057312,0.766907,-0.631348
9920348710,-0.100464,0.057251,0.766724,-0.63147
9920371837,-0.100708,0.0580444,0.766602,-0.631531
9920393046,-0.100342,0.0586548,0.766235,-0.631897
9920408656,-0.0994873,0.0584717,0.765503,-0.632996
9920431798,-0.0981445,0.0576782,0.764832,-0.634033
9920454328,-0.09729,0.0571289,0.764893,-0.634155
9920468728,-0.0968628,0.0567627,0.765015,-0.634155
9920491866,-0.0965576,0.0567017,0.764526,-0.634766
9920512902,-0.0964355,0.0563965,0.763977,-0.635498
9920528719,-0.0966187,0.0565796,0.764221,-0.635193
9920559268,-0.0975342,0.0574951,0.765259,-0.633728
9920572773,-0.0981445,0.0585327,0.766418,-0.63208
9920588612,-0.097229,0.0593262,0.766479,-0.63208
9920611124,-0.0961304,0.0586548,0.765564,-0.633423
9920634284,-0.0961914,0.0580444,0.765076,-0.634094
9920648615,-0.0982056,0.0601196,0.765076,-0.633545
9920671221,-0.100159,0.0645142,0.765564,-0.632263
9920694323,-0.101868,0.0682983,0.765869,-0.631165
9920708684,-0.104675,0.0715942,0.765686,-0.630554
9920731162,-0.106995,0.0778809,0.765076,-0.630188
9920754333,-0.107117,0.0822144,0.766174,-0.628296
9920768707,-0.106812,0.0864868,0.766663,-0.627136
9920791187,-0.105469,0.086792,0.766296,-0.627747
9920814300,-0.104187,0.0842896,0.766174,-0.628479
9920828653,-0.104004,0.0823364,0.767151,-0.627563
9920851163,-0.102966,0.0808716,0.768494,-0.626343
9920874273,-0.101196,0.0791626,0.769226,-0.625916
9920888622,-0.100037,0.0784302,0.769165,-0.626221
9920911092,-0.0998535,0.078064,0.769653,-0.625732
9920934244,-0.100281,0.0794067,0.769653,-0.625549
9920948590,-0.0998535,0.0814209,0.769897,-0.625
9920971245,-0.0994873,0.0830078,0.769714,-0.625122
9920994331,-0.100159,0.0836182,0.769409,-0.625305
9921008696,-0.10083,0.085144,0.769409,-0.625
9921031188,-0.101501,0.086792,0.769714,-0.624207
9921054381,-0.102234,0.0877075,0.769714,-0.624023
9921075507,-0.10321,0.0875854,0.770203,-0.623291
9921091234,-0.104126,0.0879517,0.770569,-0.62262
9921114333,-0.104919,0.0891113,0.771118,-0.621643
9921135568,-0.105591,0.0904541,0.771973,-0.620239
9921151162,-0.106567,0.0922241,0.772339,-0.619385
9921174352,-0.107605,0.0925903,0.772522,-0.618896
9921195580,-0.108826,0.0930176,0.772583,-0.618591
9921211120,-0.109558,0.0946045,0.7724,-0.618408
9921234247,-0.110291,0.0964966,0.772522,-0.617859
9921255398,-0.111084,0.0979614,0.772461,-0.617554
9921271119,-0.111816,0.098938,0.772522,-0.617188
9921294259,-0.11261,0.0994873,0.772583,-0.616821
9921315333,-0.113159,0.100098,0.772644,-0.616577
9921331092,-0.112915,0.101562,0.772888,-0.616089
9921354296,-0.112549,0.102234,0.77356,-0.615173
9921375559,-0.111938,0.102051,0.77356,-0.615295
9921391275,-0.112,0.100952,0.773499,-0.615601
9921414272,-0.112305,0.100647,0.77356,-0.615479
9921435521,-0.112366,0.100464,0.773621,-0.615417
9921451219,-0.112305,0.0998535,0.773254,-0.615967
9921481837,-0.111755,0.0982666,0.772766,-0.616943
9921495556,-0.112,0.0978394,0.771973,-0.617981
9921511256,-0.112122,0.0982666,0.771667,-0.618286
9921533668,-0.111877,0.098938,0.771484,-0.618469
9921555405,-0.111755,0.0988159,0.771423,-0.61853
9921571153,-0.111145,0.0982666,0.771545,-0.618591
9921593606,-0.110352,0.0964355,0.771729,-0.618835
9921616764,-0.10907,0.0944824,0.771912,-0.619141
9921631121,-0.107971,0.0930786,0.772644,-0.618652
9921653704,-0.107361,0.0918579,0.77301,-0.618469
9921676838,-0.106628,0.0910645,0.773132,-0.618591
9921691251,-0.106018,0.090271,0.773071,-0.618835
9921713642,-0.105652,0.0895996,0.772888,-0.619202
9921736844,-0.105225,0.0895996,0.772888,-0.619263
9921751239,-0.104248,0.0892334,0.773071,-0.619263
9921773667,-0.103516,0.0882568,0.773499,-0.619019
9921796820,-0.103027,0.0877686,0.773926,-0.618652
9921811212,-0.103699,0.0873413,0.774597,-0.617676
9921833777,-0.104553,0.088562,0.775024,-0.616882
9921856825,-0.105225,0.0899658,0.77594,-0.615479
9921871148,-0.106262,0.0906372,0.776428,-0.614502
9921893607,-0.107971,0.0918579,0.7771,-0.613159
9921916806,-0.109985,0.095459,0.778198,-0.610901
9921937887,-0.110046,0.0996704,0.778687,-0.609558
9921953638,-0.110291,0.101257,0.778625,-0.609375
9921992499,-0.110779,0.101257,0.778687,-0.609192
9921997892,-0.111511,0.101196,0.77948,-0.608093
9922013653,-0.112671,0.103149,0.780151,-0.606628
9922036912,-0.113708,0.104492,0.780518,-0.605774
9922051140,-0.113831,0.105225,0.780151,-0.606079
9922073736,-0.113892,0.105042,0.779907,-0.606384
9922096857,-0.113953,0.105042,0.779907,-0.606384
9922119430,-0.113403,0.104797,0.779663,-0.606873
9922133721,-0.113037,0.104187,0.779236,-0.607544
9922156830,-0.112427,0.103577,0.778625,-0.608582
9922178104,-0.111511,0.103271,0.777771,-0.609863
9922193682,-0.109924,0.103699,0.776672,-0.611511
9922216842,-0.107727,0.101929,0.776245,-0.612793
9922237900,-0.104614,0.0986938,0.776428,-0.613586
9922253662,-0.102722,0.0913696,0.776428,-0.615051
9922276811,-0.10083,0.0860596,0.776306,-0.616211
9922297884,-0.0990601,0.0822754,0.776428,-0.616943
9922313638,-0.0981445,0.0804443,0.776367,-0.617371
9922336767,-0.0975342,0.079834,0.776306,-0.617615
9922358043,-0.0974121,0.0791016,0.776611,-0.61731
9922373788,-0.0974731,0.0786133,0.776672,-0.61731
9922396899,-0.0974731,0.078125,0.776794,-0.617249
9922417947,-0.0968018,0.0776367,0.7771,-0.617004
9922433653,-0.0958862,0.0765381,0.777527,-0.61676
9922456149,-0.0944214,0.0747681,0.778259,-0.616272
9922478060,-0.0925293,0.0723267,0.779541,-0.615234
9922493740,-0.0896606,0.0685425,0.781433,-0.613708
9922516162,-0.086792,0.0630493,0.78363,-0.611877
9922539829,-0.0836182,0.0566406,0.784607,-0.611694
9922552951,-0.079895,0.0496826,0.784729,-0.612671
9922567222,-0.0761719,0.0424805,0.785095,-0.613159
9922589704,-0.0713501,0.0343018,0.785339,-0.613953
9922612843,-0.0664673,0.0250854,0.785889,-0.614258
9922627142,-0.0606079,0.0158081,0.786499,-0.61438
9922649713,-0.0548706,0.00793457,0.787231,-0.614197
9922673067,-0.0496826,-0.000610352,0.788208,-0.613342
9922687396,-0.0443726,-0.00976562,0.789368,-0.612244
9922710009,-0.0383301,-0.0205078,0.789429,-0.612305
9922733065,-0.0324707,-0.0271606,0.788452,-0.613647
9922747305,-0.0308838,-0.027771,0.789185,-0.612793
9922769927,-0.0311279,-0.0253906,0.792542,-0.608521
9922793637,-0.0327148,-0.0220947,0.794128,-0.606506
9922807423,-0.0322876,-0.0204468,0.794006,-0.606689
9922829763,-0.0303345,-0.0189819,0.792908,-0.608276
9922853087,-0.0293579,-0.0183716,0.792969,-0.608276
9922867268,-0.0308838,-0.0159302,0.793823,-0.607117
9922889694,-0.0348511,-0.0127563,0.79364,-0.607239
9922912859,-0.0377808,-0.00830078,0.793457,-0.607422
9922927261,-0.0402222,-0.00231934,0.793701,-0.606934
9922949725,-0.0487061,0.00726318,0.790222,-0.61084
9922972952,-0.0592041,0.0170288,0.787964,-0.61261
9922987276,-0.0612793,0.0214844,0.790771,-0.608643
9923009739,-0.0591431,0.0206299,0.791626,-0.607788
9923032964,-0.0562134,0.0154419,0.793518,-0.605774
9923047262,-0.0549316,0.0120239,0.795471,-0.603333
9923069813,-0.0566406,0.0159912,0.798401,-0.599243
9923093109,-0.060791,0.0285034,0.799377,-0.597046
9923107353,-0.0654907,0.0372925,0.797852,-0.598083
9923129960,-0.0656128,0.0357666,0.798462,-0.597351
9923153097,-0.0645142,0.0315552,0.800232,-0.595337
9923167505,-0.0620728,0.0265503,0.801941,-0.593567
9923189723,-0.05896,0.0211182,0.803711,-0.591736
9923212863,-0.0568848,0.0192261,0.806885,-0.587585
9923227314,-0.0541382,0.0196533,0.810486,-0.582886
9923249793,-0.050415,0.0176392,0.812378,-0.580627
9923273059,-0.046936,0.00982666,0.813293,-0.579895
9923287334,-0.0465698,0.000366211,0.816406,-0.575562
9923309940,-0.0471191,-0.00189209,0.820374,-0.569885
9923333045,-0.0480347,0.000610352,0.82196,-0.567505
9923347332,-0.0474243,0.00219727,0.824463,-0.563965
9923369927,-0.0436401,-0.00244141,0.828125,-0.558838
9923393186,-0.0393066,-0.0106812,0.830383,-0.555664
9923407519,-0.0335693,-0.0187988,0.832153,-0.553162
9923438003,-0.0285645,-0.0255737,0.833679,-0.550842
9923452943,-0.0239258,-0.0319824,0.837219,-0.54541
9923467251,-0.0198364,-0.038147,0.839966,-0.540894
9923489699,-0.0169067,-0.0442505,0.841797,-0.53772
9923512204,-0.0154419,-0.0474854,0.843262,-0.535156
9923527259,-0.0145264,-0.0485229,0.845215,-0.532043
9923549720,-0.0128174,-0.0505371,0.851624,-0.521545
9923572452,-0.0109253,-0.0544434,0.858765,-0.509338
9923587448,-0.0115967,-0.059021,0.86322,-0.501221
9923609904,-0.0136108,-0.0610352,0.864929,-0.497986
9923632330,-0.0166016,-0.0604248,0.864746,-0.498291
9923647330,-0.0184937,-0.059021,0.866638,-0.495117
9923669959,-0.0163574,-0.0598145,0.872192,-0.485168
9923692452,-0.0140991,-0.0621338,0.875854,-0.478394
9923707411,-0.0131226,-0.0662231,0.876526,-0.476562
9923729984,-0.0134277,-0.0681763,0.874695,-0.479675
9923752242,-0.0134277,-0.0661621,0.873962,-0.481262
9923767417,-0.0111084,-0.0618286,0.878052,-0.474426
9923789746,-0.00708008,-0.0593262,0.88269,-0.466187
9923812171,-0.00561523,-0.0566406,0.885254,-0.461548
9923827227,-0.00671387,-0.0517578,0.885376,-0.461914
9923849736,-0.00805664,-0.0480957,0.884277,-0.464417
9923872221,-0.00628662,-0.0452271,0.88739,-0.45874
9923895384,-0.00384521,-0.0430298,0.890625,-0.452576
9923909765,-0.00427246,-0.0414429,0.891846,-0.450378
9923932375,-0.00756836,-0.0392456,0.89209,-0.450073
9923947318,-0.00836182,-0.0387573,0.893738,-0.446838
9923969949,-0.00836182,-0.0406494,0.894714,-0.444641
9923992534,-0.00750732,-0.0436401,0.895325,-0.443115
9924007439,-0.0067749,-0.0459595,0.895142,-0.443298
9924030024,-0.00628662,-0.0462036,0.89447,-0.444641
9924052457,-0.00512695,-0.0443726,0.893799,-0.446228
9924067297,-0.00335693,-0.0422974,0.894592,-0.444824
9924089931,0.000305176,-0.0413208,0.897217,-0.439575
9924112365,0.00305176,-0.0440674,0.898315,-0.437134
9924127266,0.0032959,-0.0479126,0.897461,-0.438477
9924149739,0.00335693,-0.0496216,0.896851,-0.439514
9924172259,0.00506592,-0.0502319,0.897217,-0.43866
9924187180,0.00946045,-0.0531616,0.899109,-0.434326
9924209777,0.012207,-0.0576782,0.900208,-0.431458
9924232280,0.0126343,-0.0615234,0.900146,-0.430969
9924247364,0.010376,-0.0621948,0.899597,-0.43219
9924269796,0.010376,-0.0594482,0.900085,-0.431519
9924292485,0.0123901,-0.0588989,0.901001,-0.429565
9924308807,0.0162354,-0.0609131,0.902466,-0.426086
9924329868,0.0192871,-0.0626831,0.902954,-0.424622
9924352406,0.0211182,-0.0635986,0.902954,-0.424377
9924368732,0.0233154,-0.0630493,0.902771,-0.424805
9924389981,0.0262451,-0.0648193,0.904053,-0.421631
9924412405,0.0299683,-0.0718994,0.904785,-0.418579
9924428767,0.03479,-0.0810547,0.904663,-0.416809
9924452680,0.0402222,-0.0888672,0.90387,-0.416504
9924472466,0.045105,-0.0935669,0.902039,-0.418884
9924488721,0.0495605,-0.0983887,0.899475,-0.422791
9924509955,0.0550537,-0.103333,0.897339,-0.425537
9924532330,0.0615234,-0.109375,0.895752,-0.426392
9924548689,0.0671387,-0.115967,0.89447,-0.426514
9924569970,0.0728149,-0.121765,0.894104,-0.424744
9924592432,0.0762329,-0.127625,0.893127,-0.424561
9924608770,0.0790405,-0.132202,0.892578,-0.423706
9924629922,0.0808716,-0.134827,0.892517,-0.422668
9924652337,0.0820312,-0.136292,0.892456,-0.422058
9924668722,0.083313,-0.138367,0.892395,-0.421265
9924689939,0.0846558,-0.139526,0.892883,-0.419678
9924712421,0.0862427,-0.139893,0.893677,-0.417542
9924728732,0.086853,-0.140503,0.893921,-0.416687
9924749852,0.0875854,-0.141479,0.893799,-0.416504
9924772552,0.0891724,-0.143127,0.894165,-0.414734
9924788747,0.0906982,-0.14502,0.893982,-0.414062
9924809868,0.0922241,-0.146118,0.894104,-0.413208
9924832284,0.0941772,-0.145752,0.894714,-0.411438
9924854968,0.0955811,-0.144409,0.895325,-0.410339
9924870025,0.0963135,-0.143494,0.894958,-0.411316
9924892470,0.0961304,-0.142639,0.894836,-0.411865
9924908798,0.0953979,-0.140503,0.895264,-0.411926
9924930027,0.0946045,-0.138977,0.895569,-0.411865
9924952403,0.0943604,-0.13739,0.896057,-0.411377
9924968735,0.09375,-0.136353,0.896301,-0.411438
9924989980,0.0928955,-0.135071,0.896606,-0.411316
9925012441,0.0917969,-0.133423,0.897034,-0.411255
9925028778,0.0910645,-0.132568,0.897278,-0.411133
9925049817,0.0910034,-0.132263,0.897095,-0.411621
9925072459,0.0910034,-0.131592,0.896912,-0.41217
9925088795,0.0913696,-0.130615,0.896729,-0.412842
9925109936,0.0916748,-0.1297,0.896667,-0.413147
9925132386,0.0921021,-0.130005,0.896851,-0.412598
9925148767,0.0922241,-0.130493,0.896973,-0.41217
9925172758,0.0921631,-0.130615,0.897095,-0.411865
9925192459,0.0918579,-0.129944,0.897095,-0.41217
9925208822,0.0915527,-0.128967,0.897217,-0.412231
9925229972,0.0916138,-0.128052,0.897522,-0.411926
9925252290,0.0895996,-0.125244,0.8974,-0.413391
9925268831,0.0875244,-0.123291,0.8974,-0.414429
9925291316,0.0858154,-0.119507,0.897949,-0.414673
9925312472,0.0843506,-0.114197,0.899048,-0.414185
9925328755,0.0838013,-0.111145,0.899597,-0.41394
9925351330,0.0838013,-0.109924,0.899536,-0.414368
9925372516,0.0845337,-0.109802,0.899353,-0.414673
9925388722,0.0864258,-0.113525,0.898499,-0.415039
9925411287,0.0878296,-0.115356,0.898376,-0.414612
9925432375,0.0889282,-0.11615,0.898193,-0.414551
9925448819,0.0896606,-0.116943,0.89801,-0.414551
9925471300,0.0899658,-0.117859,0.897949,-0.414368
9925492308,0.0895386,-0.118225,0.897888,-0.41449
9925508807,0.088562,-0.117493,0.897888,-0.414978
9925531185,0.0874634,-0.116028,0.897888,-0.415466
9925552297,0.0865479,-0.114441,0.897888,-0.416199
9925568786,0.0858154,-0.113037,0.897705,-0.416992
9925591269,0.0855103,-0.112244,0.897644,-0.41748
9925612532,0.085144,-0.111938,0.897705,-0.417542
9925628743,0.0847168,-0.111755,0.897827,-0.417419
9925651270,0.0843506,-0.111694,0.89801,-0.417053
9925672426,0.0842896,-0.111633,0.898132,-0.41687
9925688826,0.0843506,-0.11145,0.898193,-0.416809
9925711284,0.0845947,-0.111511,0.897949,-0.417175
9925732345,0.0845947,-0.111511,0.897949,-0.417175
9925748735,0.0842896,-0.111145,0.89801,-0.417175
9925778772,0.0838623,-0.110596,0.898193,-0.417053
9925792324,0.0836792,-0.109863,0.898438,-0.416748
9925808796,0.083313,-0.109253,0.89856,-0.416809
9925831280,0.0828247,-0.108459,0.89856,-0.416992
9925852424,0.0823975,-0.107544,0.898682,-0.417114
9925870215,0.0822144,-0.106934,0.898682,-0.417297
9925891290,0.0826416,-0.106873,0.898682,-0.417297
9925912499,0.0822144,-0.10675,0.898376,-0.417969
9925928774,0.0810547,-0.105347,0.89856,-0.418213
9925951261,0.0800781,-0.103088,0.898987,-0.41803
9925972457,0.0796509,-0.101196,0.899414,-0.417664
9925988758,0.0796509,-0.100525,0.899597,-0.417358
9926011211,0.079895,-0.100769,0.899475,-0.417603
9926032295,0.0805664,-0.101257,0.899414,-0.417419
9926048722,0.0811768,-0.102417,0.899353,-0.417236
9926071363,0.081604,-0.103027,0.899353,-0.416992
9926092335,0.0820312,-0.103333,0.899414,-0.416748
9926108838,0.0825195,-0.103577,0.899292,-0.41687
9926131203,0.0828857,-0.104614,0.898865,-0.417358
9926152312,0.0827026,-0.105408,0.89856,-0.417847
9926168732,0.0828247,-0.105774,0.898376,-0.418152
9926191304,0.0828247,-0.105469,0.898254,-0.418457
9926213764,0.0828857,-0.105164,0.898071,-0.418945
9926228721,0.0828247,-0.105103,0.897644,-0.419861
9926251302,0.0826416,-0.10498,0.897339,-0.420654
9926282343,0.0823364,-0.10437,0.897278,-0.420959
9926290254,0.0818481,-0.103882,0.897339,-0.421082
9926311391,0.0812988,-0.103333,0.8974,-0.421143
9926335229,0.0808105,-0.102905,0.8974,-0.421326
9926350234,0.0805054,-0.102539,0.897278,-0.421692
9926371278,0.0802612,-0.102356,0.897278,-0.421814
9926393148,0.079895,-0.102478,0.8974,-0.421692
9926409389,0.0797119,-0.102478,0.897522,-0.421448
9926430436,0.0793457,-0.102539,0.897705,-0.421082
9926452940,0.0792236,-0.102783,0.897827,-0.420776
9926469405,0.0792847,-0.103088,0.897827,-0.420715
9926491080,0.0792236,-0.103088,0.897766,-0.420715
9926512941,0.0791016,-0.102539,0.897888,-0.420715
9926529416,0.0789185,-0.101868,0.89801,-0.420593
9926550627,0.0785522,-0.10144,0.898254,-0.420349
9926573100,0.0783691,-0.101013,0.898376,-0.420105
9926589436,0.0783691,-0.101013,0.898376,-0.420105
9926610564,0.0786743,-0.101074,0.898193,-0.420471
9926633094,0.0786133,-0.101379,0.89801,-0.420837
9926649437,0.0782471,-0.10144,0.897766,-0.421326
9926670580,0.0782471,-0.100525,0.897888,-0.421387
9926700608,0.0787354,-0.0986328,0.898254,-0.420959
9926709427,0.0787354,-0.0986938,0.898254,-0.420898
9926730453,0.0790405,-0.098938,0.898315,-0.420715
9926753194,0.0792236,-0.0992432,0.898193,-0.420776
9926769480,0.0792847,-0.0994263,0.898071,-0.420959
9926790665,0.0795288,-0.0991821,0.898071,-0.421021
9926813092,0.0795288,-0.0992432,0.898071,-0.421021
9926835643,0.0794067,-0.098938,0.898132,-0.420959
9926850631,0.0792236,-0.0986328,0.898132,-0.421082
9926873188,0.0789795,-0.0983276,0.898071,-0.421326
9926889498,0.0789795,-0.0983276,0.898071,-0.421326
9926910681,0.0789185,-0.0984497,0.898132,-0.421204
9926932985,0.0789185,-0.0984497,0.898132,-0.421204
9926949441,0.0785522,-0.0982666,0.898254,-0.421082
9926970681,0.078186,-0.0975952,0.898438,-0.420837
9926993205,0.0778198,-0.0969238,0.898682,-0.420532
9927009442,0.0775757,-0.0962524,0.898865,-0.42041
9927030710,0.0775146,-0.0958862,0.898926,-0.42041
9927053133,0.0773315,-0.0952759,0.898926,-0.420471
9927069424,0.0769043,-0.0947876,0.899048,-0.420471
9927090735,0.0765381,-0.0942383,0.899231,-0.420349
9927112954,0.0762329,-0.09375,0.899292,-0.420227
9927129439,0.0759888,-0.093689,0.899475,-0.419983
9927150467,0.0759888,-0.09375,0.899536,-0.419861
9927172943,0.0762329,-0.0936279,0.899536,-0.419861
9927188737,0.0761719,-0.0933838,0.899353,-0.420227
9927210466,0.0759888,-0.0930176,0.899231,-0.420654
9927232934,0.0751343,-0.09198,0.899109,-0.421326
9927248733,0.0745239,-0.0903931,0.899048,-0.421814
9927271933,0.0741577,-0.0889282,0.899048,-0.42218
9927300614,0.0740967,-0.0877686,0.899109,-0.422363
9927308831,0.0742188,-0.0872192,0.899048,-0.422607
9927331936,0.074707,-0.0875854,0.899048,-0.422424
9927353001,0.0757446,-0.0881958,0.899048,-0.422119
9927368787,0.0765381,-0.0878906,0.899048,-0.421997
9927391985,0.0766602,-0.0884399,0.898926,-0.422119
9927413257,0.0769653,-0.0892334,0.898743,-0.422302
9927428797,0.0771484,-0.0896606,0.898621,-0.422424
9927451941,0.0772705,-0.0899658,0.89856,-0.422546
9927473055,0.0772705,-0.0899658,0.898499,-0.422546
9927488788,0.0767822,-0.0895386,0.89856,-0.422729
9927511937,0.0762329,-0.0888672,0.89856,-0.422913
9927533186,0.0756226,-0.0884399,0.89856,-0.423035
9927548796,0.0750732,-0.0884399,0.898499,-0.42334
9927579542,0.0750732,-0.0884399,0.898499,-0.42334
9927593032,0.0750122,-0.0884399,0.898499,-0.42334
9927608757,0.0750122,-0.0881958,0.898499,-0.423401
9927631932,0.0750732,-0.0880127,0.898376,-0.423645
9927652998,0.0753174,-0.0881348,0.898315,-0.423828
9927668757,0.0756836,-0.0883179,0.898132,-0.424011
9927691899,0.0759277,-0.0884399,0.89801,-0.424194
9927712962,0.0759277,-0.0884399,0.89801,-0.424194
9927728813,0.0756836,-0.0882568,0.897949,-0.424438
9927751911,0.0751953,-0.0876465,0.897888,-0.424805
9927772965,0.0744629,-0.0864258,0.897827,-0.425354
9927788775,0.0736084,-0.0848389,0.897705,-0.426025
9927812055,0.0725098,-0.0828857,0.897583,-0.426819
9927833006,0.071167,-0.0803223,0.897461,-0.427856
9927848772,0.069458,-0.0776367,0.897095,-0.429321
9927871278,0.0675049,-0.0748291,0.89679,-0.430786
9927893161,0.0656128,-0.0714722,0.896606,-0.432068
9927908789,0.0639648,-0.0675049,0.896301,-0.433472
9927931954,0.062439,-0.0633545,0.895874,-0.435364
9927953203,0.060791,-0.0591431,0.894958,-0.437927
9927968862,0.0592041,-0.055542,0.893738,-0.441162
9927992005,0.0574341,-0.0521851,0.892334,-0.44458
9928013053,0.055481,-0.0473633,0.890869,-0.448303
9928028863,0.0536499,-0.0410156,0.889465,-0.451965
9928052021,0.0518799,-0.0348511,0.888,-0.455566
9928073075,0.0499268,-0.0300293,0.886658,-0.45874
9928088837,0.0474243,-0.0266724,0.885437,-0.461609
9928111363,0.0441284,-0.0216064,0.884338,-0.464294
9928134509,0.0409546,-0.0145874,0.883301,-0.466736
9928148769,0.038147,-0.00830078,0.882141,-0.469299
9928171325,0.0353394,-0.00445557,0.880981,-0.471802
9928193164,0.0324097,-0.0022583,0.879272,-0.475159
9928208760,0.0290527,0.000488281,0.877441,-0.47876
9928239637,0.0253296,0.0043335,0.875366,-0.482727
9928254417,0.0212402,0.00872803,0.873352,-0.486511
9928268772,0.0162354,0.013855,0.871094,-0.490601
9928291239,0.010437,0.0204468,0.868469,-0.495178
9928314411,0.00396729,0.0280151,0.865173,-0.500671
9928328743,-0.00268555,0.0356445,0.861755,-0.506104
9928351262,-0.0088501,0.0420532,0.858398,-0.511108
9928374469,-0.0148926,0.0471191,0.855225,-0.515869
9928388890,-0.0222168,0.0516357,0.851746,-0.520874
9928411330,-0.0296021,0.0563354,0.848145,-0.52594
9928434488,-0.0370483,0.0610962,0.844421,-0.530823
9928448759,-0.0438232,0.0646973,0.840698,-0.535828
9928471378,-0.0501709,0.0664673,0.837463,-0.5401
9928494485,-0.0558472,0.0664673,0.834778,-0.543701
9928515560,-0.0609741,0.0645142,0.832275,-0.54718
9928531313,-0.0662231,0.0612793,0.830383,-0.549805
9928554513,-0.0720215,0.0581055,0.829163,-0.551331
9928575600,-0.0786133,0.0563354,0.827942,-0.552429
9928591245,-0.0863037,0.0552368,0.826721,-0.553162
9928614513,-0.0944824,0.0541382,0.825256,-0.554138
9928635681,-0.102844,0.0535278,0.823425,-0.55542
9928651346,-0.111816,0.0530396,0.821167,-0.557129
9928674504,-0.122375,0.0540161,0.818054,-0.559326
9928695677,-0.134583,0.0574341,0.814453,-0.561462
9928711284,-0.147644,0.0629883,0.810913,-0.562744
9928734384,-0.160767,0.0697021,0.807068,-0.563843
9928755513,-0.172485,0.0754395,0.803345,-0.565002
9928771274,-0.18158,0.0784912,0.800171,-0.566162
9928794430,-0.187317,0.0791626,0.796692,-0.569153
9928815503,-0.189392,0.0764771,0.79425,-0.572205
9928831251,-0.189209,0.0734863,0.792297,-0.575317
9928854445,-0.187134,0.0702515,0.791382,-0.577759
9928875493,-0.183777,0.067688,0.791138,-0.579407
9928891291,-0.179932,0.0662231,0.791321,-0.580566
9928914423,-0.175659,0.0639648,0.791565,-0.581787
9928935578,-0.171631,0.0627441,0.791199,-0.583557
9928951428,-0.168335,0.0622559,0.790833,-0.585083
9928974484,-0.165588,0.0621338,0.790222,-0.586731
9928995741,-0.16217,0.0615234,0.78949,-0.588745
9929011322,-0.15863,0.0597534,0.788879,-0.590759
9929033849,-0.154541,0.057251,0.787598,-0.59375
9929055570,-0.150085,0.0543823,0.786377,-0.596741
9929071359,-0.145813,0.052063,0.785034,-0.599731
9929093863,-0.142761,0.0511475,0.783569,-0.602478
9929115576,-0.141296,0.0507812,0.782715,-0.604004
9929131347,-0.139221,0.0440674,0.783997,-0.603394
9929161953,-0.135986,0.0370483,0.78363,-0.605042
9929177009,-0.131287,0.0285645,0.782654,-0.607788
9929191365,-0.125427,0.0200195,0.782104,-0.610107
9929213840,-0.120056,0.0147095,0.781311,-0.612305
9929236936,-0.117371,0.0148926,0.78064,-0.613647
9929251335,-0.118408,0.019104,0.781616,-0.612061
9929273812,-0.120117,0.0219116,0.782471,-0.610596
9929296991,-0.121094,0.0237427,0.78186,-0.611145
9929311351,-0.122559,0.0246582,0.781006,-0.611816
9929333855,-0.123169,0.0236206,0.781433,-0.611267
9929357007,-0.122192,0.0223999,0.781311,-0.611633
9929371380,-0.122559,0.0222778,0.781067,-0.611877
9929393844,-0.121887,0.0238647,0.780823,-0.612244
9929416925,-0.122009,0.0254517,0.780579,-0.612488
9929431281,-0.123901,0.02771,0.780579,-0.612061
9929453795,-0.122864,0.0288086,0.779419,-0.613708
9929476964,-0.121643,0.0305176,0.778503,-0.61499
9929491265,-0.122925,0.0342407,0.778992,-0.613953
9929513777,-0.127197,0.0383301,0.77948,-0.612183
9929536930,-0.130188,0.0431519,0.778625,-0.612366
9929558484,-0.132996,0.0476074,0.777405,-0.612915
9929573768,-0.135315,0.0515747,0.776978,-0.612671
9929596961,-0.135681,0.0543823,0.777649,-0.61145
9929618079,-0.138123,0.0603027,0.777039,-0.611206
9929633825,-0.139526,0.0637817,0.776367,-0.611328
9929656981,-0.140137,0.0651245,0.775208,-0.612488
9929678052,-0.140442,0.0657349,0.773926,-0.614014
9929693822,-0.140259,0.0669556,0.77301,-0.615051
9929716971,-0.139465,0.067688,0.772644,-0.615601
9929738040,-0.138062,0.0670166,0.772522,-0.61615
9929753832,-0.136841,0.0652466,0.772522,-0.616577
9929776978,-0.136169,0.0639648,0.772644,-0.61676
9929797993,-0.136353,0.0639648,0.772766,-0.616577
9929813847,-0.136475,0.0643921,0.772949,-0.616211
9929836992,-0.135437,0.0634155,0.773071,-0.616455
9929858046,-0.133606,0.0610962,0.772705,-0.617493
9929873796,-0.132202,0.0591431,0.7724,-0.618408
9929896968,-0.131958,0.0586548,0.772461,-0.618469
9929918003,-0.132202,0.0587769,0.772583,-0.618164
9929933790,-0.131653,0.0577393,0.772461,-0.61853
9929957023,-0.129883,0.055542,0.772156,-0.619568
9929978053,-0.127747,0.0532837,0.771912,-0.620483
9929993817,-0.125732,0.0517578,0.772034,-0.62085
9930016298,-0.123779,0.0508423,0.772461,-0.62085
9930038025,-0.120972,0.0490112,0.773438,-0.6203
9930053800,-0.116455,0.0454712,0.774292,-0.620361
9930084511,-0.111023,0.0414429,0.775208,-0.620483
9930099512,-0.104858,0.038208,0.776123,-0.620667
9930113792,-0.101257,0.034729,0.778076,-0.618958
9930136297,-0.0980225,0.0311279,0.780273,-0.616882
9930159466,-0.0941772,0.0279541,0.781555,-0.616028
9930173768,-0.0905762,0.0259399,0.783081,-0.614746
9930196270,-0.0872192,0.0246582,0.784851,-0.612976
9930209883,-0.0836182,0.0236816,0.78656,-0.611328
9930232986,-0.0795288,0.0209961,0.788269,-0.609802
9930247351,-0.0750732,0.0170288,0.790405,-0.607727
9930269885,-0.0707397,0.0137939,0.792847,-0.605164
9930293052,-0.0663452,0.0124512,0.795898,-0.601624
9930307399,-0.0612183,0.0116577,0.79895,-0.598145
9930329907,-0.0532227,0.00909424,0.801636,-0.595337
9930353064,-0.0474243,0.0055542,0.804871,-0.591492
9930367397,-0.0414429,0.00286865,0.808716,-0.58667
9930389898,-0.034668,0.000488281,0.812927,-0.58136
9930413048,-0.0262451,-0.00152588,0.816406,-0.576843
9930427395,-0.0171509,-0.0043335,0.819641,-0.572571
9930449896,-0.00762939,-0.00769043,0.82251,-0.568665
9930473086,0.00152588,-0.0103149,0.825439,-0.564392
9930487351,0.00964355,-0.0108032,0.828308,-0.560059
9930509877,0.0172119,-0.0115967,0.831177,-0.555542
9930532977,0.0247803,-0.013855,0.833618,-0.551575
9930547391,0.0314941,-0.0169067,0.835083,-0.548889
9930569904,0.0371094,-0.019165,0.835938,-0.547241
9930593538,0.0418701,-0.0204468,0.83667,-0.545654
9930607387,0.0426636,-0.0224609,0.837341,-0.544495
9930629931,0.0441895,-0.0228882,0.838074,-0.543213
9930653055,0.0446777,-0.0231323,0.838379,-0.542725
9930667416,0.0441895,-0.022583,0.838196,-0.543091
9930689896,0.0425415,-0.0223999,0.838257,-0.543152
9930713078,0.0400391,-0.0211792,0.838318,-0.543335
9930727399,0.0366211,-0.0185547,0.837769,-0.544495
9930749911,0.0324097,-0.0148315,0.837341,-0.545471
9930773078,0.0276489,-0.0108643,0.837158,-0.546082
9930787383,0.022644,-0.00744629,0.837158,-0.546387
9930809874,0.0178223,-0.00457764,0.836853,-0.547058
9930833036,0.0142822,-0.00280762,0.83667,-0.547546
9930847432,0.0108643,-0.00256348,0.835876,-0.548767
9930869896,0.00836182,-0.00427246,0.83551,-0.549377
9930893056,0.00579834,-0.0065918,0.834961,-0.550232
9930907398,0.00299072,-0.00836182,0.833801,-0.551941
9930929883,-6.10352e-05,-0.00897217,0.832458,-0.554016
9930953082,-0.00262451,-0.00933838,0.830994,-0.556213
9930967401,-0.00463867,-0.00958252,0.829407,-0.558472
9930989870,-0.00616455,-0.0100098,0.827759,-0.560974
9931014267,-0.00720215,-0.00994873,0.825989,-0.563538
9931027423,-0.00714111,-0.0107422,0.824463,-0.565796
9931049882,-0.00531006,-0.0150757,0.823303,-0.567322
9931072410,-0.0020752,-0.0231323,0.822083,-0.568848
9931087428,0.00183105,-0.0314331,0.820435,-0.570862
9931110185,0.00604248,-0.0380249,0.818787,-0.572815
9931132477,0.0102539,-0.041687,0.818054,-0.573547
9931147591,0.0129395,-0.0428467,0.817993,-0.573486
9931170030,0.0142822,-0.0429688,0.818481,-0.572754
9931192584,0.0164795,-0.0443115,0.819336,-0.57135
9931207572,0.0213013,-0.0469971,0.820801,-0.568848
9931230046,0.027832,-0.0510254,0.822266,-0.566101
9931252418,0.0357056,-0.0560303,0.823914,-0.562744
9931267353,0.0443115,-0.0618286,0.8255,-0.559265
9931289928,0.0532227,-0.0689697,0.827148,-0.555176
9931312610,0.0610352,-0.0751953,0.829407,-0.550232
9931327671,0.0678101,-0.0799561,0.831726,-0.545227
9931349940,0.0733032,-0.0838013,0.834106,-0.540222
9931372534,0.0775146,-0.0879517,0.836182,-0.535767
9931387394,0.0805664,-0.0913086,0.837769,-0.532288
9931409976,0.0831909,-0.0933228,0.839172,-0.529297
9931432459,0.0852051,-0.0946045,0.840332,-0.526855
9931447487,0.0870361,-0.0952148,0.841187,-0.525085
9931470139,0.088562,-0.0949097,0.842041,-0.523499
9931492607,0.0889893,-0.0939941,0.843079,-0.521973
9931515641,0.0886841,-0.0924683,0.844421,-0.520142
9931529866,0.0881958,-0.0911255,0.845947,-0.518005
9931552411,0.0877075,-0.0906372,0.847168,-0.516113
9931567412,0.0876465,-0.0906982,0.848145,-0.514465
9931589886,0.0884399,-0.0910645,0.849121,-0.512695
9931612575,0.0890503,-0.0911255,0.850403,-0.510437
9931627572,0.0890503,-0.0905762,0.85199,-0.507874
9931649991,0.0888672,-0.0899048,0.853577,-0.505371
9931672519,0.0888672,-0.0895996,0.855042,-0.502991
9931687587,0.0892944,-0.09021,0.856323,-0.50061
9931710042,0.0901489,-0.0909424,0.8573,-0.498657
9931732485,0.0910034,-0.0913696,0.858032,-0.49707
9931747595,0.0913086,-0.0913086,0.858887,-0.495544
9931770006,0.0916138,-0.0910034,0.859741,-0.494141
9931792588,0.0921021,-0.090332,0.860596,-0.492676
9931807385,0.0928955,-0.0898438,0.861328,-0.491272
9931829887,0.0935669,-0.0894775,0.862061,-0.489929
9931852453,0.0944214,-0.0901489,0.862854,-0.488342
9931867428,0.0955811,-0.0906372,0.863342,-0.487183
9931889884,0.0957642,-0.0914307,0.863525,-0.486572
9931912596,0.0958252,-0.0903931,0.864014,-0.485962
9931928966,0.0961914,-0.0875244,0.864319,-0.48584
9931950005,0.0960693,-0.0857544,0.86438,-0.486023
9931972566,0.0953979,-0.0859375,0.864563,-0.48584
9931988871,0.0946655,-0.0863037,0.864563,-0.485901
9932009947,0.093811,-0.0854492,0.864685,-0.485962
9932032470,0.0925293,-0.083252,0.865112,-0.48584
9932048885,0.0906982,-0.0800171,0.865723,-0.485596
9932070030,0.0888062,-0.0770264,0.866272,-0.485535
9932092522,0.0866089,-0.0741577,0.86676,-0.485535
9932108916,0.0846558,-0.0715332,0.867004,-0.48584
9932130067,0.083313,-0.0696411,0.867004,-0.486267
9932152385,0.0820312,-0.0678101,0.867126,-0.486572
9932168859,0.0812988,-0.0667725,0.86731,-0.486511
9932189905,0.0812378,-0.0673828,0.867065,-0.486816
9932212626,0.0817871,-0.0688477,0.866455,-0.48761
9932228903,0.0822754,-0.0696411,0.865662,-0.488892
9932252851,0.0827026,-0.0682983,0.865173,-0.489807
9932272628,0.0835571,-0.0664062,0.865417,-0.489563
9932288927,0.0847168,-0.0665283,0.864075,-0.491699
9932310066,0.0861816,-0.0665894,0.863342,-0.492676
9932332485,0.0873413,-0.0671387,0.862488,-0.493958
9932348904,0.0875244,-0.0667114,0.861694,-0.4953
9932370127,0.0874023,-0.0644531,0.860779,-0.497253
9932392648,0.086792,-0.0609741,0.859619,-0.499817
9932408924,0.0858154,-0.0571899,0.858032,-0.503113
9932429925,0.0844116,-0.0529175,0.856079,-0.507141
9932452450,0.0819092,-0.0477905,0.853027,-0.513184
9932468820,0.0789185,-0.0412598,0.848328,-0.521851
9932489939,0.0749512,-0.0305786,0.843506,-0.530945
9932512454,0.0697021,-0.019165,0.83905,-0.539246
9932534877,0.06427,-0.00933838,0.835876,-0.545044
9932549917,0.0587158,-0.00109863,0.833008,-0.55011
9932572467,0.0543823,0.00567627,0.829407,-0.555969
9932588972,0.0521851,0.0109863,0.826477,-0.560425
9932610125,0.050354,0.0151367,0.824158,-0.563965
9932632526,0.0478516,0.0186157,0.822266,-0.566772
9932648894,0.0452881,0.0209961,0.820435,-0.569519
9932670135,0.0435791,0.0220947,0.818604,-0.572266
9932692607,0.0422974,0.0217285,0.81665,-0.575134
9932708978,0.0406494,0.020874,0.814758,-0.577942
9932730073,0.0387573,0.0202026,0.812927,-0.58075
9932752611,0.0361328,0.020752,0.811218,-0.583252
9932768896,0.0324707,0.0227661,0.809326,-0.58606
9932790122,0.0281372,0.0258179,0.807495,-0.588623
9932812595,0.0241089,0.0291748,0.805969,-0.590759
9932828873,0.0206299,0.0328369,0.804443,-0.592773
9932851399,0.0183105,0.0366821,0.80304,-0.594543
9932872449,0.0168457,0.0408325,0.802124,-0.595459
9932888967,0.0153809,0.0449829,0.801819,-0.595642
9932911351,0.0139771,0.0496216,0.801758,-0.595398
9932932429,0.0133667,0.0549316,0.801575,-0.595154
9932950350,0.0148926,0.0597534,0.800903,-0.595581
9932971381,0.0177612,0.0628662,0.799622,-0.596863
9932992596,0.0206909,0.0633545,0.797485,-0.599609
9933008920,0.0245972,0.0606689,0.794617,-0.603577
9933031370,0.0302734,0.0566406,0.790894,-0.608582
9933052511,0.0378418,0.0535889,0.785889,-0.614868
9933068890,0.045105,0.0535889,0.78009,-0.621704
9933091429,0.0491333,0.0549927,0.773621,-0.629333
9933112665,0.0507812,0.0566406,0.766174,-0.638123
9933135086,0.0528564,0.0580444,0.757324,-0.648254
9933151458,0.0562744,0.0585327,0.747437,-0.659302
9933172524,0.0603027,0.0587769,0.737305,-0.670288
9933188965,0.0640259,0.0582275,0.727356,-0.680786
9933211375,0.0665894,0.0576172,0.717896,-0.690552
9933232403,0.0691528,0.0586548,0.70929,-0.699036
9933248872,0.0728149,0.0586548,0.701294,-0.706726
9933271324,0.0779419,0.0559082,0.69458,-0.713013
9933292654,0.0872192,0.0505981,0.689758,-0.71698
9933308882,0.100098,0.0447998,0.687256,-0.718079
9933331428,0.112488,0.0423584,0.686707,-0.716919
9933360823,0.123474,0.0443726,0.688354,-0.713379
9933368924,0.132568,0.0471191,0.69165,-0.708374
9933391397,0.138977,0.0475464,0.695068,-0.703796
9933412616,0.145386,0.0452271,0.699524,-0.698181
9933428979,0.155579,0.0393066,0.705505,-0.690308
9933458929,0.167664,0.0300293,0.712158,-0.68103
9933472635,0.176819,0.0206909,0.718994,-0.671814
9933488883,0.181824,0.012146,0.725525,-0.663635
9933511364,0.185547,0.00488281,0.73175,-0.655823
9933532428,0.190979,-0.00189209,0.73822,-0.646973
9933548870,0.196228,-0.00811768,0.745605,-0.636719
9933571380,0.200623,-0.0147705,0.75293,-0.626587
9933592391,0.204834,-0.0230713,0.758972,-0.617615
9933608881,0.209961,-0.0327759,0.763733,-0.609558
9933631479,0.216125,-0.0435791,0.768616,-0.600464
9933652652,0.220581,-0.0526123,0.774048,-0.591125
9933669001,0.222839,-0.0597534,0.780151,-0.581482
9933691550,0.223083,-0.0668945,0.786377,-0.572144
9933712706,0.223267,-0.0751953,0.791687,-0.563599
9933728964,0.223999,-0.0847168,0.796143,-0.555664
9933751486,0.224548,-0.0939331,0.800476,-0.547668
9933772585,0.223022,-0.100464,0.80542,-0.539856
9933788970,0.21814,-0.10376,0.810974,-0.532837
9933811469,0.210144,-0.104919,0.816223,-0.527832
9933833887,0.19989,-0.105591,0.82074,-0.524658
9933848899,0.189148,-0.107788,0.824341,-0.522522
9933871362,0.177979,-0.111389,0.828003,-0.519958
9933893868,0.166016,-0.114868,0.831848,-0.517029
9933910319,0.153015,-0.117493,0.836121,-0.513489
9933931491,0.137634,-0.118652,0.840881,-0.509827
9933960134,0.121033,-0.118652,0.845886,-0.505737
9933970376,0.104309,-0.118286,0.851074,-0.500854
9933991464,0.0875244,-0.117981,0.856201,-0.495361
9934015666,0.071106,-0.118225,0.861145,-0.489258
9934035811,0.0548706,-0.11969,0.865845,-0.482666
9934050741,0.0383911,-0.122009,0.870239,-0.475647
9934073222,0.0209961,-0.12439,0.874268,-0.468689
9934095815,0.00219727,-0.12561,0.877441,-0.462891
9934110820,-0.0179443,-0.125671,0.879822,-0.458069
9934133127,-0.0385132,-0.125244,0.881592,-0.453491
9934155653,-0.0588989,-0.124695,0.882935,-0.44873
9934170806,-0.079895,-0.123535,0.883728,-0.444275
9934193248,-0.101257,-0.120972,0.883545,-0.440979
9934215721,-0.123047,-0.11792,0.882202,-0.438965
9934230842,-0.144775,-0.115845,0.879883,-0.437439
9934253287,-0.168335,-0.114502,0.875671,-0.437866
9934275835,-0.195068,-0.111572,0.868591,-0.44165
9934290877,-0.222839,-0.10907,0.859558,-0.446716
9934313267,-0.249512,-0.108521,0.850342,-0.4505
9934335817,-0.273987,-0.109863,0.842712,-0.450256
9934350626,-0.296814,-0.11084,0.836182,-0.447693
9934380860,-0.317139,-0.110718,0.830261,-0.444824
9934395909,-0.331116,-0.112244,0.826782,-0.440735
9934410811,-0.341492,-0.11615,0.824951,-0.435181
9934433193,-0.348267,-0.122314,0.824402,-0.429077
9934455833,-0.351562,-0.129395,0.825134,-0.422791
9934470712,-0.351501,-0.136658,0.826782,-0.417358
9934493287,-0.348877,-0.143372,0.829224,-0.412415
9934515769,-0.344299,-0.150574,0.832031,-0.408081
9934530649,-0.338745,-0.158447,0.834351,-0.404968
9934553191,-0.332642,-0.166016,0.836487,-0.402588
9934575626,-0.326294,-0.17395,0.838196,-0.400879
9934590635,-0.320618,-0.181946,0.839722,-0.398682
9934613134,-0.313416,-0.191467,0.841675,-0.395874
9934635625,-0.306152,-0.200317,0.843567,-0.393066
9934650646,-0.300293,-0.206665,0.845459,-0.39032
9934673305,-0.297241,-0.210144,0.847229,-0.386963
9934695793,-0.295227,-0.211792,0.848999,-0.383667
9934710823,-0.291931,-0.214111,0.850708,-0.381042
9934733400,-0.288086,-0.217407,0.851624,-0.380127
9934755649,-0.285156,-0.221191,0.851379,-0.380737
9934770697,-0.282471,-0.223938,0.85083,-0.382263
9934793344,-0.279785,-0.224426,0.851196,-0.383179
9934815717,-0.278809,-0.222168,0.852112,-0.383118
9934830840,-0.279907,-0.218262,0.853088,-0.382507
9934853296,-0.281555,-0.21405,0.854004,-0.381592
9934882951,-0.283691,-0.209595,0.854797,-0.380676
9934893530,-0.286072,-0.207458,0.855408,-0.378723
9934913350,-0.288635,-0.207581,0.855042,-0.377502
9934928964,-0.290894,-0.208801,0.854553,-0.37616
9934952138,-0.291626,-0.210632,0.854858,-0.373901
9934973356,-0.290039,-0.212097,0.855835,-0.37207
9934988945,-0.286377,-0.213135,0.8573,-0.370972
9935012139,-0.279907,-0.215332,0.858582,-0.371643
9935033137,-0.269592,-0.220154,0.859558,-0.374084
9935048929,-0.256226,-0.22644,0.860779,-0.376953
9935072042,-0.240662,-0.231323,0.862793,-0.3797
9935093374,-0.225586,-0.233215,0.864746,-0.383301
9935108991,-0.212585,-0.231689,0.865601,-0.389709
9935132132,-0.199341,-0.228577,0.864563,-0.400635
9935153308,-0.184082,-0.226074,0.861816,-0.4151
9935175821,-0.165955,-0.225037,0.858337,-0.430176
9935192107,-0.147461,-0.223999,0.85498,-0.44397
9935213204,-0.12738,-0.218933,0.852661,-0.45697
9935228981,-0.106201,-0.20929,0.850769,-0.470215
9935252071,-0.083252,-0.197876,0.848511,-0.483643
9935273120,-0.0574951,-0.188477,0.845154,-0.496826
9935288909,-0.0273438,-0.182129,0.841003,-0.508728
9935312036,0.00653076,-0.176941,0.836487,-0.518616
9935333112,0.0413208,-0.168396,0.832153,-0.526794
9935348932,0.072998,-0.15741,0.827271,-0.534363
9935372172,0.0993042,-0.145935,0.821045,-0.542847
9935393392,0.123535,-0.135559,0.812927,-0.552795
9935409019,0.147095,-0.127319,0.802612,-0.563904
9935439656,0.169067,-0.120117,0.791199,-0.575378
9935453282,0.187378,-0.110901,0.78009,-0.586548
9935475697,0.201599,-0.0980225,0.770081,-0.59729
9935492137,0.211365,-0.0836792,0.762573,-0.605652
9935513321,0.217468,-0.067749,0.757202,-0.612183
9935528980,0.217957,-0.0525513,0.753357,-0.618164
9935552093,0.218933,-0.0411377,0.749939,-0.622864
9935573214,0.21698,-0.0333862,0.746338,-0.628357
9935588918,0.211792,-0.0276489,0.742737,-0.634583
9935612088,0.20575,-0.0234375,0.739319,-0.640686
9935633188,0.199036,-0.0187988,0.736023,-0.646729
9935648944,0.19104,-0.0133057,0.734192,-0.651306
9935671410,0.182007,-0.0078125,0.734741,-0.653381
9935693143,0.172791,-0.00323486,0.736145,-0.654358
9935717047,0.165588,-0.000915527,0.738403,-0.653687
9935731521,0.16095,-0.0010376,0.741821,-0.651001
9935754673,0.157043,-0.00219727,0.745911,-0.647278
9935775715,0.152222,-0.00189209,0.750916,-0.642639
9935791438,0.145386,-0.000427246,0.756836,-0.637207
9935815079,0.135742,0.00170898,0.763794,-0.630981
9935828948,0.124207,0.00311279,0.771362,-0.624146
9935851488,0.11438,0.00488281,0.778442,-0.617126
9935874672,0.109131,0.0078125,0.784851,-0.609985
9935889047,0.105835,0.0116577,0.791626,-0.601685
9935911495,0.101685,0.0178223,0.799438,-0.591797
9935934683,0.0969238,0.0268555,0.807129,-0.581665
9935948977,0.0930786,0.0373535,0.81427,-0.571777
9935971418,0.0909424,0.0463867,0.820435,-0.5625
9935994682,0.0907593,0.0542603,0.825867,-0.553894
9936008988,0.0918579,0.0608521,0.83075,-0.545593
9936031521,0.0932007,0.0662842,0.834656,-0.538696
9936054691,0.0945435,0.0689697,0.83783,-0.533203
9936075705,0.0968628,0.0692139,0.840576,-0.528381
9936091431,0.100586,0.0669556,0.843262,-0.523743
9936114587,0.10376,0.0637817,0.845703,-0.519531
9936135613,0.105774,0.0618896,0.8479,-0.515747
9936151418,0.105652,0.0605469,0.849731,-0.512939
9936174587,0.104736,0.0587158,0.85083,-0.511536
9936195682,0.104614,0.0552979,0.851318,-0.511108
9936211450,0.105225,0.0509644,0.850647,-0.512573
9936234580,0.106079,0.046814,0.849426,-0.514832
9936255844,0.106445,0.0444336,0.847778,-0.517639
9936271498,0.106628,0.0444336,0.845703,-0.520996
9936294675,0.106384,0.0471802,0.843323,-0.524597
9936315777,0.106079,0.0517578,0.841248,-0.527527
9936331529,0.105225,0.0563965,0.839355,-0.530273
9936354721,0.104736,0.0612183,0.837219,-0.533203
9936375860,0.105042,0.0656738,0.835022,-0.536133
9936391533,0.105652,0.0687866,0.832825,-0.539001
9936414659,0.106323,0.0714111,0.83075,-0.541748
9936435809,0.107117,0.0744629,0.828857,-0.543945
9936451460,0.107361,0.0783081,0.827271,-0.545776
9936474609,0.106873,0.0822754,0.82605,-0.54718
9936495642,0.10614,0.0857544,0.825012,-0.548401
9936511432,0.105652,0.088501,0.824097,-0.549438
9936534612,0.105835,0.09021,0.823425,-0.550171
9936555603,0.10614,0.0914917,0.822998,-0.550476
9936571555,0.106262,0.0931396,0.822876,-0.550354
9936594757,0.10614,0.0949097,0.822937,-0.549988
9936615775,0.106018,0.0970459,0.82312,-0.549316
9936631541,0.106201,0.0985718,0.823669,-0.548218
9936654036,0.106201,0.0996094,0.824402,-0.546875
9936675805,0.106018,0.100464,0.825256,-0.545471
9936691473,0.105713,0.100769,0.826294,-0.543884
9936713995,0.105347,0.100525,0.827515,-0.542236
9936737699,0.10498,0.100403,0.828491,-0.540771
9936751511,0.105042,0.100281,0.829529,-0.539185
9936773990,0.105957,0.0997925,0.830811,-0.53717
9936797155,0.107422,0.0993042,0.832397,-0.534546
9936811444,0.109131,0.0978394,0.834229,-0.531555
9936833931,0.110657,0.0953979,0.835815,-0.529175
9936857071,0.112305,0.0933228,0.83667,-0.527832
9936871456,0.114014,0.0918579,0.837463,-0.526428
9936893954,0.115784,0.0906982,0.838196,-0.525146
9936917213,0.117615,0.0899048,0.838684,-0.524109
9936931476,0.119385,0.0897217,0.838989,-0.523254
9936953967,0.121094,0.0901489,0.838806,-0.52301
9936977201,0.122559,0.090332,0.838684,-0.522827
9936991491,0.123535,0.0900879,0.838745,-0.522583
9937015014,0.124268,0.0901489,0.838806,-0.522339
9937037148,0.124268,0.0906982,0.838928,-0.522034
9937051516,0.123596,0.092041,0.839172,-0.521606
9937074016,0.123108,0.0929565,0.839294,-0.521301
9937097214,0.122803,0.0928345,0.839417,-0.521179
9937111519,0.122864,0.0916748,0.839478,-0.521301
9937133970,0.122864,0.0908203,0.8396,-0.52124
9937157105,0.122375,0.0908813,0.839783,-0.521057
9937171411,0.121704,0.0916138,0.839905,-0.520874
9937193908,0.121643,0.0918579,0.839905,-0.520813
9937217128,0.121826,0.0911255,0.839905,-0.520996
9937238733,0.122253,0.0899658,0.839722,-0.521362
9937254040,0.122559,0.0892334,0.839478,-0.52179
9937277201,0.122314,0.0895386,0.839172,-0.522278
9937298434,0.121765,0.090332,0.838806,-0.522827
9937313977,0.121704,0.0905151,0.83844,-0.523438
9937337173,0.122131,0.0900879,0.838135,-0.523865
9937358390,0.122681,0.0895996,0.837952,-0.524109
9937374061,0.123108,0.0895996,0.837891,-0.52417
9937397241,0.123535,0.090271,0.837891,-0.523926
9937418251,0.124146,0.0910034,0.837952,-0.52356
9937433974,0.125122,0.0917358,0.837769,-0.523438
9937457144,0.126038,0.0922852,0.837646,-0.523376
9937478183,0.126831,0.0928345,0.837402,-0.523438
9937502170,0.12738,0.0935669,0.837158,-0.523621
9937517158,0.127808,0.0944214,0.836853,-0.523865
9937538382,0.128418,0.0947266,0.836548,-0.524109
9937553957,0.129089,0.0944824,0.836182,-0.524536
9937576590,0.129639,0.0939331,0.835815,-0.525085
9937598377,0.130005,0.0936279,0.835449,-0.525635
9937614026,0.130249,0.093811,0.835144,-0.526123
9937636602,0.130554,0.0938721,0.834839,-0.526489
9937658386,0.130859,0.09375,0.834534,-0.526917
9937674005,0.131348,0.0936279,0.834412,-0.526917
9937696583,0.132385,0.0942383,0.834106,-0.5271
9937719614,0.133484,0.0946045,0.834167,-0.526672
9937733968,0.134094,0.0944824,0.834351,-0.526184
9937764619,0.13446,0.0944214,0.834412,-0.526062
9937779600,0.134399,0.0949707,0.834229,-0.526245
9937793965,0.133911,0.0959473,0.834167,-0.526306
9937816448,0.133362,0.0964966,0.834351,-0.526062
9937839633,0.133057,0.0966187,0.834473,-0.52594
9937853433,0.132812,0.0964966,0.834534,-0.525879
9937867556,0.132812,0.0964966,0.834534,-0.525879
9937890211,0.132874,0.0964355,0.834534,-0.525879
9937913342,0.133484,0.0960083,0.834595,-0.525757
9937927731,0.13446,0.0940552,0.834839,-0.525452
9937950126,0.136292,0.090332,0.835388,-0.524719
9937973227,0.139893,0.0843506,0.836243,-0.523499
9937987554,0.145142,0.0753174,0.837158,-0.521973
9938010056,0.151184,0.0620117,0.838928,-0.519104
9938033232,0.158691,0.0455322,0.841003,-0.515259
9938047525,0.167847,0.0281372,0.842285,-0.511414
9938070049,0.176086,0.0115967,0.843628,-0.50708
9938093173,0.182495,-0.0045166,0.845764,-0.501282
9938107535,0.189148,-0.024353,0.847046,-0.496033
9938130140,0.197083,-0.0489502,0.846252,-0.492554
9938153368,0.206604,-0.0792847,0.843506,-0.489319
9938175807,0.217163,-0.112854,0.839539,-0.485107
9938190239,0.227661,-0.146118,0.834778,-0.479553
9938213388,0.236694,-0.176514,0.829468,-0.474121
9938227727,0.24353,-0.205505,0.822571,-0.471008
9938250108,0.249756,-0.237427,0.812561,-0.470032
9938273411,0.257324,-0.273621,0.798889,-0.469788
9938287724,0.264526,-0.308655,0.783386,-0.470154
9938310234,0.268921,-0.337708,0.768982,-0.471497
9938333287,0.269226,-0.361328,0.755859,-0.474976
9938347762,0.266907,-0.384338,0.741882,-0.480225
9938370159,0.264099,-0.409668,0.72522,-0.486267
9938393236,0.260803,-0.43634,0.706177,-0.49292
9938407636,0.256714,-0.460754,0.687317,-0.499451
9938429994,0.250122,-0.480469,0.671753,-0.505371
9938453230,0.241455,-0.496643,0.658813,-0.510864
9938475736,0.232422,-0.511414,0.646179,-0.516663
9938490110,0.225281,-0.524963,0.632812,-0.522705
9938513226,0.220886,-0.536926,0.620361,-0.527344
9938527593,0.217102,-0.548157,0.609497,-0.530029
9938550013,0.213135,-0.557739,0.600037,-0.53241
9938572614,0.208862,-0.564636,0.592773,-0.534973
9938595897,0.20575,-0.569824,0.586853,-0.53717
9938610232,0.202942,-0.573853,0.582703,-0.538513
9938632731,0.199829,-0.57605,0.58075,-0.539429
9938655756,0.196472,-0.576599,0.580383,-0.540466
9938670113,0.193665,-0.576233,0.581238,-0.541016
9938692759,0.191284,-0.574341,0.583557,-0.54126
9938715858,0.188599,-0.570312,0.587952,-0.541748
9938730307,0.18512,-0.563904,0.594421,-0.542603
9938752657,0.180481,-0.555481,0.602417,-0.544067
9938775873,0.175232,-0.545837,0.610718,-0.546326
9938790145,0.171936,-0.535706,0.618774,-0.548218
9938812660,0.169128,-0.52301,0.628479,-0.550293
9938835748,0.164551,-0.504211,0.642212,-0.553467
9938850096,0.157959,-0.48114,0.657959,-0.557434
9938872562,0.150146,-0.457764,0.673889,-0.56012
9938887553,0.145142,-0.436401,0.687622,-0.56189
9938910018,0.143005,-0.412781,0.700073,-0.56488
9938932569,0.140991,-0.38623,0.711853,-0.569458
9938955928,0.137512,-0.358093,0.724426,-0.572754
9938970216,0.136292,-0.32959,0.737305,-0.57373
9938992760,0.137817,-0.298035,0.748657,-0.575928
9939007683,0.138062,-0.261841,0.759155,-0.579712
9939030238,0.13501,-0.224731,0.770264,-0.58136
9939052832,0.130127,-0.18811,0.779907,-0.582642
9939075877,0.127441,-0.155457,0.785828,-0.584839
9939090208,0.126709,-0.12677,0.7901,-0.586182
9939112823,0.125183,-0.100952,0.792969,-0.587646
9939127701,0.124023,-0.0765381,0.794617,-0.589355
9939150118,0.123047,-0.0534668,0.796204,-0.589966
9939172538,0.120361,-0.0335693,0.798584,-0.588745
9939195682,0.117798,-0.0217896,0.800415,-0.587341
9939210078,0.117615,-0.013916,0.801514,-0.586121
9939233994,0.12085,-0.0109863,0.802307,-0.584473
9939247540,0.124939,-0.0122681,0.803772,-0.581543
9939270056,0.128235,-0.0161743,0.805847,-0.577881
9939292824,0.131165,-0.0220337,0.807373,-0.57489
9939315831,0.135254,-0.0313721,0.807983,-0.572632
9939330278,0.140808,-0.0452881,0.807129,-0.571594
9939352653,0.145691,-0.0619507,0.805054,-0.571655
9939375937,0.149963,-0.0805664,0.802307,-0.572144
9939390160,0.15448,-0.10083,0.79895,-0.572388
9939412710,0.159424,-0.124023,0.793823,-0.573608
9939435882,0.165771,-0.148499,0.786926,-0.5755
9939450127,0.174622,-0.174805,0.778625,-0.576721
9939472636,0.184814,-0.202332,0.769775,-0.576477
9939495715,0.194946,-0.230347,0.760254,-0.575317
9939510067,0.205139,-0.25946,0.748901,-0.574158
9939532636,0.217224,-0.290344,0.735229,-0.572693
9939555728,0.231262,-0.322815,0.719788,-0.569458
9939570041,0.24408,-0.354126,0.703979,-0.565186
9939592595,0.253967,-0.383179,0.687744,-0.56189
9939609013,0.260986,-0.4104,0.670349,-0.560486
9939630292,0.264343,-0.436584,0.651733,-0.561096
9939652808,0.266846,-0.46167,0.632935,-0.561279
9939675196,0.270691,-0.484375,0.614563,-0.56073
9939690262,0.274231,-0.50293,0.597534,-0.561157
9939712790,0.275146,-0.51886,0.581665,-0.562805
9939744054,0.273315,-0.533386,0.567261,-0.564819
9939750121,0.269897,-0.548828,0.552368,-0.566467
9939772714,0.266907,-0.563904,0.536926,-0.567871
9939795241,0.264099,-0.576599,0.523804,-0.568726
9939810277,0.260193,-0.587708,0.513428,-0.568665
9939832717,0.254211,-0.597778,0.504944,-0.56842
9939855190,0.24707,-0.606628,0.497925,-0.568359
9939878469,0.239746,-0.614563,0.491943,-0.568237
9939892776,0.232849,-0.620911,0.488098,-0.567505
9939915261,0.2276,-0.62616,0.486206,-0.56543
9939930287,0.223999,-0.631958,0.484375,-0.562012
9939952782,0.222168,-0.637695,0.481384,-0.558838
9939975274,0.221191,-0.641113,0.479187,-0.55719
9939990128,0.221008,-0.641235,0.479858,-0.55658
9940012598,0.221313,-0.638855,0.482544,-0.556885
9940035292,0.222717,-0.635498,0.485779,-0.557312
9940050124,0.225342,-0.63147,0.488342,-0.558594
9940072799,0.22876,-0.626465,0.490479,-0.560974
9940095313,0.231995,-0.619507,0.494446,-0.563843
9940118329,0.233582,-0.610168,0.501343,-0.567261
9940132680,0.232483,-0.598328,0.511292,-0.571411
9940155343,0.227966,-0.585449,0.522461,-0.576477
9940170133,0.221375,-0.572388,0.534119,-0.581482
9940192577,0.214478,-0.557861,0.545288,-0.587708
9940215040,0.208374,-0.54071,0.557556,-0.594482
9940230043,0.204224,-0.522278,0.571411,-0.599182
9940252816,0.200623,-0.502869,0.587341,-0.601624
9940275348,0.19397,-0.48114,0.604126,-0.604919
9940290245,0.184143,-0.457397,0.620789,-0.609497
9940312661,0.176941,-0.433228,0.637451,-0.612122
9940335177,0.17627,-0.410278,0.654236,-0.610352
9940350167,0.180908,-0.387939,0.67218,-0.604126
9940372839,0.188538,-0.362915,0.691467,-0.59552
9940395359,0.195007,-0.335815,0.708679,-0.58905
9940411602,0.19519,-0.305542,0.726013,-0.58429
9940432743,0.193359,-0.275391,0.743225,-0.578247
9940455184,0.196106,-0.247864,0.75769,-0.570984
9940471538,0.202087,-0.222473,0.772766,-0.559021
9940492592,0.205017,-0.198547,0.787048,-0.546875
9940515107,0.204773,-0.172119,0.796875,-0.541687
9940531482,0.202087,-0.146851,0.803284,-0.540649
9940552809,0.195984,-0.127686,0.80835,-0.540222
9940575291,0.189331,-0.112549,0.812317,-0.540039
9940591567,0.18457,-0.0946045,0.814575,-0.541748
9940612841,0.178223,-0.0753174,0.816772,-0.543579
9940635287,0.169312,-0.0581055,0.819397,-0.544556
9940651558,0.161438,-0.0463257,0.82019,-0.546875
9940672768,0.158752,-0.0394287,0.819885,-0.548645
9940695304,0.159851,-0.0369263,0.820068,-0.548157
9940711664,0.161255,-0.0371704,0.821777,-0.545227
9940732841,0.162781,-0.039917,0.823486,-0.541992
9940749092,0.165894,-0.0462646,0.82428,-0.539307
9940771545,0.171265,-0.0567017,0.823975,-0.537109
9940792762,0.179077,-0.0698853,0.822632,-0.535095
9940809100,0.187744,-0.085083,0.821289,-0.531982
9940831568,0.195251,-0.101807,0.819824,-0.528564
9940852803,0.203003,-0.119629,0.816772,-0.526611
9940875222,0.212891,-0.141907,0.811035,-0.526062
9940891539,0.225281,-0.169434,0.803467,-0.524414
9940912623,0.23822,-0.198914,0.794373,-0.522156
9940929139,0.249939,-0.227173,0.784607,-0.519897
9940951560,0.260742,-0.254822,0.773071,-0.519043
9940972828,0.272766,-0.283813,0.759094,-0.518494
9940989115,0.286377,-0.314636,0.74292,-0.516785
9941011528,0.30011,-0.346313,0.725098,-0.514038
9941032645,0.314453,-0.374817,0.705627,-0.512573
9941055274,0.328857,-0.398621,0.685242,-0.513245
9941071620,0.342102,-0.419556,0.664856,-0.514648
9941092830,0.353271,-0.439392,0.645203,-0.515625
9941115145,0.360474,-0.4599,0.624329,-0.518433
9941139034,0.36377,-0.481079,0.60144,-0.523865
9941152800,0.365356,-0.501648,0.577087,-0.530884
9941175316,0.365173,-0.520264,0.553223,-0.538452
9941191706,0.361633,-0.536377,0.532043,-0.546326
9941212847,0.352966,-0.549133,0.514343,-0.556152
9941235166,0.33905,-0.559448,0.500183,-0.567383
9941251592,0.321655,-0.56897,0.488098,-0.578491
9941272792,0.302917,-0.578491,0.476318,-0.588867
9941295284,0.283142,-0.587158,0.465942,-0.598328
9941311610,0.263428,-0.594116,0.458191,-0.606384
9941332708,0.244873,-0.599731,0.453796,-0.611938
9941356760,0.227905,-0.604797,0.450745,-0.615723
9941371614,0.212708,-0.607544,0.447998,-0.620422
9941394054,0.20166,-0.608215,0.445923,-0.624939
9941415131,0.195862,-0.607849,0.444702,-0.628052
9941431503,0.193237,-0.606628,0.444519,-0.630127
9941454071,0.193359,-0.60437,0.444458,-0.632324
9941475065,0.195251,-0.600891,0.445374,-0.634399
9941491609,0.198792,-0.596558,0.447449,-0.635986
9941514010,0.203003,-0.591431,0.45105,-0.636841
9941543270,0.207397,-0.585144,0.457397,-0.636658
9941551608,0.210876,-0.577759,0.465759,-0.63623
9941574078,0.212952,-0.570007,0.475159,-0.63562
9941595318,0.212769,-0.561829,0.485901,-0.634827
9941611630,0.211182,-0.552673,0.498108,-0.633972
9941634029,0.208557,-0.541748,0.512451,-0.632812
9941655213,0.205505,-0.52887,0.528198,-0.631775
9941671653,0.202637,-0.514465,0.545837,-0.629578
9941693412,0.197388,-0.501099,0.56311,-0.62677
9941715824,0.187439,-0.485168,0.581177,-0.625854
9941731035,0.176941,-0.468201,0.59845,-0.62561
9941753276,0.170776,-0.448608,0.617615,-0.622986
9941775989,0.171143,-0.431213,0.636292,-0.616394
9941790941,0.170959,-0.414307,0.653931,-0.609497
9941813469,0.16217,-0.39209,0.671387,-0.607666
9941835909,0.149231,-0.36792,0.688782,-0.606628
9941850865,0.143433,-0.345093,0.705444,-0.602295
9941873420,0.146301,-0.325684,0.719604,-0.59552
9941896021,0.144653,-0.305847,0.731262,-0.592285
9941910841,0.131348,-0.279785,0.742371,-0.594421
9941933323,0.110657,-0.251465,0.751343,-0.599976
9941955760,0.0921021,-0.22406,0.757385,-0.606323
9941970792,0.0819702,-0.19989,0.760925,-0.611816
9941993353,0.0802612,-0.179077,0.763733,-0.61499
9942015800,0.0820312,-0.161316,0.76593,-0.616882
9942030774,0.0783081,-0.136475,0.767395,-0.621582
9942060741,0.071167,-0.107971,0.767334,-0.628052
9942076382,0.0631104,-0.085083,0.767944,-0.631714
9942090889,0.0553589,-0.0684204,0.768921,-0.63324
9942113495,0.0497437,-0.0583496,0.767883,-0.635986
9942135950,0.0492554,-0.050354,0.765381,-0.639709
9942150806,0.0524292,-0.0440063,0.762634,-0.643188
9942173447,0.0544434,-0.0390625,0.762451,-0.643555
9942195964,0.0527344,-0.0345459,0.763794,-0.642395
9942210980,0.0499268,-0.0311279,0.764893,-0.641418
9942233315,0.0496826,-0.0310059,0.766357,-0.639771
9942255964,0.0531006,-0.0356445,0.768982,-0.636108
9942270919,0.0588989,-0.0424805,0.772461,-0.63092
9942293463,0.0653076,-0.0509644,0.775574,-0.625793
9942315864,0.0734253,-0.0623169,0.778198,-0.620544
9942330970,0.0835571,-0.076416,0.780945,-0.614258
9942353494,0.093689,-0.0916138,0.783691,-0.607178
9942375992,0.103516,-0.1073,0.786255,-0.59967
9942391022,0.113708,-0.124023,0.787781,-0.592529
9942413589,0.124939,-0.143372,0.787231,-0.586609
9942435846,0.13739,-0.165222,0.784973,-0.581116
9942452309,0.149536,-0.188599,0.781128,-0.576172
9942473528,0.160645,-0.215271,0.77478,-0.572266
9942495947,0.170166,-0.247986,0.764648,-0.569946
9942512074,0.180603,-0.284546,0.751587,-0.567078
9942533361,0.194031,-0.319702,0.737061,-0.562927
9942555963,0.208069,-0.35083,0.721924,-0.55896
9942572243,0.218323,-0.377197,0.706848,-0.55719
9942593326,0.226562,-0.401367,0.691406,-0.556335
9942615831,0.234863,-0.425293,0.674377,-0.55603
9942632248,0.24353,-0.448425,0.65509,-0.55719
9942654750,0.252136,-0.469543,0.634521,-0.559753
9942675990,0.259583,-0.489319,0.614075,-0.562195
9942692300,0.26593,-0.507202,0.594421,-0.564575
9942713309,0.27124,-0.523254,0.574646,-0.56781
9942735961,0.274597,-0.537476,0.554565,-0.572876
9942752304,0.276123,-0.549194,0.535706,-0.578918
9942773345,0.276672,-0.559814,0.518066,-0.584473
9942797273,0.277161,-0.569153,0.501709,-0.589539
9942812358,0.27771,-0.577942,0.485718,-0.594116
9942833400,0.277283,-0.587524,0.46991,-0.597595
9942855896,0.273315,-0.597656,0.456116,-0.600098
9942872283,0.263184,-0.605957,0.445862,-0.604004
9942893495,0.247803,-0.611389,0.439697,-0.609497
9942915971,0.230408,-0.614746,0.437622,-0.614441
9942932246,0.214111,-0.618652,0.435852,-0.617615
9942953382,0.19989,-0.624451,0.432617,-0.618835
9942983424,0.189087,-0.630859,0.427856,-0.61908
9942992299,0.181519,-0.635498,0.423401,-0.619629
9943013327,0.17572,-0.637207,0.421875,-0.620605
9943036062,0.171326,-0.636658,0.423279,-0.621399
9943052311,0.169189,-0.635254,0.426514,-0.621277
9943073369,0.168762,-0.632874,0.430542,-0.620972
9943095798,0.171509,-0.629456,0.434814,-0.620728
9943112190,0.178894,-0.625977,0.438477,-0.619568
9943133390,0.19043,-0.622131,0.441833,-0.617676
9943155807,0.203186,-0.616943,0.447083,-0.615051
9943172240,0.216675,-0.611023,0.454407,-0.610962
9943193267,0.23053,-0.604004,0.464478,-0.605225
9943215988,0.242065,-0.595032,0.478088,-0.598938
9943232389,0.251831,-0.584167,0.494202,-0.59259
9943253343,0.261475,-0.572876,0.509949,-0.585999
9943276033,0.271851,-0.562805,0.523499,-0.579102
9943291595,0.28009,-0.551514,0.537476,-0.573181
9943313558,0.284912,-0.536621,0.554871,-0.568359
9943335836,0.28894,-0.517395,0.575012,-0.564087
9943352067,0.293579,-0.500061,0.59491,-0.556641
9943374812,0.296204,-0.483154,0.61554,-0.547607
9943395973,0.29541,-0.460999,0.637939,-0.541443
9943411636,0.294434,-0.433289,0.659851,-0.538696
9943434770,0.2948,-0.401306,0.681641,-0.536072
9943456028,0.294983,-0.373474,0.702515,-0.529114
9943471692,0.293091,-0.351196,0.719666,-0.522278
9943495262,0.292847,-0.326355,0.732361,-0.520935
9943516066,0.295776,-0.296631,0.742859,-0.522217
9943531698,0.294067,-0.266785,0.755371,-0.521301
9943554790,0.283813,-0.236877,0.768372,-0.5224
9943575977,0.271912,-0.20752,0.776245,-0.529541
9943591604,0.266418,-0.177673,0.78125,-0.535828
9943614731,0.263794,-0.14917,0.786194,-0.538513
9943635823,0.256348,-0.121277,0.792419,-0.539978
9943651617,0.242737,-0.0917358,0.797424,-0.5448
9943674711,0.229736,-0.0637817,0.798767,-0.552368
9943695870,0.222473,-0.0390015,0.798584,-0.557861
9943711724,0.216431,-0.0177612,0.799194,-0.560486
9943734771,0.207336,0.00354004,0.800842,-0.561768
9943756003,0.196838,0.0251465,0.800964,-0.564819
9943771656,0.189148,0.0440063,0.798462,-0.569824
9943794788,0.187317,0.0553589,0.795593,-0.573425
9943815835,0.185852,0.0599976,0.794006,-0.575684
9943831667,0.183777,0.0616455,0.793701,-0.576538
9943854823,0.181641,0.0615845,0.79364,-0.577332
9943875880,0.178772,0.0585938,0.794373,-0.577515
9943891633,0.174255,0.0523682,0.796814,-0.576172
9943914735,0.168701,0.0432129,0.799927,-0.574219
9943935819,0.165649,0.0292358,0.802856,-0.57196
9943951617,0.167114,0.0101318,0.805542,-0.568359
9943974830,0.171814,-0.0101318,0.808899,-0.562195
9943996051,0.172913,-0.0299072,0.812927,-0.555298
9944011644,0.170105,-0.0465698,0.817383,-0.548401
9944034775,0.167297,-0.0635376,0.821899,-0.540771
9944055944,0.170288,-0.0858154,0.825439,-0.531311
9944071681,0.176514,-0.112854,0.827759,-0.520508
9944094802,0.181335,-0.140259,0.830017,-0.508362
9944116053,0.181641,-0.163391,0.833679,-0.495239
9944131618,0.177856,-0.18103,0.837952,-0.483154
9944154853,0.177429,-0.199768,0.840576,-0.471252
9944176085,0.179565,-0.220825,0.842163,-0.458008
9944191703,0.182068,-0.243286,0.842896,-0.444092
9944214180,0.184875,-0.265076,0.843079,-0.42981
9944235974,0.188538,-0.284363,0.84314,-0.415527
9944251614,0.192444,-0.300598,0.843506,-0.401428
9944274169,0.193848,-0.31427,0.845154,-0.386414
9944295887,0.193909,-0.324585,0.848267,-0.370789
9944319759,0.194763,-0.332764,0.851135,-0.356262
9944334104,0.199402,-0.342651,0.852112,-0.341614
9944357364,0.204773,-0.357605,0.85083,-0.32605
9944371647,0.208008,-0.373474,0.848999,-0.310425
9944394157,0.210205,-0.383362,0.848938,-0.296814
9944417289,0.212524,-0.387817,0.85022,-0.285461
9944431619,0.215088,-0.389709,0.852478,-0.27417
9944454127,0.218262,-0.394836,0.852722,-0.263245
9944477270,0.221802,-0.40387,0.850342,-0.254089
9944491588,0.225647,-0.411621,0.8479,-0.246277
9944514111,0.228577,-0.414001,0.8479,-0.239624
9944537345,0.231506,-0.409241,0.850647,-0.235046
9944551642,0.233459,-0.40155,0.854614,-0.232056
9944574118,0.232422,-0.396423,0.857849,-0.230103
9944597246,0.229797,-0.393066,0.859985,-0.230408
9944618304,0.226562,-0.389465,0.861633,-0.233521
9944634095,0.222412,-0.383301,0.864136,-0.238403
9944657335,0.217468,-0.374512,0.867615,-0.244202
9944678348,0.212708,-0.363953,0.871399,-0.250793
9944694127,0.209961,-0.35321,0.874634,-0.257202
9944717282,0.209412,-0.34314,0.877441,-0.261658
9944738329,0.208435,-0.33551,0.879639,-0.265015
9944754119,0.208008,-0.330139,0.880798,-0.268127
9944777275,0.210022,-0.325867,0.88147,-0.269531
9944798396,0.213318,-0.321106,0.882263,-0.270203
9944814136,0.218018,-0.315063,0.88269,-0.272156
9944837294,0.223145,-0.308533,0.88269,-0.275513
9944858401,0.22699,-0.303406,0.88269,-0.277893
9944874121,0.230103,-0.298035,0.88324,-0.279419
9944897282,0.233032,-0.291809,0.883911,-0.281494
9944918745,0.235352,-0.285278,0.883728,-0.286804
9944934105,0.237854,-0.278259,0.883118,-0.293396
9944957302,0.239502,-0.272522,0.882202,-0.30011
9944979104,0.239807,-0.265137,0.88147,-0.308472
9944994090,0.240112,-0.257751,0.88031,-0.317688
9945017297,0.240112,-0.252136,0.878418,-0.327332
9945038383,0.24115,-0.249023,0.875122,-0.337646
9945054115,0.242859,-0.245056,0.870972,-0.349792
9945077271,0.24292,-0.237061,0.867676,-0.363098
9945098359,0.238892,-0.225891,0.865723,-0.377319
9945114099,0.232727,-0.214966,0.863586,-0.392273
9945136639,0.227661,-0.207397,0.860229,-0.406311
9945158312,0.223511,-0.204102,0.856201,-0.418701
9945174115,0.218506,-0.200745,0.852478,-0.430298
9945196642,0.213196,-0.196411,0.849548,-0.440735
9945218288,0.20874,-0.192444,0.846741,-0.44989
9945234178,0.205566,-0.190735,0.844299,-0.456604
9945256698,0.202209,-0.189331,0.842468,-0.462097
9945279769,0.198853,-0.186401,0.841064,-0.467224
9945294610,0.194763,-0.182495,0.839966,-0.472473
9945316647,0.190186,-0.179199,0.838623,-0.477966
9945339766,0.186096,-0.178284,0.83667,-0.483276
9945354147,0.181885,-0.178955,0.835022,-0.487427
9945376676,0.177368,-0.178711,0.833801,-0.491333
9945399820,0.172668,-0.176331,0.832825,-0.495422
9945414132,0.168518,-0.173218,0.832153,-0.499084
9945444781,0.164734,-0.170532,0.831421,-0.502502
9945459794,0.161682,-0.168884,0.830444,-0.505615
9945474133,0.160339,-0.168152,0.829102,-0.508484
9945496633,0.160583,-0.167175,0.827637,-0.511108
9945510216,0.161865,-0.164307,0.826111,-0.514099
9945532675,0.164307,-0.162415,0.824219,-0.516968
9945555863,0.167847,-0.164673,0.822632,-0.5177
9945570197,0.172791,-0.170227,0.821228,-0.516418
9945592711,0.179199,-0.176025,0.818726,-0.516357
9945615871,0.186401,-0.182007,0.815735,-0.516418
9945630206,0.194153,-0.19281,0.812561,-0.514648
9945652694,0.204468,-0.207886,0.80896,-0.510376
9945675882,0.217163,-0.228027,0.803223,-0.505615
9945690217,0.231018,-0.251648,0.7948,-0.501526
9945712703,0.244568,-0.277893,0.784607,-0.497314
9945735892,0.257202,-0.306885,0.772461,-0.492859
9945750185,0.269043,-0.337341,0.758606,-0.48822
9945772749,0.278992,-0.365784,0.743286,-0.485657
9945795889,0.287659,-0.393005,0.725952,-0.485596
9945810232,0.294556,-0.41864,0.707397,-0.487366
9945832742,0.300171,-0.442444,0.688293,-0.490356
9945855901,0.303467,-0.464172,0.668518,-0.495483
9945870230,0.30603,-0.483704,0.648376,-0.502014
9945892738,0.308899,-0.499756,0.628662,-0.509521
9945915897,0.308411,-0.508301,0.614685,-0.518372
9945930251,0.303162,-0.51593,0.605347,-0.524902
9945952750,0.294434,-0.524902,0.59729,-0.530151
9945975881,0.28595,-0.536438,0.586731,-0.535034
9945990244,0.279236,-0.552063,0.572388,-0.538147
9946013757,0.273865,-0.569336,0.557068,-0.539062
9946035915,0.267151,-0.583923,0.545288,-0.538818
9946050260,0.257812,-0.594849,0.537964,-0.538818
9946072726,0.247437,-0.603394,0.532898,-0.539124
9946103993,0.237976,-0.610718,0.528748,-0.539307
9946110183,0.231934,-0.61792,0.523804,-0.538513
9946132878,0.22937,-0.625244,0.518005,-0.536865
9946156050,0.228577,-0.630615,0.513489,-0.535217
9946170358,0.227966,-0.633667,0.512024,-0.533264
9946192909,0.22699,-0.634888,0.512573,-0.531677
9946216082,0.225769,-0.633728,0.514282,-0.531982
9946230472,0.224731,-0.630005,0.517151,-0.534058
9946261563,0.224548,-0.624512,0.520813,-0.536987
9946276005,0.225647,-0.61792,0.524902,-0.540222
9946290412,0.227478,-0.609619,0.529968,-0.543884
9946312938,0.228333,-0.59845,0.53772,-0.548279
9946335895,0.227417,-0.583679,0.548401,-0.553955
9946350417,0.22406,-0.56488,0.561829,-0.561279
9946372947,0.216003,-0.543274,0.576843,-0.570496
9946396043,0.206665,-0.521606,0.591858,-0.578735
9946410330,0.19873,-0.502869,0.605835,-0.583618
9946432739,0.193298,-0.486206,0.61792,-0.586914
9946455884,0.187134,-0.467712,0.629395,-0.591675
9946470302,0.178101,-0.445251,0.642395,-0.597778
9946492772,0.166687,-0.41864,0.658264,-0.603027
9946516025,0.15863,-0.390503,0.675476,-0.605042
9946530384,0.156738,-0.362671,0.691101,-0.605164
9946552885,0.155762,-0.333557,0.70343,-0.608032
9946575852,0.15155,-0.302429,0.713501,-0.613525
9946590365,0.146423,-0.27002,0.724243,-0.617371
9946612883,0.141663,-0.234802,0.734802,-0.620361
9946635907,0.13739,-0.198975,0.742554,-0.624634
9946650346,0.132568,-0.165466,0.747498,-0.629517
9946672920,0.126038,-0.134644,0.751038,-0.634033
9946696130,0.118408,-0.107727,0.75293,-0.638306
9946710452,0.110901,-0.0845337,0.752991,-0.643066
9946732928,0.104858,-0.0665283,0.753235,-0.645874
9946755999,0.0997314,-0.0557251,0.753723,-0.647156
9946771792,0.0958862,-0.0487671,0.753784,-0.648254
9946792909,0.0925903,-0.0437012,0.753479,-0.649414
9946816082,0.0891724,-0.041626,0.753784,-0.649719
9946830442,0.0855713,-0.0429077,0.754761,-0.648926
9946852922,0.0837402,-0.0474854,0.755127,-0.648499
9946876095,0.0840454,-0.0568237,0.75531,-0.647461
9946890373,0.0860596,-0.0724487,0.75531,-0.64563
9946912980,0.0903931,-0.0928955,0.754883,-0.642944
9946935956,0.0958862,-0.113953,0.752319,-0.641724
9946950328,0.100769,-0.136169,0.748291,-0.641357
9946972894,0.106506,-0.160522,0.744202,-0.639587
9947004095,0.113831,-0.18634,0.740173,-0.635925
9947010255,0.121887,-0.213989,0.734253,-0.632629
9947032946,0.131287,-0.24292,0.725647,-0.630249
9947056026,0.142944,-0.273682,0.714539,-0.627747
9947070273,0.156006,-0.30542,0.702393,-0.623718
9947092883,0.168884,-0.33606,0.690247,-0.618164
9947116159,0.18042,-0.366394,0.677063,-0.612183
9947130415,0.191711,-0.396484,0.661865,-0.606628
9947152778,0.204102,-0.425659,0.644165,-0.601868
9947175392,0.214539,-0.452759,0.625,-0.598633
9947190400,0.22229,-0.475647,0.608948,-0.594543
9947212888,0.226135,-0.495422,0.595581,-0.590515
9947235256,0.227234,-0.514893,0.581604,-0.587402
9947250428,0.227661,-0.534302,0.56543,-0.585693
9947272946,0.227539,-0.551331,0.549377,-0.585205
9947295465,0.226074,-0.56543,0.535461,-0.585205
9947310265,0.22229,-0.578674,0.524048,-0.584045
9947332757,0.217102,-0.592102,0.513123,-0.582275
9947349163,0.211609,-0.604553,0.502197,-0.581055
9947370340,0.207397,-0.615417,0.491394,-0.580383
9947392694,0.202576,-0.624939,0.481262,-0.580322
9947409179,0.19574,-0.632141,0.473572,-0.581299
9947430212,0.189331,-0.636841,0.469299,-0.581726
9947452814,0.185669,-0.641541,0.464966,-0.581238
9947469290,0.18335,-0.64624,0.460327,-0.580383
9947490436,0.180908,-0.649231,0.456299,-0.580994
9947512963,0.179871,-0.649719,0.453918,-0.582703
9947529185,0.181458,-0.648438,0.453064,-0.584229
9947550473,0.184509,-0.646118,0.454102,-0.585022
9947572754,0.187439,-0.642151,0.457153,-0.586121
9947589269,0.190186,-0.636475,0.461792,-0.58783
9947610338,0.19342,-0.630188,0.466614,-0.589661
9947632766,0.196777,-0.624146,0.470886,-0.591614
9947655213,0.199158,-0.61731,0.476135,-0.59375
9947670285,0.200745,-0.608765,0.483154,-0.596375
9947692768,0.202209,-0.598572,0.491882,-0.59906
9947715230,0.204529,-0.586426,0.501892,-0.602051
9947730241,0.207092,-0.573303,0.513428,-0.604065
9947752799,0.207275,-0.5578,0.527222,-0.606628
9947775326,0.203552,-0.539612,0.542603,-0.610718
9947798634,0.196716,-0.519653,0.557983,-0.616394
9947812967,0.187561,-0.497681,0.573608,-0.622986
9947835369,0.176636,-0.472778,0.589478,-0.630737
9947850480,0.163025,-0.445068,0.604736,-0.640015
9947872886,0.14978,-0.417114,0.618896,-0.64856
9947895366,0.142578,-0.391479,0.632935,-0.652527
9947910448,0.138062,-0.36731,0.644104,-0.656616
9947932976,0.131287,-0.339905,0.653503,-0.663452
9947955319,0.123901,-0.309448,0.663208,-0.670105
9947970222,0.11676,-0.278259,0.67218,-0.676147
9947992764,0.10968,-0.246399,0.679138,-0.682678
9948015236,0.103577,-0.214539,0.685913,-0.687622
9948031653,0.0984497,-0.185608,0.692444,-0.690247
9948052828,0.0934448,-0.158386,0.697632,-0.692444
9948075404,0.0901489,-0.133789,0.7005,-0.69519
9948091783,0.0900879,-0.112549,0.702209,-0.697205
9948112923,0.0912476,-0.0952759,0.704895,-0.696899
9948135270,0.0908203,-0.0806885,0.70752,-0.696167
9948151685,0.0904541,-0.067627,0.709473,-0.695618
9948172801,0.0913696,-0.057312,0.712219,-0.693665
9948203601,0.0928345,-0.0508423,0.715149,-0.690918
9948211747,0.0960083,-0.048645,0.717102,-0.688599
9948232737,0.101868,-0.0498657,0.718933,-0.685791
9948255243,0.109436,-0.0547485,0.721619,-0.681396
9948271687,0.11615,-0.0611572,0.724487,-0.676697
9948292747,0.121887,-0.0679932,0.726074,-0.67334
9948315235,0.127258,-0.0770874,0.726685,-0.670654
9948331664,0.13385,-0.0910034,0.726685,-0.667603
9948352721,0.142517,-0.110229,0.725342,-0.664429
9948375236,0.152039,-0.132996,0.721741,-0.661987
9948391760,0.160156,-0.155945,0.715698,-0.661682
9948412964,0.16571,-0.177429,0.709045,-0.662048
9948435341,0.168823,-0.196777,0.703491,-0.661682
9948451744,0.171265,-0.217468,0.69751,-0.661011
9948472973,0.175537,-0.239319,0.690247,-0.659851
9948495459,0.182312,-0.263916,0.681702,-0.657532
9948511727,0.190308,-0.290955,0.671204,-0.654663
9948533048,0.200562,-0.319397,0.659363,-0.650391
9948555521,0.211304,-0.347961,0.646545,-0.645142
9948571745,0.219421,-0.375549,0.633728,-0.639709
9948592750,0.22406,-0.401123,0.621033,-0.63501
9948615229,0.226501,-0.424683,0.608643,-0.630859
9948631717,0.228333,-0.448181,0.595825,-0.626099
9948652728,0.231445,-0.471741,0.582947,-0.61969
9948675267,0.235657,-0.494019,0.569763,-0.613037
9948691772,0.239685,-0.513184,0.55719,-0.607239
9948712949,0.244263,-0.530334,0.545776,-0.601074
9948735280,0.249329,-0.547241,0.534485,-0.593933
9948751758,0.254333,-0.563843,0.522766,-0.58667
9948772828,0.259033,-0.578857,0.512085,-0.579346
9948795316,0.262817,-0.591492,0.503662,-0.572144
9948811720,0.265381,-0.602234,0.497498,-0.565186
9948832855,0.266357,-0.611023,0.493103,-0.559082
9948855449,0.266296,-0.617798,0.490234,-0.554138
9948871763,0.266113,-0.622681,0.488892,-0.549988
9948892810,0.266541,-0.627258,0.48761,-0.545654
9948915297,0.266724,-0.632019,0.48584,-0.541626
9948931763,0.266846,-0.635803,0.484253,-0.538513
9948954192,0.267639,-0.63678,0.484497,-0.536804
9948975497,0.268982,-0.635986,0.486145,-0.535583
9948991810,0.271057,-0.634399,0.487915,-0.534851
9949015207,0.273865,-0.630615,0.490417,-0.535583
9949035285,0.277466,-0.624634,0.49353,-0.537842
9949051721,0.281128,-0.61731,0.497559,-0.54071
9949074255,0.284241,-0.60968,0.501892,-0.543701
9949095429,0.286255,-0.601685,0.506714,-0.547058
9949111763,0.285889,-0.592651,0.513123,-0.551147
9949134215,0.282593,-0.58197,0.52179,-0.556091
9949155349,0.277832,-0.570007,0.531311,-0.561768
9949171667,0.273926,-0.559082,0.539673,-0.566772
9949194236,0.270142,-0.549072,0.547302,-0.570923
9949215304,0.265869,-0.537048,0.556641,-0.575378
9949233215,0.261047,-0.522156,0.567322,-0.580872
9949254193,0.256531,-0.506226,0.578552,-0.585815
9949275337,0.252502,-0.490295,0.589417,-0.590271
9949291720,0.249939,-0.473022,0.601685,-0.59314
9949314247,0.247314,-0.452515,0.61554,-0.596008
9949335290,0.244873,-0.432861,0.627625,-0.598999
9949350998,0.242249,-0.414001,0.638,-0.602356
9949373637,0.238647,-0.395264,0.647095,-0.60675
9949396087,0.232666,-0.375,0.655212,-0.613159
9949411092,0.222595,-0.351196,0.66333,-0.622131
9949433598,0.209167,-0.324524,0.672791,-0.631104
9949457402,0.194519,-0.298218,0.682434,-0.638367
9949470940,0.18103,-0.272339,0.691101,-0.644592
9949493441,0.169006,-0.246826,0.697388,-0.651306
9949515913,0.157532,-0.222168,0.701599,-0.658447
9949531036,0.146851,-0.199768,0.705322,-0.664124
9949553459,0.137695,-0.178406,0.709656,-0.66748
9949576129,0.130981,-0.15741,0.714783,-0.66864
9949591143,0.125793,-0.138184,0.720764,-0.66748
9949613615,0.120667,-0.120483,0.726746,-0.665405
9949635945,0.114563,-0.103821,0.73114,-0.66449
9949651053,0.108398,-0.0904541,0.732971,-0.665405
9949673607,0.102051,-0.0806274,0.734741,-0.66571
9949696123,0.0952759,-0.072876,0.736206,-0.666077
9949711125,0.0878296,-0.0635986,0.737,-0.667175
9949734679,0.0806274,-0.0533447,0.738159,-0.667603
9949756155,0.0734863,-0.0452881,0.741211,-0.66571
9949771045,0.0662231,-0.0393677,0.742859,-0.665039
9949793663,0.060791,-0.0341187,0.743286,-0.665344
9949816139,0.0570679,-0.0291138,0.743347,-0.665833
9949831188,0.053894,-0.0232544,0.744019,-0.665527
9949853585,0.0509033,-0.0162354,0.746155,-0.663635
9949875954,0.0475464,-0.00836182,0.749084,-0.660706
9949890986,0.0445557,-0.0032959,0.750732,-0.659058
9949913408,0.0418701,-0.0032959,0.750793,-0.659241
9949935977,0.0405273,-0.0065918,0.750732,-0.659302
9949950979,0.0431519,-0.0136719,0.751953,-0.657654
9949973439,0.0465698,-0.020813,0.754761,-0.653992
9949995940,0.0474854,-0.0270386,0.75769,-0.65033
9950012394,0.0476685,-0.0340576,0.759155,-0.648254
9950033658,0.0509033,-0.0429688,0.759521,-0.647095
9950056017,0.0582886,-0.0554199,0.759216,-0.645813
9950072485,0.0678101,-0.0697632,0.758667,-0.644226
9950093663,0.0767212,-0.0825195,0.75769,-0.642822
9950116136,0.0854492,-0.0952759,0.75647,-0.641357
9950132485,0.0944824,-0.109741,0.7547,-0.639893
9950153609,0.105164,-0.126404,0.751404,-0.638977
9950176154,0.116577,-0.144409,0.746826,-0.63855
9950192433,0.127869,-0.163208,0.741455,-0.638184
9950213429,0.140076,-0.183777,0.734863,-0.637634
9950235952,0.153259,-0.205994,0.727234,-0.636597
9950252388,0.165588,-0.230225,0.718079,-0.635559
9950273442,0.176147,-0.256165,0.706116,-0.63623
9950295919,0.187134,-0.284607,0.69104,-0.637512
9950312361,0.198914,-0.313477,0.674622,-0.638062
9950333468,0.209839,-0.342041,0.658325,-0.636841
9950356006,0.216614,-0.365967,0.643738,-0.63623
9950372506,0.220398,-0.387329,0.629822,-0.636169
9950393639,0.223022,-0.412354,0.613464,-0.635498
9950423516,0.225769,-0.440979,0.594482,-0.633362
9950432412,0.230042,-0.469788,0.57373,-0.630249
9950453645,0.234314,-0.495605,0.552979,-0.627441
9950476019,0.236084,-0.517151,0.535522,-0.624573
9950492499,0.232117,-0.532104,0.524902,-0.622498
9950513668,0.223328,-0.545288,0.516296,-0.621521
9950536035,0.214722,-0.557922,0.507935,-0.620178
9950552416,0.209412,-0.572327,0.497681,-0.617188
9950573517,0.206665,-0.587219,0.485474,-0.613892
9950595943,0.205505,-0.599792,0.47345,-0.611511
9950612441,0.203186,-0.608276,0.465515,-0.609924
9950633447,0.199341,-0.614136,0.461365,-0.608459
9950663494,0.194214,-0.61908,0.459167,-0.606812
9950672448,0.189514,-0.62262,0.457397,-0.606018
9950693397,0.187134,-0.624573,0.455322,-0.606262
9950716142,0.187134,-0.624939,0.453796,-0.607056
9950732437,0.188538,-0.623413,0.453979,-0.608093
9950753580,0.190857,-0.620178,0.456055,-0.609131
9950776121,0.19397,-0.615479,0.458984,-0.610718
9950792501,0.197021,-0.608582,0.462891,-0.613647
9950813707,0.200195,-0.599854,0.468079,-0.61731
9950836018,0.202881,-0.590027,0.475098,-0.620483
9950851774,0.204712,-0.579712,0.483398,-0.62323
9950873656,0.206482,-0.569275,0.492004,-0.625488
9950895940,0.210205,-0.558411,0.499878,-0.627808
9950911706,0.215271,-0.546997,0.507812,-0.629761
9950933446,0.218384,-0.534119,0.517395,-0.631958
9950955944,0.217529,-0.517456,0.529602,-0.635986
9950971827,0.213501,-0.497192,0.543884,-0.641418
9950994935,0.207153,-0.474792,0.559448,-0.647095
9951015964,0.199646,-0.451782,0.575256,-0.652039
9951031889,0.190918,-0.427673,0.590271,-0.657471
9951054954,0.180725,-0.402039,0.604309,-0.663757
9951076219,0.166016,-0.377075,0.616272,-0.671143
9951091849,0.148438,-0.356567,0.626587,-0.676941
9951114999,0.13269,-0.338684,0.633362,-0.683105
9951135989,0.119507,-0.318787,0.637329,-0.691345
9951151767,0.104797,-0.293457,0.641357,-0.701111
9951175039,0.0819092,-0.26355,0.64801,-0.7099
9951195932,0.0539551,-0.234558,0.655151,-0.716187
9951211743,0.02771,-0.210938,0.659241,-0.721252
9951234899,0.00512695,-0.189453,0.659973,-0.72699
9951255930,-0.0139771,-0.168518,0.659363,-0.732544
9951271711,-0.0279541,-0.149292,0.661804,-0.734131
9951294880,-0.0375366,-0.130798,0.667175,-0.732361
9951316177,-0.0457153,-0.111023,0.675598,-0.727417
9951331834,-0.053894,-0.0898438,0.686157,-0.71991
9951354945,-0.0603638,-0.0723267,0.694824,-0.712952
9951376171,-0.065918,-0.0592041,0.700256,-0.708374
9951391844,-0.0698853,-0.0485229,0.703003,-0.706055
9951414959,-0.0708618,-0.0385742,0.705322,-0.704285
9951436033,-0.0687866,-0.0283813,0.709717,-0.700562
9951451803,-0.0657959,-0.0187988,0.717224,-0.69342
9951474977,-0.0656128,-0.00994873,0.724426,-0.686157
9951496029,-0.0652466,-0.00262451,0.728577,-0.681824
9951511734,-0.0623779,0.00146484,0.730408,-0.680176
9951534886,-0.0579834,0.00305176,0.732422,-0.678345
9951555997,-0.0535278,0.00244141,0.735474,-0.675415
9951571771,-0.0496216,-0.000610352,0.739197,-0.671631
9951594999,-0.0471802,-0.00445557,0.742432,-0.668213
9951616187,-0.0454102,-0.00775146,0.744812,-0.66571
9951631780,-0.0424805,-0.0108032,0.746582,-0.663879
9951654962,-0.038269,-0.0133667,0.747864,-0.662598
9951676206,-0.0341797,-0.0145264,0.749207,-0.661316
9951691903,-0.03125,-0.0141602,0.750549,-0.659912
9951714723,-0.0291138,-0.0134888,0.751953,-0.658447
9951736058,-0.0267944,-0.0134277,0.752747,-0.657654
9951751823,-0.0244751,-0.0136719,0.752563,-0.657898
9951774382,-0.022583,-0.0129395,0.751892,-0.658813
9951796030,-0.0216064,-0.0111084,0.750854,-0.660034
9951811782,-0.0213623,-0.00976562,0.749573,-0.661499
9951834250,-0.0217285,-0.00976562,0.747742,-0.663574
9951856141,-0.022583,-0.0098877,0.745178,-0.666382
9951871836,-0.0233765,-0.0088501,0.74231,-0.669556
9951894287,-0.024353,-0.00640869,0.739746,-0.672363
9951917442,-0.0264893,-0.00238037,0.737854,-0.674438
9951931831,-0.0294189,0.0022583,0.736328,-0.675964
9951954417,-0.0309448,0.00537109,0.735229,-0.677124
9951977587,-0.0305176,0.00744629,0.733887,-0.678589
9951991838,-0.0286865,0.010376,0.732239,-0.680359
9952015218,-0.0257568,0.0140381,0.730957,-0.681763
9952037462,-0.0230103,0.0178833,0.72998,-0.682861
9952051768,-0.0212402,0.0216675,0.729248,-0.683594
9952074258,-0.0198364,0.0250244,0.728699,-0.684082
9952097411,-0.0178833,0.027771,0.72821,-0.684509
9952111755,-0.015686,0.0300293,0.727905,-0.684875
9952134325,-0.0140991,0.0322266,0.727661,-0.685059
9952157439,-0.013855,0.0345459,0.727295,-0.685303
9952171771,-0.013916,0.0352173,0.72699,-0.685608
9952194276,-0.0132446,0.0339966,0.727112,-0.685547
9952217512,-0.0122681,0.0322266,0.727417,-0.685364
9952232265,-0.0116577,0.0314331,0.727905,-0.684875
9952254302,-0.0117188,0.0319824,0.728699,-0.68396
9952277526,-0.0119019,0.0320435,0.729614,-0.682983
9952291859,-0.0111084,0.0309448,0.730469,-0.682129
9952314383,-0.00964355,0.0289917,0.731079,-0.68158
9952337485,-0.00750732,0.0269775,0.731689,-0.681091
9952351812,-0.00549316,0.0253906,0.732239,-0.680542
9952374319,-0.00415039,0.0248413,0.73291,-0.679871
9952397471,-0.00317383,0.0245361,0.733582,-0.679138
9952418608,-0.00213623,0.0237427,0.734192,-0.678528
9952434361,-0.000793457,0.0227051,0.734558,-0.678162
9952457547,0.0012207,0.0213623,0.734802,-0.677917
9952478703,0.00341797,0.0195923,0.735046,-0.677734
9952494409,0.00628662,0.0166016,0.735657,-0.677063
9952517426,0.0100708,0.0123901,0.736572,-0.676147
9952538712,0.0150146,0.00671387,0.737366,-0.675293
9952554322,0.0224609,-0.00213623,0.738159,-0.674255
9952577439,0.0334473,-0.0157471,0.739624,-0.671997
9952598502,0.0464478,-0.0305786,0.742004,-0.668091
9952614246,0.0596313,-0.0464478,0.744324,-0.663513
9952636737,0.0725708,-0.0645142,0.745789,-0.659058
9952658489,0.0878296,-0.0872192,0.746704,-0.653564
9952674264,0.107483,-0.114563,0.746399,-0.646667
9952697414,0.128967,-0.144226,0.743896,-0.639648
9952718558,0.14978,-0.175964,0.73938,-0.632385
9952734397,0.171021,-0.208496,0.732727,-0.624756
9952756842,0.192139,-0.238831,0.724426,-0.617493
9952778745,0.210388,-0.267944,0.713928,-0.611755
9952794364,0.225159,-0.294678,0.701843,-0.608215
9952816907,0.238403,-0.321106,0.687073,-0.606628
9952839976,0.252258,-0.348083,0.669556,-0.605713
9952862526,0.263428,-0.374512,0.651306,-0.605103
9952876877,0.27063,-0.398865,0.632751,-0.606018
9952899980,0.274231,-0.420898,0.614136,-0.608704
9952914315,0.274353,-0.442017,0.595947,-0.611755
9952936782,0.272583,-0.463318,0.577637,-0.614258
9952959894,0.270874,-0.484131,0.558899,-0.616394
9952974299,0.270081,-0.501648,0.539917,-0.619629
9952996792,0.268677,-0.513611,0.523438,-0.624512
9953019940,0.266052,-0.522034,0.511536,-0.62854
9953034311,0.260559,-0.529724,0.503296,-0.631042
9953064953,0.252991,-0.539185,0.495422,-0.632324
9953079978,0.244934,-0.549377,0.486877,-0.633362
9953094305,0.237732,-0.558472,0.47876,-0.634338
9953116787,0.232056,-0.565735,0.472412,-0.634766
9953139985,0.225281,-0.569763,0.470459,-0.635071
9953161050,0.21875,-0.572571,0.471191,-0.634277
9953176239,0.213135,-0.573914,0.473083,-0.633545
9953190535,0.208923,-0.572937,0.475403,-0.634155
9953213756,0.206543,-0.570007,0.477905,-0.635681
9953236130,0.206177,-0.565552,0.480774,-0.637634
9953250587,0.207031,-0.558594,0.485229,-0.640076
9953273726,0.20697,-0.548767,0.492004,-0.643433
9953296230,0.204956,-0.536682,0.500916,-0.647339
9953310364,0.202148,-0.522766,0.511536,-0.651306
9953333727,0.200073,-0.508667,0.523254,-0.653748
9953356199,0.199646,-0.494202,0.535706,-0.654968
9953370408,0.199463,-0.477234,0.548584,-0.656921
9953393601,0.195984,-0.45813,0.561279,-0.660828
9953416010,0.191467,-0.438232,0.573364,-0.665283
9953430343,0.187683,-0.416382,0.588562,-0.667114
9953452887,0.183167,-0.39209,0.606201,-0.667236
9953476514,0.175903,-0.365112,0.622742,-0.669312
9953490372,0.168457,-0.337708,0.637146,-0.671997
9953512881,0.166687,-0.313293,0.650085,-0.671875
9953536044,0.165894,-0.290955,0.66272,-0.6698
9953550381,0.1651,-0.268616,0.67511,-0.666931
9953572825,0.16272,-0.247681,0.684326,-0.66626
9953596173,0.157898,-0.225525,0.691162,-0.668213
9953610533,0.152039,-0.203125,0.69635,-0.671387
9953633045,0.146057,-0.181458,0.701294,-0.673706
9953656241,0.138916,-0.160339,0.707031,-0.674622
9953670377,0.131348,-0.141479,0.711731,-0.675415
9953693009,0.124939,-0.127136,0.71637,-0.674561
9953716179,0.118286,-0.115417,0.72168,-0.67218
9953730570,0.113342,-0.106506,0.728027,-0.667664
9953752914,0.109741,-0.101257,0.734253,-0.662231
9953776209,0.107117,-0.0984497,0.739563,-0.657166
9953790432,0.107117,-0.0963745,0.744873,-0.651428
9953812997,0.107483,-0.0932007,0.750854,-0.644958
9953836088,0.107239,-0.0878906,0.757324,-0.638123
9953850505,0.106262,-0.0817871,0.763245,-0.632019
9953873137,0.105103,-0.0766602,0.768188,-0.626831
9953896169,0.106079,-0.0731812,0.771606,-0.622864
9953910448,0.109375,-0.0689087,0.774109,-0.61969
9953932791,0.113647,-0.0626831,0.776733,-0.616272
9953956046,0.119202,-0.0561523,0.779785,-0.612
9953970342,0.126404,-0.0509033,0.782654,-0.607361
9953992875,0.137085,-0.0494385,0.784424,-0.602844
9954016001,0.150146,-0.0490112,0.785461,-0.598389
9954030363,0.162659,-0.0472412,0.787109,-0.59314
9954052893,0.173584,-0.0462036,0.790527,-0.585449
9954076044,0.181885,-0.0463867,0.794495,-0.577515
9954090404,0.187683,-0.0466919,0.797119,-0.57196
9954112917,0.191284,-0.0455933,0.799316,-0.56781
9954136059,0.192505,-0.0430298,0.801575,-0.564453
9954150627,0.192139,-0.0418091,0.803284,-0.562134
9954174400,0.191284,-0.0424194,0.804138,-0.561218
9954196213,0.190063,-0.0428467,0.804016,-0.561768
9954210592,0.188232,-0.0414429,0.803284,-0.563538
9954232999,0.186707,-0.0393066,0.802185,-0.565796
9954256234,0.185547,-0.0360718,0.800842,-0.568237
9954270513,0.18512,-0.0330811,0.799438,-0.570557
9954293163,0.185059,-0.0308228,0.797852,-0.572876
9954316110,0.185242,-0.0291748,0.796326,-0.575073
9954330511,0.185547,-0.0274048,0.794861,-0.577087
9954352866,0.185547,-0.0250854,0.793579,-0.578918
9954376158,0.185425,-0.0230103,0.79248,-0.580505
9954390498,0.185425,-0.0216675,0.791687,-0.581726
9954413064,0.185974,-0.0212402,0.791077,-0.582397
9954428087,0.187073,-0.0219116,0.790588,-0.582703
9954451894,0.188538,-0.0229492,0.790161,-0.582764
9954473089,0.189575,-0.024231,0.789917,-0.582642
9954488093,0.190186,-0.0256958,0.789856,-0.582458
9954510588,0.190552,-0.0274048,0.789917,-0.582214
9954533042,0.191406,-0.0292969,0.789978,-0.581787
9954547895,0.192566,-0.0305176,0.7901,-0.581177
9954570407,0.193481,-0.0311279,0.790222,-0.580627
9954592853,0.193481,-0.0314941,0.790344,-0.580444
9954607884,0.192871,-0.0313721,0.790283,-0.580688
9954630426,0.191895,-0.0310669,0.790161,-0.581238
9954652876,0.190918,-0.0307007,0.789978,-0.581848
9954669322,0.189697,-0.029541,0.789917,-0.582397
9954690350,0.187683,-0.0276489,0.790222,-0.582703
9954712877,0.184998,-0.0264893,0.790649,-0.583008
9954730759,0.182129,-0.0263672,0.791016,-0.583435
9954750402,0.179688,-0.0271606,0.791321,-0.58374
9954772868,0.177734,-0.0285645,0.791687,-0.583801
9954789342,0.175842,-0.0303345,0.792236,-0.583557
9954810490,0.17395,-0.0316772,0.792969,-0.583069
9954833100,0.172424,-0.0330811,0.793823,-0.582214
9954849423,0.171204,-0.0344849,0.794739,-0.581238
9954870506,0.170532,-0.0357666,0.795715,-0.580078
9954892954,0.170105,-0.036438,0.796814,-0.578613
9954909324,0.169312,-0.0363159,0.798096,-0.577148
9954930589,0.168579,-0.036377,0.799255,-0.575684
9954952947,0.168091,-0.0369873,0.800232,-0.574463
9954969400,0.167908,-0.0378418,0.800903,-0.573486
9954990395,0.167847,-0.0387573,0.801392,-0.572815
9955013894,0.167603,-0.0396729,0.801758,-0.572327
9955030846,0.167175,-0.0402222,0.801941,-0.572083
9955050673,0.16687,-0.0407715,0.801941,-0.572144
9955073152,0.166504,-0.0413208,0.80188,-0.572327
9955089362,0.165833,-0.041626,0.801758,-0.572632
9955110617,0.164795,-0.0415649,0.801636,-0.57312
9955141146,0.163818,-0.0412598,0.801453,-0.573669
9955149480,0.163391,-0.0412598,0.801147,-0.57428
9955170436,0.163696,-0.041626,0.800598,-0.57489
9955193052,0.163879,-0.0409546,0.800232,-0.575378
9955209347,0.163879,-0.0392456,0.799805,-0.576111
9955230604,0.164368,-0.0380249,0.799316,-0.576721
9955252975,0.166382,-0.0375977,0.798584,-0.577148
9955275557,0.170288,-0.0386353,0.797241,-0.57782
9955290493,0.174805,-0.0414429,0.795776,-0.578308
9955313135,0.176514,-0.0421753,0.794495,-0.579529
9955335484,0.175476,-0.0407104,0.792969,-0.58197
9955350560,0.173157,-0.0390015,0.791138,-0.585266
9955374389,0.171814,-0.0396118,0.788757,-0.588928
9955395398,0.171265,-0.0406494,0.78595,-0.592712
9955410389,0.170288,-0.0394897,0.783081,-0.596802
9955432884,0.168457,-0.0352173,0.778748,-0.60321
9955455422,0.168091,-0.0367432,0.77533,-0.607666
9955478567,0.171204,-0.0484619,0.773499,-0.608276
9955492971,0.175903,-0.0648804,0.771362,-0.608154
9955515402,0.182739,-0.0819092,0.769287,-0.606628
9955530412,0.192078,-0.100159,0.766968,-0.604004
9955552904,0.200256,-0.117737,0.765076,-0.600586
9955575454,0.208069,-0.13623,0.763977,-0.595398
9955591886,0.217102,-0.156921,0.760742,-0.591125
9955613132,0.228882,-0.180176,0.753845,-0.588928
9955635521,0.243958,-0.205933,0.743591,-0.587524
9955651828,0.256592,-0.229614,0.733765,-0.585693
9955673107,0.265503,-0.250977,0.72467,-0.584229
9955695413,0.270874,-0.269958,0.713806,-0.586731
9955711894,0.27417,-0.290771,0.699646,-0.592285
9955733097,0.276489,-0.315735,0.684021,-0.59668
9955755572,0.276733,-0.341858,0.666504,-0.60199
9955771915,0.273743,-0.365784,0.648193,-0.609192
9955793003,0.265442,-0.385925,0.632568,-0.61676
9955815586,0.251831,-0.403625,0.61969,-0.624207
9955839372,0.236328,-0.420288,0.606689,-0.632019
9955853008,0.220947,-0.436584,0.59198,-0.640442
9955875566,0.206421,-0.453735,0.575256,-0.64856
9955891879,0.192444,-0.470215,0.557861,-0.65625
9955913080,0.17749,-0.484131,0.541565,-0.664001
9955935506,0.159668,-0.494751,0.527588,-0.671875
9955951843,0.137756,-0.502258,0.516602,-0.679626
9955973078,0.113403,-0.507751,0.508301,-0.686279
9955995536,0.0876465,-0.511108,0.502686,-0.69165
9956011893,0.0635986,-0.513672,0.499268,-0.694885
9956032912,0.0444946,-0.514954,0.497681,-0.696533
9956063761,0.0317383,-0.515991,0.49646,-0.697327
9956071991,0.0253906,-0.517517,0.495239,-0.697327
9956092964,0.0236816,-0.517395,0.495605,-0.697205
9956115658,0.0263672,-0.515015,0.497864,-0.697266
9956131931,0.03125,-0.509827,0.502747,-0.697388
9956161238,0.0391846,-0.503784,0.508667,-0.697083
9956175488,0.0506592,-0.497925,0.513794,-0.696838
9956191893,0.0654297,-0.492432,0.518921,-0.69574
9956213130,0.0825195,-0.486694,0.524902,-0.69342
9956235504,0.0988159,-0.479614,0.532837,-0.690125
9956251864,0.112671,-0.470886,0.542603,-0.686462
9956273080,0.12384,-0.460815,0.553284,-0.6828
9956295464,0.134033,-0.449829,0.564575,-0.678955
9956311926,0.144958,-0.437256,0.576294,-0.675049
9956333087,0.154907,-0.422607,0.588379,-0.671692
9956355621,0.161621,-0.404297,0.601257,-0.669983
9956371874,0.163208,-0.381104,0.615356,-0.67041
9956401104,0.160889,-0.356567,0.628784,-0.671997
9956415634,0.157715,-0.331299,0.641785,-0.673401
9956431858,0.155884,-0.304138,0.654358,-0.674561
9956452886,0.155884,-0.277222,0.665833,-0.674927
9956475407,0.154114,-0.251831,0.67627,-0.674866
9956491881,0.149536,-0.229065,0.68573,-0.6745
9956514359,0.145935,-0.208374,0.691895,-0.675659
9956535486,0.148438,-0.188843,0.697815,-0.674805
9956551852,0.154541,-0.171936,0.705872,-0.669556
9956574395,0.157837,-0.158997,0.715149,-0.662109
9956595398,0.157776,-0.145752,0.721558,-0.658203
9956611851,0.158386,-0.133179,0.725647,-0.656189
9956634321,0.159485,-0.124634,0.728943,-0.653931
9956655484,0.160889,-0.1203,0.732605,-0.65033
9956673336,0.164062,-0.118652,0.735229,-0.646851
9956694353,0.167419,-0.116394,0.736633,-0.644775
9956716858,0.169128,-0.113342,0.737671,-0.643738
9956731954,0.169922,-0.111694,0.73877,-0.642517
9956754353,0.172913,-0.114441,0.739502,-0.640442
9956775659,0.180908,-0.122192,0.738892,-0.637451
9956791932,0.195251,-0.134705,0.737732,-0.632019
9956814437,0.211548,-0.152344,0.737427,-0.623047
9956835489,0.229614,-0.173401,0.73584,-0.612976
9956851911,0.250366,-0.195923,0.73114,-0.603638
9956874473,0.270264,-0.217957,0.724243,-0.595764
9956895540,0.287231,-0.239563,0.716492,-0.588867
9956913412,0.300903,-0.260071,0.708252,-0.583252
9956934453,0.312378,-0.279724,0.698242,-0.5802
9956955625,0.323303,-0.299622,0.684998,-0.580017
9956971889,0.333008,-0.319885,0.66925,-0.582153
9956993875,0.339478,-0.339539,0.652283,-0.586487
9957016349,0.342346,-0.357544,0.635071,-0.593018
9957031305,0.341797,-0.374634,0.618103,-0.600586
9957053669,0.337585,-0.391785,0.601318,-0.60907
9957076309,0.331055,-0.408569,0.583801,-0.618591
9957091201,0.322937,-0.423584,0.565369,-0.629883
9957113846,0.313599,-0.437561,0.546265,-0.641663
9957136126,0.301575,-0.450745,0.529175,-0.652588
9957151309,0.288391,-0.462036,0.514771,-0.662109
9957173818,0.27771,-0.471191,0.501404,-0.67041
9957196344,0.270691,-0.478943,0.486877,-0.678467
9957211188,0.266052,-0.486084,0.473389,-0.684692
9957233845,0.263062,-0.493225,0.463135,-0.687805
9957256315,0.258423,-0.498718,0.456177,-0.690247
9957272659,0.252441,-0.502197,0.450012,-0.69397
9957293817,0.24823,-0.504822,0.443542,-0.697754
9957316166,0.24585,-0.508179,0.437622,-0.69989
9957331328,0.243652,-0.51123,0.433472,-0.700989
9957353726,0.241821,-0.512695,0.431274,-0.701904
9957376161,0.241577,-0.51355,0.429443,-0.702515
9957391323,0.241882,-0.513489,0.428772,-0.702881
9957413902,0.241516,-0.51123,0.430847,-0.703308
9957436133,0.240967,-0.507996,0.435181,-0.703247
9957451299,0.240601,-0.504578,0.439697,-0.703003
9957473759,0.240356,-0.501038,0.444641,-0.702515
9957496097,0.240601,-0.497314,0.449463,-0.702026
9957511315,0.239319,-0.490845,0.456543,-0.702454
9957533864,0.236389,-0.481628,0.466064,-0.703552
9957556321,0.233459,-0.471436,0.477112,-0.704041
9957572664,0.230957,-0.461365,0.489319,-0.703125
9957593697,0.228577,-0.450256,0.502258,-0.702026
9957616264,0.227112,-0.436951,0.515015,-0.70166
9957632642,0.226929,-0.422424,0.526917,-0.701782
9957653689,0.227234,-0.405457,0.539307,-0.702209
9957676335,0.225891,-0.385132,0.554504,-0.702209
9957692691,0.221863,-0.362549,0.57196,-0.701599
9957713639,0.216187,-0.339111,0.588806,-0.701111
9957736305,0.212402,-0.318787,0.603516,-0.699341
9957752645,0.212524,-0.300537,0.615845,-0.696655
9957781239,0.213562,-0.281982,0.627014,-0.694092
9957796282,0.212036,-0.262207,0.637878,-0.692444
9957812706,0.207092,-0.243103,0.649963,-0.689636
9957835172,0.204956,-0.227966,0.661804,-0.684143
9957856307,0.206726,-0.217651,0.671387,-0.677551
9957872612,0.206726,-0.206848,0.67926,-0.673157
9957893810,0.203186,-0.196167,0.686279,-0.670227
9957916114,0.198608,-0.18396,0.693237,-0.667908
9957932584,0.197754,-0.172729,0.700684,-0.663452
9957953627,0.197754,-0.163635,0.708801,-0.657043
9957976084,0.194336,-0.153564,0.716553,-0.6521
9957992587,0.186279,-0.142944,0.722717,-0.650024
9958014171,0.175232,-0.133789,0.726196,-0.651184
9958036097,0.167908,-0.131531,0.726929,-0.652771
9958052599,0.165283,-0.134399,0.726746,-0.653015
9958073654,0.162659,-0.134155,0.727356,-0.653015
9958096159,0.156494,-0.12738,0.729126,-0.653931
9958112608,0.143738,-0.11438,0.731445,-0.656738
9958133686,0.128601,-0.101196,0.733032,-0.660217
9958156093,0.115295,-0.0917969,0.733093,-0.664001
9958172711,0.10553,-0.0864258,0.731812,-0.667725
9958193841,0.098999,-0.0825806,0.729919,-0.671265
9958216345,0.0936279,-0.0783081,0.72876,-0.673828
9958232597,0.0882568,-0.0732422,0.729065,-0.674744
9958253656,0.0820312,-0.0666504,0.730469,-0.674744
9958276188,0.076355,-0.0598145,0.731262,-0.675171
9958292663,0.0714111,-0.053833,0.731018,-0.676453
9958313811,0.0683594,-0.0507812,0.730408,-0.677673
9958335989,0.0678101,-0.0506592,0.72998,-0.678223
9958352634,0.0679321,-0.0510254,0.729858,-0.678284
9958373819,0.0670166,-0.0495605,0.729492,-0.678894
9958396332,0.0640259,-0.0454712,0.728638,-0.680359
9958411966,0.0591431,-0.0394897,0.7276,-0.682312
9958433913,0.0529785,-0.0324097,0.726257,-0.68457
9958456171,0.0474243,-0.0257568,0.724976,-0.686646
9958471998,0.0426636,-0.0203857,0.723938,-0.688232
9958493840,0.038208,-0.0158081,0.722778,-0.689819
9958516362,0.0339355,-0.012085,0.721924,-0.69104
9958531964,0.0307007,-0.00952148,0.721436,-0.691711
9958555091,0.0284424,-0.00720215,0.721497,-0.691772
9958576170,0.0264893,-0.00488281,0.722229,-0.691101
9958591982,0.0244751,-0.00238037,0.723267,-0.690125
9958615195,0.0231323,-0.000549316,0.724426,-0.688965
9958629488,0.0227051,0.000915527,0.725586,-0.687744
9958651972,0.0222168,0.00311279,0.726624,-0.686646
9958675158,0.0213013,0.00689697,0.7276,-0.685669
9958696294,0.0205078,0.0107422,0.728516,-0.684631
9958711965,0.0206299,0.0140991,0.730103,-0.682922
9958735185,0.0219727,0.0177612,0.731812,-0.680908
9958756216,0.0228882,0.0230713,0.733154,-0.67926
9958772001,0.0223389,0.0291138,0.734436,-0.677673
9958795153,0.0233154,0.0327148,0.736389,-0.675354
9958816376,0.0246582,0.0350342,0.737793,-0.673706
9958831963,0.0274658,0.034729,0.739136,-0.672058
9958855089,0.0302124,0.0333252,0.740967,-0.670044
9958876200,0.0306396,0.0322876,0.742737,-0.668091
9958891953,0.0292358,0.0324707,0.744385,-0.666321
9958915128,0.0283813,0.0333252,0.745972,-0.66449
9958936152,0.0284424,0.0341797,0.747314,-0.663025
9958951970,0.0285034,0.0351562,0.747803,-0.662354
9958975169,0.0282593,0.0368042,0.748108,-0.661926
9958989401,0.0284424,0.038208,0.748108,-0.661865
9959012047,0.0305786,0.0380859,0.74762,-0.662354
9959035079,0.0354004,0.0355835,0.746765,-0.663147
9959056280,0.0415039,0.0324097,0.746216,-0.663635
9959072030,0.0469971,0.0297852,0.746094,-0.663452
9959095109,0.0509033,0.0281372,0.746216,-0.663147
9959116324,0.0535278,0.0263672,0.746399,-0.662842
9959131997,0.0554199,0.0238037,0.74646,-0.662659
9959155160,0.0567017,0.0212402,0.746643,-0.662415
9959176345,0.0564575,0.0201416,0.747253,-0.661804
9959191980,0.0554199,0.0193481,0.74823,-0.660828
9959215636,0.0546875,0.0181885,0.749023,-0.660034
9959236266,0.0543213,0.0172119,0.74939,-0.659607
9959251956,0.053833,0.0171509,0.749756,-0.659302
9959275193,0.0529175,0.0177002,0.750305,-0.658691
9959296312,0.0516968,0.0185547,0.750916,-0.658081
9959312028,0.0508423,0.0194702,0.751587,-0.657349
9959335149,0.0505371,0.0197754,0.752197,-0.656677
9959356353,0.0504761,0.0198975,0.752747,-0.656067
9959371937,0.0505981,0.0200195,0.753296,-0.655396
9959394418,0.0511475,0.0200195,0.753906,-0.654663
9959416185,0.052002,0.0200195,0.754456,-0.653992
9959431918,0.0524902,0.0203857,0.755005,-0.65332
9959454406,0.0518188,0.0212402,0.755676,-0.652527
9959477611,0.050415,0.0215454,0.756348,-0.651917
9959491925,0.048584,0.0213013,0.756775,-0.651489
9959514435,0.0467529,0.020874,0.757141,-0.651245
9959537586,0.045166,0.0205688,0.757385,-0.651123
9959551933,0.0437622,0.0205078,0.757507,-0.651062
9959574442,0.0424194,0.0211792,0.757446,-0.651184
9959597589,0.0413818,0.0217896,0.757324,-0.651367
9959611872,0.0411987,0.0216064,0.757141,-0.651611
9959634470,0.0419312,0.0211182,0.756897,-0.651794
9959657617,0.0431519,0.020752,0.756714,-0.651978
9959671936,0.0442505,0.020752,0.756653,-0.651978
9959694403,0.0446777,0.0213013,0.756714,-0.651855
9959723671,0.0447998,0.0214233,0.756897,-0.651611
9959732322,0.0449219,0.0210571,0.75708,-0.651428
9959754401,0.045105,0.0204468,0.757385,-0.651062
9959778054,0.0452271,0.0202026,0.757812,-0.650635
9959791961,0.045166,0.0201416,0.758118,-0.650269
9959814494,0.0452271,0.0200195,0.758362,-0.649902
9959837642,0.0454102,0.0197754,0.758606,-0.649658
9959858684,0.0457153,0.0194092,0.758728,-0.649475
9959874427,0.0458374,0.019165,0.75885,-0.649353
9959897628,0.0458374,0.019104,0.75885,-0.649353
9959911914,0.0458374,0.019165,0.75885,-0.649353
9959934464,0.0459595,0.019104,0.758789,-0.649475
9959957584,0.0462646,0.019104,0.758667,-0.649536
9959978643,0.0466309,0.019104,0.758606,-0.649597
9960001174,0.0470581,0.0189819,0.758545,-0.649597
9960017586,0.0475464,0.0189819,0.758484,-0.649658
9960046168,0.0479736,0.0189819,0.758423,-0.649719
9960054471,0.0483398,0.0189819,0.758423,-0.649658
9960077624,0.0487671,0.0187988,0.758423,-0.649658
9960098666,0.0493164,0.0186157,0.758362,-0.649658
9960114536,0.0500488,0.0185547,0.75824,-0.64978
9960137589,0.0504761,0.0187378,0.758179,-0.649841
9960158642,0.0505981,0.019043,0.758057,-0.649963
9960174432,0.0508423,0.0194092,0.757812,-0.650208
9960197641,0.0512695,0.0195312,0.757629,-0.65033
9960218692,0.0514526,0.0196533,0.757507,-0.650452
9960234455,0.0515137,0.0196533,0.757507,-0.650452
9960257611,0.0512695,0.0197144,0.757385,-0.650635
9960278683,0.0509033,0.0198975,0.757324,-0.650757
9960294413,0.0508423,0.0198975,0.757324,-0.650757
9960316981,0.0508423,0.0195923,0.757324,-0.650757
9960338658,0.0508423,0.0195923,0.757324,-0.650757
9960354415,0.0507812,0.0196533,0.757324,-0.650757
9960376973,0.0510254,0.0197144,0.757324,-0.650757
9960398645,0.0515137,0.0196533,0.757324,-0.650696
9960414466,0.0523071,0.0193481,0.757263,-0.650696
9960436986,0.0531616,0.019165,0.757324,-0.650574
