timestamp,x,y,z,w
82425007269,0.351196,-0.294617,-0.158203,0.874512
82425022320,0.351196,-0.294556,-0.158264,0.874512
82425046585,0.351196,-0.294556,-0.158264,0.874512
82425067294,0.351135,-0.294556,-0.158264,0.874573
82425083499,0.351318,-0.294617,-0.158142,0.874512
82425104855,0.351318,-0.294617,-0.158142,0.874512
82425127709,0.351318,-0.294617,-0.158142,0.874512
82425167512,0.351318,-0.294617,-0.158142,0.874512
82425168305,0.351318,-0.294617,-0.158142,0.874512
82425188368,0.351318,-0.294617,-0.158142,0.874512
82425206293,0.351318,-0.294556,-0.158142,0.874512
82425224850,0.351318,-0.294556,-0.158142,0.874512
82425247756,0.351318,-0.294556,-0.158142,0.874512
82425277173,0.351318,-0.294556,-0.158142,0.874512
82425288910,0.351318,-0.294556,-0.158142,0.874512
82425307822,0.351318,-0.294556,-0.158142,0.874512
82425322108,0.351318,-0.294556,-0.158142,0.874512
82425345283,0.351318,-0.294556,-0.158142,0.874512
82425367771,0.351318,-0.294556,-0.158203,0.874512
82425382106,0.351318,-0.294556,-0.158203,0.874512
82425405300,0.351318,-0.294556,-0.158142,0.874512
82425427788,0.351318,-0.294556,-0.158142,0.874512
82425442134,0.351318,-0.294556,-0.158142,0.874512
82425464629,0.351318,-0.294556,-0.158142,0.874512
82425487891,0.351318,-0.294556,-0.158203,0.874512
82425502131,0.351318,-0.294556,-0.158203,0.874512
82425524660,0.351318,-0.294495,-0.158203,0.874512
82425547786,0.351318,-0.294495,-0.158203,0.874512
82425562164,0.351257,-0.294495,-0.158203,0.874573
82425584671,0.351257,-0.294434,-0.158203,0.874573
82425607815,0.351257,-0.294434,-0.158203,0.874573
82425622103,0.351257,-0.294434,-0.158203,0.874573
82425644620,0.351257,-0.294495,-0.158203,0.874573
82425667801,0.351257,-0.294495,-0.158203,0.874512
82425682144,0.351257,-0.294495,-0.158203,0.874512
82425704704,0.351257,-0.294434,-0.158203,0.874573
82425727782,0.351257,-0.294434,-0.158203,0.874573
82425742095,0.351257,-0.294434,-0.158203,0.874573
82425764655,0.351257,-0.294434,-0.158203,0.874573
82425787847,0.351257,-0.294373,-0.158203,0.874573
82425803624,0.351318,-0.294373,-0.158203,0.874573
82425824730,0.351257,-0.294373,-0.158203,0.874573
82425847812,0.351257,-0.294373,-0.158203,0.874573
82425863623,0.351257,-0.294312,-0.158264,0.874573
82425884676,0.351501,-0.294312,-0.158203,0.874512
82425907853,0.351501,-0.294312,-0.158203,0.874512
82425923620,0.351501,-0.294312,-0.158203,0.874512
82425944657,0.351501,-0.294312,-0.158203,0.874512
82425967771,0.351501,-0.294312,-0.158203,0.874512
82425983574,0.351501,-0.294312,-0.158203,0.874512
82426004632,0.351501,-0.294312,-0.158203,0.874512
82426027776,0.351501,-0.294312,-0.158203,0.874512
82426043602,0.351746,-0.294434,-0.158081,0.87439
82426064634,0.351685,-0.294617,-0.157837,0.87439
82426087814,0.351074,-0.294556,-0.157776,0.874634
82426103593,0.349976,-0.294678,-0.157837,0.875061
82426124667,0.348389,-0.294861,-0.157898,0.87561
82426147833,0.347229,-0.295044,-0.157959,0.876038
82426163655,0.347107,-0.29541,-0.157837,0.875916
82426184662,0.346985,-0.295776,-0.157654,0.875916
82426207798,0.345764,-0.295715,-0.157593,0.876404
82426223638,0.343567,-0.295349,-0.157593,0.87738
82426244697,0.340942,-0.294067,-0.158447,0.878723
82426275477,0.338501,-0.293274,-0.159363,0.879761
82426283624,0.337219,-0.293091,-0.1604,0.880127
82426304658,0.336548,-0.293518,-0.161926,0.879944
82426327121,0.336243,-0.29364,-0.163513,0.8797
82426343627,0.336975,-0.29364,-0.164001,0.879395
82426364599,0.337402,-0.29364,-0.16394,0.879211
82426387125,0.335938,-0.293457,-0.163879,0.879822
82426403600,0.334778,-0.293518,-0.163574,0.88031
82426424651,0.334229,-0.293579,-0.16333,0.880554
82426447180,0.334473,-0.293457,-0.162964,0.880615
82426463612,0.334534,-0.293335,-0.16217,0.880737
82426484676,0.335754,-0.293579,-0.160828,0.880432
82426507159,0.338623,-0.294006,-0.157288,0.879822
82426523633,0.347412,-0.294434,-0.152222,0.877136
82426544748,0.356018,-0.293823,-0.147644,0.874695
82426567236,0.363037,-0.291992,-0.1427,0.87323
82426583656,0.369934,-0.2901,-0.137085,0.871887
82426604725,0.374573,-0.288025,-0.131714,0.871399
82426627208,0.377502,-0.286011,-0.127014,0.871521
82426643609,0.379456,-0.284058,-0.122498,0.871887
82426664650,0.381287,-0.282593,-0.118591,0.872131
82426687126,0.381958,-0.280579,-0.115417,0.872925
82426711101,0.382385,-0.278381,-0.111877,0.873901
82426726104,0.383301,-0.275452,-0.107849,0.874939
82426747185,0.383423,-0.270935,-0.103699,0.87677
82426763620,0.383972,-0.265564,-0.098877,0.878723
82426786118,0.38623,-0.259644,-0.0930786,0.880188
82426807152,0.390137,-0.252686,-0.0861816,0.881165
82426823643,0.395935,-0.243896,-0.0789185,0.881714
82426846149,0.401672,-0.233276,-0.0708008,0.88269
82426867195,0.406677,-0.222595,-0.0609741,0.883911
82426883624,0.411377,-0.212585,-0.0509644,0.884827
82426906165,0.413696,-0.201843,-0.0415039,0.88678
82426927176,0.414246,-0.190918,-0.0327148,0.889282
82426943671,0.414673,-0.180237,-0.0241699,0.891541
82426966165,0.415527,-0.170105,-0.0153198,0.893372
82426988633,0.416443,-0.160583,-0.00628662,0.894775
82427003657,0.416931,-0.151611,0.00244141,0.896179
82427026128,0.416626,-0.143982,0.0105591,0.897522
82427047208,0.414551,-0.136841,0.0180664,0.899475
82427063644,0.411499,-0.13092,0.0252075,0.90155
82427086121,0.408203,-0.126099,0.0317383,0.903564
82427107160,0.404968,-0.12262,0.038269,0.905212
82427123617,0.402283,-0.119568,0.0447998,0.906555
82427146143,0.400879,-0.115601,0.0512695,0.907288
82427167201,0.401245,-0.11084,0.057251,0.90741
82427183669,0.401917,-0.105469,0.062561,0.90741
82427206147,0.402588,-0.0996094,0.0673218,0.90741
82427227234,0.40332,-0.0932617,0.0715942,0.90741
82427243660,0.403931,-0.0858154,0.0753174,0.907593
82427266165,0.40509,-0.0787354,0.0788574,0.90741
82427287245,0.404724,-0.0721436,0.0827026,0.907776
82427303681,0.403687,-0.0669556,0.0865479,0.908325
82427326120,0.404968,-0.0629883,0.0897217,0.907654
82427347225,0.408508,-0.0591431,0.0922241,0.906128
82427362845,0.411011,-0.0552368,0.0932617,0.90509
82427386820,0.412659,-0.0523682,0.0941162,0.90448
82427407829,0.412598,-0.0502319,0.0947266,0.904541
82427422831,0.409302,-0.0488892,0.0950317,0.906067
82427445333,0.403809,-0.0476074,0.0952759,0.908569
82427467837,0.396606,-0.0465698,0.0959473,0.911743
82427482852,0.391052,-0.0454712,0.0968628,0.914062
82427505295,0.386353,-0.0444336,0.0976562,0.916016
82427527861,0.382019,-0.0430908,0.0981445,0.917847
82427542827,0.379211,-0.0411987,0.0986328,0.919067
82427565374,0.378784,-0.0385132,0.098938,0.919312
82427587830,0.379578,-0.0351562,0.098877,0.919128
82427602853,0.380798,-0.0321045,0.0985718,0.918762
82427625360,0.381775,-0.0290527,0.0982666,0.918518
82427647905,0.382019,-0.0262451,0.0980835,0.918518
82427662854,0.382507,-0.0234985,0.0977783,0.918396
82427685378,0.382751,-0.020874,0.0979004,0.918335
82427707850,0.383362,-0.0182495,0.0981445,0.918152
82427722820,0.383057,-0.0158691,0.0985107,0.918274
82427745386,0.381653,-0.0136719,0.0985718,0.918884
82427767853,0.379639,-0.0119629,0.0982056,0.9198
82427782856,0.37738,-0.010498,0.097229,0.920837
82427805378,0.375793,-0.00958252,0.0957642,0.921631
82427827892,0.374695,-0.00915527,0.0935669,0.922302
82427842884,0.37323,-0.00939941,0.0911255,0.923157
82427865386,0.371094,-0.00994873,0.0890503,0.924194
82427887903,0.36908,-0.0107422,0.0873413,0.925171
82427904315,0.368103,-0.0119629,0.0857544,0.92572
82427925366,0.367798,-0.013855,0.0842285,0.925964
82427947899,0.367493,-0.0163574,0.0826416,0.926147
82427964333,0.365784,-0.0197144,0.081543,0.92688
82427985398,0.362976,-0.0237427,0.0812378,0.927917
82428015332,0.360352,-0.0281372,0.0817261,0.928772
82428024312,0.357788,-0.0326538,0.0822754,0.929565
82428045321,0.355469,-0.0377808,0.0825806,0.930237
82428067685,0.353271,-0.043396,0.0828247,0.930786
82428084314,0.351379,-0.0493164,0.0825806,0.931213
82428105318,0.350342,-0.0546875,0.0817261,0.931396
82428127905,0.349854,-0.0597534,0.0803223,0.931396
82428144362,0.349487,-0.0641479,0.0784912,0.931396
82428165390,0.349121,-0.0678711,0.0765381,0.931458
82428187921,0.348755,-0.0708008,0.074646,0.931519
82428204313,0.348328,-0.0733032,0.0725708,0.931641
82428225358,0.346924,-0.0749512,0.0706177,0.93219
82428247948,0.344666,-0.0758667,0.0687256,0.933105
82428264319,0.342102,-0.0766602,0.0669556,0.934082
82428285345,0.339661,-0.0776978,0.0653076,0.934998
82428307894,0.337158,-0.0789185,0.0638428,0.935913
82428324316,0.334839,-0.0805664,0.0631104,0.936646
82428345378,0.333496,-0.0814209,0.0621338,0.937134
82428367869,0.331726,-0.0825806,0.0611572,0.937744
82428384409,0.330505,-0.0839233,0.0599365,0.93811
82428405370,0.329773,-0.0855713,0.0584106,0.938293
82428427882,0.328369,-0.0877075,0.0571289,0.938721
82428444340,0.326355,-0.0898438,0.0560303,0.93927
82428465374,0.324036,-0.0917358,0.0550537,0.939941
82428487874,0.321655,-0.0932007,0.0541382,0.940674
82428504317,0.319824,-0.0940552,0.0533447,0.941223
82428525410,0.319031,-0.0940552,0.0526123,0.941589
82428547859,0.318909,-0.093689,0.052063,0.94165
82428564314,0.318665,-0.0933228,0.0515747,0.941833
82428585336,0.317932,-0.0930786,0.0511475,0.942078
82428607839,0.317017,-0.0924683,0.0507202,0.942505
82428623715,0.3172,-0.0910645,0.0508423,0.942566
82428645359,0.318176,-0.0891113,0.0514526,0.942383
82428667925,0.319336,-0.0864258,0.0517578,0.942261
82428683650,0.320679,-0.0831909,0.0518799,0.942078
82428705356,0.321594,-0.0801392,0.052063,0.942017
82428727970,0.321594,-0.0772095,0.0521851,0.942261
82428743688,0.320801,-0.0751953,0.0524292,0.942688
82428772913,0.32019,-0.0737915,0.0528564,0.942932
82428787988,0.319458,-0.0733032,0.0532227,0.943237
82428803696,0.318787,-0.0728149,0.0535889,0.943481
82428826834,0.318481,-0.0721436,0.053894,0.943604
82428847874,0.317749,-0.0720825,0.0541382,0.943848
82428863723,0.316345,-0.0716553,0.0541992,0.944336
82428886825,0.315002,-0.071167,0.0541992,0.944824
82428907972,0.314087,-0.0708008,0.0543823,0.945129
82428923701,0.313538,-0.0704346,0.0545044,0.945374
82428946821,0.312988,-0.0707397,0.0546875,0.945496
82428967873,0.312927,-0.0707397,0.0546875,0.945496
82428983638,0.313049,-0.0710449,0.0548096,0.945435
82429006827,0.313354,-0.0714111,0.0547485,0.945312
82429027955,0.313354,-0.0716553,0.0543823,0.945312
82429043712,0.313232,-0.0714722,0.0541382,0.945374
82429066930,0.312927,-0.0708618,0.0541382,0.945557
82429087903,0.312988,-0.0697632,0.0542603,0.945618
82429103690,0.312561,-0.0685425,0.0541992,0.945862
82429126811,0.3125,-0.0674438,0.0541382,0.945923
82429147837,0.312561,-0.0662231,0.0540161,0.945984
82429163713,0.312439,-0.0654907,0.053833,0.946106
82429186950,0.312195,-0.0654297,0.0534058,0.946228
82429209333,0.311462,-0.065979,0.0529175,0.946472
82429223635,0.310913,-0.0668335,0.0523682,0.946594
82429247283,0.310547,-0.067749,0.0517578,0.946716
82429267977,0.310242,-0.0684204,0.0513306,0.946777
82429283682,0.310364,-0.0689697,0.0509644,0.946716
82429306846,0.310486,-0.0690918,0.0508423,0.946655
82429327927,0.311035,-0.0690918,0.0507202,0.946472
82429343658,0.31134,-0.0688477,0.0505371,0.946411
82429366809,0.311707,-0.0684814,0.050354,0.94635
82429387951,0.311646,-0.0679321,0.050293,0.946411
82429403736,0.311646,-0.0672607,0.050415,0.946411
82429426851,0.311584,-0.0667725,0.0509033,0.946472
82429447921,0.312378,-0.0665894,0.052002,0.946167
82429463691,0.313782,-0.0664062,0.0529785,0.945618
82429486827,0.315674,-0.0661621,0.053772,0.945007
82429507955,0.316956,-0.0662842,0.0543823,0.944519
82429523724,0.317261,-0.0671997,0.0546875,0.944336
82429546928,0.31665,-0.0682373,0.0545044,0.944458
82429567919,0.315918,-0.0689087,0.0540161,0.944702
82429583667,0.315247,-0.069519,0.0535278,0.944885
82429606147,0.314514,-0.0701904,0.0531616,0.945129
82429627849,0.314026,-0.0708008,0.0525513,0.945251
82429643665,0.313782,-0.071167,0.052124,0.945374
82429666174,0.313904,-0.0712891,0.0519409,0.945312
82429687883,0.313965,-0.0712891,0.0519409,0.945312
82429703665,0.313965,-0.0712891,0.0519409,0.945312
82429726218,0.313477,-0.0712891,0.052002,0.945435
82429749402,0.312988,-0.071228,0.052063,0.945618
82429763726,0.312805,-0.071106,0.0521851,0.945679
82429786190,0.312805,-0.071106,0.0521851,0.945679
82429809367,0.312805,-0.071167,0.0521851,0.945679
82429823691,0.312805,-0.071167,0.0522461,0.945679
82429846188,0.312805,-0.071167,0.0522461,0.945679
82429869426,0.312805,-0.071167,0.0522461,0.945679
82429890445,0.312805,-0.0708618,0.0521851,0.945679
82429906229,0.3125,-0.0705566,0.0521851,0.945801
82429929367,0.312134,-0.0703125,0.0521851,0.945984
82429943691,0.312012,-0.0699463,0.0523071,0.945984
82429966194,0.311951,-0.0697021,0.0526733,0.946045
82429989411,0.311523,-0.0700073,0.0532837,0.946106
82430003712,0.310669,-0.0709229,0.0537109,0.946289
82430026216,0.310364,-0.0718384,0.053894,0.94635
82430049390,0.310486,-0.0725708,0.0541382,0.946228
82430063673,0.309814,-0.0726929,0.0544434,0.946411
82430086159,0.308472,-0.0733643,0.0551758,0.946777
82430109326,0.307434,-0.0738525,0.0558472,0.947021
82430123691,0.306702,-0.0737915,0.0562744,0.947205
82430146190,0.306519,-0.0733032,0.0564575,0.947327
82430169367,0.306702,-0.0723877,0.0566406,0.947327
82430183727,0.307495,-0.0716553,0.0570679,0.947083
82430206186,0.308411,-0.0710449,0.0576172,0.946838
82430229357,0.309509,-0.0705566,0.0580444,0.946472
82430250424,0.310242,-0.0703735,0.0584717,0.946228
82430266239,0.310669,-0.0703125,0.0588379,0.946045
82430289389,0.31073,-0.0703735,0.0588379,0.946045
82430310418,0.310181,-0.0707397,0.0584717,0.946228
82430326214,0.309387,-0.0708008,0.0575562,0.946533
82430349359,0.309631,-0.0705566,0.0564575,0.946533
82430370422,0.310181,-0.0701904,0.055481,0.946411
82430386235,0.310913,-0.0697632,0.0546265,0.946289
82430409384,0.311279,-0.069519,0.0539551,0.946228
82430430422,0.311218,-0.069397,0.0535278,0.946228
82430446257,0.311218,-0.069458,0.0535278,0.946228
82430469369,0.311218,-0.069458,0.0535889,0.946228
82430490448,0.310974,-0.0695801,0.0536499,0.946289
82430506197,0.310364,-0.0696411,0.0535278,0.946533
82430528771,0.309814,-0.0697632,0.0533447,0.946716
82430550500,0.309753,-0.0697632,0.0533447,0.946716
82430566247,0.309998,-0.0697632,0.0533447,0.946655
82430595442,0.309998,-0.0697632,0.0533447,0.946655
82430610473,0.309998,-0.0697632,0.0533447,0.946655
82430626235,0.309875,-0.0697632,0.0534668,0.946655
82430648719,0.309753,-0.069519,0.0535278,0.946716
82430677967,0.309509,-0.0693359,0.0534668,0.946838
82430686196,0.309204,-0.0692139,0.0534668,0.946899
82430708695,0.30896,-0.0689697,0.0534058,0.947021
82430731857,0.30896,-0.0689697,0.0534058,0.947021
82430746189,0.30896,-0.0689697,0.0534058,0.947021
82430768675,0.30896,-0.0689697,0.0534058,0.947021
82430791826,0.309021,-0.0689697,0.0534058,0.947021
82430806256,0.309021,-0.0689697,0.0534058,0.947021
82430828725,0.309021,-0.0689697,0.0534058,0.947021
82430851971,0.309021,-0.0689697,0.0534058,0.947021
82430866227,0.309021,-0.0689697,0.0534058,0.947021
82430888700,0.309143,-0.0689697,0.0532227,0.94696
82430911853,0.309143,-0.0689697,0.0532227,0.94696
82430934416,0.309143,-0.0689697,0.0532227,0.94696
82430948724,0.309143,-0.0689087,0.0532227,0.94696
82430971971,0.309143,-0.0689087,0.0532227,0.94696
82430986252,0.309143,-0.0689087,0.0532227,0.94696
82431008749,0.309143,-0.0689087,0.0532227,0.94696
82431031956,0.309143,-0.0689087,0.0531616,0.94696
82431046289,0.309143,-0.0689087,0.0531616,0.94696
82431068737,0.309082,-0.069397,0.0532837,0.94696
82431091925,0.309021,-0.069397,0.0532837,0.94696
82431106183,0.309204,-0.0692749,0.0532837,0.946899
82431128677,0.30957,-0.0689087,0.0532227,0.946838
82431151917,0.309631,-0.0683594,0.0531616,0.946838
82431173000,0.309448,-0.0678101,0.0530396,0.94696
82431188777,0.309204,-0.0674438,0.0531006,0.947083
82431202310,0.309204,-0.0674438,0.0531006,0.947083
82431224857,0.308899,-0.0675049,0.0532227,0.947144
82431247966,0.308533,-0.067749,0.0532837,0.947266
82431271088,0.308411,-0.0679321,0.0532837,0.947266
82431284779,0.308655,-0.0680542,0.0531616,0.947205
82431307945,0.309021,-0.0681152,0.0530396,0.947083
82431322318,0.309326,-0.0680542,0.0530396,0.947021
82431344792,0.309326,-0.0680542,0.0530396,0.94696
82431367941,0.309143,-0.0679932,0.0530396,0.947083
82431382242,0.308777,-0.0679321,0.0530396,0.947205
82431404726,0.308716,-0.0678711,0.0530396,0.947205
82431427968,0.308716,-0.0678711,0.0530396,0.947205
82431442233,0.308716,-0.0678711,0.0530396,0.947205
82431464757,0.308716,-0.0678711,0.0530396,0.947205
82431487978,0.308716,-0.0678711,0.0530396,0.947205
82431502302,0.308716,-0.0678711,0.0530396,0.947205
82431524802,0.308716,-0.0678711,0.0530396,0.947205
82431547959,0.308716,-0.0678711,0.0530396,0.947205
82431562352,0.308716,-0.0678711,0.0530396,0.947205
82431584820,0.308655,-0.0678711,0.0530396,0.947205
82431607964,0.308655,-0.0678711,0.0530396,0.947205
82431622301,0.308594,-0.0678101,0.0530396,0.947266
82431644798,0.308655,-0.0678101,0.0530396,0.947266
82431668033,0.308655,-0.0678101,0.0530396,0.947205
82431682261,0.308655,-0.067749,0.0530396,0.947266
82431704765,0.308594,-0.067749,0.0530396,0.947266
82431727966,0.308777,-0.067749,0.0531006,0.947205
82431742280,0.308777,-0.067749,0.0531006,0.947205
82431764800,0.308777,-0.067749,0.0531006,0.947205
82431787954,0.308777,-0.067749,0.0531006,0.947205
82431802278,0.308777,-0.067749,0.0531006,0.947205
82431824806,0.308777,-0.067749,0.0531006,0.947205
82431847945,0.308777,-0.067749,0.0531006,0.947205
82431862250,0.308777,-0.067688,0.0531006,0.947205
82431884796,0.308716,-0.067627,0.0532227,0.947205
82431907948,0.308594,-0.067688,0.0535889,0.947205
82431922269,0.308472,-0.067688,0.0539551,0.947266
82431944779,0.30835,-0.067627,0.0542603,0.947266
82431967939,0.308228,-0.067688,0.0546265,0.947327
82431982298,0.307556,-0.0673828,0.0554199,0.94751
82432004818,0.307739,-0.0670776,0.0561523,0.947388
82432028040,0.308228,-0.0666504,0.0570068,0.947205
82432042391,0.30896,-0.0657959,0.0581055,0.94696
82432064826,0.309204,-0.0648804,0.0596924,0.946838
82432087983,0.309326,-0.0637817,0.0614624,0.946777
82432102308,0.309937,-0.0618286,0.0623779,0.946655
82432124729,0.310486,-0.0608521,0.0629883,0.946472
82432148008,0.310547,-0.0597534,0.0635376,0.946533
82432162269,0.310242,-0.0584106,0.0650635,0.946594
82432184762,0.309875,-0.0569458,0.0668335,0.946655
82432207939,0.311462,-0.0557251,0.0686035,0.946106
82432222245,0.315247,-0.0546265,0.0704346,0.944763
82432244784,0.319519,-0.053772,0.0715332,0.943298
82432267950,0.322571,-0.0530396,0.0723267,0.942261
82432282328,0.324219,-0.0529785,0.072998,0.94165
82432304826,0.325134,-0.0529175,0.0736084,0.941284
82432328011,0.325439,-0.0524902,0.0740967,0.941162
82432342304,0.32666,-0.0522461,0.074585,0.940735
82432364799,0.328369,-0.0526123,0.0748291,0.940063
82432388036,0.329163,-0.0532837,0.0747681,0.939758
82432402320,0.329102,-0.053772,0.0747681,0.939758
82432424765,0.328979,-0.0541382,0.0748291,0.939758
82432448002,0.329285,-0.0544434,0.0748901,0.939636
82432462316,0.330261,-0.0552368,0.0751343,0.939209
82432484817,0.331116,-0.0561523,0.0753784,0.938843
82432507972,0.331543,-0.0569458,0.0756226,0.93866
82432522304,0.331848,-0.0575562,0.0758057,0.938477
82432544764,0.332397,-0.0578003,0.0758667,0.938293
82432567250,0.333557,-0.0578003,0.0759888,0.937866
82432582275,0.335327,-0.0577393,0.0759888,0.937195
82432604780,0.337097,-0.0576782,0.0758667,0.936584
82432627320,0.338501,-0.0574951,0.0756836,0.936096
82432642283,0.339111,-0.0569458,0.0755005,0.935913
82432664772,0.339417,-0.0565796,0.0751953,0.935852
82432687295,0.339355,-0.0559692,0.0747681,0.935974
82432702357,0.339172,-0.0554199,0.0742798,0.936096
82432724822,0.339355,-0.0549316,0.0739136,0.936096
82432747380,0.339661,-0.0544434,0.0736694,0.936035
82432762278,0.340576,-0.0539551,0.0737915,0.93573
82432784810,0.342102,-0.0535889,0.0736084,0.935181
82432807308,0.343384,-0.0528564,0.0731201,0.934814
82432822304,0.344116,-0.0518188,0.0725098,0.934631
82432844923,0.346008,-0.050354,0.0716553,0.934082
82432867301,0.347412,-0.0493164,0.0718384,0.933594
82432882279,0.348877,-0.0484009,0.0723267,0.933044
82432904789,0.350464,-0.0474854,0.0724487,0.932495
82432927299,0.351746,-0.0461426,0.0721436,0.932129
82432942330,0.352478,-0.0449219,0.0719604,0.931946
82432964884,0.352234,-0.0440063,0.0722046,0.932068
82432987281,0.351074,-0.043457,0.0724487,0.932495
82433002303,0.349487,-0.0431519,0.0725708,0.933105
82433024841,0.347534,-0.0430908,0.0728149,0.933777
82433047292,0.347107,-0.0431519,0.0737915,0.933899
82433062351,0.348206,-0.0432739,0.0750732,0.93335
82433084841,0.349915,-0.0437622,0.0759888,0.932617
82433107284,0.351013,-0.0441895,0.0764771,0.932129
82433122298,0.350952,-0.0443726,0.0769043,0.932129
82433144816,0.34967,-0.0441895,0.0772095,0.932617
82433167313,0.3479,-0.0437012,0.0773315,0.933289
82433182304,0.345703,-0.0430298,0.0773315,0.934082
82433204790,0.343384,-0.0421753,0.0773926,0.934998
82433227288,0.341309,-0.0408936,0.0777588,0.935791
82433242288,0.340942,-0.0391235,0.0785522,0.935913
82433264843,0.342346,-0.0375977,0.0793457,0.935425
82433287332,0.343323,-0.0361938,0.0800781,0.935059
82433302341,0.34314,-0.034668,0.0809326,0.93512
82433324753,0.34198,-0.0327148,0.0818481,0.935547
82433347368,0.340759,-0.0308838,0.0829468,0.935913
82433363752,0.339905,-0.0299072,0.0844116,0.936157
82433384887,0.339355,-0.0299683,0.0862427,0.936157
82433408771,0.339783,-0.0302124,0.0878296,0.935852
82433423772,0.341614,-0.0296631,0.0892944,0.935059
82433444820,0.344421,-0.0285645,0.0911865,0.933899
82433467336,0.347046,-0.0274048,0.0927734,0.9328
82433491967,0.349121,-0.0266113,0.0938721,0.931946
82433504795,0.351135,-0.0268555,0.0947876,0.931091
82433527325,0.35376,-0.0268555,0.09552,0.930054
82433543793,0.356567,-0.0254517,0.0958252,0.928955
82433564842,0.36084,-0.0233154,0.0956421,0.927368
82433587293,0.36615,-0.0205078,0.095459,0.925354
82433603780,0.372131,-0.0167847,0.0952759,0.923096
82433624815,0.377502,-0.012207,0.095459,0.920959
82433648765,0.381775,-0.00738525,0.0965576,0.919128
82433663762,0.386047,-0.0022583,0.0982666,0.917175
82433684786,0.391418,0.00280762,0.100342,0.914673
82433707359,0.398499,0.00891113,0.102661,0.911316
82433723784,0.407593,0.0151367,0.105652,0.90686
82433744806,0.417725,0.0197754,0.110046,0.901611
82433767299,0.427612,0.0236206,0.116272,0.896118
82433783826,0.434998,0.0267944,0.123047,0.891541
82433804865,0.438782,0.0303345,0.131104,0.888428
82433827343,0.441528,0.0345459,0.139648,0.885559
82433843754,0.442749,0.0391235,0.149231,0.88324
82433867735,0.443665,0.0444946,0.159546,0.880676
82433887332,0.445435,0.0508423,0.170288,0.877441
82433903806,0.447205,0.0580444,0.181824,0.873779
82433924835,0.448364,0.0657349,0.194214,0.869995
82433947389,0.449158,0.0740356,0.20697,0.865906
82433963778,0.450073,0.0830688,0.219666,0.861511
82433984846,0.450867,0.0925903,0.232544,0.85675
82434007305,0.451782,0.102417,0.245483,0.851501
82434023750,0.452576,0.112976,0.25824,0.845947
82434044779,0.45282,0.123474,0.270813,0.840393
82434067309,0.453552,0.134033,0.282654,0.834473
82434083776,0.455383,0.144775,0.293518,0.827881
82434107701,0.458008,0.155334,0.303589,0.820862
82434127281,0.46106,0.165283,0.312866,0.813721
82434143773,0.464417,0.173889,0.320862,0.806885
82434164802,0.468201,0.181396,0.327148,0.800476
82434187351,0.472412,0.188477,0.33252,0.794128
82434205249,0.476196,0.194214,0.337891,0.788147
82434224833,0.479492,0.198059,0.343262,0.782898
82434247353,0.483521,0.200134,0.347778,0.777893
82434263793,0.489563,0.200745,0.350769,0.772583
82434284865,0.496582,0.201904,0.350769,0.767761
82434307348,0.499207,0.206909,0.347412,0.766235
82434323822,0.498413,0.210571,0.345703,0.766541
82434346285,0.497253,0.212524,0.343872,0.767578
82434367332,0.500793,0.215881,0.340942,0.765686
82434383796,0.50592,0.220093,0.33783,0.762451
82434406289,0.50885,0.223877,0.335449,0.760498
82434427344,0.511292,0.227112,0.333923,0.758545
82434443765,0.516174,0.231934,0.332214,0.754517
82434466317,0.522888,0.238342,0.3302,0.748718
82434487387,0.527893,0.244324,0.328552,0.744019
82434503765,0.528992,0.247131,0.328613,0.74231
82434526311,0.528259,0.248962,0.329041,0.742004
82434547337,0.526794,0.25061,0.329529,0.74231
82434563867,0.525269,0.252197,0.329834,0.742676
82434586328,0.523743,0.253113,0.330322,0.743225
82434607346,0.5224,0.252991,0.33075,0.744019
82434623791,0.521606,0.252502,0.331055,0.744629
82434646307,0.521057,0.25177,0.33136,0.745117
82434667323,0.520203,0.250793,0.331909,0.745789
82434683812,0.51947,0.24939,0.332458,0.746521
82434706293,0.518738,0.24646,0.333008,0.747742
82434727363,0.517395,0.242737,0.333801,0.749573
82434743834,0.516174,0.239563,0.334106,0.751282
82434766293,0.51593,0.237183,0.333557,0.752502
82434787328,0.516663,0.235107,0.332764,0.75293
82434803785,0.517761,0.232788,0.332581,0.752991
82434826344,0.518311,0.230103,0.332947,0.753235
82434847404,0.519287,0.227905,0.333069,0.753235
82434863809,0.520508,0.226501,0.332947,0.752869
82434886309,0.522095,0.225464,0.332764,0.752197
82434907418,0.523315,0.224365,0.332642,0.751709
82434923826,0.524414,0.223511,0.332642,0.75116
82434946328,0.526001,0.223206,0.332397,0.750305
82434967327,0.52771,0.223206,0.33197,0.749268
82434983826,0.52887,0.22345,0.331543,0.748596
82435006316,0.529724,0.223694,0.331055,0.748108
82435028000,0.530212,0.223755,0.330566,0.747986
82435043049,0.530701,0.223938,0.329895,0.747803
82435065560,0.531433,0.223938,0.329224,0.74762
82435088012,0.531616,0.223816,0.328979,0.74762
82435103023,0.531555,0.223816,0.329041,0.747681
82435125559,0.531372,0.223938,0.329102,0.747681
82435156164,0.53125,0.224182,0.328918,0.747803
82435163024,0.53125,0.224182,0.328918,0.747803
82435185447,0.53125,0.224243,0.328918,0.747803
82435208050,0.531494,0.223999,0.328796,0.747742
82435222987,0.531677,0.223755,0.328857,0.747681
82435245519,0.531799,0.223572,0.328918,0.747559
82435268431,0.531738,0.223389,0.329102,0.74762
82435283083,0.531738,0.223389,0.329102,0.74762
82435305302,0.531738,0.223389,0.329102,0.74762
82435336183,0.531799,0.223083,0.329102,0.74762
82435342999,0.532104,0.222595,0.329041,0.74762
82435365542,0.533264,0.221924,0.328796,0.74707
82435389441,0.535767,0.221619,0.328003,0.745728
82435403052,0.538452,0.221741,0.326843,0.744263
82435425515,0.539795,0.221802,0.326172,0.743591
82435447961,0.540039,0.22168,0.325928,0.74353
82435464483,0.540161,0.221375,0.325806,0.743591
82435485557,0.541443,0.221008,0.325439,0.742981
82435508028,0.543518,0.221069,0.324341,0.741882
82435524536,0.544617,0.220947,0.32373,0.741394
82435545540,0.544373,0.220459,0.323853,0.741638
82435568023,0.543945,0.220093,0.323914,0.742065
82435584292,0.543762,0.21991,0.323975,0.742249
82435605510,0.543457,0.219604,0.32428,0.742432
82435628039,0.542969,0.219055,0.324829,0.742676
82435644475,0.542725,0.218567,0.325317,0.742737
82435665528,0.542603,0.218323,0.325623,0.742798
82435688017,0.542236,0.218079,0.325928,0.743042
82435704445,0.541565,0.217896,0.326233,0.743469
82435725519,0.540649,0.217651,0.32666,0.744019
82435748005,0.539917,0.217224,0.327087,0.744446
82435764517,0.539307,0.217041,0.327393,0.744812
82435785547,0.538452,0.21698,0.327759,0.7453
82435807774,0.536926,0.216675,0.328552,0.746155
82435824495,0.534607,0.216614,0.329895,0.747253
82435845530,0.531982,0.217163,0.331543,0.748169
82435868080,0.52948,0.218018,0.333069,0.749023
82435884551,0.527161,0.218506,0.334473,0.749939
82435905511,0.524475,0.218384,0.335938,0.75116
82435928021,0.521973,0.217529,0.337158,0.752625
82435944501,0.520691,0.216675,0.337646,0.75354
82435965530,0.519958,0.215637,0.338013,0.75415
82435988015,0.519043,0.214417,0.338379,0.754944
82436004477,0.518311,0.213135,0.338684,0.755737
82436025533,0.518066,0.212158,0.338745,0.756104
82436048003,0.517944,0.211487,0.338867,0.756348
82436064586,0.517822,0.210938,0.338989,0.75647
82436085545,0.51825,0.210327,0.33905,0.756348
82436108059,0.519043,0.209717,0.339172,0.755981
82436124476,0.519653,0.209351,0.339172,0.755615
82436145535,0.519226,0.208252,0.339661,0.756042
82436168007,0.517883,0.206482,0.340576,0.757019
82436184478,0.516846,0.204407,0.341614,0.757812
82436205557,0.516541,0.201965,0.342102,0.758484
82436228106,0.515564,0.199219,0.342651,0.759583
82436243833,0.513733,0.195984,0.343628,0.76123
82436265556,0.512024,0.192383,0.344421,0.762939
82436288060,0.511169,0.188782,0.344543,0.764404
82436303844,0.509949,0.184875,0.344299,0.766235
82436325523,0.508545,0.180908,0.344177,0.768188
82436348012,0.507202,0.177063,0.344116,0.769958
82436363797,0.506287,0.173645,0.343872,0.771484
82436386982,0.506042,0.170471,0.34314,0.772644
82436407980,0.506226,0.167786,0.342224,0.77356
82436423942,0.505737,0.165588,0.341248,0.77478
82436446986,0.504639,0.163879,0.340576,0.776123
82436468051,0.504089,0.162964,0.339966,0.776917
82436483869,0.503845,0.16272,0.339783,0.777222
82436507037,0.503723,0.16333,0.339783,0.777161
82436529550,0.503723,0.164673,0.340088,0.776794
82436543910,0.503662,0.166565,0.340637,0.776184
82436567043,0.503235,0.168274,0.341431,0.775757
82436588042,0.502258,0.169373,0.342346,0.775696
82436603836,0.501099,0.170105,0.342957,0.776062
82436626984,0.5,0.170959,0.343323,0.776367
82436648060,0.498962,0.171692,0.343506,0.776855
82436663833,0.497437,0.171631,0.344055,0.777588
82436687016,0.495972,0.171021,0.344727,0.77832
82436708087,0.495544,0.170776,0.344971,0.778564
82436723844,0.495911,0.170776,0.344971,0.77832
82436746962,0.495911,0.170715,0.344971,0.77832
82436768050,0.495544,0.17041,0.345215,0.778503
82436783908,0.494934,0.170105,0.345459,0.77887
82436806994,0.494873,0.169922,0.34552,0.778931
82436828052,0.495117,0.170227,0.34552,0.778748
82436843865,0.4953,0.170471,0.345703,0.778442
82436866978,0.4953,0.170593,0.346008,0.77832
82436888093,0.495361,0.170959,0.346313,0.778076
82436910540,0.495605,0.171509,0.346558,0.777649
82436927007,0.495667,0.171936,0.346741,0.777466
82436948108,0.495422,0.17218,0.346863,0.777466
82436963842,0.495239,0.172424,0.346924,0.777527
82436987020,0.495178,0.172546,0.346802,0.777588
82437008045,0.495178,0.172363,0.34668,0.77771
82437023932,0.495422,0.172058,0.346436,0.77771
82437047703,0.495728,0.171265,0.346252,0.777771
82437075531,0.495911,0.170044,0.345947,0.778015
82437083884,0.49646,0.168884,0.34552,0.778137
82437107007,0.496704,0.168091,0.345154,0.77832
82437128045,0.496582,0.167358,0.345032,0.778625
82437143841,0.496277,0.166809,0.345032,0.778931
82437166386,0.496338,0.166809,0.345032,0.778931
82437188084,0.496826,0.167053,0.344971,0.778503
82437203986,0.497192,0.167297,0.344971,0.778259
82437226377,0.497375,0.16748,0.345032,0.778076
82437247833,0.497559,0.167542,0.344971,0.777954
82437263846,0.497559,0.167542,0.344971,0.777954
82437286392,0.497559,0.167542,0.345032,0.777954
82437308067,0.497559,0.167542,0.345032,0.777954
82437323943,0.497559,0.167542,0.345032,0.777954
82437346346,0.497498,0.167542,0.345032,0.778015
82437369543,0.497498,0.167542,0.345032,0.778015
82437391994,0.497437,0.167297,0.345093,0.778076
82437406422,0.497131,0.166809,0.345337,0.778259
82437429530,0.497192,0.166138,0.345337,0.77832
82437443959,0.497986,0.165405,0.345154,0.778076
82437466381,0.498779,0.164673,0.345032,0.777771
82437489538,0.49884,0.163879,0.344849,0.778015
82437503832,0.498474,0.162781,0.344727,0.778503
82437533050,0.498169,0.161499,0.344543,0.779053
82437549541,0.497803,0.1604,0.344666,0.77948
82437563955,0.497314,0.159607,0.344971,0.779785
82437586346,0.497498,0.159119,0.345337,0.779663
82437609512,0.497925,0.158875,0.345825,0.779175
82437623833,0.498352,0.158752,0.346619,0.778564
82437654528,0.498718,0.158875,0.347595,0.777893
82437669562,0.498962,0.15918,0.34845,0.777283
82437683932,0.499451,0.159851,0.349121,0.77655
82437706392,0.500366,0.16095,0.349487,0.775574
82437729522,0.50116,0.162537,0.349792,0.774536
82437743929,0.502441,0.164368,0.349915,0.773315
82437766410,0.503784,0.165955,0.350037,0.772034
82437789546,0.505066,0.167358,0.349854,0.770996
82437803957,0.506653,0.168335,0.348938,0.770142
82437826379,0.507507,0.168884,0.347717,0.77002
82437849530,0.507324,0.168945,0.346436,0.770691
82437870558,0.507263,0.168823,0.345032,0.771362
82437886411,0.507874,0.168518,0.343811,0.771545
82437909555,0.508301,0.168518,0.342896,0.771729
82437930596,0.508057,0.16864,0.342346,0.772095
82437946373,0.507874,0.168884,0.342102,0.772278
82437969524,0.508423,0.169373,0.341858,0.771912
82437990581,0.508972,0.1698,0.341736,0.771484
82438006349,0.508972,0.169861,0.341858,0.771423
82438029531,0.508789,0.169983,0.342102,0.771423
82438052045,0.508667,0.170166,0.342407,0.771362
82438066367,0.50885,0.170471,0.342346,0.771179
82438088910,0.509094,0.170654,0.342346,0.770935
82438110598,0.509094,0.170715,0.342346,0.770935
82438126405,0.50885,0.170959,0.342529,0.770996
82438148843,0.508484,0.171204,0.342712,0.771057
82438170569,0.508301,0.17157,0.342896,0.771057
82438186334,0.508301,0.171936,0.343018,0.770935
82438208949,0.508179,0.171997,0.34314,0.770935
82438230598,0.507874,0.172119,0.343262,0.771057
82438246404,0.50769,0.172302,0.343384,0.771057
82438268945,0.50769,0.172729,0.343506,0.770935
82438292049,0.507812,0.173218,0.343628,0.770691
82438306375,0.507874,0.173706,0.34375,0.770447
82438328933,0.508118,0.174561,0.343872,0.77002
82438352007,0.508545,0.17572,0.344055,0.769409
82438366453,0.508972,0.17688,0.344055,0.76886
82438388940,0.509399,0.177795,0.344421,0.76825
82438412014,0.510193,0.178955,0.345276,0.767029
82438426340,0.510986,0.180359,0.345642,0.765991
82438448923,0.512451,0.180359,0.345276,0.765198
82438471984,0.512939,0.178406,0.345642,0.765198
82438486348,0.512512,0.176575,0.346375,0.765503
82438508954,0.512695,0.175598,0.34729,0.765198
82438532036,0.513184,0.175354,0.34845,0.764404
82438546361,0.513,0.175415,0.350281,0.763733
82438568850,0.511475,0.176453,0.352539,0.763428
82438591989,0.509888,0.178589,0.354736,0.763
82438613038,0.508728,0.181763,0.356506,0.762207
82438628919,0.507751,0.185425,0.357727,0.761353
82438652053,0.506531,0.188477,0.358521,0.761108
82438672853,0.504517,0.190613,0.359497,0.761475
82438688919,0.501953,0.192383,0.360596,0.762146
82438712051,0.499878,0.194092,0.361145,0.762817
82438726405,0.498108,0.195862,0.361572,0.763306
82438748921,0.496399,0.198059,0.361511,0.763916
82438772050,0.495056,0.199219,0.360291,0.765076
82438793047,0.493408,0.198669,0.358643,0.767029
82438808908,0.489807,0.196777,0.357788,0.770203
82438832041,0.486389,0.195496,0.356567,0.773315
82438853045,0.484863,0.194763,0.355286,0.775024
82438868064,0.483093,0.193665,0.35498,0.77655
82438882415,0.480347,0.192749,0.355164,0.778381
82438904952,0.478027,0.192688,0.35498,0.779907
82438928053,0.476624,0.193542,0.354675,0.780701
82438942405,0.476196,0.195068,0.354797,0.780518
82438964965,0.475769,0.197144,0.355713,0.779846
82438988056,0.47467,0.199341,0.356995,0.779358
82439002411,0.473145,0.201599,0.358521,0.778992
82439024932,0.47168,0.204041,0.360413,0.778381
82439048054,0.470947,0.206848,0.36261,0.777039
82439062395,0.471252,0.210083,0.364746,0.775024
82439084927,0.471924,0.213196,0.366394,0.772949
82439108068,0.473267,0.216248,0.367737,0.77063
82439122426,0.475403,0.219055,0.369263,0.767761
82439144934,0.476807,0.221558,0.371765,0.765015
82439168085,0.476257,0.223816,0.374634,0.763306
82439182430,0.47467,0.226318,0.377075,0.762329
82439204938,0.473633,0.229248,0.378784,0.761292
82439228097,0.473816,0.232422,0.379333,0.759949
82439242433,0.474426,0.235168,0.379578,0.758545
82439264971,0.474365,0.237122,0.380371,0.757629
82439288150,0.473755,0.238342,0.381592,0.756958
82439302412,0.473022,0.23877,0.383606,0.756287
82439324962,0.471863,0.238464,0.386353,0.755737
82439348083,0.470154,0.23761,0.389465,0.755432
82439362405,0.468628,0.236877,0.392517,0.755005
82439384956,0.467834,0.236206,0.395142,0.754395
82439408073,0.46759,0.235229,0.3974,0.753601
82439422471,0.466919,0.233948,0.399536,0.753296
82439444980,0.46637,0.232727,0.401184,0.753174
82439468102,0.46698,0.23175,0.402405,0.752441
82439482445,0.468811,0.231018,0.403259,0.751038
82439504946,0.470398,0.230469,0.404358,0.749634
82439528102,0.471558,0.22998,0.405396,0.748535
82439542440,0.472351,0.229065,0.406433,0.747742
82439564926,0.472961,0.227722,0.407532,0.747131
82439588101,0.473022,0.226074,0.408752,0.746948
82439602403,0.472595,0.224426,0.409851,0.747131
82439624947,0.471863,0.223145,0.410767,0.747437
82439648057,0.470764,0.222351,0.411621,0.747925
82439662397,0.469482,0.222229,0.412109,0.748474
82439684941,0.468811,0.223328,0.41217,0.748596
82439708107,0.468689,0.225342,0.411926,0.748169
82439722451,0.468506,0.227783,0.411804,0.74762
82439753795,0.468262,0.230286,0.411682,0.74707
82439768124,0.467896,0.232727,0.411743,0.746521
82439782450,0.467896,0.234985,0.411987,0.745667
82439804926,0.468201,0.236633,0.412476,0.74469
82439828118,0.468628,0.237488,0.413025,0.743835
82439842421,0.469116,0.237671,0.413452,0.743225
82439864943,0.469482,0.237061,0.413879,0.742981
82439888103,0.468994,0.235657,0.414368,0.743408
82439902465,0.467957,0.23407,0.414551,0.744507
82439924932,0.46698,0.232483,0.414368,0.745728
82439948075,0.466187,0.230896,0.414001,0.746887
82439962427,0.465454,0.229492,0.413696,0.747925
82439984947,0.464844,0.228577,0.413757,0.748596
82440008131,0.464722,0.228516,0.413696,0.748657
82440022398,0.465149,0.229309,0.413452,0.748291
82440044934,0.465576,0.230286,0.413086,0.747925
82440068103,0.465698,0.230835,0.412903,0.747803
82440082464,0.465515,0.230896,0.412842,0.747986
82440104972,0.465027,0.231079,0.412903,0.748169
82440128072,0.469421,0.230042,0.412354,0.746033
82440142434,0.477783,0.224182,0.410645,0.743469
82440164938,0.484985,0.220825,0.410095,0.740112
82440187427,0.485718,0.213562,0.410095,0.74176
82440202451,0.482117,0.203613,0.410461,0.746643
82440224949,0.474182,0.193298,0.410461,0.754456
82440247403,0.459534,0.1875,0.408081,0.766174
82440262440,0.440247,0.186157,0.403198,0.780273
82440284973,0.419983,0.189941,0.395325,0.794434
82440307492,0.400879,0.198853,0.384399,0.807373
82440322476,0.383057,0.211548,0.37085,0.819092
82440344957,0.36377,0.225647,0.356018,0.830566
82440367472,0.34021,0.239624,0.341248,0.842773
82440382427,0.312073,0.253479,0.327271,0.855042
82440404943,0.280884,0.267456,0.31427,0.866455
82440427458,0.248352,0.281189,0.301758,0.876404
82440442503,0.216003,0.294434,0.289612,0.884705
82440465010,0.184326,0.307068,0.278198,0.891174
82440487509,0.153931,0.319519,0.26709,0.895996
82440502443,0.12384,0.331604,0.256409,0.899353
82440525001,0.0929565,0.342407,0.24707,0.901672
82440547470,0.0620728,0.352112,0.238892,0.902771
82440562518,0.0316162,0.361511,0.231689,0.902527
82440584956,0.00128174,0.372131,0.224854,0.900452
82440607473,-0.0274048,0.384827,0.217163,0.896606
82440622479,-0.0527954,0.399963,0.20697,0.891235
82440644991,-0.074707,0.417236,0.193787,0.884705
82440668916,-0.0935669,0.436157,0.177368,0.877197
82440682697,-0.109375,0.4552,0.157898,0.869385
82440705001,-0.123352,0.473633,0.136047,0.861328
82440727469,-0.136658,0.490784,0.113403,0.852905
82440742509,-0.150085,0.507202,0.0914307,0.843689
82440764978,-0.161865,0.521912,0.071228,0.834412
82440787448,-0.176636,0.528381,0.0546265,0.828552
82440802445,-0.187195,0.530701,0.0402832,0.825623
82440825202,-0.194519,0.529541,0.0278931,0.825195
82440847447,-0.198792,0.531921,0.019165,0.822876
82440862482,-0.205811,0.532776,0.0139771,0.820679
82440884980,-0.211792,0.533447,0.012207,0.818726
82440907508,-0.214966,0.533875,0.0128174,0.817627
82440929974,-0.216431,0.534973,0.015625,0.816467
82440945002,-0.217224,0.536316,0.0193481,0.815308
82440968977,-0.216431,0.537842,0.022644,0.814392
82440983998,-0.213074,0.539673,0.0256348,0.814026
82441004961,-0.208008,0.541504,0.0291748,0.813965
82441027480,-0.203369,0.543335,0.0339966,0.813782
82441043916,-0.200012,0.5448,0.0404053,0.813354
82441064944,-0.196289,0.545715,0.046814,0.813293
82441087460,-0.190552,0.546143,0.052002,0.814026
82441103961,-0.183716,0.545959,0.0565186,0.81543
82441125013,-0.177429,0.545227,0.0609131,0.817017
82441147504,-0.173096,0.544128,0.0656738,0.818298
82441163966,-0.170044,0.542908,0.0703735,0.819336
82441184955,-0.167969,0.541565,0.0748901,0.820251
82441207496,-0.166626,0.539246,0.0788574,0.821655
82441223926,-0.165161,0.536743,0.0819702,0.823303
82441244970,-0.163452,0.533997,0.0846558,0.825134
82441267476,-0.162659,0.53125,0.0877075,0.826782
82441283949,-0.162415,0.52832,0.0912476,0.828308
82441305032,-0.162537,0.524536,0.0957642,0.8302
82441327491,-0.162354,0.519836,0.100891,0.832581
82441343944,-0.161499,0.514038,0.106323,0.835632
82441365010,-0.159729,0.508118,0.111877,0.838867
82441387474,-0.156982,0.501282,0.119202,0.842468
82441403942,-0.154175,0.492981,0.128906,0.846497
82441424988,-0.15094,0.482056,0.140503,0.85144
82441447575,-0.145447,0.469055,0.152039,0.857666
82441463964,-0.138123,0.454163,0.16449,0.864563
82441484995,-0.131165,0.43689,0.178589,0.871765
82441507506,-0.123535,0.417908,0.193665,0.878906
82441523921,-0.114746,0.398071,0.208862,0.885803
82441545006,-0.102905,0.378906,0.222595,0.892334
82441567461,-0.0869141,0.361389,0.234558,0.898193
82441583948,-0.0681763,0.344604,0.245789,0.903381
82441604946,-0.0484619,0.328308,0.257202,0.907532
82441627508,-0.0283203,0.312439,0.26947,0.9104
82441643941,-0.0065918,0.297974,0.281433,0.912109
82441664971,0.0189209,0.286743,0.291382,0.912354
82441687441,0.0473022,0.279602,0.299133,0.911072
82441704004,0.0761108,0.273315,0.307495,0.908203
82441725036,0.105957,0.267273,0.315918,0.904114
82441747577,0.137024,0.263184,0.323303,0.898499
82441763976,0.168945,0.261414,0.330322,0.891052
82441784989,0.20166,0.260559,0.337769,0.881592
82441807521,0.233582,0.258606,0.346069,0.871033
82441823957,0.265137,0.255859,0.352051,0.860352
82441845063,0.296753,0.252869,0.355103,0.849609
82441867456,0.329285,0.249512,0.357178,0.837646
82441883915,0.360474,0.248474,0.358643,0.824402
82441906415,0.387573,0.24707,0.360107,0.811768
82441930422,0.409973,0.24292,0.362671,0.800781
82441943943,0.429932,0.236267,0.364441,0.791443
82441966438,0.44635,0.228638,0.366272,0.783752
82441987516,0.463501,0.222534,0.366272,0.775513
82442009978,0.484009,0.219299,0.366211,0.763794
82442026441,0.502991,0.216492,0.368408,0.75116
82442047497,0.514526,0.210083,0.37323,0.742798
82442063943,0.521118,0.202026,0.37616,0.738953
82442086453,0.526855,0.195068,0.375793,0.736938
82442107504,0.533936,0.190735,0.374451,0.733643
82442124004,0.539124,0.188782,0.375793,0.729614
82442146443,0.539917,0.187317,0.378967,0.727783
82442167482,0.537842,0.185059,0.381531,0.728577
82442183926,0.536072,0.183289,0.383545,0.729248
82442206435,0.535278,0.182251,0.385925,0.728821
82442227517,0.53418,0.180542,0.389771,0.728027
82442251499,0.532593,0.176697,0.394775,0.727478
82442266449,0.529236,0.169922,0.400208,0.728516
82442287535,0.526306,0.163879,0.405457,0.729187
82442303960,0.526428,0.162354,0.409302,0.727234
82442326508,0.527222,0.162903,0.412903,0.724487
82442347510,0.526062,0.161499,0.417358,0.723145
82442363978,0.524841,0.158936,0.421448,0.722229
82442386491,0.52594,0.157837,0.424011,0.720093
82442407541,0.528137,0.158447,0.426331,0.71698
82442423997,0.528259,0.158447,0.428711,0.715454
82442452533,0.5271,0.15686,0.430725,0.715454
82442467513,0.526917,0.15564,0.432007,0.715149
82442483949,0.527161,0.156128,0.432678,0.714417
82442506496,0.526184,0.156311,0.433044,0.714905
82442528997,0.525757,0.156494,0.432983,0.71521
82442544052,0.526123,0.157166,0.432007,0.715332
82442566489,0.526306,0.157532,0.431091,0.715698
82442587524,0.525269,0.158691,0.42981,0.71698
82442604018,0.523743,0.159668,0.429504,0.718018
82442626469,0.523804,0.160095,0.428955,0.718201
82442647585,0.524719,0.160034,0.427246,0.718628
82442663987,0.524658,0.161194,0.424622,0.719971
82442686465,0.523376,0.163025,0.421631,0.722229
82442709597,0.522034,0.16449,0.418091,0.724915
82442723178,0.52124,0.166626,0.412354,0.728271
82442745666,0.518372,0.169983,0.405334,0.733459
82442768190,0.51416,0.174438,0.397217,0.739868
82442783148,0.507568,0.178467,0.38916,0.747681
82442805680,0.49884,0.182495,0.380066,0.757141
82442828173,0.489929,0.188416,0.369263,0.766785
82442843164,0.480103,0.195862,0.357422,0.776672
82442865693,0.467407,0.204895,0.344727,0.787781
82442888173,0.452454,0.215576,0.331177,0.799438
82442903192,0.436462,0.228027,0.316345,0.81073
82442925677,0.419922,0.24176,0.299988,0.821655
82442948174,0.403259,0.256592,0.282654,0.831604
82442963190,0.386292,0.272034,0.264709,0.840576
82442986323,0.368896,0.287964,0.246277,0.848694
82443008206,0.35083,0.303833,0.227783,0.855957
82443024641,0.33197,0.319031,0.209778,0.862488
82443045672,0.313232,0.333862,0.191956,0.868042
82443068218,0.294983,0.348877,0.174438,0.872192
82443084662,0.276917,0.363831,0.157593,0.875183
82443105696,0.258911,0.377808,0.141479,0.877563
82443128200,0.242249,0.39093,0.125793,0.878967
82443144648,0.227844,0.40332,0.110168,0.879333
82443165672,0.215088,0.414185,0.0953979,0.879211
82443188205,0.203125,0.423218,0.0824585,0.879089
82443204669,0.191772,0.429199,0.0720215,0.879639
82443225698,0.18103,0.433655,0.0628052,0.880432
82443248181,0.171326,0.436768,0.0549927,0.881348
82443264687,0.161987,0.438354,0.0487671,0.88269
82443285709,0.153076,0.438599,0.0441895,0.884399
82443308172,0.14502,0.438171,0.0408325,0.886108
82443324606,0.138489,0.4375,0.0385742,0.887634
82443345711,0.133423,0.436279,0.0374756,0.889038
82443368274,0.130249,0.434265,0.0375977,0.890442
82443384642,0.128967,0.43158,0.0389404,0.891907
82443405668,0.129089,0.428162,0.0413208,0.893433
82443428203,0.130188,0.424011,0.0447388,0.895081
82443444617,0.132568,0.419189,0.0491333,0.89679
82443465746,0.136108,0.413818,0.0549927,0.898376
82443488203,0.140625,0.408142,0.0620117,0.899841
82443504665,0.145691,0.401733,0.0704346,0.901306
82443525700,0.151733,0.394531,0.079834,0.90271
82443548210,0.159363,0.38562,0.0904541,0.904236
82443564695,0.168213,0.375122,0.102783,0.905701
82443585731,0.17749,0.363953,0.116516,0.90686
82443608185,0.18811,0.351685,0.131531,0.907471
82443624642,0.199768,0.338196,0.147888,0.907593
82443645683,0.212097,0.322998,0.166016,0.907227
82443668154,0.225464,0.306396,0.185974,0.905884
82443684615,0.241211,0.290283,0.206909,0.902588
82443705671,0.258545,0.276001,0.227478,0.897278
82443728216,0.273438,0.260925,0.248718,0.891724
82443744650,0.286377,0.243042,0.271179,0.886169
82443765694,0.300598,0.225525,0.293213,0.879028
82443788242,0.31842,0.210205,0.313904,0.869324
82443810760,0.335327,0.194275,0.335999,0.858398
82443825699,0.350891,0.176636,0.358337,0.846863
82443848171,0.368164,0.159729,0.378479,0.834045
82443864010,0.386658,0.144714,0.39624,0.820007
82443885696,0.400208,0.130737,0.414124,0.806946
82443908212,0.409729,0.119019,0.430481,0.795349
82443923956,0.419006,0.111694,0.444397,0.783813
82443945798,0.42804,0.106323,0.456299,0.772766
82443968201,0.436279,0.103088,0.464783,0.763489
82443992140,0.44342,0.0996094,0.472168,0.755249
82444007150,0.449829,0.0947266,0.47876,0.747925
82444028216,0.454346,0.0878906,0.484924,0.742004
82444044031,0.45575,0.0794678,0.490845,0.738159
82444067169,0.456421,0.0720215,0.495728,0.735291
82444088251,0.459106,0.0655518,0.500183,0.731201
82444103990,0.463684,0.0596313,0.504883,0.725525
82444127141,0.46637,0.0533447,0.510498,0.720337
82444148227,0.467529,0.0490723,0.516418,0.715698
82444163998,0.469421,0.0472412,0.522522,0.710144
82444193182,0.471436,0.0467529,0.529297,0.703796
82444208239,0.471252,0.0476074,0.53717,0.697876
82444224017,0.46936,0.0499878,0.54541,0.692505
82444247160,0.467773,0.0533447,0.553345,0.687012
82444268189,0.467285,0.0564575,0.560791,0.68103
82444283982,0.467041,0.0599365,0.5672,0.675598
82444307143,0.465515,0.0628052,0.572449,0.671936
82444328206,0.463684,0.0648193,0.57666,0.669434
82444343993,0.463745,0.0667725,0.579468,0.666748
82444367149,0.464294,0.0685425,0.581543,0.664368
82444388190,0.463562,0.0701294,0.582947,0.663513
82444403967,0.463501,0.0718994,0.583008,0.66333
82444427123,0.463806,0.0747681,0.582275,0.663391
82444448187,0.462952,0.0772095,0.581055,0.664856
82444470732,0.461731,0.0787964,0.578796,0.667419
82444487179,0.461243,0.0801392,0.575623,0.670349
82444508234,0.460938,0.0817261,0.571289,0.674072
82444524046,0.459839,0.0836182,0.565857,0.679138
82444547138,0.458374,0.086792,0.559692,0.684814
82444568234,0.456177,0.0907593,0.552917,0.691223
82444584025,0.453308,0.0944214,0.546204,0.697937
82444607177,0.44812,0.0967407,0.539856,0.705872
82444628224,0.442993,0.101562,0.532471,0.713989
82444644039,0.439819,0.109253,0.523926,0.72113
82444667153,0.435486,0.116577,0.515503,0.728638
82444688198,0.427734,0.121094,0.507568,0.737976
82444703999,0.419617,0.126038,0.498596,0.747864
82444726565,0.414062,0.133728,0.488281,0.756409
82444748232,0.408752,0.142273,0.4776,0.764465
82444763995,0.399841,0.150452,0.466736,0.774353
82444786561,0.390991,0.159668,0.454956,0.783936
82444808215,0.383301,0.17041,0.4422,0.792725
82444824039,0.375061,0.181519,0.42926,0.80127
82444846515,0.365967,0.192505,0.415955,0.809875
82444870145,0.357239,0.204041,0.401672,0.818115
82444884051,0.348816,0.215698,0.386841,0.825867
82444906512,0.339844,0.227112,0.371643,0.833496
82444929646,0.329956,0.238037,0.356506,0.841003
82444944070,0.319641,0.248596,0.341003,0.848328
82444966556,0.309265,0.259827,0.324402,0.855286
82444989729,0.298706,0.27179,0.307434,0.861572
82445004008,0.288025,0.284302,0.289734,0.867249
82445026512,0.277222,0.29718,0.271484,0.872375
82445049639,0.265259,0.310181,0.25354,0.876953
82445063967,0.253418,0.323547,0.235718,0.880554
82445086535,0.242432,0.336975,0.217957,0.88324
82445109671,0.232239,0.350098,0.2005,0.88501
82445123994,0.221985,0.362854,0.183533,0.886169
82445146495,0.212463,0.374878,0.166992,0.88678
82445169652,0.20459,0.386047,0.150757,0.886719
82445190712,0.197083,0.396362,0.13562,0.886353
82445206517,0.18927,0.405518,0.121399,0.885925
82445229665,0.183228,0.411987,0.108765,0.885864
82445250729,0.17865,0.417786,0.0974731,0.885437
82445266528,0.174622,0.422729,0.0880127,0.884888
82445289659,0.170471,0.427307,0.0795288,0.884277
82445310708,0.16803,0.43103,0.0716553,0.883606
82445326498,0.167175,0.434265,0.0650024,0.88269
82445349753,0.16626,0.437012,0.0599365,0.881836
82445370740,0.164978,0.438721,0.0562744,0.881531
82445386564,0.164307,0.439575,0.0531006,0.881409
82445409686,0.165039,0.439575,0.050354,0.881409
82445430804,0.165588,0.438965,0.0490723,0.881714
82445446514,0.165588,0.437988,0.0484619,0.882202
82445469663,0.166077,0.436523,0.0484619,0.882812
82445490773,0.167114,0.434448,0.0491943,0.883606
82445506552,0.168945,0.431641,0.0508423,0.884583
82445529695,0.171204,0.428345,0.0533447,0.885559
82445550708,0.174133,0.424805,0.0570068,0.886475
82445566531,0.177612,0.420959,0.0618286,0.887329
82445589693,0.180908,0.416382,0.0682983,0.888306
82445610778,0.18396,0.411499,0.076355,0.889343
82445626549,0.1875,0.406799,0.0852661,0.889954
82445649733,0.192322,0.402588,0.0949097,0.889832
82445670763,0.199219,0.39801,0.105652,0.88916
82445686487,0.206482,0.393005,0.117554,0.888245
82445709019,0.213013,0.387878,0.130249,0.887207
82445730745,0.220703,0.382385,0.143311,0.885681
82445746515,0.230042,0.375854,0.157471,0.883667
82445769027,0.239868,0.367859,0.172729,0.881592
82445790703,0.249634,0.358582,0.188538,0.879456
82445806522,0.26001,0.348083,0.204956,0.877014
82445829060,0.270752,0.335327,0.222473,0.874451
82445850721,0.281555,0.320557,0.240662,0.871765
82445866588,0.29303,0.305054,0.25824,0.86853
82445889070,0.304443,0.289368,0.275696,0.864563
82445912205,0.31427,0.273376,0.293457,0.860413
82445926559,0.322754,0.256653,0.310303,0.856445
82445949026,0.330933,0.238708,0.32605,0.852722
82445972176,0.338074,0.219666,0.341797,0.848816
82445986541,0.344666,0.20105,0.356628,0.844666
82446015780,0.352478,0.183228,0.370361,0.8396
82446032207,0.360535,0.16394,0.384949,0.833618
82446046535,0.367188,0.1427,0.400208,0.827393
82446069038,0.373718,0.123108,0.414001,0.820801
82446092166,0.382935,0.106934,0.425964,0.812622
82446106488,0.391052,0.0921631,0.438049,0.804138
82446129060,0.3974,0.0767212,0.449219,0.796448
82446152191,0.403198,0.0629883,0.458313,0.78949
82446173241,0.412842,0.0547485,0.465088,0.781128
82446189017,0.422852,0.0488281,0.471802,0.772095
82446212172,0.429382,0.0408936,0.478882,0.764526
82446233210,0.432068,0.0307007,0.486267,0.758789
82446249084,0.436768,0.022522,0.492493,0.752441
82446272199,0.445923,0.0164185,0.49762,0.743774
82446293312,0.454529,0.00793457,0.50293,0.735046
82446309046,0.459778,-0.00427246,0.507996,0.728271
82446332182,0.465027,-0.0164795,0.512329,0.721741
82446353221,0.471436,-0.0265503,0.515869,0.714722
82446369015,0.476685,-0.0366821,0.518677,0.70874
82446392262,0.479248,-0.0446167,0.521057,0.704834
82446413241,0.48114,-0.0498047,0.522095,0.702393
82446429067,0.483398,-0.0534668,0.522095,0.700562
82446452213,0.485596,-0.0552979,0.523315,0.697937
82446473241,0.486511,-0.053894,0.525879,0.695496
82446489008,0.48468,-0.052002,0.528564,0.694885
82446512189,0.483093,-0.0508423,0.531799,0.693604
82446525142,0.483093,-0.0490112,0.535156,0.691162
82446548257,0.482666,-0.0463257,0.537903,0.689514
82446562644,0.481506,-0.043396,0.540039,0.688843
82446585134,0.479675,-0.0407715,0.542175,0.688599
82446608256,0.477661,-0.0385132,0.544312,0.688477
82446622612,0.476135,-0.0355225,0.545532,0.68866
82446653944,0.476074,-0.0310059,0.544922,0.689453
82446668308,0.475342,-0.0264893,0.542969,0.691711
82446682625,0.4729,-0.0232544,0.540466,0.695435
82446705098,0.470154,-0.0200195,0.536987,0.700073
82446728250,0.467407,-0.015686,0.532715,0.705261
82446742606,0.464355,-0.0102539,0.527344,0.711365
82446765128,0.461426,-0.00372314,0.520813,0.71814
82446788306,0.457947,0.00177002,0.514038,0.72522
82446802567,0.454285,0.00488281,0.507019,0.732422
82446825116,0.450378,0.00897217,0.499512,0.739929
82446848245,0.44574,0.0144653,0.490662,0.748535
82446862619,0.441406,0.0220337,0.480713,0.757263
82446885102,0.437256,0.0287476,0.470764,0.765686
82446908230,0.43158,0.0334473,0.46106,0.774536
82446922592,0.425598,0.0388184,0.450623,0.783691
82446945104,0.420044,0.0463257,0.439331,0.792664
82446968275,0.412598,0.0552368,0.427673,0.802307
82446982613,0.403259,0.0649414,0.415588,0.812622
82447005163,0.392822,0.0754395,0.402954,0.82312
82447028289,0.382141,0.0875244,0.389526,0.833313
82447042702,0.371094,0.101135,0.374756,0.843506
82447065141,0.359802,0.116516,0.359009,0.85321
82447088290,0.348389,0.133484,0.343445,0.861816
82447110786,0.33606,0.151672,0.328247,0.869629
82447125161,0.324158,0.170532,0.312439,0.876465
82447148302,0.314331,0.188599,0.295898,0.882019
82447162629,0.304443,0.205811,0.27948,0.886963
82447185133,0.29303,0.22113,0.263489,0.892029
82447208291,0.280701,0.234863,0.248352,0.896851
82447222637,0.269714,0.247803,0.233337,0.900696
82447245092,0.260132,0.259521,0.218811,0.90387
82447268236,0.250305,0.270203,0.205078,0.906738
82447284089,0.23999,0.280334,0.191589,0.909424
82447305096,0.230164,0.290161,0.178223,0.91156
82447328289,0.222412,0.298523,0.166016,0.913086
82447342644,0.215088,0.306458,0.154602,0.914246
82447365121,0.207764,0.314026,0.143738,0.9151
82447388249,0.201904,0.32135,0.133362,0.915466
82447402655,0.196655,0.327942,0.123291,0.91571
82447425084,0.192444,0.334045,0.113708,0.915588
82447448281,0.189026,0.339478,0.105042,0.915405
82447462690,0.185974,0.343872,0.0976562,0.915161
82447485120,0.182983,0.347595,0.0914917,0.914978
82447508287,0.180237,0.35022,0.0865479,0.915039
82447522680,0.178345,0.351929,0.0827026,0.9151
82447545205,0.177673,0.353149,0.0796509,0.915039
82447568272,0.178345,0.353943,0.0775146,0.914795
82447582573,0.179504,0.354004,0.0770874,0.914551
82447605084,0.180603,0.353088,0.0784302,0.914612
82447628248,0.182739,0.351135,0.0811157,0.914673
82447642595,0.186279,0.348206,0.0849609,0.914734
82447665138,0.191406,0.344543,0.0900269,0.914612
82447688245,0.196655,0.340027,0.0964355,0.91449
82447702576,0.202148,0.335083,0.10376,0.914307
82447725143,0.20874,0.329712,0.111633,0.913879
82447747632,0.216492,0.322937,0.120422,0.913391
82447762607,0.224854,0.314819,0.130371,0.912842
82447785104,0.233276,0.305237,0.141602,0.912292
82447807654,0.241882,0.295044,0.15448,0.911316
82447822594,0.250061,0.283936,0.168762,0.910095
82447845106,0.256897,0.271729,0.184082,0.908936
82447867588,0.263916,0.257446,0.200378,0.907654
82447885530,0.272766,0.243347,0.217468,0.904968
82447905116,0.283569,0.229492,0.234924,0.900879
82447927677,0.294006,0.214661,0.253479,0.896179
82447942644,0.304382,0.197815,0.272095,0.891113
82447965158,0.315979,0.179688,0.290894,0.884949
82447987585,0.328552,0.162964,0.309875,0.877136
82448002603,0.339783,0.148987,0.329773,0.868042
82448025167,0.349487,0.135315,0.350647,0.858154
82448047669,0.357727,0.119751,0.370544,0.848694
82448062660,0.366333,0.105164,0.387695,0.839233
82448085174,0.377075,0.0940552,0.40332,0.828369
82448107618,0.387878,0.086731,0.418945,0.816345
82448122619,0.395569,0.0802612,0.434387,0.805176
82448145155,0.399719,0.0726318,0.448975,0.795776
82448167627,0.404358,0.0651245,0.461853,0.786621
82448182680,0.41333,0.060791,0.473206,0.775513
82448205102,0.424255,0.0587769,0.483276,0.763489
82448227603,0.432129,0.0565796,0.49231,0.753357
82448242704,0.435974,0.0534058,0.500549,0.745911
82448265167,0.437439,0.0497437,0.508362,0.740051
82448287657,0.439453,0.0466309,0.515625,0.734009
82448302705,0.440857,0.0424194,0.522827,0.728271
82448325107,0.442078,0.0361938,0.529968,0.722717
82448347666,0.443176,0.0282593,0.537781,0.716614
82448362617,0.44635,0.0219116,0.544617,0.709656
82448393397,0.451111,0.0178833,0.55072,0.701965
82448407626,0.453735,0.0144653,0.556946,0.695435
82448422643,0.453247,0.0101929,0.563293,0.690674
82448445124,0.453247,0.0065918,0.569214,0.685852
82448467713,0.455444,0.00524902,0.573975,0.68042
82448482651,0.456909,0.00579834,0.578125,0.675964
82448505147,0.455322,0.00671387,0.581787,0.673828
82448527670,0.453369,0.00915527,0.584961,0.672363
82448544087,0.452637,0.0140381,0.587646,0.670471
82448565162,0.451538,0.0212402,0.589966,0.668945
82448587616,0.448303,0.029541,0.592285,0.668823
82448604110,0.44397,0.0368042,0.593933,0.669861
82448625093,0.440491,0.0437012,0.594421,0.671265
82448647645,0.437317,0.0505371,0.593872,0.673401
82448672298,0.434631,0.0568237,0.591553,0.676636
82448685121,0.432434,0.0615234,0.588684,0.680115
82448707632,0.428955,0.0645142,0.58551,0.684753
82448724087,0.424927,0.0665894,0.581238,0.690735
82448753276,0.421936,0.0690308,0.575317,0.697266
82448767625,0.421631,0.0721436,0.568054,0.703003
82448784092,0.419556,0.0742188,0.561096,0.709656
82448805135,0.414124,0.0755005,0.553711,0.718445
82448827647,0.408691,0.0786743,0.545105,0.727722
82448850171,0.405518,0.0838623,0.534973,0.736328
82448865163,0.401855,0.0891113,0.524658,0.745117
82448887675,0.395386,0.0932617,0.514587,0.755005
82448910165,0.388062,0.0986938,0.503967,0.765198
82448925119,0.382996,0.106445,0.492188,0.774353
82448947691,0.376953,0.114197,0.480042,0.783752
82448964107,0.368774,0.121033,0.467896,0.793945
82448985179,0.359253,0.128296,0.455261,0.804443
82449007664,0.349976,0.137207,0.441895,0.814453
82449030271,0.340698,0.148132,0.428101,0.823792
82449045146,0.329651,0.159973,0.41394,0.833252
82449067649,0.317627,0.172668,0.398804,0.842712
82449084125,0.308044,0.187439,0.382935,0.850464
82449105174,0.300537,0.203186,0.367371,0.856323
82449127666,0.291809,0.217712,0.352783,0.861877
82449144139,0.281555,0.230896,0.338562,0.867615
82449165233,0.271545,0.244263,0.324036,0.87262
82449187704,0.261841,0.257568,0.309448,0.877075
82449204151,0.25177,0.269714,0.295471,0.881165
82449225184,0.24115,0.280823,0.282471,0.884888
82449247703,0.231567,0.291077,0.269836,0.888123
82449264090,0.224243,0.298828,0.258423,0.890808
82449285214,0.217834,0.30603,0.247253,0.893127
82449307672,0.211426,0.313049,0.235779,0.895325
82449324100,0.204529,0.32019,0.224304,0.897339
82449345192,0.197205,0.327881,0.212891,0.898987
82449367683,0.19043,0.335876,0.20166,0.900085
82449384125,0.184753,0.343933,0.190857,0.900574
82449405147,0.179382,0.351196,0.180969,0.90094
82449427657,0.174072,0.357544,0.171875,0.901245
82449444112,0.169617,0.363586,0.163025,0.901306
82449468077,0.166504,0.368958,0.154724,0.901184
82449487679,0.164368,0.37323,0.147827,0.901001
82449504109,0.161987,0.376221,0.14209,0.901062
82449526611,0.159424,0.37793,0.137268,0.90155
82449547660,0.157043,0.378906,0.133179,0.902161
82449564148,0.155273,0.378906,0.130066,0.902954
82449586662,0.153992,0.378113,0.127869,0.903809
82449607680,0.153137,0.376587,0.126587,0.904785
82449625574,0.153076,0.374695,0.125671,0.905701
82449646596,0.154236,0.372498,0.125488,0.906433
82449667626,0.155823,0.369995,0.126221,0.907104
82449684095,0.15741,0.367371,0.127747,0.907654
82449706590,0.159424,0.364624,0.129944,0.908081
82449727609,0.16272,0.361877,0.132751,0.908203
82449745536,0.167175,0.358459,0.136353,0.908203
82449766619,0.171814,0.354065,0.141052,0.908386
82449787658,0.176941,0.348022,0.146362,0.908875
82449804117,0.184021,0.340942,0.152161,0.90918
82449826620,0.192993,0.332458,0.159302,0.909241
82449847682,0.202271,0.322266,0.168396,0.909302
82449864115,0.211548,0.310425,0.179016,0.909241
82449886642,0.221436,0.297485,0.190735,0.908813
82449907661,0.232605,0.284119,0.203125,0.907654
82449924137,0.244751,0.269958,0.216309,0.905762
82449946666,0.256592,0.255493,0.230469,0.903137
82449967667,0.268616,0.241638,0.245117,0.899597
82449984143,0.280701,0.227844,0.260437,0.895203
82450006605,0.292603,0.212891,0.276672,0.890198
82450027652,0.305115,0.196899,0.292725,0.884521
82450044115,0.318909,0.181946,0.307434,0.877808
82450066606,0.331421,0.169006,0.320801,0.870972
82450087714,0.341309,0.156738,0.333862,0.864502
82450104116,0.349304,0.144104,0.346436,0.858582
82450126623,0.358032,0.130249,0.357849,0.852478
82450147676,0.366272,0.116211,0.369263,0.84613
82450164099,0.374146,0.102722,0.380371,0.839478
82450186720,0.380676,0.0899658,0.391235,0.833008
82450207722,0.387024,0.0774536,0.401245,0.826477
82450224149,0.392944,0.0637817,0.41156,0.819763
82450248074,0.397888,0.0482178,0.421936,0.813171
82450267645,0.403809,0.0322266,0.430664,0.806458
82450284126,0.41156,0.0178223,0.438049,0.79895
82450306624,0.419373,0.00408936,0.445129,0.791138
82450327698,0.4245,-0.00958252,0.452087,0.784363
82450344112,0.428772,-0.0217896,0.458191,0.778198
82450365775,0.434082,-0.0331421,0.464478,0.771118
82450388306,0.441101,-0.0446777,0.47113,0.762512
82450410926,0.447937,-0.0559082,0.47821,0.753296
82450425857,0.45343,-0.0652466,0.484741,0.744995
82450448354,0.458984,-0.0709839,0.490662,0.737183
82450463320,0.463196,-0.074646,0.497437,0.729614
82450485921,0.464172,-0.0782471,0.505554,0.723022
82450508403,0.463928,-0.0811768,0.514282,0.716675
82450523423,0.466675,-0.0820923,0.521973,0.709167
82450545936,0.471985,-0.0820923,0.528748,0.700623
82450568119,0.476746,-0.0835571,0.534668,0.692627
82450583412,0.478699,-0.0884399,0.540466,0.686157
82450605893,0.479553,-0.0938721,0.545654,0.680725
82450628347,0.482361,-0.0963135,0.550049,0.674866
82450644792,0.484924,-0.0963745,0.553772,0.669861
82450665892,0.486145,-0.0961304,0.55658,0.666748
82450688312,0.486389,-0.0953979,0.558716,0.664917
82450704814,0.488037,-0.0927124,0.559326,0.663513
82450725901,0.489685,-0.0889893,0.558899,0.663147
82450748343,0.489441,-0.0863647,0.5578,0.664612
82450764796,0.488525,-0.0848389,0.555542,0.667358
82450785854,0.488708,-0.0825195,0.551941,0.670532
82450808333,0.488464,-0.0799561,0.547546,0.674622
82450824777,0.487854,-0.0775757,0.542786,0.679199
82450845898,0.486145,-0.0742188,0.536865,0.685425
82450868348,0.483032,-0.0686035,0.529846,0.693665
82450884827,0.479675,-0.0611572,0.521606,0.70282
82450905910,0.475403,-0.0534668,0.512695,0.712891
82450928346,0.469116,-0.0459595,0.504089,0.723633
82450944802,0.460205,-0.0388184,0.495972,0.735229
82450965973,0.450256,-0.0314941,0.487793,0.747131
82450988382,0.440186,-0.0236206,0.479736,0.758606
82451005740,0.430054,-0.0153198,0.471863,0.769409
82451025894,0.418518,-0.00708008,0.464539,0.780273
82451055832,0.405945,0.00146484,0.457642,0.791016
82451064817,0.395203,0.0109863,0.449951,0.80072
82451085815,0.385193,0.0211792,0.441772,0.809875
82451108330,0.373596,0.0315552,0.433228,0.819519
82451132316,0.361877,0.0438232,0.424255,0.828857
82451145855,0.35022,0.0584106,0.414001,0.838135
82451168363,0.33783,0.0739136,0.403442,0.847107
82451184809,0.323669,0.0897217,0.392944,0.855957
82451207288,0.309509,0.106567,0.381714,0.864319
82451228385,0.297119,0.125,0.369446,0.871521
82451244808,0.286438,0.144348,0.35675,0.87738
82451265851,0.277283,0.163391,0.343506,0.882202
82451288390,0.270142,0.181641,0.328979,0.886414
82451312310,0.263672,0.198853,0.313599,0.890198
82451325846,0.254944,0.21344,0.298889,0.894409
82451348392,0.245178,0.226318,0.284119,0.898804
82451364150,0.235962,0.238953,0.268921,0.902649
82451385900,0.226318,0.251831,0.253845,0.906006
82451408371,0.216797,0.264709,0.238953,0.908691
82451424159,0.208679,0.277771,0.224487,0.9104
82451445907,0.201721,0.290405,0.210205,0.911438
82451468413,0.195801,0.301453,0.197449,0.911987
82451484164,0.189758,0.312134,0.185303,0.912231
82451505959,0.184143,0.322571,0.173706,0.911987
82451528384,0.179382,0.332458,0.163025,0.911377
82451544169,0.174805,0.341919,0.153442,0.910461
82451567340,0.169739,0.35022,0.144958,0.909668
82451588338,0.164551,0.3573,0.137146,0.909058
82451604103,0.160156,0.363525,0.129578,0.908447
82451627364,0.15741,0.368958,0.122559,0.907715
82451648409,0.155029,0.37384,0.116943,0.90686
82451664162,0.152405,0.377747,0.112671,0.90625
82451687308,0.150146,0.380676,0.109192,0.905823
82451708395,0.148499,0.382751,0.106201,0.905579
82451724197,0.147156,0.383911,0.103943,0.905579
82451747340,0.146729,0.384155,0.102539,0.905701
82451768460,0.147156,0.383179,0.101929,0.906128
82451784150,0.148499,0.381104,0.102051,0.906738
82451807295,0.150452,0.378235,0.102844,0.907532
82451828378,0.152588,0.374756,0.104614,0.908447
82451844140,0.154907,0.37085,0.107239,0.909363
82451867324,0.157715,0.366821,0.110596,0.910095
82451888340,0.161377,0.362549,0.114624,0.910645
82451904156,0.166382,0.357605,0.119263,0.911133
82451927326,0.172546,0.352051,0.124695,0.911377
82451948348,0.179077,0.345886,0.131104,0.911621
82451964138,0.185059,0.339111,0.138733,0.911804
82451987301,0.190979,0.331421,0.147461,0.912048
82452008408,0.198059,0.322571,0.156677,0.91217
82452024207,0.206116,0.312439,0.166077,0.912231
82452047334,0.214722,0.301208,0.176392,0.912109
82452068413,0.223511,0.289185,0.187805,0.911621
82452084175,0.232788,0.276428,0.200256,0.910645
82452107350,0.241394,0.262512,0.213623,0.909485
82452128396,0.249634,0.248901,0.227051,0.907776
82452144178,0.258606,0.235229,0.240662,0.905396
82452167361,0.268494,0.220825,0.254822,0.902283
82452188427,0.278442,0.2052,0.269409,0.898682
82452204179,0.287842,0.189087,0.283875,0.894836
82452227306,0.296753,0.173279,0.297546,0.890625
82452248345,0.305359,0.158203,0.310364,0.886169
82452264116,0.313416,0.143188,0.322876,0.881409
82452287330,0.320618,0.12793,0.334839,0.876709
82452308357,0.328491,0.112915,0.346069,0.87146
82452324135,0.337036,0.098999,0.356873,0.86554
82452346654,0.344971,0.0856323,0.367737,0.859253
82452368366,0.3526,0.0724487,0.378296,0.852783
82452384150,0.359192,0.0588989,0.388733,0.846313
82452406644,0.366089,0.0464478,0.398499,0.8396
82452428379,0.374023,0.0356445,0.407715,0.832153
82452444160,0.381409,0.0249634,0.417053,0.824524
82452466661,0.386963,0.0131836,0.425964,0.817627
82452488370,0.391785,0.00201416,0.433655,0.81134
82452504173,0.398926,-0.00762939,0.440796,0.804016
82452526656,0.406677,-0.0162964,0.448425,0.795715
82452549944,0.411743,-0.024292,0.456421,0.78833
82452564222,0.416809,-0.02771,0.462769,0.781799
82452594825,0.423096,-0.0266113,0.468445,0.775085
82452609819,0.428101,-0.0232544,0.474609,0.768677
82452624212,0.43103,-0.0195312,0.481628,0.762756
82452646708,0.432434,-0.0166626,0.489258,0.757141
82452669833,0.434082,-0.0142212,0.496521,0.751465
82452684198,0.437927,-0.0124512,0.502075,0.745544
82452706668,0.440491,-0.0133057,0.507507,0.740356
82452729824,0.440063,-0.0170898,0.513367,0.73645
82452744117,0.438843,-0.0232544,0.519287,0.73291
82452766705,0.439331,-0.0292969,0.524353,0.72876
82452795978,0.4422,-0.0341187,0.528442,0.723877
82452810996,0.445496,-0.0372314,0.532043,0.718994
82452826685,0.447327,-0.0397339,0.535767,0.714966
82452849836,0.44696,-0.0422974,0.539246,0.712402
82452870881,0.446228,-0.0432739,0.541992,0.710693
82452886662,0.448364,-0.0401001,0.543274,0.708618
82452909820,0.449768,-0.034729,0.54425,0.707275
82452930847,0.447205,-0.0303955,0.544556,0.708801
82452946702,0.444214,-0.0255127,0.543823,0.711487
82452969927,0.443726,-0.019043,0.541626,0.713623
82452990906,0.443298,-0.0129395,0.538269,0.716553
82453006676,0.440796,-0.00872803,0.534119,0.721313
82453029812,0.437683,-0.00543213,0.529236,0.726807
82453052365,0.435791,-0.00134277,0.523438,0.732117
82453066695,0.433228,0.00274658,0.517334,0.737976
82453089868,0.42804,0.00762939,0.511536,0.744934
82453110903,0.421448,0.0133667,0.506287,0.752197
82453126697,0.413452,0.0194702,0.502014,0.759277
82453149939,0.405518,0.0264282,0.497986,0.765991
82453170974,0.399048,0.0346069,0.493469,0.771973
82453186678,0.393066,0.0430908,0.488708,0.777649
82453209839,0.386169,0.0512085,0.483826,0.78363
82453230908,0.379211,0.0592041,0.478577,0.789612
82453246647,0.372864,0.0675049,0.4729,0.79541
82453269213,0.366699,0.0759888,0.466797,0.801086
82453290914,0.360046,0.0837402,0.460449,0.807007
82453306675,0.353882,0.092041,0.453247,0.812866
82453329211,0.348999,0.101501,0.445007,0.818359
82453352380,0.343811,0.11084,0.436157,0.824097
82453366664,0.336426,0.119446,0.426941,0.83075
82453389166,0.328064,0.128296,0.416931,0.83783
82453410945,0.320862,0.138428,0.405762,0.844482
82453426664,0.312561,0.150146,0.393738,0.851257
82453449195,0.303162,0.162109,0.381348,0.858032
82453472329,0.293762,0.174438,0.368408,0.864563
82453486640,0.284912,0.187012,0.355347,0.870361
82453509198,0.276245,0.199524,0.342468,0.875488
82453532348,0.268066,0.21167,0.329712,0.880066
82453546665,0.260376,0.22345,0.316772,0.884216
82453569175,0.25354,0.235107,0.303589,0.887817
82453592323,0.248169,0.245789,0.290833,0.890686
82453606646,0.242188,0.254883,0.279297,0.893494
82453629138,0.235962,0.262939,0.268433,0.896118
82453652377,0.230591,0.270569,0.257874,0.898376
82453666721,0.226257,0.277344,0.247803,0.900208
82453689183,0.221741,0.282959,0.238953,0.901978
82453712327,0.217712,0.287231,0.231323,0.903625
82453733367,0.214966,0.290588,0.224854,0.904846
82453749150,0.212341,0.293579,0.219421,0.905823
82453772374,0.208923,0.295105,0.215515,0.907043
82453793422,0.20636,0.295532,0.212158,0.908264
82453809196,0.204834,0.295349,0.209534,0.909302
82453832342,0.204468,0.2948,0.207581,0.909973
82453853386,0.204163,0.293274,0.206726,0.910767
82453869168,0.203857,0.290649,0.206787,0.911682
82453892325,0.204163,0.287659,0.206848,0.912537
82453906693,0.205078,0.284485,0.207214,0.913208
82453929206,0.20575,0.281433,0.207886,0.913879
82453952372,0.205933,0.278503,0.208923,0.91449
82453973403,0.206787,0.275452,0.210083,0.914978
82453989173,0.208557,0.273132,0.21106,0.915039
82454012317,0.210571,0.271362,0.211853,0.914917
82454033402,0.212585,0.26947,0.212891,0.914734
82454049197,0.214478,0.267761,0.214233,0.91449
82454072348,0.216553,0.266052,0.215515,0.914185
82454093397,0.218689,0.264221,0.216919,0.913879
82454109167,0.221191,0.261963,0.218384,0.913574
82454132338,0.224487,0.259094,0.219788,0.913269
82454153438,0.22821,0.255676,0.221497,0.912903
82454169221,0.232849,0.25177,0.223389,0.912354
82454191702,0.238281,0.246765,0.225708,0.911743
82454213414,0.243713,0.240784,0.228455,0.911255
82454228423,0.249512,0.233521,0.231201,0.910828
82454242767,0.25647,0.225098,0.234009,0.910339
82454274066,0.264404,0.214783,0.237366,0.909668
82454288413,0.272766,0.202148,0.241577,0.908997
82454302767,0.282593,0.189087,0.245728,0.907715
82454325282,0.293823,0.174866,0.250122,0.905762
82454348454,0.304565,0.159485,0.255554,0.903564
82454362764,0.314819,0.142639,0.262207,0.90094
82454385206,0.325562,0.126221,0.269592,0.8974
82454408453,0.337524,0.111511,0.277283,0.892578
82454422704,0.349365,0.097229,0.285767,0.886963
82454445242,0.360718,0.0819092,0.295532,0.880737
82454468391,0.371277,0.0672607,0.307434,0.873474
82454490873,0.381409,0.0545654,0.32019,0.865417
82454505211,0.390442,0.0428467,0.33374,0.856873
82454528376,0.39917,0.0309448,0.348022,0.847656
82454542754,0.409424,0.0169678,0.362793,0.836914
82454565227,0.420288,0.00250244,0.378174,0.824768
82454588391,0.432312,-0.010376,0.392578,0.811646
82454602728,0.443176,-0.0224609,0.406616,0.798523
82454625256,0.452026,-0.0354614,0.420715,0.785706
82454648421,0.458618,-0.048584,0.434875,0.773376
82454662769,0.464417,-0.0584717,0.447998,0.761658
82454685266,0.470276,-0.0646973,0.460876,0.749756
82454708412,0.474121,-0.0702515,0.473938,0.738586
82454722747,0.477234,-0.0773926,0.486572,0.7276
82454745270,0.482117,-0.0861206,0.497986,0.715576
82454768424,0.48877,-0.0947266,0.508606,0.702393
82454782702,0.49469,-0.103577,0.518616,0.689575
82454805263,0.498657,-0.112366,0.527405,0.678589
82454828391,0.499512,-0.122803,0.535889,0.669434
82454842726,0.498901,-0.132385,0.544006,0.661499
82454865226,0.500122,-0.137756,0.552185,0.652649
82454888391,0.498962,-0.141296,0.561157,0.64502
82454902735,0.493713,-0.146545,0.570068,0.640076
82454925257,0.487732,-0.153076,0.578125,0.635925
82454948405,0.485291,-0.156433,0.585144,0.630493
82454962749,0.484375,-0.157654,0.591309,0.625122
82454985251,0.479553,-0.160461,0.597412,0.622314
82455008436,0.472412,-0.163574,0.603271,0.621277
82455022774,0.469055,-0.163879,0.60791,0.619263
82455045255,0.469299,-0.16156,0.610779,0.616821
82455068435,0.469238,-0.159607,0.612793,0.615417
82455082726,0.467346,-0.158813,0.614563,0.615295
82455105224,0.466736,-0.156738,0.615479,0.615356
82455128375,0.468506,-0.153687,0.61499,0.615234
82455142724,0.470947,-0.151184,0.612915,0.61615
82455165248,0.472961,-0.150024,0.610046,0.617676
82455188447,0.475281,-0.149109,0.606812,0.619385
82455202789,0.47821,-0.147034,0.6026,0.621704
82455225306,0.481079,-0.144836,0.59729,0.625122
82455256587,0.482483,-0.143066,0.591431,0.630005
82455262781,0.482605,-0.141113,0.585083,0.63623
82455285258,0.483032,-0.138062,0.577881,0.643066
82455308465,0.482605,-0.134766,0.570068,0.651062
82455322802,0.48053,-0.131409,0.561401,0.660706
82455345266,0.477783,-0.12738,0.552307,0.671082
82455367833,0.474304,-0.122681,0.543579,0.681458
82455382766,0.468384,-0.11615,0.535339,0.693115
82455405331,0.460876,-0.106995,0.52655,0.706238
82455427747,0.454407,-0.0963745,0.516846,0.719055
82455442754,0.447998,-0.085083,0.507141,0.731323
82455465300,0.438965,-0.0745239,0.49762,0.744385
82455487807,0.427917,-0.0635986,0.487366,0.758423
82455502830,0.417297,-0.0515137,0.476135,0.772278
82455525325,0.406982,-0.0388794,0.464233,0.785645
82455547769,0.394531,-0.026123,0.452271,0.799377
82455570973,0.380798,-0.0124512,0.440125,0.813049
82455585271,0.367737,0.00323486,0.427246,0.825928
82455607805,0.355408,0.0206909,0.413818,0.83783
82455622805,0.341797,0.0390625,0.400024,0.849426
82455645309,0.327881,0.0581055,0.385559,0.860413
82455667839,0.31543,0.0777588,0.3703,0.870178
82455682834,0.303467,0.0976562,0.354736,0.878906
82455713446,0.290588,0.117188,0.339478,0.886841
82455727756,0.277893,0.136108,0.323914,0.893982
82455742800,0.266479,0.154114,0.308044,0.900146
82455765287,0.255737,0.170593,0.292969,0.905334
82455787752,0.246033,0.185974,0.278442,0.909546
82455802782,0.236633,0.200623,0.264465,0.913086
82455825311,0.2276,0.21405,0.250977,0.916138
82455849238,0.220276,0.224487,0.239014,0.91864
82455862817,0.21405,0.233154,0.228271,0.920654
82455885272,0.209045,0.241028,0.218445,0.92218
82455907777,0.204529,0.248047,0.209839,0.92334
82455922761,0.200195,0.254333,0.202637,0.924133
82455945305,0.196594,0.259888,0.196594,0.924683
82455967792,0.193604,0.264526,0.191223,0.92511
82455982719,0.191528,0.268005,0.186523,0.925537
82456005272,0.190918,0.271057,0.182434,0.925598
82456027769,0.191101,0.273376,0.179504,0.925415
82456042800,0.190979,0.274597,0.177795,0.925415
82456065311,0.190247,0.274719,0.17688,0.92572
82456087801,0.190125,0.273926,0.176147,0.926147
82456104234,0.191101,0.272705,0.175537,0.926392
82456125289,0.192749,0.271118,0.175598,0.926514
82456147821,0.194153,0.268921,0.176514,0.926697
82456164265,0.195251,0.266174,0.177979,0.926941
82456185322,0.197021,0.26355,0.179504,0.927063
82456207834,0.199829,0.260925,0.181274,0.926819
82456224235,0.202637,0.258179,0.183777,0.926514
82456245280,0.205688,0.255493,0.186829,0.925964
82456267802,0.209534,0.252747,0.190369,0.925171
82456284280,0.213928,0.249634,0.194397,0.924133
82456305309,0.219299,0.245911,0.199036,0.922913
82456327823,0.225952,0.241577,0.204834,0.921143
82456344298,0.233276,0.237305,0.211426,0.918945
82456365295,0.239929,0.232727,0.21875,0.916687
82456387892,0.246948,0.227478,0.226868,0.914185
82456404240,0.255249,0.221436,0.235779,0.911133
82456425291,0.263916,0.214355,0.24585,0.907654
82456447771,0.272705,0.206299,0.256592,0.903992
82456464256,0.281982,0.19751,0.267761,0.899841
82456485314,0.291626,0.187866,0.27948,0.895203
82456507799,0.301147,0.176575,0.291626,0.890503
82456524257,0.309326,0.164001,0.304138,0.885864
82456545394,0.318604,0.151001,0.316223,0.880676
82456567824,0.328064,0.138245,0.328613,0.874756
82456584306,0.337097,0.125183,0.341003,0.86853
82456605306,0.346375,0.112244,0.35376,0.861511
82456627895,0.356384,0.101257,0.366943,0.85321
82456644273,0.367188,0.0939331,0.38031,0.843567
82456668250,0.376831,0.0889893,0.39447,0.833313
82456687816,0.384399,0.0840454,0.409912,0.822815
82456704284,0.391907,0.0775757,0.426636,0.81134
82456725320,0.400635,0.0706177,0.443298,0.798706
82456747840,0.410461,0.0632324,0.459412,0.785095
82456764300,0.419617,0.0537109,0.475525,0.77124
82456785380,0.426636,0.0415649,0.491821,0.757812
82456807874,0.431213,0.02771,0.507629,0.7453
82456824276,0.435852,0.013855,0.521545,0.733276
82456845340,0.441406,0,0.533997,0.721069
82456867822,0.445862,-0.0130615,0.546448,0.70874
82456884260,0.448547,-0.0246582,0.558594,0.697205
82456905310,0.451233,-0.0338135,0.569153,0.686462
82456927828,0.45575,-0.0387573,0.577881,0.675842
82456945717,0.459229,-0.0440063,0.586487,0.665649
82456965334,0.460022,-0.0507202,0.59491,0.657166
82456995976,0.461914,-0.0563965,0.602112,0.648682
82457004333,0.466003,-0.0610352,0.608276,0.639526
82457025414,0.46936,-0.0675659,0.613708,0.631165
82457047863,0.470581,-0.0751343,0.619568,0.623657
82457064241,0.471436,-0.0802612,0.625061,0.616821
82457086740,0.474548,-0.0822754,0.628723,0.610474
82457107808,0.477844,-0.0827026,0.63092,0.60553
82457124281,0.479431,-0.0834961,0.632507,0.602539
82457146760,0.480042,-0.0835571,0.634277,0.600159
82457167809,0.48175,-0.0809937,0.635742,0.597595
82457184294,0.483154,-0.0778809,0.636963,0.595581
82457206775,0.482239,-0.0767822,0.637573,0.595764
82457227816,0.481323,-0.076416,0.638,0.59613
82457244280,0.481995,-0.074585,0.638306,0.59552
82457266790,0.482544,-0.0728149,0.637573,0.596008
82457287827,0.483093,-0.0719604,0.636353,0.596985
82457304305,0.48291,-0.0714722,0.634888,0.598694
82457326772,0.482666,-0.0708618,0.632812,0.601196
82457347839,0.483643,-0.0686646,0.629944,0.603699
82457364312,0.484741,-0.0661621,0.625977,0.607178
82457386762,0.48407,-0.0653687,0.621521,0.612366
82457407819,0.483093,-0.0650024,0.616394,0.618347
82457424295,0.483154,-0.0637207,0.610352,0.62439
82457454300,0.48291,-0.0632324,0.603027,0.631714
82457467859,0.481628,-0.0646362,0.594971,0.640137
82457484286,0.479431,-0.0665283,0.586914,0.648987
82457506771,0.476318,-0.0674438,0.578674,0.658508
82457527876,0.473267,-0.0670166,0.569946,0.668274
82457544326,0.469849,-0.0656128,0.561218,0.678162
82457566856,0.465576,-0.0634155,0.552429,0.688416
82457587847,0.460205,-0.0603027,0.543274,0.699585
82457604365,0.455261,-0.055542,0.533325,0.710693
82457634292,0.450562,-0.0501099,0.523071,0.721619
82457647855,0.44342,-0.0462036,0.512817,0.733582
82457664366,0.435486,-0.0423584,0.502136,0.74585
82457686799,0.43042,-0.0372925,0.490356,0.756836
82457707833,0.426758,-0.0330811,0.478027,0.766907
82457724311,0.4198,-0.0321045,0.465515,0.778381
82457746788,0.411499,-0.0310669,0.452759,0.790344
82457767817,0.405518,-0.0288086,0.439148,0.801147
82457784296,0.398193,-0.0272217,0.425598,0.812073
82457806790,0.388062,-0.0264282,0.412781,0.823547
82457827871,0.378906,-0.0238647,0.400269,0.833984
82457844300,0.370544,-0.0165405,0.38739,0.843933
82457866782,0.360657,-0.00683594,0.374512,0.854126
82457887801,0.350403,0.00531006,0.361267,0.864075
82457911813,0.341431,0.0199585,0.347534,0.872986
82457926772,0.332397,0.0358887,0.333679,0.881348
82457947901,0.322083,0.052063,0.320007,0.889404
82457964254,0.311768,0.0684814,0.306091,0.896851
82457986756,0.302795,0.0856934,0.292053,0.903076
82458009318,0.293579,0.1026,0.278503,0.90863
82458022833,0.283325,0.118408,0.265564,0.913818
82458046021,0.273987,0.133789,0.253052,0.918091
82458068489,0.267334,0.148621,0.241943,0.920776
82458082920,0.262756,0.165161,0.231567,0.921936
82458106003,0.258118,0.181458,0.222412,0.922424
82458128498,0.252625,0.194885,0.214844,0.922974
82458142828,0.248962,0.206238,0.208313,0.923035
82458166018,0.248657,0.21759,0.202087,0.921875
82458188534,0.24884,0.227539,0.197205,0.920471
82458204295,0.247192,0.234619,0.194824,0.919678
82458227438,0.246033,0.240051,0.193726,0.918823
82458248479,0.246521,0.24408,0.192932,0.917786
82458264350,0.247131,0.246399,0.192444,0.917114
82458286001,0.248108,0.247314,0.192505,0.916565
82458308639,0.249939,0.247192,0.193176,0.915955
82458324337,0.251404,0.246277,0.194641,0.915527
82458346065,0.25177,0.244141,0.196777,0.915527
82458368526,0.252502,0.241394,0.198792,0.915588
82458391001,0.254761,0.238403,0.200684,0.915344
82458406032,0.25708,0.235291,0.202759,0.915039
82458429932,0.258789,0.231506,0.205383,0.914978
82458444292,0.260498,0.227295,0.208313,0.914856
82458465997,0.262939,0.222656,0.211304,0.914612
82458488470,0.265625,0.218323,0.214294,0.914185
82458504303,0.26825,0.213989,0.217285,0.913757
82458526018,0.271179,0.208984,0.220276,0.91333
82458548519,0.274536,0.203308,0.22406,0.912659
82458564327,0.278381,0.19696,0.228394,0.911865
82458585968,0.282654,0.190918,0.233154,0.910583
82458608563,0.286987,0.185303,0.238525,0.908997
82458624326,0.290833,0.179749,0.244812,0.907227
82458645998,0.294861,0.174255,0.251343,0.905212
82458668556,0.300476,0.169067,0.258362,0.902344
82458684323,0.306702,0.163208,0.266296,0.899048
82458705992,0.312805,0.155762,0.275146,0.895569
82458728533,0.318481,0.147888,0.284546,0.891968
82458744321,0.324707,0.140015,0.293945,0.887939
82458766081,0.331238,0.131287,0.303955,0.883484
82458788583,0.337463,0.121399,0.31427,0.878906
82458804328,0.344421,0.111328,0.324463,0.87384
82458826091,0.35199,0.101501,0.334534,0.868225
82458848510,0.359375,0.0913086,0.34491,0.862244
82458864342,0.366394,0.0805054,0.35553,0.856018
82458886026,0.373413,0.069397,0.366028,0.849487
82458908486,0.380005,0.0574341,0.376343,0.842957
82458924322,0.385315,0.0443115,0.386963,0.836487
82458946015,0.390869,0.031311,0.397278,0.829651
82458968509,0.397522,0.0196533,0.407349,0.821899
82458984289,0.403015,0.00830078,0.417542,0.81427
82459006021,0.406311,-0.0045166,0.428101,0.807129
82459028505,0.411072,-0.0164185,0.438416,0.799011
82459044339,0.418457,-0.0253906,0.448364,0.789368
82459066025,0.424805,-0.03302,0.458374,0.779907
82459088536,0.42804,-0.0426025,0.468201,0.77179
82459104335,0.43042,-0.0535278,0.477417,0.764099
82459127512,0.434814,-0.0639648,0.485779,0.755493
82459148543,0.439392,-0.0737305,0.493225,0.74707
82459164327,0.442322,-0.0839844,0.499939,0.739807
82459187475,0.444092,-0.0956421,0.506042,0.733093
82459208500,0.445557,-0.108093,0.512085,0.726257
82459231090,0.447937,-0.119202,0.517883,0.718933
82459247481,0.452148,-0.128418,0.523621,0.71051
82459268537,0.456604,-0.13678,0.530273,0.701111
82459284312,0.458984,-0.144897,0.538025,0.691956
82459307454,0.460205,-0.153259,0.545654,0.683289
82459328558,0.464233,-0.160034,0.552795,0.673218
82459344342,0.470276,-0.16449,0.560364,0.66156
82459367479,0.473938,-0.167786,0.567932,0.651611
82459388529,0.473816,-0.171204,0.574951,0.644592
82459404341,0.474304,-0.172546,0.581665,0.637878
82459427479,0.478088,-0.169983,0.587646,0.630188
82459448996,0.481689,-0.164856,0.592468,0.624207
82459464322,0.482117,-0.1604,0.595886,0.621826
82459487456,0.481079,-0.156982,0.598572,0.62085
82459508493,0.480408,-0.1521,0.600952,0.6203
82459524336,0.480469,-0.146301,0.602417,0.620239
82459547507,0.480957,-0.141418,0.603149,0.6203
82459568550,0.479431,-0.138428,0.603577,0.621826
82459584307,0.476379,-0.136963,0.603516,0.624451
82459607454,0.47583,-0.134766,0.602722,0.62616
82459628536,0.475952,-0.132324,0.600891,0.628357
82459644287,0.474487,-0.131897,0.598206,0.632019
82459667525,0.472656,-0.132019,0.59552,0.635986
82459688546,0.471558,-0.130737,0.592468,0.639893
82459704349,0.470947,-0.128052,0.588623,0.644409
82459727492,0.47052,-0.125122,0.584167,0.649292
82459748526,0.468567,-0.122803,0.579712,0.655151
82459764333,0.465637,-0.120178,0.575317,0.661499
82459787497,0.464966,-0.115295,0.570801,0.666809
82459808569,0.464294,-0.109436,0.566833,0.671631
82459824345,0.460388,-0.104309,0.563049,0.678284
82459847484,0.4552,-0.098999,0.559509,0.685486
82459868514,0.452026,-0.0916748,0.55542,0.691833
82459884310,0.450989,-0.0841675,0.550476,0.697449
82459914981,0.448303,-0.0790405,0.545288,0.703796
82459928573,0.443359,-0.0750732,0.539856,0.711487
82459944340,0.438904,-0.0703125,0.533691,0.719421
82459966850,0.436584,-0.0645752,0.526733,0.726379
82459988591,0.432617,-0.0593872,0.519409,0.734436
82460004384,0.427185,-0.0539551,0.511353,0.743652
82460026811,0.422241,-0.0470581,0.502197,0.753113
82460048541,0.420227,-0.0394287,0.491821,0.761475
82460064321,0.416626,-0.0332031,0.481873,0.770081
82460086853,0.410889,-0.0284424,0.471741,0.779541
82460117482,0.405701,-0.0234985,0.461243,0.788696
82460124326,0.40271,-0.0180054,0.449219,0.797241
82460146846,0.40271,-0.0140991,0.437134,0.804016
82460170001,0.400146,-0.0127563,0.426086,0.811218
82460191004,0.395081,-0.0134277,0.415344,0.819214
82460206935,0.390991,-0.013916,0.404602,0.826477
82460230039,0.38855,-0.0144043,0.393555,0.833008
82460244338,0.388245,-0.0154419,0.381958,0.838501
82460266869,0.387756,-0.0183105,0.370544,0.84375
82460289996,0.386292,-0.0222778,0.359558,0.84906
82460304304,0.384521,-0.0264893,0.348572,0.854309
82460326818,0.383545,-0.0304565,0.337158,0.859192
82460350028,0.383179,-0.0346069,0.325073,0.863831
82460371071,0.382874,-0.0386353,0.312805,0.868347
82460386875,0.381836,-0.0426636,0.300476,0.872925
82460410011,0.380554,-0.0464478,0.288147,0.877441
82460431054,0.379822,-0.0499878,0.276001,0.88147
82460446812,0.379333,-0.0529175,0.263855,0.885254
82460470006,0.378235,-0.0557251,0.251892,0.888977
82460491049,0.377075,-0.0586548,0.240173,0.892517
82460506888,0.377625,-0.0616455,0.228149,0.895203
82460530022,0.378845,-0.0640259,0.216248,0.897522
82460551059,0.379517,-0.0654297,0.20459,0.899841
82460566838,0.379578,-0.065918,0.192932,0.902344
82460589999,0.378723,-0.0664062,0.181335,0.90509
82460611097,0.377625,-0.0670776,0.169617,0.907776
82460626959,0.377136,-0.0678711,0.157959,0.910034
82460650048,0.376526,-0.0684204,0.146362,0.91217
82460671047,0.374939,-0.0689087,0.134888,0.914551
82460686898,0.372437,-0.069397,0.123596,0.917114
82460709993,0.370056,-0.0700073,0.112549,0.919434
82460731068,0.368469,-0.0706177,0.102051,0.921265
82460746937,0.366821,-0.071106,0.092041,0.922913
82460770005,0.364441,-0.0715332,0.0828857,0.924744
82460791044,0.361145,-0.0718994,0.074585,0.926697
82460806857,0.358459,-0.0724487,0.0671387,0.928284
82460829345,0.3573,-0.0730591,0.060791,0.929077
82460851074,0.356567,-0.0736084,0.0552979,0.929688
82460866888,0.355225,-0.0739136,0.0506592,0.93042
82460889365,0.35437,-0.0740356,0.0466919,0.930969
82460912555,0.355347,-0.0742798,0.0436401,0.930725
82460926943,0.357971,-0.0743408,0.0412598,0.92981
82460949364,0.35791,-0.0747681,0.039978,0.929871
82460971070,0.353516,-0.0757446,0.0390015,0.931519
82460986977,0.348877,-0.0764771,0.0377808,0.933228
82461009362,0.345642,-0.0776978,0.0371704,0.934387
82461032505,0.34375,-0.0790405,0.0360718,0.934998
82461046865,0.34259,-0.0803833,0.0341797,0.935364
82461069306,0.340881,-0.0818481,0.0318604,0.935974
82461092546,0.340332,-0.0836792,0.0290527,0.936096
82461106926,0.340332,-0.0859985,0.0263062,0.935974
82461129337,0.340515,-0.0883179,0.0235596,0.93573
82461152487,0.339539,-0.0899048,0.020813,0.935974
82461166830,0.337891,-0.0905151,0.0181274,0.936584
82461197525,0.336914,-0.0906982,0.015625,0.937012
82461212494,0.335999,-0.0908813,0.0131226,0.937317
82461226815,0.334839,-0.0911865,0.0108032,0.937744
82461249315,0.333496,-0.0921021,0.00854492,0.938171
82461272469,0.33197,-0.0931396,0.00640869,0.93866
82461286797,0.330139,-0.0941772,0.00421143,0.939209
82461309374,0.328491,-0.0950928,0.00195312,0.939697
82461332542,0.327148,-0.0963135,-0.000488281,0.940002
82461346958,0.326904,-0.0983276,-0.00274658,0.93988
82461369354,0.32782,-0.100891,-0.00524902,0.93927
82461400081,0.327209,-0.103027,-0.0078125,0.93927
82461413525,0.325867,-0.104675,-0.010498,0.939514
82461429388,0.324829,-0.106506,-0.0131836,0.939636
82461452549,0.32428,-0.108215,-0.0155029,0.939575
82461473569,0.324402,-0.110291,-0.0176392,0.93927
82461489418,0.323914,-0.111816,-0.0198364,0.939209
82461512542,0.32251,-0.112793,-0.0221558,0.939514
82461533551,0.321167,-0.11377,-0.024353,0.939819
82461549339,0.320068,-0.114624,-0.0266724,0.940002
82461572574,0.31897,-0.115417,-0.0286255,0.940247
82461593600,0.317688,-0.115845,-0.0303345,0.940552
82461609357,0.315735,-0.11615,-0.0317993,0.941162
82461632496,0.313782,-0.116211,-0.03302,0.941711
82461653588,0.312622,-0.116333,-0.0338135,0.942078
82461677518,0.310852,-0.115662,-0.034668,0.942749
82461692591,0.309387,-0.114929,-0.0355835,0.943237
82461713543,0.308899,-0.114319,-0.0366211,0.943481
82461729348,0.308838,-0.113953,-0.0378418,0.943481
82461752519,0.307983,-0.113525,-0.0391846,0.943726
82461773687,0.305542,-0.112793,-0.0400391,0.94458
82461789381,0.30426,-0.112671,-0.0404053,0.945007
82461811960,0.304504,-0.113098,-0.0406494,0.944885
82461833587,0.304077,-0.113037,-0.0410767,0.945007
82461856063,0.302429,-0.112183,-0.0413818,0.945618
82461871916,0.301392,-0.111694,-0.0413818,0.945984
82461893556,0.301392,-0.111572,-0.0411377,0.945984
82461908570,0.302063,-0.111572,-0.0408936,0.945801
82461922952,0.301697,-0.110962,-0.0407715,0.945984
82461945403,0.301208,-0.110535,-0.0404663,0.946228
82461968597,0.301453,-0.110657,-0.0400391,0.946167
82461982985,0.301636,-0.11084,-0.0396118,0.946106
82462005420,0.301147,-0.11084,-0.0393677,0.946228
82462028635,0.300171,-0.110779,-0.0391846,0.946594
82462042963,0.2995,-0.111023,-0.0390015,0.946777
82462065426,0.299194,-0.11145,-0.0388794,0.946838
82462088554,0.298706,-0.111938,-0.0387573,0.946899
82462102973,0.29834,-0.112793,-0.0387573,0.94696
82462125424,0.298584,-0.114014,-0.0388794,0.946716
82462148604,0.298706,-0.115295,-0.0391235,0.946533
82462162992,0.298401,-0.116577,-0.0395508,0.946411
82462185455,0.297119,-0.117554,-0.039978,0.946716
82462208567,0.295898,-0.118652,-0.0401001,0.94696
82462222954,0.295776,-0.120239,-0.0401001,0.946777
82462245478,0.295044,-0.121643,-0.0402222,0.946838
82462268585,0.294006,-0.122864,-0.0403442,0.94696
82462282972,0.293152,-0.124084,-0.0405273,0.947083
82462305487,0.293213,-0.125488,-0.0406494,0.946899
82462328650,0.293335,-0.126648,-0.0408325,0.946655
82462342985,0.292847,-0.127563,-0.0411377,0.946716
82462365415,0.292114,-0.12854,-0.0413208,0.946777
82462388652,0.291992,-0.129761,-0.0415649,0.946655
82462402957,0.29187,-0.130676,-0.0418091,0.946533
82462425418,0.291382,-0.13147,-0.0420532,0.946594
82462448540,0.29071,-0.131958,-0.0422363,0.946655
82462462967,0.290283,-0.132629,-0.0423584,0.946716
82462485485,0.289978,-0.133301,-0.0424194,0.946716
82462508592,0.289978,-0.133911,-0.0425415,0.946594
82462522968,0.289673,-0.134216,-0.0426636,0.946655
82462545419,0.289429,-0.13446,-0.0426636,0.946716
82462568553,0.289429,-0.134827,-0.0426636,0.946655
82462582958,0.289246,-0.135132,-0.0426636,0.946655
82462605443,0.28894,-0.135437,-0.0426025,0.946716
82462629061,0.288391,-0.13562,-0.0424805,0.946899
82462642931,0.288269,-0.136047,-0.0422363,0.946838
82462665390,0.288208,-0.136536,-0.0419312,0.946838
82462688625,0.287476,-0.137085,-0.041687,0.94696
82462702940,0.286194,-0.137573,-0.0415649,0.947266
82462725429,0.285278,-0.138245,-0.0415649,0.94751
82462748021,0.284668,-0.138977,-0.041687,0.947571
82462762971,0.284424,-0.139526,-0.0418701,0.94751
82462785466,0.284302,-0.139954,-0.0421143,0.94751
82462808543,0.284302,-0.140259,-0.0422363,0.947449
82462822986,0.284363,-0.140503,-0.0422363,0.947388
82462845450,0.284668,-0.140808,-0.0422363,0.947266
82462868628,0.285156,-0.141174,-0.0421143,0.947083
82462882961,0.285339,-0.141357,-0.0421753,0.94696
82462905441,0.285034,-0.141418,-0.0423584,0.947021
82462927960,0.284119,-0.141174,-0.0427246,0.947327
82462942991,0.282959,-0.14093,-0.0430908,0.947693
82462965435,0.282043,-0.140808,-0.0432739,0.947998
82462987972,0.28125,-0.140686,-0.0431519,0.948242
82463002975,0.28064,-0.140747,-0.0427246,0.948425
82463025442,0.280701,-0.141113,-0.0421753,0.948425
82463047959,0.281006,-0.141663,-0.0418701,0.948242
82463064398,0.28125,-0.141846,-0.0419922,0.94812
82463086975,0.281372,-0.141907,-0.0424805,0.948059
82463107965,0.28186,-0.141724,-0.0430908,0.947937
82463122946,0.282227,-0.141052,-0.043457,0.947876
82463145436,0.282715,-0.139893,-0.0435791,0.947937
82463167938,0.283508,-0.138794,-0.043457,0.947815
82463184369,0.284363,-0.137512,-0.0432129,0.947754
82463205399,0.285339,-0.136169,-0.0429077,0.947693
82463227930,0.286072,-0.134827,-0.0426025,0.947693
82463242944,0.286499,-0.133545,-0.0423584,0.947754
82463265453,0.286743,-0.132446,-0.0421753,0.947815
82463288012,0.287659,-0.131775,-0.0419922,0.947693
82463303008,0.288696,-0.13147,-0.0419312,0.947388
82463325501,0.289307,-0.131348,-0.0418701,0.947205
82463348006,0.289246,-0.13147,-0.0418091,0.947205
82463363035,0.288757,-0.131836,-0.041687,0.947327
82463385453,0.288696,-0.132263,-0.0418091,0.947266
82463407983,0.289001,-0.132812,-0.0419312,0.947144
82463422946,0.289368,-0.133057,-0.0421753,0.94696
82463445502,0.289734,-0.133118,-0.0423584,0.946838
82463467986,0.289734,-0.132874,-0.0424805,0.946838
82463482975,0.289978,-0.132507,-0.0424194,0.946838
82463505542,0.290649,-0.132324,-0.0421143,0.946655
82463527936,0.291382,-0.132141,-0.041687,0.946472
82463542972,0.292114,-0.132141,-0.0411377,0.946289
82463565449,0.293091,-0.132385,-0.0405884,0.945984
82463587955,0.293945,-0.132629,-0.0402222,0.945679
82463602975,0.295105,-0.132996,-0.0401001,0.945251
82463625473,0.296631,-0.133423,-0.0400391,0.944763
82463647977,0.298157,-0.133911,-0.0401001,0.944153
82463664382,0.299561,-0.134399,-0.0402222,0.943665
82463685513,0.300476,-0.134949,-0.0403442,0.943298
82463707970,0.300842,-0.135559,-0.0403442,0.943115
82463724443,0.301025,-0.136353,-0.0402832,0.942932
82463745408,0.301025,-0.137146,-0.0401001,0.94281
82463767922,0.300842,-0.137939,-0.039856,0.942749
82463784410,0.300415,-0.138794,-0.0394287,0.94281
82463805419,0.30011,-0.139648,-0.0390015,0.94281
82463827972,0.299866,-0.140442,-0.0384521,0.942749
82463844433,0.300049,-0.141235,-0.0378418,0.942627
82463865450,0.300232,-0.141785,-0.0372925,0.942505
82463887961,0.300537,-0.142334,-0.0366211,0.942322
82463904391,0.301025,-0.142822,-0.0358887,0.942139
82463925535,0.301453,-0.143433,-0.0352173,0.941956
82463947972,0.301941,-0.144043,-0.03479,0.941711
82463964409,0.302612,-0.144592,-0.034668,0.941406
82463985509,0.303101,-0.144714,-0.0349121,0.941223
82464008033,0.303223,-0.14447,-0.0352783,0.941223
82464024463,0.303406,-0.144043,-0.0359497,0.941223
82464045490,0.303589,-0.143555,-0.0366821,0.941162
82464067976,0.303711,-0.143005,-0.0373535,0.941162
82464084371,0.303894,-0.142578,-0.0377808,0.941162
82464105454,0.304565,-0.14209,-0.038147,0.94104
82464127931,0.304626,-0.14209,-0.038147,0.94104
82464144466,0.303772,-0.141785,-0.0380859,0.941345
82464165471,0.303101,-0.141602,-0.0378418,0.941589
82464188003,0.303345,-0.142029,-0.0375977,0.941467
82464204414,0.303833,-0.142334,-0.0375977,0.941223
82464225443,0.303833,-0.1427,-0.0375366,0.941162
82464247981,0.303284,-0.142944,-0.0375977,0.941345
82464264437,0.302979,-0.143372,-0.0375366,0.941406
82464285483,0.303467,-0.14386,-0.0374756,0.941162
82464307998,0.303955,-0.144287,-0.0376587,0.940918
82464324392,0.304199,-0.144714,-0.0377197,0.940796
82464345578,0.304199,-0.145142,-0.0377808,0.940674
82464369475,0.304382,-0.145508,-0.0378418,0.940552
82464384479,0.304504,-0.145874,-0.0380249,0.940491
82464405491,0.304077,-0.146301,-0.038147,0.940552
82464427993,0.303528,-0.146606,-0.0383911,0.940674
82464444393,0.302856,-0.146912,-0.0385132,0.940796
82464465457,0.302307,-0.147217,-0.0386353,0.940979
82464487914,0.302185,-0.1474,-0.0386963,0.940979
82464504393,0.302368,-0.147949,-0.0386963,0.940796
82464525441,0.302551,-0.148621,-0.0388184,0.940613
82464547956,0.302917,-0.149597,-0.0390015,0.940369
82464571948,0.303345,-0.150696,-0.0390625,0.940063
82464585472,0.303711,-0.151672,-0.0393066,0.939758
82464607950,0.303528,-0.152527,-0.0396118,0.939697
82464624458,0.303406,-0.15332,-0.039856,0.939575
82464646951,0.30365,-0.154053,-0.039978,0.939331
82464667984,0.303833,-0.154297,-0.0401001,0.93927
82464684442,0.304199,-0.153992,-0.0401611,0.939148
82464706934,0.30481,-0.153748,-0.0402222,0.939026
82464728053,0.304871,-0.153076,-0.0402222,0.939148
82464744408,0.305115,-0.152466,-0.0401001,0.939148
82464766984,0.305969,-0.152161,-0.039917,0.938904
82464788030,0.306763,-0.15155,-0.039856,0.938782
82464804410,0.30719,-0.151123,-0.039917,0.938721
82464826947,0.307251,-0.150696,-0.0401001,0.938721
82464847997,0.307434,-0.150391,-0.0401611,0.938721
82464864412,0.307861,-0.150452,-0.0401611,0.938538
82464886951,0.308167,-0.150574,-0.0401611,0.938416
82464908000,0.308167,-0.150757,-0.0403442,0.938416
82464924449,0.307861,-0.151062,-0.0403442,0.938477
82464946946,0.307678,-0.151611,-0.0402222,0.938416
82464967983,0.307617,-0.152161,-0.0401611,0.938354
82464984454,0.307678,-0.152588,-0.0402222,0.938293
82465006950,0.307556,-0.152893,-0.0403442,0.938232
82465027948,0.307373,-0.153198,-0.0404053,0.938293
82465044426,0.307373,-0.153198,-0.0404053,0.938293
82465066930,0.307312,-0.153198,-0.0404053,0.938293
82465087979,0.307312,-0.153198,-0.0404053,0.938293
82465104468,0.307556,-0.153076,-0.0403442,0.938232
82465126946,0.307556,-0.152771,-0.0402222,0.938293
82465156194,0.307251,-0.152283,-0.0400391,0.938477
82465164397,0.307007,-0.152039,-0.0396729,0.938599
82465186941,0.306946,-0.151978,-0.0394287,0.93866
82465208068,0.306946,-0.151917,-0.0394287,0.93866
82465224468,0.306824,-0.151733,-0.0394287,0.938721
82465246969,0.306702,-0.151611,-0.0394897,0.938782
82465268014,0.306519,-0.151733,-0.0393677,0.938843
82465284463,0.306763,-0.1521,-0.0393066,0.938721
82465306968,0.306763,-0.152588,-0.0393066,0.938599
82465327990,0.306458,-0.152832,-0.0393677,0.93866
82465344507,0.30603,-0.153198,-0.0393677,0.938782
82465366942,0.305664,-0.153503,-0.0393066,0.938843
82465388003,0.30542,-0.153748,-0.0392456,0.938843
82465404467,0.305054,-0.153992,-0.0393677,0.938965
82465426936,0.304443,-0.154419,-0.0394897,0.939087
82465447944,0.304138,-0.155029,-0.0396118,0.939087
82465464426,0.304138,-0.155701,-0.0396118,0.938965
82465486916,0.304565,-0.156189,-0.0396118,0.938721
82465507992,0.304871,-0.156738,-0.0396118,0.938538
82465524443,0.304504,-0.157043,-0.0396729,0.938599
82465546921,0.303955,-0.157166,-0.0394897,0.938782
82465569457,0.304077,-0.157532,-0.0390625,0.93866
82465584422,0.304504,-0.158081,-0.0385742,0.938477
82465606939,0.30481,-0.158508,-0.0383301,0.938293
82465629469,0.305176,-0.158936,-0.038269,0.93811
82465644442,0.30542,-0.158936,-0.038208,0.938049
82465666976,0.305847,-0.158569,-0.038147,0.937988
82465689467,0.306152,-0.157959,-0.0380249,0.937988
82465704422,0.306885,-0.157288,-0.038208,0.937866
82465726215,0.307068,-0.156494,-0.0384521,0.937927
82465748639,0.307007,-0.15564,-0.0385742,0.938049
82465765142,0.306702,-0.155029,-0.0385132,0.938232
82465786169,0.306519,-0.154846,-0.0383911,0.938354
82465808638,0.306519,-0.154846,-0.0383911,0.938354
82465825106,0.30658,-0.155212,-0.0385742,0.938293
82465846234,0.306274,-0.15564,-0.0387573,0.938293
82465868703,0.305847,-0.156128,-0.0388794,0.938354
82465885113,0.305908,-0.15686,-0.0388794,0.938232
82465906236,0.306335,-0.157715,-0.0389404,0.937927
82465928635,0.306824,-0.158386,-0.0391235,0.937622
82465945092,0.306885,-0.158936,-0.0392456,0.9375
82465966159,0.306519,-0.15918,-0.0394897,0.937622
82465988657,0.306274,-0.159363,-0.0396118,0.937622
82466005127,0.306213,-0.159363,-0.0396118,0.937683
82466026189,0.306213,-0.159363,-0.0396118,0.937683
82466049801,0.306152,-0.159058,-0.0395508,0.937744
82466065107,0.306152,-0.158752,-0.0394897,0.937805
82466086152,0.30658,-0.158691,-0.0394287,0.937683
82466108533,0.306946,-0.15863,-0.0395508,0.937561
82466125112,0.307007,-0.158447,-0.0397339,0.937561
82466146174,0.306824,-0.158142,-0.039917,0.937683
82466168646,0.306519,-0.157959,-0.039978,0.937805
82466185092,0.306519,-0.157959,-0.039978,0.937805
82466206189,0.306519,-0.157959,-0.039978,0.937805
82466228692,0.306519,-0.157959,-0.039978,0.937805
82466245129,0.306458,-0.157898,-0.039978,0.937805
82466266189,0.306458,-0.157898,-0.039978,0.937805
82466288683,0.306458,-0.157898,-0.039978,0.937805
82466305134,0.306641,-0.157776,-0.039917,0.937744
82466326220,0.306946,-0.157471,-0.0400391,0.937744
82466348706,0.306946,-0.157471,-0.0400391,0.937744
82466365150,0.306946,-0.15741,-0.0400391,0.937744
82466386185,0.307129,-0.157349,-0.039978,0.937683
82466408659,0.307312,-0.157349,-0.039856,0.937622
82466425103,0.307617,-0.157349,-0.039856,0.9375
82466446158,0.307739,-0.157227,-0.0401001,0.9375
82466468692,0.307556,-0.156921,-0.0403442,0.937622
82466485120,0.307495,-0.156921,-0.0403442,0.937622
82466513635,0.307495,-0.156921,-0.0403442,0.937622
82466528685,0.307495,-0.156921,-0.0403442,0.937622
82466544480,0.307495,-0.15686,-0.0403442,0.937622
82466566206,0.307495,-0.15686,-0.0403442,0.937622
82466588673,0.307495,-0.15686,-0.0403442,0.937622
82466604450,0.307495,-0.15686,-0.0403442,0.937622
82466626170,0.307495,-0.15686,-0.0403442,0.937622
82466648682,0.307556,-0.15686,-0.0403442,0.937622
82466664465,0.307373,-0.156799,-0.0404663,0.937683
82466686185,0.307373,-0.156738,-0.0405273,0.937683
82466708677,0.307373,-0.156738,-0.0405273,0.937683
82466724478,0.307617,-0.156799,-0.0404663,0.937561
82466747649,0.307678,-0.156799,-0.0405273,0.937561
82466768769,0.307495,-0.156738,-0.0405273,0.937622
82466784453,0.307068,-0.156555,-0.0404663,0.937805
82466807603,0.306458,-0.156189,-0.0402832,0.938049
82466828672,0.306335,-0.155945,-0.0401611,0.938171
82466844423,0.306335,-0.155945,-0.0401611,0.938171
82466867665,0.306335,-0.155945,-0.0401611,0.938171
82466888680,0.30603,-0.155945,-0.0402222,0.938232
82466904497,0.30603,-0.15625,-0.0402222,0.938232
82466927664,0.306091,-0.156799,-0.0402222,0.93811
82466948654,0.305969,-0.157227,-0.0402832,0.938049
82466964464,0.305664,-0.157776,-0.0403442,0.93811
82466987669,0.305176,-0.158142,-0.0402832,0.938171
82467008732,0.305115,-0.158752,-0.0401611,0.93811
82467024485,0.305176,-0.159119,-0.0402222,0.937988
82467047666,0.304871,-0.15918,-0.0404053,0.93811
82467068683,0.304443,-0.159119,-0.0404663,0.938232
82467084468,0.304443,-0.159119,-0.0404663,0.938232
82467107601,0.304688,-0.15918,-0.0403442,0.938171
82467128692,0.305237,-0.159424,-0.0402832,0.937927
82467144476,0.305237,-0.159363,-0.0402832,0.937927
82467167620,0.305237,-0.159363,-0.0402832,0.937927
82467188651,0.305359,-0.159607,-0.0402832,0.937866
82467204475,0.305481,-0.159973,-0.0403442,0.937744
82467227605,0.305664,-0.160461,-0.0405273,0.937622
82467248778,0.305481,-0.161011,-0.0407104,0.937561
82467264511,0.305054,-0.161865,-0.0408936,0.937561
82467287651,0.30481,-0.163086,-0.0410156,0.937439
82467308715,0.30481,-0.16449,-0.0413208,0.937134
82467324465,0.30481,-0.165771,-0.0418091,0.93689
82467347638,0.304443,-0.166809,-0.0425415,0.936829
82467368688,0.304199,-0.167725,-0.0432129,0.936707
82467384549,0.304138,-0.168335,-0.0438232,0.936584
82467407686,0.304138,-0.168884,-0.0441284,0.936462
82467428703,0.304016,-0.169128,-0.0443115,0.936462
82467444504,0.303955,-0.169128,-0.0443115,0.936462
82467466963,0.303894,-0.169128,-0.0443115,0.936462
82467488693,0.304199,-0.168945,-0.0441895,0.936401
82467504511,0.304504,-0.168762,-0.0442505,0.93634
82467526961,0.304565,-0.168701,-0.0442505,0.93634
82467548693,0.304565,-0.168701,-0.0442505,0.93634
82467564951,0.304565,-0.168701,-0.0442505,0.93634
82467586962,0.304626,-0.168701,-0.0442505,0.93634
82467608678,0.304626,-0.168701,-0.0442505,0.93634
82467624457,0.304626,-0.168701,-0.0442505,0.93634
82467647002,0.304321,-0.168762,-0.0441284,0.936462
82467670159,0.30426,-0.168762,-0.0441284,0.936462
82467684513,0.304382,-0.169006,-0.0441284,0.93634
82467707003,0.304443,-0.169006,-0.0441284,0.93634
82467730167,0.304443,-0.169006,-0.0441895,0.93634
82467744454,0.304443,-0.169006,-0.0441895,0.93634
82467766967,0.304443,-0.168945,-0.0441895,0.93634
82467790179,0.304443,-0.168945,-0.0441895,0.93634
82467804511,0.304443,-0.169006,-0.0441895,0.93634
82467826987,0.304443,-0.169006,-0.0441895,0.93634
82467850139,0.304443,-0.169006,-0.0441895,0.93634
82467864515,0.304443,-0.169006,-0.0441895,0.93634
82467886945,0.304443,-0.169006,-0.0441895,0.93634
82467910180,0.304443,-0.169006,-0.0441895,0.93634
82467924497,0.304321,-0.168762,-0.0442505,0.936401
82467947020,0.30426,-0.168274,-0.0443115,0.936523
82467970184,0.304565,-0.167725,-0.0443726,0.936523
82467984483,0.304749,-0.166992,-0.0444336,0.936584
82468007001,0.30481,-0.166321,-0.0444946,0.936707
82468030143,0.30481,-0.16571,-0.0444946,0.936768
82468044535,0.304626,-0.165283,-0.0444336,0.936951
82468067048,0.304688,-0.165283,-0.0444336,0.936951
82468090178,0.304688,-0.165222,-0.0444336,0.936951
82468104498,0.304688,-0.165588,-0.0445557,0.936829
82468126999,0.30481,-0.166077,-0.0447998,0.936707
82468150144,0.304871,-0.166626,-0.045166,0.936584
82468171319,0.304993,-0.167175,-0.0456543,0.936401
82468187007,0.304932,-0.167725,-0.0461426,0.93634
82468210166,0.304626,-0.168335,-0.0465698,0.936279
82468231232,0.304138,-0.168945,-0.046936,0.93634
82468246985,0.303223,-0.169678,-0.046814,0.936462
82468270122,0.303162,-0.170593,-0.0466919,0.93634
82468291154,0.303467,-0.171326,-0.046875,0.936096
82468307017,0.30365,-0.171997,-0.0471191,0.935913
82468330177,0.303772,-0.172607,-0.0474854,0.93573
82468351271,0.303772,-0.17334,-0.0477905,0.935608
82468367047,0.303772,-0.174194,-0.0479126,0.935425
82468390139,0.303955,-0.175232,-0.0480347,0.935181
82468411166,0.304016,-0.176208,-0.0481567,0.934998
82468427017,0.303894,-0.177002,-0.0483398,0.934814
82468449526,0.303406,-0.177429,-0.048584,0.934875
82468471157,0.303223,-0.177734,-0.0488281,0.934875
82468487021,0.303223,-0.177734,-0.0488281,0.934875
82468509493,0.303162,-0.177734,-0.0488281,0.934875
82468531212,0.303101,-0.177429,-0.0488892,0.934998
82468547037,0.303345,-0.177246,-0.0488281,0.934937
82468569501,0.303284,-0.176941,-0.0488892,0.934998
82468591247,0.302979,-0.176392,-0.0488892,0.935242
82468615140,0.303345,-0.175781,-0.0488892,0.935242
82468629503,0.303894,-0.174927,-0.0490112,0.935181
82468652665,0.304016,-0.173767,-0.0490723,0.935364
82468667042,0.304077,-0.172791,-0.0490723,0.935547
82468689507,0.304016,-0.171814,-0.0488892,0.93573
82468712662,0.30426,-0.171143,-0.0487671,0.935791
82468727030,0.304504,-0.170593,-0.0487671,0.935791
82468749467,0.304565,-0.170166,-0.0488892,0.935852
82468772615,0.304565,-0.170166,-0.0489502,0.935852
82468787043,0.304504,-0.170166,-0.0489502,0.935852
82468809513,0.304688,-0.170349,-0.0489502,0.935791
82468832666,0.304688,-0.170349,-0.0489502,0.935791
82468846996,0.304688,-0.170349,-0.0489502,0.935791
82468869502,0.304626,-0.170349,-0.0489502,0.935791
82468892693,0.304626,-0.170349,-0.0489502,0.935791
82468906961,0.304626,-0.170349,-0.0489502,0.935791
82468929555,0.304688,-0.170349,-0.0489502,0.935791
82468952694,0.304443,-0.170044,-0.0489502,0.935913
82468973711,0.304443,-0.169861,-0.0488281,0.935974
82468989497,0.304443,-0.169861,-0.0488281,0.935974
82469012640,0.304688,-0.169678,-0.0488892,0.935913
82469026984,0.304688,-0.169678,-0.0488892,0.935913
82469049547,0.304749,-0.169678,-0.0488892,0.935913
82469072698,0.304749,-0.169678,-0.0488892,0.935913
82469087020,0.304749,-0.169678,-0.0488892,0.935913
82469109511,0.304749,-0.169617,-0.0489502,0.935913
82469132636,0.304626,-0.1698,-0.0488892,0.935913
82469153687,0.304626,-0.1698,-0.0489502,0.935913
82469169501,0.304626,-0.1698,-0.0489502,0.935913
82469192718,0.30481,-0.1698,-0.0488892,0.935852
82469213711,0.30481,-0.1698,-0.0488892,0.935852
82469229497,0.30481,-0.169739,-0.0489502,0.935852
82469252676,0.304871,-0.1698,-0.0488892,0.935852
82469273674,0.304871,-0.1698,-0.0488892,0.935852
82469289467,0.304871,-0.1698,-0.0488892,0.935852
82469312701,0.304871,-0.1698,-0.0489502,0.935852
82469333715,0.305054,-0.169922,-0.0490112,0.93573
82469349529,0.304932,-0.170044,-0.0490723,0.93573
82469372050,0.304871,-0.170166,-0.0491333,0.93573
82469393705,0.304871,-0.170227,-0.0491333,0.93573
82469409511,0.304871,-0.170166,-0.0491333,0.93573
82469432004,0.304871,-0.170166,-0.0491333,0.93573
82469453701,0.304871,-0.170227,-0.0491333,0.93573
82469469519,0.304871,-0.170227,-0.0491333,0.93573
82469491997,0.304871,-0.170227,-0.0491333,0.93573
82469513731,0.304871,-0.170227,-0.0491333,0.93573
82469529497,0.304871,-0.170227,-0.0491333,0.93573
82469552007,0.304871,-0.170227,-0.0491333,0.93573
82469565555,0.304871,-0.170227,-0.0491333,0.93573
82469588685,0.304871,-0.170227,-0.0491333,0.93573
82469603028,0.304932,-0.170288,-0.0491333,0.93573
82469625556,0.304932,-0.170288,-0.0491333,0.93573
82469648717,0.304932,-0.170288,-0.0491333,0.93573
82469663079,0.304932,-0.170288,-0.0491333,0.93573
82469685553,0.304932,-0.170288,-0.0491333,0.935669
82469708740,0.304993,-0.170288,-0.0491333,0.935669
82469723090,0.304932,-0.170288,-0.0491333,0.935669
82469745578,0.304993,-0.170288,-0.0491333,0.935669
82469768736,0.304993,-0.170288,-0.0491333,0.935669
82469783104,0.305237,-0.170166,-0.0491333,0.935608
82469805544,0.305542,-0.170105,-0.0491943,0.935547
82469828745,0.305603,-0.170105,-0.0491943,0.935486
82469843055,0.305603,-0.170105,-0.0491943,0.935486
82469865577,0.305664,-0.170166,-0.0491943,0.935486
82469888733,0.305664,-0.170166,-0.0491943,0.935486
82469903062,0.305664,-0.170166,-0.0491943,0.935486
82469925559,0.305603,-0.170105,-0.0491943,0.935486
82469948706,0.305603,-0.170105,-0.0491943,0.935486
82469963064,0.305664,-0.170105,-0.0491943,0.935486
82469985608,0.305664,-0.170105,-0.0491943,0.935486
82470008730,0.305664,-0.170105,-0.0491943,0.935486
82470023083,0.305969,-0.169983,-0.0491333,0.935425
82470045572,0.306213,-0.1698,-0.0491333,0.935364
82470068735,0.306335,-0.169556,-0.0492554,0.935364
82470083076,0.306335,-0.169495,-0.0492554,0.935364
82470105522,0.306335,-0.169495,-0.0492554,0.935364
82470128749,0.306335,-0.169495,-0.0492554,0.935364
82470143038,0.306335,-0.16925,-0.0492554,0.935425
82470165569,0.306335,-0.168945,-0.0492554,0.935486
82470188721,0.306213,-0.16864,-0.0492554,0.935608
82470203068,0.306152,-0.168396,-0.0491333,0.935669
82470225594,0.306152,-0.168396,-0.0491333,0.935669
82470248735,0.306213,-0.168335,-0.0491333,0.935669
82470263080,0.306213,-0.168335,-0.0491333,0.935669
82470285584,0.306213,-0.168335,-0.0491943,0.935608
82470308766,0.306274,-0.168335,-0.0491943,0.935608
82470323050,0.306274,-0.168274,-0.0491943,0.935608
82470345587,0.306274,-0.168274,-0.0491943,0.935608
82470368792,0.306274,-0.168457,-0.0491333,0.935608
82470383157,0.306335,-0.16864,-0.0491333,0.935547
82470405565,0.306458,-0.168823,-0.0491943,0.935486
82470428894,0.306458,-0.168823,-0.0491943,0.935486
82470443102,0.306458,-0.168884,-0.0493164,0.935425
82470465651,0.306458,-0.168884,-0.0493164,0.935425
82470488747,0.306458,-0.168884,-0.0493774,0.935425
82470503132,0.306458,-0.168884,-0.0493774,0.935425
82470525632,0.306458,-0.168884,-0.0493774,0.935425
82470548127,0.306458,-0.168884,-0.0493774,0.935425
82470563161,0.306458,-0.168884,-0.0493774,0.935425
82470585610,0.306458,-0.168884,-0.0493774,0.935425
82470608108,0.306458,-0.168884,-0.0493774,0.935425
82470623092,0.306519,-0.168823,-0.0493774,0.935425
82470645607,0.306519,-0.168823,-0.0493774,0.935425
82470668119,0.306519,-0.168823,-0.0493774,0.935425
82470683198,0.306458,-0.168823,-0.0493774,0.935486
82470705590,0.306702,-0.168701,-0.0494385,0.935425
82470728076,0.306702,-0.16864,-0.0494385,0.935425
82470743119,0.306702,-0.16864,-0.0494385,0.935425
82470765662,0.306702,-0.16864,-0.0494385,0.935425
82470788153,0.306702,-0.16864,-0.0494385,0.935425
82470803157,0.306702,-0.16864,-0.0494385,0.935425
82470833771,0.306702,-0.16864,-0.0494385,0.935425
82470848108,0.306763,-0.16864,-0.0494385,0.935364
82470863094,0.306641,-0.168457,-0.0496216,0.935425
82470885652,0.306396,-0.168213,-0.0496216,0.935547
82470908104,0.306396,-0.168213,-0.0496216,0.935547
82470923070,0.306641,-0.168213,-0.0496216,0.935486
82470945606,0.306641,-0.168152,-0.0496216,0.935486
82470968064,0.306641,-0.168152,-0.0496216,0.935486
82470983059,0.306641,-0.168152,-0.0496216,0.935486
82471005626,0.306641,-0.168091,-0.0496216,0.935486
82471028123,0.306641,-0.168091,-0.0496216,0.935486
82471043143,0.306702,-0.168091,-0.0496216,0.935486
82471065661,0.306702,-0.168091,-0.0496826,0.935486
82471088081,0.306702,-0.168091,-0.0496826,0.935486
82471103105,0.306702,-0.168274,-0.0497437,0.935425
82471125604,0.306641,-0.168457,-0.0500488,0.935425
82471148175,0.306213,-0.168884,-0.050354,0.935486
82471163157,0.30603,-0.169617,-0.0505981,0.935364
82471185640,0.305969,-0.170532,-0.0507812,0.935242
82471208076,0.305603,-0.171387,-0.0509033,0.935181
82471231224,0.305054,-0.172058,-0.0507812,0.935242
82471245601,0.305115,-0.172668,-0.0505371,0.93512
82471268104,0.305237,-0.172913,-0.050415,0.935059
82471284566,0.305298,-0.172913,-0.050354,0.935059
82471305656,0.305603,-0.172791,-0.050293,0.934998
82471328150,0.305481,-0.172485,-0.050415,0.935059
82471344583,0.305359,-0.172241,-0.0505371,0.93512
82471365613,0.305054,-0.172058,-0.0505981,0.935242
82471388130,0.304565,-0.171936,-0.0505371,0.935425
82471404637,0.304443,-0.172241,-0.050293,0.935425
82471425631,0.304626,-0.172668,-0.0501099,0.935303
82471448146,0.30481,-0.172974,-0.0499878,0.935242
82471464547,0.30481,-0.173035,-0.0499878,0.935181
82471485729,0.30481,-0.172974,-0.0499878,0.935181
82471508094,0.30481,-0.172974,-0.0499878,0.935181
82471524558,0.30481,-0.172974,-0.0499878,0.935181
82471545613,0.304871,-0.172974,-0.0499878,0.935181
82471568140,0.304871,-0.172913,-0.0500488,0.935181
82471584601,0.304565,-0.172791,-0.0499268,0.935303
82471605598,0.304565,-0.172791,-0.0499268,0.935303
82471628133,0.304565,-0.172791,-0.0498657,0.935303
82471644578,0.304871,-0.172852,-0.0499268,0.935242
82471665619,0.304932,-0.172852,-0.0499268,0.935181
82471689593,0.304932,-0.172791,-0.0499268,0.935181
82471704590,0.304932,-0.172791,-0.0499268,0.935181
82471725671,0.304932,-0.172791,-0.0499268,0.935181
82471748131,0.304749,-0.172668,-0.0499268,0.935303
82471764606,0.304749,-0.172668,-0.0499268,0.935303
82471785595,0.304749,-0.172668,-0.0499268,0.935303
82471808195,0.304871,-0.172607,-0.0498047,0.935242
82471824579,0.305176,-0.172485,-0.0497437,0.935181
82471845691,0.305176,-0.172485,-0.0497437,0.935181
82471868146,0.305237,-0.172485,-0.0497437,0.935181
82471884591,0.305237,-0.172485,-0.0497437,0.935181
82471905615,0.305176,-0.172424,-0.0497437,0.935181
82471928144,0.30542,-0.172668,-0.0496826,0.935059
82471944552,0.305664,-0.172913,-0.0498047,0.934937
82471965638,0.305664,-0.173096,-0.0499878,0.934875
82471988081,0.305603,-0.17334,-0.0500488,0.934875
82472004552,0.305542,-0.173645,-0.0500488,0.934814
82472025608,0.305664,-0.174072,-0.0500488,0.934753
82472048109,0.305664,-0.174377,-0.0500488,0.934692
82472064587,0.305603,-0.174805,-0.0500488,0.934631
82472085628,0.305603,-0.175232,-0.0499878,0.934509
82472108149,0.305603,-0.17572,-0.0499878,0.934448
82472124598,0.305725,-0.176208,-0.0501099,0.934265
82472145650,0.305664,-0.176575,-0.050293,0.934265
82472168135,0.305481,-0.17688,-0.050415,0.934265
82472184612,0.305298,-0.177185,-0.0504761,0.934204
82472207129,0.305176,-0.177551,-0.0505371,0.934204
82472228183,0.305176,-0.177856,-0.0505981,0.934143
82472244589,0.305176,-0.178101,-0.0506592,0.934082
82472267141,0.305176,-0.178284,-0.0507812,0.934082
82472288129,0.305115,-0.178406,-0.0509033,0.934021
82472304593,0.305176,-0.17865,-0.0509644,0.93396
82472327059,0.305298,-0.178894,-0.0510254,0.933838
82472348204,0.305359,-0.178894,-0.0510864,0.933838
82472364564,0.305298,-0.179077,-0.0512695,0.933838
82472387065,0.305481,-0.179199,-0.0514526,0.933716
82472408163,0.305725,-0.179382,-0.0516968,0.933594
82472424602,0.305603,-0.179504,-0.0518799,0.933594
82472447128,0.305542,-0.179688,-0.052002,0.933594
82472468152,0.305542,-0.17981,-0.052124,0.933533
82472484618,0.305603,-0.179932,-0.0521851,0.933533
82472507138,0.305725,-0.180115,-0.0522461,0.933411
82472528183,0.305725,-0.180359,-0.0523682,0.93335
82472544611,0.305603,-0.180603,-0.0525513,0.93335
82472567100,0.305542,-0.180847,-0.0527344,0.93335
82472588148,0.305542,-0.181152,-0.0529175,0.933228
82472604638,0.30542,-0.181335,-0.0531006,0.933228
82472627091,0.305176,-0.181519,-0.0531616,0.933289
82472648123,0.305176,-0.181519,-0.0531616,0.933289
82472664575,0.305176,-0.181519,-0.0531616,0.933289
82472687071,0.305176,-0.181519,-0.0531616,0.933289
82472708124,0.304932,-0.181213,-0.0531006,0.933411
82472724572,0.305176,-0.181213,-0.0529785,0.93335
82472747068,0.305481,-0.18103,-0.0529785,0.933289
82472768099,0.305725,-0.180603,-0.0531006,0.933289
82472784575,0.305664,-0.17981,-0.0536499,0.933411
82472807085,0.304871,-0.178467,-0.0540771,0.933899
82472828229,0.304688,-0.177002,-0.0540771,0.934265
82472844591,0.304504,-0.175659,-0.0537109,0.934631
82472867086,0.304443,-0.174622,-0.0531616,0.934875
82472888195,0.304626,-0.173889,-0.0526123,0.934937
82472904625,0.305054,-0.173279,-0.0521851,0.934937
82472927144,0.305725,-0.172852,-0.052063,0.934814
82472948151,0.306152,-0.172607,-0.0522461,0.934692
82472965298,0.306335,-0.172607,-0.0525513,0.934631
82472987110,0.306274,-0.172913,-0.0527344,0.93457
82473008179,0.306152,-0.173462,-0.0527954,0.934509
82473024612,0.306091,-0.174072,-0.0527954,0.934448
82473047128,0.306091,-0.174683,-0.0529785,0.934326
82473068161,0.305847,-0.174988,-0.0533447,0.934326
82473084618,0.305237,-0.174988,-0.0535889,0.934509
82473107150,0.305176,-0.174927,-0.0535889,0.934509
82473128174,0.305237,-0.174988,-0.0535889,0.934509
82473144638,0.305298,-0.174988,-0.0535889,0.934448
82473173164,0.305298,-0.174988,-0.0535889,0.934448
82473189635,0.305298,-0.17511,-0.0533447,0.934448
82473204625,0.305664,-0.175476,-0.0532227,0.934265
82473227124,0.305969,-0.17572,-0.0532227,0.934143
82473249599,0.30603,-0.175964,-0.0532837,0.934082
82473264638,0.305969,-0.176208,-0.0535278,0.934021
82473287110,0.305908,-0.176453,-0.053833,0.934021
82473309577,0.305725,-0.176636,-0.0540771,0.93396
82473330679,0.305847,-0.176941,-0.0542603,0.933899
82473347111,0.305908,-0.177185,-0.0543213,0.933838
82473369655,0.305908,-0.177185,-0.0543213,0.933838
82473386083,0.305847,-0.177246,-0.0543213,0.933838
82473406317,0.305847,-0.177246,-0.0543213,0.933838
82473428907,0.305603,-0.177002,-0.0543823,0.93396
82473445251,0.305603,-0.177002,-0.0543823,0.93396
82473466384,0.305603,-0.176941,-0.0543823,0.93396
82473488853,0.305603,-0.176941,-0.0543823,0.93396
82473505279,0.305786,-0.177124,-0.0544434,0.933838
82473526319,0.305786,-0.177124,-0.0544434,0.933838
82473548836,0.305664,-0.17688,-0.0543823,0.93396
82473565246,0.305542,-0.176331,-0.0543213,0.934082
82473586352,0.305176,-0.175598,-0.0541992,0.934387
82473608804,0.305725,-0.174805,-0.0540771,0.934326
82473625673,0.305908,-0.173767,-0.0540771,0.934448
82473646305,0.306091,-0.172913,-0.053833,0.93457
82473668828,0.306091,-0.172241,-0.0535889,0.934692
82473685263,0.306091,-0.171692,-0.0532837,0.934814
82473706271,0.306152,-0.171692,-0.0532837,0.934814
82473728783,0.306152,-0.171692,-0.0532837,0.934814
