timestamp,x,y,z,w
138318768019,0.637939,-0.12085,0.724304,0.231689
138318791632,0.638,-0.12085,0.724304,0.231689
138318812976,0.638123,-0.121094,0.724182,0.231628
138318827981,0.638123,-0.121094,0.724121,0.231628
138318851711,0.638123,-0.121094,0.724121,0.231628
138318873165,0.638123,-0.121094,0.724121,0.231628
138318912367,0.638123,-0.121094,0.724121,0.231628
138318914524,0.638123,-0.121094,0.724121,0.231628
138318934491,0.638123,-0.121094,0.724121,0.231628
138318949449,0.638245,-0.121033,0.724121,0.231445
138318974415,0.638245,-0.120972,0.724121,0.231445
138318994464,0.638245,-0.121033,0.724121,0.231445
138319030388,0.638367,-0.12085,0.724121,0.231262
138319040451,0.638367,-0.12085,0.72406,0.231262
138319062468,0.638367,-0.12085,0.72406,0.231262
138319076045,0.638367,-0.12085,0.72406,0.231262
138319091010,0.638367,-0.120911,0.72406,0.231262
138319113519,0.638367,-0.120911,0.72406,0.231262
138319135961,0.638367,-0.120911,0.72406,0.231262
138319151012,0.638367,-0.12085,0.72406,0.231262
138319173504,0.638367,-0.12085,0.72406,0.231262
138319196065,0.638367,-0.120911,0.72406,0.231262
138319210958,0.638306,-0.120728,0.724182,0.231262
138319233487,0.638123,-0.120728,0.724304,0.231262
138319255994,0.638062,-0.120789,0.724365,0.231323
138319271019,0.637878,-0.120789,0.724487,0.231445
138319293462,0.637756,-0.120728,0.724548,0.231567
138319316021,0.637634,-0.12085,0.724548,0.231873
138319339199,0.637329,-0.121216,0.72467,0.232117
138319353468,0.637085,-0.12146,0.724792,0.232239
138319375935,0.636902,-0.121521,0.724915,0.232422
138319390947,0.63678,-0.121765,0.724915,0.232605
138319413474,0.636475,-0.121948,0.725037,0.232849
138319435933,0.63623,-0.122009,0.725159,0.233154
138319450944,0.635925,-0.122192,0.725342,0.233398
138319481623,0.635559,-0.122253,0.725586,0.233582
138319496001,0.635132,-0.121948,0.725891,0.233826
138319510952,0.634766,-0.121643,0.726196,0.234131
138319533462,0.634277,-0.121338,0.726562,0.234558
138319555998,0.633789,-0.12085,0.726929,0.234863
138319570962,0.633179,-0.120728,0.727356,0.235229
138319593462,0.632629,-0.1203,0.727783,0.235657
138319615984,0.632202,-0.11969,0.728088,0.236206
138319630994,0.631653,-0.119263,0.728455,0.236816
138319653503,0.631042,-0.118896,0.728821,0.237366
138319676009,0.630493,-0.118347,0.729248,0.237854
138319690981,0.629944,-0.117371,0.729675,0.238403
138319713477,0.629333,-0.116638,0.730103,0.239075
138319727839,0.628662,-0.115967,0.730591,0.239746
138319750971,0.628113,-0.115112,0.731018,0.240234
138319773512,0.627563,-0.114441,0.731445,0.240906
138319787835,0.627014,-0.113831,0.73175,0.241577
138319810970,0.626465,-0.113403,0.732056,0.242188
138319834898,0.625977,-0.113159,0.7323,0.242798
138319847821,0.62561,-0.112854,0.732544,0.243347
138319870981,0.625183,-0.112488,0.732788,0.243774
138319894908,0.625305,-0.111023,0.732849,0.243958
138319907821,0.625244,-0.110229,0.732849,0.244507
138319930973,0.624939,-0.10968,0.733093,0.24469
138319953453,0.624939,-0.108398,0.733337,0.244629
138319967806,0.625305,-0.106079,0.733337,0.24469
138319990937,0.625366,-0.10498,0.733398,0.244812
138320013497,0.625366,-0.103821,0.733704,0.244507
138320029240,0.625366,-0.102356,0.733887,0.244446
138320052902,0.625244,-0.100952,0.734131,0.244568
138320073490,0.62561,-0.09729,0.734497,0.244019
138320095979,0.625977,-0.093689,0.735046,0.242859
138320112477,0.625732,-0.0911865,0.735718,0.242432
138320133617,0.625549,-0.0894775,0.735901,0.24292
138320155797,0.625488,-0.0878296,0.736145,0.242981
138320172463,0.625244,-0.086853,0.736328,0.243286
138320193575,0.624878,-0.0856323,0.736694,0.243652
138320209339,0.624268,-0.0838013,0.737488,0.24353
138320232494,0.623718,-0.0820923,0.73822,0.243347
138320253517,0.623352,-0.0803833,0.738647,0.24353
138320269266,0.623047,-0.0791626,0.738892,0.243774
138320293933,0.622742,-0.0786133,0.739136,0.24408
138320313548,0.62262,-0.0784912,0.739197,0.244324
138320329315,0.622314,-0.0786743,0.739319,0.244568
138320352475,0.622131,-0.0791626,0.73938,0.244751
138320373497,0.62207,-0.079834,0.739319,0.244873
138320397495,0.62207,-0.0805664,0.739136,0.245239
138320412454,0.62207,-0.0819702,0.738892,0.245483
138320433529,0.622253,-0.0839844,0.738403,0.245911
138320449308,0.622253,-0.0864868,0.737976,0.246216
138320472459,0.62207,-0.0895996,0.737854,0.246033
138320493570,0.621887,-0.0915527,0.737976,0.245361
138320509302,0.621887,-0.0925293,0.737915,0.245117
138320532450,0.622009,-0.0932617,0.737732,0.245117
138320553516,0.622131,-0.0940552,0.737488,0.245178
138320569348,0.622253,-0.0950317,0.737244,0.2453
138320592470,0.622375,-0.0961914,0.737,0.245178
138320613613,0.622559,-0.0970459,0.736755,0.245178
138320629339,0.622559,-0.0982666,0.736572,0.2453
138320651844,0.622314,-0.0997314,0.736511,0.2453
138320673568,0.62207,-0.100952,0.736633,0.2453
138320689270,0.621582,-0.101929,0.736877,0.2453
138320711759,0.621277,-0.102966,0.737122,0.244934
138320733538,0.620911,-0.103577,0.737549,0.244202
138320749286,0.620728,-0.104248,0.737671,0.244141
138320771789,0.620728,-0.104797,0.737854,0.243408
138320793521,0.62085,-0.105652,0.737732,0.243042
138320809246,0.62085,-0.106567,0.73761,0.24292
138320831816,0.621094,-0.106812,0.737549,0.242493
138320854927,0.621216,-0.107056,0.737488,0.242188
138320869302,0.621155,-0.107666,0.737427,0.242126
138320891783,0.621155,-0.10791,0.737488,0.241882
138320914951,0.621338,-0.10791,0.737488,0.241577
138320929274,0.62146,-0.108093,0.737427,0.241455
138320951742,0.621399,-0.108337,0.737427,0.241272
138320974965,0.621521,-0.108398,0.737427,0.241089
138320989276,0.621521,-0.108521,0.737427,0.240967
138321011828,0.621582,-0.108704,0.737366,0.240906
138321034987,0.621582,-0.108704,0.737366,0.240906
138321049300,0.621582,-0.108704,0.737366,0.240906
138321071783,0.621582,-0.108704,0.737366,0.240906
138321094981,0.621582,-0.108887,0.737366,0.240845
138321109281,0.621582,-0.108887,0.737366,0.240845
138321131832,0.621521,-0.108887,0.737366,0.240845
138321154989,0.621521,-0.108887,0.737366,0.240845
138321177496,0.62146,-0.109131,0.737427,0.240845
138321191809,0.62146,-0.109131,0.737427,0.240845
138321229930,0.621399,-0.109131,0.737427,0.240845
138321232310,0.621399,-0.109131,0.737427,0.240845
138321251844,0.621399,-0.109131,0.737427,0.240845
138321274968,0.621399,-0.109131,0.737488,0.240845
138321289334,0.621399,-0.109436,0.737427,0.240784
138321311823,0.621399,-0.109436,0.737427,0.240784
138321341110,0.621399,-0.109436,0.737427,0.240845
138321356029,0.62146,-0.109802,0.737305,0.240845
138321371872,0.62146,-0.110168,0.737244,0.240967
138321395014,0.621338,-0.110596,0.737244,0.241028
138321416046,0.621399,-0.110901,0.737122,0.241028
138321432306,0.621399,-0.111328,0.737061,0.241089
138321454974,0.621338,-0.111877,0.737,0.24115
138321476019,0.621338,-0.112244,0.737,0.241028
138321491801,0.621338,-0.112244,0.737,0.241028
138321515066,0.621277,-0.112549,0.737,0.241028
138321536102,0.621216,-0.112732,0.737061,0.240845
138321559999,0.621155,-0.112976,0.737122,0.240662
138321574295,0.621033,-0.113098,0.737305,0.240417
138321596025,0.620972,-0.113159,0.737427,0.240234
138321618563,0.620789,-0.113281,0.73761,0.240051
138321634383,0.620789,-0.113342,0.73761,0.23999
138321656082,0.620728,-0.113281,0.737732,0.239807
138321671863,0.620728,-0.113403,0.737793,0.239624
138321702452,0.620728,-0.113586,0.737854,0.23938
138321716529,0.620667,-0.113525,0.737854,0.239441
138321731800,0.620667,-0.113708,0.737915,0.239197
138321762545,0.620667,-0.11377,0.738037,0.238892
138321783629,0.620728,-0.113525,0.738159,0.238464
138321791891,0.620789,-0.11322,0.73822,0.238159
138321814312,0.62085,-0.113159,0.738281,0.237976
138321837513,0.62085,-0.11322,0.738342,0.237732
138321851849,0.620972,-0.113159,0.738342,0.237366
138321874301,0.621094,-0.112976,0.738342,0.237
138321897439,0.621155,-0.112976,0.738342,0.237
138321911853,0.621155,-0.112793,0.738403,0.236877
138321934309,0.621155,-0.112793,0.738403,0.236877
138321957514,0.621155,-0.112793,0.738403,0.236877
138321971833,0.621094,-0.112793,0.738403,0.236877
138321995762,0.621094,-0.112793,0.738464,0.236877
138322017486,0.621094,-0.112793,0.738464,0.236877
138322047489,0.621094,-0.112793,0.738464,0.236877
138322062542,0.621094,-0.112793,0.738464,0.236877
138322077559,0.620972,-0.112976,0.738464,0.237
138322099939,0.620972,-0.113159,0.738464,0.237122
138322114288,0.620911,-0.113159,0.738464,0.237122
138322145001,0.620911,-0.113281,0.738403,0.237244
138322151805,0.620972,-0.113525,0.738342,0.237183
138322174282,0.621216,-0.113098,0.738281,0.237
138322212340,0.621765,-0.110596,0.738159,0.237
138322214827,0.622986,-0.109009,0.737427,0.236816
138322234289,0.623779,-0.107666,0.737244,0.235901
138322257466,0.624756,-0.104797,0.737305,0.234436
138322278630,0.625305,-0.102478,0.737427,0.233643
138322294374,0.625122,-0.101379,0.737915,0.233215
138322317463,0.625244,-0.100281,0.738281,0.232178
138322340044,0.625122,-0.0993042,0.738586,0.231873
138322354315,0.624756,-0.0986328,0.738953,0.231995
138322378163,0.624695,-0.0980225,0.739319,0.231323
138322398550,0.62439,-0.0979004,0.739563,0.231323
138322414276,0.624084,-0.0984497,0.739807,0.231201
138322437451,0.624023,-0.098877,0.739868,0.230896
138322458640,0.624268,-0.098999,0.739563,0.23114
138322474386,0.624695,-0.0993652,0.739014,0.231567
138322496868,0.625305,-0.100342,0.738281,0.231812
138322518571,0.625916,-0.101135,0.737671,0.231934
138322534303,0.626465,-0.102478,0.737061,0.231628
138322556849,0.626953,-0.104065,0.736633,0.23114
138322578491,0.62738,-0.105103,0.736267,0.23053
138322594294,0.627563,-0.105164,0.736389,0.229736
138322616796,0.627563,-0.105042,0.736633,0.228821
138322645996,0.627502,-0.105042,0.736877,0.228271
138322654357,0.627258,-0.104919,0.737305,0.2276
138322676786,0.626953,-0.104614,0.737976,0.22644
138322700417,0.626709,-0.104065,0.738403,0.226013
138322714363,0.626526,-0.103699,0.73877,0.225464
138322727950,0.626465,-0.103577,0.738953,0.225098
138322759288,0.626648,-0.103516,0.738892,0.224976
138322781793,0.62677,-0.10376,0.73877,0.224731
138322787891,0.627136,-0.103943,0.738464,0.224609
138322810426,0.627502,-0.104309,0.738159,0.224548
138322833603,0.627686,-0.104492,0.737976,0.224487
138322847955,0.62793,-0.104614,0.737793,0.224365
138322871843,0.628113,-0.104858,0.73761,0.224426
138322893542,0.628113,-0.104553,0.737671,0.224182
138322907896,0.628174,-0.104126,0.737793,0.223938
138322930456,0.628174,-0.104126,0.737793,0.223938
138322954083,0.628479,-0.103943,0.737671,0.223572
138322967924,0.628723,-0.103821,0.737427,0.223755
138322990415,0.628845,-0.104248,0.737366,0.223389
138323013621,0.629211,-0.103821,0.737244,0.222961
138323036074,0.629639,-0.102905,0.737061,0.222778
138323051808,0.630127,-0.102539,0.736694,0.222778
138323073573,0.630859,-0.101929,0.736206,0.222595
138323087904,0.631348,-0.101501,0.73584,0.222595
138323111801,0.631836,-0.101501,0.735413,0.222534
138323133504,0.632324,-0.10144,0.735046,0.222534
138323147855,0.63269,-0.101257,0.73468,0.222717
138323170418,0.632812,-0.10083,0.734619,0.222839
138323201733,0.632812,-0.100769,0.734619,0.2229
138323207890,0.632629,-0.101074,0.734619,0.223145
138323230448,0.632629,-0.101318,0.734497,0.22345
138323254294,0.632568,-0.101807,0.734497,0.22345
138323268032,0.632568,-0.102173,0.734497,0.223145
138323290464,0.632751,-0.101929,0.734436,0.223206
138323313560,0.632812,-0.101562,0.734375,0.223206
138323327940,0.632935,-0.101318,0.734375,0.223083
138323350420,0.632996,-0.101074,0.734253,0.223206
138323373521,0.632996,-0.100708,0.734375,0.223145
138323387888,0.633057,-0.100281,0.734375,0.223145
138323410460,0.63324,-0.0996094,0.734253,0.223389
138323433538,0.633301,-0.0990601,0.734253,0.22345
138323449310,0.633362,-0.0986328,0.734253,0.223389
138323470399,0.633362,-0.0986328,0.734253,0.223389
138323493317,0.633301,-0.0985718,0.734253,0.223389
138323507928,0.633362,-0.0985718,0.734253,0.22345
138323530411,0.633301,-0.0985718,0.734314,0.22345
138323553568,0.633301,-0.0986938,0.734192,0.223633
138323567855,0.633362,-0.098938,0.73407,0.223816
138323590386,0.633606,-0.0990601,0.733826,0.223938
138323613540,0.633728,-0.0993042,0.733582,0.224182
138323627987,0.633789,-0.0996704,0.733459,0.224304
138323658601,0.633789,-0.0999756,0.733398,0.224365
138323673003,0.633667,-0.100281,0.733459,0.224426
138323688046,0.633667,-0.100586,0.733398,0.224487
138323718379,0.633606,-0.10083,0.733337,0.22467
138323733030,0.633545,-0.101257,0.733276,0.224976
138323747947,0.633484,-0.102051,0.733093,0.22522
138323770423,0.633484,-0.103394,0.73291,0.225403
138323792947,0.633484,-0.104553,0.732666,0.225647
138323809371,0.633179,-0.105347,0.732727,0.225769
138323830382,0.632812,-0.105774,0.733032,0.225769
138323852991,0.632446,-0.105652,0.733276,0.225891
138323867885,0.632263,-0.105408,0.733521,0.225769
138323890396,0.632141,-0.105469,0.733582,0.226013
138323913006,0.632202,-0.105591,0.733459,0.226257
138323928046,0.632385,-0.105896,0.733215,0.226318
138323950475,0.63269,-0.106689,0.732849,0.226257
138323972882,0.633179,-0.108032,0.732239,0.226196
138323987860,0.633728,-0.109802,0.731445,0.226318
138324010368,0.634155,-0.112122,0.730652,0.226624
138324032974,0.634338,-0.114563,0.72998,0.226929
138324056077,0.634155,-0.116882,0.729675,0.227356
138324070463,0.633911,-0.118652,0.729431,0.227966
138324092899,0.633301,-0.119507,0.729553,0.228699
138324110844,0.633667,-0.115662,0.730103,0.227905
138324130482,0.634155,-0.113586,0.730591,0.226135
138324153034,0.633606,-0.109863,0.731689,0.225952
138324169410,0.633484,-0.106995,0.732544,0.224915
138324198619,0.633545,-0.104675,0.733093,0.223816
138324212948,0.633728,-0.103394,0.732727,0.225159
138324227997,0.633972,-0.102173,0.732727,0.225037
138324251901,0.634094,-0.101501,0.732727,0.225159
138324281795,0.634094,-0.101257,0.732544,0.225647
138324287917,0.634094,-0.100952,0.732666,0.225525
138324310426,0.633972,-0.100769,0.732788,0.225342
138324334341,0.633911,-0.100281,0.732849,0.225708
138324347925,0.634033,-0.0993042,0.73291,0.225586
138324370495,0.633789,-0.098999,0.733154,0.225525
138324392942,0.634033,-0.0979614,0.733093,0.225586
138324409439,0.634277,-0.0965576,0.732971,0.225952
138324438653,0.634399,-0.0956421,0.732971,0.226013
138324453029,0.634521,-0.0949707,0.73291,0.226135
138324476139,0.634644,-0.0942993,0.732788,0.226379
138324490457,0.634827,-0.09375,0.732605,0.226685
138324513039,0.634827,-0.093689,0.732605,0.226746
138324529408,0.634949,-0.0936279,0.732544,0.226501
138324550450,0.635132,-0.0935059,0.732483,0.226379
138324572960,0.635254,-0.093811,0.7323,0.226379
138324590807,0.635437,-0.0944824,0.732117,0.226318
138324610415,0.635742,-0.0953369,0.73175,0.226257
138324632927,0.635986,-0.0966187,0.731323,0.22644
138324649407,0.636047,-0.0986328,0.731018,0.226379
138324670414,0.636047,-0.10083,0.730713,0.226318
138324701087,0.636047,-0.102844,0.730408,0.226379
138324709381,0.635925,-0.104919,0.730103,0.226685
138324730415,0.635681,-0.107178,0.729858,0.227112
138324752944,0.635315,-0.109558,0.729797,0.227234
138324769425,0.634949,-0.111572,0.729797,0.227356
138324790438,0.634583,-0.113464,0.729797,0.227539
138324812984,0.634277,-0.115234,0.729736,0.2276
138324829358,0.634155,-0.116211,0.729736,0.227539
138324850506,0.634216,-0.116821,0.729553,0.227539
138324873046,0.634033,-0.117737,0.729553,0.227539
138324895435,0.634033,-0.118408,0.729553,0.227356
138324926772,0.633972,-0.118835,0.729553,0.227051
138324933040,0.634216,-0.119324,0.72937,0.226868
138324949451,0.634338,-0.119873,0.729187,0.226868
138324971986,0.634521,-0.120117,0.729004,0.226746
138325001129,0.634705,-0.1203,0.728882,0.226562
138325009361,0.634827,-0.120789,0.728699,0.226501
138325031997,0.635071,-0.121094,0.728516,0.226379
138325054416,0.635254,-0.121338,0.728333,0.226135
138325069420,0.635498,-0.121765,0.728088,0.226074
138325090433,0.635742,-0.122009,0.727905,0.225891
138325112995,0.635986,-0.122253,0.727661,0.225769
138325135517,0.636169,-0.122559,0.727539,0.225708
138325166745,0.636414,-0.122864,0.727295,0.225464
138325173032,0.636658,-0.123047,0.727112,0.225281
138325196864,0.636841,-0.123291,0.726929,0.22522
138325210414,0.636963,-0.123596,0.726807,0.225098
138325232993,0.637146,-0.123779,0.726624,0.224915
138325258382,0.63739,-0.124084,0.726501,0.22467
138325270475,0.637634,-0.124207,0.726318,0.224426
138325293011,0.637878,-0.12439,0.726135,0.224182
138325309410,0.638123,-0.124512,0.725952,0.22406
138325330478,0.638306,-0.124756,0.72583,0.223877
138325353058,0.638428,-0.125061,0.725647,0.223755
138325370848,0.638672,-0.125305,0.725464,0.223633
138325391884,0.638855,-0.125427,0.725342,0.223572
138325413029,0.638977,-0.125732,0.725159,0.223511
138325429444,0.639038,-0.126038,0.725098,0.223389
138325451941,0.639282,-0.12616,0.724915,0.223267
138325472978,0.639343,-0.126343,0.724792,0.223206
138325489390,0.639343,-0.126343,0.724854,0.223206
138325511984,0.639282,-0.126343,0.724854,0.223206
138325534432,0.639282,-0.126343,0.724854,0.223206
138325550815,0.639282,-0.126343,0.724854,0.223206
138325571895,0.639282,-0.126343,0.724854,0.223267
138325592993,0.639282,-0.126343,0.724854,0.223267
138325616939,0.639282,-0.126343,0.724854,0.223267
138325632003,0.639282,-0.126343,0.724854,0.223267
138325652992,0.639282,-0.126343,0.724854,0.223267
138325669441,0.639282,-0.126282,0.724854,0.223267
138325691967,0.639282,-0.126282,0.724854,0.223267
138325712988,0.639282,-0.126282,0.724854,0.223267
138325729458,0.639282,-0.126282,0.724915,0.223267
138325751991,0.639221,-0.126282,0.724915,0.223328
138325772967,0.639221,-0.126282,0.724915,0.223328
138325789452,0.639221,-0.126282,0.724915,0.223328
138325811951,0.639221,-0.126282,0.724915,0.223328
138325833034,0.639221,-0.126221,0.724915,0.223328
138325849469,0.639221,-0.126221,0.724915,0.223328
138325871974,0.639221,-0.126221,0.724915,0.223328
138325892993,0.639221,-0.126221,0.724915,0.223389
138325909369,0.639221,-0.126221,0.724915,0.223328
138325931963,0.639221,-0.126221,0.724915,0.223328
138325953024,0.639221,-0.126221,0.724915,0.223328
138325970066,0.639221,-0.126221,0.724915,0.223328
138325999479,0.639221,-0.126221,0.724915,0.223389
138326012955,0.63916,-0.126221,0.724915,0.223389
138326029329,0.63916,-0.126221,0.724915,0.223389
138326051970,0.63916,-0.126221,0.724915,0.223389
138326072993,0.63916,-0.126221,0.724976,0.223389
138326090930,0.63916,-0.126221,0.724976,0.223389
138326111961,0.63916,-0.126221,0.724976,0.223389
138326141213,0.63916,-0.126221,0.724976,0.223389
138326156988,0.63916,-0.126221,0.724976,0.223389
138326171953,0.63916,-0.126221,0.724976,0.223389
138326192965,0.63916,-0.126221,0.724915,0.223389
138326209326,0.639221,-0.12616,0.724915,0.223389
138326231934,0.63916,-0.12616,0.724915,0.223389
138326252978,0.63916,-0.12616,0.724915,0.223389
138326269405,0.63916,-0.12616,0.724915,0.223389
138326291920,0.63916,-0.12616,0.724915,0.22345
138326314365,0.63916,-0.126404,0.724854,0.223572
138326336909,0.63916,-0.126648,0.724792,0.223633
138326351949,0.63916,-0.126831,0.724731,0.223755
138326373660,0.639099,-0.127197,0.72467,0.223877
138326388580,0.639099,-0.127197,0.72467,0.223877
138326411124,0.639099,-0.127197,0.72467,0.223816
138326433590,0.639099,-0.127197,0.72467,0.223816
138326448586,0.639099,-0.127197,0.72467,0.223816
138326478563,0.639099,-0.127197,0.72467,0.223816
138326493599,0.639099,-0.127197,0.72467,0.223816
138326510029,0.639099,-0.127197,0.72467,0.223816
138326532553,0.639099,-0.12616,0.724854,0.223999
138326553681,0.639587,-0.125,0.724731,0.223572
138326570056,0.639587,-0.124756,0.724854,0.223328
138326591091,0.639282,-0.12439,0.725281,0.223022
138326613710,0.639221,-0.125305,0.725159,0.2229
138326630136,0.639221,-0.126038,0.724976,0.223389
138326651192,0.638916,-0.127563,0.724792,0.223755
138326673648,0.639038,-0.12854,0.724365,0.224304
138326690026,0.639282,-0.1297,0.723938,0.224182
138326711125,0.639648,-0.13031,0.723572,0.22406
138326733640,0.639709,-0.13092,0.723145,0.224854
138326750148,0.639465,-0.131897,0.723022,0.225525
138326770920,0.63916,-0.132751,0.723022,0.22583
138326793670,0.639099,-0.132874,0.723083,0.225769
138326810091,0.639526,-0.132751,0.7229,0.225281
138326832590,0.640076,-0.132874,0.722351,0.225342
138326853629,0.640686,-0.133423,0.721497,0.226013
138326870134,0.641479,-0.133667,0.720581,0.226379
138326891125,0.641968,-0.134033,0.720093,0.226501
138326913780,0.6427,-0.134094,0.719666,0.225708
138326930087,0.643921,-0.13269,0.718628,0.226318
138326951147,0.644531,-0.13269,0.717468,0.228271
138326973737,0.645142,-0.132935,0.716797,0.228516
138326990091,0.646484,-0.13269,0.715454,0.229065
138327011203,0.64679,-0.13324,0.7146,0.230591
138327033671,0.647827,-0.133362,0.71344,0.231262
138327057618,0.64978,-0.131348,0.711548,0.232666
138327071179,0.6521,-0.130432,0.708618,0.235596
138327101146,0.653259,-0.131104,0.706299,0.239014
138327109384,0.653992,-0.131897,0.704834,0.240906
138327131197,0.656799,-0.125671,0.704651,0.237
138327153715,0.658997,-0.122314,0.703613,0.235779
138327169488,0.660767,-0.120544,0.703186,0.233154
138327191146,0.662598,-0.120361,0.701843,0.231873
138327213668,0.664673,-0.121826,0.700134,0.230286
138327229504,0.667542,-0.122803,0.697754,0.22876
138327251205,0.670471,-0.124268,0.695312,0.226868
138327273632,0.673584,-0.125244,0.692688,0.225098
138327289503,0.676147,-0.126831,0.690491,0.223206
138327311209,0.678467,-0.128906,0.688232,0.222107
138327333668,0.68042,-0.132019,0.685974,0.221252
138327349414,0.6828,-0.134094,0.683716,0.219666
138327371216,0.685669,-0.136353,0.68103,0.217712
138327393648,0.688782,-0.139587,0.677856,0.215759
138327409463,0.692566,-0.142273,0.674194,0.213196
138327440102,0.696655,-0.145935,0.670227,0.2099
138327453676,0.701233,-0.148499,0.665833,0.206787
138327469435,0.70636,-0.151367,0.661255,0.202087
138327492608,0.711975,-0.15387,0.656311,0.196533
138327513666,0.717773,-0.155823,0.651367,0.190308
138327529478,0.723267,-0.159302,0.646484,0.182983
138327558631,0.728882,-0.162292,0.641907,0.174011
138327573651,0.734802,-0.164734,0.63678,0.165283
138327589447,0.740723,-0.167358,0.63147,0.156433
138327612568,0.746887,-0.168945,0.625977,0.147034
138327633665,0.752808,-0.172119,0.620605,0.135681
138327649427,0.75946,-0.174805,0.61377,0.126038
138327672614,0.766602,-0.177185,0.605957,0.117126
138327693637,0.777527,-0.180847,0.592957,0.105347
138327709466,0.790588,-0.179077,0.578613,0.0893555
138327732587,0.804321,-0.175232,0.563049,0.0724487
138327753705,0.817383,-0.178894,0.5448,0.0550537
138327769493,0.830505,-0.181091,0.525391,0.036377
138327792612,0.840271,-0.186401,0.50824,0.0286865
138327813707,0.843506,-0.189453,0.501404,0.032959
138327829472,0.846741,-0.189575,0.496338,0.0253296
138327852642,0.845581,-0.18042,0.501648,0.026001
138327873645,0.842651,-0.173401,0.508057,0.0405273
138327889483,0.833313,-0.171509,0.522217,0.0580444
138327912663,0.822388,-0.156128,0.543091,0.0651855
138327941138,0.804932,-0.143311,0.570557,0.0769043
138327949500,0.783875,-0.126709,0.600586,0.0934448
138327972639,0.758972,-0.108887,0.631897,0.112732
138327993682,0.732239,-0.0881348,0.661804,0.134155
138328009420,0.703125,-0.0692139,0.689819,0.157654
138328032604,0.67218,-0.0545044,0.714294,0.18689
138328053734,0.639404,-0.0432129,0.736755,0.215393
138328069450,0.605469,-0.036377,0.758057,0.239441
138328092592,0.572388,-0.0300293,0.777039,0.26001
138328113656,0.542175,-0.0245972,0.794312,0.272705
138328129405,0.514832,-0.0198975,0.809326,0.281921
138328152636,0.490967,-0.0167847,0.822693,0.285889
138328175142,0.470398,-0.0195312,0.83252,0.291931
138328189502,0.454224,-0.0296631,0.83728,0.302795
138328212000,0.447876,-0.0343018,0.838989,0.306885
138328233667,0.448975,-0.0321655,0.839844,0.303284
138328249398,0.475159,-0.0430298,0.828064,0.294312
138328280181,0.482544,-0.031311,0.828003,0.28363
138328293718,0.478882,-0.0517578,0.82489,0.295837
138328309514,0.543457,-0.0499878,0.789307,0.281128
138328331960,0.526855,-0.0403442,0.795593,0.296265
138328353732,0.528809,-0.0567017,0.791443,0.301086
138328369476,0.547913,-0.0679321,0.780701,0.292542
138328391977,0.552429,-0.0839844,0.776978,0.289673
138328415142,0.563965,-0.0827026,0.766968,0.294495
138328429467,0.571167,-0.0752563,0.760986,0.298218
138328451981,0.574463,-0.0809326,0.756165,0.302551
138328475138,0.582642,-0.0802612,0.751831,0.297852
138328489491,0.589661,-0.0792236,0.746826,0.296936
138328511961,0.596191,-0.0808105,0.743408,0.291992
138328535124,0.602905,-0.0809326,0.740234,0.286255
138328549476,0.610107,-0.0808716,0.736938,0.279297
138328572018,0.616333,-0.0858765,0.734436,0.270752
138328595094,0.621948,-0.0924072,0.731628,0.263245
138328609452,0.628845,-0.0975342,0.727417,0.256531
138328631930,0.63562,-0.100952,0.72168,0.254761
138328655162,0.641602,-0.107178,0.716248,0.252319
138328676174,0.6474,-0.113464,0.710938,0.249939
138328691961,0.653259,-0.118958,0.705688,0.247131
138328721183,0.658813,-0.125305,0.700562,0.243835
138328736232,0.664551,-0.131226,0.694946,0.241028
138328752015,0.670776,-0.136169,0.68927,0.237305
138328775095,0.676819,-0.141724,0.683472,0.233704
138328796202,0.683472,-0.147217,0.677124,0.229309
138328811957,0.690918,-0.151917,0.670227,0.224182
138328835109,0.698486,-0.15741,0.663147,0.218018
138328856205,0.706482,-0.162659,0.655945,0.209961
138328872079,0.715271,-0.167603,0.647644,0.201782
138328895152,0.724243,-0.172791,0.638977,0.192932
138328916199,0.733398,-0.17688,0.630493,0.182373
138328932005,0.744568,-0.179565,0.619995,0.169922
138328955111,0.755737,-0.181091,0.609985,0.154541
138328976090,0.768066,-0.18396,0.597839,0.136963
138328991925,0.781433,-0.184448,0.584229,0.118225
138329015118,0.796387,-0.183105,0.567932,0.0984497
138329036222,0.811462,-0.181824,0.550354,0.0740356
138329051955,0.825134,-0.188538,0.529724,0.0545044
138329075127,0.843018,-0.189819,0.501587,0.0401611
138329096185,0.85968,-0.195801,0.471008,0.0264282
138329111936,0.857605,-0.197571,0.47406,0.0252075
138329134424,0.854248,-0.203735,0.477966,0.0128174
138329156144,0.859497,-0.202271,0.468689,0.0250854
138329171954,0.84845,-0.201782,0.48822,0.03125
138329194504,0.838501,-0.204407,0.503113,0.0447998
138329216188,0.828247,-0.184937,0.526367,0.0513916
138329232000,0.812439,-0.173645,0.552734,0.0650024
138329254480,0.793213,-0.160095,0.580322,0.0910645
138329276190,0.770813,-0.142029,0.610779,0.111816
138329291983,0.74646,-0.122925,0.639343,0.137451
138329314480,0.719055,-0.104004,0.666199,0.167908
138329337628,0.688049,-0.0864258,0.691833,0.200867
138329351995,0.653931,-0.0724487,0.715942,0.233398
138329374464,0.617554,-0.0608521,0.739075,0.262024
138329397573,0.580505,-0.0505371,0.760742,0.285645
138329411998,0.547913,-0.0359497,0.779053,0.302429
138329434458,0.518555,-0.0198364,0.795776,0.311951
138329457633,0.494263,-0.00628662,0.810303,0.314575
138329471995,0.470947,0.00164795,0.821594,0.321045
138329494425,0.454712,0.000366211,0.828003,0.327942
138329517555,0.454895,0.00177002,0.830505,0.321289
138329531983,0.466187,-0.00500488,0.824524,0.320435
138329554460,0.480835,0,0.818726,0.313721
138329577623,0.47699,-0.0317993,0.811401,0.336121
138329598837,0.51886,-0.0514526,0.787354,0.328796
138329614459,0.51062,-0.0830078,0.790894,0.326721
138329637577,0.525696,-0.106201,0.782898,0.315308
138329658649,0.523926,-0.103271,0.786316,0.310486
138329674462,0.531433,-0.110291,0.778015,0.316284
138329697615,0.538757,-0.112366,0.773071,0.315247
138329718689,0.547485,-0.111511,0.770081,0.307739
138329734461,0.552795,-0.115173,0.76416,0.311646
138329757581,0.561584,-0.113281,0.759155,0.308838
138329778660,0.569763,-0.115662,0.754883,0.303406
138329794480,0.576111,-0.12146,0.750305,0.300415
138329817633,0.582886,-0.125244,0.746643,0.294861
138329838674,0.589355,-0.128601,0.742188,0.29187
138329854427,0.59613,-0.132019,0.737305,0.28894
138329877606,0.603516,-0.134766,0.732727,0.283875
138329898654,0.611023,-0.137634,0.7276,0.279724
138329914403,0.618103,-0.141052,0.722778,0.274841
138329937665,0.625183,-0.144043,0.717834,0.270203
138329958691,0.632263,-0.147278,0.712769,0.265503
138329974507,0.638794,-0.150452,0.708008,0.260742
138329997617,0.645142,-0.15387,0.703247,0.255859
138330010503,0.651489,-0.156616,0.69873,0.250427
138330033664,0.658386,-0.158386,0.693665,0.245239
138330048007,0.665405,-0.161133,0.688171,0.23999
138330070494,0.672607,-0.164185,0.682495,0.234131
138330093655,0.680237,-0.167664,0.67627,0.227417
138330107998,0.688293,-0.170898,0.669739,0.219971
138330130507,0.696899,-0.174194,0.66272,0.211609
138330153665,0.705444,-0.177246,0.655579,0.202637
138330168040,0.714355,-0.179504,0.648438,0.192139
138330190534,0.722656,-0.18103,0.641968,0.180969
138330213440,0.731934,-0.180786,0.635254,0.167419
138330228001,0.741211,-0.179382,0.628662,0.1521
138330250526,0.75415,-0.177734,0.617737,0.134216
138330273700,0.768738,-0.176025,0.604065,0.114441
138330288038,0.784973,-0.172791,0.588013,0.0899658
138330310564,0.800171,-0.175659,0.569824,0.0644531
138330333709,0.816956,-0.176514,0.547363,0.0413818
138330348010,0.841431,-0.176025,0.510254,0.0236206
138330370558,0.858398,-0.181274,0.479614,0.0119629
138330393727,0.857971,-0.179565,0.48114,0.00878906
138330408043,0.858398,-0.191589,0.475769,-0.0032959
138330439366,0.845276,-0.196899,0.496582,-0.00360107
138330453719,0.8396,-0.183105,0.511292,-0.00665283
138330468055,0.833496,-0.18103,0.521423,0.0222778
138330490586,0.820801,-0.165649,0.545776,0.0303345
138330513709,0.803833,-0.141846,0.576538,0.0343018
138330528043,0.780396,-0.132751,0.609192,0.046814
138330550500,0.754517,-0.119934,0.640503,0.0773315
138330573741,0.729126,-0.100708,0.669983,0.0963135
138330587988,0.702026,-0.0855713,0.696411,0.121338
138330610496,0.674316,-0.0721436,0.718567,0.153931
138330633689,0.643921,-0.0623169,0.739197,0.187195
138330648050,0.612305,-0.0537109,0.758667,0.215759
138330670533,0.580322,-0.0474854,0.775513,0.243896
138330693685,0.549011,-0.0422974,0.790405,0.268188
138330716274,0.52063,-0.0379028,0.803772,0.285278
138330730543,0.498413,-0.0308228,0.815247,0.293091
138330753757,0.481384,-0.0285645,0.822876,0.300476
138330768144,0.467773,-0.0307007,0.829163,0.304443
138330790599,0.468323,-0.0263062,0.830933,0.299072
138330813728,0.492615,-0.0327759,0.821106,0.286255
138330828050,0.500061,-0.0357056,0.818848,0.279358
138330850580,0.497864,-0.052002,0.813171,0.296753
138330873706,0.526855,-0.0537109,0.799927,0.281982
138330888067,0.525269,-0.0893555,0.795288,0.289062
138330910550,0.540649,-0.116638,0.783325,0.283569
138330941842,0.536133,-0.11499,0.787048,0.282593
138330948059,0.54303,-0.127747,0.77948,0.284851
138330979358,0.549866,-0.129211,0.772095,0.291077
138330993678,0.556091,-0.129639,0.769348,0.286377
138331008109,0.558716,-0.134155,0.765869,0.288391
138331030603,0.563843,-0.133545,0.76239,0.287964
138331053729,0.56958,-0.134216,0.759705,0.283386
138331068070,0.574829,-0.138733,0.75592,0.28064
138331090563,0.580078,-0.141663,0.752502,0.277649
138331113730,0.586426,-0.142334,0.748779,0.274048
138331128013,0.591553,-0.145569,0.744873,0.271912
138331150564,0.596985,-0.148804,0.740723,0.269592
138331173772,0.6026,-0.151611,0.736633,0.266785
138331188077,0.607544,-0.155457,0.732544,0.264709
138331210497,0.612244,-0.159729,0.728394,0.262634
138331233126,0.61676,-0.163818,0.724609,0.260132
138331248099,0.620422,-0.167908,0.721313,0.257996
138331270655,0.624146,-0.172241,0.718323,0.254272
138331293115,0.628479,-0.174927,0.715088,0.250977
138331308030,0.633484,-0.177795,0.711121,0.247559
138331330614,0.63855,-0.181335,0.70697,0.243835
138331353049,0.644348,-0.184204,0.702515,0.239441
138331368149,0.650513,-0.188171,0.69751,0.234192
138331390705,0.65741,-0.192322,0.691772,0.228333
138331413066,0.665344,-0.196899,0.68512,0.221497
138331428037,0.67395,-0.201904,0.677673,0.213867
138331450593,0.683289,-0.205566,0.669678,0.20575
138331473109,0.694458,-0.21051,0.659912,0.194641
138331488118,0.707214,-0.21167,0.650024,0.180115
138331510604,0.721863,-0.210632,0.638428,0.16394
138331533120,0.736938,-0.20813,0.626404,0.145569
138331548077,0.752441,-0.208313,0.61261,0.122681
138331570638,0.769348,-0.203308,0.598328,0.0933228
138331593102,0.785889,-0.190002,0.5849,0.0638428
138331608055,0.801941,-0.18042,0.567566,0.0461426
138331630613,0.813599,-0.180664,0.552002,0.0236206
138331653091,0.808899,-0.179932,0.559326,0.0206299
138331668074,0.810486,-0.176331,0.55835,0.0136719
138331690597,0.811707,-0.153381,0.563477,-0.00500488
138331713156,0.806091,-0.138611,0.575012,-0.0178833
138331728070,0.796692,-0.13208,0.589722,0.003479
138331750568,0.78772,-0.111389,0.605652,0.013916
138331773126,0.774719,-0.0930786,0.624878,0.0250854
138331788031,0.756592,-0.0780029,0.647827,0.0415649
138331810665,0.737732,-0.0637817,0.669678,0.055542
138331833156,0.719604,-0.0490723,0.688843,0.0717773
138331848096,0.701599,-0.0370483,0.705688,0.0911865
138331870592,0.682434,-0.0333862,0.721191,0.114075
138331893145,0.66626,-0.031189,0.733154,0.132446
138331908111,0.652954,-0.0322876,0.74231,0.146851
138331930664,0.651611,-0.0427246,0.742249,0.150391
138331953122,0.649719,-0.0579224,0.740967,0.159363
138331969534,0.660217,-0.0490112,0.735718,0.142761
138331990593,0.655884,-0.0552979,0.736633,0.15509
138332013138,0.654236,-0.0603027,0.737305,0.156799
138332029546,0.654968,-0.0744019,0.737061,0.148865
138332050560,0.653381,-0.0819092,0.737671,0.148743
138332073019,0.654236,-0.0783081,0.737305,0.148865
138332089503,0.653564,-0.0797729,0.737244,0.151245
138332110565,0.651428,-0.088562,0.73761,0.153687
138332133095,0.650757,-0.0901489,0.738098,0.153442
138332149562,0.650269,-0.0908203,0.73822,0.154419
138332170577,0.649109,-0.0940552,0.738831,0.154602
138332193136,0.648438,-0.0958252,0.739075,0.15509
138332209587,0.647888,-0.0958862,0.739563,0.155029
138332230628,0.647095,-0.0966797,0.740173,0.154785
138332253079,0.646423,-0.0974121,0.740601,0.155212
138332269592,0.645935,-0.0973511,0.740906,0.155579
138332290623,0.645752,-0.0973511,0.741028,0.155945
138332313155,0.645569,-0.0977173,0.740906,0.15686
138332329593,0.645752,-0.0985107,0.740601,0.157227
138332350629,0.645752,-0.0994263,0.740479,0.15741
138332373071,0.646118,-0.0999756,0.73999,0.157776
138332389568,0.646606,-0.10083,0.739441,0.157776
138332410542,0.647217,-0.10144,0.738831,0.157715
138332433098,0.647888,-0.101562,0.73822,0.157715
138332449517,0.64856,-0.10199,0.73761,0.157532
138332470653,0.649231,-0.102295,0.736938,0.157532
138332493064,0.650024,-0.102478,0.736267,0.157349
138332509585,0.650696,-0.102722,0.735718,0.157043
138332530626,0.651367,-0.102539,0.735229,0.156494
138332553148,0.6521,-0.102295,0.734741,0.156128
138332569583,0.652649,-0.102112,0.734314,0.155945
138332590565,0.653137,-0.102051,0.733948,0.155701
138332613105,0.653503,-0.101868,0.733643,0.155579
138332629464,0.653931,-0.101501,0.733337,0.155579
138332658768,0.654236,-0.101196,0.733093,0.15564
138332673060,0.654663,-0.100952,0.732727,0.15564
138332689574,0.654968,-0.10083,0.732422,0.155762
138332710619,0.655457,-0.100647,0.731995,0.155884
138332733176,0.655823,-0.100769,0.731628,0.156006
138332749565,0.65625,-0.100891,0.731201,0.156189
138332770647,0.656616,-0.10083,0.730835,0.156433
138332793132,0.656921,-0.100891,0.73053,0.156616
138332809565,0.657349,-0.100891,0.730103,0.156799
138332830630,0.657837,-0.100952,0.729614,0.156982
138332853094,0.658264,-0.101196,0.729187,0.157166
138332869580,0.658569,-0.101379,0.728821,0.157288
138332890617,0.659058,-0.10144,0.728333,0.157471
138332913121,0.659424,-0.101746,0.727905,0.157654
138332929590,0.65979,-0.102051,0.727539,0.157715
138332952091,0.660156,-0.102112,0.727112,0.157959
138332973140,0.660522,-0.102295,0.726746,0.158081
138332989648,0.660889,-0.102417,0.726379,0.158203
138333012137,0.661194,-0.102661,0.725952,0.158447
138333033143,0.661499,-0.102844,0.725647,0.158508
138333049610,0.661865,-0.102783,0.725281,0.158691
138333072095,0.66217,-0.102905,0.725037,0.158813
138333093111,0.662415,-0.102905,0.724731,0.158997
138333109578,0.662659,-0.102783,0.724548,0.159119
138333132061,0.662842,-0.102722,0.724304,0.159302
138333153136,0.663025,-0.102539,0.724121,0.159546
138333169569,0.663025,-0.102539,0.72406,0.159607
138333192065,0.663269,-0.102417,0.723877,0.159729
138333213181,0.663391,-0.102112,0.723755,0.15979
138333229571,0.663513,-0.101929,0.723694,0.159912
138333252120,0.663574,-0.101746,0.723572,0.160034
138333273205,0.663696,-0.101562,0.723511,0.160278
138333289616,0.663879,-0.101257,0.723328,0.160461
138333312050,0.664001,-0.100952,0.723145,0.160706
138333333073,0.664124,-0.100647,0.723022,0.16095
138333349547,0.664185,-0.100342,0.723022,0.161011
138333372064,0.664307,-0.0997925,0.722961,0.161194
138333393108,0.664368,-0.0993042,0.722961,0.161377
138333409557,0.664307,-0.0988159,0.723022,0.161499
138333432021,0.664307,-0.0981445,0.723083,0.161499
138333453068,0.664307,-0.0976562,0.723145,0.16156
138333469557,0.664368,-0.0973511,0.723206,0.161438
138333501026,0.664429,-0.0966797,0.723206,0.161377
138333513063,0.664429,-0.0961914,0.723267,0.161499
138333529525,0.664368,-0.0957642,0.723328,0.161621
138333552102,0.664307,-0.0952148,0.723511,0.161621
138333573119,0.664246,-0.0947266,0.723572,0.161682
138333589566,0.664185,-0.0941772,0.723694,0.161865
138333612065,0.664001,-0.093689,0.723877,0.161987
138333633141,0.66394,-0.0932007,0.723999,0.162109
138333649612,0.663818,-0.0927124,0.724121,0.162231
138333671291,0.663696,-0.0923462,0.724243,0.162354
138333693822,0.663574,-0.0918579,0.724365,0.162476
138333708827,0.663452,-0.0913086,0.724548,0.162537
138333731324,0.663391,-0.0907593,0.72467,0.162781
138333753827,0.663208,-0.090332,0.724854,0.162903
138333768791,0.663086,-0.0897827,0.724976,0.163025
138333791333,0.663025,-0.0892944,0.725098,0.163208
138333813768,0.662903,-0.0888672,0.72522,0.163269
138333828861,0.662781,-0.0884399,0.725342,0.163269
138333851274,0.662781,-0.0879517,0.725403,0.163269
138333873591,0.662659,-0.0875244,0.725525,0.16333
138333888824,0.662598,-0.0871582,0.725647,0.163452
138333911224,0.662415,-0.086792,0.72583,0.163513
138333933862,0.662231,-0.0863037,0.726074,0.163574
138333948738,0.662109,-0.0858154,0.726196,0.163757
138333971268,0.661865,-0.0855103,0.726379,0.163879
138333995180,0.661682,-0.085144,0.726562,0.164001
138334008753,0.661499,-0.0848389,0.726807,0.164062
138334031306,0.661316,-0.0845337,0.72699,0.164185
138334053754,0.661072,-0.0843506,0.727173,0.164246
138334070200,0.660889,-0.0841064,0.727356,0.164368
138334091292,0.660645,-0.0837402,0.7276,0.16449
138334113845,0.660522,-0.0834961,0.727783,0.16449
138334130292,0.660339,-0.0831909,0.727905,0.164551
138334151309,0.660217,-0.0830078,0.728027,0.164612
138334173798,0.660217,-0.0830078,0.728027,0.164612
138334190213,0.660156,-0.0829468,0.728088,0.164612
138334211278,0.660156,-0.0827026,0.728088,0.164673
138334233853,0.660156,-0.0826416,0.728088,0.164673
138334250243,0.660156,-0.0826416,0.728088,0.164734
138334272804,0.660156,-0.0823975,0.728149,0.164673
138334293796,0.660156,-0.0823975,0.728149,0.164673
138334310237,0.660156,-0.0823364,0.728149,0.164673
138334331362,0.660156,-0.0823364,0.728149,0.164673
138334353859,0.660156,-0.0823364,0.728149,0.164734
138334370263,0.660156,-0.0823364,0.728149,0.164734
138334391332,0.660156,-0.0822754,0.728149,0.164734
138334413805,0.660095,-0.0822754,0.728149,0.164795
138334430204,0.660156,-0.0822754,0.728149,0.164795
138334451297,0.660156,-0.0822754,0.728149,0.164795
138334473856,0.660156,-0.0819702,0.728149,0.164795
138334490288,0.660156,-0.0819702,0.728149,0.164856
138334511325,0.660156,-0.0819092,0.728149,0.164856
138334533794,0.660156,-0.081604,0.72821,0.164856
138334550716,0.660156,-0.081543,0.72821,0.164856
138334571350,0.660156,-0.081543,0.72821,0.164917
138334601286,0.660034,-0.0813599,0.728271,0.165039
138334610257,0.660095,-0.0811157,0.72821,0.165283
138334631299,0.660095,-0.0810547,0.728149,0.165588
138334653815,0.659973,-0.0809326,0.728149,0.165894
138334670229,0.659851,-0.0808716,0.72821,0.166199
138334691291,0.659668,-0.0806274,0.728333,0.166443
138334713906,0.659546,-0.0800781,0.728516,0.166565
138334730306,0.659302,-0.0797119,0.72876,0.166748
138334751318,0.659058,-0.0794678,0.729004,0.166809
138334773854,0.658752,-0.0791016,0.729248,0.166992
138334790268,0.658508,-0.0789795,0.729492,0.167114
138334811355,0.658264,-0.0788574,0.729675,0.167175
138334833845,0.65802,-0.0787354,0.729858,0.167358
138334849571,0.657898,-0.0787964,0.729919,0.167603
138334878836,0.657654,-0.0788574,0.730103,0.167664
138334893803,0.65741,-0.0786743,0.730347,0.167664
138334909565,0.657166,-0.0785522,0.730591,0.167603
138334931353,0.656799,-0.0784302,0.730896,0.167664
138334953775,0.656494,-0.0783081,0.731201,0.167603
138334969563,0.65625,-0.078186,0.731506,0.167542
138334991330,0.655945,-0.078186,0.73175,0.167542
138335013884,0.655579,-0.0783081,0.732056,0.167603
138335029625,0.655334,-0.0783081,0.7323,0.16748
138335052768,0.655151,-0.0780029,0.732483,0.167358
138335073801,0.655029,-0.078186,0.732605,0.167419
138335089625,0.654785,-0.0783081,0.732788,0.167358
138335112794,0.654663,-0.0784302,0.73291,0.167358
138335133844,0.654663,-0.0784302,0.73291,0.167358
138335157772,0.65448,-0.0785522,0.733032,0.167419
138335172833,0.654297,-0.0788574,0.733154,0.167603
138335193880,0.654114,-0.0791626,0.733276,0.167664
138335209590,0.654053,-0.0791016,0.733276,0.167664
138335233193,0.653931,-0.0792847,0.733398,0.167725
138335253856,0.653809,-0.0795288,0.733459,0.167969
138335269598,0.653687,-0.079895,0.733459,0.168213
138335292790,0.653625,-0.0801392,0.733398,0.168457
138335313796,0.653503,-0.0804443,0.733398,0.168701
138335329630,0.653442,-0.0808716,0.733337,0.169067
138335352808,0.653259,-0.0812988,0.733398,0.169312
138335373881,0.653076,-0.0814819,0.733582,0.16925
138335389645,0.653015,-0.0811768,0.733704,0.168945
138335412754,0.652954,-0.0812378,0.733826,0.168701
138335435281,0.65271,-0.081604,0.73407,0.168335
138335449688,0.652649,-0.081543,0.734253,0.167908
138335472797,0.652649,-0.0817871,0.734314,0.167542
138335493746,0.652649,-0.0823364,0.734253,0.16748
138335509638,0.652527,-0.0830688,0.734253,0.167664
138335532775,0.652405,-0.0837402,0.734131,0.168213
138335553912,0.652161,-0.0847168,0.73407,0.169189
138335569692,0.651794,-0.0857544,0.734009,0.170044
138335592800,0.651367,-0.0864868,0.734192,0.170776
138335613861,0.650879,-0.0871582,0.734314,0.171509
138335629595,0.65033,-0.0880127,0.734558,0.172241
138335658812,0.649902,-0.0886841,0.73468,0.172974
138335673903,0.649536,-0.0892334,0.734802,0.173523
138335689636,0.649353,-0.0894775,0.734802,0.17395
138335712792,0.649292,-0.0900269,0.734741,0.174255
138335733866,0.649292,-0.0905151,0.734619,0.174561
138335749635,0.649231,-0.0911865,0.734497,0.174744
138335772173,0.649231,-0.0913696,0.734436,0.174988
138335793866,0.649353,-0.0912476,0.734436,0.174744
138335809602,0.649475,-0.0909424,0.734375,0.174561
138335832148,0.649475,-0.0911865,0.734375,0.174377
138335853848,0.649597,-0.0913696,0.734375,0.174072
138335869640,0.64978,-0.0910645,0.734314,0.173706
138335892148,0.649841,-0.0910034,0.734314,0.173523
138335913849,0.649902,-0.0910034,0.734314,0.173279
138335929659,0.649963,-0.0909424,0.734375,0.172852
138335952102,0.650024,-0.0908203,0.734375,0.172546
138335975305,0.650085,-0.0907593,0.734436,0.172302
138335989615,0.650085,-0.0906982,0.734497,0.172058
138336012161,0.650085,-0.0906372,0.734558,0.171875
138336035245,0.650085,-0.0905151,0.734619,0.17157
138336049576,0.650085,-0.0904541,0.73468,0.171265
138336072084,0.650024,-0.0905151,0.734863,0.170898
138336095217,0.650024,-0.090332,0.734985,0.170349
138336109527,0.650085,-0.09021,0.735046,0.169922
138336132167,0.649963,-0.0901489,0.735229,0.169556
138336162747,0.649902,-0.0899048,0.735413,0.169006
138336169669,0.649902,-0.0897217,0.735596,0.168518
138336192096,0.649841,-0.0896606,0.735779,0.168091
138336215290,0.649658,-0.0895996,0.736023,0.167664
138336229669,0.649597,-0.0894775,0.736145,0.167297
138336252157,0.649597,-0.0894775,0.736267,0.166992
138336275379,0.649475,-0.0894775,0.736389,0.166626
138336289663,0.649475,-0.0895386,0.736511,0.166321
138336312138,0.649414,-0.0895996,0.736633,0.166077
138336335320,0.649292,-0.0897827,0.736755,0.16571
138336349607,0.649231,-0.0897827,0.736877,0.165405
138336372139,0.64917,-0.0898438,0.737,0.165161
138336395353,0.649048,-0.0900269,0.737061,0.164978
138336409631,0.648926,-0.0901489,0.737244,0.164795
138336432147,0.648865,-0.0901489,0.737305,0.164612
138336455325,0.648743,-0.090271,0.737427,0.164551
138336476363,0.648743,-0.090271,0.737427,0.164551
138336492098,0.648621,-0.090332,0.737549,0.164429
138336515358,0.648499,-0.0904541,0.737671,0.164368
138336536380,0.648376,-0.0905151,0.737793,0.164246
138336552174,0.648315,-0.0905762,0.737854,0.164185
138336575315,0.648193,-0.0908203,0.737976,0.164062
138336596347,0.648193,-0.0908203,0.737976,0.164062
138336612138,0.648071,-0.0909424,0.738098,0.164001
138336634596,0.648071,-0.0909424,0.738098,0.164001
138336656255,0.648071,-0.0908813,0.738098,0.164001
138336672093,0.64801,-0.0908813,0.738098,0.164001
138336694644,0.64801,-0.0909424,0.738098,0.164001
138336716277,0.64801,-0.0908813,0.738098,0.164062
138336732199,0.64801,-0.0908813,0.738098,0.164062
138336754613,0.64801,-0.0908813,0.738159,0.164062
138336777793,0.647888,-0.0906372,0.738281,0.163879
138336792101,0.647766,-0.0905151,0.738464,0.163757
138336822761,0.647766,-0.0905151,0.738464,0.163696
138336836269,0.647705,-0.0905151,0.738464,0.163757
138336852134,0.647705,-0.0905151,0.738525,0.163757
138336874610,0.647705,-0.0904541,0.738525,0.163574
138336897782,0.647705,-0.0903931,0.738525,0.163574
138336912091,0.647705,-0.0903931,0.738586,0.163574
138336934605,0.647705,-0.0903931,0.738586,0.163574
138336957784,0.647766,-0.0905762,0.738464,0.163696
138336972078,0.647827,-0.0908203,0.738342,0.163879
138336994652,0.647949,-0.0911255,0.738098,0.164062
138337017772,0.648132,-0.0914917,0.737915,0.164246
138337032164,0.648254,-0.0917969,0.737732,0.164307
138337054680,0.648315,-0.0921021,0.73761,0.16449
138337077791,0.648438,-0.0924072,0.737427,0.164612
138337098810,0.64856,-0.0925903,0.737305,0.164734
138337114691,0.648682,-0.0928955,0.737122,0.164795
138337137850,0.648804,-0.0932617,0.736938,0.164856
138337152149,0.648926,-0.09375,0.736816,0.164795
138337174632,0.649048,-0.0942993,0.736633,0.164734
138337197780,0.649231,-0.0948486,0.73645,0.164734
138337212130,0.649414,-0.0953979,0.736145,0.164612
138337234609,0.649597,-0.0960083,0.735901,0.164856
138337257849,0.649841,-0.0968628,0.735535,0.165039
138337272194,0.650146,-0.0977173,0.735168,0.1651
138337294637,0.650452,-0.0986938,0.73468,0.165405
138337308260,0.650696,-0.0998535,0.734253,0.165527
138337331362,0.651184,-0.100708,0.733643,0.165771
