timestamp,roll,pitch,yaw
264848387444,1.413,-0.34423,-0.164652
264848402546,1.41308,-0.345734,-0.16289
264848423798,1.41349,-0.347473,-0.160897
264848447534,1.4156,-0.348538,-0.159243
264848462527,1.41832,-0.348813,-0.157578
264848483897,1.41977,-0.349383,-0.155674
264848523158,1.42026,-0.350111,-0.154296
264848545942,1.41957,-0.350907,-0.152718
264848546765,1.41877,-0.352118,-0.151621
264848567562,1.4198,-0.352832,-0.151844
264848585269,1.42088,-0.353863,-0.152674
264848605363,1.42071,-0.355337,-0.153261
264848641084,1.4186,-0.355902,-0.153386
264848651278,1.41717,-0.355796,-0.153582
264848665063,1.4176,-0.355976,-0.153207
264848686169,1.4195,-0.356223,-0.152113
264848702607,1.42024,-0.356503,-0.150897
264848725112,1.41888,-0.356994,-0.15019
264848746158,1.41651,-0.35754,-0.149915
264848762531,1.41782,-0.359041,-0.151195
264848785094,1.41977,-0.360641,-0.152416
264848806191,1.42358,-0.360927,-0.153784
264848822547,1.4272,-0.360465,-0.155065
264848851808,1.43041,-0.357483,-0.156321
264848866170,1.43189,-0.353342,-0.156991
264848882554,1.43401,-0.348188,-0.15791
264848905073,1.43649,-0.343955,-0.159349
264848926155,1.43873,-0.340881,-0.162093
264848942611,1.44003,-0.339336,-0.166267
264848965046,1.44027,-0.339365,-0.171239
264848986142,1.44007,-0.340368,-0.176797
264849002574,1.43901,-0.339661,-0.183098
264849025073,1.43618,-0.336731,-0.190897
264849046168,1.4308,-0.33308,-0.20019
264849062555,1.42365,-0.328884,-0.209959
264849085091,1.41749,-0.324537,-0.219847
264849107577,1.41356,-0.320055,-0.229675
264849122526,1.41054,-0.315672,-0.238504
264849145073,1.40678,-0.312057,-0.24551
264849166177,1.40278,-0.309042,-0.250428
264849182550,1.4,-0.307095,-0.253338
264849205062,1.39998,-0.30574,-0.254575
264849227603,1.40215,-0.304954,-0.254496
264849242582,1.40483,-0.305192,-0.253448
264849265097,1.4073,-0.306043,-0.251627
264849287586,1.40878,-0.306975,-0.249571
264849301764,1.41002,-0.308102,-0.248265
264849324349,1.41104,-0.309628,-0.247614
264849347027,1.41187,-0.311892,-0.247333
264849363346,1.41171,-0.314933,-0.246862
264849384442,1.41134,-0.318167,-0.245993
264849406971,1.41106,-0.32192,-0.244308
264849421881,1.41026,-0.326389,-0.241171
264849444300,1.40927,-0.331312,-0.236909
264849466781,1.4094,-0.337266,-0.232226
264849489446,1.41272,-0.343315,-0.227355
264849504269,1.41768,-0.349674,-0.222848
264849526928,1.4208,-0.356246,-0.217869
264849541109,1.42209,-0.36213,-0.21281
264849564286,1.42239,-0.367527,-0.207512
264849586825,1.42296,-0.372107,-0.202218
264849601140,1.42672,-0.37392,-0.198816
264849624301,1.43072,-0.373117,-0.196929
264849646830,1.43181,-0.37034,-0.195761
264849662683,1.43069,-0.36714,-0.195287
264849684500,1.42932,-0.365566,-0.19468
264849707001,1.42812,-0.367189,-0.193492
264849723332,1.42785,-0.37129,-0.191631
264849744531,1.42807,-0.377318,-0.189134
264849767034,1.42996,-0.383517,-0.186587
264849783311,1.42973,-0.388936,-0.1836
264849804317,1.43096,-0.391726,-0.180676
264849826936,1.43471,-0.391737,-0.178299
264849843314,1.4384,-0.389958,-0.176074
264849864522,1.44039,-0.387434,-0.173746
264849886867,1.44066,-0.385598,-0.172203
264849903281,1.43907,-0.385084,-0.171665
264849924492,1.43602,-0.385559,-0.171411
264849947052,1.43445,-0.386436,-0.171419
264849963316,1.4351,-0.387453,-0.171668
264849984436,1.43652,-0.387921,-0.171652
264850006838,1.4363,-0.387924,-0.171432
264850023293,1.43444,-0.38746,-0.17101
264850044328,1.43191,-0.386877,-0.17065
264850066794,1.43019,-0.385992,-0.170544
264850083320,1.42831,-0.384851,-0.170698
264850104315,1.42691,-0.384136,-0.171004
264850126841,1.42599,-0.384183,-0.171811
264850143355,1.42518,-0.38462,-0.172601
264850164397,1.42434,-0.385444,-0.172927
264850186859,1.42382,-0.386314,-0.173224
264850202702,1.42404,-0.386921,-0.173502
264850224530,1.42441,-0.38719,-0.174001
264850247006,1.42369,-0.386959,-0.174588
264850262635,1.42309,-0.387035,-0.175254
264850285784,1.42258,-0.386859,-0.175974
264850306842,1.42196,-0.386993,-0.176553
264850322695,1.42048,-0.387484,-0.177216
264850345963,1.41842,-0.388198,-0.177939
264850366926,1.41543,-0.388702,-0.178413
264850382646,1.41306,-0.389605,-0.178338
264850405789,1.41237,-0.390593,-0.177885
264850426945,1.41339,-0.391953,-0.177371
264850442696,1.4149,-0.392538,-0.177009
264850466003,1.4149,-0.392538,-0.177009
264850486864,1.41347,-0.392218,-0.176847
264850502637,1.41242,-0.392359,-0.176986
264850525772,1.41237,-0.392259,-0.176895
264850546790,1.41237,-0.392177,-0.176991
264850562576,1.41278,-0.391784,-0.177096
264850585744,1.41273,-0.391684,-0.177006
264850606824,1.41274,-0.391711,-0.176998
264850622630,1.41273,-0.391684,-0.177006
264850645753,1.41278,-0.391784,-0.177096
264850667016,1.41279,-0.391811,-0.177088
264850682652,1.41262,-0.391803,-0.177062
264850705786,1.41257,-0.391775,-0.177494
264850727049,1.41251,-0.391638,-0.178029
264850742671,1.4127,-0.391363,-0.178966
264850765913,1.41264,-0.391463,-0.179834
264850786846,1.41208,-0.392158,-0.180132
264850802657,1.4127,-0.393018,-0.180369
264850825904,1.41623,-0.394671,-0.180514
264850846900,1.42273,-0.395669,-0.181355
264850862743,1.43345,-0.394344,-0.184306
264850885796,1.44567,-0.392987,-0.188952
264850906829,1.45558,-0.39021,-0.194169
264850922606,1.45864,-0.381986,-0.200636
264850945817,1.45436,-0.370939,-0.207174
264850966985,1.45033,-0.359357,-0.214437
264850982709,1.45139,-0.347965,-0.22278
264851005839,1.45478,-0.333991,-0.233171
264851027035,1.4521,-0.316631,-0.244471
264851042793,1.44285,-0.297951,-0.255026
264851065837,1.4366,-0.283138,-0.267564
264851086897,1.43419,-0.269066,-0.283032
264851102618,1.43196,-0.256982,-0.299787
264851125263,1.43037,-0.245422,-0.317332
264851146948,1.42908,-0.234283,-0.335007
264851162715,1.42491,-0.223886,-0.352117
264851185199,1.42198,-0.215947,-0.368924
264851208329,1.42304,-0.210199,-0.384961
264851222706,1.42448,-0.20455,-0.399778
264851245218,1.42391,-0.198669,-0.413377
264851268382,1.42295,-0.192862,-0.426612
264851282626,1.42017,-0.187152,-0.439617
264851305166,1.41293,-0.18191,-0.451256
264851328402,1.39725,-0.177108,-0.461705
264851342672,1.37576,-0.174722,-0.469774
264851365141,1.36117,-0.17388,-0.476831
264851388245,1.35685,-0.17331,-0.484249
264851409371,1.35882,-0.173112,-0.490864
264851455141,1.358,-0.171846,-0.496145
264851455838,1.35345,-0.169748,-0.499842
264851470783,1.34903,-0.167512,-0.502505
264851485855,1.3462,-0.165013,-0.504297
264851515238,1.34442,-0.165104,-0.506892
264851538309,1.33687,-0.15763,-0.506572
264851553280,1.33151,-0.163015,-0.509033
264851575912,1.3327,-0.166475,-0.51211
264851598346,1.33522,-0.17014,-0.515125
264851613442,1.33289,-0.178879,-0.517432
264851635776,1.32441,-0.183667,-0.51764
264851642617,1.32691,-0.168189,-0.518147
264851665131,1.33367,-0.164235,-0.519163
264851688271,1.32394,-0.169351,-0.518056
264851709360,1.32682,-0.166163,-0.519059
264851725099,1.32991,-0.16564,-0.519365
264851748359,1.33364,-0.164507,-0.51985
264851769528,1.33248,-0.16307,-0.51965
264851785207,1.33154,-0.161334,-0.519423
264851808384,1.33225,-0.159527,-0.518992
264851829541,1.33286,-0.158197,-0.518728
264851845158,1.33308,-0.156783,-0.518312
264851868409,1.33312,-0.155203,-0.51802
264851889544,1.33408,-0.153779,-0.517943
264851905121,1.33435,-0.151709,-0.517333
264851935781,1.33511,-0.149788,-0.517121
264851949441,1.33531,-0.147923,-0.517125
264851965155,1.33641,-0.146829,-0.517194
264851988247,1.33773,-0.146016,-0.517701
264852009366,1.33941,-0.144945,-0.518121
264852025158,1.34072,-0.143756,-0.518486
264852048409,1.34019,-0.142325,-0.518784
264852094127,1.34087,-0.141428,-0.519363
264852094922,1.34162,-0.140741,-0.519984
264852107623,1.34217,-0.140102,-0.520426
264852131013,1.3428,-0.138796,-0.521304
264852146680,1.33935,-0.136908,-0.519638
264852175898,1.34462,-0.131888,-0.51961
264852198352,1.33931,-0.134017,-0.518751
264852219431,1.33319,-0.144319,-0.518751
264852235895,1.32645,-0.1559,-0.518278
264852258279,1.31826,-0.164443,-0.517005
264852279387,1.31109,-0.165027,-0.515432
264852287604,1.31198,-0.154067,-0.514861
264852310831,1.32251,-0.142222,-0.515746
264852325155,1.32166,-0.152677,-0.516142
264852347629,1.3231,-0.150529,-0.515797
264852370829,1.32454,-0.150225,-0.515634
264852385139,1.32463,-0.150013,-0.515654
264852407656,1.32473,-0.149801,-0.515674
264852430885,1.32546,-0.149294,-0.515481
264852445288,1.32636,-0.148527,-0.515598
264852467795,1.32737,-0.147951,-0.515892
264852490883,1.32845,-0.147208,-0.516086
264852505192,1.32871,-0.146977,-0.516129
264852527722,1.32882,-0.146791,-0.516165
264852550910,1.32891,-0.146578,-0.516185
264852571953,1.32984,-0.146569,-0.516123
264852587645,1.33083,-0.146449,-0.515822
264852610804,1.33197,-0.146283,-0.515527
264852625123,1.33256,-0.145824,-0.515326
264852647617,1.33301,-0.145337,-0.515221
264852670781,1.3335,-0.144992,-0.515085
264852691999,1.33449,-0.144631,-0.515072
264852707788,1.33524,-0.1446,-0.514933
264852730953,1.33538,-0.144555,-0.514939
264852752075,1.33548,-0.144342,-0.514958
264852767741,1.33643,-0.143743,-0.51506
264852790937,1.33653,-0.143531,-0.515079
264852812051,1.33664,-0.143345,-0.515115
264852827738,1.33674,-0.143133,-0.515134
264852850908,1.33688,-0.143088,-0.51514
264852872003,1.33699,-0.142902,-0.515175
264852887741,1.33714,-0.142856,-0.515181
264852910870,1.33713,-0.142758,-0.515266
264852931852,1.33724,-0.142644,-0.5152
264852947638,1.33733,-0.142432,-0.515219
264852970843,1.33744,-0.142246,-0.515255
264852991894,1.33737,-0.142125,-0.51515
264853007660,1.33754,-0.142034,-0.515274
264853030306,1.33778,-0.141643,-0.514871
264853052113,1.33743,-0.14079,-0.514574
264853067072,1.33753,-0.140578,-0.514593
264853081437,1.33779,-0.140347,-0.514634
264853103777,1.33788,-0.140135,-0.514653
264853127081,1.33805,-0.140043,-0.514777
264853141450,1.3382,-0.139998,-0.514783
264853163870,1.33814,-0.139903,-0.514695
264853186970,1.33814,-0.139903,-0.514695
264853201399,1.33916,-0.139327,-0.514984
264853223897,1.33909,-0.139134,-0.514981
264853247081,1.33975,-0.138081,-0.515114
264853261295,1.34033,-0.13655,-0.515477
264853283793,1.34008,-0.135171,-0.515588
264853306991,1.3405,-0.13383,-0.515742
264853321232,1.34045,-0.133664,-0.515755
264853343778,1.34056,-0.133549,-0.51569
264853367081,1.34055,-0.133452,-0.515774
264853381435,1.34055,-0.133452,-0.515774
264853403810,1.34071,-0.133432,-0.515796
264853427081,1.3413,-0.133421,-0.515632
264853441438,1.34194,-0.133576,-0.515454
264853463676,1.34258,-0.13366,-0.515378
264853486894,1.34269,-0.133474,-0.515413
264853501200,1.34264,-0.133307,-0.515426
264853523751,1.34344,-0.132898,-0.515316
264853547100,1.34414,-0.132531,-0.515372
264853561421,1.34429,-0.132485,-0.515378
264853583885,1.34456,-0.131564,-0.515665
264853607067,1.34461,-0.130641,-0.515741
264853621284,1.34455,-0.130546,-0.515653
264853643961,1.34472,-0.130454,-0.515777
264853667114,1.34472,-0.130454,-0.515777
264853681448,1.34481,-0.130315,-0.515694
264853703807,1.34507,-0.130458,-0.515875
264853727068,1.34541,-0.130534,-0.515873
264853741194,1.34584,-0.130943,-0.515844
264853763699,1.34596,-0.13123,-0.515936
264853786870,1.34615,-0.131423,-0.515827
264853801199,1.3463,-0.131378,-0.515832
264853823706,1.3468,-0.131435,-0.515852
264853847053,1.34695,-0.131389,-0.515858
264853861414,1.34695,-0.131317,-0.515959
264853883954,1.34705,-0.131177,-0.515876
264853907079,1.34705,-0.131177,-0.515876
264853921243,1.34716,-0.130991,-0.515911
264853943959,1.34716,-0.130991,-0.515911
264853967192,1.34709,-0.130799,-0.515907
264853981419,1.3472,-0.130685,-0.515841
264854003783,1.34721,-0.130613,-0.515942
264854027102,1.34721,-0.130613,-0.515942
264854041322,1.3473,-0.130473,-0.515859
264854071927,1.34785,-0.130453,-0.516152
264854086267,1.3478,-0.130286,-0.516165
264854101200,1.348,-0.130408,-0.516158
264854123764,1.34756,-0.131463,-0.51624
264854146260,1.34894,-0.132942,-0.516691
264854161246,1.34992,-0.134454,-0.517386
264854183708,1.35132,-0.135241,-0.518088
264854206260,1.35188,-0.134846,-0.518241
264854221296,1.35183,-0.134752,-0.518152
264854243930,1.35178,-0.134585,-0.518164
264854266379,1.35253,-0.134441,-0.518739
264854281471,1.35417,-0.13409,-0.519857
264854303803,1.35528,-0.133328,-0.520674
264854326345,1.35519,-0.132304,-0.520941
264854341285,1.3553,-0.132118,-0.520976
264854363918,1.35485,-0.131855,-0.520799
264854386304,1.35395,-0.132103,-0.52075
264854401356,1.35379,-0.132195,-0.520626
264854423896,1.35423,-0.132604,-0.520601
264854446474,1.35488,-0.132785,-0.520443
264854461476,1.35572,-0.132688,-0.520118
264854485313,1.35567,-0.132521,-0.52013
264854506365,1.35562,-0.132355,-0.520141
264854521265,1.35562,-0.132355,-0.520141
264854543881,1.35549,-0.131408,-0.520135
264854566448,1.35574,-0.130704,-0.520115
264854581455,1.35574,-0.130704,-0.520115
264854603859,1.35569,-0.130537,-0.520127
264854626436,1.35569,-0.130537,-0.520127
264854641353,1.35585,-0.130517,-0.52015
264854663916,1.35584,-0.130491,-0.520133
264854686391,1.35579,-0.130325,-0.520145
264854701438,1.35595,-0.130305,-0.520167
264854723707,1.35589,-0.130211,-0.520078
264854746218,1.3559,-0.130138,-0.520179
264854761262,1.35599,-0.129999,-0.520096
264854783773,1.35599,-0.129999,-0.520096
264854806265,1.356,-0.129926,-0.520197
264854829421,1.356,-0.129926,-0.520197
264854843762,1.35611,-0.129813,-0.52013
264854866244,1.35611,-0.12974,-0.520231
264854881429,1.35606,-0.129646,-0.520142
264854911983,1.35601,-0.129479,-0.520154
264854926393,1.35599,-0.129454,-0.520137
264854942795,1.35616,-0.129361,-0.520261
264854963958,1.35594,-0.129287,-0.520149
264854986526,1.35606,-0.129101,-0.520184
264855002818,1.35606,-0.129101,-0.520184
264855023782,1.35622,-0.129081,-0.520206
264855046257,1.35615,-0.128961,-0.5201
264855062753,1.35615,-0.128889,-0.520201
264855083953,1.35615,-0.128889,-0.520201
264855106252,1.3561,-0.128795,-0.520112
264855122712,1.3561,-0.128795,-0.520112
264855143783,1.35631,-0.128942,-0.520123
264855166263,1.35632,-0.128869,-0.520224
264855182705,1.35626,-0.128775,-0.520135
264855203769,1.35627,-0.128702,-0.520236
264855226365,1.35621,-0.128608,-0.520147
264855242778,1.35621,-0.128608,-0.520147
264855264032,1.35621,-0.128608,-0.520147
264855286449,1.35616,-0.128442,-0.520159
264855302790,1.35616,-0.128442,-0.520159
264855323982,1.35611,-0.128348,-0.52007
264855346239,1.35611,-0.128275,-0.520171
264855362745,1.35611,-0.128275,-0.520171
264855383767,1.35595,-0.128295,-0.520149
264855406415,1.357,-0.128474,-0.520262
264855422755,1.35817,-0.129012,-0.520368
264855443931,1.35949,-0.129392,-0.520089
264855466242,1.36054,-0.129443,-0.519774
264855482722,1.36068,-0.129244,-0.519333
264855503766,1.36085,-0.129022,-0.519027
264855526316,1.36129,-0.128586,-0.518798
264855542672,1.36143,-0.128313,-0.518458
264855563749,1.3614,-0.128172,-0.518487
264855586215,1.3612,-0.127278,-0.518188
264855602796,1.361,-0.126238,-0.518092
264855623952,1.36071,-0.125784,-0.518122
264855646534,1.36071,-0.125784,-0.518122
264855662818,1.36162,-0.125936,-0.518331
264855683969,1.36211,-0.12604,-0.518234
264855706334,1.36211,-0.12604,-0.518234
264855722774,1.36206,-0.125873,-0.518246
264855743962,1.36146,-0.125282,-0.51792
264855766409,1.36147,-0.125209,-0.518021
264855782802,1.36132,-0.125255,-0.518016
264855803841,1.36142,-0.125288,-0.517748
264855826516,1.36142,-0.125288,-0.517748
264855842746,1.3614,-0.125262,-0.517731
264855865247,1.36152,-0.125076,-0.517765
264855886404,1.36147,-0.124909,-0.517777
264855902796,1.36147,-0.124909,-0.517777
264855925322,1.36187,-0.125005,-0.517965
264855946300,1.36187,-0.125005,-0.517965
264855962696,1.36187,-0.125005,-0.517965
264855985214,1.36182,-0.124912,-0.517876
264856006272,1.36218,-0.124768,-0.518176
264856022687,1.36227,-0.12463,-0.518092
264856045209,1.36227,-0.124556,-0.518193
264856066222,1.36227,-0.124556,-0.518193
264856082810,1.36227,-0.124556,-0.518193
264856105181,1.36222,-0.124463,-0.518104
264856126456,1.36223,-0.12439,-0.518205
264856142816,1.36239,-0.12437,-0.518227
264856165260,1.36233,-0.124276,-0.518138
264856186544,1.36233,-0.124276,-0.518138
264856202777,1.36233,-0.124276,-0.518138
264856225330,1.36229,-0.12411,-0.51815
264856246488,1.36229,-0.12411,-0.51815
264856262781,1.36229,-0.12411,-0.51815
264856285360,1.36229,-0.12411,-0.51815
264856306357,1.36224,-0.123943,-0.518162
264856322799,1.36222,-0.123918,-0.518145
264856345483,1.36238,-0.123898,-0.518167
264856374435,1.36238,-0.123898,-0.518167
264856382719,1.36234,-0.123731,-0.518179
264856405217,1.36228,-0.123638,-0.51809
264856426224,1.36228,-0.123638,-0.51809
264856442708,1.36229,-0.123565,-0.518191
264856465300,1.36229,-0.123565,-0.518191
264856486461,1.36169,-0.123047,-0.517766
264856502796,1.36103,-0.122809,-0.517396
264856525333,1.36008,-0.122906,-0.516732
264856546534,1.35938,-0.122917,-0.515905
264856562813,1.35882,-0.122184,-0.514679
264856585326,1.35962,-0.121812,-0.513306
264856606369,1.36647,-0.121403,-0.511769
264856622804,1.37377,-0.12036,-0.510141
264856645351,1.37724,-0.119058,-0.507748
264856666330,1.3807,-0.117177,-0.504693
264856682746,1.38307,-0.114729,-0.501191
264856705229,1.38471,-0.112462,-0.496496
264856734480,1.38636,-0.110972,-0.491472
264856742811,1.3914,-0.111492,-0.486574
264856765330,1.39948,-0.112873,-0.482367
264856786494,1.40863,-0.113671,-0.479074
264856802810,1.41594,-0.113332,-0.476774
264856825320,1.4209,-0.111676,-0.475007
264856847199,1.42625,-0.109731,-0.47373
264856862148,1.43257,-0.107753,-0.473001
264856884561,1.43771,-0.106075,-0.472382
264856907034,1.44087,-0.104313,-0.47181
264856923467,1.44346,-0.103039,-0.471695
264856944681,1.44689,-0.102831,-0.471743
264856966982,1.45463,-0.104407,-0.471686
264856983377,1.46668,-0.106497,-0.472081
264857004421,1.4795,-0.106744,-0.47206
264857026982,1.48775,-0.0980834,-0.472396
264857043431,1.48317,-0.0983554,-0.468214
264857064681,1.47403,-0.098249,-0.462354
264857087056,1.469,-0.0977424,-0.455069
264857103413,1.46792,-0.0978677,-0.44872
264857124641,1.46965,-0.0981924,-0.441929
264857148542,1.47308,-0.0985137,-0.435215
264857163568,1.47674,-0.0996713,-0.429127
264857184563,1.4821,-0.102709,-0.4225
264857206971,1.49429,-0.109561,-0.419044
264857223399,1.51102,-0.117604,-0.418624
264857244587,1.52928,-0.126195,-0.419101
264857267229,1.53964,-0.130641,-0.417403
264857283498,1.5429,-0.134947,-0.413006
264857304530,1.54549,-0.139406,-0.407884
264857327048,1.54983,-0.144265,-0.402444
264857343469,1.55512,-0.150203,-0.396239
264857364719,1.55908,-0.16025,-0.387359
264857386974,1.56039,-0.17224,-0.37763
264857410875,1.56626,-0.18131,-0.36785
264857424480,1.57279,-0.188137,-0.358253
264857446990,1.58249,-0.194321,-0.350072
264857463382,1.59943,-0.202335,-0.345228
264857484647,1.6211,-0.212367,-0.342122
264857507042,1.63881,-0.22271,-0.339623
264857523484,1.6464,-0.230868,-0.336758
264857544690,1.64918,-0.238509,-0.332524
264857567183,1.65358,-0.247403,-0.328869
264857583444,1.66379,-0.256155,-0.327188
264857604503,1.6776,-0.262543,-0.326822
264857627181,1.68811,-0.266791,-0.325293
264857643558,1.69004,-0.270767,-0.322275
264857664701,1.68682,-0.275996,-0.318518
264857687033,1.68457,-0.281881,-0.314853
264857703480,1.68198,-0.286273,-0.310922
264857724463,1.68786,-0.288789,-0.310259
264857746909,1.69262,-0.292487,-0.30892
264857762783,1.69999,-0.296115,-0.306507
264857784402,1.70889,-0.298022,-0.302972
264857806970,1.71259,-0.298534,-0.297696
264857822834,1.71077,-0.297893,-0.290105
264857844702,1.70943,-0.297534,-0.281295
264857867197,1.70815,-0.297205,-0.273125
264857882849,1.70941,-0.295455,-0.267965
264857905959,1.71089,-0.292837,-0.265582
264857927151,1.70976,-0.290258,-0.264912
264857942799,1.70896,-0.287594,-0.265521
264857966479,1.70954,-0.284776,-0.267124
264857987018,1.71195,-0.281577,-0.269138
264858002776,1.71154,-0.277559,-0.270393
264858026026,1.71069,-0.273763,-0.271335
264858046956,1.70911,-0.270481,-0.271608
264858062759,1.71121,-0.268207,-0.274792
264858085902,1.71262,-0.268657,-0.277942
264858107223,1.71204,-0.26866,-0.279091
264858122786,1.70991,-0.269384,-0.277437
264858146020,1.70638,-0.272186,-0.274617
264858167178,1.70172,-0.277145,-0.272065
264858182870,1.6951,-0.284459,-0.269217
264858205959,1.68449,-0.294539,-0.262397
264858227151,1.6711,-0.30537,-0.251212
264858242926,1.66038,-0.315886,-0.241721
264858266064,1.65599,-0.328299,-0.23772
264858287083,1.65792,-0.342437,-0.2349
264858302882,1.66467,-0.355003,-0.230855
264858325893,1.67289,-0.363373,-0.226002
264858346938,1.68078,-0.366451,-0.221188
264858362760,1.68593,-0.364417,-0.216627
264858385966,1.6861,-0.35949,-0.21371
264858406969,1.68597,-0.354944,-0.21228
264858422834,1.68856,-0.352725,-0.21207
264858445981,1.69328,-0.353512,-0.21299
264858467223,1.69569,-0.35606,-0.213478
264858482878,1.69552,-0.35999,-0.213235
264858505927,1.69403,-0.365297,-0.212676
264858527215,1.69274,-0.371729,-0.212155
264858542890,1.69474,-0.377578,-0.211439
264858566055,1.70014,-0.380749,-0.210737
264858587087,1.70348,-0.381719,-0.209721
264858602914,1.70304,-0.380606,-0.20829
264858626033,1.69953,-0.378741,-0.207177
264858647123,1.69713,-0.378406,-0.206397
264858662775,1.69868,-0.379134,-0.206415
264858685935,1.7019,-0.380498,-0.207081
264858706990,1.70371,-0.381979,-0.207838
264858722753,1.70454,-0.38311,-0.208111
264858745288,1.70421,-0.383981,-0.208016
264858767187,1.70395,-0.384368,-0.207299
264858782877,1.70417,-0.384043,-0.206602
264858805242,1.70412,-0.383956,-0.206498
264858828622,1.70295,-0.383606,-0.206677
264858842905,1.70059,-0.383899,-0.206501
264858865361,1.69865,-0.385108,-0.205587
264858888450,1.69682,-0.385624,-0.20393
264858902802,1.69548,-0.383571,-0.202874
264858925358,1.69202,-0.37616,-0.200883
264858948510,1.68431,-0.363418,-0.200352
264858962944,1.67907,-0.347773,-0.201405
264858985270,1.67398,-0.328598,-0.200837
264859008449,1.66538,-0.305422,-0.199045
264859022798,1.65304,-0.278125,-0.195663
264859045246,1.63838,-0.247515,-0.192305
264859068413,1.62004,-0.214674,-0.188802
264859091022,1.59984,-0.179157,-0.185658
264859105278,1.5819,-0.142804,-0.182948
264859128531,1.56389,-0.104752,-0.181138
264859157200,1.54404,-0.064732,-0.179801
264859165304,1.52119,-0.0217741,-0.178948
264859188528,1.49501,0.022362,-0.178504
264859209764,1.46752,0.068372,-0.178093
264859225304,1.43959,0.117657,-0.176908
264859248523,1.41141,0.169747,-0.176079
264859269537,1.38097,0.225424,-0.176916
264859285451,1.3492,0.279156,-0.178259
264859308496,1.31741,0.335744,-0.181252
264859329757,1.28681,0.391573,-0.184095
264859345352,1.25548,0.448204,-0.18867
264859368562,1.22496,0.503138,-0.196286
264859389557,1.19484,0.555502,-0.204537
264859405247,1.16349,0.606385,-0.21558
264859428543,1.12904,0.655469,-0.22839
264859449562,1.09129,0.702447,-0.243046
264859465285,1.05084,0.746593,-0.261091
264859488473,1.00853,0.788067,-0.283315
264859509715,0.96315,0.827856,-0.310958
264859525387,0.9122,0.866062,-0.343786
264859548537,0.854594,0.902339,-0.380418
264859569772,0.792621,0.936538,-0.42038
264859585414,0.726129,0.967381,-0.464489
264859608546,0.656349,0.993546,-0.512459
264859629750,0.583494,1.01554,-0.565539
264859645356,0.504685,1.03368,-0.623829
264859667748,0.421912,1.04868,-0.685548
264859689601,0.34036,1.06206,-0.747633
264859705257,0.259889,1.07565,-0.811088
264859727838,0.177277,1.08999,-0.880656
264859749452,0.089047,1.10762,-0.963638
264859765339,-0.01378,1.12332,-1.06157
264859787825,-0.120445,1.13372,-1.16101
264859810987,-0.230214,1.14045,-1.26347
264859825410,-0.338908,1.14157,-1.36872
264859847910,-0.444898,1.1368,-1.47079
264859870968,-0.543006,1.12747,-1.56242
264859885405,-0.62415,1.1123,-1.63798
264859907889,-0.688202,1.09482,-1.69716
264859931059,-0.741381,1.07838,-1.74455
264859945374,-0.787559,1.06279,-1.78479
264859967836,-0.826748,1.04869,-1.81635
264859991001,-0.855256,1.03794,-1.83648
264860013640,-0.875727,1.03014,-1.84917
264860027875,-0.892533,1.02433,-1.85843
264860051030,-0.912685,1.02072,-1.86829
264860072090,-0.929853,1.01819,-1.87765
264860087802,-0.935968,1.01625,-1.88274
264860118649,-0.940954,1.01815,-1.88634
264860132190,-0.951988,1.02149,-1.89126
264860147808,-0.963697,1.02357,-1.89775
264860170994,-0.969843,1.0247,-1.90233
264860192166,-0.973783,1.02719,-1.90582
264860207810,-0.979174,1.03154,-1.9107
264860231070,-0.985107,1.03656,-1.91615
264860245476,-0.987965,1.0412,-1.91966
264860267804,-0.984063,1.04509,-1.91814
264860290976,-0.978941,1.05088,-1.91434
264860312105,-0.976873,1.0588,-1.91111
264860327780,-0.973527,1.06688,-1.90671
264860350938,-0.965337,1.07515,-1.90075
264860372093,-0.953123,1.08512,-1.89166
264860387826,-0.937718,1.0972,-1.87913
264860411122,-0.922454,1.11051,-1.86654
264860432112,-0.90286,1.12475,-1.85163
264860447931,-0.877551,1.14058,-1.83196
264860470988,-0.844822,1.15856,-1.805
264860492214,-0.804085,1.17802,-1.76953
264860507953,-0.755127,1.19768,-1.72699
264860531067,-0.694149,1.21741,-1.67491
264860552238,-0.615423,1.23649,-1.60755
264860567908,-0.512509,1.25589,-1.51613
264860590387,-0.388735,1.27164,-1.39947
264860603933,-0.245986,1.28156,-1.26279
264860627221,-0.0829171,1.28246,-1.11062
264860641550,0.0925576,1.27232,-0.951079
264860664124,0.260362,1.25497,-0.799632
264860687180,0.402197,1.23102,-0.67155
264860701572,0.517072,1.19973,-0.567612
264860723974,0.615277,1.16169,-0.480417
264860747275,0.703244,1.12078,-0.405396
264860761513,0.783404,1.08015,-0.341178
264860783937,0.850544,1.04035,-0.289938
264860807107,0.906016,0.999153,-0.250713
264860821428,0.957868,0.95558,-0.217756
264860844058,1.016,0.910694,-0.18614
264860867217,1.07549,0.866638,-0.156036
264860881592,1.12724,0.823361,-0.128398
264860903893,1.17104,0.778459,-0.106849
264860927229,1.21206,0.730789,-0.0899515
264860941573,1.25243,0.681959,-0.0765212
264860964109,1.29592,0.631911,-0.0632228
264860987239,1.33881,0.581511,-0.0505401
264861001624,1.37507,0.530472,-0.0395617
264861024077,1.40324,0.478277,-0.0345953
264861047188,1.42848,0.426053,-0.0350609
264861061371,1.45506,0.373375,-0.0382255
264861084032,1.48367,0.320718,-0.0410425
264861107149,1.50966,0.268576,-0.0423227
264861121441,1.5262,0.216772,-0.0457491
264861144161,1.53965,0.166462,-0.0532702
264861167284,1.55591,0.117818,-0.0647827
264861182914,1.5751,0.0704924,-0.0763846
264861203990,1.59372,0.026733,-0.0855248
264861227302,1.61017,-0.0139601,-0.09398
264861241419,1.62251,-0.0525965,-0.102374
264861263881,1.63127,-0.0882235,-0.112244
264861287085,1.6442,-0.120168,-0.123034
264861301384,1.66169,-0.149117,-0.132515
264861323968,1.6788,-0.17597,-0.139362
264861347298,1.68719,-0.199204,-0.144257
264861361529,1.6912,-0.217208,-0.148511
264861383987,1.69141,-0.233757,-0.152294
264861407044,1.69199,-0.249217,-0.155278
264861421440,1.6953,-0.262363,-0.157185
264861444099,1.701,-0.272375,-0.157584
264861467122,1.70792,-0.279367,-0.157112
264861481496,1.71573,-0.284664,-0.156419
264861504091,1.72177,-0.289059,-0.155251
264861527269,1.7244,-0.292895,-0.154494
264861541628,1.72534,-0.295997,-0.154389
264861564109,1.72756,-0.298652,-0.15462
264861587096,1.72915,-0.300387,-0.154762
264861601534,1.7285,-0.3011,-0.155252
264861624073,1.72715,-0.301079,-0.156624
264861647261,1.72721,-0.299737,-0.158266
264861661643,1.72836,-0.297119,-0.159609
264861683997,1.72835,-0.293788,-0.160624
264861706389,1.72725,-0.290036,-0.161602
264861721366,1.72536,-0.285877,-0.162697
264861743924,1.72321,-0.28087,-0.163517
264861766393,1.7208,-0.274686,-0.164544
264861781593,1.72091,-0.267872,-0.166257
264861803925,1.7234,-0.26095,-0.168716
264861826586,1.727,-0.253943,-0.171124
264861841427,1.73198,-0.246272,-0.172838
264861864032,1.73731,-0.238396,-0.174367
264861886429,1.74124,-0.230752,-0.1751
264861901601,1.74314,-0.223191,-0.175829
264861923903,1.74464,-0.216076,-0.176808
264861946566,1.74712,-0.20977,-0.178751
264861961557,1.75035,-0.204297,-0.181631
264861983968,1.75281,-0.198498,-0.184556
264862006428,1.75396,-0.192822,-0.187689
264862021508,1.75318,-0.18791,-0.19061
264862043958,1.7512,-0.184023,-0.193165
264862066501,1.74885,-0.181406,-0.194506
264862081626,1.7478,-0.178859,-0.194678
264862105355,1.74792,-0.176674,-0.194737
264862126571,1.74888,-0.174832,-0.194651
264862141476,1.75132,-0.172578,-0.193964
264862164201,1.75434,-0.17007,-0.192516
264862186472,1.75676,-0.16706,-0.190343
264862201510,1.75896,-0.164587,-0.187412
264862223906,1.76096,-0.162722,-0.185744
264862246390,1.76191,-0.161106,-0.184353
264862261458,1.76115,-0.160029,-0.182341
264862283929,1.7612,-0.16067,-0.181015
264862306402,1.76325,-0.161471,-0.181019
264862321420,1.76738,-0.161801,-0.183171
264862344119,1.772,-0.161168,-0.18579
264862367918,1.77427,-0.160386,-0.188355
264862381432,1.77333,-0.160152,-0.191565
264862403913,1.77153,-0.160059,-0.195324
264862426422,1.76977,-0.160337,-0.198778
264862441408,1.76778,-0.160669,-0.201082
264862463905,1.76455,-0.160507,-0.203131
264862486423,1.76255,-0.159708,-0.206363
264862502878,1.76421,-0.159979,-0.210473
264862523970,1.7656,-0.160212,-0.213334
264862546469,1.76678,-0.160175,-0.215273
264862562845,1.76758,-0.159494,-0.216934
264862583941,1.76793,-0.159683,-0.218561
264862606421,1.76768,-0.159845,-0.219867
264862622884,1.76795,-0.159782,-0.221197
264862643953,1.7673,-0.159808,-0.221842
264862666473,1.76643,-0.160055,-0.22275
264862682880,1.76692,-0.159771,-0.224426
264862703989,1.76728,-0.160543,-0.227167
264862726457,1.76723,-0.162173,-0.230663
264862742849,1.76652,-0.16402,-0.234297
264862763953,1.76517,-0.166503,-0.238727
264862786466,1.76426,-0.168549,-0.244464
264862802829,1.76527,-0.170289,-0.250445
264862823941,1.76609,-0.172434,-0.255142
264862846380,1.76413,-0.174668,-0.258345
264862862851,1.76126,-0.176002,-0.260217
264862883900,1.76002,-0.176468,-0.261809
264862906414,1.76093,-0.17725,-0.264702
264862922855,1.76402,-0.178835,-0.269489
264862943946,1.76591,-0.180886,-0.273419
264862966427,1.76467,-0.183081,-0.275552
264862984332,1.76078,-0.184919,-0.276572
264863003896,1.7576,-0.187467,-0.277296
264863026435,1.75755,-0.189713,-0.277882
264863042864,1.76003,-0.191993,-0.277078
264863063956,1.76283,-0.193924,-0.274962
264863087854,1.76535,-0.195428,-0.272246
264863102880,1.76821,-0.197412,-0.269448
264863123920,1.77059,-0.200227,-0.266961
264863146426,1.77204,-0.203648,-0.264003
264863162874,1.77265,-0.207304,-0.26054
264863183913,1.77288,-0.210843,-0.257372
264863206420,1.77354,-0.21359,-0.254165
264863222881,1.77544,-0.215833,-0.251053
264863243957,1.7786,-0.218109,-0.248453
264863266439,1.78119,-0.219639,-0.245614
264863282834,1.78292,-0.22004,-0.242272
264863303954,1.78377,-0.219498,-0.238536
264863326457,1.78451,-0.218348,-0.234975
264863342870,1.7851,-0.216739,-0.232746
264863363925,1.78533,-0.214771,-0.230958
264863386438,1.785,-0.212669,-0.229262
264863402854,1.78607,-0.210808,-0.229166
264863423893,1.79059,-0.209806,-0.231947
264863446444,1.79552,-0.209154,-0.236048
264863462874,1.79651,-0.207874,-0.238815
264863485356,1.794,-0.206096,-0.23988
264863506445,1.79041,-0.204403,-0.239781
264863522900,1.78865,-0.203309,-0.238391
264863545378,1.78876,-0.202335,-0.237408
264863566455,1.78885,-0.200195,-0.236719
264863582893,1.78692,-0.196556,-0.234834
264863605436,1.78222,-0.190979,-0.231115
264863626458,1.77748,-0.182056,-0.228707
264863642903,1.77256,-0.168823,-0.228216
264863665446,1.76269,-0.151886,-0.227587
264863686421,1.74457,-0.129945,-0.22446
264863710403,1.72099,-0.100641,-0.219012
264863725337,1.69674,-0.0651861,-0.212511
264863746398,1.67645,-0.0258474,-0.205465
264863762866,1.65538,0.0180492,-0.19783
264863785351,1.62784,0.0658119,-0.189511
264863806412,1.59692,0.11711,-0.180911
264863822883,1.56498,0.172558,-0.172508
264863845371,1.53263,0.230928,-0.164507
264863866436,1.5015,0.291742,-0.15748
264863882882,1.47071,0.353563,-0.155104
264863905454,1.43822,0.417181,-0.155666
264863926515,1.40214,0.480743,-0.159166
264863942997,1.36265,0.544087,-0.164561
264863965455,1.31917,0.609428,-0.171483
264863986474,1.2748,0.676364,-0.180209
264864002904,1.23061,0.74066,-0.192188
264864025432,1.18602,0.803721,-0.209256
264864046452,1.14096,0.86374,-0.228769
264864062913,1.09238,0.92173,-0.251288
264864085444,1.03717,0.977558,-0.280933
264864106446,0.972725,1.02744,-0.320356
264864122886,0.896985,1.06996,-0.371169
264864145374,0.815827,1.10351,-0.427819
264864166454,0.735649,1.13218,-0.48173
264864182878,0.646074,1.15774,-0.544554
264864205400,0.549059,1.17784,-0.616748
264864226432,0.4513,1.19378,-0.694296
264864242877,0.349239,1.20897,-0.782573
264864265417,0.240594,1.2227,-0.878641
264864286644,0.118767,1.23461,-0.981164
264864302958,-0.00549944,1.24031,-1.08334
264864325383,-0.122448,1.24177,-1.1802
264864346551,-0.227996,1.24096,-1.26781
264864362974,-0.325817,1.23813,-1.34968
264864384793,-0.419999,1.23511,-1.43028
264864407167,-0.497269,1.23032,-1.49706
264864423583,-0.548697,1.22573,-1.5457
264864444664,-0.59064,1.22104,-1.58653
264864467159,-0.639903,1.216,-1.63137
264864482142,-0.669952,1.20941,-1.65936
264864504617,-0.69716,1.20144,-1.68095
264864527135,-0.717945,1.19345,-1.69471
264864543624,-0.725132,1.18812,-1.69637
264864564847,-0.724295,1.18462,-1.68974
264864587378,-0.713439,1.18052,-1.67375
264864603651,-0.695616,1.17752,-1.65125
264864624715,-0.678131,1.17797,-1.62851
264864647318,-0.657735,1.18123,-1.6051
264864663642,-0.628408,1.18467,-1.57615
264864684826,-0.590176,1.19001,-1.54137
264864707189,-0.54935,1.19789,-1.50381
264864723626,-0.504571,1.20779,-1.46162
264864744645,-0.450743,1.21818,-1.41049
264864767315,-0.383982,1.22687,-1.34607
264864783616,-0.303891,1.23385,-1.26919
264864804721,-0.214124,1.23727,-1.18381
264864827220,-0.114007,1.23776,-1.08823
264864843714,-0.00353422,1.23382,-0.981196
264864864645,0.119013,1.22339,-0.866638
264864887134,0.247934,1.2045,-0.752522
264864903559,0.363459,1.17877,-0.654377
264864924603,0.459753,1.14833,-0.56893
264864947291,0.537291,1.10986,-0.500632
264864963631,0.609505,1.06671,-0.440023
264864984830,0.675841,1.01715,-0.389968
264865007160,0.734003,0.962708,-0.34752
264865023345,0.782469,0.910598,-0.314006
264865044860,0.824211,0.861253,-0.285706
264865067360,0.857461,0.812939,-0.262542
264865083697,0.881203,0.76086,-0.244087
264865104821,0.911329,0.707519,-0.22315
264865127248,0.94889,0.660298,-0.201938
264865143645,0.998729,0.614293,-0.182526
264865164639,1.05045,0.565338,-0.168494
264865187114,1.09897,0.511512,-0.158308
264865203582,1.13723,0.456716,-0.151292
264865224606,1.16652,0.403833,-0.14898
264865247255,1.19596,0.351998,-0.149296
264865263672,1.22659,0.301866,-0.149007
264865284844,1.24985,0.256025,-0.149414
264865307166,1.26604,0.214719,-0.150478
264865322951,1.28793,0.174833,-0.153941
264865344619,1.31928,0.138511,-0.156135
264865367316,1.34918,0.104503,-0.158906
264865383069,1.37631,0.0733409,-0.163338
264865406129,1.40204,0.0459101,-0.163995
264865427365,1.42518,0.0207207,-0.16092
264865443002,1.44596,-0.00243449,-0.158101
264865464710,1.46435,-0.0240441,-0.158117
264865487306,1.48383,-0.0463968,-0.161668
264865502993,1.5082,-0.0674995,-0.165451
264865526181,1.53344,-0.0857394,-0.165185
264865547336,1.55781,-0.101274,-0.161398
264865563048,1.57608,-0.114628,-0.157127
264865586050,1.58679,-0.126984,-0.154434
264865607175,1.59589,-0.139476,-0.1542
264865622938,1.61025,-0.152868,-0.154433
264865646744,1.6275,-0.167574,-0.153515
264865667290,1.64602,-0.182511,-0.152043
264865683080,1.6606,-0.196474,-0.151191
264865706108,1.66798,-0.208575,-0.151494
264865727109,1.67023,-0.217621,-0.154095
264865751192,1.67229,-0.224117,-0.158027
264865766133,1.67571,-0.228566,-0.162363
264865787385,1.6785,-0.231939,-0.166312
264865802992,1.67888,-0.234636,-0.169762
264865826122,1.67714,-0.237182,-0.172766
264865847177,1.67437,-0.240363,-0.175327
264865862935,1.67286,-0.243297,-0.177155
264865886140,1.67319,-0.246148,-0.177461
264865907131,1.67547,-0.249467,-0.176918
264865922927,1.67845,-0.253259,-0.175013
264865946107,1.68075,-0.257206,-0.17226
264865967326,1.68243,-0.260465,-0.169115
264865983046,1.68442,-0.263862,-0.166377
264866006152,1.68539,-0.266784,-0.163482
264866027368,1.68281,-0.269892,-0.161057
264866043020,1.6778,-0.273993,-0.15825
264866066206,1.67295,-0.27845,-0.155574
264866087374,1.67153,-0.283411,-0.154709
264866103000,1.66979,-0.287391,-0.155041
264866126219,1.66918,-0.289043,-0.156192
264866147300,1.67046,-0.288494,-0.156786
264866163053,1.67318,-0.28717,-0.156497
264866186071,1.67743,-0.285154,-0.155597
264866207144,1.68073,-0.283401,-0.15422
264866222907,1.68184,-0.281737,-0.152779
264866246048,1.68072,-0.280738,-0.15124
264866267154,1.67953,-0.279818,-0.150131
264866282952,1.67934,-0.278712,-0.149596
264866305442,1.67976,-0.278071,-0.149701
264866327197,1.67907,-0.277224,-0.1499
264866343061,1.67724,-0.276524,-0.150557
264866365514,1.67531,-0.276332,-0.151931
264866387364,1.67305,-0.276641,-0.153019
264866403037,1.66977,-0.277018,-0.153452
264866425424,1.66648,-0.276813,-0.153578
264866448686,1.66458,-0.276522,-0.153548
264866463013,1.66457,-0.276747,-0.154004
264866485675,1.6668,-0.277457,-0.154364
264866508667,1.66944,-0.278043,-0.155036
264866522992,1.6708,-0.277596,-0.155029
264866545522,1.67139,-0.276504,-0.154702
264866569090,1.67163,-0.274938,-0.154114
264866582920,1.67236,-0.273676,-0.15379
264866605544,1.67344,-0.272539,-0.154047
264866628663,1.67556,-0.27176,-0.154558
264866642959,1.6767,-0.270376,-0.15454
264866665428,1.67407,-0.269088,-0.153835
264866688584,1.66651,-0.268112,-0.151855
264866702953,1.65876,-0.267256,-0.149596
264866733601,1.6538,-0.265051,-0.147228
264866748733,1.65124,-0.260574,-0.144737
264866763063,1.64673,-0.254333,-0.141395
264866785533,1.63862,-0.246692,-0.137304
264866808664,1.62894,-0.237726,-0.133221
264866829895,1.61977,-0.226678,-0.129322
264866845657,1.61089,-0.214151,-0.125778
264866868743,1.59934,-0.19993,-0.121448
264866889694,1.58476,-0.182221,-0.116277
264866905502,1.56814,-0.160155,-0.11164
264866928578,1.5512,-0.13539,-0.107308
264866949822,1.53346,-0.109069,-0.102886
264866965565,1.51497,-0.0801543,-0.0990003
264866988624,1.49743,-0.0477822,-0.0955683
264867009855,1.47648,-0.0120422,-0.0920126
264867025579,1.45259,0.0261646,-0.0902938
264867048658,1.42994,0.0663371,-0.0899843
264867069840,1.40896,0.109464,-0.0897352
264867085637,1.38684,0.155786,-0.089963
264867108627,1.36342,0.203948,-0.091687
264867129699,1.33855,0.252988,-0.0960655
264867145429,1.30812,0.302461,-0.102603
264867168607,1.27332,0.353383,-0.110208
264867189646,1.239,0.405011,-0.120047
264867205413,1.20593,0.457893,-0.131826
264867227997,1.1711,0.511897,-0.146158
264867249620,1.13302,0.566037,-0.163083
264867265589,1.09228,0.620354,-0.1816
264867287987,1.05068,0.674251,-0.2032
264867309881,1.00775,0.727762,-0.229606
264867325634,0.962119,0.779885,-0.259144
264867347983,0.911309,0.829189,-0.291842
264867369923,0.858826,0.874699,-0.327671
264867393715,0.80291,0.916829,-0.36593
264867407985,0.74371,0.955755,-0.40907
264867431119,0.68877,0.991108,-0.454124
264867445725,0.638625,1.02258,-0.498823
264867468012,0.582924,1.05029,-0.546351
264867491207,0.525086,1.07467,-0.596477
264867505572,0.464504,1.09724,-0.648795
264867528035,0.394112,1.11555,-0.706847
264867551217,0.314493,1.13223,-0.773764
264867565625,0.232991,1.14381,-0.840945
264867588048,0.153466,1.15216,-0.90673
264867611221,0.076406,1.16199,-0.973792
264867625569,-0.0104353,1.17342,-1.05002
264867648023,-0.0949812,1.17968,-1.12392
264867671201,-0.172482,1.18398,-1.19149
264867692428,-0.248583,1.18736,-1.25895
264867708003,-0.314812,1.18973,-1.32002
264867731260,-0.370146,1.19135,-1.37251
264867752407,-0.416708,1.19218,-1.41479
264867768081,-0.45473,1.19203,-1.44763
264867791178,-0.479136,1.19101,-1.46858
264867812366,-0.490953,1.19091,-1.47939
264867828011,-0.493726,1.19291,-1.48109
264867851301,-0.48516,1.19447,-1.47328
264867872266,-0.462227,1.19603,-1.45347
264867887992,-0.434224,1.19888,-1.42561
264867911194,-0.406485,1.20187,-1.39382
264867932167,-0.375009,1.20434,-1.3593
264867947922,-0.335425,1.20588,-1.3192
264867971193,-0.291193,1.20656,-1.27561
264867991993,-0.240654,1.20639,-1.22755
264868008002,-0.185806,1.20389,-1.17574
264868031294,-0.126504,1.19869,-1.12034
264868052317,-0.0629679,1.19261,-1.05961
264868068086,0.000706327,1.18619,-0.998401
264868091161,0.0687973,1.1783,-0.935168
264868112351,0.138489,1.16826,-0.871782
264868128095,0.20806,1.15572,-0.808601
264868151287,0.276807,1.14169,-0.747039
264868172299,0.351585,1.1293,-0.685179
264868187381,0.436532,1.11484,-0.617093
264868201754,0.521842,1.10096,-0.5504
264868224150,0.596404,1.0867,-0.497311
264868247358,0.668709,1.06652,-0.452352
264868261762,0.739586,1.04376,-0.411306
264868284228,0.805946,1.01854,-0.375484
264868307183,0.872688,0.985291,-0.334331
264868321617,0.924687,0.950729,-0.302097
264868344069,0.962711,0.914892,-0.274634
264868367397,0.991295,0.876663,-0.250954
264868381759,1.01367,0.837717,-0.230218
264868420585,1.04608,0.796471,-0.207336
264868427449,1.08241,0.755865,-0.186678
264868441685,1.12045,0.715858,-0.168985
264868464245,1.15265,0.675368,-0.155777
264868487458,1.18301,0.634859,-0.142583
264868501801,1.21339,0.59527,-0.125608
264868524251,1.23997,0.557604,-0.108101
264868547292,1.25976,0.522135,-0.0964341
264868561760,1.2834,0.485038,-0.0863716
264868584120,1.31102,0.446475,-0.0795249
264868607935,1.342,0.407771,-0.0726763
264868621783,1.36956,0.368499,-0.0641625
264868644034,1.39132,0.326762,-0.0573093
264868667466,1.40827,0.283194,-0.0536479
264868681764,1.4232,0.240282,-0.0511455
264868704139,1.43893,0.199666,-0.0491247
264868727376,1.45248,0.161279,-0.0473023
264868741661,1.46765,0.125348,-0.0470931
264868764033,1.48561,0.0906423,-0.0476225
264868787187,1.50881,0.0596172,-0.0472056
264868801534,1.53298,0.0306722,-0.0448742
264868824075,1.5509,0.00327279,-0.0443176
264868847248,1.56859,-0.0193875,-0.0472845
264868861615,1.58399,-0.0405834,-0.0519019
264868884297,1.59356,-0.0617086,-0.0568465
264868907283,1.59615,-0.0819041,-0.0600574
264868921784,1.59763,-0.101876,-0.0635282
264868944179,1.60533,-0.120511,-0.0680014
264868967461,1.61765,-0.138144,-0.0710232
264868981750,1.6282,-0.151384,-0.0712252
264869004230,1.63617,-0.161083,-0.0685411
264869027289,1.64108,-0.170619,-0.0639283
264869041673,1.64485,-0.178846,-0.0583429
264869064292,1.64943,-0.186131,-0.0529043
264869087439,1.65626,-0.192084,-0.0479148
264869101745,1.66671,-0.195829,-0.0433004
264869124119,1.67564,-0.198685,-0.0371327
264869147442,1.6772,-0.201071,-0.0291709
264869161754,1.67303,-0.204924,-0.0205278
264869184194,1.66761,-0.211414,-0.0108142
264869207220,1.6691,-0.217642,-0.0026706
264869221630,1.67698,-0.224422,0.00323543
264869244310,1.68736,-0.231727,0.00756764
264869267373,1.69658,-0.238855,0.0114376
264869281770,1.70223,-0.246667,0.0149674
264869304209,1.70419,-0.255448,0.018146
264869326762,1.70437,-0.265573,0.0206109
264869341593,1.70396,-0.276644,0.0218553
264869364288,1.70515,-0.285376,0.0213035
264869386702,1.70098,-0.28973,0.0211721
264869401768,1.68883,-0.290045,0.0215296
264869424120,1.67659,-0.288758,0.0214502
264869446762,1.67209,-0.287128,0.0201781
264869461819,1.67632,-0.286199,0.0178639
264869484259,1.68303,-0.285935,0.0157851
264869506662,1.68842,-0.285467,0.013897
264869521735,1.68716,-0.285623,0.0124108
264869544271,1.6806,-0.287083,0.0105625
264869566576,1.67313,-0.289222,0.00829556
264869581549,1.66948,-0.292901,0.00568653
264869604031,1.67009,-0.29671,0.00321798
264869626564,1.67372,-0.300046,0.00102601
264869641561,1.67666,-0.302105,-0.000222867
264869664101,1.67742,-0.30238,-9.24076e-05
264869686597,1.67663,-0.301713,0.000755355
264869701570,1.676,-0.300962,0.00166924
264869724059,1.67699,-0.300844,0.00224449
264869746774,1.679,-0.300959,0.00253817
264869761644,1.6811,-0.301518,0.00271801
264869784312,1.68256,-0.301819,0.00326065
264869806691,1.68355,-0.302161,0.00440712
264869821662,1.6848,-0.302757,0.00540741
264869844266,1.68581,-0.30377,0.00599023
264869866756,1.68569,-0.30457,0.00655322
264869881751,1.68572,-0.304654,0.00645893
264869904348,1.68622,-0.30441,0.00649593
264869926783,1.68623,-0.304492,0.00656543
264869941661,1.68613,-0.305026,0.00656266
264869964296,1.68596,-0.305963,0.00626479
264869986788,1.68598,-0.306045,0.00633425
264870001659,1.68618,-0.306238,0.0063115
264870024122,1.68618,-0.306238,0.0063115
264870054714,1.68591,-0.306744,0.00630675
264870064572,1.68527,-0.307261,0.00620846
264870092494,1.68527,-0.307356,0.00629282
264870106660,1.68551,-0.306671,0.00630733
264870123016,1.68551,-0.306671,0.00630733
264870144248,1.68745,-0.306846,0.00599162
264870166761,1.69031,-0.306852,0.00554791
264870183179,1.692,-0.306586,0.00521129
264870204312,1.69169,-0.305694,0.00496435
264870226784,1.69209,-0.302088,0.00319267
264870243080,1.6938,-0.296427,0.000234552
264870264299,1.6915,-0.288495,-0.00315371
264870286781,1.68882,-0.277024,-0.00784347
264870303109,1.68899,-0.262191,-0.0137841
264870324092,1.68813,-0.243435,-0.0201271
264870346554,1.68105,-0.220024,-0.0252483
264870363034,1.66732,-0.191956,-0.0294423
264870384104,1.6492,-0.160051,-0.0340256
264870406646,1.63199,-0.125908,-0.0401199
264870423033,1.6168,-0.089118,-0.0463084
264870444220,1.60278,-0.0509166,-0.0508197
264870466656,1.58546,-0.00987856,-0.0536813
264870483129,1.56468,0.0333343,-0.0563923
264870504299,1.54316,0.0771795,-0.0597275
264870526798,1.52161,0.121975,-0.0627782
264870543101,1.5006,0.16866,-0.0655713
264870564096,1.48273,0.217876,-0.0683863
264870586749,1.46683,0.269033,-0.0714612
264870603155,1.44832,0.32052,-0.0757876
264870624070,1.42537,0.372441,-0.0819332
264870646599,1.40119,0.425135,-0.0908093
264870663036,1.37543,0.478838,-0.101642
264870684074,1.34628,0.533067,-0.114635
264870706602,1.31324,0.58752,-0.129348
264870723068,1.27671,0.641913,-0.146864
264870744283,1.23649,0.696477,-0.168436
264870766669,1.19313,0.750342,-0.194407
264870783146,1.15042,0.802762,-0.223618
264870804321,1.10942,0.856335,-0.252771
264870826657,1.06777,0.912229,-0.282652
264870843109,1.02418,0.967548,-0.316764
264870864178,0.973051,1.02097,-0.358576
264870886717,0.911635,1.07179,-0.410574
264870903091,0.846591,1.11891,-0.470242
264870924119,0.778921,1.16266,-0.534201
264870946636,0.704447,1.20331,-0.604688
264870963111,0.614187,1.23775,-0.687685
264870984300,0.506491,1.26543,-0.785652
264871006666,0.389926,1.28525,-0.891601
264871023101,0.273934,1.29859,-0.997467
264871045668,0.154792,1.30953,-1.10744
264871066725,0.0278199,1.31703,-1.22351
264871083126,-0.0949013,1.32155,-1.33407
264871105569,-0.209073,1.3214,-1.43486
264871126758,-0.315117,1.31783,-1.5259
264871143056,-0.409825,1.3123,-1.6076
264871165663,-0.486979,1.30436,-1.67387
264871186848,-0.546037,1.29495,-1.72222
264871203144,-0.595407,1.28496,-1.76034
264871225647,-0.640792,1.27656,-1.79641
264871246696,-0.676088,1.2681,-1.82499
264871263091,-0.692681,1.26075,-1.83508
264871285685,-0.694311,1.25374,-1.82887
264871306584,-0.688604,1.25005,-1.81695
264871323033,-0.675912,1.24949,-1.80077
264871345672,-0.653475,1.25139,-1.77693
264871366834,-0.614167,1.25525,-1.73992
264871384521,-0.556898,1.26161,-1.68837
264871405603,-0.488099,1.27183,-1.62675
264871426816,-0.407287,1.28271,-1.55419
264871443060,-0.309924,1.29285,-1.46603
264871465569,-0.181704,1.30026,-1.34893
264871486707,-0.021837,1.30152,-1.20222
264871503117,0.143921,1.29647,-1.0491
264871525597,0.309632,1.28218,-0.893783
264871546816,0.466327,1.25632,-0.747533
264871563162,0.600434,1.22136,-0.625269
264871587081,0.711459,1.18022,-0.523875
264871606660,0.803226,1.13294,-0.43822
264871623118,0.882086,1.08062,-0.3709
264871645603,0.952087,1.02492,-0.318034
264871666762,1.01183,0.965837,-0.276135
264871683142,1.0622,0.906981,-0.239932
264871705605,1.1078,0.852694,-0.210569
264871726637,1.15069,0.799045,-0.188582
264871743046,1.19102,0.742318,-0.172595
264871765675,1.22892,0.685791,-0.159926
264871786786,1.26392,0.633183,-0.147039
264871803147,1.29573,0.583972,-0.134862
264871825547,1.3237,0.534983,-0.12659
264871846847,1.35388,0.483816,-0.122438
264871863164,1.39225,0.430113,-0.117416
264871885581,1.42818,0.376134,-0.110525
264871906672,1.45725,0.323965,-0.103469
264871923077,1.48247,0.272165,-0.0972151
264871944953,1.50971,0.222069,-0.0921495
264871967437,1.5445,0.176378,-0.0881317
264871982399,1.5813,0.134631,-0.0849526
264872004917,1.61354,0.0949845,-0.0840704
264872027275,1.64322,0.0591931,-0.084891
264872042214,1.67031,0.0257086,-0.0853452
264872064775,1.69166,-0.00263268,-0.0850989
264872087250,1.70434,-0.0268752,-0.0848761
264872102400,1.71146,-0.048061,-0.0873685
264872124786,1.71859,-0.0648886,-0.0926439
264872147384,1.72873,-0.0788295,-0.0995137
264872163762,1.73658,-0.0905492,-0.105801
264872184977,1.73859,-0.0993477,-0.1117
264872207290,1.7359,-0.106601,-0.118428
264872223748,1.7309,-0.11243,-0.125226
264872244869,1.72516,-0.117574,-0.130851
264872267313,1.71974,-0.122064,-0.134594
264872283776,1.71481,-0.125773,-0.137071
264872304806,1.71059,-0.129107,-0.139379
264872327465,1.70846,-0.13267,-0.141665
264872343857,1.70812,-0.136711,-0.144024
264872364976,1.70897,-0.141476,-0.146093
264872387453,1.71094,-0.145879,-0.147184
264872403784,1.71273,-0.149648,-0.147698
264872424881,1.71352,-0.15305,-0.148024
264872447484,1.71423,-0.156024,-0.148228
264872463860,1.71562,-0.159002,-0.14814
264872484983,1.71739,-0.162021,-0.147836
264872507305,1.72009,-0.16481,-0.147772
264872523761,1.72271,-0.167458,-0.148483
264872545020,1.72536,-0.170296,-0.150177
264872567417,1.72774,-0.173396,-0.152138
264872583817,1.72749,-0.176598,-0.153783
264872604944,1.7246,-0.179644,-0.155508
264872627471,1.72099,-0.182658,-0.157413
264872643706,1.71887,-0.185283,-0.159513
264872664955,1.71778,-0.187908,-0.162143
264872687406,1.71545,-0.190051,-0.165482
264872703846,1.70955,-0.191052,-0.170543
264872724880,1.69963,-0.19184,-0.174912
264872747498,1.6877,-0.192902,-0.176908
264872763833,1.67207,-0.194849,-0.178225
264872784823,1.65736,-0.195814,-0.178954
264872807267,1.64456,-0.19609,-0.180364
264872823770,1.63186,-0.195899,-0.183252
264872845001,1.6175,-0.195718,-0.188941
264872867514,1.60263,-0.195466,-0.19773
264872883794,1.58757,-0.196165,-0.20819
264872905037,1.5726,-0.196965,-0.219803
264872927452,1.55839,-0.198494,-0.23264
264872943200,1.5444,-0.19942,-0.245418
264872964951,1.52943,-0.200401,-0.257504
264872987386,1.50943,-0.199779,-0.268968
264873003178,1.48831,-0.200118,-0.279392
264873024831,1.47278,-0.198667,-0.291242
264873047504,1.4619,-0.197552,-0.303033
264873063202,1.44643,-0.194404,-0.315155
264873086305,1.41919,-0.190081,-0.326112
264873107355,1.39074,-0.187732,-0.337569
264873123107,1.36816,-0.1866,-0.348391
264873146311,1.34963,-0.183277,-0.361876
264873167514,1.32935,-0.182411,-0.374596
264873183256,1.30502,-0.180327,-0.387919
264873206321,1.28639,-0.180311,-0.401245
264873227503,1.27313,-0.178764,-0.414445
264873243197,1.25906,-0.177968,-0.428059
264873266293,1.24313,-0.17819,-0.441251
264873287445,1.23026,-0.179027,-0.454026
264873303169,1.22328,-0.180335,-0.465802
264873326350,1.21712,-0.181799,-0.47618
264873347362,1.20788,-0.183626,-0.485666
264873363178,1.19934,-0.185816,-0.494939
264873386297,1.19498,-0.188963,-0.503815
264873407364,1.19073,-0.192069,-0.512356
264873423095,1.18276,-0.194559,-0.520484
264873446361,1.17533,-0.19682,-0.527957
264873467511,1.17361,-0.199034,-0.534846
264873483189,1.17423,-0.201242,-0.540871
264873506328,1.1727,-0.202657,-0.545455
264873527486,1.16842,-0.203467,-0.548999
264873543125,1.16693,-0.204142,-0.551877
264873566415,1.1692,-0.204563,-0.553562
264873587418,1.17222,-0.20474,-0.553946
264873603125,1.17272,-0.204227,-0.553135
264873632374,1.17215,-0.203582,-0.551933
264873647347,1.17385,-0.20321,-0.550962
264873663211,1.17738,-0.2033,-0.550079
264873686294,1.18028,-0.203843,-0.549018
264873707334,1.18149,-0.203815,-0.547983
264873723097,1.18214,-0.203942,-0.547511
264873746341,1.18406,-0.204083,-0.547694
264873767553,1.18598,-0.204331,-0.547819
264873783229,1.1873,-0.204585,-0.547924
264873806318,1.18837,-0.204875,-0.548124
264873827439,1.18996,-0.205217,-0.548515
264873843128,1.19111,-0.205292,-0.548746
264873865720,1.19221,-0.205202,-0.549
264873887294,1.19395,-0.204883,-0.549132
264873903048,1.19541,-0.204571,-0.54934
264873925597,1.19527,-0.204493,-0.55
264873947314,1.19547,-0.204866,-0.550774
264873963120,1.19636,-0.205721,-0.55178
264873985574,1.19731,-0.206833,-0.552677
264874007311,1.19741,-0.208094,-0.553586
264874023087,1.19744,-0.209507,-0.554575
264874059855,1.19833,-0.21094,-0.55539
264874068833,1.1999,-0.212043,-0.55632
264874091274,1.2004,-0.212888,-0.557512
264874105707,1.20033,-0.213812,-0.558747
264874128883,1.20032,-0.214901,-0.559961
264874143154,1.20098,-0.216082,-0.561291
264874165719,1.20213,-0.216787,-0.56273
264874188849,1.2018,-0.217655,-0.564151
264874203204,1.20062,-0.218837,-0.565383
264874225611,1.20059,-0.220214,-0.566643
264874248781,1.20146,-0.221413,-0.567604
264874263088,1.20257,-0.222562,-0.568895
264874285658,1.20252,-0.223646,-0.570396
264874308848,1.20267,-0.225041,-0.57174
264874323101,1.20404,-0.226466,-0.573006
264874353852,1.20623,-0.227672,-0.573781
264874368786,1.20834,-0.22855,-0.574145
264874397458,1.20796,-0.228999,-0.57434
264874405608,1.20749,-0.229477,-0.574232
264874428841,1.20999,-0.230001,-0.574315
264874443181,1.21273,-0.230033,-0.574286
264874465721,1.2138,-0.229607,-0.57432
264874488833,1.21362,-0.228913,-0.57452
264874503127,1.21326,-0.228397,-0.574952
264874525682,1.21364,-0.227972,-0.575684
264874548946,1.21403,-0.227999,-0.57644
264874570038,1.21441,-0.228409,-0.57715
264874585656,1.2135,-0.229011,-0.577455
264874616329,1.21322,-0.229948,-0.577871
264874629998,1.21404,-0.231171,-0.578096
264874645751,1.21614,-0.232428,-0.578428
264874668882,1.21859,-0.233523,-0.578612
264874689850,1.22009,-0.234385,-0.578487
264874705606,1.22078,-0.234988,-0.578533
264874728760,1.22161,-0.235629,-0.578955
264874750010,1.22299,-0.236662,-0.579666
264874765713,1.22436,-0.237343,-0.580297
264874788858,1.22531,-0.237569,-0.58107
264874809899,1.22522,-0.237872,-0.581866
264874825600,1.22476,-0.238053,-0.582625
264874848125,1.22448,-0.239075,-0.583872
264874870043,1.22625,-0.240159,-0.585227
264874885696,1.22753,-0.241297,-0.586925
264874908120,1.22773,-0.242257,-0.588294
264874929895,1.22757,-0.243193,-0.589538
264874945635,1.22806,-0.243987,-0.590578
264874968200,1.22962,-0.244411,-0.591553
264874991287,1.23083,-0.244843,-0.592419
264875005629,1.23247,-0.245372,-0.593031
264875028250,1.23381,-0.245887,-0.593238
264875051409,1.23472,-0.246531,-0.593399
264875065760,1.2351,-0.246909,-0.593651
264875088235,1.23625,-0.247312,-0.593866
264875111352,1.23734,-0.247549,-0.594098
264875125685,1.23825,-0.247864,-0.594614
264875148159,1.23891,-0.248387,-0.595061
264875171899,1.23972,-0.248634,-0.595362
264875185735,1.24044,-0.248912,-0.59536
264875208149,1.24165,-0.248906,-0.595284
264875231358,1.24278,-0.248702,-0.595206
264875245693,1.24299,-0.248592,-0.595045
264875268211,1.24318,-0.247965,-0.594956
264875291291,1.24366,-0.247261,-0.594903
264875305699,1.24351,-0.246389,-0.594528
264875336355,1.2431,-0.245494,-0.594345
264875351363,1.24248,-0.24462,-0.593954
264875365626,1.24214,-0.24422,-0.593407
264875388321,1.24245,-0.243836,-0.59292
264875411281,1.24235,-0.243614,-0.592403
264875425689,1.24215,-0.243325,-0.591672
264875448248,1.2425,-0.243238,-0.590958
264875471374,1.24273,-0.242919,-0.590185
264875492411,1.24254,-0.242729,-0.589365
264875508184,1.24279,-0.242499,-0.58896
264875531406,1.24272,-0.242399,-0.588869
264875552552,1.2427,-0.242366,-0.588852
264875568200,1.24285,-0.242345,-0.588879
264875591287,1.24286,-0.242279,-0.588985
264875612413,1.24319,-0.242491,-0.589252
264875628176,1.24387,-0.242728,-0.589648
264875651392,1.24435,-0.242919,-0.589942
264875672564,1.24461,-0.243285,-0.590291
264875688244,1.24509,-0.243894,-0.590604
264875711347,1.24611,-0.244519,-0.590617
264875732604,1.24661,-0.244974,-0.590669
264875747582,1.24652,-0.245348,-0.590907
264875761671,1.24661,-0.2458,-0.591124
264875784386,1.24714,-0.246223,-0.5913
264875807414,1.24771,-0.246778,-0.591445
264875821887,1.24761,-0.247284,-0.591471
264875844374,1.24778,-0.247781,-0.59143
264875867485,1.24823,-0.24817,-0.591409
264875881878,1.24823,-0.24817,-0.591409
264875904259,1.24824,-0.248104,-0.591515
264875927550,1.24817,-0.248004,-0.591423
264875941773,1.24817,-0.248004,-0.591423
264875964406,1.24817,-0.248004,-0.591423
264875987566,1.24833,-0.247984,-0.59145
264876001962,1.24929,-0.249003,-0.592222
264876024255,1.25042,-0.250674,-0.593218
264876047574,1.25168,-0.251771,-0.594296
264876061833,1.25285,-0.252514,-0.595109
264876084315,1.25377,-0.252573,-0.595458
264876107418,1.25378,-0.252673,-0.59537
264876121888,1.25383,-0.251847,-0.595091
264876144230,1.25358,-0.250612,-0.594858
264876167409,1.25313,-0.249331,-0.594523
264876181943,1.25283,-0.248668,-0.594395
264876204452,1.25283,-0.248668,-0.594395
264876227468,1.25277,-0.248502,-0.594408
264876241749,1.25277,-0.248502,-0.594408
264876264463,1.25261,-0.248523,-0.59438
264876287329,1.25308,-0.248779,-0.594573
264876301754,1.25368,-0.249047,-0.594671
264876324215,1.25368,-0.249047,-0.594671
264876347603,1.2537,-0.24908,-0.594688
264876361865,1.2537,-0.24908,-0.594688
264876384337,1.25355,-0.249101,-0.59466
264876407387,1.25355,-0.249101,-0.59466
264876421780,1.25349,-0.248935,-0.594673
264876444336,1.25344,-0.24887,-0.594598
264876467510,1.25342,-0.248836,-0.594581
264876481777,1.25344,-0.24887,-0.594598
264876504402,1.25378,-0.249026,-0.594517
264876527548,1.25378,-0.249026,-0.594517
264876541862,1.25281,-0.248801,-0.594183
264876564348,1.25275,-0.248635,-0.594196
264876587460,1.25275,-0.248635,-0.594196
264876601695,1.25275,-0.248635,-0.594196
264876624207,1.25275,-0.248635,-0.594196
264876647329,1.2521,-0.248786,-0.593939
264876661661,1.25211,-0.24872,-0.594044
264876684260,1.25202,-0.24916,-0.594178
264876707387,1.25261,-0.249748,-0.594344
264876721717,1.25305,-0.250036,-0.594414
264876744245,1.25305,-0.250036,-0.594414
264876767341,1.25307,-0.25007,-0.594432
264876781697,1.25293,-0.250024,-0.594509
264876804236,1.25327,-0.250015,-0.594623
264876827477,1.25327,-0.250015,-0.594623
264876841844,1.25327,-0.250015,-0.594623
264876864273,1.25297,-0.25041,-0.594654
264876886865,1.25285,-0.250883,-0.594664
264876910094,1.25345,-0.251404,-0.594938
264876924222,1.25391,-0.251727,-0.595026
264876946910,1.25391,-0.251727,-0.595026
264876961876,1.25391,-0.251727,-0.595026
264876984444,1.25384,-0.251627,-0.594933
264877006804,1.25428,-0.251584,-0.595352
264877021886,1.25428,-0.251584,-0.595352
264877044256,1.25428,-0.251584,-0.595352
264877066787,1.25428,-0.251584,-0.595352
264877081855,1.25421,-0.251485,-0.595259
264877104332,1.25421,-0.251485,-0.595259
264877126807,1.25474,-0.251906,-0.595441
264877141776,1.25577,-0.252364,-0.595659
264877164429,1.25637,-0.252478,-0.595496
264877186938,1.25637,-0.252478,-0.595496
264877201937,1.25618,-0.252367,-0.595497
264877224233,1.25657,-0.251952,-0.595313
264877246940,1.25714,-0.251514,-0.595198
264877261907,1.25715,-0.251447,-0.595304
264877284406,1.2571,-0.251382,-0.595228
264877306828,1.25694,-0.251402,-0.5952
264877321994,1.25719,-0.250941,-0.595094
264877344270,1.25719,-0.250941,-0.595094
264877366880,1.25671,-0.250686,-0.594899
264877381992,1.25675,-0.250653,-0.595022
264877404230,1.25699,-0.250744,-0.594726
264877426740,1.25716,-0.250656,-0.59486
264877441734,1.2572,-0.250635,-0.594567
264877464259,1.25753,-0.250374,-0.594465
264877486755,1.25746,-0.250275,-0.594372
264877501736,1.2573,-0.250296,-0.594344
264877524215,1.25744,-0.250241,-0.594354
264877546740,1.2576,-0.250221,-0.594382
264877561759,1.25745,-0.250175,-0.59446
264877585663,1.25743,-0.250561,-0.594424
264877606776,1.25722,-0.251474,-0.59457
264877621759,1.25767,-0.252016,-0.594818
264877644296,1.25875,-0.252626,-0.595483
264877668245,1.26036,-0.252832,-0.59587
264877683233,1.26076,-0.252988,-0.595973
264877704234,1.26111,-0.252978,-0.596089
264877726750,1.26202,-0.252784,-0.596265
264877743230,1.26257,-0.252333,-0.596566
264877764257,1.2625,-0.252234,-0.596472
264877786794,1.26251,-0.252167,-0.596578
264877803190,1.26281,-0.252025,-0.596722
264877824252,1.26294,-0.252037,-0.596628
264877846745,1.26294,-0.252037,-0.596628
264877863186,1.26233,-0.251684,-0.596156
264877884191,1.26156,-0.250781,-0.59537
264877906737,1.26196,-0.249809,-0.594482
264877923174,1.26095,-0.249299,-0.59391
264877944202,1.26062,-0.249089,-0.593638
264877966783,1.26056,-0.248923,-0.59365
264877983232,1.26097,-0.249333,-0.593928
264878004257,1.26062,-0.24998,-0.593994
264878026757,1.26094,-0.250576,-0.594232
264878043228,1.26203,-0.25088,-0.59437
264878064287,1.26203,-0.25088,-0.59437
264878086771,1.26203,-0.25088,-0.59437
264878103160,1.26197,-0.250714,-0.594382
264878124259,1.26199,-0.250748,-0.594399
264878146766,1.26197,-0.250714,-0.594382
264878163200,1.2619,-0.250615,-0.594289
264878184228,1.2615,-0.250392,-0.594292
264878206757,1.26152,-0.250325,-0.594397
264878223216,1.26152,-0.250325,-0.594397
264878244252,1.26144,-0.250226,-0.594304
264878266778,1.26144,-0.250226,-0.594304
264878283258,1.26174,-0.250151,-0.594343
264878304257,1.26167,-0.250052,-0.59425
264878326775,1.26167,-0.250052,-0.59425
264878343245,1.26168,-0.249985,-0.594355
264878364286,1.26168,-0.249985,-0.594355
264878386764,1.26168,-0.249985,-0.594355
264878403194,1.26163,-0.249919,-0.594279
264878424266,1.26174,-0.250151,-0.594343
264878446773,1.26175,-0.250084,-0.594448
264878463254,1.26175,-0.250084,-0.594448
264878484254,1.26209,-0.250242,-0.594369
264878506755,1.26242,-0.250366,-0.594273
264878523185,1.26242,-0.250366,-0.594273
264878544255,1.26238,-0.250233,-0.594303
264878566771,1.26263,-0.25041,-0.594377
264878583219,1.26263,-0.25041,-0.594377
264878605719,1.26257,-0.250244,-0.59439
264878626786,1.26257,-0.250244,-0.59439
264878643198,1.26252,-0.250179,-0.594314
264878665708,1.26252,-0.250179,-0.594314
264878686805,1.26252,-0.250179,-0.594314
264878703211,1.26294,-0.249949,-0.594451
264878725652,1.26288,-0.249783,-0.594464
264878746767,1.2629,-0.249817,-0.594481
264878763176,1.2629,-0.249817,-0.594481
264878785717,1.2629,-0.249817,-0.594481
264878806769,1.2629,-0.249817,-0.594481
264878823215,1.26283,-0.249717,-0.594388
264878851757,1.26283,-0.249717,-0.594388
264878866772,1.26284,-0.249651,-0.594493
264878883230,1.26277,-0.249551,-0.5944
264878905711,1.26277,-0.249551,-0.5944
264878926768,1.26277,-0.249551,-0.5944
264878943191,1.26277,-0.249551,-0.5944
264878967631,1.26271,-0.249385,-0.594412
264878986789,1.26271,-0.249385,-0.594412
264879003257,1.26271,-0.249385,-0.594412
264879025706,1.26273,-0.249419,-0.594429
264879046791,1.26273,-0.249419,-0.594429
264879063258,1.26273,-0.249419,-0.594429
264879085724,1.2625,-0.249341,-0.594308
264879106758,1.26266,-0.24932,-0.594336
264879123212,1.26251,-0.249274,-0.594414
264879145732,1.26244,-0.249175,-0.59432
264879166791,1.26286,-0.249365,-0.59444
264879183214,1.26286,-0.249365,-0.59444
264879205676,1.26271,-0.249385,-0.594412
264879226765,1.26264,-0.249286,-0.594319
264879243206,1.26264,-0.249286,-0.594319
264879267225,1.26264,-0.249286,-0.594319
264879286912,1.26264,-0.249286,-0.594319
264879303268,1.26266,-0.24932,-0.594336
264879325731,1.26299,-0.249377,-0.594345
264879346862,1.26299,-0.249377,-0.594345
264879363308,1.26299,-0.249377,-0.594345
264879385808,1.26283,-0.249398,-0.594317
264879406841,1.26344,-0.249833,-0.594225
264879423358,1.26405,-0.250202,-0.594238
264879445832,1.26421,-0.250666,-0.594185
264879466924,1.26449,-0.250978,-0.594189
264879483273,1.26449,-0.250978,-0.594189
264879505794,1.26449,-0.250978,-0.594189
264879526920,1.26442,-0.250879,-0.594096
264879542465,1.26443,-0.250812,-0.594201
264879572688,1.26443,-0.250812,-0.594201
264879587546,1.26443,-0.250812,-0.594201
264879602669,1.26443,-0.250812,-0.594201
264879624935,1.26443,-0.250812,-0.594201
264879647660,1.26443,-0.250812,-0.594201
264879662626,1.26443,-0.250812,-0.594201
264879685141,1.26443,-0.250812,-0.594201
264879707513,1.26443,-0.250812,-0.594201
264879723913,1.26429,-0.250866,-0.59419
264879745036,1.26422,-0.250767,-0.594097
264879767649,1.26422,-0.250767,-0.594097
264879783890,1.26422,-0.250767,-0.594097
264879805085,1.26423,-0.2507,-0.594202
264879827609,1.26416,-0.250601,-0.594109
264879843992,1.26416,-0.250601,-0.594109
264879865135,1.26416,-0.250601,-0.594109
264879887496,1.26416,-0.250601,-0.594109
264879903986,1.2647,-0.250703,-0.594223
264879924958,1.2647,-0.250703,-0.594223
264879947484,1.2647,-0.250703,-0.594223
264879964019,1.2647,-0.250703,-0.594223
264879985155,1.26472,-0.250737,-0.59424
264880007499,1.26472,-0.250737,-0.59424
264880023927,1.26496,-0.250981,-0.59421
264880045125,1.26499,-0.250948,-0.594333
264880067634,1.26499,-0.250948,-0.594333
264880083961,1.26483,-0.250968,-0.594305
264880105172,1.26517,-0.251026,-0.594315
264880127581,1.266,-0.25154,-0.594345
264880143938,1.26617,-0.25177,-0.594591
264880165102,1.26661,-0.25253,-0.595001
264880187630,1.26736,-0.253081,-0.595662
264880203984,1.26792,-0.254005,-0.596244
264880225038,1.26885,-0.254801,-0.596695
264880247663,1.27002,-0.255355,-0.597199
264880264089,1.27005,-0.255706,-0.597331
264880285121,1.27032,-0.255916,-0.597425
264880307502,1.27032,-0.255916,-0.597425
264880323950,1.26984,-0.25551,-0.596961
264880344945,1.26934,-0.254904,-0.59663
264880367659,1.26934,-0.254904,-0.59663
264880384020,1.26899,-0.254746,-0.596707
264880405234,1.26855,-0.255028,-0.596921
264880427572,1.26937,-0.255339,-0.597131
264880443898,1.27001,-0.255254,-0.597287
264880465107,1.26995,-0.255088,-0.597298
264880487611,1.26997,-0.255122,-0.597315
264880503384,1.26981,-0.255142,-0.597287
264880524957,1.2698,-0.25521,-0.597182
264880547701,1.26971,-0.255329,-0.597248
264880563343,1.26971,-0.255329,-0.597248
264880585183,1.26987,-0.255309,-0.597276
264880607544,1.26985,-0.255594,-0.597331
264880623280,1.26988,-0.256047,-0.597374
264880645155,1.26988,-0.256047,-0.597374
264880667652,1.26981,-0.255947,-0.59728
264880683333,1.26982,-0.25588,-0.597385
264880706518,1.26977,-0.255815,-0.597308
264880727632,1.26977,-0.255815,-0.597308
264880743303,1.26977,-0.255815,-0.597308
264880766474,1.26961,-0.255836,-0.59728
264880787728,1.26954,-0.255737,-0.597186
264880803419,1.26955,-0.25567,-0.597291
264880826428,1.26955,-0.25567,-0.597291
264880847661,1.26957,-0.255704,-0.597308
264880863327,1.26955,-0.25567,-0.597291
264880886499,1.26955,-0.25567,-0.597291
264880907546,1.26961,-0.256156,-0.597352
264880923297,1.27013,-0.256543,-0.597523
264880946416,1.27039,-0.256972,-0.597778
264880967467,1.27036,-0.25741,-0.598098
264880983225,1.27069,-0.257938,-0.598447
264881006385,1.27073,-0.258154,-0.598789
264881027478,1.27063,-0.258493,-0.599015
264881043249,1.2706,-0.258998,-0.59923
264881066408,1.27084,-0.259494,-0.599381
264881087455,1.27084,-0.259494,-0.599381
264881103233,1.27084,-0.259494,-0.599381
264881126385,1.27084,-0.259494,-0.599381
264881147453,1.27084,-0.259494,-0.599381
264881163373,1.27086,-0.259528,-0.599398
264881186488,1.27127,-0.259684,-0.599505
264881207530,1.27162,-0.259673,-0.599622
264881223357,1.2719,-0.259816,-0.599823
264881246485,1.27157,-0.260076,-0.599926
264881267542,1.27184,-0.260759,-0.60036
264881283349,1.27168,-0.260779,-0.600331
264881306483,1.27168,-0.260779,-0.600331
264881327517,1.27163,-0.260715,-0.600253
264881343288,1.27163,-0.260715,-0.600253
264881366445,1.27149,-0.260365,-0.599799
264881387608,1.27101,-0.260127,-0.599139
264881403311,1.27104,-0.259538,-0.598553
264881426474,1.27086,-0.259073,-0.597669
264881447491,1.27042,-0.258482,-0.59706
264881463280,1.27012,-0.258322,-0.596385
264881485891,1.27057,-0.25831,-0.595891
264881507564,1.2707,-0.25802,-0.595268
264881523247,1.27067,-0.257754,-0.594573
264881545778,1.27082,-0.257565,-0.593863
264881567644,1.27084,-0.257364,-0.593246
264881583412,1.27082,-0.25733,-0.593229
264881605821,1.27068,-0.257384,-0.593217
264881629434,1.27052,-0.257724,-0.593261
264881643355,1.27083,-0.258219,-0.593592
264881665852,1.27114,-0.258646,-0.594029
264881689092,1.27164,-0.258919,-0.594704
264881703374,1.27111,-0.259218,-0.595071
264881725742,1.27118,-0.259401,-0.595535
264881749425,1.27175,-0.259368,-0.595863
264881763307,1.27159,-0.259388,-0.595835
264881785971,1.27162,-0.259355,-0.595957
264881808962,1.27146,-0.259527,-0.596193
264881823317,1.27193,-0.260001,-0.596555
264881845869,1.27235,-0.26009,-0.596767
264881868934,1.27228,-0.259991,-0.596672
264881883312,1.2726,-0.260519,-0.597023
264881905819,1.27319,-0.261224,-0.597452
264881929050,1.27419,-0.262017,-0.598096
264881943361,1.27499,-0.262868,-0.598546
264881965836,1.27564,-0.263738,-0.598969
264881989076,1.27615,-0.264664,-0.599381
264882003413,1.2768,-0.265383,-0.59954
264882025781,1.27732,-0.265837,-0.599614
264882048988,1.2773,-0.266142,-0.599212
264882063369,1.27716,-0.266197,-0.5992
264882085885,1.2771,-0.26603,-0.599209
264882108902,1.2771,-0.26603,-0.599209
264882130230,1.27703,-0.265931,-0.599114
264882145823,1.27703,-0.265931,-0.599114
264882169042,1.27776,-0.265725,-0.599209
264882190173,1.27734,-0.265486,-0.598728
264882205829,1.2768,-0.265167,-0.598445
264882235200,1.27642,-0.264575,-0.598013
264882250197,1.27635,-0.264408,-0.598023
264882265888,1.2762,-0.264428,-0.597994
264882289020,1.27627,-0.264527,-0.598089
264882310018,1.27628,-0.26463,-0.598001
264882325786,1.27628,-0.26463,-0.598001
264882349003,1.27669,-0.264804,-0.597652
264882370237,1.27646,-0.264725,-0.597529
264882385821,1.27605,-0.264569,-0.597419
264882408357,1.27601,-0.264437,-0.597446
264882430181,1.27657,-0.264471,-0.597672
264882445879,1.27657,-0.264471,-0.597672
264882468375,1.27657,-0.264471,-0.597672
264882490079,1.27649,-0.264372,-0.597577
264882505875,1.27649,-0.264372,-0.597577
264882528359,1.2765,-0.264304,-0.597681
264882551566,1.27676,-0.26448,-0.597762
264882565913,1.27676,-0.26448,-0.597762
264882588428,1.27683,-0.26458,-0.597857
264882611471,1.27676,-0.26448,-0.597762
264882625860,1.27678,-0.264515,-0.597779
264882648376,1.27705,-0.264405,-0.597803
264882671492,1.27698,-0.264306,-0.597708
264882685868,1.27648,-0.26459,-0.597738
264882708294,1.27648,-0.26459,-0.597738
264882731489,1.27704,-0.264793,-0.597771
264882745896,1.27697,-0.264694,-0.597676
264882768351,1.27697,-0.264694,-0.597676
264882791478,1.27697,-0.264694,-0.597676
264882805887,1.27681,-0.264714,-0.597648
264882828420,1.27681,-0.264714,-0.597648
264882852082,1.27683,-0.264749,-0.597664
264882865894,1.27683,-0.264749,-0.597664
264882888371,1.27704,-0.264642,-0.597506
264882911493,1.27705,-0.264575,-0.59761
264882925783,1.27747,-0.26458,-0.597454
264882948302,1.27748,-0.264513,-0.597559
264882971625,1.2774,-0.264413,-0.597464
264882985853,1.27791,-0.264383,-0.597612
264883008332,1.27812,-0.264427,-0.597719
264883031524,1.27812,-0.264427,-0.597719
264883052697,1.27812,-0.264427,-0.597719
264883068419,1.27806,-0.26426,-0.597728
264883091442,1.27806,-0.26426,-0.597728
264883112755,1.27806,-0.26426,-0.597728
264883128379,1.27806,-0.26426,-0.597728
264883151609,1.27799,-0.264161,-0.597633
264883172708,1.27799,-0.264161,-0.597633
264883188392,1.27799,-0.264161,-0.597633
264883210761,1.278,-0.264094,-0.597738
264883232668,1.27799,-0.264161,-0.597633
264883248342,1.278,-0.264094,-0.597738
264883271666,1.27802,-0.264128,-0.597755
264883292768,1.27841,-0.264249,-0.597848
264883308336,1.27913,-0.264262,-0.598103
264883330908,1.27906,-0.264163,-0.598008
264883344554,1.27906,-0.264163,-0.598008
264883367690,1.27906,-0.264163,-0.598008
264883381976,1.27906,-0.264163,-0.598008
264883404629,1.27906,-0.264163,-0.598008
264883427752,1.27901,-0.264032,-0.598034
264883441958,1.27901,-0.264032,-0.598034
264883464527,1.27901,-0.264032,-0.598034
264883487689,1.27885,-0.264052,-0.598005
264883502045,1.27901,-0.264032,-0.598034
264883524374,1.27885,-0.264052,-0.598005
264883547680,1.27885,-0.264052,-0.598005
264883562032,1.27878,-0.263953,-0.59791
264883584492,1.27878,-0.263953,-0.59791
264883607687,1.27878,-0.263953,-0.59791
264883622019,1.27878,-0.263953,-0.59791
264883644494,1.27935,-0.264088,-0.598049
264883667758,1.27935,-0.264088,-0.598049
264883682013,1.27928,-0.263989,-0.597954
264883704480,1.27928,-0.263989,-0.597954
264883727765,1.27928,-0.263989,-0.597954
264883741984,1.27912,-0.26401,-0.597925
264883764403,1.27928,-0.263989,-0.597954
264883787549,1.27928,-0.263989,-0.597954
264883802035,1.27928,-0.263989,-0.597954
264883824456,1.27925,-0.264343,-0.597906
264883847809,1.27925,-0.264343,-0.597906
264883862074,1.27927,-0.264378,-0.597923
264883884502,1.27927,-0.264378,-0.597923
264883907631,1.27927,-0.264378,-0.597923
264883922049,1.27927,-0.264378,-0.597923
264883944551,1.27927,-0.264378,-0.597923
264883968218,1.27928,-0.26431,-0.598027
264883982028,1.27928,-0.26431,-0.598027
264884004523,1.2792,-0.264211,-0.597932
264884027760,1.2792,-0.264211,-0.597932
264884041954,1.2792,-0.264211,-0.597932
264884064542,1.27928,-0.26431,-0.598027
264884087718,1.27927,-0.264378,-0.597923
264884101980,1.27927,-0.264378,-0.597923
264884124450,1.27946,-0.264557,-0.597821
264884147813,1.27946,-0.264557,-0.597821
264884162056,1.27938,-0.264458,-0.597726
264884184574,1.27939,-0.26439,-0.59783
264884207644,1.27925,-0.264513,-0.597714
264884221986,1.27925,-0.264513,-0.597714
264884244490,1.27925,-0.264513,-0.597714
264884267718,1.27964,-0.264974,-0.597422
264884282101,1.28103,-0.265188,-0.597146
264884304510,1.28214,-0.265513,-0.596846
264884327605,1.28245,-0.265943,-0.596356
264884342073,1.28363,-0.266436,-0.596049
264884364561,1.28509,-0.26699,-0.595575
264884387680,1.28606,-0.26712,-0.595087
264884402101,1.28669,-0.267192,-0.594584
264884424455,1.28778,-0.267,-0.594342
264884447048,1.28854,-0.266915,-0.593939
264884462059,1.28905,-0.266907,-0.593631
264884484640,1.28961,-0.266882,-0.593033
264884507076,1.28967,-0.26699,-0.592197
264884522093,1.28953,-0.266815,-0.591549
264884544482,1.28946,-0.266716,-0.591454
264884567077,1.28931,-0.267159,-0.591412
264884582089,1.28881,-0.267926,-0.59137
264884604594,1.28961,-0.268766,-0.591358
264884626920,1.28979,-0.269186,-0.590964
264884641944,1.28913,-0.269509,-0.590505
264884664566,1.28873,-0.27009,-0.5905
264884687083,1.28803,-0.270894,-0.590719
264884701973,1.28854,-0.272038,-0.591303
264884724423,1.2885,-0.27269,-0.59179
264884747151,1.28776,-0.272871,-0.59215
264884761953,1.28734,-0.272841,-0.592761
264884784487,1.28726,-0.273042,-0.593197
264884807033,1.28689,-0.273487,-0.5934
264884822045,1.28689,-0.273487,-0.5934
264884844511,1.28692,-0.274008,-0.593347
264884867061,1.28767,-0.274544,-0.593554
264884881928,1.28769,-0.275282,-0.593663
264884904559,1.28751,-0.27623,-0.593843
264884926963,1.28751,-0.277254,-0.594011
264884941989,1.28757,-0.278447,-0.594173
264884964518,1.28766,-0.279353,-0.594276
264884987107,1.28776,-0.280191,-0.594483
264885002007,1.28829,-0.280901,-0.594747
264885024553,1.28908,-0.281786,-0.595099
264885047047,1.28996,-0.282852,-0.59592
264885062069,1.29052,-0.284323,-0.597115
264885084599,1.29159,-0.286235,-0.598812
264885107109,1.29278,-0.288296,-0.600217
264885122086,1.29406,-0.289939,-0.601022
264885144516,1.29437,-0.290913,-0.600785
264885167093,1.29347,-0.291116,-0.599835
264885182080,1.29268,-0.291131,-0.598921
264885204637,1.29259,-0.291123,-0.59826
264885226971,1.29292,-0.291248,-0.598179
264885243362,1.29292,-0.291248,-0.598179
264885264587,1.29286,-0.29108,-0.598185
264885287050,1.29325,-0.290774,-0.59791
264885303393,1.29296,-0.290332,-0.597164
264885324424,1.29237,-0.290459,-0.596259
264885347124,1.29184,-0.29058,-0.59554
264885363434,1.29208,-0.291088,-0.594771
264885384558,1.29287,-0.291144,-0.594306
264885407060,1.29305,-0.291244,-0.593839
264885423469,1.2934,-0.291084,-0.593698
264885444536,1.29342,-0.29112,-0.593713
264885467045,1.2941,-0.291477,-0.593464
264885483443,1.29523,-0.291959,-0.593456
264885504462,1.29577,-0.292371,-0.593193
264885526927,1.29603,-0.292571,-0.592825
264885543440,1.29587,-0.292763,-0.592604
264885564475,1.29587,-0.292763,-0.592604
264885587165,1.29581,-0.2927,-0.592522
264885603486,1.29537,-0.2927,-0.593009
264885624409,1.29566,-0.292969,-0.593946
264885646842,1.29616,-0.29335,-0.594893
264885663355,1.29716,-0.293838,-0.595791
264885684328,1.29732,-0.293819,-0.595822
264885706879,1.29732,-0.293819,-0.595822
264885723357,1.2973,-0.293783,-0.595806
264885744415,1.29699,-0.293153,-0.595658
264885766897,1.29738,-0.292396,-0.595853
264885783355,1.29741,-0.292235,-0.596519
264885804435,1.29779,-0.292385,-0.59739
264885826884,1.29826,-0.29297,-0.598028
264885843390,1.29861,-0.29335,-0.59813
264885864445,1.29861,-0.29335,-0.59813
264885886968,1.2983,-0.293126,-0.597547
264885903378,1.29789,-0.292603,-0.596991
264885924580,1.29791,-0.29264,-0.597007
264885947050,1.29792,-0.292571,-0.59711
264885963481,1.29806,-0.292516,-0.597125
264885984599,1.2975,-0.292197,-0.596824
264886006915,1.2975,-0.292197,-0.596824
264886023488,1.29749,-0.292092,-0.596911
264886044394,1.29667,-0.291667,-0.596416
264886067119,1.29538,-0.291334,-0.595847
264886083389,1.29362,-0.290503,-0.595355
264886104666,1.29176,-0.289409,-0.594911
264886127017,1.2891,-0.288247,-0.594462
264886143442,1.28601,-0.287536,-0.594037
264886164661,1.28311,-0.286854,-0.593252
264886188467,1.28143,-0.286211,-0.59231
264886203460,1.2803,-0.285621,-0.591145
264886225885,1.27859,-0.285349,-0.589703
264886247136,1.27806,-0.285553,-0.588423
264886263350,1.27832,-0.285874,-0.587504
264886285967,1.27913,-0.286195,-0.586802
264886306990,1.2798,-0.286572,-0.586087
264886323367,1.28063,-0.287081,-0.585669
264886345903,1.28154,-0.287046,-0.585199
264886367150,1.28204,-0.286936,-0.584983
264886383474,1.28213,-0.286818,-0.584917
264886405976,1.28259,-0.286404,-0.584916
264886427147,1.28257,-0.286369,-0.584901
264886443378,1.28259,-0.286404,-0.584916
264886466001,1.28205,-0.285821,-0.585378
264886486985,1.28151,-0.285306,-0.585736
264886503504,1.2812,-0.285043,-0.586028
264886525871,1.28093,-0.284659,-0.586118
264886547003,1.28093,-0.284659,-0.586118
264886563415,1.28087,-0.284595,-0.586038
264886585925,1.28087,-0.284595,-0.586038
264886607101,1.28087,-0.284595,-0.586038
264886623476,1.28087,-0.284595,-0.586038
264886645977,1.28071,-0.284614,-0.586008
264886667075,1.28065,-0.284446,-0.586016
264886683428,1.28164,-0.284744,-0.586277
264886713409,1.28218,-0.285067,-0.58657
264886726974,1.28271,-0.284903,-0.586931
264886743382,1.2835,-0.284766,-0.587113
264886765917,1.28343,-0.284666,-0.587017
264886787207,1.28373,-0.284593,-0.58706
264886803512,1.28357,-0.284612,-0.587031
264886825839,1.28357,-0.284612,-0.587031
264886847124,1.2837,-0.284797,-0.586749
264886863379,1.2837,-0.284797,-0.586749
264886885980,1.2837,-0.284797,-0.586749
264886907202,1.28413,-0.284841,-0.586615
264886923463,1.28414,-0.284773,-0.586718
264886946008,1.28412,-0.285059,-0.586777
264886966995,1.28467,-0.285552,-0.586878
264886989623,1.28522,-0.285656,-0.587009
264887005919,1.28515,-0.285557,-0.586913
264887027071,1.28515,-0.285557,-0.586913
264887043404,1.28516,-0.285489,-0.587017
264887066017,1.28516,-0.285489,-0.587017
264887087079,1.28516,-0.285489,-0.587017
264887103508,1.28516,-0.285489,-0.587017
264887125882,1.2851,-0.285425,-0.586936
264887147684,1.28508,-0.285389,-0.586921
264887162703,1.2851,-0.285425,-0.586936
264887185317,1.2855,-0.285547,-0.587037
264887207714,1.2855,-0.285547,-0.587037
264887224166,1.28552,-0.285583,-0.587053
264887245279,1.28545,-0.285483,-0.586957
264887267583,1.2858,-0.285474,-0.587081
264887282795,1.2858,-0.285474,-0.587081
264887305291,1.28539,-0.285419,-0.586876
264887327644,1.28539,-0.285419,-0.586876
264887344115,1.28532,-0.28532,-0.58678
264887365307,1.28532,-0.28532,-0.58678
264887387823,1.28532,-0.28532,-0.58678
264887404072,1.28517,-0.285271,-0.586854
264887425185,1.28517,-0.285271,-0.586854
264887455317,1.28517,-0.285271,-0.586854
264887464077,1.28533,-0.285252,-0.586884
264887485227,1.28525,-0.285152,-0.586788
264887507804,1.28509,-0.285171,-0.586758
264887524115,1.28509,-0.285171,-0.586758
264887545282,1.2851,-0.285103,-0.586862
264887567779,1.28519,-0.284984,-0.586795
264887584057,1.28503,-0.285003,-0.586766
264887605262,1.28505,-0.285039,-0.586781
264887627797,1.28505,-0.285039,-0.586781
264887644047,1.28505,-0.285039,-0.586781
264887665224,1.28505,-0.285039,-0.586781
264887687687,1.28498,-0.284939,-0.586685
264887704168,1.28483,-0.28489,-0.586759
264887725176,1.28499,-0.284871,-0.586789
264887747825,1.28496,-0.285225,-0.586744
264887764162,1.28537,-0.285706,-0.586935
264887785314,1.28537,-0.285706,-0.586935
264887807724,1.28555,-0.285783,-0.586926
264887824093,1.28556,-0.285715,-0.58703
264887845287,1.28565,-0.285597,-0.586963
264887869151,1.28565,-0.285597,-0.586963
264887884162,1.28603,-0.286109,-0.587036
264887905332,1.28657,-0.286671,-0.587035
264887927623,1.28654,-0.287347,-0.587065
264887944065,1.28716,-0.287941,-0.587265
264887965393,1.28796,-0.288611,-0.587457
264887987850,1.28886,-0.289268,-0.587495
264888004108,1.28875,-0.289591,-0.587251
264888025335,1.2891,-0.289754,-0.587185
264888047860,1.28937,-0.290035,-0.587186
264888063484,1.2898,-0.289953,-0.5876
264888085300,1.2901,-0.289707,-0.587836
264888107819,1.29053,-0.289729,-0.588162
264888123502,1.29053,-0.289729,-0.588162
264888145279,1.29053,-0.289729,-0.588162
264888175208,1.29053,-0.289729,-0.588162
264888183469,1.29053,-0.289729,-0.588162
264888205349,1.29053,-0.289729,-0.588162
264888227655,1.29053,-0.289729,-0.588162
264888243419,1.29053,-0.289729,-0.588162
264888266643,1.29064,-0.290201,-0.587942
264888287803,1.29097,-0.290718,-0.587833
264888303490,1.29108,-0.291191,-0.587613
264888326548,1.29128,-0.291477,-0.58743
264888347842,1.29121,-0.291378,-0.587333
264888363554,1.29121,-0.291378,-0.587333
264888386656,1.29137,-0.291291,-0.587466
264888407736,1.29137,-0.291291,-0.587466
264888423459,1.29086,-0.291169,-0.587043
264888446587,1.29086,-0.291169,-0.587043
264888467834,1.29079,-0.29107,-0.586946
264888491697,1.29081,-0.291106,-0.586962
264888506668,1.29027,-0.29142,-0.586866
264888527617,1.29027,-0.29142,-0.586866
264888543382,1.29027,-0.29142,-0.586866
264888566629,1.29027,-0.29142,-0.586866
264888587834,1.28926,-0.291362,-0.586302
264888603529,1.28879,-0.290519,-0.585492
264888626587,1.2884,-0.289797,-0.584322
264888647803,1.28713,-0.289134,-0.582414
264888663474,1.28599,-0.28877,-0.580478
264888686653,1.28401,-0.28896,-0.578212
264888707757,1.28282,-0.289186,-0.575939
264888723571,1.28154,-0.289768,-0.573438
264888746615,1.28003,-0.290368,-0.570723
264888767713,1.27724,-0.291223,-0.567581
264888783468,1.27304,-0.292286,-0.564608
264888806659,1.26674,-0.293519,-0.561153
264888827919,1.26302,-0.295571,-0.556634
264888843441,1.26058,-0.297875,-0.551034
264888866662,1.25485,-0.299963,-0.544629
264888887746,1.2477,-0.302039,-0.537138
264888903469,1.2433,-0.303877,-0.528875
264888926567,1.24102,-0.306173,-0.520026
264888947792,1.2367,-0.308812,-0.511083
264888963563,1.2295,-0.311501,-0.501991
264888986725,1.22233,-0.314099,-0.493467
264889007671,1.2156,-0.31687,-0.485114
264889023422,1.20981,-0.321086,-0.475716
264889046034,1.20537,-0.326997,-0.46585
264889068255,1.20235,-0.333807,-0.456183
264889083576,1.19909,-0.340464,-0.4474
264889106003,1.19744,-0.347478,-0.43905
264889129182,1.19663,-0.35507,-0.430517
264889143435,1.19468,-0.363197,-0.423027
264889165895,1.18838,-0.3711,-0.416659
264889189197,1.18119,-0.377809,-0.411115
264889203460,1.18018,-0.384458,-0.405851
264889225971,1.18894,-0.388794,-0.403224
264889249109,1.19224,-0.38693,-0.403294
264889263415,1.1888,-0.381939,-0.405097
264889285990,1.18923,-0.377848,-0.406433
264889316617,1.19087,-0.375508,-0.407869
264889331593,1.19153,-0.37399,-0.408206
264889345985,1.19133,-0.373859,-0.408199
264889369112,1.18829,-0.375467,-0.406848
264889383488,1.18611,-0.37905,-0.40476
264889405972,1.187,-0.384162,-0.40189
264889429109,1.18805,-0.390954,-0.398324
264889443480,1.18768,-0.400524,-0.392635
264889466035,1.1879,-0.412734,-0.385252
264889489621,1.18764,-0.426369,-0.376921
264889511572,1.18909,-0.43723,-0.370632
264889525962,1.1948,-0.442376,-0.367978
264889549199,1.19776,-0.441775,-0.369282
264889570331,1.19445,-0.439501,-0.369727
264889585948,1.18986,-0.440354,-0.367713
264889609124,1.18681,-0.444987,-0.364388
264889623556,1.1851,-0.44987,-0.362106
264889646026,1.18161,-0.453958,-0.361526
264889669203,1.17622,-0.45758,-0.362303
264889683543,1.17022,-0.460226,-0.3631
264889706002,1.16455,-0.462588,-0.363349
264889729072,1.1603,-0.464878,-0.363885
264889750213,1.15777,-0.466868,-0.365375
264889765986,1.15659,-0.467962,-0.366906
264889789156,1.15682,-0.467844,-0.368089
264889810194,1.15804,-0.467269,-0.369174
264889825923,1.15963,-0.46753,-0.370477
264889849171,1.16052,-0.468093,-0.372054
264889870353,1.16013,-0.468502,-0.373114
264889885967,1.15928,-0.468644,-0.373481
264889909103,1.15745,-0.468433,-0.372684
264889930146,1.15558,-0.468249,-0.371777
264889945997,1.15297,-0.468024,-0.371293
264889968549,1.14993,-0.467978,-0.37153
264889990382,1.14753,-0.468145,-0.372141
264890005991,1.14591,-0.468389,-0.372332
264890028511,1.14488,-0.468442,-0.372305
264890050353,1.14514,-0.468593,-0.37205
264890066030,1.14581,-0.468514,-0.371921
264890088639,1.14549,-0.468791,-0.371995
264890110668,1.14377,-0.468989,-0.371988
264890125974,1.14153,-0.46896,-0.371917
264890148546,1.14131,-0.46889,-0.371794
264890171809,1.14169,-0.468251,-0.371795
264890186028,1.14264,-0.467814,-0.37197
264890208563,1.14347,-0.467618,-0.372446
264890231655,1.14388,-0.467823,-0.372584
264890245937,1.14444,-0.46809,-0.372652
264890268554,1.14518,-0.467854,-0.372465
264890291721,1.14519,-0.467419,-0.372452
264890306038,1.14448,-0.466655,-0.372442
264890328503,1.143,-0.465889,-0.372283
264890351645,1.14119,-0.465131,-0.372052
264890365983,1.13976,-0.464545,-0.371878
264890388449,1.13952,-0.464436,-0.371752
264890411643,1.13955,-0.464475,-0.371756
264890425974,1.13938,-0.464479,-0.371719
264890448477,1.14004,-0.464464,-0.37148
264890471759,1.14087,-0.46394,-0.371452
264890485993,1.14168,-0.463441,-0.371697
264890508492,1.14184,-0.463437,-0.371734
264890531712,1.14183,-0.463503,-0.371626
264890546031,1.14169,-0.463546,-0.371593
264890568577,1.14194,-0.46332,-0.371681
264890591689,1.14277,-0.463132,-0.371691
264890605948,1.14332,-0.462695,-0.371597
264890628558,1.1434,-0.46194,-0.371276
264890651662,1.1433,-0.460984,-0.37105
264890672893,1.14326,-0.46091,-0.370964
264890688543,1.14326,-0.46091,-0.370964
264890711614,1.14266,-0.460939,-0.370934
264890732741,1.14187,-0.460832,-0.370891
264890748460,1.14191,-0.4607,-0.371107
264890771581,1.14302,-0.460524,-0.37154
264890792711,1.14399,-0.460561,-0.371728
264890808529,1.14401,-0.460495,-0.371836
264890839192,1.14334,-0.460042,-0.371596
264890852730,1.14298,-0.459476,-0.371534
264890868525,1.14291,-0.459363,-0.371444
264890891596,1.14239,-0.458972,-0.371134
264890904484,1.14233,-0.458793,-0.371152
264890927682,1.14216,-0.458967,-0.370904
264890942200,1.14223,-0.459351,-0.370755
264890964612,1.14223,-0.459351,-0.370755
264890987911,1.14178,-0.459441,-0.370654
264891002205,1.14117,-0.459535,-0.370516
264891024756,1.1411,-0.459422,-0.370427
264891047796,1.14113,-0.459461,-0.370431
264891062094,1.1415,-0.459798,-0.37035
264891084688,1.14222,-0.459792,-0.370304
264891107904,1.14295,-0.459885,-0.370616
264891122230,1.14287,-0.459772,-0.370527
264891144671,1.14287,-0.459772,-0.370527
264891167752,1.14359,-0.45993,-0.370731
264891182207,1.14511,-0.46013,-0.371088
264891204770,1.14688,-0.460105,-0.371532
264891227761,1.14751,-0.459774,-0.371989
264891242050,1.14721,-0.459379,-0.37237
264891264767,1.14627,-0.459109,-0.372424
264891287884,1.1451,-0.458937,-0.372222
264891302256,1.14417,-0.458873,-0.372147
264891324607,1.14316,-0.459024,-0.372483
264891347889,1.14162,-0.460292,-0.3728
264891362227,1.14049,-0.460792,-0.373333
264891384614,1.13957,-0.46073,-0.373257
264891407888,1.13965,-0.460514,-0.372845
264891422208,1.14087,-0.46043,-0.37263
264891453569,1.14298,-0.460763,-0.373267
264891467830,1.14472,-0.4614,-0.373867
264891482210,1.14637,-0.461718,-0.374509
264891504714,1.14853,-0.461863,-0.374626
264891527674,1.14986,-0.461762,-0.374719
264891542083,1.15003,-0.461758,-0.374756
264891564563,1.14878,-0.461637,-0.374712
264891587724,1.14811,-0.461822,-0.37474
264891602044,1.14811,-0.461822,-0.37474
264891624672,1.14795,-0.461826,-0.374703
264891647907,1.14839,-0.461906,-0.374593
264891662105,1.14831,-0.461794,-0.374503
264891684704,1.14833,-0.461728,-0.374611
264891707937,1.14833,-0.461728,-0.374611
264891722225,1.14849,-0.461292,-0.374248
264891744679,1.14855,-0.460938,-0.373857
264891767782,1.14813,-0.460897,-0.373971
264891782202,1.14806,-0.460784,-0.373881
264891804716,1.14886,-0.460293,-0.373661
264891827673,1.14914,-0.459675,-0.373353
264891842108,1.14907,-0.459562,-0.373263
264891864635,1.14816,-0.459638,-0.373164
264891887736,1.14699,-0.459636,-0.37275
264891902228,1.14625,-0.459175,-0.372316
264891924756,1.14625,-0.459175,-0.372316
264891947818,1.14608,-0.459179,-0.37228
264891962045,1.14529,-0.459243,-0.372024
264891984769,1.14529,-0.459243,-0.372024
264892007272,1.14522,-0.45913,-0.371935
264892022174,1.14523,-0.459064,-0.372042
264892044662,1.14516,-0.458952,-0.371953
264892067214,1.14516,-0.458952,-0.371953
264892082227,1.14516,-0.458952,-0.371953
264892104624,1.14516,-0.458952,-0.371953
264892127127,1.14511,-0.458878,-0.371867
264892142182,1.14495,-0.458882,-0.371831
264892164630,1.14495,-0.458882,-0.371831
264892187125,1.14449,-0.459038,-0.371622
264892202076,1.14305,-0.459156,-0.371226
264892224631,1.14146,-0.459277,-0.371179
264892247248,1.14133,-0.45932,-0.371146
264892262125,1.14132,-0.459591,-0.370907
264892284540,1.14181,-0.459745,-0.370882
264892307055,1.14213,-0.459632,-0.371058
264892322005,1.14294,-0.459771,-0.371568
264892344559,1.14395,-0.459941,-0.372196
264892367135,1.1444,-0.459949,-0.372656
264892382014,1.14426,-0.459992,-0.372624
264892404578,1.14426,-0.459992,-0.372624
264892427056,1.14357,-0.459769,-0.372527
264892442081,1.1427,-0.459714,-0.372645
264892466652,1.14193,-0.459542,-0.37271
264892487042,1.14195,-0.459581,-0.372714
264892502053,1.14246,-0.459498,-0.373009
264892524578,1.14328,-0.459473,-0.373268
264892547059,1.1433,-0.459408,-0.373376
264892562092,1.1431,-0.459812,-0.37327
264892584552,1.14267,-0.460107,-0.373039
264892607014,1.14267,-0.460107,-0.373039
264892622047,1.14316,-0.460261,-0.373013
264892644588,1.14316,-0.460261,-0.373013
264892667072,1.14316,-0.460261,-0.373013
264892682062,1.14299,-0.460265,-0.372977
264892704583,1.14292,-0.460152,-0.372888
264892727066,1.14311,-0.460187,-0.372928
264892742051,1.14223,-0.460034,-0.372687
264892764602,1.1412,-0.459989,-0.372306
264892787106,1.14106,-0.460032,-0.372274
264892802067,1.14099,-0.459919,-0.372184
264892824589,1.14149,-0.460007,-0.372266
264892847052,1.14149,-0.460007,-0.372266
264892863563,1.14149,-0.460007,-0.372266
264892884579,1.14149,-0.460007,-0.372266
264892907086,1.14132,-0.460011,-0.37223
264892923580,1.14135,-0.46005,-0.372234
264892944550,1.14135,-0.46005,-0.372234
264892967092,1.14135,-0.46005,-0.372234
264892983552,1.14118,-0.460054,-0.372198
264893004567,1.14111,-0.459942,-0.372108
264893027086,1.14147,-0.460073,-0.372158
264893043530,1.14147,-0.460073,-0.372158
264893064608,1.14082,-0.459923,-0.372148
264893088541,1.1412,-0.460153,-0.372557
264893103577,1.14244,-0.460267,-0.37306
264893124577,1.14349,-0.460517,-0.373311
264893147087,1.14483,-0.461053,-0.37367
264893163547,1.14546,-0.461164,-0.373678
264893192720,1.14494,-0.461142,-0.373487
264893207072,1.14357,-0.461005,-0.373058
264893223525,1.14223,-0.461008,-0.372607
264893244564,1.14129,-0.460846,-0.372172
264893267103,1.14115,-0.460889,-0.37214
264893283551,1.14115,-0.460889,-0.37214
264893304566,1.14118,-0.460864,-0.371867
264893327118,1.14168,-0.460953,-0.371949
264893343532,1.14217,-0.461106,-0.371924
264893364603,1.14271,-0.461439,-0.37188
264893395237,1.14253,-0.461777,-0.371882
264893403533,1.14175,-0.46221,-0.371746
264893424640,1.14095,-0.462538,-0.371714
264893447104,1.14077,-0.462877,-0.371716
264893463556,1.14135,-0.462908,-0.372102
264893484583,1.14352,-0.463421,-0.372723
264893507105,1.14523,-0.463649,-0.373202
264893523564,1.14582,-0.463621,-0.373233
264893544630,1.14619,-0.463581,-0.373496
264893567122,1.147,-0.463622,-0.37365
264893583530,1.14859,-0.464205,-0.373864
264893604585,1.14901,-0.464246,-0.373751
264893627031,1.14834,-0.464062,-0.373655
264893643526,1.148,-0.463798,-0.373819
264893664578,1.14727,-0.46387,-0.373755
264893687145,1.14637,-0.463946,-0.373655
264893703563,1.14623,-0.46399,-0.373622
264893724574,1.14662,-0.46426,-0.373652
264893747139,1.14712,-0.464349,-0.373736
264893763573,1.14712,-0.464349,-0.373736
264893786060,1.14761,-0.464503,-0.373713
264893808530,1.14761,-0.464503,-0.373713
264893823526,1.14743,-0.464573,-0.373568
264893846042,1.14792,-0.464292,-0.373531
264893867102,1.14792,-0.464292,-0.373531
264893883537,1.14765,-0.463936,-0.373915
264893906057,1.14653,-0.463402,-0.373782
264893927088,1.14646,-0.463289,-0.373692
264893943565,1.14646,-0.463289,-0.373692
264893965978,1.14646,-0.463289,-0.373692
264893987093,1.14646,-0.463289,-0.373692
264894003578,1.14632,-0.463333,-0.373659
264894026026,1.14681,-0.463052,-0.373621
264894047098,1.14727,-0.462732,-0.37358
264894063535,1.14727,-0.462732,-0.37358
264894086031,1.14727,-0.462732,-0.37358
264894107112,1.14722,-0.462553,-0.373598
264894123539,1.14722,-0.462553,-0.373598
264894146057,1.14722,-0.462553,-0.373598
264894167101,1.14722,-0.462553,-0.373598
264894183577,1.14708,-0.462596,-0.373565
264894206069,1.147,-0.462483,-0.373475
264894227073,1.147,-0.462483,-0.373475
264894243534,1.147,-0.462483,-0.373475
264894266076,1.14686,-0.462798,-0.373205
264894287156,1.14725,-0.463404,-0.373274
264894303694,1.14717,-0.463291,-0.373184
264894326061,1.14717,-0.463291,-0.373184
264894347259,1.14743,-0.463605,-0.373181
264894363648,1.14696,-0.464196,-0.372984
264894386144,1.14679,-0.4642,-0.372948
264894407120,1.14694,-0.464262,-0.372877
264894423518,1.14737,-0.464238,-0.372871
264894446107,1.14862,-0.464352,-0.373379
264894467836,1.14879,-0.464348,-0.373416
264894483535,1.14862,-0.464352,-0.373379
264894506184,1.14855,-0.464239,-0.373289
264894527178,1.14839,-0.463816,-0.372775
264894543547,1.14901,-0.463395,-0.37241
264894566208,1.15052,-0.463498,-0.372413
264894587286,1.1524,-0.463185,-0.37302
264894603623,1.15356,-0.46298,-0.373567
264894626095,1.15354,-0.462941,-0.373564
264894647155,1.15255,-0.463075,-0.373161
264894663697,1.15183,-0.463361,-0.372505
264894686027,1.15183,-0.463361,-0.372505
264894708702,1.15249,-0.463512,-0.372519
264894722943,1.15334,-0.463627,-0.37276
264894745271,1.15422,-0.463514,-0.372857
264894767824,1.15439,-0.46351,-0.372894
264894782969,1.15425,-0.463553,-0.372861
264894805345,1.15342,-0.463577,-0.372598
264894827808,1.15296,-0.463733,-0.372388
264894842819,1.15279,-0.463737,-0.372352
264894865466,1.15312,-0.464002,-0.372189
264894887797,1.15415,-0.464113,-0.372467
264894904293,1.15478,-0.464226,-0.372478
264894925474,1.15528,-0.464315,-0.372564
264894947907,1.15593,-0.464361,-0.372683
264894964230,1.15593,-0.464361,-0.372683
264894985432,1.15588,-0.464288,-0.372596
264895007784,1.15571,-0.464292,-0.372559
264895024177,1.15571,-0.464292,-0.372559
264895045289,1.15573,-0.464225,-0.372667
264895067766,1.15609,-0.464357,-0.372719
264895084225,1.15658,-0.464513,-0.372698
264895105316,1.15658,-0.464513,-0.372698
264895127787,1.15658,-0.464513,-0.372698
264895144197,1.15651,-0.4644,-0.372607
264895165270,1.15671,-0.464536,-0.372623
264895187750,1.15709,-0.46444,-0.372532
264895204269,1.15738,-0.464192,-0.372346
264895225247,1.15738,-0.464192,-0.372346
264895249184,1.1574,-0.464231,-0.372349
264895264187,1.15733,-0.464119,-0.372259
264895285299,1.15716,-0.464122,-0.372222
264895307752,1.15778,-0.464029,-0.372362
264895324209,1.15778,-0.464029,-0.372362
264895345271,1.15778,-0.464029,-0.372362
264895367782,1.15773,-0.463956,-0.372274
264895384180,1.15773,-0.463956,-0.372274
264895405337,1.15771,-0.463916,-0.372271
264895427814,1.15771,-0.463916,-0.372271
264895444217,1.15715,-0.463754,-0.372098
264895465325,1.15694,-0.463684,-0.371975
264895487774,1.15711,-0.463681,-0.372011
264895504219,1.15705,-0.463502,-0.372028
264895525233,1.15653,-0.463479,-0.371835
264895547817,1.15636,-0.463482,-0.371798
264895564261,1.1557,-0.463503,-0.371572
264895585305,1.15563,-0.46339,-0.371482
264895607820,1.15563,-0.46339,-0.371482
264895624211,1.15475,-0.46334,-0.371132
264895645262,1.15408,-0.463427,-0.370799
264895667810,1.15408,-0.463427,-0.370799
264895683567,1.15391,-0.46343,-0.370762
264895705246,1.15394,-0.46347,-0.370766
264895727808,1.15386,-0.463357,-0.370676
264895743549,1.15386,-0.463357,-0.370676
264895765317,1.15386,-0.463357,-0.370676
264895787818,1.15305,-0.463314,-0.370521
264895803778,1.15245,-0.463513,-0.370278
264895825377,1.15228,-0.463517,-0.370241
264895847989,1.15257,-0.463536,-0.370203
264895863639,1.153,-0.463513,-0.370198
264895886806,1.15317,-0.463509,-0.370235
264895907979,1.1531,-0.463397,-0.370144
264895923647,1.15244,-0.463416,-0.369919
264895946834,1.15183,-0.46351,-0.36978
264895967998,1.15175,-0.463397,-0.369689
264895983703,1.15161,-0.46344,-0.369656
264896006893,1.15161,-0.46344,-0.369656
264896027843,1.15161,-0.46344,-0.369656
264896043582,1.15161,-0.46344,-0.369656
264896066796,1.15161,-0.46344,-0.369656
264896087976,1.15161,-0.46344,-0.369656
264896103553,1.15145,-0.463443,-0.36962
264896126776,1.15147,-0.463483,-0.369623
264896147909,1.1514,-0.46337,-0.369533
264896163665,1.15123,-0.463374,-0.369497
264896186793,1.15123,-0.463374,-0.369497
264896207916,1.15152,-0.463393,-0.369459
264896223745,1.15152,-0.463393,-0.369459
264896246754,1.15152,-0.463393,-0.369459
264896267871,1.15155,-0.463432,-0.369462
264896283687,1.15138,-0.463436,-0.369426
264896306843,1.15131,-0.463324,-0.369336
264896327824,1.15162,-0.463277,-0.369405
264896343601,1.15221,-0.46325,-0.369436
264896367246,1.1528,-0.463118,-0.369572
264896388011,1.15282,-0.463052,-0.36968
264896403695,1.15274,-0.462939,-0.36959
264896426812,1.15277,-0.462978,-0.369593
264896447959,1.15207,-0.463025,-0.369256
264896471807,1.1521,-0.463064,-0.36926
264896486847,1.15226,-0.463065,-0.368913
264896507946,1.15483,-0.463162,-0.368947
264896523639,1.15721,-0.462685,-0.36903
264896546757,1.16109,-0.461733,-0.369585
264896567969,1.16439,-0.460752,-0.36975
264896583653,1.16641,-0.459712,-0.369761
264896606201,1.16802,-0.4588,-0.369672
264896627824,1.16864,-0.458008,-0.369643
264896643626,1.16886,-0.45669,-0.36897
264896666146,1.17079,-0.454624,-0.367918
264896687964,1.17369,-0.452947,-0.366715
264896703555,1.17608,-0.450989,-0.365171
264896726057,1.17985,-0.448542,-0.364162
264896747820,1.18595,-0.44577,-0.364196
264896763543,1.1929,-0.443319,-0.365442
264896786105,1.19975,-0.44166,-0.367368
264896809257,1.20617,-0.440099,-0.369652
264896823661,1.21284,-0.438813,-0.371933
264896846115,1.22002,-0.437252,-0.374163
264896869345,1.22773,-0.435332,-0.376064
264896883693,1.23551,-0.433238,-0.378272
264896906125,1.24378,-0.431417,-0.380706
264896929248,1.25428,-0.429195,-0.383321
264896943634,1.26498,-0.426784,-0.385703
264896966207,1.27501,-0.423745,-0.388005
264896989279,1.28324,-0.421444,-0.390516
264897003726,1.29167,-0.419563,-0.3931
264897026117,1.29792,-0.41832,-0.395392
264897049314,1.30455,-0.417552,-0.398245
264897070529,1.31404,-0.416468,-0.401567
264897086232,1.32234,-0.41618,-0.404142
264897109271,1.33141,-0.41689,-0.407335
264897130498,1.3458,-0.417156,-0.411668
264897146195,1.35751,-0.41852,-0.415989
264897169353,1.37274,-0.418717,-0.421351
264897190509,1.38652,-0.417965,-0.426502
264897206154,1.39985,-0.417196,-0.431568
264897229369,1.41473,-0.414697,-0.436723
264897250457,1.42523,-0.413123,-0.441169
264897266156,1.43872,-0.40998,-0.445942
264897289313,1.45029,-0.407456,-0.450038
264897310347,1.46066,-0.404298,-0.453253
264897326064,1.472,-0.40017,-0.456453
264897349409,1.48033,-0.395589,-0.458226
264897371792,1.48433,-0.392196,-0.459615
264897386187,1.48986,-0.388596,-0.461179
264897409325,1.49679,-0.384951,-0.46254
264897430351,1.50267,-0.381635,-0.463421
264897446151,1.50758,-0.378342,-0.464286
264897469277,1.51072,-0.374894,-0.46463
264897490327,1.51244,-0.37222,-0.464453
264897506111,1.51296,-0.370692,-0.46389
264897529256,1.51347,-0.370652,-0.463532
264897550283,1.51455,-0.371833,-0.463386
264897566119,1.51673,-0.373749,-0.463543
264897588629,1.51898,-0.375723,-0.46381
264897610363,1.52145,-0.376975,-0.464112
264897626095,1.52297,-0.377854,-0.464049
264897648594,1.52351,-0.378713,-0.463718
264897670480,1.52405,-0.3797,-0.463205
264897686212,1.52481,-0.381137,-0.462839
264897708730,1.52687,-0.382623,-0.463078
264897731806,1.52968,-0.383822,-0.463822
264897746163,1.53246,-0.38429,-0.464363
264897768658,1.53563,-0.383638,-0.464856
264897791861,1.53834,-0.382441,-0.465153
264897806204,1.53923,-0.381315,-0.465107
264897828628,1.53971,-0.380219,-0.464896
264897851826,1.54017,-0.379279,-0.464864
264897866151,1.53932,-0.378281,-0.464582
264897888593,1.53813,-0.377573,-0.46407
264897911729,1.5371,-0.37706,-0.463679
264897926244,1.5371,-0.37706,-0.463679
264897948743,1.5371,-0.37706,-0.463679
264897971900,1.53721,-0.376398,-0.463771
264897986253,1.53848,-0.375707,-0.464261
264898008704,1.5403,-0.37522,-0.465038
264898031791,1.54228,-0.374837,-0.46612
264898046164,1.54402,-0.37405,-0.466959
264898068686,1.54477,-0.37339,-0.467801
264898091858,1.54445,-0.372808,-0.468447
264898106194,1.54317,-0.372777,-0.469112
264898128604,1.54164,-0.37301,-0.469739
264898151865,1.54078,-0.37299,-0.470573
264898166187,1.54077,-0.372517,-0.471462
264898188708,1.54045,-0.371614,-0.472365
264898211769,1.54013,-0.370786,-0.473279
264898232983,1.5409,-0.369683,-0.474203
264898248719,1.54142,-0.368825,-0.474631
264898271861,1.54142,-0.368825,-0.474631
264898292919,1.54093,-0.369011,-0.474096
264898308708,1.54085,-0.36962,-0.473286
264898331837,1.54156,-0.371101,-0.472286
264898352866,1.54364,-0.37284,-0.471914
264898368612,1.5468,-0.374442,-0.472192
264898391755,1.54977,-0.376017,-0.473252
264898412815,1.55189,-0.377999,-0.474356
264898428604,1.55307,-0.380525,-0.475583
264898451861,1.55383,-0.383223,-0.477187
264898473068,1.55419,-0.386058,-0.478091
264898488712,1.55377,-0.388176,-0.478275
264898511110,1.55346,-0.390216,-0.477931
264898533029,1.55389,-0.39272,-0.477301
264898548036,1.555,-0.395303,-0.476537
264898562183,1.55627,-0.397409,-0.476603
264898584897,1.55745,-0.399233,-0.47719
264898607982,1.55857,-0.400457,-0.478193
264898622276,1.55936,-0.401347,-0.479569
264898644723,1.56107,-0.402067,-0.481311
264898668074,1.56247,-0.4022,-0.482777
264898682360,1.56362,-0.402001,-0.484092
264898704847,1.56488,-0.401848,-0.484795
264898727854,1.56717,-0.401007,-0.485308
264898742356,1.56945,-0.399911,-0.48608
264898764876,1.57091,-0.398462,-0.486939
264898788024,1.57101,-0.396548,-0.487861
264898802379,1.57044,-0.394852,-0.488661
264898824745,1.56996,-0.393256,-0.489481
264898847974,1.56937,-0.392283,-0.490315
264898862222,1.56853,-0.391706,-0.490936
264898884735,1.56868,-0.391539,-0.491865
264898907910,1.56976,-0.391302,-0.492613
264898922224,1.57103,-0.390723,-0.492926
264898944671,1.57207,-0.389628,-0.492804
264898967837,1.57254,-0.388255,-0.492465
264898982224,1.57139,-0.387386,-0.491833
264899004690,1.57038,-0.387653,-0.491648
264899027821,1.57076,-0.388928,-0.492057
264899042177,1.57256,-0.390423,-0.49276
264899064718,1.57555,-0.391521,-0.493772
264899087880,1.5788,-0.392305,-0.494916
264899102317,1.582,-0.392276,-0.495917
264899133589,1.58445,-0.391972,-0.496662
264899148044,1.58437,-0.39135,-0.496702
264899162212,1.58304,-0.390418,-0.496565
264899184865,1.58026,-0.390113,-0.496086
264899207844,1.5774,-0.38999,-0.495602
264899222384,1.57646,-0.390312,-0.495525
264899244756,1.57578,-0.390895,-0.495327
264899267860,1.57627,-0.391521,-0.495458
264899282267,1.57795,-0.391958,-0.495726
264899304963,1.58004,-0.392357,-0.496167
264899328579,1.58256,-0.392635,-0.496867
264899342375,1.5845,-0.392995,-0.497366
264899364924,1.58534,-0.39313,-0.497542
264899388027,1.58533,-0.39349,-0.497562
264899402375,1.58508,-0.394013,-0.497268
264899424946,1.58466,-0.39422,-0.496925
264899447978,1.58415,-0.394039,-0.496721
264899462182,1.58348,-0.394389,-0.496424
264899484824,1.58354,-0.395032,-0.496747
264899508109,1.58479,-0.395931,-0.497142
264899522424,1.5857,-0.397071,-0.497664
264899544708,1.58459,-0.397608,-0.49738
264899567878,1.58277,-0.395924,-0.496459
264899590525,1.58031,-0.392408,-0.495496
264899604795,1.57687,-0.388528,-0.494242
264899627278,1.57302,-0.385155,-0.493039
264899642410,1.56938,-0.383668,-0.492077
264899664830,1.56688,-0.383622,-0.491497
264899687419,1.56688,-0.383622,-0.491497
264899702386,1.5673,-0.383374,-0.49193
264899724869,1.56781,-0.382544,-0.492354
264899747369,1.56817,-0.381444,-0.492641
264899762208,1.56804,-0.380243,-0.492742
264899784941,1.56783,-0.378993,-0.492641
264899807365,1.56768,-0.378319,-0.492583
264899822394,1.56703,-0.377824,-0.492344
264899844752,1.56538,-0.377595,-0.491928
264899867318,1.56339,-0.377372,-0.491541
264899882425,1.56123,-0.377154,-0.491121
264899904730,1.56016,-0.376801,-0.490995
264899927211,1.56008,-0.376708,-0.490885
264899942219,1.56009,-0.376349,-0.490873
264899964724,1.55996,-0.375695,-0.490365
264899987428,1.55993,-0.374692,-0.490044
264900002228,1.55972,-0.373567,-0.489869
264900024726,1.55903,-0.372299,-0.489508
264900047220,1.5576,-0.370787,-0.489175
264900062223,1.55575,-0.369227,-0.488771
264900084751,1.55342,-0.367838,-0.48829
264900107246,1.5506,-0.366313,-0.487535
264900122274,1.54894,-0.364914,-0.487004
264900144718,1.54767,-0.364006,-0.486469
264900167253,1.54713,-0.363411,-0.486171
264900182228,1.54659,-0.362695,-0.485956
264900204814,1.54631,-0.361708,-0.485876
264900227278,1.54564,-0.360282,-0.485614
264900242260,1.54522,-0.359064,-0.485413
264900264911,1.54452,-0.358309,-0.485262
264900287321,1.54444,-0.358254,-0.485159
264900302263,1.54492,-0.358646,-0.485073
264900324772,1.54605,-0.359175,-0.485199
264900347235,1.54695,-0.359169,-0.485364
264900362224,1.54764,-0.358635,-0.485468
264900384898,1.54775,-0.358057,-0.485467
264900407255,1.54695,-0.357606,-0.48522
264900423659,1.5459,-0.357252,-0.485114
264900444771,1.54466,-0.357346,-0.484895
264900467275,1.54352,-0.357379,-0.484607
264900483710,1.54272,-0.356972,-0.484268
264900504710,1.5421,-0.356597,-0.483968
264900527252,1.5421,-0.356514,-0.484056
264900543680,1.5421,-0.356514,-0.484056
264900564755,1.54191,-0.356796,-0.484118
264900587265,1.5423,-0.357197,-0.484293
