timestamp,roll,pitch,yaw
42138067116,0.416327,-0.133493,1.49036
42138090813,0.417331,-0.133916,1.49043
42138112118,0.419029,-0.134345,1.49059
42138127156,0.420415,-0.134356,1.49077
42138150840,0.422529,-0.134325,1.49088
42138172222,0.424084,-0.134223,1.49144
42138211492,0.424252,-0.133802,1.4924
42138213551,0.424194,-0.133184,1.49283
42138225827,0.424576,-0.132239,1.49303
42138247891,0.425515,-0.13196,1.49303
42138263645,0.425407,-0.13212,1.49333
42138285870,0.425474,-0.131717,1.49358
42138329595,0.426981,-0.131596,1.49363
42138339542,0.428395,-0.131744,1.49363
42138345983,0.429175,-0.131665,1.49375
42138367690,0.430017,-0.131572,1.49422
42138383446,0.431244,-0.131579,1.49439
42138404509,0.432789,-0.131314,1.495
42138427704,0.434248,-0.130929,1.49544
42138443422,0.435072,-0.130256,1.49566
42138464573,0.435072,-0.130256,1.49566
42138487703,0.434995,-0.13016,1.49567
42138503406,0.435673,-0.129793,1.49565
42138524469,0.436713,-0.1296,1.49566
42138547645,0.436699,-0.12943,1.49568
42138563407,0.436722,-0.129418,1.49569
42138584474,0.43713,-0.129141,1.49562
42138607596,0.437848,-0.129138,1.49572
42138623401,0.437848,-0.129138,1.49572
42138645902,0.437848,-0.129138,1.49572
42138667691,0.437848,-0.129138,1.49572
42138683559,0.438555,-0.12911,1.49565
42138706009,0.438655,-0.129192,1.49565
42138727769,0.437746,-0.128848,1.49558
42138743461,0.436688,-0.128665,1.49546
42138766065,0.436067,-0.128545,1.49522
42138787739,0.435967,-0.128462,1.49522
42138803453,0.436848,-0.128467,1.49534
42138825985,0.43737,-0.128504,1.49558
42138847657,0.437877,-0.128373,1.49585
42138863399,0.438745,-0.128209,1.496
42138885900,0.439697,-0.127958,1.49618
42138907634,0.439797,-0.128041,1.49618
42138923390,0.439883,-0.127954,1.49621
42138945917,0.439783,-0.127871,1.49621
42138966986,0.439783,-0.127871,1.49621
42138983405,0.439863,-0.128174,1.49634
42139005899,0.440618,-0.129068,1.49648
42139027073,0.439756,-0.129646,1.4966
42139043540,0.439657,-0.129563,1.4966
42139066005,0.441452,-0.129018,1.49713
42139087092,0.443754,-0.128136,1.49779
42139103420,0.445533,-0.127009,1.49807
42139126053,0.445959,-0.127173,1.49845
42139146991,0.446941,-0.1272,1.49824
42139163495,0.44646,-0.126927,1.49787
42139185932,0.445447,-0.126291,1.49766
42139206993,0.446485,-0.125749,1.49773
42139223398,0.448239,-0.125738,1.49782
42139245908,0.448424,-0.125734,1.49785
42139266963,0.44797,-0.126036,1.4979
42139283431,0.447982,-0.126061,1.49808
42139305899,0.448607,-0.126328,1.49812
42139328407,0.449587,-0.126211,1.49812
42139351557,0.449587,-0.126211,1.49812
42139365881,0.449587,-0.126211,1.49812
42139388529,0.450013,-0.126312,1.49817
42139411691,0.451085,-0.126524,1.49847
42139425962,0.452503,-0.12647,1.49834
42139448513,0.452589,-0.126384,1.49837
42139471606,0.452137,-0.126088,1.49818
42139485960,0.452137,-0.126088,1.49818
42139508520,0.453035,-0.126265,1.49829
42139531671,0.454258,-0.126318,1.49864
42139546051,0.455014,-0.125905,1.49883
42139568421,0.454726,-0.125682,1.499
42139591552,0.454,-0.125331,1.49895
42139605934,0.454,-0.125331,1.49895
42139628491,0.45522,-0.125177,1.49916
42139651685,0.456716,-0.125141,1.49957
42139672728,0.458263,-0.125007,1.49984
42139688524,0.459493,-0.124672,1.50009
42139711679,0.459802,-0.124171,1.50023
42139732665,0.460023,-0.123613,1.50054
42139748522,0.460846,-0.123195,1.50109
42139771654,0.462916,-0.122611,1.50188
42139792672,0.464961,-0.121835,1.50252
42139808442,0.466297,-0.121086,1.50323
42139831586,0.467357,-0.120075,1.50393
42139852668,0.468595,-0.119101,1.50484
42139868398,0.470316,-0.11806,1.5062
42139891691,0.474358,-0.11635,1.50825
42139912765,0.481711,-0.113918,1.51122
42139928521,0.492601,-0.110779,1.51434
42139950984,0.505633,-0.108454,1.51675
42139972757,0.516453,-0.106581,1.51874
42139988555,0.521495,-0.104016,1.52032
42140011031,0.524038,-0.101121,1.52272
42140032713,0.527101,-0.0978849,1.52515
42140048431,0.532135,-0.0947049,1.52784
42140070942,0.538605,-0.0918841,1.53045
42140094139,0.546162,-0.0889678,1.53338
42140107660,0.55505,-0.0858278,1.53709
42140122082,0.56546,-0.0822405,1.54137
42140144541,0.576051,-0.0781978,1.54576
42140175955,0.587765,-0.0745484,1.5501
42140182051,0.599636,-0.0711258,1.55421
42140204506,0.61101,-0.0681668,1.55853
42140227613,0.622247,-0.0652611,1.56293
42140241957,0.633247,-0.0622443,1.56651
42140264485,0.644876,-0.0595448,1.56937
42140287651,0.656225,-0.0573399,1.57213
42140301974,0.667186,-0.0549573,1.57527
42140324633,0.678872,-0.0509253,1.57876
42140347757,0.692638,-0.0459612,1.5821
42140362097,0.711958,-0.041377,1.58509
42140384602,0.739694,-0.0367015,1.5884
42140407765,0.770235,-0.0299809,1.59249
42140422094,0.795941,-0.0210862,1.59678
42140444555,0.815272,-0.0114156,1.60039
42140467760,0.832251,-0.00267506,1.60318
42140482044,0.851032,0.0040851,1.60702
42140504591,0.873656,0.0106018,1.61182
42140527766,0.900342,0.0190412,1.6168
42140543549,0.927789,0.0286069,1.62126
42140564458,0.953428,0.0384164,1.62544
42140587621,0.975212,0.0481146,1.63
42140601995,0.989039,0.0578336,1.63568
42140624478,0.993084,0.0675948,1.64202
42140647781,0.991506,0.0766006,1.64882
42140662111,0.989792,0.0837246,1.65638
42140685999,0.98907,0.0889579,1.66515
42140707749,0.98783,0.0950664,1.67433
42140722086,0.990229,0.101494,1.68219
42140744631,0.997484,0.107138,1.69007
42140767759,1.00497,0.1123,1.69824
42140782107,1.01154,0.117058,1.70745
42140806023,1.01754,0.121421,1.71841
42140827028,1.02322,0.123978,1.73139
42140842030,1.03012,0.124093,1.74524
42140864485,1.03743,0.123924,1.759
42140887789,1.04673,0.122336,1.77204
42140901986,1.05689,0.118354,1.78526
42140924464,1.06848,0.110994,1.79838
42140947757,1.08151,0.101284,1.81028
42140962148,1.09623,0.0910034,1.81981
42140984561,1.1108,0.0818994,1.82699
42141007726,1.12544,0.0741236,1.83264
42141022084,1.14045,0.068071,1.83779
42141044607,1.15391,0.064362,1.84254
42141067138,1.16393,0.0620332,1.84696
42141082109,1.17221,0.0609432,1.85207
42141104641,1.17841,0.0608552,1.8583
42141127108,1.18501,0.0606521,1.8651
42141142092,1.1916,0.0598651,1.87233
42141164566,1.19576,0.0589363,1.87869
42141187143,1.1941,0.0588619,1.88434
42141202176,1.1855,0.0592228,1.88951
42141224607,1.17492,0.0597669,1.8928
42141246945,1.16844,0.0600223,1.89392
42141262015,1.16811,0.0597272,1.89345
42141284565,1.17375,0.0590098,1.89215
42141307007,1.18159,0.0583898,1.89121
42141322017,1.18696,0.0580186,1.89101
42141344558,1.18887,0.0586539,1.89106
42141366993,1.18882,0.0593708,1.8905
42141381999,1.18862,0.0593875,1.88978
42141404639,1.1882,0.0589073,1.88891
42141427192,1.18776,0.058669,1.88829
42141442166,1.18718,0.0583693,1.88758
42141464585,1.18689,0.0583142,1.88706
42141487053,1.18759,0.058477,1.88655
42141504964,1.1891,0.0585034,1.88604
42141524623,1.19065,0.0585203,1.88582
42141547007,1.1918,0.0585582,1.88569
42141563478,1.19318,0.0584302,1.88524
42141584558,1.19583,0.0580704,1.88497
42141607051,1.19779,0.0570859,1.88511
42141623506,1.19935,0.0567601,1.8854
42141644518,1.19971,0.0571334,1.88601
42141667112,1.19988,0.0575455,1.88666
42141682159,1.20015,0.0581523,1.88711
42141704648,1.20111,0.0584472,1.88686
42141727074,1.20228,0.0585432,1.88672
42141742084,1.20287,0.058362,1.8866
42141764612,1.20287,0.058362,1.8866
42141787057,1.20285,0.0586497,1.88612
42141802018,1.20285,0.0586497,1.88612
42141824498,1.20285,0.0586497,1.88612
42141847073,1.204,0.058535,1.88618
42141863434,1.20511,0.0586032,1.88651
42141884599,1.20551,0.0587915,1.88686
42141907049,1.20569,0.0587432,1.88742
42141923560,1.20607,0.0585434,1.88736
42141944650,1.20707,0.0583419,1.88715
42141975318,1.20776,0.0582022,1.88703
42141983544,1.20762,0.0581415,1.88693
42142004593,1.20764,0.0575867,1.88699
42142027015,1.20764,0.0575867,1.88699
42142043563,1.20766,0.0575483,1.88713
42142064554,1.20855,0.0573695,1.88697
42142087016,1.20984,0.0574113,1.88697
42142103546,1.21064,0.0574817,1.8874
42142124603,1.2104,0.0579109,1.88813
42142155301,1.21017,0.0583403,1.88886
42142163544,1.20993,0.0587219,1.88904
42142184522,1.20994,0.0590456,1.88942
42142206988,1.20994,0.0590456,1.88942
42142223498,1.20981,0.058985,1.88932
42142244565,1.20983,0.0589466,1.88946
42142267075,1.20969,0.0588861,1.88936
42142283586,1.20983,0.0589466,1.88946
42142312668,1.20981,0.058985,1.88932
42142327145,1.20989,0.0588467,1.88933
42142350987,1.21002,0.0589072,1.88943
42142364614,1.20963,0.0587353,1.88983
42142395201,1.20961,0.0587736,1.88969
42142403587,1.21069,0.0589495,1.88957
42142424593,1.21322,0.0592617,1.88913
42142447084,1.21633,0.0602482,1.88873
42142463587,1.21863,0.0619645,1.88787
42142484616,1.22021,0.0636428,1.88715
42142507143,1.22218,0.0646074,1.8863
42142523568,1.22457,0.0653505,1.88494
42142544624,1.22547,0.0676931,1.8831
42142567245,1.22294,0.0726326,1.88072
42142583550,1.22078,0.0778687,1.87692
42142604596,1.22324,0.082071,1.87187
42142627137,1.23022,0.0876689,1.86628
42142643479,1.23658,0.0973091,1.86018
42142664479,1.23924,0.110177,1.85208
42142687035,1.23905,0.123446,1.84307
42142703464,1.23804,0.136401,1.83351
42142724555,1.23806,0.148203,1.82326
42142747050,1.23935,0.159393,1.81126
42142763540,1.2421,0.168899,1.79461
42142786102,1.24524,0.175822,1.77459
42142807119,1.24448,0.180021,1.75333
42142823626,1.23669,0.182368,1.73333
42142846086,1.22281,0.183553,1.71539
42142867168,1.20932,0.185019,1.69963
42142883492,1.19903,0.186681,1.68647
42142907509,1.19167,0.189484,1.67725
42142927186,1.18875,0.192786,1.67112
42142951094,1.19017,0.196407,1.66527
42142966116,1.19556,0.199408,1.65812
42142987124,1.2034,0.200573,1.65041
42143003586,1.21138,0.199657,1.64359
42143026088,1.21521,0.197529,1.6389
42143047151,1.21497,0.195481,1.63514
42143063547,1.21626,0.193311,1.63007
42143086071,1.22215,0.190755,1.62462
42143107025,1.23032,0.188988,1.61973
42143123476,1.23585,0.187646,1.61612
42143145984,1.23642,0.186281,1.61371
42143167150,1.23245,0.185071,1.61233
42143183556,1.22646,0.183468,1.61221
42143206028,1.22039,0.181622,1.61319
42143228562,1.21497,0.179074,1.61484
42143243570,1.21057,0.176183,1.61749
42143265960,1.20915,0.174575,1.62129
42143287169,1.21153,0.173221,1.62598
42143303580,1.21627,0.171728,1.63122
42143326125,1.22021,0.170006,1.63788
42143347093,1.22049,0.168456,1.64559
42143363597,1.21824,0.1675,1.65475
42143386074,1.21663,0.16692,1.66506
42143408616,1.21642,0.167085,1.67574
42143423568,1.21729,0.167863,1.68643
42143446095,1.21932,0.16893,1.69649
42143467112,1.22153,0.169998,1.70673
42143483524,1.22225,0.170582,1.71779
42143507445,1.22095,0.170265,1.72939
42143527132,1.21994,0.169276,1.74178
42143543470,1.22013,0.168323,1.75566
42143565982,1.22082,0.167082,1.7713
42143587101,1.22221,0.166233,1.78854
42143603479,1.22381,0.166179,1.8076
42143626129,1.22817,0.166669,1.82777
42143647185,1.23466,0.167766,1.84936
42143663633,1.23843,0.168665,1.87261
42143686067,1.23971,0.169723,1.89703
42143708608,1.24015,0.170761,1.92099
42143725037,1.24058,0.170441,1.94487
42143746030,1.24143,0.168068,1.96784
42143768624,1.24433,0.163673,1.98985
42143783559,1.25131,0.156651,2.01075
42143806143,1.2608,0.14643,2.03163
42143828590,1.26769,0.133859,2.05287
42143843608,1.2702,0.12086,2.0738
42143866080,1.2732,0.108601,2.09279
42143888525,1.27916,0.0972841,2.10931
42143905075,1.28746,0.0866209,2.12369
42143926141,1.2966,0.0757662,2.13617
42143947816,1.30402,0.0654509,2.14771
42143970312,1.30917,0.0566186,2.15767
42143985357,1.31396,0.0495841,2.16571
42144007839,1.31995,0.0435719,2.17133
42144030291,1.32782,0.037857,2.17497
42144045359,1.33542,0.0327011,2.17759
42144067734,1.34221,0.0279112,2.17959
42144083472,1.34916,0.023273,2.18061
42144105237,1.35613,0.0183613,2.18009
42144127696,1.36344,0.012306,2.17862
42144143521,1.36919,0.00609428,2.17644
42144165290,1.37332,0.00113052,2.17449
42144187785,1.37736,-0.00150317,2.17337
42144203528,1.38211,-0.00387333,2.17145
42144225253,1.388,-0.00701377,2.16833
42144247756,1.39458,-0.0107019,2.16528
42144263622,1.398,-0.0138358,2.16289
42144285684,1.3995,-0.0166448,2.1614
42144307849,1.40142,-0.0189943,2.15952
42144339875,1.40495,-0.0211842,2.15726
42144345387,1.40863,-0.0235235,2.15475
42144367734,1.41402,-0.0255188,2.15295
42144383527,1.42108,-0.0269658,2.15237
42144405264,1.42843,-0.0275556,2.15331
42144427846,1.43565,-0.0274984,2.15526
42144450239,1.44273,-0.0271673,2.1577
42144465180,1.44304,-0.0285767,2.16102
42144487746,1.43842,-0.028989,2.16416
42144510234,1.43244,-0.0296024,2.16596
42144525292,1.42773,-0.0298336,2.16663
42144547801,1.42494,-0.0301431,2.16587
42144570228,1.42477,-0.030692,2.16537
42144585292,1.42478,-0.0307307,2.16548
42144607771,1.42389,-0.0303791,2.16579
42144624190,1.42398,-0.0294998,2.16609
42144645193,1.42462,-0.028912,2.16605
42144667756,1.42462,-0.0287932,2.1654
42144683619,1.42502,-0.0287701,2.16458
42144705225,1.42671,-0.0288257,2.16376
42144727847,1.42744,-0.0290119,2.16353
42144743651,1.42744,-0.0290119,2.16353
42144765338,1.42773,-0.0287098,2.1634
42144787886,1.42839,-0.028495,2.16291
42144803555,1.42963,-0.0285191,2.16259
42144826739,1.43086,-0.0284846,2.16271
42144847859,1.43026,-0.028358,2.16301
42144863616,1.43026,-0.028358,2.16301
42144894268,1.43208,-0.0283724,2.16261
42144907793,1.43473,-0.0294355,2.16248
42144923575,1.43409,-0.0317281,2.16261
42144946705,1.43078,-0.0348825,2.1636
42144967768,1.42614,-0.036699,2.16593
42144983528,1.41224,-0.0368579,2.17038
42145006666,1.38773,-0.0352092,2.1735
42145027703,1.3604,-0.0330666,2.17342
42145043608,1.33084,-0.0317327,2.17283
42145066775,1.29502,-0.0312901,2.17599
42145087873,1.25386,-0.0311585,2.18553
42145103576,1.21654,-0.0292897,2.19929
42145126777,1.1794,-0.0282249,2.21416
42145147835,1.14232,-0.027887,2.22929
42145163578,1.11151,-0.0304442,2.24662
42145186789,1.08806,-0.0360273,2.26771
42145207850,1.06876,-0.0426256,2.29157
42145223623,1.05054,-0.048087,2.31528
42145260901,1.03183,-0.0510216,2.33736
42145267710,1.01547,-0.0517211,2.35806
42145283507,1.00389,-0.0504405,2.37754
42145306719,0.99818,-0.0476664,2.39734
42145327790,0.996393,-0.0434404,2.4163
42145343564,0.993242,-0.0387901,2.43381
42145366683,0.986192,-0.0341084,2.44889
42145387799,0.980312,-0.0296951,2.46169
42145403524,0.980496,-0.026058,2.47324
42145426676,0.985623,-0.0243594,2.48351
42145447811,0.988184,-0.0241824,2.49193
42145463571,0.985502,-0.0237327,2.49818
42145486753,0.980665,-0.0235809,2.50294
42145507792,0.976587,-0.0248395,2.50749
42145523532,0.973306,-0.0263826,2.51145
42145546699,0.970133,-0.0274339,2.51317
42145567787,0.969617,-0.0275489,2.51308
42145583558,0.97142,-0.0276999,2.51225
42145606079,0.973822,-0.027867,2.51125
42145627785,0.973616,-0.0280343,2.51034
42145643566,0.971047,-0.028048,2.50935
42145666098,0.969656,-0.0282001,2.50715
42145687817,0.972879,-0.0278667,2.5032
42145703555,0.979329,-0.028584,2.49886
42145726519,0.982058,-0.0296501,2.49482
42145747810,0.978973,-0.0299707,2.49102
42145763577,0.974013,-0.0300247,2.48746
42145786078,0.970657,-0.0306211,2.48393
42145809173,0.969068,-0.0314206,2.48028
42145823616,0.969257,-0.0323439,2.47658
42145846088,0.970421,-0.0334877,2.47332
42145869244,0.970326,-0.0347497,2.4709
42145883578,0.969418,-0.0355907,2.46916
42145906030,0.969642,-0.0365713,2.4675
42145929200,0.970729,-0.0381581,2.4665
42145943534,0.972626,-0.040129,2.46559
42145966087,0.974867,-0.0420035,2.46448
42145989226,0.978599,-0.0434743,2.46296
42146003552,0.987193,-0.0457069,2.46216
42146026102,1.00086,-0.047164,2.46309
42146049196,1.02053,-0.0454637,2.4655
42146070268,1.04574,-0.0403076,2.46757
42146086094,1.07812,-0.0345798,2.46787
42146109216,1.1187,-0.0303282,2.46496
42146130292,1.15611,-0.0285067,2.4558
42146146066,1.19612,-0.0257624,2.43579
42146169206,1.23211,-0.0244665,2.4059
42146190279,1.26213,-0.0296908,2.37053
42146206045,1.28803,-0.0373619,2.33595
42146229256,1.30492,-0.0459796,2.30196
42146250304,1.30886,-0.0554119,2.2687
42146266078,1.30632,-0.0627231,2.23692
42146289235,1.30504,-0.068497,2.2093
42146310303,1.30806,-0.0727738,2.188
42146326049,1.31384,-0.076844,2.17424
42146349274,1.32148,-0.0808095,2.16846
42146370318,1.32897,-0.0828097,2.16874
42146386060,1.33448,-0.081993,2.17018
42146409304,1.34076,-0.0794467,2.16894
42146430313,1.3515,-0.0791048,2.16512
42146446080,1.36299,-0.0824048,2.16277
42146469267,1.36587,-0.0859371,2.1626
42146490346,1.35968,-0.0874765,2.16197
42146506080,1.35114,-0.088113,2.15939
42146529226,1.34562,-0.0890761,2.15588
42146550288,1.34427,-0.0909169,2.15325
42146566053,1.34661,-0.092525,2.15194
42146588577,1.34918,-0.0933385,2.15123
42146610320,1.34788,-0.0937449,2.15112
42146626040,1.34386,-0.0942083,2.15206
42146648526,1.34148,-0.0945235,2.15346
42146670296,1.34325,-0.094742,2.15446
42146686073,1.34813,-0.0946175,2.15538
42146708620,1.35353,-0.0941676,2.15668
42146730434,1.35667,-0.0939597,2.15863
42146746099,1.35615,-0.0939321,2.16126
42146768618,1.35413,-0.0936786,2.16375
42146791721,1.35424,-0.0937249,2.16552
42146806076,1.35616,-0.0942907,2.16649
42146828570,1.35769,-0.0947595,2.16712
42146851697,1.35806,-0.0954111,2.16751
42146866119,1.35786,-0.0959632,2.16785
42146888579,1.35809,-0.0966563,2.16814
42146911746,1.35855,-0.0975002,2.16866
42146926123,1.35901,-0.0979895,2.16927
42146948577,1.35969,-0.0982449,2.17004
42146971765,1.36131,-0.0981447,2.17092
42146986106,1.36325,-0.0978231,2.1719
42147008616,1.36464,-0.0976552,2.1733
42147031775,1.36492,-0.097424,2.17493
42147046117,1.3652,-0.0969545,2.17679
42147068594,1.36609,-0.0962493,2.17899
42147091724,1.36748,-0.095803,2.18104
42147106062,1.36929,-0.0954385,2.1835
42147128568,1.3705,-0.0949349,2.1863
42147151749,1.3708,-0.0942296,2.18894
42147166198,1.37109,-0.0940089,2.19108
42147188630,1.37198,-0.0950436,2.19271
42147211823,1.37247,-0.0984659,2.19455
42147226106,1.36987,-0.103078,2.19689
42147248654,1.36648,-0.108161,2.19944
42147271862,1.36135,-0.116054,2.20327
42147292905,1.34918,-0.126746,2.20906
42147308702,1.33132,-0.133485,2.21451
42147331800,1.31798,-0.131508,2.21739
42147352890,1.30822,-0.125905,2.22137
42147368565,1.28639,-0.119861,2.22786
42147391725,1.25463,-0.105906,2.23265
42147412822,1.22213,-0.0840833,2.23458
42147428679,1.19038,-0.0588845,2.23758
42147451794,1.15224,-0.035841,2.24307
42147472889,1.10927,-0.0105598,2.2484
42147488664,1.06725,0.0172336,2.25287
42147511165,1.02838,0.0456018,2.25656
42147532869,0.990625,0.072354,2.26029
42147548646,0.95663,0.0980147,2.26238
42147571216,0.931117,0.122561,2.26442
42147592865,0.905224,0.144348,2.26848
42147608598,0.869301,0.164247,2.2717
42147631111,0.833318,0.181544,2.27231
42147652806,0.808458,0.195772,2.27148
42147668673,0.795886,0.205691,2.27203
42147691112,0.787511,0.211928,2.27379
42147714337,0.776041,0.215372,2.27545
42147728702,0.763171,0.215738,2.27639
42147751186,0.75888,0.213288,2.27652
42147774338,0.765296,0.208769,2.27773
42147787938,0.76904,0.202841,2.2811
42147802136,0.761545,0.197509,2.28421
42147824756,0.754135,0.192611,2.28453
42147847852,0.758164,0.185612,2.28447
42147862234,0.764786,0.177523,2.28554
42147884705,0.766274,0.170927,2.28688
42147907815,0.763904,0.164977,2.28743
42147922144,0.762055,0.158226,2.28777
42147946077,0.760969,0.1513,2.28872
42147967852,0.759651,0.144424,2.28897
42147982184,0.762153,0.138139,2.28804
42148004750,0.767438,0.132821,2.28762
42148027919,0.768016,0.12869,2.28786
42148042231,0.762582,0.125282,2.28813
42148064762,0.757833,0.122662,2.28733
42148087908,0.759269,0.119669,2.2852
42148102272,0.762079,0.116336,2.2823
42148124803,0.761941,0.113396,2.27997
42148147892,0.757898,0.110933,2.27784
42148162333,0.754142,0.108386,2.27583
42148184719,0.753002,0.105879,2.27397
42148207898,0.752721,0.103495,2.27216
42148222147,0.752371,0.100814,2.2706
42148244635,0.752107,0.0978298,2.26952
42148267925,0.752162,0.0959366,2.26895
42148282297,0.751816,0.09506,2.26891
42148304749,0.751243,0.0947673,2.269
42148327926,0.751243,0.0947673,2.269
42148342270,0.752028,0.0944389,2.26862
42148364725,0.752218,0.0942433,2.26897
42148387877,0.75076,0.0941839,2.26917
42148402118,0.750471,0.0939718,2.26862
42148424735,0.752088,0.0931699,2.2679
42148447727,0.75421,0.0921285,2.26768
42148462198,0.756488,0.0913924,2.26764
42148484716,0.76004,0.0918521,2.26682
42148507819,0.766661,0.0928059,2.26561
42148530368,0.775296,0.0947832,2.26465
42148544640,0.786023,0.0978344,2.26362
42148567905,0.799505,0.0981103,2.25937
42148582275,0.822406,0.0875063,2.2518
42148604762,0.852947,0.0593473,2.24615
42148627241,0.88966,0.0211931,2.24514
42148642329,0.922684,-0.0142182,2.24263
42148664772,0.95723,-0.0471811,2.23715
42148687275,0.996431,-0.0887404,2.23425
42148702212,1.0356,-0.134143,2.23687
42148724780,1.0678,-0.176336,2.23872
42148747243,1.10197,-0.213746,2.23749
42148762128,1.12463,-0.252378,2.24051
42148784621,1.13433,-0.286487,2.24328
42148807191,1.14943,-0.308647,2.24
42148822159,1.17868,-0.323594,2.23182
42148844682,1.20452,-0.333413,2.22607
42148867308,1.21904,-0.33589,2.22261
42148882249,1.22879,-0.332791,2.22059
42148912951,1.23769,-0.32739,2.21967
42148927313,1.24585,-0.322289,2.22107
42148942251,1.25016,-0.31688,2.22383
42148964790,1.25431,-0.309523,2.22688
42148987282,1.25877,-0.299813,2.22949
42149002172,1.26246,-0.288939,2.2315
42149024832,1.26374,-0.278639,2.23288
42149047261,1.26291,-0.269178,2.2337
42149062198,1.26152,-0.260187,2.23352
42149084650,1.26027,-0.252042,2.23208
42149107205,1.26046,-0.244992,2.22945
42149130385,1.26234,-0.239748,2.22617
42149144683,1.26404,-0.235883,2.22268
42149167216,1.26393,-0.232446,2.21951
42149190453,1.26308,-0.228654,2.21636
42149204820,1.26032,-0.22424,2.21341
42149227260,1.25491,-0.220197,2.21034
42149242307,1.24793,-0.216427,2.20711
42149264801,1.23864,-0.212871,2.20409
42149288754,1.22613,-0.207726,2.20169
42149310485,1.20934,-0.201496,2.20023
42149324731,1.19128,-0.193691,2.19924
42149347242,1.17454,-0.183585,2.19731
42149370438,1.15907,-0.171308,2.19393
42149384733,1.14584,-0.157895,2.18725
42149407318,1.13878,-0.144985,2.17749
42149430496,1.13825,-0.133039,2.16558
42149444812,1.13999,-0.121112,2.15381
42149467373,1.13881,-0.108609,2.14243
42149490459,1.13208,-0.0961687,2.13241
42149504807,1.12282,-0.0844837,2.124
42149527215,1.11797,-0.0733098,2.11593
42149550353,1.11744,-0.062715,2.10777
42149564691,1.12,-0.052364,2.09979
42149587178,1.12422,-0.0421397,2.09262
42149609762,1.12734,-0.0329768,2.08589
42149624789,1.12684,-0.0250184,2.07973
42149647319,1.12255,-0.0175977,2.07385
42149669837,1.11574,-0.0108444,2.06784
42149684749,1.10811,-0.00495782,2.06184
42149707234,1.09867,-0.00079149,2.05617
42149729800,1.08474,0.00270421,2.05113
42149744806,1.06855,0.00773879,2.04594
42149767330,1.04743,0.0156937,2.04071
42149789707,1.01685,0.0267498,2.03393
42149804681,0.97975,0.0380385,2.02532
42149827249,0.939372,0.0489861,2.01413
42149849700,0.894744,0.0584261,2.00095
42149864786,0.851504,0.0655156,1.98554
42149887234,0.814613,0.0712607,1.96779
42149909737,0.779335,0.076196,1.9491
42149924766,0.741588,0.0777237,1.93053
42149947241,0.705562,0.0779162,1.91061
42149969783,0.676494,0.0763576,1.88968
42149984781,0.65277,0.0739047,1.87
42150007282,0.627062,0.0711672,1.85209
42150029821,0.599359,0.0677135,1.83476
42150044861,0.574683,0.0635554,1.81812
42150067168,0.556813,0.0581572,1.80316
42150089695,0.542896,0.0526355,1.79108
42150107666,0.526337,0.0482435,1.78079
42150127352,0.509424,0.0453898,1.77191
42150149795,0.498308,0.0427804,1.7641
42150164824,0.491292,0.040658,1.75767
42150187294,0.483162,0.0393494,1.75241
42150209825,0.473272,0.0393064,1.74835
42150224801,0.464258,0.0398645,1.74461
42150247282,0.458506,0.0407692,1.7412
42150269788,0.45451,0.0419653,1.73858
42150284814,0.452191,0.0436614,1.73699
42150307253,0.449962,0.0455305,1.737
42150329760,0.442983,0.0483113,1.73817
42150346187,0.436675,0.0518932,1.73901
42150367160,0.435286,0.0550659,1.73922
42150389821,0.43529,0.0579132,1.73956
42150406256,0.433511,0.060375,1.74003
42150427312,0.428869,0.0628827,1.7403
42150449834,0.422118,0.0658294,1.7401
42150466195,0.417287,0.0683352,1.73973
42150487310,0.415428,0.0697058,1.73896
42150509799,0.413336,0.0705468,1.73821
42150526241,0.408767,0.0714242,1.73735
42150547314,0.403979,0.0727957,1.73635
42150563765,0.398903,0.0741312,1.7351
42150586199,0.393478,0.0755078,1.73377
42150607185,0.388796,0.07639,1.73234
42150623663,0.385277,0.0763451,1.7308
42150646147,0.381128,0.0757181,1.72863
42150667202,0.376107,0.0743178,1.72585
42150689670,0.370322,0.0717873,1.72211
42150706142,0.363565,0.0670758,1.71766
42150727170,0.356166,0.0613816,1.71183
42150749822,0.349195,0.0551462,1.70533
42150766276,0.340793,0.0488939,1.6988
42150787292,0.33002,0.0432131,1.69242
42150809790,0.320838,0.037894,1.68678
42150826210,0.315694,0.0330354,1.68173
42150847345,0.314041,0.0287972,1.67753
42150869837,0.312472,0.0252289,1.67458
42150886199,0.307695,0.0236158,1.67233
42150907264,0.305195,0.0232811,1.67072
42150923690,0.307035,0.0236311,1.66964
42150946141,0.309004,0.0246785,1.66907
42150967248,0.308485,0.0267195,1.66897
42150983644,0.308229,0.0286633,1.66889
42151006197,0.309216,0.0305097,1.66919
42151027235,0.31051,0.0317983,1.66948
42151043776,0.311,0.0328555,1.66976
42151066246,0.310544,0.0338644,1.67021
42151087329,0.309203,0.0349556,1.67034
42151103742,0.309191,0.0360831,1.67052
42151126265,0.310885,0.0369888,1.67028
42151147296,0.31418,0.0379353,1.67053
42151163767,0.316967,0.039219,1.67094
42151186258,0.317522,0.0406933,1.67204
42151207298,0.317471,0.0426759,1.67276
42151223691,0.319921,0.0438069,1.67326
42151246157,0.324145,0.0441023,1.67343
42151267226,0.328329,0.0439427,1.67316
42151283665,0.330745,0.0438181,1.67216
42151306167,0.331381,0.0437117,1.67044
42151328650,0.330167,0.0433169,1.66845
42151343660,0.328471,0.0423426,1.66628
42151366161,0.328666,0.0409366,1.66312
42151388697,0.328659,0.0393546,1.65897
42151409805,0.324084,0.0380292,1.65418
42151426267,0.313003,0.0355893,1.64907
42151448738,0.30045,0.0312003,1.64294
42151469791,0.292916,0.0250761,1.63522
42151486257,0.287932,0.0178626,1.62643
42151510129,0.280908,0.00993337,1.61662
42151529837,0.272553,0.00124574,1.60562
42151546230,0.265022,-0.00790545,1.59364
42151568741,0.258662,-0.0172349,1.58094
42151589848,0.253832,-0.0265994,1.56791
42151606207,0.250444,-0.0357928,1.55523
42151627898,0.245175,-0.0444264,1.5424
42151650453,0.239452,-0.0527626,1.5287
42151665445,0.236269,-0.0619342,1.51378
42151687908,0.23197,-0.072188,1.4992
42151710454,0.227391,-0.0828417,1.48509
42151725450,0.223517,-0.0938903,1.47102
42151747945,0.220137,-0.105037,1.45747
42151770399,0.218634,-0.115084,1.44473
42151786880,0.216367,-0.124531,1.43292
42151808002,0.212695,-0.133335,1.42204
42151830549,0.211732,-0.141463,1.41282
42151845545,0.213009,-0.148227,1.40458
42151867991,0.211196,-0.15374,1.39799
42151890471,0.206788,-0.157032,1.39409
42151905448,0.205131,-0.159004,1.3932
42151927985,0.207078,-0.159789,1.3948
42151950440,0.208374,-0.158639,1.39663
42151965491,0.206329,-0.156071,1.39913
42151987923,0.203263,-0.153013,1.40214
42152011816,0.203821,-0.150464,1.40517
42152025422,0.207309,-0.1483,1.40805
42152047882,0.210612,-0.146004,1.41114
42152063675,0.210349,-0.143128,1.41451
42152085407,0.207151,-0.139701,1.41819
42152107907,0.206467,-0.13678,1.42174
42152123718,0.209672,-0.134466,1.42518
42152145407,0.214104,-0.131915,1.4287
42152167957,0.217575,-0.128592,1.43241
42152183788,0.220347,-0.124455,1.437
42152205473,0.224465,-0.119764,1.44187
42152228054,0.231193,-0.114264,1.44762
42152250521,0.240148,-0.108039,1.45379
42152265546,0.248382,-0.100914,1.46045
42152288045,0.255177,-0.0923414,1.46711
42152310490,0.262754,-0.0830535,1.47419
42152325502,0.270498,-0.072909,1.48238
42152348016,0.277663,-0.0620263,1.49162
42152370465,0.284901,-0.0504881,1.50063
42152385528,0.294113,-0.0392869,1.51021
42152407939,0.303827,-0.0270012,1.52076
42152430404,0.313457,-0.0125182,1.53227
42152446828,0.323442,0.00420964,1.54454
42152467889,0.333153,0.0219739,1.55737
42152490441,0.344635,0.0397961,1.57081
42152506876,0.357411,0.0575605,1.58538
42152527951,0.373716,0.0774169,1.60161
42152550413,0.390465,0.0985322,1.61905
42152566856,0.407583,0.119201,1.6377
42152587922,0.424464,0.137223,1.6566
42152610492,0.441826,0.152207,1.675
42152626970,0.461536,0.165537,1.6936
42152648031,0.480058,0.178354,1.71388
42152670535,0.497319,0.191381,1.73584
42152686993,0.514535,0.202412,1.75799
42152707939,0.534212,0.209595,1.77977
42152730565,0.558972,0.214776,1.80275
42152746978,0.585827,0.220837,1.82558
42152767954,0.610583,0.229284,1.84797
42152790534,0.635215,0.238,1.86893
42152806942,0.661342,0.244065,1.8874
42152828015,0.687691,0.247388,1.90377
42152850521,0.71409,0.250862,1.91979
42152866933,0.742404,0.254777,1.93546
42152888073,0.772276,0.256415,1.95106
42152910537,0.799113,0.253268,1.96601
42152934389,0.827794,0.247493,1.98157
42152947964,0.854505,0.241543,1.99667
42152970501,0.874041,0.235867,2.00982
42152986844,0.888432,0.229143,2.0213
42153007951,0.904679,0.220919,2.03191
42153030509,0.925585,0.211282,2.04252
42153046995,0.945414,0.202354,2.05268
42153067988,0.958729,0.193502,2.06128
42153090506,0.963622,0.183082,2.06905
42153106910,0.965246,0.171871,2.07805
42153127872,0.969904,0.162832,2.08759
42153150445,0.975534,0.15524,2.09552
42153172922,0.982952,0.147315,2.09971
42153187939,0.992087,0.138926,2.10259
42153210435,1.00034,0.133039,2.10663
42153226238,1.00276,0.131931,2.11192
42153247966,0.99742,0.134687,2.11697
42153270447,0.992746,0.137824,2.1198
42153286227,0.9996,0.138293,2.12219
42153308034,1.01106,0.137362,2.12483
42153330481,1.01563,0.137338,2.12888
42153346222,1.01234,0.139038,2.13399
42153369467,1.00817,0.140494,2.13864
42153390526,1.00473,0.141247,2.14206
42153406343,1.00459,0.141125,2.1443
42153429468,1.00745,0.140151,2.14664
42153451952,1.00886,0.13975,2.14931
42153466257,1.01186,0.139958,2.15183
42153496986,1.01605,0.139085,2.15528
42153510509,1.02331,0.138518,2.15821
42153526276,1.02876,0.138226,2.16045
42153549438,1.03128,0.137376,2.16273
42153570525,1.03542,0.136215,2.16539
42153586327,1.04166,0.135807,2.16749
42153609506,1.04726,0.136284,2.16903
42153630564,1.05113,0.136805,2.17018
42153646336,1.05431,0.13711,2.17051
42153669471,1.05657,0.137755,2.17123
42153683847,1.06056,0.13897,2.17265
42153706339,1.06755,0.139564,2.17445
42153729437,1.07487,0.140305,2.17567
42153750456,1.08005,0.140905,2.17633
42153766253,1.08402,0.141335,2.1774
42153789375,1.0869,0.142868,2.17878
42153810442,1.0909,0.144958,2.18048
42153826198,1.09684,0.146493,2.18226
42153856897,1.10183,0.147585,2.18382
42153870485,1.10503,0.148292,2.18502
42153886253,1.107,0.148796,2.18618
42153909416,1.10842,0.149361,2.18722
42153930490,1.10979,0.149965,2.18798
42153946228,1.11185,0.150268,2.18777
42153969433,1.11237,0.149816,2.18721
42153990506,1.11075,0.149207,2.18628
42154006249,1.10829,0.149296,2.18526
42154029455,1.1065,0.148872,2.18461
42154050492,1.10556,0.148301,2.18422
42154066279,1.1056,0.147976,2.18403
42154089405,1.10558,0.147742,2.18387
42154110516,1.10506,0.14739,2.18318
42154126274,1.1047,0.147006,2.18274
42154148861,1.10397,0.146335,2.18245
42154170524,1.10306,0.146315,2.1822
42154186339,1.10306,0.146315,2.1822
42154208814,1.10303,0.146338,2.18208
42154230559,1.10318,0.14639,2.18217
42154246348,1.10318,0.14639,2.18217
42154268827,1.10311,0.146481,2.1822
42154290576,1.10311,0.146481,2.1822
42154306361,1.10311,0.146481,2.1822
42154329324,1.10296,0.146428,2.18212
42154351904,1.10297,0.146489,2.18207
42154366310,1.10297,0.146489,2.18207
42154388785,1.10311,0.146481,2.1822
42154412018,1.10311,0.146481,2.1822
42154426352,1.10311,0.146481,2.1822
42154448926,1.10311,0.146481,2.1822
42154472048,1.10311,0.146481,2.1822
42154486266,1.10311,0.146481,2.1822
42154508873,1.10311,0.146481,2.1822
42154532007,1.10357,0.146594,2.18219
42154546257,1.10455,0.146523,2.18241
42154568740,1.10513,0.146394,2.18238
42154591898,1.10513,0.146394,2.18238
42154606212,1.10513,0.146394,2.18238
42154628732,1.10519,0.146097,2.18262
42154651958,1.10519,0.146097,2.18262
42154666277,1.10477,0.146135,2.18296
42154688745,1.10477,0.146135,2.18296
42154711934,1.10517,0.146194,2.1832
42154726293,1.10517,0.146194,2.1832
42154748800,1.10517,0.146194,2.1832
42154771972,1.10564,0.146017,2.18363
42154786347,1.10622,0.145742,2.18383
42154808823,1.10686,0.145634,2.18402
42154831995,1.10689,0.145611,2.18414
42154853000,1.1073,0.145987,2.18437
42154868827,1.10797,0.146173,2.18467
42154891908,1.10843,0.146141,2.18488
42154913059,1.10828,0.146088,2.1848
42154928896,1.10828,0.146088,2.1848
42154951945,1.10828,0.146088,2.1848
42154973040,1.10828,0.146088,2.1848
42154988869,1.10828,0.146088,2.1848
42155011977,1.10899,0.146034,2.18473
42155033005,1.10945,0.14589,2.18468
42155048828,1.10902,0.145855,2.18432
42155071340,1.10799,0.146078,2.18409
42155093009,1.10651,0.146249,2.18381
42155115598,1.10627,0.146086,2.18312
42155131345,1.1064,0.145687,2.18257
42155160534,1.1056,0.145425,2.1823
42155168871,1.10461,0.145579,2.18192
42155191336,1.10476,0.145631,2.18201
42155213076,1.1057,0.145411,2.18189
42155228841,1.10634,0.145191,2.18183
42155251298,1.10421,0.14552,2.18168
42155274489,1.09957,0.146095,2.18125
42155288805,1.0953,0.145882,2.18083
42155311327,1.09186,0.144972,2.18052
42155334489,1.08954,0.144823,2.18025
42155348824,1.08965,0.144839,2.18027
42155371260,1.09125,0.144506,2.18122
42155394967,1.09152,0.144508,2.18225
42155408789,1.09108,0.144746,2.18268
42155439620,1.09112,0.144898,2.18301
42155454500,1.09089,0.144922,2.18328
42155468072,1.0896,0.14467,2.1835
42155482485,1.08873,0.144659,2.18381
42155504930,1.08858,0.144607,2.18372
42155528052,1.08858,0.144607,2.18372
42155542435,1.08826,0.144312,2.18367
42155564886,1.08683,0.144271,2.18348
42155588123,1.0858,0.144115,2.18333
42155602418,1.08542,0.143654,2.18328
42155624858,1.08498,0.143238,2.18299
42155648128,1.08435,0.143404,2.18274
42155670578,1.08367,0.143298,2.18228
42155684914,1.08311,0.142948,2.1818
42155708092,1.08221,0.142986,2.18151
42155722480,1.08059,0.143501,2.18098
42155744877,1.08231,0.143089,2.18012
42155768047,1.08957,0.142484,2.17995
42155790518,1.09614,0.141785,2.17754
42155804823,1.09946,0.141587,2.17358
42155828024,1.09793,0.141768,2.17067
42155850492,1.09505,0.140433,2.169
42155864858,1.09518,0.138512,2.16762
42155887980,1.09975,0.139479,2.16489
42155910499,1.1102,0.143332,2.16159
42155924857,1.1201,0.149558,2.15866
42155947407,1.12268,0.159175,2.15627
42155970545,1.11841,0.172453,2.15217
42155984833,1.11077,0.189673,2.14632
42156007432,1.10385,0.210196,2.13764
42156030586,1.09868,0.233806,2.12586
42156044958,1.0945,0.25965,2.11176
42156068124,1.08915,0.288808,2.09602
42156090583,1.07745,0.321522,2.07838
42156104896,1.05965,0.355847,2.05875
42156128099,1.03905,0.390036,2.03569
42156150639,1.01789,0.424661,2.01016
42156164931,0.994984,0.460901,1.98171
42156188031,0.968855,0.498153,1.95046
42156210622,0.944007,0.533013,1.91844
42156224874,0.921117,0.565139,1.88596
42156247472,0.89468,0.59694,1.85158
42156270607,0.862238,0.628158,1.81513
42156284925,0.830429,0.655659,1.77841
42156307480,0.803707,0.679498,1.74246
42156330604,0.777638,0.701596,1.70613
42156344967,0.748182,0.722393,1.66833
42156367486,0.717587,0.741713,1.63053
42156390594,0.690297,0.758506,1.59361
42156404948,0.665469,0.77287,1.55825
42156427464,0.640595,0.78534,1.52333
42156450631,0.611849,0.798324,1.48649
42156464962,0.579167,0.81141,1.44677
42156487392,0.546142,0.823302,1.40728
42156510547,0.517494,0.831479,1.37079
42156524920,0.487844,0.838515,1.33491
42156547455,0.453085,0.845805,1.29799
42156570572,0.416285,0.852864,1.26191
42156584965,0.382533,0.857001,1.22757
42156607484,0.350825,0.859587,1.19337
42156630621,0.320636,0.86145,1.16099
42156644969,0.289981,0.862925,1.13038
42156667418,0.260398,0.863762,1.1027
42156690604,0.232891,0.863761,1.07774
42156704959,0.207846,0.863676,1.055
42156727462,0.185479,0.864206,1.03541
42156750570,0.162794,0.865365,1.01735
42156764991,0.141833,0.865668,1.00149
42156787429,0.123497,0.865634,0.986924
42156810565,0.105437,0.865791,0.972477
42156824937,0.0866572,0.866509,0.95959
42156847448,0.0674755,0.867099,0.94803
42156870644,0.0481169,0.867255,0.938753
42156884916,0.0356834,0.866262,0.933662
42156907397,0.0272059,0.865463,0.929963
42156930524,0.0181056,0.865165,0.926554
42156944878,0.00529516,0.865598,0.922348
42156967454,-0.0109595,0.867103,0.916081
42156989944,-0.0296225,0.868618,0.907539
42157004906,-0.0485069,0.870553,0.897633
42157027403,-0.0690205,0.872934,0.885472
42157050620,-0.0912713,0.876056,0.871288
42157064950,-0.114139,0.879266,0.856891
42157087431,-0.138693,0.882397,0.842154
42157110577,-0.16455,0.885111,0.826134
42157124966,-0.189818,0.887711,0.809362
42157147471,-0.215431,0.889789,0.793007
42157169898,-0.239824,0.891074,0.778118
42157184832,-0.262737,0.892763,0.765249
42157207380,-0.286512,0.894208,0.752344
42157238650,-0.310971,0.894822,0.738489
42157244801,-0.332626,0.893819,0.724476
42157267393,-0.350942,0.892143,0.712046
42157289838,-0.368802,0.889879,0.700401
42157304882,-0.388847,0.887565,0.688564
42157327403,-0.40979,0.884917,0.676249
42157349921,-0.429307,0.882432,0.664406
42157364916,-0.446331,0.87992,0.6542
42157387401,-0.460835,0.877966,0.645142
42157409983,-0.473797,0.87529,0.636825
42157425005,-0.485515,0.872524,0.629455
42157447480,-0.497324,0.870421,0.622693
42157469943,-0.509575,0.868662,0.616795
42157484932,-0.52018,0.867198,0.612384
42157507526,-0.527757,0.865304,0.609473
42157529868,-0.533046,0.863294,0.607313
42157544965,-0.537232,0.861585,0.606353
42157567526,-0.540386,0.860505,0.605927
42157590002,-0.54169,0.859307,0.606137
42157604889,-0.540479,0.858582,0.607338
42157627399,-0.536759,0.858444,0.608807
42157643910,-0.53225,0.858689,0.61101
42157664933,-0.527707,0.859248,0.613721
42157687440,-0.522626,0.860711,0.617507
42157703897,-0.515716,0.86294,0.623102
42157724861,-0.505893,0.865623,0.630189
42157747407,-0.493448,0.867988,0.638758
42157769998,-0.479168,0.869528,0.648484
42157787837,-0.462214,0.870657,0.660345
42157807411,-0.441684,0.871698,0.674573
42157830012,-0.419416,0.872469,0.690188
42157844917,-0.396246,0.872053,0.706106
42157867484,-0.372401,0.871073,0.720649
42157889946,-0.347053,0.870222,0.735567
42157904965,-0.317639,0.870028,0.753077
42157927463,-0.284244,0.871058,0.772794
42157949904,-0.253442,0.872893,0.790512
42157966404,-0.226783,0.874502,0.806108
42157987516,-0.200553,0.876913,0.821444
42158009947,-0.175446,0.880487,0.836115
42158026402,-0.151188,0.884355,0.849326
42158047504,-0.1259,0.887333,0.861454
42158069976,-0.0990576,0.890736,0.874544
42158086479,-0.0730781,0.896103,0.888779
42158107471,-0.0513772,0.90275,0.903555
42158129978,-0.0322211,0.909127,0.91756
42158146406,-0.0107957,0.914673,0.933283
42158167493,0.0127917,0.919373,0.951765
42158189989,0.0362797,0.923633,0.972519
42158206447,0.0579764,0.926395,0.993075
42158227483,0.082015,0.928341,1.01594
42158249982,0.112331,0.92962,1.04314
42158266394,0.150227,0.931193,1.07702
42158287460,0.192934,0.932645,1.11665
42158309981,0.237234,0.932964,1.16005
42158326405,0.284972,0.93126,1.20842
42158347487,0.336457,0.927145,1.26116
42158369966,0.394412,0.919814,1.31893
42158386433,0.455265,0.909327,1.37807
42158407437,0.515698,0.896329,1.43668
42158429898,0.573129,0.881397,1.49323
42158446399,0.628304,0.864073,1.54864
42158467448,0.68278,0.844251,1.60341
42158489997,0.73659,0.821963,1.65777
42158506466,0.784805,0.797754,1.70912
42158527481,0.826972,0.772631,1.75691
42158549968,0.865319,0.746043,1.801
42158566404,0.903827,0.716984,1.84352
42158587430,0.942261,0.68584,1.88397
42158609900,0.975427,0.654621,1.92051
42158626430,1.00252,0.62455,1.95328
42158647449,1.02667,0.594077,1.98356
42158669991,1.05203,0.562022,2.01165
42158686460,1.07647,0.530169,2.03749
42158710410,1.0963,0.501018,2.0611
42158729915,1.10898,0.474567,2.08114
42158746445,1.12279,0.448154,2.09879
42158767488,1.14104,0.420822,2.11607
42158789980,1.15773,0.394034,2.13346
42158806383,1.16665,0.369311,2.15
42158827505,1.17046,0.346613,2.16445
42158849984,1.17612,0.324576,2.17729
42158866442,1.1841,0.302162,2.18908
42158888914,1.19334,0.27967,2.19995
42158910012,1.2035,0.25885,2.20927
42158926439,1.21234,0.241629,2.21632
42158948888,1.21923,0.227263,2.22143
42158969953,1.22547,0.214001,2.22579
42158986458,1.23001,0.202411,2.22978
42159008935,1.23075,0.193509,2.23258
42159029939,1.22838,0.18694,2.23473
42159046421,1.22602,0.18054,2.2367
42159068889,1.22526,0.173484,2.2383
42159090037,1.22607,0.166491,2.23958
42159106362,1.2288,0.161146,2.24068
42159128800,1.23201,0.159689,2.24253
42159149941,1.22742,0.163019,2.24466
42159166342,1.22089,0.166935,2.24613
42159188848,1.2244,0.16835,2.24674
42159218179,1.23512,0.166369,2.24627
42159226383,1.23794,0.163368,2.24645
42159248817,1.22794,0.161575,2.24842
42159269867,1.21073,0.161339,2.2502
42159286400,1.19646,0.160703,2.25079
42159308145,1.1854,0.160173,2.25023
42159330647,1.17901,0.160378,2.24859
42159345668,1.17619,0.159682,2.24703
42159368166,1.17303,0.156467,2.24722
42159390688,1.16722,0.15379,2.24904
42159405657,1.16223,0.152402,2.2522
42159428159,1.16006,0.152325,2.25581
42159450570,1.1606,0.153327,2.25806
42159465643,1.16381,0.153504,2.25948
42159488234,1.1655,0.152485,2.26137
42159510698,1.16296,0.15133,2.26272
42159525640,1.15858,0.150477,2.2633
42159548152,1.15499,0.149815,2.2623
42159570619,1.15208,0.148516,2.26012
42159585613,1.14812,0.146306,2.25778
42159608149,1.14318,0.144122,2.25638
42159630642,1.13833,0.142348,2.25507
42159645703,1.13548,0.140477,2.25334
42159668177,1.13365,0.137964,2.25192
42159692073,1.13157,0.135499,2.25068
42159705635,1.12994,0.133456,2.24963
42159728160,1.12872,0.131872,2.24827
42159750696,1.12796,0.130108,2.24648
42159765622,1.12647,0.128193,2.24536
42159788187,1.12431,0.126924,2.24435
42159810671,1.12283,0.12571,2.24338
42159825521,1.12107,0.124836,2.24212
42159848132,1.11818,0.123901,2.24029
42159870708,1.11408,0.123171,2.23837
42159885688,1.10825,0.122441,2.23633
42159908184,1.10231,0.121424,2.23462
42159923976,1.0959,0.120422,2.23344
42159945684,1.08921,0.11996,2.23317
42159968118,1.08391,0.12009,2.23332
42159983981,1.08139,0.120152,2.23364
42160007106,1.08073,0.12012,2.23439
42160028183,1.0806,0.120436,2.23583
42160043909,1.08144,0.121231,2.23748
42160067046,1.08339,0.122436,2.23916
42160088162,1.08629,0.123305,2.24089
42160112139,1.08949,0.124351,2.24261
42160127121,1.09195,0.125316,2.2441
42160148146,1.09313,0.126066,2.24583
42160163986,1.09395,0.127318,2.24747
42160187149,1.09576,0.128311,2.24838
42160208237,1.09923,0.128818,2.24912
42160223946,1.10291,0.129013,2.25026
42160247147,1.10584,0.129537,2.25205
42160268097,1.10837,0.130511,2.25401
42160283908,1.11092,0.131797,2.25597
42160307099,1.1132,0.133068,2.257
42160328206,1.11454,0.133621,2.2572
42160343962,1.1131,0.133631,2.25701
42160367117,1.10992,0.13341,2.25661
42160388142,1.10697,0.133144,2.25634
42160403874,1.10613,0.132776,2.25651
42160433190,1.10718,0.132434,2.25691
42160448083,1.10905,0.132397,2.2572
42160463938,1.11016,0.132422,2.25732
42160487088,1.10983,0.132396,2.25731
42160508120,1.10851,0.132781,2.2574
42160523905,1.10781,0.133106,2.25784
42160547039,1.1077,0.133402,2.25819
42160568114,1.10869,0.133662,2.25866
42160583845,1.10962,0.133964,2.25889
42160614546,1.11014,0.134222,2.25888
42160628119,1.11014,0.134222,2.25888
42160643905,1.10964,0.134136,2.25911
42160667549,1.10907,0.134287,2.25915
42160688097,1.10907,0.134287,2.25915
42160703855,1.10998,0.134417,2.25917
42160727095,1.10998,0.134417,2.25917
42160748144,1.10958,0.134484,2.2592
42160763878,1.10904,0.134614,2.25935
42160786386,1.10904,0.134614,2.25935
42160808122,1.10904,0.134614,2.25935
42160823957,1.10935,0.135221,2.25961
42160846415,1.10987,0.135723,2.25997
42160868131,1.10994,0.136046,2.26052
42160883882,1.10973,0.136395,2.26079
42160906368,1.10967,0.136488,2.26083
42160928115,1.10967,0.136488,2.26083
42160943854,1.10967,0.136488,2.26083
42160966377,1.10906,0.136649,2.26107
42160989595,1.10826,0.136978,2.26116
42161003912,1.10826,0.136978,2.26116
42161026373,1.10826,0.136978,2.26116
42161049545,1.10893,0.137223,2.26129
42161063877,1.10968,0.137509,2.26094
42161086398,1.10969,0.137715,2.26066
42161109504,1.10884,0.137748,2.26064
42161123978,1.10786,0.1381,2.2608
42161147050,1.10811,0.138301,2.26068
42161169594,1.1103,0.138015,2.26017
42161183888,1.11187,0.137574,2.25992
42161206405,1.11187,0.137574,2.25992
42161229503,1.11075,0.137489,2.25985
42161243902,1.11019,0.137302,2.26001
42161266907,1.11004,0.137253,2.25993
42161289555,1.11074,0.137027,2.26009
42161303870,1.11086,0.137097,2.26006
42161326429,1.11105,0.137173,2.26059
42161349585,1.11104,0.137417,2.26096
42161363844,1.11119,0.137964,2.26146
42161386427,1.1106,0.137992,2.26162
42161409554,1.10952,0.137948,2.2616
42161423874,1.10836,0.13758,2.26104
42161446404,1.1062,0.137341,2.26016
42161469588,1.10368,0.136646,2.259
42161498161,1.10179,0.135306,2.25795
42161506430,1.10198,0.133354,2.25644
42161537059,1.10313,0.131391,2.25458
42161550663,1.10181,0.129921,2.2519
42161574600,1.0974,0.128214,2.24834
42161589571,1.09239,0.125353,2.24413
42161610650,1.08721,0.122279,2.24103
42161626393,1.08564,0.119969,2.23845
42161649568,1.08858,0.118756,2.23532
42161670641,1.09447,0.117137,2.23028
42161686429,1.09959,0.11566,2.22456
42161708884,1.10394,0.115939,2.21973
42161730603,1.10841,0.11871,2.21515
42161746438,1.11337,0.122953,2.20959
42161768959,1.11781,0.128903,2.2026
42161790622,1.12101,0.13748,2.19422
42161806438,1.12098,0.151511,2.18555
42161828895,1.1169,0.170994,2.177
42161850647,1.11017,0.193783,2.16752
42161866415,1.10186,0.219478,2.15608
42161888917,1.09276,0.248009,2.14203
42161912058,1.084,0.27852,2.12618
42161926415,1.07358,0.309957,2.10849
42161948891,1.05949,0.343003,2.08973
42161972023,1.04107,0.377588,2.06947
42161986462,1.01998,0.41367,2.04676
42162008977,0.998944,0.450338,2.02133
42162032063,0.976931,0.48718,1.99329
42162046412,0.952059,0.523915,1.96247
42162068891,0.924522,0.560444,1.92923
42162092095,0.895093,0.595951,1.8942
42162106532,0.865193,0.62984,1.8574
42162129031,0.832216,0.662746,1.81865
42162152144,0.796029,0.694459,1.77771
42162173233,0.758597,0.723915,1.73587
42162189019,0.722314,0.74952,1.69411
42162212149,0.684781,0.772275,1.65156
42162233150,0.643948,0.79314,1.60735
42162248988,0.599845,0.813285,1.5611
42162272185,0.553553,0.832333,1.51241
42162293245,0.510165,0.848399,1.46459
42162308981,0.470795,0.862812,1.41933
42162332162,0.429642,0.874598,1.37245
42162353214,0.382763,0.884811,1.3235
42162368990,0.334374,0.89389,1.2753
42162391899,0.289994,0.901215,1.23097
42162413230,0.253093,0.906416,1.19248
42162428972,0.222507,0.909952,1.15861
42162452240,0.192583,0.912764,1.12679
42162473179,0.165628,0.914558,1.09778
42162488962,0.142997,0.915444,1.07262
42162511493,0.121715,0.916172,1.0506
42162533204,0.0986599,0.916645,1.0291
42162548996,0.0734208,0.916915,1.00687
42162572214,0.046904,0.917103,0.984473
42162593204,0.0207735,0.916663,0.963597
42162609018,-0.000667334,0.915708,0.946303
42162632140,-0.020381,0.914542,0.931619
42162653249,-0.0425818,0.913461,0.916951
42162669034,-0.0657186,0.912007,0.90212
42162691496,-0.0866268,0.910455,0.889018
42162713202,-0.10801,0.909924,0.876677
42162729017,-0.122975,0.909153,0.869555
42162751561,-0.132695,0.908833,0.863869
42162773216,-0.142094,0.908453,0.859474
42162788927,-0.154111,0.908478,0.85622
42162811471,-0.168199,0.909487,0.852463
42162833174,-0.184493,0.911145,0.847342
42162848973,-0.202382,0.913035,0.84004
42162871517,-0.220984,0.914469,0.831308
42162894630,-0.237473,0.915699,0.823149
42162909090,-0.251388,0.917448,0.816438
42162931520,-0.265532,0.919314,0.809461
42162954613,-0.280542,0.920345,0.801538
42162968993,-0.295969,0.920926,0.792247
42162991510,-0.31026,0.920251,0.783217
42163014718,-0.322766,0.919017,0.775224
42163029033,-0.335626,0.917799,0.767666
42163051455,-0.349098,0.916921,0.760787
42163074677,-0.361707,0.915941,0.754457
42163088962,-0.372571,0.915152,0.748195
42163111485,-0.379552,0.913373,0.743826
42163134727,-0.383172,0.911089,0.741625
42163155771,-0.387158,0.909153,0.740259
42163162626,-0.394219,0.907903,0.738045
42163185044,-0.400701,0.907219,0.73507
42163208249,-0.404027,0.906597,0.732727
42163222577,-0.404764,0.906492,0.731524
42163245010,-0.404958,0.906571,0.731474
42163268165,-0.405961,0.906983,0.731337
42163282603,-0.406022,0.906919,0.731115
42163305067,-0.404374,0.907313,0.731525
42163328238,-0.400873,0.908109,0.733781
42163342526,-0.396552,0.908929,0.737142
42163365124,-0.390975,0.909621,0.741363
42163388211,-0.38437,0.911066,0.746575
42163402545,-0.376359,0.912812,0.752579
42163425117,-0.367544,0.91502,0.758911
42163448308,-0.357985,0.917635,0.765431
42163470570,-0.346371,0.920407,0.772334
42163485060,-0.330047,0.923082,0.780537
42163507622,-0.30691,0.926704,0.793819
42163530763,-0.282104,0.930415,0.808353
42163545062,-0.26007,0.933981,0.821852
42163567489,-0.240129,0.936345,0.833455
42163590758,-0.220563,0.939614,0.845182
42163605151,-0.201577,0.943579,0.858412
42163627551,-0.183103,0.947994,0.871236
42163650715,-0.164261,0.951892,0.883619
42163665138,-0.143476,0.954249,0.896475
42163687571,-0.12102,0.956164,0.910887
42163710737,-0.0987561,0.959043,0.926981
42163725113,-0.0778673,0.962926,0.943524
42163747510,-0.0545162,0.966837,0.96233
42163770719,-0.0247141,0.970529,0.985802
42163785023,0.0132632,0.974011,1.01615
42163807582,0.0599768,0.976396,1.0545
42163830772,0.111288,0.977543,1.10013
42163845094,0.163517,0.975196,1.14965
42163867627,0.219559,0.969321,1.20242
42163890756,0.279502,0.961188,1.25754
42163905071,0.338511,0.952249,1.31337
42163927631,0.395681,0.942322,1.36847
42163950777,0.455691,0.929432,1.42545
42163965095,0.518126,0.914432,1.48493
42163987568,0.577134,0.897115,1.5428
42164010805,0.630499,0.878412,1.59647
42164025155,0.683359,0.857516,1.64688
42164047567,0.736682,0.833917,1.69685
42164070711,0.787173,0.807441,1.74511
42164084977,0.832389,0.778419,1.79009
42164107572,0.873967,0.747703,1.83171
42164130790,0.911885,0.715449,1.87006
42164145093,0.948193,0.681097,1.90707
42164167576,0.983204,0.644806,1.94262
42164190799,1.01473,0.609024,1.97468
42164205081,1.04002,0.576436,2.00228
42164227628,1.06047,0.546274,2.02555
42164250796,1.08165,0.515491,2.04688
42164265084,1.10459,0.48382,2.06796
42164287551,1.12375,0.452943,2.08815
42164310718,1.13398,0.425208,2.10578
42164325130,1.14117,0.399822,2.12062
42164347584,1.15088,0.374954,2.13393
42164370766,1.1633,0.350718,2.14626
42164385043,1.17489,0.328654,2.15733
42164407582,1.18391,0.309626,2.16731
42164430782,1.19004,0.292274,2.17655
42164445122,1.1951,0.275818,2.1854
42164467654,1.20025,0.259664,2.19352
42164490699,1.20443,0.245121,2.20106
42164505095,1.20732,0.232557,2.20784
42164527603,1.21118,0.220678,2.21413
42164550794,1.21685,0.208355,2.22017
42164565111,1.22296,0.196334,2.2258
42164587631,1.22638,0.185033,2.23094
42164610104,1.22723,0.174312,2.23591
42164625100,1.22841,0.163298,2.24057
42164647643,1.23183,0.15189,2.24512
42164670806,1.23503,0.140363,2.24941
42164685074,1.23757,0.129155,2.25362
42164707624,1.24023,0.118246,2.25711
42164730126,1.2463,0.110199,2.2596
42164745155,1.24522,0.113625,2.26399
42164767610,1.22969,0.120158,2.26576
42164790092,1.22446,0.124159,2.26555
42164805085,1.23807,0.121876,2.26517
42164827668,1.25026,0.118076,2.26446
42164850143,1.24444,0.113761,2.26418
42164865093,1.22361,0.11086,2.26412
42164887652,1.20324,0.108013,2.26359
42164910029,1.19085,0.103736,2.26225
42164925092,1.18366,0.0991021,2.26027
42164947619,1.17688,0.0954841,2.25785
42164970075,1.16955,0.0927191,2.25534
42164985137,1.16151,0.0898679,2.25338
42165007537,1.15208,0.0875127,2.25271
42165030084,1.14094,0.0868265,2.25282
42165045078,1.13318,0.0873251,2.25247
42165067675,1.13216,0.0872369,2.25161
42165090155,1.13325,0.0860405,2.25134
42165105167,1.13219,0.0852496,2.25173
42165127599,1.1288,0.0855948,2.25182
42165144059,1.12459,0.0863394,2.25107
42165165144,1.12078,0.0870905,2.24936
42165187601,1.11717,0.0877305,2.24775
42165204006,1.11295,0.0883767,2.24662
42165225032,1.10962,0.0894564,2.24581
42165247495,1.10713,0.0908462,2.24486
42165263993,1.10713,0.0922878,2.24406
42165284995,1.10939,0.0940551,2.24405
42165307569,1.11408,0.0958928,2.24463
42165325452,1.12016,0.0970661,2.24613
42165345064,1.12529,0.0980431,2.24792
42165367529,1.12782,0.0992513,2.24969
42165383976,1.12869,0.100381,2.25129
42165405049,1.12934,0.101446,2.25258
42165427597,1.13046,0.102198,2.25326
42165450040,1.13221,0.102648,2.25393
42165468020,1.13344,0.102837,2.25461
42165487637,1.13392,0.102748,2.25532
42165510123,1.13362,0.103276,2.25622
42165526586,1.13424,0.104252,2.25713
42165547601,1.13657,0.105103,2.25812
42165564031,1.14007,0.105416,2.25866
42165586548,1.14203,0.105329,2.25924
42165607645,1.14253,0.105361,2.25984
42165624015,1.1422,0.105548,2.26031
42165646555,1.14152,0.105796,2.2606
42165667673,1.14174,0.106322,2.26068
42165690110,1.1426,0.106544,2.26074
42165706614,1.14332,0.106633,2.26089
42165727628,1.14332,0.106633,2.26089
42165744037,1.14263,0.106627,2.26113
42165766510,1.14263,0.106627,2.26113
42165787618,1.14332,0.106633,2.26089
42165810123,1.14332,0.106633,2.26089
42165826522,1.14263,0.106627,2.26113
42165847633,1.14201,0.106783,2.26138
42165870059,1.14241,0.106971,2.2614
42165886529,1.14331,0.106722,2.26149
42165907585,1.14331,0.106722,2.26149
42165930125,1.14261,0.106801,2.26156
42165946546,1.14184,0.106973,2.26167
42165967632,1.14185,0.107035,2.26161
42165990159,1.1425,0.106899,2.26181
42166006567,1.14316,0.106826,2.26195
42166027667,1.14361,0.10686,2.26199
42166058340,1.14361,0.10686,2.26199
42166066529,1.14361,0.10686,2.26199
42166087628,1.14356,0.107014,2.26197
42166110160,1.14356,0.107014,2.26197
42166126540,1.14341,0.106967,2.26189
42166149131,1.14341,0.106967,2.26189
42166170094,1.14356,0.107014,2.26197
42166186544,1.14341,0.106967,2.26189
42166207601,1.14306,0.106986,2.26214
42166230132,1.143,0.107078,2.26218
42166246584,1.14336,0.106973,2.2621
42166267664,1.14336,0.106973,2.2621
42166290126,1.14299,0.107016,2.26224
42166306561,1.14242,0.107228,2.26222
42166327635,1.14242,0.107228,2.26222
42166350189,1.14274,0.107593,2.26211
42166366544,1.14339,0.108432,2.2621
42166390489,1.14381,0.10919,2.26216
42166410092,1.14479,0.109781,2.2625
42166426587,1.14606,0.110041,2.26282
42166449077,1.14784,0.10999,2.26308
42166470189,1.14991,0.109906,2.26286
42166486639,1.15131,0.109833,2.26256
42166509125,1.15114,0.109831,2.26197
42166530146,1.15021,0.109235,2.26141
42166546598,1.1494,0.10907,2.26108
42166569068,1.14979,0.10909,2.26088
42166590188,1.1509,0.109051,2.26107
42166606528,1.15146,0.109328,2.26151
42166629068,1.15129,0.109666,2.26234
42166650139,1.15109,0.110176,2.26283
42166666542,1.15109,0.110176,2.26283
42166689068,1.15109,0.110176,2.26283
42166710148,1.15062,0.11008,2.26285
42166726562,1.14985,0.109997,2.2629
42166749137,1.14949,0.109804,2.26267
42166770169,1.14949,0.109804,2.26267
42166786563,1.14973,0.109628,2.26262
42166816606,1.15075,0.109196,2.26263
42166830133,1.15178,0.109166,2.26246
42166846641,1.15136,0.109276,2.26199
42166869025,1.15009,0.109016,2.26244
42166898321,1.14764,0.109275,2.2645
42166906585,1.14615,0.110239,2.26741
42166929099,1.1485,0.110784,2.27071
42166950153,1.15578,0.110574,2.27332
42166966529,1.16647,0.109304,2.27407
42166988997,1.17799,0.109323,2.27278
42167010853,1.18676,0.110619,2.27112
42167025763,1.19299,0.111173,2.26998
42167048339,1.20065,0.112018,2.26912
42167070820,1.20821,0.113835,2.26772
42167085870,1.21437,0.117339,2.266
42167108317,1.21724,0.123373,2.2643
42167130806,1.21798,0.131885,2.26284
42167145816,1.2169,0.142072,2.26114
42167168273,1.2167,0.155413,2.25746
42167190792,1.2154,0.170902,2.25168
42167205835,1.21105,0.189222,2.24445
42167228329,1.20314,0.21068,2.2363
42167250840,1.19421,0.235097,2.2265
42167265831,1.18599,0.262406,2.21453
42167288328,1.17685,0.290613,2.20008
42167312286,1.16435,0.320632,2.18396
42167325763,1.14879,0.353267,2.16608
42167348324,1.13377,0.387439,2.14721
42167370840,1.12098,0.422185,2.12686
42167385884,1.10801,0.458238,2.10454
42167408360,1.09299,0.495372,2.08016
42167430885,1.07594,0.532327,2.05463
42167445836,1.05768,0.569056,2.02873
42167468355,1.03832,0.605625,2.00171
42167490719,1.01653,0.642132,1.97315
42167505884,0.990577,0.678435,1.94364
42167528397,0.962285,0.713419,1.91218
42167550840,0.933165,0.745607,1.87886
42167565830,0.904171,0.774733,1.84393
42167588367,0.873876,0.801517,1.80752
42167610790,0.842497,0.826101,1.76844
42167627190,0.809056,0.849267,1.72718
42167649809,0.772322,0.870318,1.68383
42167670789,0.736245,0.888124,1.64106
42167687320,0.699784,0.90288,1.59835
42167708287,0.663193,0.915988,1.55656
42167730797,0.625411,0.927513,1.5144
42167747295,0.584932,0.939129,1.47061
42167768377,0.544932,0.949058,1.42658
42167790854,0.50908,0.956342,1.38445
42167807248,0.475321,0.961867,1.34426
42167828349,0.443125,0.966918,1.30666
42167850861,0.409018,0.97136,1.27013
42167867310,0.375786,0.975111,1.23651
42167888348,0.344714,0.977775,1.20621
42167910852,0.319854,0.978602,1.18157
42167927233,0.300193,0.979109,1.16041
42167948297,0.281156,0.980213,1.14099
42167970848,0.260938,0.982169,1.12213
42167987267,0.243944,0.984388,1.10663
42168008316,0.231545,0.985336,1.09473
42168030820,0.219415,0.986645,1.08412
42168047218,0.201858,0.988476,1.07119
42168068329,0.179698,0.991009,1.05626
42168090888,0.159136,0.993294,1.04188
42168107212,0.142134,0.995051,1.02985
42168128355,0.126445,0.995695,1.02033
42168150768,0.113243,0.995714,1.01461
42168167264,0.0995665,0.995749,1.00831
42168188403,0.0852527,0.996424,1.00269
42168210864,0.0703355,0.997623,0.996489
42168227243,0.0564559,0.997761,0.989754
42168248311,0.0428027,0.996783,0.983735
42168270803,0.0277414,0.996635,0.97791
42168287308,0.00964066,0.997164,0.971496
42168308383,-0.0124184,0.997236,0.962021
42168330881,-0.0352277,0.997906,0.950812
42168346649,-0.0575846,0.997792,0.940173
42168368423,-0.0796107,0.997871,0.930351
42168390914,-0.100989,0.998102,0.920348
42168406619,-0.122745,0.998231,0.91006
42168428389,-0.145705,0.998538,0.899105
42168450888,-0.171084,0.99826,0.888427
42168466599,-0.196689,0.99674,0.878355
42168488380,-0.220256,0.994832,0.869418
42168510848,-0.241807,0.99325,0.86148
42168526598,-0.263749,0.991153,0.85363
42168549781,-0.285129,0.988449,0.845001
42168570846,-0.302962,0.985256,0.836792
42168586626,-0.319811,0.981796,0.829297
42168609813,-0.336067,0.977858,0.821816
42168630846,-0.352365,0.973809,0.814017
42168646641,-0.368423,0.970153,0.805722
42168669802,-0.383139,0.965803,0.797536
42168690830,-0.394577,0.961299,0.791257
42168706607,-0.403613,0.95719,0.787157
42168729798,-0.411835,0.9531,0.783126
42168750877,-0.419929,0.949763,0.778904
42168766656,-0.426967,0.946907,0.774343
42168789720,-0.431984,0.944799,0.770542
42168810788,-0.434874,0.943582,0.767933
42168826716,-0.436685,0.943599,0.765807
42168849778,-0.438577,0.944431,0.764108
42168870848,-0.440285,0.944872,0.762114
42168886658,-0.441541,0.945267,0.760148
42168909807,-0.440781,0.945315,0.759401
42168930845,-0.438797,0.945149,0.759618
42168946583,-0.434589,0.944871,0.761511
42168969789,-0.429494,0.944053,0.764238
42168990897,-0.423471,0.943774,0.76801
42169006625,-0.415323,0.943397,0.772729
42169029751,-0.405833,0.943789,0.778536
42169050853,-0.395541,0.944972,0.785204
42169066669,-0.384939,0.946723,0.792325
42169089711,-0.373063,0.948909,0.799994
42169110883,-0.359738,0.951398,0.807822
42169126657,-0.345364,0.955328,0.81701
42169149814,-0.331848,0.961211,0.827245
42169170884,-0.320641,0.968351,0.837768
42169186621,-0.309117,0.975829,0.848902
42169217318,-0.291548,0.982322,0.861446
42169230905,-0.269038,0.988553,0.875446
42169254820,-0.240872,0.993795,0.891492
42169269100,-0.213414,0.998564,0.908339
42169290886,-0.185383,1.00177,0.926386
42169306657,-0.157232,1.00333,0.94512
42169329138,-0.129617,1.00412,0.962288
42169350920,-0.100827,1.00478,0.979707
42169366632,-0.0723079,1.00571,0.997069
42169389130,-0.0425759,1.00675,1.01549
42169410866,-0.00653345,1.00668,1.03822
42169426589,0.0329122,1.00626,1.06177
42169449209,0.0735876,1.00725,1.08415
42169472376,0.110724,1.01009,1.1042
42169486631,0.144117,1.01346,1.12399
42169509142,0.1724,1.01622,1.14409
42169532316,0.19839,1.01864,1.16507
42169546634,0.228125,1.02066,1.1915
42169569152,0.262245,1.02185,1.22601
42169592304,0.298327,1.02101,1.26479
42169606697,0.334006,1.01823,1.30321
42169629157,0.372935,1.01331,1.34257
42169652394,0.418698,1.00624,1.3867
42169666638,0.471421,0.996807,1.43765
42169689044,0.525995,0.986019,1.49311
42169712339,0.580415,0.972654,1.54876
42169733417,0.636767,0.956371,1.60463
42169749121,0.693339,0.936889,1.65924
42169772313,0.746459,0.914827,1.7115
42169793372,0.797105,0.890011,1.76046
42169809158,0.846314,0.862672,1.80632
42169832289,0.894507,0.833543,1.85035
42169853381,0.934812,0.804643,1.89259
42169869178,0.967715,0.776609,1.9317
42169892353,0.998244,0.748124,1.96767
42169913293,1.02846,0.716981,2.00093
42169929063,1.05646,0.684806,2.03145
42169952196,1.08246,0.653389,2.05802
42169973277,1.10716,0.623686,2.08286
42169989076,1.12958,0.594549,2.10622
42170012246,1.15016,0.565339,2.12785
42170033286,1.1687,0.536898,2.14701
42170049065,1.18545,0.511586,2.16365
42170072220,1.20256,0.48924,2.17834
42170093312,1.21809,0.470028,2.19029
42170109111,1.23231,0.451996,2.19931
42170132324,1.24548,0.433291,2.20757
42170153449,1.25557,0.413031,2.21651
42170177295,1.25906,0.392801,2.22632
42170192292,1.25645,0.375354,2.23557
42170213369,1.25467,0.359601,2.2429
42170229184,1.25763,0.344433,2.24883
42170251650,1.26298,0.330215,2.25359
42170273386,1.26852,0.317045,2.257
42170289176,1.27352,0.304585,2.26093
42170311649,1.27647,0.293684,2.26566
42170333305,1.27549,0.285488,2.27057
42170349119,1.27315,0.279654,2.27442
42170371650,1.27401,0.274093,2.27676
42170393347,1.27926,0.268817,2.27804
42170409178,1.2839,0.263494,2.27924
42170431603,1.28379,0.258478,2.28016
42170454804,1.28258,0.2537,2.28116
42170469104,1.28229,0.248636,2.28221
42170491597,1.28452,0.243869,2.28367
42170514870,1.28757,0.239874,2.28459
42170529133,1.29197,0.23623,2.28539
42170551686,1.29766,0.232019,2.28602
42170574848,1.30427,0.227778,2.28731
42170589154,1.30888,0.223459,2.289
42170611703,1.30984,0.219157,2.29031
42170634838,1.3072,0.215839,2.29111
42170649169,1.3023,0.214494,2.29169
42170671626,1.29315,0.215088,2.29159
42170702279,1.28386,0.216641,2.2905
42170715861,1.2806,0.21755,2.28884
42170731663,1.28048,0.217623,2.28694
42170754853,1.27863,0.217003,2.28633
42170775898,1.27457,0.216502,2.28656
42170791675,1.26867,0.216723,2.28698
42170814828,1.26236,0.216546,2.28674
42170829248,1.25724,0.21564,2.28628
42170851377,1.25412,0.215155,2.28566
42170865270,1.25113,0.215537,2.28462
42170888453,1.24786,0.21636,2.28382
42170910928,1.24691,0.217095,2.28368
42170925291,1.24651,0.218085,2.28382
42170948555,1.24725,0.218321,2.28404
42170979066,1.24833,0.217553,2.2852
42170985259,1.24825,0.217145,2.28698
42171008400,1.24824,0.216902,2.28812
42171030848,1.24818,0.216261,2.28874
42171045258,1.24897,0.215129,2.28952
42171068409,1.24888,0.21401,2.29033
42171090940,1.24732,0.212424,2.2907
42171105187,1.2452,0.210726,2.29089
42171128460,1.24318,0.209026,2.29134
42171150933,1.24349,0.208024,2.29249
42171165234,1.24376,0.207908,2.29306
42171188426,1.24443,0.207614,2.29343
42171210884,1.24452,0.207113,2.29398
42171225209,1.24578,0.206644,2.29464
42171248386,1.24842,0.206048,2.29528
42171270848,1.2491,0.20574,2.29508
42171285215,1.2481,0.206253,2.29476
42171307769,1.24751,0.206706,2.29443
42171330871,1.25105,0.206523,2.29337
42171345202,1.25944,0.205941,2.29022
42171367762,1.26753,0.205745,2.28422
42171390929,1.2705,0.20678,2.27614
42171405257,1.26631,0.210479,2.26792
42171427729,1.25284,0.215785,2.25782
42171450923,1.23424,0.219239,2.24476
42171465182,1.2111,0.220957,2.22908
42171487701,1.18524,0.224434,2.21155
42171510799,1.15429,0.229674,2.19179
42171525238,1.12257,0.23335,2.1678
42171547743,1.09408,0.234028,2.1417
42171570891,1.06965,0.233404,2.11611
42171585220,1.04095,0.232144,2.08955
42171607761,1.00279,0.227141,2.06043
42171630867,0.959182,0.213708,2.0301
42171645247,0.919483,0.199737,2.00108
42171667807,0.88359,0.185207,1.97281
42171690848,0.845648,0.169741,1.94429
42171705275,0.807773,0.150118,1.9146
42171727819,0.774594,0.128491,1.88566
42171750946,0.745571,0.108792,1.85935
42171765228,0.713571,0.090131,1.83682
42171787812,0.675007,0.0706931,1.81633
42171810908,0.637157,0.049963,1.79608
42171825257,0.611229,0.0292292,1.77551
42171847770,0.60156,0.00918741,1.75703
42171870960,0.595936,-0.0104815,1.74131
42171885239,0.584971,-0.0292071,1.72551
42171907753,0.573889,-0.0454298,1.70968
42171930893,0.569212,-0.0576038,1.69561
42171945256,0.565113,-0.0655326,1.68341
42171967820,0.556277,-0.0701967,1.67219
42171990964,0.548018,-0.073977,1.66095
42172005263,0.545101,-0.0779739,1.65084
42172027751,0.539981,-0.0827854,1.64326
42172050977,0.530368,-0.0878496,1.63794
42172065221,0.520103,-0.0927645,1.63433
42172087807,0.513844,-0.0971365,1.63154
42172110855,0.509779,-0.100557,1.62967
42172125289,0.506828,-0.102743,1.62855
42172147796,0.505706,-0.103932,1.62917
42172172371,0.50644,-0.103737,1.63069
42172185292,0.506767,-0.103106,1.63164
42172207762,0.505094,-0.103266,1.63159
42172230959,0.501455,-0.103648,1.63052
42172245282,0.498493,-0.103722,1.62927
42172267709,0.497033,-0.103107,1.62814
42172290979,0.49529,-0.1024,1.62698
42172305239,0.492328,-0.101644,1.62592
42172327669,0.487857,-0.100682,1.62459
42172350309,0.482004,-0.0996093,1.62226
42172368159,0.476971,-0.0995599,1.61918
42172387784,0.473351,-0.100396,1.6166
42172410311,0.469688,-0.102031,1.61427
42172425313,0.466337,-0.103751,1.61198
42172447716,0.462854,-0.105257,1.60974
42172470182,0.458148,-0.106645,1.60803
42172485272,0.45216,-0.108409,1.60641
42172507747,0.447348,-0.110708,1.60511
42172530233,0.445112,-0.112613,1.60365
42172545310,0.445089,-0.114132,1.60212
42172567755,0.443561,-0.115062,1.60095
42172590195,0.442002,-0.115769,1.60038
42172605292,0.44192,-0.115813,1.60017
42172627774,0.442463,-0.115911,1.59971
42172650299,0.44243,-0.115995,1.59896
42172665371,0.441677,-0.116047,1.59809
42172687719,0.441258,-0.116199,1.59763
42172710232,0.44127,-0.11633,1.59742
42172725169,0.441571,-0.116514,1.59708
42172747824,0.441501,-0.117174,1.59641
42172770262,0.440287,-0.117947,1.59607
42172785294,0.438789,-0.11846,1.59573
42172807716,0.438379,-0.118952,1.59522
42172830320,0.438854,-0.119494,1.59484
42172845279,0.437711,-0.1202,1.59454
42172867762,0.436128,-0.120483,1.5944
42172890305,0.43562,-0.12072,1.59392
42172905240,0.436648,-0.121213,1.59328
42172927710,0.436417,-0.121479,1.59248
42172950220,0.433431,-0.121822,1.59192
42172965276,0.430916,-0.122054,1.59128
42172987772,0.42991,-0.122811,1.58992
42173010325,0.428235,-0.123684,1.58842
42173025274,0.423752,-0.124676,1.587
42173047797,0.417556,-0.125362,1.58539
42173070282,0.413417,-0.126515,1.58369
42173086699,0.412224,-0.127988,1.58203
42173107755,0.410978,-0.129413,1.58092
42173130336,0.409543,-0.130349,1.58003
42173146712,0.409319,-0.13115,1.57917
42173167739,0.410089,-0.131749,1.57865
42173190293,0.409485,-0.131946,1.57835
42173206690,0.408612,-0.132077,1.57821
42173227815,0.409596,-0.132168,1.57816
42173250318,0.411537,-0.13219,1.57808
42173266752,0.411721,-0.132193,1.5781
42173287801,0.411168,-0.132184,1.57803
42173310334,0.411436,-0.131933,1.5781
42173326676,0.413208,-0.131771,1.57803
42173347848,0.413303,-0.131857,1.57803
42173370285,0.413208,-0.131771,1.57803
42173386757,0.414698,-0.131784,1.57842
42173407819,0.418649,-0.132025,1.57879
42173431725,0.425005,-0.132424,1.57933
42173446668,0.432126,-0.132251,1.57993
42173467743,0.437729,-0.131863,1.58088
42173490240,0.441366,-0.131529,1.58225
42173512805,0.445966,-0.131347,1.58376
42173527786,0.454371,-0.131547,1.58533
42173550294,0.467149,-0.132029,1.5873
42173566750,0.481654,-0.132443,1.59007
42173587793,0.495628,-0.132674,1.59343
42173610339,0.508171,-0.132767,1.59684
42173626725,0.519155,-0.132445,1.6001
42173647873,0.529735,-0.13158,1.60292
42173670214,0.54079,-0.130841,1.60571
42173686774,0.550873,-0.129986,1.60839
42173707748,0.558664,-0.128899,1.61047
42173730317,0.564533,-0.128047,1.6117
42173746757,0.567743,-0.127478,1.61242
42173767785,0.568434,-0.126759,1.61294
42173790257,0.567952,-0.126316,1.61367
42173806767,0.568461,-0.125924,1.61408
42173827827,0.570798,-0.125767,1.6145
42173850309,0.573651,-0.125643,1.61487
42173866690,0.576494,-0.125403,1.61546
42173887771,0.579002,-0.125494,1.61607
42173910335,0.581401,-0.125636,1.61646
42173926732,0.582754,-0.125687,1.61679
42173947787,0.582948,-0.125694,1.61683
42173970309,0.581773,-0.12575,1.61689
42173986756,0.580425,-0.125866,1.61653
42174007805,0.579165,-0.126206,1.61595
42174030342,0.576146,-0.126251,1.61536
42174046793,0.569165,-0.126559,1.6143
42174069245,0.562283,-0.126464,1.61339
42174090302,0.558554,-0.126546,1.61229
42174106779,0.557806,-0.126685,1.61132
42174129184,0.557404,-0.126355,1.61055
42174150291,0.554139,-0.126183,1.60944
42174166736,0.548173,-0.126083,1.60825
42174189264,0.542124,-0.126073,1.60705
42174210343,0.537775,-0.125446,1.6047
42174226808,0.529748,-0.124699,1.60102
42174249235,0.516172,-0.123751,1.59699
42174270230,0.4993,-0.122954,1.59235
42174286790,0.477097,-0.121726,1.58641
42174309242,0.453515,-0.1203,1.58056
42174330296,0.434511,-0.119531,1.57459
42174346724,0.422408,-0.120507,1.56891
42174369238,0.413564,-0.121936,1.56359
42174390307,0.404941,-0.1235,1.55908
42174406777,0.395783,-0.125402,1.55522
42174429245,0.387287,-0.12808,1.55106
42174450307,0.381319,-0.131504,1.54703
42174466688,0.377624,-0.135369,1.54326
42174489257,0.374263,-0.138801,1.53998
42174510262,0.370523,-0.141938,1.53689
42174526658,0.369211,-0.145016,1.53445
42174549285,0.369765,-0.147706,1.53279
42174570359,0.368685,-0.14963,1.53175
42174586731,0.368028,-0.151103,1.53063
42174609202,0.369896,-0.152552,1.52996
42174630320,0.372419,-0.153351,1.52961
42174646782,0.372518,-0.153233,1.52946
42174669289,0.371292,-0.153042,1.52935
42174691033,0.372006,-0.152992,1.52908
42174705978,0.373319,-0.152894,1.52906
42174728497,0.37252,-0.152476,1.5292
42174751028,0.370585,-0.15228,1.52902
42174765956,0.369668,-0.152611,1.52836
42174788461,0.369837,-0.153114,1.52779
42174811025,0.368394,-0.15344,1.52708
42174826001,0.365294,-0.153713,1.52656
42174848527,0.364329,-0.154445,1.52568
42174871006,0.365295,-0.155217,1.52517
42174885963,0.365053,-0.155797,1.5249
42174908451,0.363472,-0.156189,1.52505
42174930923,0.363386,-0.156276,1.52504
42174946011,0.364219,-0.156652,1.52473
42174968420,0.364111,-0.157074,1.52415
42174991052,0.362836,-0.157489,1.52398
42175005968,0.362132,-0.157635,1.52372
42175028475,0.36217,-0.157745,1.52336
42175050967,0.362919,-0.158207,1.52303
42175065984,0.363016,-0.158292,1.52303
42175088513,0.362919,-0.158207,1.52303
42175110981,0.363726,-0.158092,1.52295
42175125952,0.364989,-0.158386,1.52269
42175148575,0.364989,-0.158386,1.52269
42175171026,0.364655,-0.158755,1.52279
42175187434,0.364634,-0.158763,1.52279
42175208557,0.365651,-0.159137,1.5225
42175230997,0.366632,-0.159199,1.52241
42175247438,0.366729,-0.159284,1.52241
42175268568,0.366729,-0.159284,1.52241
42175291027,0.366632,-0.159199,1.52241
42175307418,0.367295,-0.158867,1.52252
42175328536,0.368162,-0.158728,1.52279
42175350979,0.368638,-0.158452,1.52322
42175367451,0.368706,-0.158249,1.5236
42175388413,0.369026,-0.157912,1.52367
42175410706,0.369883,-0.157954,1.52392
42175427411,0.370748,-0.158019,1.52435
42175448517,0.370923,-0.157994,1.5242
42175470984,0.370113,-0.157758,1.52432
42175487344,0.369502,-0.157637,1.5241
42175508427,0.369588,-0.157551,1.52411
42175530936,0.369588,-0.157551,1.52411
42175547375,0.369588,-0.157551,1.52411
42175568413,0.369259,-0.157865,1.52387
42175590950,0.368694,-0.158078,1.52362
42175607380,0.368624,-0.158484,1.52339
42175628446,0.368908,-0.158716,1.52322
42175650981,0.369629,-0.15889,1.52327
42175667357,0.369714,-0.158803,1.52329
42175695958,0.369714,-0.158803,1.52329
42175710955,0.370475,-0.158557,1.52339
42175727454,0.371931,-0.157994,1.52378
42175748455,0.372689,-0.1576,1.52408
42175770929,0.372909,-0.15703,1.52434
42175787390,0.372909,-0.15703,1.52434
42175808434,0.373047,-0.156695,1.52439
42175830869,0.373916,-0.156354,1.52452
42175847379,0.374517,-0.156101,1.52461
42175868496,0.37379,-0.155982,1.5249
42175890956,0.372638,-0.156091,1.52494
42175906744,0.371868,-0.156313,1.52466
42175929868,0.372001,-0.156709,1.52446
42175950942,0.372099,-0.156794,1.52446
42175966673,0.371473,-0.156908,1.52455
42175989897,0.370698,-0.157185,1.52462
42176010990,0.370591,-0.15728,1.5246
42176026710,0.370948,-0.157254,1.52446
42176048491,0.371768,-0.15731,1.52436
42176070966,0.371768,-0.15731,1.52436
42176086707,0.371768,-0.15731,1.52436
42176109850,0.372221,-0.157573,1.52438
42176130896,0.373375,-0.157815,1.5243
42176146757,0.373889,-0.157851,1.52452
42176169885,0.374314,-0.157826,1.52492
42176190941,0.375249,-0.15776,1.52502
42176206699,0.375939,-0.157569,1.52494
42176229846,0.375939,-0.157569,1.52494
42176250944,0.375853,-0.157655,1.52492
42176266712,0.376377,-0.157512,1.52517
42176289931,0.377334,-0.157438,1.52527
42176310947,0.377334,-0.157438,1.52527
42176326751,0.377334,-0.157438,1.52527
42176349874,0.377675,-0.157296,1.5255
42176370964,0.378352,-0.157138,1.52559
42176386715,0.379051,-0.156971,1.52569
42176409866,0.378856,-0.156801,1.52569
42176430916,0.37781,-0.156814,1.52575
42176446735,0.376731,-0.156664,1.52583
42176469908,0.377159,-0.156788,1.52603
42176490902,0.378708,-0.156642,1.52621
42176506721,0.379402,-0.156531,1.52665
42176530360,0.378838,-0.156216,1.5268
42176550971,0.378741,-0.156131,1.5268
42176566747,0.379674,-0.155919,1.5271
42176589894,0.381416,-0.155797,1.52748
42176610931,0.382694,-0.155592,1.52782
42176626741,0.382768,-0.155335,1.52786
42176649970,0.382671,-0.15525,1.52786
42176670994,0.383371,-0.155084,1.52795
42176686730,0.384305,-0.154874,1.52826
42176709884,0.385228,-0.154492,1.52858
42176730968,0.385718,-0.154043,1.52904
42176746721,0.385718,-0.154043,1.52904
42176769849,0.385101,-0.153975,1.52916
42176790968,0.385004,-0.15389,1.52916
42176806782,0.385769,-0.153999,1.52923
42176829898,0.38649,-0.154029,1.52948
42176850961,0.386651,-0.154037,1.5295
42176866716,0.38621,-0.15374,1.52931
42176889246,0.385411,-0.153673,1.5294
42176910954,0.385386,-0.153535,1.52959
42176933467,0.386678,-0.153505,1.52992
42176949198,0.387885,-0.153357,1.53007
42176970914,0.388068,-0.153356,1.53009
42176986707,0.38743,-0.153297,1.5302
42177009193,0.38743,-0.153297,1.5302
42177038491,0.388216,-0.153046,1.53033
42177046778,0.389251,-0.152719,1.53048
42177069330,0.389251,-0.152719,1.53048
42177092405,0.388451,-0.152651,1.53058
42177106717,0.388364,-0.152737,1.53056
42177129289,0.388817,-0.152649,1.53062
42177152454,0.388817,-0.152649,1.53062
42177166813,0.388817,-0.152649,1.53062
42177189355,0.388817,-0.152649,1.53062
42177212496,0.389337,-0.152633,1.5305
42177226766,0.389337,-0.152633,1.5305
42177249311,0.389337,-0.152633,1.5305
42177272416,0.389251,-0.152719,1.53048
42177286775,0.390417,-0.152989,1.53058
42177316024,0.390514,-0.153074,1.53058
42177332450,0.389704,-0.152983,1.5305
42177346766,0.389607,-0.152898,1.5305
42177369331,0.390306,-0.153494,1.53086
42177392497,0.391375,-0.153679,1.53096
42177406763,0.391461,-0.153594,1.53098
42177429279,0.391461,-0.153594,1.53098
42177452519,0.392249,-0.153695,1.53106
42177466848,0.392335,-0.153609,1.53108
42177489301,0.391255,-0.153253,1.531
42177512506,0.391255,-0.153253,1.531
42177533527,0.391685,-0.15338,1.53121
42177549263,0.392288,-0.153131,1.53131
42177572434,0.392721,-0.152497,1.53126
42177593594,0.393229,-0.151958,1.53122
42177609341,0.393326,-0.152043,1.53122
42177639970,0.392291,-0.15237,1.53105
42177653504,0.392193,-0.152285,1.53105
42177669328,0.393168,-0.151977,1.53086
42177692492,0.394288,-0.151769,1.53119
42177713579,0.394463,-0.151745,1.53104
42177729296,0.393574,-0.151615,1.5313
42177752503,0.393476,-0.15153,1.5313
42177773574,0.394265,-0.151632,1.53138
42177789352,0.395139,-0.151648,1.53148
42177811816,0.395225,-0.151563,1.5315
42177833523,0.394867,-0.151588,1.53163
42177857511,0.394338,-0.15158,1.53157
42177871847,0.394338,-0.15158,1.53157
42177893596,0.395029,-0.151597,1.53165
42177909350,0.39589,-0.151501,1.53212
42177931843,0.397086,-0.15139,1.53245
42177953574,0.39727,-0.151389,1.53247
42177969337,0.395757,-0.151108,1.53233
42177991865,0.394883,-0.151092,1.53223
42178015010,0.395952,-0.151278,1.53233
42178029290,0.397173,-0.151304,1.53247
42178051886,0.397874,-0.151346,1.53272
42178075024,0.397418,-0.151286,1.53285
42178089357,0.396693,-0.151108,1.53279
42178111836,0.396767,-0.151056,1.53298
42178134970,0.397533,-0.151023,1.53325
42178149719,0.398666,-0.150988,1.53357
42178171821,0.398763,-0.151073,1.53357
42178195020,0.398763,-0.151073,1.53357
42178209387,0.398763,-0.151073,1.53357
42178231834,0.398666,-0.150988,1.53357
42178254962,0.399271,-0.151092,1.53363
42178269341,0.400231,-0.15123,1.5339
42178291815,0.400329,-0.151315,1.53391
42178315006,0.400047,-0.15123,1.53388
42178329823,0.399961,-0.151316,1.53386
42178351878,0.400296,-0.151154,1.53392
42178374952,0.400997,-0.151197,1.53418
42178389301,0.400997,-0.151197,1.53418
42178411859,0.400997,-0.151197,1.53418
42178435050,0.400997,-0.151197,1.53418
42178449338,0.400997,-0.151197,1.53418
42178472329,0.401343,-0.151207,1.53422
42178494957,0.401441,-0.151292,1.53422
42178516018,0.401441,-0.151292,1.53422
42178531752,0.401441,-0.151292,1.53422
42178545401,0.401441,-0.151292,1.53422
42178567918,0.401343,-0.151207,1.53422
42178591095,0.401441,-0.151292,1.53422
42178605383,0.400488,-0.151383,1.53427
42178627920,0.399578,-0.151409,1.53433
42178651092,0.399578,-0.151409,1.53433
42178665414,0.400205,-0.151503,1.53439
42178687968,0.400205,-0.151503,1.53439
42178711057,0.400183,-0.151514,1.53439
42178725493,0.400019,-0.151709,1.53452
42178747975,0.399315,-0.151724,1.53461
42178771162,0.399315,-0.151724,1.53461
42178785442,0.399822,-0.151597,1.53486
42178807996,0.400567,-0.151018,1.53503
42178831136,0.40152,-0.150224,1.53508
42178845397,0.402399,-0.149481,1.53493
42178867908,0.404285,-0.150057,1.53473
42178891020,0.405468,-0.150795,1.53443
42178905381,0.403443,-0.151048,1.53432
42178927928,0.402111,-0.150618,1.53439
42178951032,0.40368,-0.150099,1.53448
42178965495,0.40526,-0.149956,1.53469
42178987944,0.404533,-0.149982,1.53478
42179011027,0.404543,-0.150006,1.53495
42179025496,0.405657,-0.150131,1.53507
42179047920,0.406794,-0.149894,1.53525
42179071110,0.407313,-0.149733,1.53533
42179085461,0.407291,-0.149744,1.53533
42179107904,0.407993,-0.149642,1.53578
42179131133,0.409192,-0.14939,1.53632
42179145416,0.410263,-0.148689,1.53674
42179167878,0.411789,-0.148109,1.53737
42179191035,0.413651,-0.14737,1.53807
42179205469,0.416146,-0.146669,1.53849
42179227911,0.418295,-0.145813,1.53908
42179251130,0.419283,-0.145056,1.53968
42179265504,0.420391,-0.144374,1.54028
42179287941,0.422879,-0.143715,1.54089
42179311037,0.426314,-0.143072,1.542
42179325486,0.42876,-0.142566,1.54331
42179347961,0.430112,-0.141854,1.54414
42179371058,0.430343,-0.141296,1.54444
42179385490,0.43043,-0.141211,1.54446
42179407941,0.430985,-0.141093,1.5451
42179431130,0.431899,-0.141014,1.54595
42179445414,0.43398,-0.14078,1.54647
42179467897,0.435441,-0.140617,1.54689
42179491059,0.435233,-0.140754,1.54755
42179505458,0.435711,-0.140956,1.54847
42179527949,0.437934,-0.140959,1.54916
42179551097,0.440653,-0.140687,1.54997
42179565480,0.443496,-0.140105,1.55085
42179587938,0.445315,-0.139354,1.55214
42179611066,0.446847,-0.13827,1.55399
42179625474,0.449623,-0.136614,1.55559
42179648002,0.453475,-0.134935,1.55702
42179671071,0.457102,-0.133253,1.55808
42179685473,0.458761,-0.131815,1.55949
42179707916,0.459096,-0.130409,1.56069
42179731109,0.459806,-0.129463,1.56151
42179745449,0.461108,-0.129136,1.56197
42179767887,0.462065,-0.12917,1.56248
42179791090,0.461933,-0.129347,1.56279
42179805442,0.461655,-0.12939,1.56345
42179827967,0.463464,-0.129661,1.56408
42179851132,0.467767,-0.129279,1.56489
42179865562,0.471415,-0.129085,1.56611
42179887902,0.474317,-0.128852,1.56793
42179910444,0.477115,-0.128059,1.57002
42179925453,0.482709,-0.127076,1.5725
42179947953,0.49278,-0.126106,1.57549
42179970452,0.501995,-0.124515,1.57906
42179985437,0.51111,-0.122037,1.58286
42180007953,0.523658,-0.12062,1.5869
42180030498,0.541153,-0.119123,1.59092
42180045474,0.556626,-0.114693,1.59349
42180067973,0.565365,-0.10736,1.59622
42180090483,0.576117,-0.0997125,1.601
42180105460,0.591853,-0.0937633,1.60689
42180136074,0.612751,-0.0908662,1.61448
42180150505,0.635605,-0.0877391,1.62615
42180165362,0.65389,-0.0813244,1.64227
42180187956,0.666853,-0.071786,1.66307
42180210464,0.67785,-0.0609364,1.68572
42180225478,0.693825,-0.0514559,1.70866
42180247929,0.712581,-0.0444681,1.73233
42180270442,0.729349,-0.0386491,1.75555
42180285469,0.743127,-0.0354369,1.77858
42180307925,0.756668,-0.0338932,1.80197
42180330430,0.772716,-0.0328316,1.8244
42180345480,0.790367,-0.0320205,1.84428
42180369423,0.805546,-0.0297431,1.85985
42180390457,0.819702,-0.027838,1.87268
42180405447,0.832771,-0.0267718,1.88384
42180427947,0.840471,-0.0263394,1.89329
42180450510,0.838963,-0.0259812,1.90057
42180465487,0.83529,-0.0256995,1.90564
42180487956,0.835608,-0.0255483,1.91032
42180510431,0.837929,-0.0264479,1.91609
42180525460,0.840212,-0.0290648,1.92419
42180547918,0.844469,-0.0329857,1.93462
42180570562,0.850596,-0.0380579,1.94776
42180585433,0.854995,-0.0428552,1.963
42180608011,0.857891,-0.0471329,1.97984
42180630448,0.865229,-0.0516526,1.99801
42180648362,0.87705,-0.0565496,2.0164
42180667934,0.886569,-0.0606907,2.0337
42180693416,0.889182,-0.0627702,2.05034
42180706880,0.891062,-0.065102,2.06708
42180727984,0.900924,-0.069072,2.08448
42180750460,0.915481,-0.075065,2.10089
42180766944,0.921922,-0.0809566,2.11569
42180787995,0.917933,-0.086031,2.13042
42180810497,0.913024,-0.0913923,2.14448
42180826861,0.913921,-0.0981735,2.15717
42180847923,0.917762,-0.10665,2.16871
42180870438,0.919798,-0.115356,2.1794
42180886872,0.921917,-0.124166,2.18939
42180907911,0.924411,-0.132117,2.1979
42180930472,0.925806,-0.13846,2.20516
42180946915,0.924978,-0.141364,2.21211
42180969469,0.924538,-0.142745,2.21953
42180990436,0.929548,-0.144023,2.22689
42181006887,0.935213,-0.143542,2.23234
42181027971,0.935641,-0.140801,2.23612
42181050466,0.935365,-0.137434,2.23918
42181066915,0.938151,-0.135841,2.24109
42181087960,0.941915,-0.136274,2.24236
42181110440,0.943743,-0.137552,2.24286
42181126911,0.941831,-0.137636,2.24187
42181148002,0.938631,-0.137035,2.2395
42181170590,0.939296,-0.137471,2.2372
42181186902,0.944037,-0.140074,2.23485
42181207997,0.947326,-0.14254,2.23087
42181230482,0.945787,-0.143573,2.22511
42181246928,0.942966,-0.143681,2.21907
42181267937,0.942966,-0.143858,2.2133
42181290444,0.941534,-0.144262,2.20848
42181306890,0.93806,-0.144981,2.20487
42181327984,0.935805,-0.146359,2.20257
42181350498,0.935813,-0.148854,2.20157
42181366917,0.936266,-0.15125,2.20179
42181387991,0.936636,-0.153113,2.20277
42181410477,0.937115,-0.154541,2.20461
42181426939,0.937173,-0.155232,2.20644
42181447985,0.93708,-0.15644,2.20822
42181470480,0.936982,-0.157791,2.20931
42181486853,0.935937,-0.159442,2.20979
42181508038,0.935166,-0.16081,2.20925
42181530480,0.934516,-0.161763,2.20862
42181546918,0.933718,-0.162179,2.20803
42181567977,0.933267,-0.162817,2.20728
42181590466,0.931906,-0.16309,2.20683
42181608361,0.930711,-0.163217,2.20656
42181629358,0.930578,-0.163263,2.20651
42181650410,0.930538,-0.16314,2.20687
42181666927,0.929922,-0.162997,2.20762
42181689471,0.928925,-0.163786,2.2083
42181710445,0.928579,-0.164965,2.20947
42181726889,0.928779,-0.166334,2.21057
42181749472,0.929529,-0.167904,2.21134
42181770388,0.930459,-0.169419,2.21181
42181786883,0.931239,-0.171237,2.21248
42181809462,0.931127,-0.172855,2.21314
42181830464,0.931037,-0.174642,2.2135
42181846926,0.931803,-0.176091,2.21402
42181869451,0.932919,-0.176923,2.21422
42181890503,0.933399,-0.177172,2.21456
42181906837,0.933803,-0.176903,2.21473
42181929486,0.933805,-0.176343,2.21522
42181950460,0.932608,-0.175478,2.2155
42181966843,0.931626,-0.174669,2.21581
42181989351,0.930977,-0.173714,2.2158
42182010526,0.931039,-0.172736,2.21547
42182026910,0.930916,-0.171949,2.215
42182049401,0.929705,-0.171488,2.21483
42182070470,0.92831,-0.171286,2.21499
42182086927,0.928006,-0.171465,2.21544
42182115507,0.927958,-0.171263,2.2156
42182130476,0.928415,-0.170848,2.21585
42182146931,0.928747,-0.170557,2.21623
42182169456,0.928394,-0.17004,2.21644
42182190514,0.927716,-0.169254,2.21675
42182206886,0.927422,-0.168176,2.21683
42182229407,0.927222,-0.167076,2.21663
42182250475,0.926867,-0.165359,2.21627
42182266939,0.926514,-0.163642,2.21592
42182289456,0.925828,-0.162273,2.21632
42182310450,0.924847,-0.160947,2.21718
42182326860,0.92434,-0.159791,2.21818
42182349423,0.923765,-0.158611,2.21941
42182371520,0.922943,-0.1579,2.22042
42182386135,0.922996,-0.15753,2.22101
42182408614,0.923913,-0.157341,2.2212
42182431106,0.923063,-0.157753,2.22123
42182446139,0.921462,-0.157917,2.22131
42182468632,0.920628,-0.157992,2.22133
42182491133,0.920726,-0.157837,2.22105
42182506139,0.921544,-0.157818,2.22083
42182528640,0.92237,-0.157875,2.22081
42182551158,0.923314,-0.157508,2.22095
42182566130,0.924066,-0.157532,2.22141
42182588628,0.924952,-0.157512,2.22192
42182611167,0.925969,-0.157662,2.22225
42182626159,0.92633,-0.157618,2.22253
42182648664,0.92527,-0.157043,2.22288
42182671190,0.924748,-0.15658,2.22339
42182686161,0.924748,-0.15658,2.22339
42182708702,0.924035,-0.156746,2.22302
42182731167,0.923956,-0.157093,2.22204
42182747614,0.924001,-0.158025,2.22108
42182768620,0.92301,-0.159547,2.22071
42182791189,0.922076,-0.161206,2.22064
42182807653,0.922758,-0.163069,2.22064
42182828695,0.924596,-0.165329,2.22097
42182851228,0.926141,-0.167635,2.22175
42182867622,0.925805,-0.170103,2.22301
42182888659,0.92514,-0.172996,2.22523
42182911146,0.925024,-0.176375,2.22735
42182927569,0.926147,-0.179989,2.22886
42182948627,0.928171,-0.183895,2.23013
42182971149,0.928954,-0.186725,2.23094
42182987599,0.928077,-0.187527,2.2308
42183008577,0.926267,-0.187219,2.2304
42183038675,0.926751,-0.187907,2.22864
42183047567,0.93026,-0.188591,2.22682
