timestamp,x,y,z,w
41810011222,-0.503723,-0.427246,-0.484375,0.57373
41810033953,-0.503723,-0.427246,-0.484375,0.57373
41810048922,-0.503723,-0.427246,-0.484375,0.57373
41810072581,-0.503723,-0.427246,-0.484375,0.573669
41810093965,-0.503723,-0.427307,-0.484375,0.573669
41810108997,-0.503723,-0.427307,-0.484375,0.573669
41810132654,-0.503784,-0.427307,-0.484375,0.573669
41810163221,-0.503723,-0.427307,-0.484375,0.573608
41810172570,-0.503723,-0.427307,-0.484375,0.573669
41810193253,-0.503784,-0.427307,-0.484375,0.573608
41810214858,-0.503784,-0.427368,-0.484375,0.573608
41810237762,-0.503723,-0.427368,-0.484375,0.573608
41810252664,-0.503784,-0.427368,-0.484375,0.573608
41810282059,-0.503784,-0.427429,-0.484375,0.573547
41810292377,-0.503784,-0.427429,-0.484375,0.573547
41810312071,-0.503784,-0.427429,-0.484375,0.573547
41810334573,-0.503784,-0.427429,-0.484375,0.573547
41810350290,-0.503784,-0.427429,-0.484375,0.573547
41810372022,-0.503784,-0.427429,-0.484375,0.573547
41810394437,-0.503784,-0.427429,-0.484375,0.573547
41810409622,-0.503784,-0.42749,-0.484375,0.573486
41810431937,-0.503784,-0.42749,-0.484375,0.573486
41810454455,-0.503784,-0.42749,-0.484375,0.573486
41810469386,-0.503784,-0.42749,-0.484375,0.573486
41810493363,-0.503784,-0.427551,-0.484375,0.573425
41810514424,-0.503784,-0.427551,-0.484375,0.573425
41810529423,-0.503784,-0.427551,-0.484375,0.573425
41810551932,-0.503784,-0.427551,-0.484375,0.573425
41810574405,-0.503784,-0.427551,-0.484375,0.573425
41810589401,-0.503784,-0.427551,-0.484375,0.573425
41810611940,-0.503662,-0.427795,-0.484436,0.573303
41810634443,-0.503479,-0.427979,-0.484558,0.573242
41810648745,-0.503357,-0.428162,-0.484741,0.573059
41810671910,-0.503357,-0.428223,-0.484802,0.572998
41810694586,-0.503296,-0.428223,-0.485046,0.572815
41810725112,-0.503235,-0.428162,-0.485229,0.572693
41810731881,-0.503296,-0.428101,-0.485535,0.57251
41810754949,-0.503357,-0.427795,-0.485901,0.572327
41810770303,-0.503357,-0.427795,-0.486206,0.572083
41810793526,-0.503235,-0.427917,-0.486511,0.571838
41810814717,-0.503052,-0.427917,-0.486755,0.571716
41810828837,-0.502808,-0.428162,-0.486938,0.571655
41810853384,-0.502502,-0.428467,-0.487183,0.571533
41810874436,-0.502258,-0.428589,-0.487549,0.571289
41810888871,-0.502075,-0.428833,-0.487915,0.570984
41810911932,-0.501709,-0.429199,-0.48822,0.570801
41810934555,-0.501343,-0.429749,-0.488403,0.570496
41810948949,-0.500977,-0.430359,-0.488647,0.57019
41810971885,-0.500671,-0.430847,-0.488892,0.569824
41810994484,-0.500305,-0.431519,-0.489075,0.569458
41811008792,-0.5,-0.432007,-0.489502,0.569031
41811039536,-0.499756,-0.432434,-0.489868,0.568604
41811054397,-0.499512,-0.433044,-0.490295,0.567993
41811068772,-0.499573,-0.433167,-0.490967,0.5672
41811091915,-0.499878,-0.432922,-0.49176,0.566467
41811114424,-0.500183,-0.432739,-0.492554,0.565735
41811128775,-0.500366,-0.432251,-0.493347,0.565186
41811151855,-0.500488,-0.431763,-0.493774,0.565125
41811175875,-0.500183,-0.432129,-0.494019,0.56488
41811188759,-0.501953,-0.43042,-0.495056,0.563721
41811211988,-0.504456,-0.42688,-0.498413,0.561157
41811234408,-0.506348,-0.423218,-0.501709,0.559387
41811256853,-0.506104,-0.421021,-0.50415,0.559021
41811271448,-0.504944,-0.419861,-0.505676,0.559509
41811293935,-0.503906,-0.418884,-0.507141,0.559875
41811308725,-0.503113,-0.417603,-0.509033,0.559814
41811331429,-0.502747,-0.415894,-0.510681,0.559937
41811353953,-0.502258,-0.414429,-0.512634,0.559631
41811368963,-0.502441,-0.412842,-0.514343,0.559143
41811391292,-0.503113,-0.410828,-0.515991,0.558472
41811413817,-0.504395,-0.408936,-0.517944,0.556885
41811436928,-0.50592,-0.406616,-0.519836,0.55542
41811451279,-0.507324,-0.404175,-0.521973,0.553955
41811475260,-0.509277,-0.401611,-0.52478,0.551392
41811488789,-0.512817,-0.397644,-0.529907,0.546021
41811511251,-0.518127,-0.391235,-0.538025,0.537659
41811533750,-0.526306,-0.38031,-0.548096,0.527283
41811548769,-0.5354,-0.367676,-0.558533,0.515991
41811572701,-0.543396,-0.356201,-0.567566,0.505737
41811593746,-0.550171,-0.345398,-0.573792,0.498901
41811608754,-0.55542,-0.337524,-0.576843,0.494873
41811631340,-0.559448,-0.333313,-0.576172,0.493896
41811653893,-0.559448,-0.335205,-0.574219,0.494995
41811668932,-0.559387,-0.33667,-0.572205,0.496399
41811691481,-0.559326,-0.337769,-0.570679,0.497437
41811713988,-0.559814,-0.337219,-0.56958,0.498474
41811729069,-0.560669,-0.336975,-0.568298,0.499207
41811751394,-0.561401,-0.337097,-0.566895,0.499878
41811774701,-0.562317,-0.337646,-0.565308,0.500305
41811788846,-0.563782,-0.338196,-0.563416,0.500427
41811811284,-0.565796,-0.338684,-0.561279,0.500244
41811834447,-0.567566,-0.339844,-0.558716,0.500305
41811848778,-0.569336,-0.341492,-0.555908,0.500244
41811879455,-0.571472,-0.343018,-0.55304,0.5
41811894412,-0.573608,-0.344727,-0.549866,0.499878
41811908738,-0.575623,-0.347107,-0.545898,0.500183
41811931274,-0.577393,-0.350159,-0.541504,0.500916
41811954416,-0.578552,-0.35321,-0.537048,0.502136
41811970233,-0.579956,-0.356384,-0.532715,0.502869
41811991285,-0.582153,-0.35791,-0.529114,0.503113
41812014641,-0.584473,-0.358398,-0.52533,0.504028
41812030301,-0.585938,-0.35907,-0.521423,0.50592
41812051500,-0.586487,-0.359863,-0.518555,0.507629
41812074563,-0.587524,-0.359863,-0.516235,0.508789
41812090300,-0.589355,-0.358765,-0.513794,0.509888
41812111414,-0.591125,-0.358032,-0.511169,0.511047
41812134604,-0.592651,-0.35675,-0.509033,0.512268
41812158501,-0.594482,-0.355103,-0.507202,0.513123
41812171550,-0.595459,-0.354675,-0.505493,0.513977
41812194407,-0.596741,-0.35376,-0.504272,0.514343
41812210250,-0.598267,-0.352661,-0.502441,0.515137
41812231249,-0.599304,-0.352295,-0.500488,0.515991
41812254468,-0.600647,-0.351807,-0.49884,0.516357
41812270244,-0.601746,-0.351746,-0.49762,0.516357
41812291289,-0.602478,-0.352173,-0.49707,0.515747
41812314478,-0.603271,-0.351929,-0.497131,0.514954
41812338423,-0.603821,-0.351807,-0.496948,0.514465
41812351291,-0.604065,-0.351807,-0.496521,0.514648
41812374420,-0.60437,-0.352173,-0.495911,0.514648
41812390253,-0.604675,-0.3526,-0.495361,0.514526
41812411336,-0.604797,-0.352051,-0.495056,0.515015
41812434633,-0.604614,-0.352966,-0.495605,0.51416
41812450284,-0.604614,-0.35376,-0.496094,0.513062
41812472804,-0.604919,-0.354309,-0.495972,0.512451
41812494655,-0.605286,-0.354431,-0.495544,0.51239
41812510296,-0.605713,-0.354004,-0.495544,0.512085
41812531339,-0.606201,-0.353027,-0.496277,0.511597
41812556032,-0.606384,-0.352295,-0.497131,0.511047
41812578422,-0.606506,-0.351501,-0.498047,0.510498
41812591335,-0.606506,-0.351257,-0.498657,0.510071
41812613761,-0.606445,-0.351074,-0.499451,0.509521
41812645117,-0.606506,-0.350525,-0.499939,0.509338
41812651263,-0.606384,-0.350708,-0.500183,0.509094
41812673765,-0.606201,-0.350769,-0.500305,0.509155
41812696939,-0.605896,-0.351868,-0.500305,0.508789
41812711319,-0.605713,-0.352966,-0.500488,0.507996
41812733787,-0.605652,-0.354004,-0.501038,0.506836
41812757734,-0.606018,-0.354492,-0.501831,0.505249
41812771323,-0.605957,-0.354858,-0.50293,0.503967
41812794004,-0.606018,-0.35553,-0.504395,0.502014
41812810380,-0.606445,-0.355286,-0.505981,0.500061
41812831503,-0.606201,-0.355164,-0.50708,0.499268
41812862168,-0.605164,-0.355774,-0.508118,0.499023
41812870302,-0.604126,-0.355957,-0.509399,0.498901
41812892859,-0.602966,-0.356262,-0.51062,0.49884
41812914004,-0.601807,-0.356506,-0.511597,0.499023
41812930247,-0.600159,-0.357056,-0.512329,0.499878
41812954285,-0.598206,-0.358215,-0.513123,0.500549
41812976687,-0.596375,-0.359497,-0.513916,0.501038
41812991717,-0.594543,-0.360962,-0.514954,0.50116
41813012750,-0.592896,-0.361572,-0.516602,0.500977
41813036671,-0.591431,-0.361755,-0.518616,0.500427
41813050257,-0.590393,-0.36084,-0.520935,0.499878
41813074224,-0.5896,-0.359375,-0.523193,0.499451
41813093848,-0.588623,-0.358154,-0.525452,0.499207
41813110347,-0.587585,-0.356689,-0.527832,0.498901
41813134292,-0.586914,-0.355042,-0.530334,0.49823
41813154040,-0.586487,-0.352722,-0.532776,0.497803
41813171808,-0.585815,-0.350342,-0.535156,0.497742
41813194249,-0.584839,-0.348389,-0.537292,0.497925
41813213913,-0.584106,-0.346008,-0.539612,0.497925
41813230252,-0.583618,-0.344116,-0.541992,0.497253
41813252730,-0.583374,-0.341553,-0.544373,0.496704
41813273765,-0.582886,-0.339233,-0.545715,0.497375
41813290230,-0.581543,-0.338867,-0.546509,0.498291
41813314222,-0.580566,-0.338867,-0.547852,0.498047
41813333770,-0.580566,-0.33783,-0.548889,0.497498
41813350283,-0.579956,-0.336731,-0.549255,0.498657
41813372787,-0.578735,-0.338867,-0.548889,0.498962
41813393779,-0.57782,-0.341003,-0.549255,0.49823
41813410253,-0.577698,-0.342834,-0.549805,0.496521
41813432880,-0.576904,-0.345825,-0.54895,0.496338
41813455362,-0.574219,-0.353088,-0.546997,0.49646
41813477810,-0.57312,-0.358948,-0.545532,0.495056
41813498973,-0.574524,-0.362366,-0.545715,0.490784
41813516765,-0.578064,-0.362915,-0.546265,0.485596
41813530350,-0.581055,-0.365723,-0.545776,0.480347
41813552230,-0.583557,-0.369446,-0.544922,0.475525
41813575650,-0.585815,-0.372314,-0.543579,0.472107
41813589450,-0.587402,-0.372559,-0.542419,0.47113
41813611949,-0.588318,-0.376038,-0.540894,0.469055
41813634493,-0.587708,-0.38031,-0.541199,0.465942
41813649437,-0.585083,-0.382141,-0.544373,0.46405
41813672000,-0.581543,-0.383606,-0.547119,0.464111
41813694485,-0.580078,-0.384766,-0.54834,0.463562
41813709504,-0.579712,-0.385925,-0.549316,0.461853
41813731986,-0.578857,-0.38678,-0.551208,0.4599
41813754470,-0.578674,-0.386414,-0.553345,0.457886
41813785841,-0.575989,-0.386658,-0.556274,0.45752
41813792677,-0.575195,-0.389038,-0.557678,0.454773
41813814300,-0.575439,-0.390869,-0.559265,0.45105
41813836995,-0.577637,-0.389465,-0.561279,0.446899
41813859731,-0.578491,-0.387024,-0.563171,0.445496
41813874622,-0.580505,-0.383301,-0.563721,0.445374
41813898528,-0.578674,-0.384216,-0.565308,0.444946
41813919709,-0.577148,-0.387024,-0.564514,0.445496
41813934675,-0.577209,-0.387512,-0.564697,0.444824
41813951030,-0.577515,-0.387634,-0.5672,0.441101
41813972234,-0.578369,-0.387329,-0.565491,0.442444
41813994717,-0.578613,-0.387878,-0.567078,0.439636
41814010955,-0.576843,-0.39209,-0.567688,0.437378
41814032167,-0.576416,-0.392395,-0.567505,0.437927
41814054541,-0.578674,-0.390686,-0.567871,0.435974
41814070944,-0.580139,-0.391724,-0.566345,0.434998
41814099487,-0.5802,-0.393494,-0.565613,0.434448
41814114486,-0.580017,-0.39502,-0.565002,0.434082
41814130949,-0.580505,-0.393921,-0.566162,0.432861
41814151982,-0.579712,-0.394897,-0.566223,0.432922
41814174471,-0.579285,-0.396423,-0.567261,0.430725
41814190920,-0.579041,-0.397522,-0.567566,0.429688
41814211991,-0.578918,-0.39856,-0.568298,0.427979
41814234442,-0.579712,-0.3974,-0.569519,0.426331
41814251029,-0.580627,-0.39679,-0.569824,0.425171
41814272167,-0.58075,-0.398315,-0.568542,0.425293
41814294660,-0.580566,-0.39917,-0.567749,0.425781
41814310763,-0.581421,-0.399719,-0.567322,0.424683
41814332086,-0.582031,-0.401917,-0.564575,0.425476
41814354727,-0.582825,-0.403076,-0.56366,0.4245
41814378291,-0.584656,-0.401489,-0.56366,0.423462
41814392173,-0.586853,-0.399963,-0.564392,0.420837
41814415235,-0.589294,-0.396912,-0.565308,0.419128
41814430986,-0.592896,-0.392029,-0.567139,0.416138
41814452003,-0.595093,-0.390076,-0.569153,0.41217
41814474469,-0.595642,-0.38916,-0.569092,0.412354
41814490927,-0.594666,-0.389587,-0.568848,0.413574
41814511972,-0.595337,-0.388245,-0.568237,0.414734
41814534480,-0.595215,-0.388733,-0.567017,0.416077
41814550905,-0.594971,-0.391418,-0.565369,0.416199
41814571999,-0.595886,-0.394653,-0.563843,0.414001
41814595776,-0.594482,-0.398193,-0.563049,0.413696
41814611050,-0.593933,-0.401794,-0.56134,0.413208
41814632186,-0.595093,-0.40387,-0.556763,0.41571
41814662186,-0.593323,-0.407532,-0.557983,0.413086
41814671027,-0.596558,-0.406067,-0.557922,0.409973
41814693548,-0.598145,-0.407593,-0.55603,0.408569
41814714670,-0.598755,-0.408447,-0.554749,0.40863
41814730980,-0.600464,-0.407959,-0.554199,0.40741
41814752249,-0.603699,-0.406128,-0.555481,0.402588
41814774510,-0.606873,-0.404114,-0.556641,0.398254
41814790324,-0.608826,-0.403015,-0.558105,0.394287
41814811983,-0.610107,-0.401917,-0.558105,0.393433
41814834501,-0.611206,-0.40332,-0.555359,0.394226
41814850286,-0.613953,-0.402832,-0.550354,0.397461
41814873464,-0.613953,-0.398438,-0.554016,0.396851
41814894501,-0.611633,-0.395996,-0.557678,0.397705
41814910254,-0.614502,-0.396606,-0.555786,0.395325
41814933433,-0.61438,-0.398987,-0.552979,0.397034
41814955968,-0.613525,-0.40155,-0.551636,0.397644
41814970416,-0.612366,-0.404785,-0.550354,0.397949
41815001039,-0.611267,-0.406921,-0.549683,0.398254
41815014571,-0.609924,-0.409424,-0.549744,0.397705
41815030376,-0.606628,-0.413147,-0.550476,0.397888
41815053584,-0.609497,-0.409607,-0.553406,0.393127
41815076031,-0.612366,-0.406311,-0.554199,0.39093
41815090424,-0.612244,-0.407959,-0.550903,0.394104
41815151490,-0.612061,-0.409668,-0.547974,0.396729
41815153892,-0.612549,-0.411682,-0.545288,0.397583
41815167424,-0.614502,-0.411011,-0.54425,0.396606
41815173459,-0.614075,-0.41333,-0.542419,0.397461
41815210847,-0.616455,-0.413147,-0.542969,0.393127
41815213287,-0.618286,-0.413635,-0.543518,0.388977
41815235017,-0.618164,-0.416016,-0.54303,0.387329
41815254733,-0.617126,-0.419189,-0.541565,0.387573
41815270303,-0.61731,-0.418945,-0.542725,0.385986
41815293540,-0.619629,-0.416443,-0.54425,0.382751
41815314665,-0.61853,-0.420044,-0.541443,0.384644
41815330439,-0.618469,-0.421082,-0.541382,0.383667
41815353603,-0.618835,-0.422302,-0.541138,0.382019
41815374611,-0.619568,-0.422791,-0.540588,0.381042
41815390349,-0.619995,-0.422791,-0.539673,0.381653
41815413925,-0.618286,-0.425659,-0.538147,0.383362
41815434473,-0.615784,-0.428955,-0.537231,0.38501
41815450330,-0.610535,-0.424744,-0.552246,0.37677
41815473596,-0.612183,-0.424072,-0.554138,0.37207
41815496490,-0.610596,-0.425964,-0.553528,0.373352
41815510424,-0.610718,-0.42511,-0.551086,0.377625
41815532179,-0.61084,-0.424805,-0.552429,0.375854
41815554609,-0.611389,-0.42334,-0.553894,0.374512
41815570403,-0.612366,-0.421936,-0.553894,0.374573
41815592105,-0.612793,-0.421936,-0.552734,0.375549
41815616087,-0.609985,-0.427429,-0.548157,0.380615
41815630381,-0.607422,-0.431274,-0.548584,0.379761
41815652194,-0.606934,-0.432556,-0.547241,0.380859
41815674530,-0.607361,-0.432007,-0.547668,0.380249
41815690278,-0.608704,-0.430847,-0.548279,0.37854
41815712023,-0.610229,-0.429565,-0.548889,0.376648
41815727778,-0.611877,-0.428101,-0.549805,0.37439
41815750282,-0.612915,-0.425964,-0.550964,0.373474
41815779549,-0.614624,-0.42395,-0.551147,0.372498
41815787945,-0.615234,-0.424377,-0.550537,0.372009
41815817214,-0.615723,-0.424683,-0.549805,0.371948
41815839577,-0.615967,-0.425354,-0.549316,0.371521
41815854731,-0.617432,-0.423523,-0.550415,0.369507
41815870455,-0.617859,-0.422974,-0.551514,0.367737
41815891410,-0.619324,-0.421021,-0.552673,0.365784
41815907851,-0.621155,-0.418701,-0.553284,0.364319
41815938512,-0.622864,-0.416321,-0.553467,0.363953
41815951384,-0.623657,-0.415771,-0.552551,0.364624
41815967859,-0.624634,-0.415344,-0.551819,0.364502
41815990316,-0.625732,-0.414551,-0.551819,0.363525
41816020936,-0.625916,-0.414673,-0.551392,0.363708
41816027882,-0.625488,-0.41571,-0.550842,0.364136
41816050328,-0.626038,-0.414673,-0.55072,0.364624
41816071543,-0.625854,-0.416199,-0.549194,0.365417
41816087894,-0.625549,-0.416687,-0.548584,0.366333
41816126740,-0.624268,-0.417236,-0.547974,0.368774
41816131438,-0.623291,-0.417725,-0.54718,0.371094
41816149320,-0.62207,-0.418762,-0.546326,0.373169
41816178615,-0.619873,-0.421631,-0.544434,0.376404
41816191589,-0.617859,-0.425293,-0.541443,0.379761
41816214600,-0.616028,-0.428528,-0.539124,0.382568
41816230324,-0.613281,-0.432739,-0.535645,0.387024
41816251349,-0.608704,-0.438782,-0.531494,0.393066
41816274563,-0.6026,-0.446167,-0.52832,0.398438
41816290328,-0.595398,-0.454285,-0.52533,0.403992
41816311366,-0.587769,-0.462769,-0.521729,0.410217
41816334848,-0.581055,-0.470215,-0.518677,0.415161
41816350381,-0.575928,-0.476196,-0.516296,0.418396
41816372885,-0.572327,-0.480164,-0.514038,0.42157
41816394782,-0.568665,-0.484131,-0.511108,0.425537
41816418572,-0.565247,-0.48822,-0.508301,0.428772
41816441041,-0.562622,-0.491028,-0.505615,0.43219
41816454863,-0.558533,-0.495544,-0.501587,0.436951
41816470501,-0.555237,-0.499268,-0.49762,0.441467
41816492836,-0.552429,-0.502197,-0.494263,0.445374
41816515981,-0.54895,-0.505798,-0.489746,0.450562
41816537008,-0.544434,-0.510498,-0.484314,0.456604
41816552810,-0.540405,-0.514954,-0.480225,0.460693
41816576018,-0.538452,-0.517395,-0.477844,0.462769
41816597178,-0.536621,-0.519165,-0.476135,0.4646
41816612917,-0.534485,-0.521118,-0.47406,0.46698
41816643579,-0.531738,-0.523804,-0.471008,0.470215
41816657099,-0.528931,-0.526672,-0.468445,0.472778
41816687138,-0.525269,-0.530029,-0.465271,0.476196
41816695427,-0.521423,-0.534058,-0.461304,0.479736
41816717311,-0.519531,-0.536804,-0.457886,0.482056
41816747031,-0.517395,-0.539001,-0.455322,0.484253
41816755327,-0.514832,-0.541382,-0.452698,0.486877
41816778279,-0.512329,-0.543579,-0.450745,0.48877
41816792837,-0.510193,-0.545288,-0.449463,0.490295
41816815303,-0.507507,-0.547791,-0.445557,0.493896
41816838497,-0.504822,-0.55072,-0.442993,0.495667
41816859706,-0.503662,-0.552246,-0.442017,0.496033
41816875848,-0.504517,-0.552063,-0.44342,0.494141
41816898618,-0.506531,-0.550354,-0.445496,0.492065
41816919708,-0.508179,-0.54895,-0.446899,0.490723
41816935429,-0.51001,-0.547974,-0.448608,0.48822
41816958627,-0.51416,-0.545654,-0.452393,0.483032
41816979753,-0.521301,-0.540771,-0.45752,0.475952
41816995478,-0.527771,-0.534668,-0.462952,0.470459
41817018278,-0.532471,-0.529663,-0.466125,0.46759
41817041033,-0.53479,-0.527466,-0.467468,0.466187
41817055342,-0.537048,-0.525208,-0.468628,0.464966
41817086012,-0.538879,-0.523621,-0.469666,0.463562
41817099741,-0.542969,-0.518921,-0.471558,0.462158
41817114699,-0.544983,-0.515991,-0.473633,0.460938
41817128900,-0.546265,-0.513489,-0.474854,0.460999
41817151577,-0.547302,-0.51123,-0.475952,0.461121
41817182913,-0.547058,-0.510498,-0.47583,0.462341
41817189134,-0.546753,-0.510132,-0.475952,0.463013
41817211984,-0.54718,-0.509277,-0.476379,0.463013
41817226576,-0.547852,-0.507935,-0.477661,0.46228
41817249009,-0.553894,-0.504211,-0.477661,0.459229
41817271586,-0.557739,-0.500854,-0.478882,0.456909
41817294547,-0.559998,-0.498901,-0.479248,0.455872
41817308873,-0.55603,-0.500549,-0.478088,0.460205
41817331357,-0.556641,-0.498108,-0.47876,0.461365
41817354583,-0.557007,-0.49585,-0.480408,0.46167
41817368898,-0.557068,-0.493713,-0.481873,0.462402
41817400438,-0.556396,-0.493591,-0.482422,0.462769
41817414806,-0.556396,-0.493042,-0.483276,0.462402
41817429152,-0.556885,-0.491516,-0.483948,0.462769
41817452202,-0.556885,-0.490295,-0.484863,0.463135
41817466547,-0.557861,-0.488831,-0.486084,0.46228
41817489120,-0.558533,-0.488037,-0.486206,0.462158
41817512152,-0.557434,-0.489075,-0.485046,0.463501
41817526510,-0.556885,-0.488831,-0.485046,0.464539
41817557932,-0.557617,-0.486511,-0.486084,0.464966
41817572108,-0.559021,-0.483398,-0.487366,0.46521
41817587852,-0.560242,-0.480896,-0.48877,0.464783
41817617070,-0.561462,-0.478638,-0.489929,0.464478
41817632109,-0.5625,-0.476562,-0.491211,0.463928
41817662800,-0.563232,-0.474304,-0.491699,0.464844
41817669076,-0.562744,-0.473328,-0.491455,0.466736
41817692922,-0.562256,-0.47229,-0.492249,0.46759
41817706480,-0.562195,-0.471191,-0.492737,0.468201
41817729126,-0.562073,-0.470093,-0.493164,0.468933
41817752965,-0.561584,-0.469604,-0.493469,0.469666
41817766493,-0.560669,-0.469543,-0.493958,0.470398
41817789660,-0.559692,-0.468689,-0.495056,0.471252
41817812079,-0.558899,-0.466919,-0.496521,0.472412
41817827899,-0.558044,-0.464722,-0.498169,0.473816
41817849526,-0.557068,-0.462341,-0.499878,0.475525
41817872091,-0.556396,-0.459534,-0.501343,0.477478
41817894638,-0.554749,-0.457336,-0.503113,0.479614
41817909591,-0.552856,-0.455627,-0.505188,0.481262
41817932078,-0.550659,-0.453979,-0.507141,0.483215
41817954807,-0.548767,-0.452759,-0.508545,0.485046
41817969864,-0.54657,-0.451294,-0.51001,0.487427
41817992290,-0.544678,-0.448364,-0.511841,0.490295
41818014642,-0.543335,-0.445312,-0.513428,0.49292
41818029757,-0.540283,-0.443359,-0.515137,0.496155
41818052270,-0.537781,-0.441284,-0.517029,0.498779
41818074699,-0.535828,-0.438721,-0.51886,0.501221
41818089687,-0.534302,-0.436218,-0.520142,0.503723
41818120438,-0.532959,-0.433594,-0.52124,0.506287
41818134613,-0.532349,-0.431152,-0.521729,0.508545
41818149591,-0.531006,-0.429504,-0.521484,0.511597
41818172096,-0.528625,-0.429443,-0.52124,0.514282
41818194378,-0.525757,-0.430176,-0.52179,0.516052
41818209707,-0.524048,-0.430359,-0.522278,0.517151
41818232193,-0.523132,-0.429932,-0.521851,0.518921
41818254830,-0.522034,-0.430786,-0.520508,0.52063
41818269139,-0.522339,-0.430481,-0.519287,0.521729
41818293678,-0.523376,-0.42926,-0.518066,0.522949
41818306478,-0.524353,-0.428467,-0.516113,0.524536
41818337329,-0.52478,-0.428711,-0.513916,0.526062
41818352369,-0.524475,-0.42865,-0.512878,0.527466
41818366534,-0.523865,-0.426758,-0.514587,0.527893
41818389052,-0.527283,-0.42157,-0.518616,0.524719
41818412234,-0.529663,-0.418457,-0.520325,0.523132
41818434779,-0.530945,-0.41449,-0.522583,0.522766
41818449088,-0.533264,-0.410217,-0.525452,0.520813
41818472279,-0.534729,-0.406799,-0.527954,0.519531
41818494805,-0.537537,-0.402222,-0.530151,0.517944
41818509137,-0.539368,-0.399414,-0.532166,0.516113
41818532036,-0.542542,-0.395203,-0.53418,0.513916
41818554818,-0.544861,-0.392944,-0.534058,0.513367
41818568982,-0.545715,-0.391479,-0.533569,0.51416
41818592320,-0.547363,-0.392334,-0.530884,0.514526
41818614774,-0.55011,-0.39447,-0.526978,0.513977
41818629121,-0.554504,-0.395752,-0.521973,0.513367
41818652365,-0.558899,-0.398438,-0.515564,0.512939
41818674678,-0.561218,-0.403015,-0.509583,0.512878
41818689208,-0.562622,-0.40741,-0.503906,0.513428
41818712127,-0.562927,-0.413879,-0.497559,0.51416
41818734669,-0.563843,-0.420654,-0.49115,0.513794
41818748925,-0.565796,-0.424805,-0.485901,0.513184
41818771402,-0.568054,-0.427429,-0.481567,0.512634
41818794004,-0.569641,-0.429443,-0.478516,0.512024
41818808983,-0.57074,-0.430542,-0.476196,0.512024
41818831543,-0.571411,-0.431641,-0.474121,0.512268
41818854098,-0.571838,-0.433044,-0.472046,0.512512
41818869046,-0.572388,-0.434082,-0.469971,0.512939
41818908615,-0.572937,-0.435547,-0.467773,0.513184
41818910894,-0.57373,-0.437012,-0.465698,0.512817
41818929143,-0.574463,-0.438354,-0.463318,0.513
41818951587,-0.574829,-0.440613,-0.46051,0.513245
41818973973,-0.575989,-0.442322,-0.45813,0.512573
41818988993,-0.577515,-0.442932,-0.456421,0.511902
41819011442,-0.578369,-0.444031,-0.454285,0.511841
41819033954,-0.578613,-0.445923,-0.451904,0.512024
41819048879,-0.578918,-0.447571,-0.449646,0.512268
41819071472,-0.579895,-0.448914,-0.447754,0.511597
41819104268,-0.581116,-0.449036,-0.445435,0.512146
41819109035,-0.582214,-0.449768,-0.442749,0.512634
41819131574,-0.58252,-0.447388,-0.44397,0.513245
41819154161,-0.583069,-0.444031,-0.447693,0.51239
41819168983,-0.586304,-0.435547,-0.457275,0.507507
41819191436,-0.589722,-0.42981,-0.461914,0.50415
41819214176,-0.591248,-0.427429,-0.463501,0.502869
41819229182,-0.592712,-0.421204,-0.467407,0.502869
41819259669,-0.594055,-0.415222,-0.471191,0.502747
41819274012,-0.595825,-0.411316,-0.473328,0.501831
41819288983,-0.597351,-0.408691,-0.474487,0.501038
41819311503,-0.598877,-0.40625,-0.47644,0.49939
41819333891,-0.601318,-0.403564,-0.477905,0.497192
41819349132,-0.603577,-0.402161,-0.478516,0.494995
41819371637,-0.605713,-0.402344,-0.47876,0.492004
41819394833,-0.608337,-0.403442,-0.479065,0.487488
41819409024,-0.611328,-0.40564,-0.47876,0.482239
41819432959,-0.614441,-0.407898,-0.478577,0.476624
41819455270,-0.618042,-0.409912,-0.477722,0.471008
41819469022,-0.621704,-0.41217,-0.476196,0.46582
41819491603,-0.625244,-0.414673,-0.473938,0.460999
41819514667,-0.629028,-0.417419,-0.471069,0.45636
41819530450,-0.632751,-0.421021,-0.466736,0.452332
41819551505,-0.635986,-0.426636,-0.460327,0.449036
41819574688,-0.636292,-0.427917,-0.460327,0.447388
41819590400,-0.637329,-0.42926,-0.460876,0.444092
41819611454,-0.638977,-0.432983,-0.459717,0.439209
41819634588,-0.640686,-0.437561,-0.457825,0.434204
41819650380,-0.642517,-0.443115,-0.454956,0.428833
41819671434,-0.646057,-0.447876,-0.451721,0.421997
41819694603,-0.650269,-0.45343,-0.447632,0.413818
41819710384,-0.655212,-0.460876,-0.442078,0.403687
41819731459,-0.659607,-0.469421,-0.436035,0.393066
41819754627,-0.664001,-0.480042,-0.427795,0.381775
41819770546,-0.667114,-0.491638,-0.418945,0.371216
41819791565,-0.666321,-0.502258,-0.414978,0.362793
41819814650,-0.664978,-0.511475,-0.412292,0.355408
41819830449,-0.666626,-0.523438,-0.405579,0.342346
41819851490,-0.670044,-0.534058,-0.399353,0.326111
41819874657,-0.67688,-0.544739,-0.389404,0.305786
41819898709,-0.683411,-0.558167,-0.375305,0.283997
41819911503,-0.688416,-0.569946,-0.36322,0.263428
41819934880,-0.692993,-0.581055,-0.353516,0.239197
41819950362,-0.696472,-0.590088,-0.341125,0.224609
41819971426,-0.696167,-0.595398,-0.335083,0.220703
41819994640,-0.696655,-0.597595,-0.329712,0.221191
41820010396,-0.694275,-0.597412,-0.332458,0.225037
41820031463,-0.688538,-0.598816,-0.337708,0.231079
41820054615,-0.682983,-0.595581,-0.3479,0.240601
41820070408,-0.675415,-0.592041,-0.358948,0.254089
41820091475,-0.665955,-0.585327,-0.373108,0.273438
41820122103,-0.653625,-0.576172,-0.387451,0.30127
41820138588,-0.639709,-0.562744,-0.40564,0.331116
41820152882,-0.623657,-0.546265,-0.425476,0.362854
41820173944,-0.605713,-0.527771,-0.444946,0.395752
41820198634,-0.587036,-0.505615,-0.465271,0.428162
41820211462,-0.5672,-0.480347,-0.484741,0.46106
41820235389,-0.546631,-0.452271,-0.502747,0.493835
41820250413,-0.524719,-0.422302,-0.519226,0.526123
41820271498,-0.501831,-0.391113,-0.533936,0.556946
41820293981,-0.478333,-0.359192,-0.546753,0.585938
41820310441,-0.455017,-0.32782,-0.556885,0.612732
41820332940,-0.434387,-0.297302,-0.564514,0.635803
41820353950,-0.420044,-0.268677,-0.570618,0.652588
41820370409,-0.412292,-0.239563,-0.576172,0.663818
41820391463,-0.410095,-0.220825,-0.579651,0.66864
41820413974,-0.416443,-0.215698,-0.580383,0.665771
41820430440,-0.427673,-0.220703,-0.578064,0.658997
41820459601,-0.441895,-0.236877,-0.571838,0.649353
41820482137,-0.456543,-0.241455,-0.57196,0.637268
41820490459,-0.444824,-0.277405,-0.561157,0.640564
41820513376,-0.447205,-0.315369,-0.547974,0.63269
41820542203,-0.466736,-0.334229,-0.535583,0.619385
41820550387,-0.483948,-0.349731,-0.524231,0.607239
41820572948,-0.488403,-0.364807,-0.514038,0.603455
41820593954,-0.50061,-0.375671,-0.509827,0.590271
41820610407,-0.513672,-0.380798,-0.506104,0.578796
41820632909,-0.520996,-0.38739,-0.501404,0.57196
41820654644,-0.526672,-0.392517,-0.497803,0.566406
41820669601,-0.532043,-0.396606,-0.493652,0.562134
41820692102,-0.539551,-0.398682,-0.490295,0.556396
41820714610,-0.546448,-0.399048,-0.488892,0.550598
41820729605,-0.553467,-0.396118,-0.491394,0.543457
41820752150,-0.55896,-0.395142,-0.492981,0.537109
41820774685,-0.562439,-0.395874,-0.493713,0.532166
41820789604,-0.566223,-0.396179,-0.494446,0.527283
41820812191,-0.569763,-0.397522,-0.494507,0.522339
41820834647,-0.573181,-0.399353,-0.493896,0.517761
41820851093,-0.575684,-0.403198,-0.49353,0.512329
41820872158,-0.573792,-0.410278,-0.48938,0.512878
41820894639,-0.575989,-0.415039,-0.486206,0.509583
41820909663,-0.576294,-0.421631,-0.482422,0.507324
41820940346,-0.578613,-0.42688,-0.480713,0.501953
41820962823,-0.581726,-0.433228,-0.478027,0.495422
41820969664,-0.584534,-0.44104,-0.473755,0.489258
41820992864,-0.587646,-0.449646,-0.467896,0.483337
41821014612,-0.588318,-0.462158,-0.460449,0.477783
41821029628,-0.589417,-0.475708,-0.454163,0.469177
41821052126,-0.591309,-0.48822,-0.449646,0.458069
41821074611,-0.593262,-0.503723,-0.442688,0.445435
41821089448,-0.596008,-0.520935,-0.43573,0.428467
41821112134,-0.598145,-0.53894,-0.432251,0.406189
41821134627,-0.61084,-0.551514,-0.431946,0.36908
41821157117,-0.627502,-0.560059,-0.431885,0.325684
41821180353,-0.637573,-0.573242,-0.420532,0.296936
41821194684,-0.631897,-0.601257,-0.39447,0.289246
41821209630,-0.627441,-0.621887,-0.373779,0.282837
41821232180,-0.627502,-0.637695,-0.355286,0.271118
41821256081,-0.628723,-0.650269,-0.33783,0.260376
41821269667,-0.630676,-0.659546,-0.321411,0.253052
41821292173,-0.63208,-0.667419,-0.304565,0.249756
41821314671,-0.631897,-0.674805,-0.28894,0.248901
41821329658,-0.630676,-0.681396,-0.275696,0.249084
41821352161,-0.628845,-0.686829,-0.263733,0.25177
41821383015,-0.626221,-0.690674,-0.252441,0.259277
41821389874,-0.622742,-0.694031,-0.240112,0.270081
41821412357,-0.6203,-0.695007,-0.22937,0.282288
41821434735,-0.618896,-0.692322,-0.22229,0.297241
41821449917,-0.616394,-0.686768,-0.217285,0.318237
41821473615,-0.611633,-0.680115,-0.2146,0.342529
41821494825,-0.605713,-0.671753,-0.213562,0.369202
41821509700,-0.600647,-0.659851,-0.217957,0.395447
41821532360,-0.596985,-0.644897,-0.227173,0.419739
41821554796,-0.59375,-0.628113,-0.238464,0.44281
41821570922,-0.58905,-0.612183,-0.249023,0.465027
41821600495,-0.58252,-0.5979,-0.258179,0.486389
41821622932,-0.573853,-0.583557,-0.268555,0.508057
41821645499,-0.565491,-0.566406,-0.28186,0.529175
41821661198,-0.558533,-0.545471,-0.299194,0.548706
41821674712,-0.550781,-0.522034,-0.320618,0.566895
41821691131,-0.543091,-0.495911,-0.34613,0.58252
41821712298,-0.532898,-0.470093,-0.371521,0.597534
41821734853,-0.519897,-0.445618,-0.394348,0.612915
41821749932,-0.504089,-0.424011,-0.415283,0.627441
41821781849,-0.486816,-0.404419,-0.435791,0.639954
41821786675,-0.472351,-0.387939,-0.455322,0.6474
41821809851,-0.458374,-0.378601,-0.468018,0.65387
41821832396,-0.44928,-0.385315,-0.469238,0.655396
41821854813,-0.445557,-0.39209,-0.469238,0.65387
41821869828,-0.448181,-0.395691,-0.468811,0.650269
41821892371,-0.454224,-0.402527,-0.461853,0.646851
41821914676,-0.453674,-0.422485,-0.449219,0.643372
41821929862,-0.453003,-0.441956,-0.434326,0.640991
41821968571,-0.448486,-0.456177,-0.440613,0.629822
41821970951,-0.455688,-0.470032,-0.438904,0.61554
41821997203,-0.470093,-0.476196,-0.432739,0.604187
41822013626,-0.471252,-0.481812,-0.421387,0.606812
41822026436,-0.473633,-0.482605,-0.418518,0.606323
41822051782,-0.478943,-0.482422,-0.418762,0.602112
41822081081,-0.487488,-0.47644,-0.423157,0.596924
41822087932,-0.494751,-0.472961,-0.424438,0.592773
41822111087,-0.497375,-0.474121,-0.422485,0.591125
41822139667,-0.501526,-0.474976,-0.421143,0.58783
41822147998,-0.508301,-0.475281,-0.418945,0.583313
41822172631,-0.513428,-0.476624,-0.415588,0.580139
41822201172,-0.516724,-0.479187,-0.41272,0.577148
41822208004,-0.520386,-0.481873,-0.411682,0.572266
41822229702,-0.525269,-0.483704,-0.412048,0.565979
41822252243,-0.529175,-0.486755,-0.411072,0.560425
41822268030,-0.532471,-0.49115,-0.409058,0.554932
41822291105,-0.536255,-0.494873,-0.407166,0.549438
41822312176,-0.54071,-0.497986,-0.40564,0.543274
41822328054,-0.5448,-0.501526,-0.403442,0.537476
41822358672,-0.547852,-0.505737,-0.39978,0.533142
41822372327,-0.550293,-0.510193,-0.396179,0.529175
41822388037,-0.553284,-0.513733,-0.393494,0.524597
41822426832,-0.556396,-0.517151,-0.391479,0.519409
41822432370,-0.558899,-0.521362,-0.389282,0.51416
41822448045,-0.56012,-0.526672,-0.385742,0.510071
41822477262,-0.559814,-0.533081,-0.38208,0.506409
41822492243,-0.560303,-0.538574,-0.379395,0.502136
41822516171,-0.562195,-0.54248,-0.377258,0.497375
41822529080,-0.563965,-0.545715,-0.375488,0.493103
41822552376,-0.56604,-0.54834,-0.374146,0.488831
41822568512,-0.56842,-0.550171,-0.373352,0.484619
41822589082,-0.569092,-0.552551,-0.372986,0.481445
41822628510,-0.570129,-0.556152,-0.371521,0.477234
41822630923,-0.572632,-0.559082,-0.369934,0.471985
41822649006,-0.579041,-0.561401,-0.367126,0.46344
41822672172,-0.586304,-0.56311,-0.364136,0.45459
41822703583,-0.593933,-0.559204,-0.369568,0.445007
41822710464,-0.607239,-0.549194,-0.386414,0.424744
41822733577,-0.622559,-0.534302,-0.40802,0.400635
41822754656,-0.635071,-0.520996,-0.427002,0.378113
41822770457,-0.645874,-0.510254,-0.4422,0.356384
41822793677,-0.657959,-0.497681,-0.455322,0.3349
41822814847,-0.670532,-0.480957,-0.469727,0.313904
41822830524,-0.683838,-0.458984,-0.486694,0.291382
41822853524,-0.697937,-0.430786,-0.505981,0.267212
41822874728,-0.710571,-0.39917,-0.525879,0.243469
41822898717,-0.721191,-0.366333,-0.5448,0.221069
41822913718,-0.729309,-0.33606,-0.560974,0.201416
41822934939,-0.735352,-0.307434,-0.5755,0.183411
41822950498,-0.739502,-0.276917,-0.591553,0.163269
41822973609,-0.741821,-0.246826,-0.607178,0.142151
41822994638,-0.743286,-0.218018,-0.620728,0.121216
41823010483,-0.743835,-0.189941,-0.632935,0.100464
41823033654,-0.743652,-0.161621,-0.643921,0.0792847
41823054877,-0.742432,-0.134888,-0.653503,0.0598145
41823070542,-0.74054,-0.110962,-0.66156,0.0420532
41823093608,-0.738037,-0.0893555,-0.668457,0.0250854
41823114476,-0.734985,-0.0679932,-0.674683,0.00671387
41823132004,-0.731445,-0.0450439,-0.680298,-0.0145874
41823153745,-0.726685,-0.0195312,-0.685547,-0.0401001
41823174888,-0.720398,0.00708008,-0.690186,-0.0688477
41823197265,-0.712524,0.0322876,-0.694092,-0.0981445
41823213639,-0.703918,0.055603,-0.697021,-0.125366
41823236167,-0.694885,0.0767212,-0.699402,-0.148987
41823250495,-0.685059,0.0957031,-0.702087,-0.169373
41823273652,-0.675049,0.11145,-0.7052,-0.186279
41823296112,-0.664795,0.126038,-0.708435,-0.200806
41823319029,-0.65448,0.139465,-0.711609,-0.214233
41823333121,-0.644104,0.152649,-0.714355,-0.227173
41823356267,-0.633728,0.166565,-0.716125,-0.240662
41823370537,-0.623474,0.180969,-0.717041,-0.254028
41823391658,-0.614563,0.193481,-0.717346,-0.26532
41823407947,-0.607727,0.203003,-0.718323,-0.27124
41823437399,-0.603027,0.211914,-0.718201,-0.275146
41823451631,-0.60144,0.219055,-0.717346,-0.275269
41823474769,-0.603271,0.223206,-0.716553,-0.27002
41823490505,-0.613953,0.223511,-0.710815,-0.260681
41823511747,-0.625671,0.222839,-0.704468,-0.250366
41823528018,-0.629272,0.22229,-0.704102,-0.242737
41823550515,-0.631348,0.223389,-0.703796,-0.237122
41823571606,-0.638733,0.224731,-0.698547,-0.231506
41823588024,-0.64624,0.225403,-0.693787,-0.224365
41823610475,-0.652832,0.223999,-0.690979,-0.215088
41823631778,-0.65686,0.225525,-0.689575,-0.205627
41823648113,-0.659302,0.228821,-0.688843,-0.196167
41823678764,-0.661926,0.231323,-0.687683,-0.188416
41823691678,-0.664246,0.23291,-0.686768,-0.181641
41823708033,-0.665955,0.235352,-0.686035,-0.174866
41823730598,-0.668213,0.235535,-0.685486,-0.167847
41823751691,-0.669861,0.236816,-0.684753,-0.162598
41823768032,-0.671204,0.23999,-0.683289,-0.158508
41823805476,-0.672485,0.242859,-0.681641,-0.15564
41823811586,-0.673462,0.246094,-0.680176,-0.152893
41823828049,-0.674866,0.248352,-0.67865,-0.149597
41823850608,-0.676331,0.249756,-0.677246,-0.146973
41823871794,-0.677368,0.252136,-0.675598,-0.145752
41823888122,-0.678223,0.253174,-0.674561,-0.144592
41823910623,-0.679504,0.253418,-0.673523,-0.143066
41823931683,-0.681274,0.252747,-0.672302,-0.141663
41823948097,-0.682983,0.252686,-0.670776,-0.140808
41823970565,-0.684204,0.25354,-0.66925,-0.140381
41823993092,-0.684143,0.25592,-0.668457,-0.140259
41824008041,-0.685181,0.258545,-0.666138,-0.141296
41824030985,-0.686035,0.263,-0.66272,-0.145386
41824059683,-0.686401,0.261169,-0.66333,-0.143799
41824074701,-0.687927,0.258972,-0.662964,-0.142212
41824090492,-0.687805,0.261108,-0.661743,-0.14447
41824112980,-0.688049,0.263977,-0.659668,-0.147766
41824136640,-0.688416,0.267578,-0.657043,-0.151245
41824150625,-0.689636,0.270203,-0.65387,-0.154724
41824173496,-0.690979,0.273071,-0.65033,-0.158569
41824194796,-0.693848,0.274902,-0.64563,-0.162109
41824209874,-0.698059,0.275818,-0.639648,-0.165955
41824232372,-0.702393,0.277466,-0.633057,-0.170227
41824246769,-0.70752,0.277771,-0.62616,-0.174072
41824271194,-0.712708,0.278748,-0.618591,-0.178223
41824292451,-0.718201,0.27948,-0.610901,-0.18158
41824314738,-0.724609,0.27832,-0.602783,-0.184814
41824329721,-0.731201,0.276917,-0.593933,-0.189636
41824352235,-0.735596,0.276245,-0.586792,-0.19574
41824366509,-0.738098,0.274048,-0.582153,-0.203308
41824389125,-0.736694,0.273438,-0.580444,-0.213745
41824420631,-0.727234,0.280701,-0.580139,-0.236389
41824426707,-0.716919,0.285034,-0.582458,-0.256104
41824449209,-0.710938,0.286072,-0.582886,-0.270325
41824472177,-0.703247,0.289429,-0.583374,-0.2854
41824486724,-0.693481,0.296082,-0.583435,-0.30188
41824510711,-0.684631,0.303955,-0.581299,-0.317993
41824532456,-0.675903,0.314148,-0.576538,-0.334961
41824554905,-0.666138,0.326599,-0.570007,-0.35321
41824571182,-0.654907,0.341003,-0.561707,-0.373352
41824592217,-0.643005,0.354797,-0.553223,-0.393188
41824606582,-0.631042,0.366272,-0.545898,-0.411987
41824629019,-0.620605,0.373718,-0.540466,-0.427979
41824652168,-0.613098,0.373962,-0.538086,-0.441284
41824666764,-0.61084,0.368835,-0.538086,-0.44873
41824689219,-0.612061,0.360229,-0.53949,-0.452393
41824712408,-0.61438,0.352478,-0.540894,-0.453674
41824728087,-0.614868,0.348389,-0.54248,-0.454285
41824749236,-0.613586,0.346985,-0.54364,-0.455688
41824772431,-0.611328,0.346558,-0.544006,-0.458618
41824786651,-0.608032,0.346497,-0.543274,-0.463867
41824809155,-0.603943,0.347534,-0.542053,-0.469788
41824832269,-0.601318,0.347717,-0.541687,-0.47345
41824846648,-0.600586,0.346558,-0.542175,-0.47467
41824869060,-0.600403,0.345459,-0.54248,-0.475403
41824892666,-0.600037,0.345093,-0.542175,-0.47644
41824906823,-0.598999,0.345703,-0.54187,-0.4776
41824931990,-0.597656,0.346924,-0.541077,-0.479309
41824960468,-0.596008,0.348572,-0.540161,-0.481262
41824966784,-0.593201,0.350708,-0.539368,-0.484009
41824989117,-0.589966,0.353455,-0.538147,-0.487305
41825011656,-0.586426,0.356079,-0.53717,-0.490784
41825034902,-0.583496,0.358276,-0.536316,-0.493591
41825050590,-0.581787,0.359436,-0.536316,-0.49469
41825072437,-0.580872,0.359619,-0.536682,-0.4953
41825094728,-0.579773,0.360046,-0.536682,-0.496277
41825109066,-0.577942,0.361206,-0.53656,-0.497681
41825132906,-0.5755,0.362732,-0.536682,-0.499268
41825146608,-0.573242,0.363892,-0.536926,-0.500793
41825170495,-0.571228,0.364746,-0.537109,-0.502258
41825200394,-0.569702,0.365173,-0.537659,-0.503052
41825206590,-0.569641,0.364685,-0.538391,-0.502747
41825237227,-0.569702,0.364441,-0.538879,-0.502319
41825251587,-0.569397,0.364624,-0.539001,-0.50238
41825268067,-0.568909,0.365417,-0.538879,-0.502502
41825289219,-0.568726,0.365784,-0.53894,-0.50238
41825311627,-0.568787,0.366028,-0.538757,-0.502258
41825326768,-0.568848,0.366333,-0.538757,-0.502014
41825349307,-0.569092,0.366394,-0.538574,-0.501831
41825371802,-0.568909,0.366638,-0.538635,-0.501892
41825386733,-0.568665,0.367004,-0.538696,-0.501831
41825417450,-0.568359,0.367249,-0.539001,-0.501648
41825431831,-0.567993,0.367371,-0.539307,-0.501648
41825446842,-0.567444,0.367676,-0.539429,-0.501892
41825477206,-0.566772,0.368164,-0.539429,-0.502319
41825491594,-0.566223,0.368469,-0.539429,-0.502686
41825506578,-0.565918,0.368591,-0.53949,-0.50293
41825529085,-0.565613,0.368591,-0.539551,-0.503235
41825551593,-0.565552,0.36853,-0.539551,-0.503235
41825576180,-0.565369,0.368652,-0.539551,-0.503357
41825589073,-0.565063,0.368896,-0.539551,-0.50354
41825611591,-0.564636,0.369202,-0.539612,-0.503723
41825627172,-0.563965,0.369629,-0.539673,-0.504089
41825649071,-0.563232,0.369995,-0.539917,-0.504456
41825671826,-0.562561,0.370239,-0.5401,-0.504761
41825686786,-0.562134,0.370178,-0.540222,-0.505188
41825709288,-0.561768,0.3703,-0.540344,-0.505432
41825731699,-0.561462,0.370117,-0.540466,-0.505737
41825746751,-0.561462,0.370117,-0.540466,-0.505737
41825769285,-0.561462,0.369995,-0.54071,-0.505615
41825791663,-0.561462,0.369995,-0.54071,-0.505554
41825806675,-0.561401,0.370056,-0.54071,-0.505493
41825829133,-0.561035,0.3703,-0.540833,-0.505676
41825853104,-0.560669,0.370544,-0.540833,-0.50592
41825866847,-0.560669,0.370483,-0.540833,-0.505981
41825889246,-0.560669,0.370483,-0.540833,-0.505981
41825920651,-0.560669,0.370483,-0.540833,-0.505981
41825926780,-0.560669,0.370544,-0.540833,-0.50592
41825949279,-0.560608,0.370544,-0.540833,-0.50592
41825971849,-0.560364,0.370605,-0.540771,-0.506226
41825986822,-0.560181,0.370728,-0.54071,-0.506409
41826009061,-0.560181,0.370728,-0.540771,-0.506409
41826040599,-0.560364,0.370667,-0.540771,-0.506165
41826046762,-0.560364,0.370667,-0.540771,-0.506165
41826069211,-0.560425,0.370789,-0.54071,-0.506104
41826093102,-0.560669,0.370728,-0.540588,-0.505981
41826106804,-0.561157,0.370605,-0.540527,-0.505676
41826129247,-0.561523,0.370544,-0.540527,-0.505249
41826159840,-0.561768,0.370667,-0.540405,-0.505005
41826168172,-0.56189,0.370972,-0.540344,-0.504822
41826189356,-0.562195,0.370972,-0.540283,-0.504456
41826211803,-0.5625,0.371033,-0.5401,-0.504272
41826228061,-0.562683,0.371094,-0.539917,-0.50415
41826249217,-0.562744,0.371399,-0.539734,-0.50415
41826271812,-0.562683,0.37146,-0.539612,-0.504333
41826288082,-0.5625,0.37146,-0.539368,-0.504761
41826309297,-0.562256,0.37146,-0.539185,-0.505188
41826331751,-0.562012,0.371399,-0.539307,-0.505432
41826348118,-0.561707,0.371338,-0.539612,-0.505493
41826369272,-0.56134,0.371277,-0.539978,-0.505554
41826399969,-0.561096,0.371033,-0.540283,-0.505615
41826408131,-0.561096,0.371033,-0.540344,-0.505615
41826429284,-0.561096,0.370972,-0.540283,-0.505676
41826451700,-0.561096,0.370972,-0.540283,-0.505676
41826469535,-0.561218,0.371094,-0.540283,-0.505493
41826489247,-0.561401,0.371216,-0.540161,-0.50531
41826511868,-0.561401,0.371765,-0.539917,-0.505127
41826528074,-0.561218,0.372437,-0.539612,-0.505188
41826549249,-0.561035,0.373169,-0.539124,-0.505371
41826571845,-0.56073,0.374084,-0.538452,-0.505737
41826588187,-0.560669,0.374573,-0.537903,-0.506042
41826609232,-0.560669,0.374939,-0.537415,-0.506348
41826631861,-0.560608,0.375244,-0.536926,-0.506653
41826655695,-0.560669,0.375305,-0.536865,-0.506592
41826669166,-0.560852,0.375183,-0.536926,-0.506409
41826691722,-0.560791,0.375122,-0.537048,-0.50647
41826709614,-0.560303,0.375122,-0.537231,-0.506775
41826730586,-0.559631,0.375183,-0.537537,-0.507141
41826753151,-0.558899,0.375122,-0.537903,-0.507568
41826775609,-0.558044,0.375183,-0.538208,-0.508179
41826790749,-0.557251,0.375305,-0.538452,-0.508667
41826811799,-0.55658,0.37561,-0.538635,-0.508972
41826828089,-0.556213,0.375916,-0.538757,-0.509033
41826849153,-0.55603,0.376282,-0.538574,-0.509155
41826873110,-0.555908,0.37677,-0.538208,-0.509338
41826894190,-0.556091,0.376953,-0.537842,-0.509399
41826909286,-0.556519,0.377014,-0.537476,-0.509216
41826931835,-0.557068,0.377014,-0.537292,-0.508911
41826948141,-0.557373,0.377136,-0.53717,-0.508545
41826969352,-0.557678,0.377136,-0.537109,-0.508301
41826991677,-0.558044,0.377136,-0.536987,-0.507996
41827023116,-0.558289,0.377258,-0.536987,-0.50769
41827029357,-0.558472,0.37738,-0.537048,-0.507263
41827051777,-0.558533,0.377502,-0.537109,-0.507141
41827068155,-0.55835,0.377869,-0.537048,-0.50708
41827097428,-0.558167,0.378113,-0.537109,-0.507019
41827111890,-0.558105,0.378174,-0.53717,-0.507019
41827128105,-0.558228,0.378052,-0.537354,-0.506775
41827152105,-0.558228,0.378052,-0.537354,-0.506775
41827179928,-0.558167,0.378113,-0.537598,-0.506531
41827188120,-0.558167,0.378113,-0.537903,-0.506165
41827210653,-0.558167,0.378113,-0.537903,-0.506165
41827231723,-0.558167,0.378174,-0.537903,-0.506165
41827248113,-0.558105,0.378113,-0.537903,-0.506226
41827270728,-0.558228,0.37793,-0.538025,-0.506104
41827291717,-0.55835,0.377747,-0.538208,-0.50592
41827315683,-0.558594,0.377625,-0.538269,-0.505676
41827330755,-0.558838,0.377686,-0.538208,-0.505432
41827351717,-0.558899,0.37793,-0.538147,-0.505188
41827375674,-0.558899,0.377991,-0.538147,-0.505188
41827392022,-0.558655,0.378296,-0.538025,-0.505371
41827420032,-0.558533,0.378296,-0.537903,-0.505676
41827428124,-0.558411,0.378235,-0.537781,-0.505981
41827450736,-0.558411,0.378235,-0.537781,-0.505981
41827471766,-0.558594,0.377991,-0.53772,-0.505981
41827489623,-0.558594,0.37793,-0.53772,-0.506042
41827516766,-0.558594,0.37793,-0.53772,-0.506042
41827531793,-0.558777,0.377808,-0.537903,-0.505737
41827548149,-0.559082,0.377686,-0.537903,-0.505493
41827570717,-0.559265,0.377625,-0.537842,-0.505432
41827591687,-0.559265,0.377625,-0.537842,-0.505432
41827608085,-0.559265,0.377686,-0.537781,-0.505371
41827632045,-0.559265,0.377625,-0.537842,-0.505371
41827651816,-0.559204,0.377686,-0.537476,-0.505798
41827668089,-0.559082,0.377991,-0.537109,-0.506104
41827690624,-0.559082,0.377991,-0.537109,-0.506104
41827722716,-0.559082,0.377991,-0.537048,-0.506165
41827728185,-0.559265,0.377747,-0.537048,-0.506104
41827752021,-0.55957,0.377563,-0.537109,-0.505859
41827772269,-0.559814,0.377502,-0.537231,-0.505554
41827787009,-0.559814,0.377502,-0.537231,-0.505554
41827809979,-0.559753,0.377563,-0.537109,-0.505676
41827832480,-0.559692,0.377563,-0.537109,-0.505737
41827847538,-0.559937,0.377563,-0.537048,-0.505554
41827870012,-0.560181,0.377563,-0.536865,-0.505493
41827892134,-0.560059,0.377869,-0.536682,-0.505615
41827907440,-0.560059,0.377869,-0.536621,-0.505615
41827930381,-0.560059,0.377808,-0.536621,-0.505676
41827952440,-0.560364,0.377625,-0.536621,-0.505493
41827968856,-0.560608,0.377625,-0.536499,-0.50531
41827989907,-0.560608,0.377625,-0.536499,-0.50531
41828012309,-0.560669,0.377625,-0.536499,-0.50531
41828027405,-0.560669,0.377625,-0.536438,-0.50531
41828057502,-0.560486,0.377686,-0.536499,-0.505493
41828072534,-0.559998,0.377869,-0.536621,-0.505676
41828087547,-0.55957,0.37793,-0.536804,-0.50592
41828109974,-0.559265,0.37793,-0.536865,-0.506165
41828132789,-0.559265,0.37793,-0.536926,-0.506165
41828148777,-0.559448,0.377747,-0.536865,-0.506165
41828169838,-0.559814,0.377686,-0.53656,-0.506104
41828193852,-0.559875,0.377991,-0.536255,-0.506165
41828216324,-0.56012,0.378357,-0.535828,-0.505981
41828230756,-0.560486,0.378723,-0.535339,-0.50592
41828253850,-0.561035,0.378906,-0.534729,-0.505798
41828269289,-0.561462,0.379272,-0.534058,-0.505737
41828289987,-0.561707,0.3797,-0.53363,-0.505615
41828312344,-0.561768,0.380066,-0.533386,-0.505493
41828328737,-0.561707,0.380066,-0.533081,-0.505859
41828349772,-0.561462,0.380249,-0.532654,-0.50647
41828373836,-0.561096,0.380554,-0.532471,-0.506897
41828388878,-0.561096,0.380615,-0.532471,-0.506836
41828409915,-0.560913,0.380676,-0.532532,-0.506958
41828449500,-0.560669,0.381287,-0.532166,-0.507141
41828451744,-0.559265,0.382507,-0.532104,-0.507812
41828469923,-0.5578,0.383301,-0.531616,-0.509338
41828493809,-0.555847,0.38446,-0.530945,-0.511292
41828508776,-0.554321,0.38501,-0.530457,-0.512939
41828531764,-0.553589,0.384949,-0.530212,-0.514099
41828559824,-0.553284,0.384827,-0.529968,-0.514709
41828568744,-0.553345,0.384827,-0.529968,-0.514771
41828589735,-0.553284,0.384827,-0.529968,-0.514771
41828612302,-0.553284,0.384888,-0.529968,-0.514709
41828628751,-0.553284,0.384888,-0.529968,-0.514709
41828649856,-0.553406,0.384705,-0.530212,-0.514465
41828672324,-0.553467,0.384521,-0.530457,-0.514343
41828688741,-0.553223,0.384583,-0.530701,-0.514282
41828709610,-0.552734,0.384705,-0.530884,-0.514465
41828733210,-0.552185,0.384949,-0.531006,-0.514771
41828756298,-0.551819,0.384949,-0.531006,-0.515137
41828771395,-0.551514,0.385315,-0.530945,-0.51532
41828800004,-0.551575,0.385254,-0.530884,-0.515381
41828808783,-0.551575,0.385254,-0.530884,-0.515381
41828837442,-0.551514,0.385315,-0.530884,-0.51532
41828852236,-0.551636,0.385376,-0.531006,-0.515015
41828868821,-0.55188,0.385315,-0.530945,-0.514893
41828890048,-0.552124,0.385376,-0.530823,-0.514709
41828912394,-0.55249,0.385315,-0.530762,-0.514465
41828928825,-0.552673,0.385437,-0.530579,-0.514343
41828949837,-0.552734,0.385437,-0.530518,-0.514404
41828973816,-0.552734,0.385437,-0.530457,-0.514343
41828988147,-0.552734,0.385437,-0.530457,-0.514343
41829009818,-0.552612,0.385437,-0.53064,-0.514343
41829032469,-0.552246,0.38562,-0.530823,-0.514404
41829064257,-0.551941,0.385742,-0.530884,-0.514587
41829072785,-0.551941,0.385742,-0.530884,-0.514587
41829092463,-0.551758,0.385864,-0.530884,-0.514771
41829108132,-0.551758,0.385803,-0.530884,-0.514771
41829131268,-0.551758,0.385803,-0.530884,-0.514771
41829152516,-0.551758,0.385803,-0.530884,-0.514771
41829176343,-0.551758,0.385803,-0.530884,-0.514771
41829191325,-0.551575,0.386047,-0.530701,-0.514893
41829212543,-0.551453,0.38623,-0.530518,-0.515137
41829228321,-0.551453,0.386169,-0.530518,-0.515198
41829251776,-0.551392,0.386047,-0.530762,-0.515137
41829272512,-0.551453,0.385864,-0.530884,-0.515015
41829294920,-0.551453,0.385864,-0.530884,-0.515015
41829311450,-0.551453,0.385803,-0.531128,-0.514832
41829332460,-0.551575,0.385681,-0.531311,-0.514587
41829348103,-0.551514,0.385559,-0.531616,-0.514404
41829371346,-0.551453,0.385498,-0.531921,-0.514221
41829392411,-0.551392,0.385376,-0.532104,-0.51416
41829408177,-0.551392,0.385315,-0.532227,-0.514099
41829431341,-0.551453,0.385132,-0.53241,-0.514038
41829453863,-0.551453,0.38501,-0.532593,-0.513916
41829468219,-0.551392,0.385071,-0.532593,-0.513916
41829491347,-0.551392,0.385071,-0.532654,-0.513916
41829512469,-0.551392,0.385071,-0.532654,-0.513916
41829528097,-0.551331,0.385254,-0.532349,-0.514099
41829551266,-0.551147,0.385498,-0.532227,-0.514282
41829572089,-0.551147,0.385498,-0.532227,-0.514282
41829588074,-0.55127,0.385376,-0.53241,-0.513977
41829611225,-0.551697,0.385193,-0.532593,-0.51355
41829632389,-0.552368,0.384949,-0.532532,-0.513
41829648137,-0.553101,0.384888,-0.532227,-0.512634
41829678784,-0.553711,0.384888,-0.531982,-0.512207
41829692130,-0.55426,0.384949,-0.531921,-0.511597
41829708141,-0.554871,0.385132,-0.53186,-0.510864
41829731070,-0.555054,0.385559,-0.531921,-0.510315
41829760613,-0.555359,0.385681,-0.53186,-0.509888
41829768228,-0.555725,0.385559,-0.531677,-0.509827
41829791323,-0.556091,0.385193,-0.531616,-0.509705
41829812509,-0.556458,0.384888,-0.531616,-0.509583
41829828121,-0.556641,0.384766,-0.531616,-0.50946
41829851397,-0.556641,0.384888,-0.531555,-0.50946
41829873815,-0.556763,0.384949,-0.531311,-0.509521
41829888211,-0.556824,0.385132,-0.531128,-0.509521
41829911333,-0.55719,0.385193,-0.530518,-0.509705
41829932576,-0.557556,0.385437,-0.530029,-0.509644
41829948923,-0.557922,0.385498,-0.529968,-0.509277
41829970638,-0.558533,0.385254,-0.53009,-0.508667
41829999775,-0.558838,0.385254,-0.530212,-0.508179
41830008091,-0.55896,0.385437,-0.530212,-0.507874
41830030582,-0.559204,0.385681,-0.53009,-0.507568
41830053805,-0.559143,0.386353,-0.529785,-0.507446
41830068156,-0.559021,0.387024,-0.529358,-0.507446
41830090617,-0.558411,0.388,-0.528748,-0.508057
41830113853,-0.557251,0.389343,-0.527893,-0.509216
41830128210,-0.555969,0.390747,-0.527039,-0.510437
41830150682,-0.55481,0.391846,-0.526123,-0.511841
41830173815,-0.553467,0.392822,-0.525391,-0.513245
41830195076,-0.552002,0.39386,-0.525024,-0.514343
41830210673,-0.550476,0.39502,-0.525085,-0.515076
41830233911,-0.5495,0.395874,-0.525146,-0.515381
41830248219,-0.548706,0.39679,-0.524902,-0.515747
41830270634,-0.547974,0.397827,-0.524414,-0.516235
41830293844,-0.547363,0.398926,-0.523743,-0.516724
41830308177,-0.546875,0.39978,-0.523071,-0.517273
41830338792,-0.54657,0.40033,-0.522522,-0.5177
41830359886,-0.546631,0.400635,-0.522034,-0.517944
41830382453,-0.546631,0.401184,-0.52179,-0.517761
41830390665,-0.546631,0.401672,-0.521912,-0.517212
41830413845,-0.54657,0.402222,-0.522034,-0.516724
41830428123,-0.546082,0.403137,-0.521851,-0.516724
41830450693,-0.545227,0.404175,-0.521729,-0.516907
41830481727,-0.54425,0.404968,-0.52179,-0.517334
41830494809,-0.543213,0.405579,-0.52179,-0.517883
41830510620,-0.542114,0.406189,-0.521729,-0.518677
41830539819,-0.54071,0.406921,-0.521667,-0.519592
41830554867,-0.539124,0.407837,-0.521545,-0.52063
41830570628,-0.537292,0.40863,-0.521423,-0.522034
41830601309,-0.535217,0.409851,-0.520874,-0.523743
41830614919,-0.532837,0.411194,-0.520325,-0.525635
41830630690,-0.530457,0.412537,-0.519958,-0.527405
41830653801,-0.528137,0.413879,-0.519653,-0.528931
41830674862,-0.526001,0.415039,-0.51947,-0.530457
41830690657,-0.523499,0.416199,-0.519043,-0.532349
41830713859,-0.520813,0.417358,-0.518982,-0.534119
41830735069,-0.518372,0.418396,-0.519104,-0.535583
41830750664,-0.516052,0.419128,-0.51947,-0.536865
41830774280,-0.513672,0.419861,-0.519592,-0.538452
41830795725,-0.510864,0.421387,-0.51886,-0.54071
41830810715,-0.507324,0.423767,-0.517822,-0.543091
41830849541,-0.503357,0.426697,-0.516479,-0.545776
41830855050,-0.497986,0.430969,-0.514343,-0.549377
41830870745,-0.490906,0.436584,-0.511536,-0.553833
41830895271,-0.482788,0.442139,-0.508972,-0.559021
41830915024,-0.474548,0.447632,-0.50592,-0.564392
41830930741,-0.465454,0.453979,-0.501953,-0.570374
41830953220,-0.453918,0.46228,-0.496704,-0.577576
41830976371,-0.441711,0.470947,-0.490234,-0.58551
41830990726,-0.431213,0.478699,-0.483887,-0.592285
41831013129,-0.422241,0.485779,-0.478149,-0.597656
41831036279,-0.415405,0.491516,-0.473511,-0.60144
41831057453,-0.411499,0.495544,-0.469971,-0.603577
41831073185,-0.411011,0.497986,-0.468384,-0.603088
41831096292,-0.413269,0.499023,-0.468994,-0.60022
41831117323,-0.416687,0.499634,-0.470398,-0.596252
41831133135,-0.419312,0.500427,-0.471924,-0.592529
41831156305,-0.421387,0.501831,-0.472961,-0.58905
41831178814,-0.42395,0.503052,-0.474304,-0.585083
41831193117,-0.427673,0.503235,-0.47583,-0.580933
41831222338,-0.430664,0.50415,-0.476501,-0.577393
41831237371,-0.432678,0.505554,-0.477112,-0.574097
41831261287,-0.43457,0.506531,-0.478699,-0.570496
41831276405,-0.435974,0.507629,-0.480652,-0.566772
41831297410,-0.437012,0.509338,-0.4823,-0.563049
41831321360,-0.4375,0.511414,-0.483215,-0.559998
41831326855,-0.437622,0.513733,-0.483582,-0.557434
41831350722,-0.438477,0.515442,-0.484192,-0.554688
41831372476,-0.440125,0.516235,-0.484863,-0.552063
41831386901,-0.441345,0.517822,-0.485107,-0.549377
41831409233,-0.442627,0.520325,-0.484619,-0.546387
41831432416,-0.443237,0.523132,-0.484009,-0.543762
41831446699,-0.443726,0.526306,-0.483582,-0.540588
41831469232,-0.444702,0.529297,-0.483582,-0.536926
41831493831,-0.44574,0.531738,-0.483643,-0.533569
41831506726,-0.447021,0.534241,-0.483643,-0.530029
41831537141,-0.449402,0.536499,-0.483337,-0.526001
41831552377,-0.45166,0.538757,-0.482788,-0.522217
41831568172,-0.453247,0.541443,-0.482483,-0.518372
41831589194,-0.455383,0.543579,-0.482483,-0.51416
41831621267,-0.457886,0.545166,-0.482605,-0.510193
41831626752,-0.459656,0.547363,-0.482361,-0.50647
41831649281,-0.461548,0.549194,-0.482849,-0.502258
41831673920,-0.464172,0.550232,-0.483826,-0.497742
41831686941,-0.467529,0.551147,-0.484375,-0.492981
41831709242,-0.470947,0.55249,-0.484558,-0.488037
41831732608,-0.473633,0.553589,-0.484985,-0.483765
41831746906,-0.476257,0.554016,-0.485168,-0.480469
41831769356,-0.47821,0.554871,-0.485229,-0.477478
41831792426,-0.480103,0.555664,-0.485718,-0.474121
41831806740,-0.482117,0.556091,-0.486267,-0.47113
41831838456,-0.483276,0.557129,-0.486816,-0.468079
41831860547,-0.484314,0.558167,-0.487488,-0.465088
41831866680,-0.485107,0.557922,-0.488464,-0.463562
41831889239,-0.486511,0.558289,-0.488647,-0.461426
41831919608,-0.488831,0.558838,-0.488342,-0.458618
41831929640,-0.490967,0.559692,-0.487976,-0.455627
41831949285,-0.492798,0.560303,-0.488098,-0.452698
41831972409,-0.494568,0.560669,-0.487976,-0.450562
41831986766,-0.496277,0.561035,-0.487427,-0.448792
41832009272,-0.497498,0.561646,-0.486938,-0.447205
41832024162,-0.498413,0.562134,-0.486572,-0.445984
41832046738,-0.499634,0.5625,-0.486328,-0.444397
41832069235,-0.501343,0.563049,-0.485779,-0.442383
41832084255,-0.503479,0.56366,-0.484497,-0.440613
41832106755,-0.505188,0.564514,-0.483093,-0.439087
41832129179,-0.506775,0.564758,-0.4823,-0.437805
41832144235,-0.508301,0.564514,-0.482056,-0.436584
41832166742,-0.509338,0.564392,-0.482117,-0.435547
41832190644,-0.509827,0.564514,-0.481995,-0.434875
41832205655,-0.509521,0.56488,-0.482056,-0.434631
41832226715,-0.508301,0.565735,-0.482788,-0.434204
41832249240,-0.506897,0.565552,-0.48407,-0.434631
41832264219,-0.505188,0.564575,-0.486023,-0.435791
41832286677,-0.501099,0.563721,-0.488708,-0.438599
41832309202,-0.498413,0.563477,-0.48877,-0.441833
41832332351,-0.496582,0.564331,-0.486938,-0.444824
41832346733,-0.494995,0.565796,-0.485229,-0.446655
41832369198,-0.495361,0.566528,-0.483643,-0.44696
41832392415,-0.495789,0.566956,-0.482666,-0.447083
41832408166,-0.49408,0.566345,-0.482666,-0.449646
41832429214,-0.49054,0.567383,-0.481995,-0.453003
41832453096,-0.487915,0.568542,-0.481018,-0.455322
41832468217,-0.487122,0.569763,-0.47876,-0.457092
41832498069,-0.487549,0.571533,-0.476379,-0.456909
41832512409,-0.489929,0.572449,-0.474304,-0.455383
41832544483,-0.493652,0.572144,-0.47229,-0.453857
41832549250,-0.497803,0.571533,-0.469971,-0.452454
41832572417,-0.501465,0.571289,-0.466858,-0.451904
41832586753,-0.504028,0.571594,-0.463196,-0.452515
41832609212,-0.506226,0.572693,-0.459106,-0.45282
41832633825,-0.508484,0.573425,-0.454529,-0.453918
41832646710,-0.508057,0.573364,-0.448792,-0.460205
41832678009,-0.503418,0.575684,-0.44165,-0.469177
41832692410,-0.503784,0.574829,-0.438049,-0.473267
41832714915,-0.506958,0.573303,-0.43396,-0.475403
41832729225,-0.511108,0.572144,-0.428589,-0.477234
41832752389,-0.513977,0.572693,-0.420654,-0.480591
41832766766,-0.517761,0.574951,-0.410278,-0.482849
41832789293,-0.523132,0.578979,-0.400635,-0.480286
41832812388,-0.53241,0.582214,-0.393677,-0.471802
41832826723,-0.53479,0.585754,-0.393066,-0.46521
41832850681,-0.536621,0.585083,-0.398804,-0.459106
41832871732,-0.53656,0.583191,-0.406677,-0.45459
41832886751,-0.534058,0.578552,-0.418518,-0.452759
41832909213,-0.527222,0.57373,-0.430725,-0.455383
41832943472,-0.5177,0.567322,-0.445801,-0.459839
41832956336,-0.507996,0.559448,-0.463013,-0.463257
41832970707,-0.498169,0.550293,-0.481445,-0.466187
41832991711,-0.485535,0.542114,-0.497437,-0.472168
41833006736,-0.471436,0.535522,-0.51239,-0.477966
41833029194,-0.454468,0.528809,-0.527649,-0.485229
41833051722,-0.43689,0.519897,-0.545471,-0.491272
41833066726,-0.4198,0.507568,-0.565674,-0.496155
41833089250,-0.402954,0.492188,-0.58667,-0.501282
41833111705,-0.387024,0.473938,-0.607788,-0.506165
41833126713,-0.371338,0.4552,-0.62738,-0.51123
41833157372,-0.356323,0.435974,-0.645813,-0.515747
41833173208,-0.343872,0.416565,-0.663635,-0.517578
41833189648,-0.33374,0.39679,-0.680054,-0.518433
41833209257,-0.325073,0.381165,-0.69165,-0.520325
41833231731,-0.327454,0.378418,-0.692322,-0.519958
41833246758,-0.320068,0.376892,-0.692993,-0.524719
41833269272,-0.313965,0.384827,-0.686829,-0.530701
41833293215,-0.307556,0.40564,-0.672791,-0.536865
41833306715,-0.310669,0.424438,-0.6521,-0.546021
41833331337,-0.340637,0.443359,-0.638428,-0.529053
41833352862,-0.376648,0.457031,-0.619507,-0.51532
41833369645,-0.402222,0.459167,-0.615051,-0.499207
41833389860,-0.414368,0.464355,-0.609192,-0.491577
41833412347,-0.43219,0.467773,-0.600952,-0.483032
41833426712,-0.442932,0.476257,-0.590454,-0.477905
41833449211,-0.446472,0.487549,-0.581299,-0.474426
41833472425,-0.449585,0.496216,-0.575989,-0.468933
41833486737,-0.456665,0.497986,-0.574585,-0.461975
41833509249,-0.463501,0.499084,-0.572998,-0.455811
41833532388,-0.46637,0.503967,-0.569824,-0.451538
41833546751,-0.468994,0.508118,-0.566711,-0.448059
41833569200,-0.474548,0.509949,-0.563904,-0.443604
41833592365,-0.480225,0.512573,-0.560425,-0.438904
41833606717,-0.48584,0.516663,-0.555359,-0.434326
41833638809,-0.490356,0.522034,-0.549438,-0.430298
41833653948,-0.49585,0.527649,-0.542236,-0.42627
41833666922,-0.503357,0.533447,-0.532593,-0.422546
41833697624,-0.511536,0.539307,-0.521179,-0.419373
41833712564,-0.518921,0.545227,-0.509705,-0.416748
41833728274,-0.526306,0.550354,-0.498962,-0.413757
41833749401,-0.533203,0.556763,-0.486938,-0.410706
41833772680,-0.53833,0.564819,-0.472595,-0.409729
41833788302,-0.539612,0.57135,-0.459778,-0.413635
41833817415,-0.539612,0.573486,-0.448669,-0.422607
41833832442,-0.543762,0.576355,-0.432068,-0.430725
41833848159,-0.549622,0.581909,-0.40802,-0.439148
41833869240,-0.550964,0.59137,-0.373962,-0.454834
41833892404,-0.558289,0.601868,-0.332336,-0.464417
41833908181,-0.574707,0.609924,-0.295166,-0.458923
41833929252,-0.590698,0.618713,-0.260681,-0.447571
41833959887,-0.609924,0.623962,-0.239502,-0.425842
41833968824,-0.619751,0.630188,-0.219299,-0.413147
41833989233,-0.623108,0.637695,-0.205933,-0.403381
41834012636,-0.620239,0.645325,-0.209595,-0.393616
41834035014,-0.617554,0.649475,-0.221985,-0.384216
41834057494,-0.612915,0.651184,-0.242188,-0.376404
41834089018,-0.604248,0.649963,-0.268799,-0.374451
41834091269,-0.59021,0.648682,-0.295105,-0.379211
41834109301,-0.568115,0.647278,-0.321411,-0.393677
41834132545,-0.541687,0.64386,-0.349426,-0.412292
41834148258,-0.512512,0.637939,-0.379517,-0.431702
41834169453,-0.4823,0.629272,-0.411377,-0.449707
41834192516,-0.451843,0.616516,-0.444824,-0.466858
41834216331,-0.419678,0.601135,-0.476685,-0.485107
41834229246,-0.388306,0.581909,-0.508972,-0.501587
41834253856,-0.3573,0.56012,-0.539124,-0.517639
41834268176,-0.326416,0.537842,-0.567017,-0.531738
41834289227,-0.295471,0.516907,-0.59082,-0.544556
41834313182,-0.260742,0.502625,-0.605408,-0.559387
41834328287,-0.224976,0.489014,-0.618591,-0.572388
41834357642,-0.191833,0.483337,-0.623291,-0.584106
41834371981,-0.160583,0.481445,-0.62262,-0.595642
41834388249,-0.135254,0.488403,-0.613647,-0.60553
41834409313,-0.112061,0.507202,-0.594055,-0.614319
41834431789,-0.095459,0.534607,-0.566345,-0.619995
41834448933,-0.0883789,0.559326,-0.540222,-0.622498
41834469437,-0.0810547,0.578857,-0.521545,-0.621582
41834491797,-0.11676,0.566284,-0.531494,-0.619019
41834508212,-0.158813,0.561462,-0.537903,-0.608521
41834529264,-0.177734,0.577454,-0.529968,-0.595093
41834576385,-0.193298,0.590027,-0.521973,-0.5849
41834578691,-0.204529,0.604309,-0.510986,-0.576111
41834589518,-0.212646,0.61499,-0.502808,-0.569031
41834611850,-0.22168,0.621216,-0.496338,-0.564453
41834643211,-0.232971,0.625183,-0.491089,-0.56012
41834649452,-0.246948,0.627747,-0.487244,-0.554626
41834680122,-0.257874,0.630737,-0.483765,-0.549255
41834688350,-0.264099,0.63501,-0.47876,-0.545715
41834710807,-0.267822,0.639648,-0.473328,-0.543213
41834731863,-0.271301,0.64325,-0.468933,-0.541077
41834748244,-0.273926,0.646851,-0.464417,-0.539368
41834770724,-0.275818,0.651733,-0.458435,-0.537598
41834791769,-0.277649,0.658142,-0.450928,-0.535217
41834809690,-0.276978,0.664673,-0.443054,-0.534119
41834838261,-0.273193,0.671021,-0.434875,-0.534851
41834851898,-0.270691,0.680054,-0.423584,-0.533691
41834868326,-0.268188,0.690491,-0.410767,-0.531616
41834890023,-0.265625,0.700806,-0.396851,-0.529968
41834913957,-0.264832,0.710876,-0.382629,-0.527405
41834935061,-0.266235,0.71936,-0.369019,-0.524902
41834950127,-0.267456,0.726807,-0.35614,-0.522888
41834972628,-0.267334,0.731934,-0.345581,-0.522888
41834987671,-0.269714,0.731812,-0.338135,-0.526672
41835009970,-0.269043,0.732544,-0.325806,-0.533691
41835032475,-0.253967,0.73761,-0.300781,-0.548645
41835047419,-0.244446,0.740112,-0.284363,-0.558289
41835071332,-0.236145,0.743103,-0.268188,-0.565796
41835092529,-0.224548,0.746277,-0.250061,-0.574585
41835107631,-0.211731,0.748901,-0.232056,-0.583557
41835130022,-0.19751,0.750183,-0.214172,-0.593567
41835152547,-0.18158,0.750488,-0.195984,-0.604492
41835167418,-0.165771,0.749695,-0.178772,-0.615234
41835190152,-0.150635,0.748047,-0.162476,-0.625549
41835212647,-0.136597,0.745728,-0.147217,-0.635254
41835227645,-0.124939,0.744019,-0.133362,-0.6427
41835250034,-0.114624,0.74231,-0.120667,-0.649048
41835272539,-0.105042,0.740601,-0.10791,-0.654907
41835287450,-0.0942993,0.738525,-0.0943604,-0.66095
41835309910,-0.0836792,0.736755,-0.0804443,-0.666138
41835332409,-0.0737305,0.735352,-0.0665283,-0.670349
41835347415,-0.0646362,0.734863,-0.0527954,-0.673035
41835369924,-0.0526733,0.733704,-0.0374146,-0.676331
41835393948,-0.0385132,0.731995,-0.0210571,-0.679932
41835407626,-0.0238037,0.729858,-0.00445557,-0.683167
41835430175,-0.00952148,0.727478,0.0118408,-0.685974
41835452612,0.0045166,0.72522,0.027771,-0.687927
41835467418,0.019043,0.7229,0.0436401,-0.68927
41835490130,0.0341797,0.720215,0.0598145,-0.690308
41835512652,0.0488281,0.717224,0.0762329,-0.690918
41835527513,0.062561,0.713562,0.0917969,-0.691711
41835550078,0.0755005,0.708984,0.105713,-0.693176
41835572510,0.0855713,0.704224,0.118225,-0.694824
41835587457,0.0947876,0.699524,0.130371,-0.696228
41835609945,0.102966,0.695129,0.141968,-0.697144
41835632592,0.110352,0.691101,0.152893,-0.697693
41835647659,0.117432,0.687256,0.162109,-0.698242
41835670159,0.123474,0.683838,0.168945,-0.698975
41835693212,0.127625,0.680786,0.174255,-0.699951
41835708981,0.129456,0.678528,0.177917,-0.700867
41835730066,0.1297,0.676941,0.18042,-0.70166
41835752670,0.129211,0.676208,0.182129,-0.702087
41835769014,0.128601,0.675842,0.183594,-0.702148
41835790142,0.128662,0.675659,0.184875,-0.701965
41835805766,0.128296,0.675598,0.185608,-0.701904
41835828884,0.127197,0.675903,0.185791,-0.701721
41835849946,0.125977,0.676331,0.185608,-0.701599
41835865708,0.125,0.676758,0.185303,-0.701416
41835888911,0.124023,0.676819,0.185059,-0.701599
41835909706,0.123474,0.676636,0.185181,-0.701843
41835925873,0.123657,0.676453,0.18573,-0.701843
41835948937,0.124268,0.675964,0.186218,-0.702087
41835970064,0.124817,0.675415,0.186462,-0.702454
41835985795,0.125061,0.675049,0.186707,-0.702759
41836008937,0.125488,0.6745,0.187256,-0.703064
41836030125,0.126038,0.673889,0.187866,-0.703308
41836045880,0.126282,0.673584,0.187988,-0.703552
41836069041,0.126404,0.673401,0.187988,-0.703735
41836097496,0.126709,0.673035,0.187988,-0.704041
41836105765,0.127258,0.672668,0.188171,-0.704224
41836129586,0.127869,0.672424,0.188232,-0.704285
41836149936,0.128113,0.67218,0.18811,-0.704529
41836165712,0.128052,0.671997,0.187927,-0.704773
41836188934,0.128113,0.671753,0.187988,-0.704956
41836210047,0.128357,0.671387,0.188171,-0.7052
41836225815,0.128601,0.671143,0.188354,-0.705383
41836248926,0.129089,0.670715,0.188538,-0.705627
41836270051,0.129395,0.670471,0.188599,-0.70575
41836285850,0.129639,0.670288,0.188599,-0.705872
41836309033,0.129944,0.670044,0.18866,-0.706055
41836330099,0.130249,0.669739,0.188904,-0.706238
41836345792,0.130737,0.669556,0.189209,-0.706238
41836368900,0.131165,0.669312,0.189392,-0.70636
41836389955,0.131165,0.66925,0.18927,-0.706421
41836405814,0.130981,0.669312,0.189087,-0.706421
41836428912,0.130981,0.669312,0.189148,-0.706421
41836450041,0.130981,0.669312,0.189148,-0.706421
41836465880,0.130981,0.669312,0.189148,-0.706482
41836489022,0.13092,0.669312,0.189148,-0.706482
41836509736,0.130737,0.669434,0.189209,-0.70636
41836525797,0.130615,0.669617,0.189392,-0.706116
41836549056,0.130615,0.669617,0.189453,-0.706116
41836570030,0.130615,0.669617,0.189453,-0.706116
41836585785,0.130798,0.669556,0.189697,-0.706116
41836608322,0.131287,0.669373,0.190125,-0.706055
41836629930,0.131897,0.669067,0.190796,-0.706055
41836645733,0.132324,0.668823,0.191284,-0.706055
41836668279,0.132263,0.668823,0.191345,-0.706116
41836691413,0.131714,0.669006,0.190918,-0.706177
41836705804,0.131287,0.669067,0.190735,-0.706177
41836728375,0.131287,0.669067,0.190735,-0.706177
41836751454,0.131531,0.669006,0.190796,-0.706177
41836765779,0.131775,0.668884,0.190918,-0.706238
41836788312,0.131714,0.668884,0.190918,-0.706238
41836811492,0.131714,0.668884,0.190979,-0.706238
41836825794,0.131409,0.669067,0.190918,-0.706116
41836848386,0.131348,0.669067,0.190979,-0.706177
41836871540,0.131348,0.669067,0.190979,-0.706116
41836885728,0.131287,0.669067,0.190979,-0.706116
41836908235,0.131287,0.669067,0.190979,-0.706116
41836931447,0.131409,0.668945,0.191101,-0.706177
41836945781,0.131592,0.668701,0.191345,-0.706299
41836968260,0.131592,0.668701,0.191345,-0.706299
41836991405,0.131531,0.668701,0.191406,-0.706299
41837012515,0.131531,0.668701,0.191406,-0.706299
41837028310,0.131531,0.668701,0.191406,-0.706299
41837051401,0.131653,0.668579,0.191467,-0.70636
