timestamp,roll,pitch,yaw
151844884155,-0.776242,-1.48894,0.718297
151844899090,-0.785471,-1.48985,0.727478
151844922768,-0.792322,-1.48847,0.734623
151844944110,-0.799837,-1.48823,0.742305
151844959092,-0.811114,-1.48901,0.75362
151844982785,-0.816192,-1.48769,0.758993
151845027315,-0.822561,-1.48739,0.765794
151845028116,-0.828207,-1.48715,0.771785
151845042264,-0.836062,-1.48696,0.7799
151845065938,-0.8394,-1.48666,0.783668
151845081764,-0.845606,-1.48636,0.790305
151845101672,-0.852416,-1.48599,0.797633
151845131463,-0.856427,-1.48569,0.801986
151845154566,-0.861934,-1.48538,0.807658
151845164980,-0.865264,-1.4841,0.8111
151845184598,-0.865534,-1.48402,0.810838
151845200346,-0.867238,-1.48399,0.812011
151845222125,-0.867238,-1.48399,0.812011
151845244600,-0.867238,-1.48399,0.812011
151845258956,-0.867238,-1.48399,0.812011
151845282107,-0.866615,-1.48405,0.811302
151845304590,-0.865146,-1.48304,0.809866
151845318939,-0.865146,-1.48304,0.809866
151845342122,-0.865146,-1.48304,0.809866
151845364622,-0.865185,-1.484,0.80987
151845378969,-0.865185,-1.484,0.80987
151845402110,-0.864433,-1.484,0.809206
151845424624,-0.864433,-1.484,0.809206
151845447121,-0.863808,-1.48406,0.808495
151845462084,-0.863424,-1.4839,0.808636
151845484628,-0.861334,-1.48294,0.806492
151845498979,-0.86196,-1.48288,0.807204
151845521470,-0.86099,-1.48373,0.806637
151845544592,-0.861407,-1.48369,0.807494
151845558940,-0.860023,-1.48375,0.806112
151845581442,-0.860023,-1.48375,0.806112
151845606017,-0.860023,-1.48375,0.806112
151845618948,-0.860023,-1.48375,0.806112
151845641473,-0.860023,-1.48375,0.806112
151845666070,-0.863198,-1.48443,0.809684
151845678966,-0.863606,-1.48323,0.810383
151845701462,-0.866834,-1.48299,0.813867
151845724644,-0.868684,-1.48282,0.815975
151845738961,-0.868684,-1.48282,0.815975
151845761417,-0.871949,-1.4827,0.8195
151845784643,-0.875245,-1.48354,0.823024
151845800362,-0.873782,-1.48253,0.821592
151845821445,-0.877639,-1.48235,0.825795
151845844623,-0.883641,-1.48223,0.832057
151845860402,-0.886163,-1.48204,0.83475
151845881447,-0.890822,-1.48191,0.839492
151845904707,-0.896047,-1.48172,0.844886
151845920401,-0.901054,-1.48047,0.850089
151845941497,-0.907676,-1.48127,0.856853
151845972167,-0.911888,-1.48003,0.861348
151845980444,-0.918901,-1.47976,0.86844
151846001407,-0.92428,-1.47938,0.874072
151846024628,-0.929557,-1.4781,0.879628
151846040388,-0.934801,-1.47772,0.885123
151846061478,-0.941122,-1.47755,0.891264
151846084625,-0.947141,-1.47728,0.89745
151846100409,-0.953897,-1.47708,0.904463
151846121477,-0.958545,-1.47683,0.909454
151846144006,-0.964721,-1.47668,0.915801
151846160424,-0.970715,-1.47559,0.922166
151846181506,-0.978936,-1.47636,0.930446
151846204004,-0.985518,-1.47615,0.937286
151846220369,-0.991704,-1.47603,0.943468
151846241452,-0.995558,-1.47537,0.946739
151846263891,-1.00253,-1.47637,0.953688
151846280446,-1.00967,-1.47652,0.961181
151846301420,-1.01538,-1.47663,0.967249
151846323941,-1.02222,-1.47773,0.97433
151846340414,-1.02919,-1.4769,0.981507
151846361487,-1.03517,-1.47686,0.98774
151846383955,-1.04451,-1.4779,0.996975
151846400474,-1.05076,-1.47795,1.00314
151846421537,-1.06146,-1.47804,1.0141
151846444074,-1.07167,-1.47891,1.02456
151846460505,-1.08114,-1.47904,1.03395
151846481533,-1.08903,-1.4782,1.04177
151846504009,-1.0963,-1.47825,1.04921
151846520476,-1.10563,-1.47827,1.0588
151846541504,-1.11445,-1.47914,1.06769
151846563956,-1.12413,-1.47809,1.07748
151846580481,-1.13113,-1.47795,1.08474
151846601527,-1.13951,-1.47771,1.09328
151846623954,-1.14695,-1.47754,1.10089
151846640448,-1.15557,-1.47724,1.10977
151846661451,-1.16143,-1.4767,1.11623
151846683975,-1.16637,-1.47624,1.12177
151846700434,-1.17204,-1.47481,1.12805
151846721453,-1.17982,-1.47433,1.13618
151846743977,-1.18734,-1.47294,1.14422
151846760494,-1.19402,-1.47336,1.1514
151846782929,-1.20088,-1.47199,1.15888
151846804081,-1.2093,-1.47169,1.1673
151846820437,-1.21709,-1.47166,1.17508
151846842949,-1.22152,-1.47194,1.179
151846864110,-1.22651,-1.47267,1.18252
151846880465,-1.23218,-1.47327,1.18767
151846902989,-1.23949,-1.47385,1.19465
151846924030,-1.24641,-1.47543,1.20104
151846946549,-1.25206,-1.47605,1.20627
151846962979,-1.25601,-1.47749,1.20995
151846984058,-1.25788,-1.47895,1.21165
151847000499,-1.26265,-1.47941,1.21616
151847022978,-1.26547,-1.47976,1.21907
151847043997,-1.26832,-1.48025,1.22158
151847060492,-1.26663,-1.48158,1.21937
151847082985,-1.26661,-1.482,1.21952
151847104025,-1.27174,-1.48348,1.22491
151847120486,-1.27151,-1.48495,1.22476
151847142977,-1.27261,-1.48543,1.22622
151847164028,-1.27492,-1.48681,1.22878
151847180451,-1.27619,-1.48713,1.23014
151847202926,-1.27749,-1.48848,1.23152
151847223997,-1.27485,-1.48771,1.22898
151847246454,-1.27375,-1.48905,1.22805
151847262977,-1.27168,-1.48918,1.22624
151847284020,-1.27124,-1.4892,1.22589
151847300484,-1.27093,-1.48926,1.22549
151847322968,-1.27095,-1.49031,1.2255
151847343984,-1.27095,-1.49031,1.2255
151847360467,-1.2705,-1.49033,1.22514
151847382943,-1.27019,-1.4904,1.22474
151847403950,-1.27019,-1.4904,1.22474
151847420442,-1.2656,-1.4901,1.22032
151847442933,-1.25952,-1.48892,1.21442
151847463976,-1.25503,-1.48862,1.21011
151847480413,-1.2506,-1.48833,1.20585
151847503007,-1.24655,-1.48797,1.20206
151847524065,-1.24322,-1.48748,1.19915
151847540513,-1.23648,-1.48586,1.19293
151847563037,-1.23014,-1.48435,1.18678
151847584000,-1.21831,-1.48513,1.17458
151847600472,-1.21097,-1.48401,1.16726
151847622970,-1.20492,-1.48389,1.16146
151847644004,-1.19985,-1.48388,1.15665
151847660496,-1.19285,-1.48398,1.14948
151847682933,-1.1861,-1.48496,1.14281
151847705485,-1.1861,-1.48496,1.14281
151847720439,-1.18428,-1.48394,1.141
151847742980,-1.18341,-1.48402,1.14013
151847765486,-1.18341,-1.48402,1.14013
151847781966,-1.17757,-1.48511,1.13437
151847802947,-1.17078,-1.4853,1.12767
151847825482,-1.16484,-1.4854,1.12182
151847841993,-1.15795,-1.48558,1.11501
151847862984,-1.15795,-1.48558,1.11501
151847885493,-1.15797,-1.48658,1.11502
151847901925,-1.15574,-1.48561,1.11271
151847922136,-1.15521,-1.48562,1.11227
151847944696,-1.15521,-1.48562,1.11227
151847961113,-1.15521,-1.48562,1.11227
151847982100,-1.1543,-1.4867,1.11135
151848004673,-1.15247,-1.48567,1.10953
151848021144,-1.15249,-1.48667,1.10954
151848042139,-1.15155,-1.48675,1.1086
151848064651,-1.14972,-1.48571,1.10678
151848081137,-1.14972,-1.48571,1.10678
151848103659,-1.14921,-1.48673,1.10634
151848124654,-1.14696,-1.48575,1.10403
151848147220,-1.14696,-1.48575,1.10403
151848162232,-1.14645,-1.48677,1.10359
151848184739,-1.1442,-1.48579,1.10127
151848201183,-1.14423,-1.48679,1.10128
151848222252,-1.14423,-1.48679,1.10128
151848244737,-1.14186,-1.48577,1.09901
151848261168,-1.14186,-1.48577,1.09901
151848282240,-1.14188,-1.48677,1.09902
151848304729,-1.13964,-1.48579,1.0967
151848328639,-1.13909,-1.48581,1.09625
151848342216,-1.13912,-1.48681,1.09625
151848364658,-1.13912,-1.48681,1.09625
151848381098,-1.13687,-1.48583,1.09394
151848402236,-1.13635,-1.48685,1.09348
151848424694,-1.13452,-1.48581,1.09168
151848440487,-1.13455,-1.48681,1.09168
151848462170,-1.13455,-1.48681,1.09168
151848484410,-1.12999,-1.48557,1.08732
151848501138,-1.12838,-1.48534,1.0857
151848522201,-1.12667,-1.48507,1.08416
151848544682,-1.1228,-1.48482,1.08037
151848561120,-1.12058,-1.48456,1.07841
151848582171,-1.11882,-1.48354,1.07666
151848604739,-1.11884,-1.48452,1.07667
151848620510,-1.11653,-1.48352,1.07446
151848642234,-1.11655,-1.48449,1.07447
151848664748,-1.11613,-1.48456,1.07395
151848680558,-1.11613,-1.48456,1.07395
151848702185,-1.11437,-1.48354,1.07221
151848724760,-1.11381,-1.48356,1.07174
151848740542,-1.11384,-1.48453,1.07175
151848763679,-1.11208,-1.48352,1.07001
151848784814,-1.11208,-1.48352,1.07001
151848800520,-1.1121,-1.48449,1.07002
151848823615,-1.10992,-1.48354,1.06776
151848844724,-1.10992,-1.48354,1.06776
151848860462,-1.10938,-1.48453,1.0673
151848883629,-1.10763,-1.48351,1.06556
151848904683,-1.10766,-1.48449,1.06557
151848920514,-1.10766,-1.48449,1.06557
151848943665,-1.1059,-1.48347,1.06384
151848964659,-1.10549,-1.48451,1.06332
151848980466,-1.10549,-1.48451,1.06332
151849003616,-1.10318,-1.48351,1.06111
151849024728,-1.10318,-1.48351,1.06111
151849048665,-1.10321,-1.48448,1.06112
151849063711,-1.10146,-1.48347,1.05939
151849084732,-1.10146,-1.48347,1.05939
151849100479,-1.10149,-1.48444,1.0594
151849123683,-1.09975,-1.48343,1.05768
151849144846,-1.09918,-1.48345,1.0572
151849160502,-1.09876,-1.48448,1.05668
151849183656,-1.09702,-1.48346,1.05495
151849204765,-1.09702,-1.48346,1.05495
151849220517,-1.09705,-1.48444,1.05496
151849243628,-1.09648,-1.48445,1.05448
151849264811,-1.09474,-1.48344,1.05276
151849280495,-1.09432,-1.48447,1.05223
151849303761,-1.09432,-1.48447,1.05223
151849324769,-1.09258,-1.48346,1.05051
151849340568,-1.09258,-1.48346,1.05051
151849363700,-1.09261,-1.48443,1.05052
151849384716,-1.09261,-1.48443,1.05052
151849400534,-1.09204,-1.48445,1.05004
151849423854,-1.0903,-1.48343,1.04832
151849446126,-1.09033,-1.48441,1.04833
151849460483,-1.08988,-1.48447,1.04779
151849483734,-1.08815,-1.48345,1.04608
151849504735,-1.08815,-1.48345,1.04608
151849520497,-1.08815,-1.48345,1.04608
151849543641,-1.08757,-1.48347,1.04559
151849564679,-1.0876,-1.48444,1.0456
151849580457,-1.0876,-1.48444,1.0456
151849602949,-1.08714,-1.4845,1.04506
151849624701,-1.08541,-1.48348,1.04334
151849640454,-1.08483,-1.4835,1.04285
151849663010,-1.08486,-1.48447,1.04286
151849686152,-1.08486,-1.48447,1.04286
151849700509,-1.08486,-1.48447,1.04286
151849722998,-1.08341,-1.4842,1.04158
151849746134,-1.08194,-1.48295,1.0403
151849760543,-1.08432,-1.4827,1.04293
151849783046,-1.08512,-1.48245,1.04382
151849806242,-1.08382,-1.48221,1.04251
151849820562,-1.08418,-1.48202,1.04286
151849851165,-1.0833,-1.48078,1.04209
151849866175,-1.08254,-1.48063,1.0415
151849880530,-1.08291,-1.48043,1.04186
151849902998,-1.08196,-1.4801,1.04117
151849926216,-1.08319,-1.47979,1.04256
151849940503,-1.08373,-1.47946,1.04354
151849963045,-1.08253,-1.47814,1.04296
151849986177,-1.08331,-1.47759,1.04433
151850000531,-1.08449,-1.47699,1.0462
151850023083,-1.08576,-1.47642,1.04798
151850046176,-1.0865,-1.47488,1.04907
151850060490,-1.08834,-1.47346,1.05117
151850082989,-1.08914,-1.47295,1.0524
151850106127,-1.08981,-1.47241,1.05368
151850120509,-1.09057,-1.47106,1.05487
151850143027,-1.09203,-1.4707,1.05659
151850166184,-1.09314,-1.47026,1.05848
151850187207,-1.09222,-1.46911,1.05782
151850203010,-1.09412,-1.46885,1.06016
151850226234,-1.09267,-1.4688,1.0587
151850247235,-1.09282,-1.4687,1.05929
151850262974,-1.09282,-1.4687,1.05929
151850286258,-1.09276,-1.46894,1.05888
151850307338,-1.08713,-1.46965,1.05152
151850323081,-1.08444,-1.4712,1.04683
151850346194,-1.08133,-1.47177,1.04312
151850367283,-1.07931,-1.47229,1.04102
151850383014,-1.07859,-1.47267,1.04032
151850406183,-1.07649,-1.47391,1.03804
151850427285,-1.07225,-1.47413,1.03363
151850443013,-1.07184,-1.47418,1.03312
151850466176,-1.07065,-1.47419,1.03228
151850487209,-1.07089,-1.47508,1.03303
151850503019,-1.06892,-1.47422,1.03099
151850525540,-1.06892,-1.47422,1.03099
151850547208,-1.06892,-1.47422,1.03099
151850563015,-1.06841,-1.47511,1.03055
151850585545,-1.06841,-1.47511,1.03055
151850607199,-1.06798,-1.47517,1.03004
151850622969,-1.0699,-1.47502,1.03196
151850645586,-1.06888,-1.47394,1.03077
151850668755,-1.06827,-1.47282,1.03009
151850683081,-1.0692,-1.47261,1.03093
151850705593,-1.06909,-1.4733,1.03089
151850728840,-1.06691,-1.47211,1.0288
151850743030,-1.06422,-1.47095,1.02629
151850765932,-1.06241,-1.47067,1.02491
151850788762,-1.06355,-1.47118,1.02638
151850803001,-1.06214,-1.47001,1.0255
151850832227,-1.06273,-1.4697,1.02652
151850848728,-1.06221,-1.46972,1.02609
151850863053,-1.06221,-1.46972,1.02609
151850885547,-1.06461,-1.47067,1.02856
151850908788,-1.06566,-1.4709,1.02962
151850923102,-1.06725,-1.47112,1.03112
151850945539,-1.06939,-1.47145,1.03318
151850968804,-1.07146,-1.4726,1.03533
151850991194,-1.07258,-1.47284,1.03645
151851005598,-1.07468,-1.47314,1.03864
151851028761,-1.07835,-1.47435,1.04239
151851043073,-1.07993,-1.47453,1.04406
151851072258,-1.08141,-1.47468,1.04581
151851088763,-1.08408,-1.47482,1.04839
151851103063,-1.08582,-1.47503,1.05004
151851125612,-1.08824,-1.47614,1.05211
151851148787,-1.09251,-1.47632,1.0563
151851169804,-1.09576,-1.47654,1.05964
151851185588,-1.10037,-1.47779,1.06407
151851208798,-1.10525,-1.47704,1.06879
151851229805,-1.10845,-1.47738,1.07165
151851245623,-1.11154,-1.4785,1.07429
151851268779,-1.11216,-1.47786,1.07431
151851297327,-1.11361,-1.47803,1.07534
151851305583,-1.1161,-1.47914,1.07764
151851328739,-1.11712,-1.47943,1.07858
151851349807,-1.1209,-1.48098,1.08218
151851365531,-1.12231,-1.48044,1.083
151851388761,-1.12417,-1.48179,1.08477
151851409814,-1.12517,-1.48198,1.08543
151851425503,-1.12737,-1.48217,1.08693
151851448752,-1.12737,-1.48217,1.08693
151851469838,-1.12985,-1.48227,1.08898
151851484851,-1.12715,-1.48255,1.08611
151851499140,-1.12267,-1.48283,1.0819
151851521628,-1.11868,-1.4831,1.07808
151851544805,-1.1138,-1.48445,1.07319
151851559213,-1.10639,-1.48576,1.06603
151851581655,-1.09944,-1.48615,1.05953
151851604825,-1.08857,-1.48739,1.04943
151851619107,-1.08156,-1.48866,1.04327
151851641677,-1.07129,-1.48878,1.03397
151851664818,-1.06393,-1.48889,1.02739
151851679202,-1.0548,-1.48901,1.01887
151851701658,-1.04856,-1.49013,1.01323
151851724873,-1.04056,-1.49021,1.00566
151851739110,-1.03678,-1.49141,1.00221
151851761672,-1.03678,-1.49141,1.00221
151851784812,-1.03495,-1.49031,1.0004
151851800524,-1.03429,-1.49032,0.999833
151851821610,-1.03429,-1.49032,0.999833
151851844756,-1.03378,-1.49144,0.999215
151851859127,-1.03105,-1.49028,0.996942
151851890405,-1.03023,-1.49145,0.996449
151851904788,-1.03023,-1.49145,0.996449
151851919099,-1.02476,-1.49163,0.990987
151851941589,-1.02476,-1.49163,0.990987
151851964754,-1.02409,-1.49165,0.990401
151851979094,-1.01757,-1.49179,0.983618
151852001574,-1.00853,-1.4919,0.974407
151852024744,-0.998951,-1.4919,0.964657
151852039112,-0.991288,-1.49197,0.956647
151852061589,-0.981988,-1.49203,0.946825
151852084772,-0.974699,-1.49222,0.938669
151852099235,-0.964888,-1.49131,0.927574
151852121659,-0.95248,-1.49029,0.914318
151852144720,-0.938954,-1.49149,0.900248
151852159160,-0.925944,-1.49156,0.887327
151852181608,-0.912107,-1.49168,0.874017
151852204870,-0.896766,-1.49302,0.859356
151852219137,-0.883356,-1.49432,0.846886
151852241608,-0.863837,-1.49446,0.828592
151852264810,-0.848917,-1.49587,0.814876
151852279143,-0.832676,-1.49618,0.799951
151852301686,-0.81604,-1.49751,0.784601
151852324763,-0.801623,-1.49907,0.771214
151852339120,-0.787566,-1.49941,0.758296
151852363110,-0.774104,-1.50093,0.745862
151852384844,-0.759489,-1.50256,0.732014
151852399083,-0.746866,-1.50294,0.720443
151852421583,-0.734502,-1.50466,0.709194
151852444823,-0.722117,-1.50504,0.697773
151852459190,-0.710858,-1.50528,0.687388
151852481687,-0.702076,-1.50684,0.679543
151852504129,-0.690904,-1.5085,0.669309
151852519131,-0.677693,-1.50875,0.657057
151852541646,-0.669444,-1.51042,0.649485
151852564061,-0.660446,-1.50924,0.64112
151852579187,-0.659241,-1.50926,0.640002
151852601708,-0.659241,-1.50926,0.640002
151852624131,-0.658168,-1.51068,0.638821
151852639194,-0.658168,-1.51068,0.638821
151852661698,-0.651759,-1.51095,0.632329
151852684233,-0.645826,-1.51106,0.626485
151852699174,-0.637918,-1.51274,0.618731
151852721589,-0.635518,-1.51279,0.616332
151852744086,-0.635486,-1.51136,0.616323
151852759112,-0.639805,-1.51287,0.620274
151852781625,-0.650595,-1.51102,0.630298
151852804207,-0.66736,-1.50899,0.646207
151852819076,-0.685966,-1.50832,0.664194
151852849785,-0.701297,-1.50629,0.679448
151852864088,-0.712601,-1.50594,0.691008
151852879087,-0.71199,-1.50563,0.691
151852901587,-0.706317,-1.50547,0.685845
151852924101,-0.69786,-1.50523,0.678165
151852939093,-0.688583,-1.50506,0.669406
151852961580,-0.675432,-1.50485,0.656339
151852984096,-0.662413,-1.50337,0.643423
151852999098,-0.651085,-1.50321,0.632178
151853021600,-0.639885,-1.5043,0.621044
151853052990,-0.629257,-1.50273,0.610083
151853059169,-0.624555,-1.5024,0.604855
151853081739,-0.624048,-1.50076,0.603841
151853104119,-0.625821,-1.50033,0.604739
151853119070,-0.628373,-1.49867,0.606695
151853141620,-0.632431,-1.49831,0.610399
151853164115,-0.635259,-1.49679,0.613154
151853179246,-0.640292,-1.49645,0.618181
151853201717,-0.64832,-1.49499,0.626397
151853224036,-0.655062,-1.4946,0.633739
151853239135,-0.666345,-1.49543,0.645433
151853261604,-0.676841,-1.49392,0.656634
151853284191,-0.68333,-1.49355,0.66433
151853299108,-0.691105,-1.49346,0.672624
151853321650,-0.701478,-1.49455,0.683848
151853344135,-0.701742,-1.4946,0.684546
151853359164,-0.701742,-1.4946,0.684546
151853381656,-0.701742,-1.4946,0.684546
151853404168,-0.701742,-1.4946,0.684546
151853420571,-0.700139,-1.4936,0.682613
151853441581,-0.703808,-1.49479,0.686356
151853464135,-0.702942,-1.49373,0.685417
151853480563,-0.702032,-1.49484,0.68458
151853501598,-0.706989,-1.4948,0.689536
151853524094,-0.713596,-1.49468,0.696315
151853546687,-0.721909,-1.4945,0.704799
151853561685,-0.730128,-1.49323,0.713203
151853584247,-0.735604,-1.4931,0.71911
151853600639,-0.745663,-1.49305,0.729601
151853621619,-0.752494,-1.49405,0.737025
151853644194,-0.760373,-1.49399,0.745077
151853666701,-0.766744,-1.49385,0.751619
151853681679,-0.771311,-1.49268,0.756544
151853704180,-0.77599,-1.49261,0.761395
151853720632,-0.779057,-1.49245,0.764807
151853741650,-0.782106,-1.4923,0.7682
151853765576,-0.786742,-1.49209,0.77318
151853780612,-0.789646,-1.49179,0.776773
151853804551,-0.794086,-1.49143,0.781903
151853824096,-0.800045,-1.49114,0.788378
151853840599,-0.802172,-1.4896,0.791115
151853861600,-0.8066,-1.48926,0.795886
151853884113,-0.808008,-1.48779,0.797645
151853900575,-0.814864,-1.48755,0.805536
151853921629,-0.817832,-1.48718,0.808502
151853944161,-0.82066,-1.4868,0.8115
151853962086,-0.823509,-1.48543,0.814353
151853981651,-0.828524,-1.4851,0.819279
151854004208,-0.83136,-1.48376,0.821946
151854020615,-0.836212,-1.4845,0.826877
151854044541,-0.840215,-1.48442,0.831225
151854064237,-0.848686,-1.48334,0.840825
151854080681,-0.85536,-1.48327,0.849486
151854101639,-0.872779,-1.48329,0.870102
151854124174,-0.894169,-1.48326,0.895206
151854140660,-0.91289,-1.48317,0.91695
151854161758,-0.92963,-1.48265,0.935506
151854184209,-0.942208,-1.48127,0.949551
151854200660,-0.955558,-1.48076,0.963422
151854221720,-0.968034,-1.47921,0.976762
151854244198,-0.980953,-1.47612,0.989851
151854268117,-0.980836,-1.47232,0.989045
151854281655,-0.975597,-1.47023,0.983807
151854305690,-0.97043,-1.46861,0.97916
151854320566,-0.973861,-1.46852,0.983541
151854343060,-0.97907,-1.46778,0.989524
151854364247,-0.983181,-1.46877,0.994763
151854380647,-0.987164,-1.4691,0.999955
151854403098,-0.993207,-1.46943,1.00695
151854424163,-0.998534,-1.4705,1.01297
151854440632,-1.00284,-1.46969,1.01831
151854463096,-1.00846,-1.46845,1.02427
151854484160,-1.01311,-1.46795,1.02919
151854502114,-1.01659,-1.46623,1.03224
151854523113,-1.01854,-1.4635,1.03203
151854544214,-1.01685,-1.45912,1.02765
151854560583,-1.01763,-1.45588,1.02542
151854583135,-1.01941,-1.45267,1.02321
151854612381,-1.02178,-1.45069,1.02126
151854620583,-1.03,-1.44698,1.02611
151854643159,-1.03736,-1.44396,1.02984
151854664202,-1.03631,-1.44168,1.02524
151854680623,-1.04791,-1.43984,1.03382
151854703165,-1.05698,-1.4396,1.04236
151854724165,-1.07199,-1.43875,1.05651
151854740734,-1.08571,-1.43763,1.06858
151854763157,-1.09965,-1.43635,1.08053
151854784233,-1.11556,-1.43478,1.09583
151854808112,-1.13437,-1.43268,1.11534
151854823108,-1.15786,-1.43126,1.13935
151854844149,-1.17822,-1.42737,1.15962
151854860580,-1.20223,-1.42442,1.18301
151854890618,-1.2205,-1.42385,1.20042
151854904155,-1.24,-1.42299,1.21958
151854920630,-1.26303,-1.42259,1.23958
151854943111,-1.29117,-1.42289,1.26269
151854964181,-1.31184,-1.4239,1.27791
151854980729,-1.34605,-1.42455,1.30234
151855004521,-1.37428,-1.42661,1.32668
151855024239,-1.40115,-1.42814,1.35277
151855039886,-1.41727,-1.43073,1.3689
151855062388,-1.42991,-1.43466,1.3799
151855086242,-1.43984,-1.43704,1.38863
151855099813,-1.45201,-1.44012,1.4002
151855122336,-1.46392,-1.44424,1.41037
151855144807,-1.47984,-1.44738,1.425
151855159807,-1.49498,-1.45017,1.43972
151855182261,-1.51156,-1.45156,1.45526
151855204762,-1.52147,-1.45362,1.46413
151855219833,-1.53057,-1.45535,1.47255
151855242392,-1.53991,-1.45678,1.48172
151855264914,-1.54867,-1.45742,1.48979
151855279908,-1.55701,-1.45888,1.49657
151855302289,-1.56112,-1.45863,1.49913
151855324843,-1.56667,-1.45904,1.50337
151855339866,-1.57323,-1.45897,1.50873
151855362428,-1.58248,-1.46046,1.5172
151855384882,-1.59149,-1.46109,1.52587
151855401277,-1.59715,-1.46256,1.53144
151855422283,-1.60279,-1.46311,1.53725
151855444878,-1.60837,-1.46509,1.54335
151855461347,-1.61347,-1.46621,1.54959
151855482461,-1.6155,-1.46733,1.55265
151855504842,-1.61717,-1.46915,1.55589
151855521360,-1.61016,-1.47041,1.55043
151855542384,-1.60283,-1.47163,1.54483
151855564795,-1.59301,-1.47368,1.53726
151855581293,-1.58659,-1.47704,1.53267
151855602333,-1.57757,-1.47876,1.52572
151855624896,-1.56926,-1.48234,1.52027
151855641282,-1.56072,-1.48496,1.51458
151855662329,-1.54346,-1.48809,1.49948
151855684843,-1.51865,-1.49126,1.47675
151855701237,-1.48828,-1.49434,1.44829
151855722334,-1.46124,-1.49724,1.42341
151855744825,-1.42874,-1.49896,1.39393
151855761339,-1.3948,-1.50179,1.36431
151855782373,-1.33965,-1.50531,1.31279
151855804888,-1.29058,-1.50871,1.26717
151855821301,-1.23254,-1.51068,1.21285
151855842389,-1.15994,-1.51279,1.14361
151855864824,-1.08688,-1.51495,1.07306
151855882005,-1.00565,-1.51685,0.994679
151855902367,-0.918996,-1.51712,0.911397
151855924882,-0.837994,-1.51892,0.8335
151855941408,-0.747357,-1.51739,0.746062
151855962382,-0.65824,-1.51732,0.659362
151855984799,-0.57196,-1.51707,0.575067
151856001291,-0.496938,-1.51671,0.501688
151856022343,-0.431933,-1.51459,0.437715
151856046297,-0.374022,-1.51394,0.380844
151856061269,-0.321925,-1.51172,0.329606
151856082299,-0.278878,-1.51093,0.287775
151856104835,-0.241762,-1.50894,0.251431
151856121320,-0.209012,-1.50692,0.219279
151856142408,-0.177105,-1.50627,0.187552
151856164833,-0.14944,-1.504,0.159625
151856181314,-0.128626,-1.50183,0.138721
151856202188,-0.098852,-1.50058,0.107835
151856224843,-0.116726,-1.50054,0.124672
151856240646,-0.116326,-1.49844,0.127383
151856262317,-0.119584,-1.49383,0.13168
151856292436,-0.193789,-1.48258,0.19569
151856300580,-0.294405,-1.47302,0.290947
151856331290,-0.288823,-1.46642,0.285797
151856346254,-0.272136,-1.46304,0.27032
151856360641,-0.223311,-1.46195,0.224089
151856383823,-0.139803,-1.46329,0.14378
151856406298,-0.00885941,-1.46519,0.0156875
151856420678,0.20853,-1.46762,-0.200498
151856443820,0.566671,-1.46582,-0.558636
151856464877,0.937574,-1.44855,-0.922521
151856480763,1.18902,-1.41785,-1.16478
151856503821,1.29073,-1.38786,-1.27531
151856524931,1.35909,-1.3646,-1.35137
151856540675,1.45121,-1.34586,-1.44817
151856563789,1.52136,-1.32668,-1.52962
151856584874,1.52543,-1.3214,-1.55962
151856607351,1.56034,-1.33639,-1.60302
151856623814,1.60016,-1.36539,-1.64971
151856644922,1.63384,-1.40498,-1.68937
151856660629,1.68263,-1.44343,-1.74335
151856683761,1.74806,-1.48892,-1.80864
151856704816,2.02472,-1.54416,-2.08244
151856720644,-1.77345,-1.53483,1.71794
151856743759,-1.57553,-1.46992,1.52306
151856764828,-1.50684,-1.40342,1.4566
151856779292,-1.45356,-1.33566,1.40689
151856802383,-1.40239,-1.27072,1.36406
151856824819,-1.35815,-1.20837,1.32691
151856839298,-1.31186,-1.14927,1.29341
151856862336,-1.26564,-1.09657,1.2636
151856884834,-1.22679,-1.05352,1.23992
151856900684,-1.22862,-1.05689,1.25977
151856929994,-1.2301,-1.04277,1.26587
151856944811,-1.20532,-1.06146,1.22593
151856960721,-1.23892,-1.06378,1.23954
151856982394,-1.22962,-1.10662,1.25082
151857004884,-1.27252,-1.11872,1.28908
151857020737,-1.31882,-1.15885,1.36714
151857042369,-1.28544,-1.18986,1.34575
151857064916,-1.27105,-1.21703,1.34095
151857080772,-1.29189,-1.2406,1.35806
151857102371,-1.32572,-1.2487,1.39386
151857124859,-1.35585,-1.25869,1.43338
151857140708,-1.41195,-1.26742,1.49432
151857161726,-1.45094,-1.28023,1.53715
151857184919,-1.4763,-1.29649,1.56198
151857200740,-1.5025,-1.30867,1.58219
151857221851,-1.53905,-1.31928,1.6118
151857244901,-1.5832,-1.32926,1.6492
151857260675,-1.61607,-1.34069,1.67499
151857281691,-1.64515,-1.35535,1.69508
151857304898,-1.67496,-1.37119,1.71669
151857320702,-1.70316,-1.39207,1.73653
151857341688,-1.74006,-1.41088,1.76682
151857364920,-1.79458,-1.43061,1.81734
151857380677,-1.87133,-1.44828,1.8895
151857401734,-1.95956,-1.46402,1.97521
151857424933,-2.10004,-1.47859,2.11724
151857440725,-2.30575,-1.4896,2.32572
151857461780,-2.56505,-1.49703,2.58482
151857484929,-2.84645,-1.49631,2.86873
151857500728,-3.12668,-1.48897,-3.13092
151857521820,2.92873,-1.47717,-2.89988
151857544855,2.74651,-1.45779,-2.71338
151857560675,2.60049,-1.43732,-2.56226
151857581695,2.48704,-1.41287,-2.44478
151857604878,2.39596,-1.38754,-2.35366
151857620631,2.32629,-1.36151,-2.28688
151857641738,2.26393,-1.33743,-2.23125
151857664914,2.21715,-1.31329,-2.19312
151857680744,2.15029,-1.28,-2.13957
151857701743,2.09611,-1.24105,-2.09567
151857724922,2.05161,-1.1958,-2.06435
151857740664,2.00293,-1.14276,-2.04109
151857763213,1.95954,-1.0857,-2.02749
151857786338,1.92788,-1.0224,-2.0147
151857807454,1.92476,-0.93906,-2.00151
151857823195,1.96804,-0.855513,-2.00831
151857846401,1.96831,-0.817526,-1.99764
151857867402,1.96685,-0.805537,-1.98611
151857883225,1.94998,-0.820964,-1.95666
151857906329,2.02171,-0.822614,-2.00057
151857927398,2.0183,-0.851182,-2.00465
151857943172,2.01326,-0.903774,-1.99847
151857966275,1.99909,-0.977418,-1.987
151857987430,1.99523,-1.05959,-1.97899
151858003194,1.99919,-1.15188,-1.97713
151858026392,2.0135,-1.2529,-1.98526
151858047409,2.06474,-1.36087,-2.02247
151858063184,2.23305,-1.47407,-2.17652
151858086332,-1.95475,-1.53309,2.02336
151858107405,-1.34923,-1.41698,1.43184
151858123190,-1.25591,-1.30238,1.34739
151858145754,-1.21877,-1.18886,1.31789
151858167380,-1.19383,-1.092,1.29828
151858183175,-1.16608,-1.01923,1.28582
151858205729,-1.13164,-0.968472,1.2811
151858228807,-1.11627,-0.95297,1.28281
151858243165,-1.14707,-0.984497,1.29553
151858265652,-1.23194,-1.01288,1.30172
151858288980,-1.21784,-1.05139,1.33642
151858303204,-1.25603,-1.0714,1.37404
151858325765,-1.28576,-1.14061,1.43052
151858348898,-1.2877,-1.16277,1.4459
151858369885,-1.32626,-1.19985,1.48442
151858385714,-1.37546,-1.2264,1.53209
151858408835,-1.41607,-1.24051,1.57594
151858423213,-1.45497,-1.25339,1.61643
151858453875,-1.49642,-1.26567,1.6565
151858468858,-1.53611,-1.28203,1.68952
151858483639,-1.56734,-1.30466,1.71046
151858505763,-1.59226,-1.32967,1.72164
151858536398,-1.62013,-1.3538,1.73916
151858549926,-1.66044,-1.37778,1.7708
151858565756,-1.71826,-1.4019,1.82077
151858588847,-1.79648,-1.42257,1.89442
151858601714,-1.89975,-1.44387,1.99431
151858624895,-2.03606,-1.46343,2.12944
151858639257,-2.24305,-1.47877,2.3377
151858661848,-2.5064,-1.48672,2.60484
151858684975,-2.79803,-1.48803,2.90157
151858699317,-3.06516,-1.47984,-3.10898
151858721769,3.00003,-1.46808,-2.88522
151858745027,2.82079,-1.45095,-2.69912
151858759350,2.69265,-1.43172,-2.56419
151858781814,2.58005,-1.40637,-2.44438
151858804953,2.48298,-1.37824,-2.34236
151858819264,2.40088,-1.35048,-2.2574
151858841807,2.32689,-1.3161,-2.18265
151858865363,2.2589,-1.27967,-2.11858
151858879278,2.19657,-1.23787,-2.06668
151858901835,2.13214,-1.19107,-2.02132
151858924938,2.07689,-1.13739,-1.99431
151858939266,2.02139,-1.07188,-1.97766
151858961812,1.97891,-1.00523,-1.95006
151858984957,2.00595,-0.905797,-1.95262
151858999305,2.0582,-0.829697,-1.97002
151859021834,2.02041,-0.823635,-1.94771
151859044984,2.00867,-0.815102,-1.95313
151859059315,2.04477,-0.809035,-1.98665
151859081800,1.99182,-0.836024,-1.94039
151859104986,1.99302,-0.864718,-1.96303
151859119259,1.98237,-0.925446,-1.96772
151859141776,1.97954,-0.997076,-1.97306
151859164994,1.99039,-1.08551,-1.98647
151859179347,2.01394,-1.18614,-2.00796
151859201769,2.06497,-1.29611,-2.05443
151859224976,2.19123,-1.41368,-2.18023
151859239204,2.95264,-1.5214,-2.94451
151859261818,-1.57809,-1.45652,1.5844
151859284887,-1.38155,-1.33172,1.38486
151859299261,-1.31828,-1.21149,1.32854
151859321820,-1.27567,-1.10002,1.30052
151859344959,-1.22681,-1.01653,1.27492
151859359276,-1.17589,-0.959255,1.26426
151859381855,-1.12093,-0.927114,1.25296
151859404949,-1.11811,-0.95203,1.25959
151859419308,-1.15704,-0.922055,1.15485
151859441753,-1.17272,-0.969845,1.21582
151859464950,-1.22137,-0.978154,1.25829
151859479196,-1.22137,-1.0355,1.26935
151859501764,-1.24935,-1.06302,1.31017
151859524895,-1.2996,-1.10023,1.36761
151859539206,-1.33975,-1.12788,1.41214
151859561760,-1.36678,-1.15189,1.43668
151859593097,-1.40123,-1.1696,1.46563
151859599233,-1.43223,-1.1906,1.4921
151859621781,-1.45612,-1.21524,1.50655
151859644907,-1.47098,-1.24124,1.51517
151859659226,-1.4903,-1.26614,1.52829
151859681745,-1.50908,-1.29064,1.54491
151859704914,-1.53466,-1.31524,1.5686
151859719234,-1.56815,-1.34052,1.60039
151859741738,-1.61276,-1.36487,1.644
151859764861,-1.66885,-1.38787,1.6991
151859779211,-1.73282,-1.40978,1.76158
151859801790,-1.80644,-1.43146,1.83396
151859824928,-1.90191,-1.44899,1.92898
151859839256,-2.04909,-1.46675,2.07623
151859861780,-2.2419,-1.47933,2.26886
151859884927,-2.51868,-1.48896,2.54903
151859899297,-2.88698,-1.49395,2.9228
151859921776,3.01538,-1.48472,-2.9745
151859953093,2.68462,-1.46576,-2.64105
151859959245,2.48116,-1.43938,-2.43426
151859981788,2.35384,-1.40771,-2.30351
151860004951,2.26047,-1.37562,-2.21321
151860019243,2.18501,-1.33998,-2.15242
151860041755,2.10986,-1.29799,-2.09915
151860064891,2.05289,-1.25241,-2.06644
151860079288,2.00485,-1.20126,-2.03752
151860101741,1.9537,-1.14265,-2.01536
151860124261,1.91977,-1.07564,-1.99012
151860139256,1.95835,-1.00568,-1.99916
151860161739,1.95274,-0.96622,-1.99135
151860184245,1.9388,-0.950315,-1.9873
151860199271,1.94186,-0.940515,-1.98109
151860221798,1.95802,-0.944714,-1.9895
151860244355,1.89976,-0.992285,-1.92831
151860259259,1.89523,-1.03411,-1.91788
151860281779,1.88821,-1.08969,-1.90847
151860304269,1.87051,-1.15858,-1.88859
151860319267,1.85019,-1.2427,-1.86532
151860341775,1.81486,-1.3329,-1.8266
151860364323,1.74943,-1.42873,-1.7541
151860379196,1.44168,-1.52982,-1.43685
151860401765,-1.00136,-1.50295,1.02053
151860424267,-1.17069,-1.40627,1.20464
151860439304,-1.20389,-1.31568,1.26047
151860461787,-1.21601,-1.22606,1.28901
151860484312,-1.22208,-1.15191,1.29976
151860499263,-1.23751,-1.10238,1.3047
151860521768,-1.2164,-1.09553,1.29866
151860544288,-1.27531,-1.10522,1.32126
151860559286,-1.23597,-1.11215,1.3241
151860581758,-1.19206,-1.13587,1.31341
151860604263,-1.14736,-1.14343,1.2526
151860619264,-1.16324,-1.15081,1.27353
151860641747,-1.16528,-1.15919,1.27123
151860664288,-1.19338,-1.16166,1.29471
151860679284,-1.22499,-1.17192,1.32437
151860701793,-1.24603,-1.18853,1.34568
151860724272,-1.25135,-1.20851,1.35336
151860739250,-1.25647,-1.22492,1.36053
151860761760,-1.26932,-1.23668,1.37633
151860784272,-1.28248,-1.24785,1.39361
151860799297,-1.29444,-1.26024,1.40765
151860821862,-1.30015,-1.27306,1.41542
151860844306,-1.30583,-1.28617,1.42108
151860859337,-1.3118,-1.29839,1.42704
151860881859,-1.31807,-1.30919,1.43209
151860904393,-1.32029,-1.31992,1.43405
151860919428,-1.32008,-1.33139,1.43612
151860941804,-1.32392,-1.34034,1.44016
151860964352,-1.32836,-1.34859,1.44663
151860980758,-1.33075,-1.35805,1.45044
151861001869,-1.32996,-1.36858,1.45124
151861024420,-1.32821,-1.3797,1.45046
151861040726,-1.32286,-1.39006,1.44566
151861061813,-1.31573,-1.40164,1.4416
151861084266,-1.30418,-1.41359,1.43432
151861100723,-1.2929,-1.42497,1.42819
151861121735,-1.27436,-1.43655,1.41419
151861144239,-1.25723,-1.44704,1.39901
151861160738,-1.22614,-1.4575,1.36944
151861181791,-1.1867,-1.4663,1.33047
151861204318,-1.14271,-1.47492,1.28785
151861220749,-1.09309,-1.48164,1.23964
151861241810,-1.04406,-1.48878,1.19279
151861264334,-0.984791,-1.49415,1.13484
151861280788,-0.909196,-1.49997,1.06004
151861301841,-0.818898,-1.50514,0.969917
151861318272,-0.717054,-1.50878,0.867169
151861340826,-0.6183,-1.51061,0.767409
151861361845,-0.513268,-1.51363,0.662795
151861378329,-0.402355,-1.51543,0.552449
151861400797,-0.288454,-1.51728,0.438601
151861421878,-0.18603,-1.51698,0.335856
151861438286,-0.104831,-1.51704,0.253899
151861460812,-0.0305595,-1.51513,0.179572
151861481818,0.0249148,-1.51403,0.122673
151861498257,0.0650188,-1.5124,0.0797698
151861520737,0.0995751,-1.50987,0.0428552
151861541749,0.118046,-1.50769,0.0222297
151861558272,0.12921,-1.50613,0.00918081
151861580765,0.142009,-1.5044,-0.00482477
151861601794,0.156315,-1.50412,-0.0202874
151861618266,0.17727,-1.50433,-0.0419182
151861640740,0.198236,-1.50355,-0.0635463
151861661833,0.215368,-1.50303,-0.0810455
151861678308,0.234008,-1.5031,-0.099369
151861700763,0.247415,-1.50259,-0.113252
151861721889,0.253309,-1.50213,-0.119628
151861738271,0.260285,-1.502,-0.126586
151861760889,0.263752,-1.50277,-0.130372
151861781818,0.266084,-1.50095,-0.133326
151861798306,0.271964,-1.50169,-0.139524
151861820749,0.282644,-1.49935,-0.151175
151861844781,0.299076,-1.50016,-0.167938
151861858260,0.309475,-1.50095,-0.178771
151861880762,0.322108,-1.50072,-0.190507
151861903215,0.339565,-1.50157,-0.207217
151861918231,0.345682,-1.50169,-0.213348
151861940822,0.352636,-1.50093,-0.21998
151861963299,0.355114,-1.50167,-0.22191
151861978307,0.358774,-1.50232,-0.225116
151862000796,0.362045,-1.50316,-0.227847
151862023258,0.371259,-1.50323,-0.235986
151862039809,0.379982,-1.50438,-0.243769
151862060821,0.389293,-1.50427,-0.252197
151862083254,0.39846,-1.50563,-0.260224
151862099741,0.405503,-1.50556,-0.266387
151862120796,0.407728,-1.50574,-0.267542
151862150824,0.411999,-1.507,-0.27087
151862160345,0.415682,-1.5067,-0.273863
151862180827,0.415048,-1.50766,-0.272575
151862202460,0.414461,-1.5075,-0.271317
151862218338,0.409647,-1.51018,-0.265476
151862240079,0.40631,-1.50943,-0.26196
151862262503,0.398473,-1.5102,-0.253772
151862278806,0.394437,-1.51144,-0.24899
151862300087,0.38845,-1.51218,-0.242758
151862322447,0.382287,-1.51292,-0.236352
151862338805,0.376603,-1.51368,-0.230308
151862359974,0.367673,-1.51426,-0.221223
151862382478,0.357512,-1.51452,-0.2111
151862398920,0.347165,-1.51477,-0.200791
151862419986,0.34065,-1.51532,-0.194118
151862442534,0.337201,-1.51738,-0.190282
151862458329,0.332588,-1.51759,-0.185698
151862480086,0.327781,-1.51625,-0.181151
151862502593,0.32331,-1.51826,-0.176274
151862518351,0.313744,-1.51862,-0.166638
151862540044,0.308955,-1.51907,-0.161672
151862562532,0.3072,-1.51926,-0.159944
151862578910,0.305581,-1.5197,-0.158144
151862599976,0.298982,-1.51974,-0.151551
151862622454,0.298137,-1.51996,-0.150616
151862646442,0.294113,-1.52045,-0.146294
151862659966,0.293965,-1.52075,-0.146068
151862682496,0.294709,-1.5214,-0.146536
151862698963,0.291907,-1.51983,-0.143999
151862719923,0.288595,-1.52209,-0.14015
151862742533,0.28157,-1.52043,-0.133384
151862758926,0.277605,-1.52291,-0.128654
151862780107,0.273974,-1.52266,-0.125237
151862802469,0.26688,-1.52097,-0.118404
151862820057,0.266003,-1.52292,-0.117178
151862840053,0.266003,-1.52292,-0.117178
151862862550,0.269499,-1.5229,-0.120672
151862878283,0.269499,-1.5229,-0.120672
151862900649,0.271167,-1.52276,-0.122444
151862922574,0.272855,-1.52116,-0.124283
151862938350,0.272855,-1.52116,-0.124283
151862959993,0.276342,-1.52114,-0.127768
151862982487,0.276342,-1.52114,-0.127768
151862998241,0.279824,-1.52113,-0.131247
151863021397,0.279824,-1.52113,-0.131247
151863042547,0.283302,-1.52111,-0.134721
151863058283,0.283302,-1.52111,-0.134721
151863081432,0.287635,-1.5229,-0.138808
151863102570,0.287635,-1.5229,-0.138808
151863118273,0.291114,-1.52288,-0.142284
151863141436,0.291114,-1.52288,-0.142284
151863162502,0.292933,-1.523,-0.143996
151863178389,0.294452,-1.52114,-0.145876
151863201450,0.294452,-1.52114,-0.145876
151863222566,0.296268,-1.52126,-0.147585
151863238350,0.29792,-1.52112,-0.149341
151863261501,0.300641,-1.52305,-0.15171
151863282504,0.302295,-1.52291,-0.153469
151863298274,0.302295,-1.52291,-0.153469
151863321520,0.305763,-1.52289,-0.156935
151863342547,0.305763,-1.52289,-0.156935
151863358294,0.307579,-1.52301,-0.158643
151863381429,0.309091,-1.52114,-0.160516
151863402477,0.311849,-1.52308,-0.162923
151863418330,0.313499,-1.52293,-0.164677
151863441453,0.315316,-1.52305,-0.166387
151863462550,0.316963,-1.52291,-0.168137
151863478308,0.318777,-1.52303,-0.169845
151863501429,0.318777,-1.52303,-0.169845
151863522539,0.322232,-1.52301,-0.173297
151863538328,0.322232,-1.52301,-0.173297
151863561514,0.323872,-1.52287,-0.175041
151863582547,0.325681,-1.52299,-0.176744
151863598334,0.327183,-1.52112,-0.178603
151863621520,0.328989,-1.52124,-0.180303
151863642527,0.328989,-1.52124,-0.180303
151863658350,0.328989,-1.52124,-0.180303
151863681468,0.332427,-1.52122,-0.183737
151863702614,0.332427,-1.52122,-0.183737
151863718328,0.334058,-1.52108,-0.185471
151863741570,0.335859,-1.5212,-0.187166
151863762588,0.335859,-1.5212,-0.187166
151863778307,0.335859,-1.5212,-0.187166
151863800788,0.339285,-1.52118,-0.190588
151863822535,0.339285,-1.52118,-0.190588
151863838297,0.339285,-1.52118,-0.190588
151863867536,0.342704,-1.52116,-0.194004
151863882529,0.342704,-1.52116,-0.194004
151863898284,0.342704,-1.52116,-0.194004
151863920824,0.347175,-1.52294,-0.198231
151863944058,0.347175,-1.52294,-0.198231
151863958387,0.346118,-1.52113,-0.197414
151863980852,0.349525,-1.52111,-0.200818
151864003955,0.349525,-1.52111,-0.200818
151864018350,0.35221,-1.52277,-0.203367
151864040825,0.354004,-1.52289,-0.205054
151864064085,0.354004,-1.52289,-0.205054
151864078379,0.357409,-1.52287,-0.208456
151864100905,0.357409,-1.52287,-0.208456
151864123994,0.357409,-1.52287,-0.208456
151864146552,0.359709,-1.52104,-0.210991
151864160871,0.359709,-1.52104,-0.210991
151864183960,0.364199,-1.52282,-0.21524
151864198322,0.364199,-1.52282,-0.21524
151864220781,0.364199,-1.52282,-0.21524
151864243926,0.367584,-1.52279,-0.218622
151864258326,0.367584,-1.52279,-0.218622
151864280807,0.369365,-1.52291,-0.220296
151864304005,0.385826,-1.52133,-0.237027
151864318342,0.402422,-1.52121,-0.253852
151864340800,0.422706,-1.52277,-0.27411
151864363979,0.445187,-1.52325,-0.296288
151864378348,0.466972,-1.52314,-0.318304
151864400864,0.489166,-1.52279,-0.340818
151864424061,0.514576,-1.52436,-0.366326
151864445126,0.538955,-1.52282,-0.390855
151864460889,0.570046,-1.52444,-0.421928
151864483991,0.586744,-1.52436,-0.439965
151864505104,0.605348,-1.52291,-0.459708
151864520858,0.624572,-1.52379,-0.479425
151864543963,0.645758,-1.52475,-0.501115
151864565023,0.660164,-1.52254,-0.516046
151864580881,0.687898,-1.52487,-0.54437
151864603983,0.382458,-1.52678,-0.244825
151864625027,0.0746477,-1.52106,0.0430352
151864640783,0.242341,-1.52348,-0.13854
151864663936,0.577557,-1.51634,-0.482869
151864685047,0.982455,-1.49391,-0.889333
151864700827,1.31001,-1.46451,-1.22293
151864724042,1.49168,-1.42968,-1.37696
151864745101,1.49578,-1.40761,-1.33608
151864760813,1.35538,-1.40331,-1.16983
151864783350,1.08746,-1.40858,-0.880728
151864812534,0.823957,-1.40752,-0.56531
151864820814,0.576568,-1.40358,-0.229269
151864843357,0.39525,-1.39844,0.075271
151864866512,0.2675,-1.38462,0.335314
151864880878,0.219317,-1.36919,0.462866
151864903334,0.204258,-1.3648,0.51702
151864926484,0.176551,-1.37473,0.539707
151864940804,0.124601,-1.37662,0.539252
151864963389,0.164979,-1.3763,0.519693
151864986524,0.214728,-1.37685,0.487439
151865000907,0.1695,-1.36925,0.523324
151865023369,0.0919454,-1.37247,0.608611
151865046520,0.0179153,-1.39313,0.695696
151865060895,-0.11585,-1.41139,0.842715
151865083279,-0.180365,-1.4215,0.919544
151865106499,-0.244904,-1.42458,0.994787
151865120881,-0.323041,-1.42207,1.08361
151865143321,-0.418676,-1.42145,1.19076
151865166473,-0.507892,-1.42073,1.28647
151865187598,-0.589386,-1.42142,1.36393
151865203335,-0.653569,-1.41842,1.42578
151865226565,-0.711386,-1.41569,1.48427
151865247584,-0.776205,-1.40888,1.54816
151865263415,-0.826295,-1.40422,1.59789
151865286549,-0.889608,-1.39668,1.65835
151865309027,-0.950471,-1.38643,1.71982
151865331514,-0.954318,-1.3851,1.72035
151865346536,-0.991372,-1.37886,1.7493
151865367519,-0.99442,-1.38166,1.74803
151865383375,-0.977392,-1.38365,1.72917
151865414051,-0.978749,-1.38597,1.72879
151865427605,-0.97782,-1.38733,1.72541
151865443354,-0.981285,-1.38733,1.72673
151865466555,-0.974071,-1.38696,1.71717
151865487583,-0.971529,-1.38676,1.7139
151865503327,-0.965764,-1.38617,1.70977
151865526526,-0.947688,-1.3877,1.69215
151865549016,-0.930379,-1.39062,1.67331
151865563434,-0.909508,-1.39049,1.64822
151865586504,-0.887032,-1.39167,1.62006
151865607553,-0.8698,-1.39226,1.5958
151865623340,-0.846229,-1.39347,1.56662
151865646597,-0.808791,-1.39561,1.52389
151865667662,-0.764209,-1.39756,1.47475
151865683442,-0.712718,-1.40006,1.42015
151865705865,-0.652873,-1.40217,1.35717
151865720901,-0.602567,-1.40253,1.30182
151865743333,-0.563813,-1.40475,1.25937
151865764489,-0.531043,-1.40413,1.22177
151865780115,-0.503367,-1.40262,1.19024
151865802619,-0.475851,-1.39965,1.15657
151865816920,-0.461178,-1.397,1.13466
151865840054,-0.447452,-1.39514,1.11342
151865862641,-0.434278,-1.3939,1.09488
151865876870,-0.424006,-1.3949,1.08278
151865900063,-0.422526,-1.39651,1.07829
151865922560,-0.418261,-1.3999,1.07156
151865937583,-0.420712,-1.40303,1.07518
151865960059,-0.410562,-1.40417,1.06634
151865982637,-0.405643,-1.40539,1.06384
151865997594,-0.382243,-1.40875,1.03954
151866020105,-0.373099,-1.41089,1.02946
151866042638,-0.361091,-1.41551,1.0162
151866056912,-0.359525,-1.41943,1.00962
151866080049,-0.355402,-1.42252,1.00218
151866102581,-0.330653,-1.42594,0.976752
151866117545,-0.29028,-1.43102,0.933547
151866140078,-0.270489,-1.43644,0.908748
151866170775,-0.244938,-1.43842,0.87882
151866176900,-0.241675,-1.4364,0.870433
151866200177,-0.226352,-1.43863,0.850216
151866222568,-0.224109,-1.43982,0.843144
151866237560,-0.225334,-1.44136,0.841205
151866260085,-0.240832,-1.44131,0.853781
151866282548,-0.239934,-1.44311,0.85216
151866297593,-0.237619,-1.44478,0.849206
151866328241,-0.244321,-1.44661,0.854731
151866342562,-0.225214,-1.44709,0.834608
151866357000,-0.227654,-1.44808,0.835733
151866380124,-0.232594,-1.4486,0.840239
151866403053,-0.217437,-1.44842,0.82418
151866416921,-0.214932,-1.45099,0.823319
151866448257,-0.210892,-1.45326,0.820961
151866462588,-0.209764,-1.4544,0.819088
151866476927,-0.205659,-1.45626,0.813345
151866500101,-0.199261,-1.45734,0.804787
151866522552,-0.18923,-1.45949,0.792996
151866537015,-0.177641,-1.46004,0.777617
151866560080,-0.168422,-1.46006,0.762928
151866582594,-0.158803,-1.45981,0.747073
151866605079,-0.145079,-1.46061,0.726978
151866620086,-0.135181,-1.4615,0.710364
151866642617,-0.125516,-1.46197,0.692952
151866656953,-0.125967,-1.46174,0.683975
151866687623,-0.122817,-1.4615,0.673327
151866701864,-0.11705,-1.46236,0.662576
151866716987,-0.115027,-1.46221,0.655903
151866739444,-0.117277,-1.4619,0.654388
151866761941,-0.115062,-1.46217,0.648763
151866776925,-0.115683,-1.46185,0.646303
151866799489,-0.117389,-1.46067,0.645368
151866822052,-0.11827,-1.45925,0.643072
151866836989,-0.12402,-1.45827,0.645903
151866859480,-0.133476,-1.45648,0.650992
151866881938,-0.140651,-1.45633,0.653006
151866896905,-0.148068,-1.45375,0.654823
151866919450,-0.148592,-1.45183,0.650209
151866941969,-0.156302,-1.4492,0.651881
151866957012,-0.154646,-1.44705,0.645549
151866979480,-0.147905,-1.44645,0.632945
151867003418,-0.143622,-1.44476,0.623172
151867016979,-0.125825,-1.44343,0.601755
151867039471,-0.1104,-1.44137,0.582755
151867061913,-0.102392,-1.43996,0.572265
151867076932,-0.0858737,-1.43941,0.555102
151867099441,-0.0718467,-1.43931,0.53892
151867121958,-0.0566954,-1.43893,0.521639
151867139860,-0.0380272,-1.43836,0.501269
151867159436,-0.0189306,-1.43764,0.480332
151867181922,0.002049,-1.43603,0.458454
151867196897,0.0187157,-1.43511,0.439845
151867219422,0.0367204,-1.4344,0.419923
151867243304,0.0520055,-1.433,0.402201
151867256899,0.0651221,-1.43239,0.387054
151867279488,0.0771027,-1.43044,0.371788
151867302041,0.0825157,-1.42906,0.36359
151867325183,0.0917524,-1.42734,0.352571
151867339472,0.0980264,-1.42518,0.343934
151867362011,0.106757,-1.42378,0.333105
151867376938,0.11112,-1.42281,0.326481
151867407711,0.113988,-1.42152,0.321612
151867421979,0.117785,-1.41984,0.316104
151867436891,0.12158,-1.41774,0.308475
151867459524,0.119071,-1.41651,0.30776
151867490797,0.113856,-1.41432,0.310039
151867496896,0.110771,-1.41323,0.310848
151867519401,0.111207,-1.41261,0.308427
151867541948,0.105862,-1.41166,0.311751
151867556967,0.10032,-1.41072,0.315753
151867579463,0.0939033,-1.40916,0.320763
151867601862,0.0866486,-1.40804,0.326567
151867618428,0.0741798,-1.40691,0.337306
151867640839,0.0612979,-1.40504,0.348942
151867661881,0.0502555,-1.40397,0.35911
151867685821,0.0367258,-1.40188,0.371167
151867699460,0.0229342,-1.40018,0.383846
151867721953,0.00735213,-1.39825,0.398089
151867738459,-0.00834979,-1.39665,0.412536
151867767628,-0.0256633,-1.39432,0.427913
151867783447,-0.0439073,-1.39253,0.445251
151867798455,-0.0664623,-1.39326,0.47115
151867819539,-0.0806064,-1.39095,0.48443
151867841959,-0.0966955,-1.38907,0.499208
151867858364,-0.110222,-1.38655,0.510292
151867879486,-0.124484,-1.3844,0.52115
151867901914,-0.139535,-1.38213,0.534182
151867918405,-0.153984,-1.38147,0.54637
151867939491,-0.164477,-1.3804,0.55431
151867963403,-0.176387,-1.37918,0.564161
151867978380,-0.187947,-1.37777,0.573163
151867999500,-0.19626,-1.3768,0.58008
151868021929,-0.204259,-1.37641,0.58677
151868038461,-0.210476,-1.37605,0.591818
151868059506,-0.250675,-1.37831,0.638024
151868081983,-0.25334,-1.37756,0.639647
151868099856,-0.255766,-1.37767,0.642031
151868119491,-0.25691,-1.37795,0.642932
151868141957,-0.258508,-1.37783,0.644718
151868158416,-0.259234,-1.37793,0.645701
151868179481,-0.259081,-1.37847,0.64594
151868201990,-0.259358,-1.3789,0.646501
151868218433,-0.25844,-1.3793,0.645882
151868239511,-0.258018,-1.37912,0.64596
151868262047,-0.255884,-1.37942,0.644449
151868278382,-0.255492,-1.37935,0.643935
151868299571,-0.255426,-1.37976,0.64402
151868323410,-0.254686,-1.37938,0.643266
151868338467,-0.252682,-1.37943,0.640952
151868359500,-0.251651,-1.37892,0.639082
151868382078,-0.251016,-1.37847,0.63773
151868398433,-0.249631,-1.37788,0.635535
151868419502,-0.247734,-1.37781,0.632939
151868441953,-0.247096,-1.37759,0.631506
151868458454,-0.24528,-1.37712,0.628842
151868479467,-0.244986,-1.37665,0.628427
151868501911,-0.242304,-1.37654,0.625492
151868519898,-0.239234,-1.37616,0.62198
151868540928,-0.236545,-1.37599,0.619348
151868561953,-0.232326,-1.37565,0.615538
151868578440,-0.232044,-1.37517,0.615136
151868600926,-0.229304,-1.37512,0.612991
151868622047,-0.225335,-1.37513,0.610174
151868638451,-0.221166,-1.37444,0.607266
151868660874,-0.215237,-1.37451,0.602036
151868681990,-0.210632,-1.37405,0.597885
151868698450,-0.204276,-1.37411,0.593112
151868720918,-0.196017,-1.37387,0.586983
151868741953,-0.188108,-1.3735,0.581261
151868758412,-0.17901,-1.37348,0.574528
151868780950,-0.168367,-1.37352,0.566387
151868802029,-0.157686,-1.37269,0.558087
151868818408,-0.14616,-1.37168,0.548576
151868840855,-0.138025,-1.37091,0.541625
151868862004,-0.129735,-1.3697,0.533643
151868878421,-0.122844,-1.3688,0.526494
151868900918,-0.116633,-1.3664,0.519395
151868922011,-0.111085,-1.36452,0.512774
151868938523,-0.107955,-1.36184,0.507551
151868961006,-0.106097,-1.36,0.504326
151868990126,-0.102887,-1.35719,0.49985
151868998402,-0.0994392,-1.35489,0.495684
151869020956,-0.0956981,-1.35209,0.491148
151869041989,-0.0931843,-1.34998,0.487852
151869058478,-0.0903599,-1.34699,0.484341
151869080950,-0.0872689,-1.34451,0.481104
151869102028,-0.083345,-1.34174,0.477612
151869118437,-0.0771232,-1.33924,0.472436
151869142451,-0.0743488,-1.33707,0.469263
151869161982,-0.073007,-1.33449,0.467126
151869178428,-0.0691087,-1.33287,0.462145
151869201083,-0.0661588,-1.33031,0.458278
151869221996,-0.0609351,-1.32852,0.453979
151869238400,-0.0528809,-1.32671,0.447916
151869260985,-0.0443998,-1.32521,0.441902
151869281985,-0.0339526,-1.32379,0.433907
151869298437,-0.023985,-1.32318,0.427034
151869320862,-0.0147647,-1.32247,0.422377
151869341947,-0.00208219,-1.32204,0.416898
151869358368,0.0109792,-1.3214,0.41176
151869380142,0.0239578,-1.32157,0.406204
151869402604,0.0367569,-1.32117,0.399501
151869417661,0.0490586,-1.32099,0.392608
151869440103,0.062531,-1.32049,0.385097
151869462654,0.0752631,-1.32016,0.37828
151869477656,0.0886969,-1.31963,0.370974
151869500168,0.104052,-1.3191,0.361973
151869522679,0.117611,-1.31871,0.353582
151869537613,0.129949,-1.31778,0.34543
151869560365,0.141096,-1.31784,0.337886
151869584145,0.15291,-1.31777,0.329826
151869599094,0.165865,-1.31827,0.320287
151869620182,0.175613,-1.3191,0.312551
151869642715,0.186231,-1.31994,0.304335
151869659063,0.198443,-1.32131,0.29495
151869680235,0.212379,-1.32218,0.284156
151869702596,0.227276,-1.32283,0.271994
151869719105,0.241927,-1.32368,0.260139
151869740121,0.256506,-1.32444,0.248076
151869762659,0.269661,-1.32476,0.235869
151869779086,0.279471,-1.32597,0.225723
151869800118,0.286034,-1.32716,0.217756
151869822634,0.29221,-1.3292,0.20984
151869839056,0.296252,-1.33042,0.203295
151869860112,0.299201,-1.33101,0.198017
151869882618,0.300435,-1.33171,0.194585
151869899095,0.300716,-1.33252,0.193123
151869920166,0.299246,-1.33282,0.192985
151869942722,0.294946,-1.33332,0.19504
151869959193,0.290511,-1.33374,0.19694
151869980150,0.285884,-1.33426,0.199502
151870002633,0.283109,-1.33446,0.201099
151870019033,0.280328,-1.33382,0.202823
151870040167,0.276105,-1.33442,0.206539
151870062657,0.273376,-1.33466,0.208094
151870079154,0.272,-1.33552,0.206553
151870100161,0.267499,-1.33588,0.206353
151870122700,0.264655,-1.33577,0.20427
151870139080,0.261612,-1.33541,0.202737
151870160161,0.25949,-1.33513,0.201449
151870182654,0.257344,-1.33406,0.200274
151870199117,0.253825,-1.33369,0.201295
151870220119,0.25111,-1.33258,0.202416
151870250159,0.249725,-1.33182,0.203349
151870259050,0.249679,-1.33091,0.20351
151870280101,0.250091,-1.3301,0.203341
151870302645,0.252582,-1.32907,0.201709
151870319094,0.256832,-1.32798,0.199015
151870340168,0.261976,-1.32746,0.195793
151870362674,0.267391,-1.32694,0.192144
151870379115,0.274252,-1.32628,0.187143
151870400210,0.281885,-1.326,0.181496
151870422707,0.289573,-1.32518,0.175277
151870446653,0.297834,-1.32463,0.16832
151870460258,0.305874,-1.32405,0.16126
151870482718,0.313629,-1.32291,0.154126
151870498478,0.320503,-1.32234,0.148072
