timestamp,x,y,z,w
55073759665,-0.257141,0.234558,0.00970459,0.937378
55073767139,-0.272278,0.24353,0.0195923,0.930664
55073789667,-0.288269,0.250488,0.0218506,0.923889
55073804631,-0.311096,0.258972,0.0105591,0.914307
55073827197,-0.33844,0.262085,-0.0133667,0.903625
55073849662,-0.365479,0.249268,-0.0408325,0.895874
55073864674,-0.392456,0.225464,-0.0649414,0.889343
55073887206,-0.41748,0.206482,-0.088562,0.880432
55073909674,-0.443848,0.192139,-0.113342,0.867859
55073924684,-0.467529,0.184143,-0.13623,0.85376
55073947148,-0.487793,0.18634,-0.155945,0.83844
55073969700,-0.510681,0.196228,-0.166565,0.820312
55073984693,-0.530884,0.216064,-0.172668,0.801025
55074007180,-0.547119,0.241394,-0.178406,0.781372
55074029739,-0.556091,0.264648,-0.185181,0.765808
55074044701,-0.5578,0.282654,-0.187378,0.757507
55074067255,-0.561646,0.291504,-0.187805,0.751221
55074089686,-0.565002,0.290344,-0.195801,0.74707
55074104627,-0.571472,0.285767,-0.209412,0.740173
55074127187,-0.586792,0.281067,-0.220398,0.726685
55074149662,-0.60022,0.277832,-0.227295,0.714783
55074164705,-0.614807,0.272888,-0.222046,0.705872
55074187144,-0.622803,0.268311,-0.212952,0.70343
55074209681,-0.632263,0.266174,-0.216736,0.69458
55074224736,-0.638428,0.265625,-0.245667,0.679321
55074247205,-0.642151,0.256592,-0.273865,0.668396
55074270151,-0.646851,0.243164,-0.288879,0.662598
55074284680,-0.651489,0.232605,-0.299255,0.657166
55074307163,-0.650818,0.232971,-0.304626,0.655273
55074329646,-0.647705,0.245789,-0.306091,0.653015
55074344716,-0.642029,0.265381,-0.306335,0.650818
55074367211,-0.636353,0.281372,-0.30542,0.650085
55074389749,-0.631348,0.289246,-0.304077,0.6521
55074404690,-0.626404,0.289429,-0.30481,0.656433
55074427169,-0.622192,0.28595,-0.31012,0.659485
55074457172,-0.618469,0.28125,-0.316528,0.661987
55074472191,-0.615356,0.275757,-0.321411,0.664795
55074487107,-0.614319,0.268921,-0.323364,0.667603
55074509699,-0.615295,0.261536,-0.326782,0.66803
55074524721,-0.614929,0.249451,-0.334961,0.668884
55074547190,-0.615356,0.233032,-0.342773,0.670532
55074577195,-0.616028,0.216248,-0.348999,0.672302
55074592179,-0.613708,0.205444,-0.352478,0.675964
55074607136,-0.611023,0.199036,-0.354004,0.679504
55074629768,-0.609741,0.194336,-0.354431,0.681763
55074644759,-0.608337,0.187622,-0.356628,0.683777
55074667219,-0.609009,0.181152,-0.356079,0.685242
55074689695,-0.614075,0.176208,-0.352295,0.68396
55074704709,-0.616272,0.175781,-0.352783,0.681824
55074727135,-0.614746,0.17041,-0.354187,0.683777
55074749726,-0.612366,0.165466,-0.352478,0.688049
55074764795,-0.611511,0.165405,-0.347412,0.691345
55074787245,-0.61261,0.169067,-0.341919,0.6922
55074809685,-0.613831,0.174011,-0.338013,0.691895
55074825132,-0.615479,0.178589,-0.335266,0.690552
55074847184,-0.617981,0.183228,-0.333069,0.688171
55074869624,-0.616455,0.189819,-0.332397,0.68811
55074884700,-0.611633,0.197571,-0.330505,0.691162
55074907122,-0.612061,0.202393,-0.326416,0.691284
55074929681,-0.616699,0.20343,-0.320557,0.689575
55074944660,-0.612793,0.200256,-0.319702,0.694397
55074967209,-0.605713,0.19989,-0.321716,0.699707
55074989698,-0.609009,0.203491,-0.321594,0.695862
55075004708,-0.601807,0.203125,-0.322632,0.701782
55075027252,-0.607666,0.203796,-0.321655,0.69696
55075049723,-0.602173,0.202698,-0.322449,0.70166
55075064673,-0.605469,0.201965,-0.322632,0.698975
55075087168,-0.609375,0.202332,-0.321899,0.69574
55075109742,-0.605469,0.201538,-0.322327,0.699219
55075124620,-0.599609,0.199219,-0.323486,0.704407
55075147206,-0.595825,0.197144,-0.324341,0.707764
55075169662,-0.594482,0.197144,-0.325195,0.708496
55075184707,-0.593689,0.197937,-0.325989,0.708557
55075207203,-0.59314,0.198364,-0.325928,0.708923
55075229657,-0.593689,0.198792,-0.323486,0.709473
55075244617,-0.595703,0.198059,-0.323364,0.708069
55075267204,-0.596375,0.196472,-0.323914,0.707703
55075289673,-0.596436,0.19635,-0.324707,0.707336
55075305195,-0.596375,0.197449,-0.325134,0.706848
55075327142,-0.595642,0.197876,-0.324951,0.707458
55075349789,-0.595093,0.197754,-0.324829,0.708008
55075364680,-0.594543,0.198059,-0.325012,0.708313
55075387198,-0.593811,0.198486,-0.325928,0.708374
55075417195,-0.593994,0.199036,-0.32605,0.707947
55075439761,-0.594238,0.199097,-0.325989,0.707825
55075447207,-0.593201,0.198181,-0.326233,0.708801
55075469765,-0.592346,0.196899,-0.325745,0.710144
55075484765,-0.592712,0.197205,-0.326172,0.709534
55075507141,-0.591736,0.197449,-0.327454,0.709656
55075529733,-0.591125,0.198486,-0.328064,0.709595
55075544713,-0.590698,0.201172,-0.327209,0.709595
55075567178,-0.590332,0.203308,-0.326599,0.709595
55075589669,-0.590271,0.205505,-0.3255,0.709473
55075604666,-0.590271,0.206238,-0.324646,0.709656
55075627150,-0.589722,0.205322,-0.325317,0.710083
55075649798,-0.589844,0.20343,-0.326355,0.710083
55075664716,-0.590637,0.20166,-0.327271,0.709473
55075687236,-0.590942,0.201355,-0.328064,0.708923
55075709722,-0.590698,0.202332,-0.328125,0.708862
55075724786,-0.590637,0.204895,-0.328186,0.70813
55075747182,-0.589417,0.208374,-0.328979,0.707764
55075769775,-0.587708,0.207275,-0.329773,0.709167
55075784745,-0.585449,0.202209,-0.32959,0.712524
55075807162,-0.581848,0.199341,-0.32666,0.717651
55075829775,-0.575256,0.202637,-0.328552,0.72113
55075844690,-0.577332,0.215698,-0.334473,0.712952
55075867213,-0.568909,0.209045,-0.35968,0.709412
55075889715,-0.536133,0.168762,-0.406982,0.720032
55075904733,-0.464417,0.162842,-0.465942,0.735291
55075927209,-0.372986,0.231995,-0.462952,0.769897
55075949711,-0.263977,0.349304,-0.342896,0.831055
55075964773,-0.189331,0.454224,-0.158386,0.855957
55075987214,-0.196533,0.518921,0.0402832,0.830933
55076009668,-0.28772,0.603333,0.205444,0.714783
55076024658,-0.454529,0.628845,0.217468,0.592102
55076062323,-0.628967,0.574402,0.0944214,0.51532
55076069660,-0.729187,0.470642,-0.0188599,0.496338
55076084691,-0.692932,0.360718,-0.0845947,0.61853
55076107276,-0.582825,0.275146,-0.198547,0.738342
55076129734,-0.449524,0.261169,-0.316467,0.793396
55076144763,-0.294678,0.309875,-0.378845,0.82074
55076167258,-0.155396,0.41333,-0.299255,0.845825
55076189679,-0.105957,0.513428,-0.103699,0.845215
55076204624,-0.180908,0.502441,0.0436401,0.844299
55076227212,-0.297668,0.580383,0.151062,0.742737
55076249643,-0.477173,0.610779,0.138489,0.616455
55076264646,-0.675415,0.540039,0.0484009,0.499817
55076287317,-0.758545,0.441833,-0.100586,0.468201
55076317299,-0.705933,0.361328,-0.175659,0.583313
55076324712,-0.599121,0.282288,-0.245667,0.707825
55076347225,-0.469238,0.202454,-0.291748,0.808472
55076369684,-0.30481,0.213501,-0.312195,0.874084
55076399694,-0.179077,0.349915,-0.246277,0.885864
55076407293,-0.152527,0.448792,-0.149536,0.867737
55076429721,-0.191833,0.518921,-0.0561523,0.831055
55076444714,-0.294006,0.557373,-0.0230103,0.776062
55076467253,-0.369202,0.573242,-0.0349731,0.730591
55076489724,-0.434875,0.538757,-0.0630493,0.718811
55076504737,-0.477783,0.484802,-0.104004,0.725098
55076527180,-0.49054,0.43866,-0.154846,0.736816
55076549731,-0.481201,0.408447,-0.197937,0.749939
55076564715,-0.467163,0.396606,-0.216064,0.760071
55076587306,-0.455261,0.402222,-0.214783,0.764709
55076609704,-0.450012,0.417847,-0.204773,0.762207
55076624637,-0.4552,0.435242,-0.18689,0.753906
55076647234,-0.464844,0.452393,-0.164551,0.743042
55076669766,-0.468567,0.469116,-0.144409,0.734497
55076684696,-0.463806,0.483765,-0.128845,0.730896
55076707243,-0.456482,0.486877,-0.122131,0.734619
55076729673,-0.449158,0.476074,-0.128174,0.745056
55076744648,-0.441162,0.458374,-0.146423,0.757507
55076767240,-0.432251,0.444214,-0.167603,0.766602
55076789789,-0.4198,0.437744,-0.182007,0.773926
55076804710,-0.408081,0.440918,-0.185608,0.777527
55076827313,-0.400085,0.44873,-0.179382,0.778687
55076849777,-0.397644,0.455566,-0.167603,0.778564
55076864775,-0.400879,0.460083,-0.154358,0.776978
55076887237,-0.409485,0.46228,-0.144287,0.773132
55076909818,-0.4198,0.462158,-0.140259,0.768372
55076924694,-0.427795,0.460388,-0.141724,0.764771
55076947223,-0.431519,0.458252,-0.145508,0.763245
55076969794,-0.430603,0.45697,-0.148743,0.763916
55076984739,-0.426147,0.457031,-0.150391,0.766052
55077007252,-0.418945,0.460083,-0.151245,0.768066
55077029867,-0.411438,0.465576,-0.149048,0.769226
55077044805,-0.405579,0.471252,-0.143921,0.769836
55077067269,-0.402649,0.475342,-0.138428,0.769897
55077089761,-0.402039,0.477234,-0.134766,0.769714
55077104763,-0.402893,0.4776,-0.132751,0.769348
55077127240,-0.404358,0.47583,-0.132629,0.769714
55077149760,-0.404663,0.4729,-0.133606,0.771179
55077164744,-0.403442,0.470642,-0.135437,0.772888
55077187268,-0.401184,0.469727,-0.136719,0.774414
55077209760,-0.397888,0.470581,-0.137329,0.775452
55077224803,-0.39325,0.472229,-0.13739,0.776794
55077247255,-0.388489,0.473877,-0.136414,0.778381
55077269685,-0.384766,0.475891,-0.134033,0.779419
55077284711,-0.382996,0.478149,-0.130737,0.77948
55077307294,-0.384033,0.479675,-0.127991,0.778442
55077329698,-0.387512,0.47998,-0.126343,0.776794
55077344768,-0.391663,0.479126,-0.126038,0.77533
55077367265,-0.394226,0.47876,-0.125549,0.774292
55077389737,-0.394409,0.47998,-0.123901,0.773743
55077404750,-0.392456,0.481201,-0.121948,0.774292
55077427275,-0.388916,0.48291,-0.120483,0.775269
55077449846,-0.385376,0.484924,-0.119202,0.77594
55077464744,-0.38208,0.486755,-0.118103,0.776611
55077487224,-0.379517,0.487976,-0.11731,0.777161
55077509809,-0.378052,0.48761,-0.116943,0.778198
55077524750,-0.377625,0.486023,-0.116943,0.779358
55077547293,-0.377991,0.484558,-0.116882,0.780151
55077562299,-0.378235,0.484436,-0.116272,0.780212
55077584788,-0.377563,0.485718,-0.11499,0.779907
55077607241,-0.376099,0.487244,-0.113281,0.779907
55077622223,-0.374084,0.487915,-0.112183,0.780579
55077644737,-0.372009,0.487671,-0.111816,0.78186
55077667302,-0.370056,0.487549,-0.111633,0.782837
55077689796,-0.368225,0.488281,-0.110962,0.783325
55077704803,-0.366455,0.489136,-0.109131,0.783875
55077727322,-0.365417,0.489319,-0.107178,0.784546
55077742315,-0.365295,0.489441,-0.10553,0.78479
55077764775,-0.365479,0.489746,-0.104431,0.784607
55077787165,-0.365845,0.48999,-0.103149,0.784485
55077802293,-0.365906,0.489807,-0.101929,0.784729
55077824806,-0.365173,0.489563,-0.10083,0.785339
55077847234,-0.363831,0.490112,-0.0998535,0.785706
55077862190,-0.361755,0.491455,-0.0985718,0.786011
55077884786,-0.359192,0.492981,-0.0967407,0.786499
55077907215,-0.356567,0.49353,-0.09552,0.787476
55077922250,-0.354065,0.493103,-0.0949707,0.78894
55077944794,-0.352051,0.492676,-0.0947266,0.790161
55077967231,-0.350159,0.493164,-0.0946655,0.79071
55077982230,-0.347778,0.493958,-0.0944214,0.79126
55078004759,-0.345581,0.493835,-0.0939331,0.792358
55078027281,-0.343262,0.493225,-0.0936279,0.793762
55078042250,-0.340576,0.492615,-0.0933838,0.795349
55078064802,-0.337524,0.492432,-0.0928955,0.796814
55078087238,-0.334351,0.493591,-0.0916138,0.797607
55078109745,-0.331238,0.496155,-0.0891113,0.797607
55078124822,-0.327881,0.498413,-0.086792,0.797852
55078147300,-0.323242,0.499268,-0.0854492,0.799255
55078169854,-0.316711,0.500244,-0.0842285,0.801453
55078184799,-0.309143,0.502075,-0.0826416,0.803406
55078207220,-0.301575,0.50415,-0.0806885,0.805176
55078229777,-0.293274,0.506897,-0.0794678,0.806641
55078244761,-0.283936,0.510376,-0.0789795,0.8078
55078267270,-0.271973,0.514038,-0.0778198,0.809753
55078289692,-0.25885,0.516602,-0.0750122,0.812683
55078304699,-0.24408,0.520691,-0.0696411,0.815125
55078327267,-0.226868,0.52832,-0.0629272,0.815674
55078349753,-0.208435,0.537231,-0.0614624,0.814941
55078364739,-0.188782,0.548523,-0.0518188,0.812866
55078387261,-0.170898,0.559082,-0.0435181,0.81012
55078409761,-0.153625,0.566895,-0.034668,0.808533
55078424745,-0.135559,0.574707,-0.0264282,0.80658
55078447290,-0.117859,0.578918,-0.0158081,0.80658
55078469731,-0.0826416,0.584412,-0.0337524,0.806519
55078484730,-0.0751343,0.581665,-0.034668,0.809143
55078507357,-0.0692749,0.573242,-0.0505981,0.814819
55078529762,-0.0657349,0.566833,-0.048645,0.819702
55078544764,-0.0635376,0.57135,-0.0502319,0.81665
55078567415,-0.0597534,0.577271,-0.052002,0.812622
55078589699,-0.0591431,0.579041,-0.0507812,0.811523
55078604767,-0.06073,0.579834,-0.0512085,0.810791
55078627323,-0.0598755,0.581543,-0.0493164,0.809753
55078649816,-0.0525513,0.588135,-0.045105,0.805725
55078664827,-0.0429688,0.595032,-0.0369263,0.801636
55078687284,-0.0321045,0.603577,-0.0407715,0.795532
55078709761,-0.026062,0.607056,-0.0393066,0.793213
55078724825,-0.0239868,0.60968,-0.0413208,0.791199
55078747304,-0.0241089,0.60968,-0.0463257,0.790894
55078769755,-0.0250854,0.610413,-0.0465698,0.790222
55078784827,-0.0290527,0.615479,-0.0427856,0.786438
55078807347,-0.0321045,0.618652,-0.0392456,0.783997
55078829801,-0.0388184,0.619324,-0.0309448,0.783508
55078844806,-0.038147,0.622192,-0.0272827,0.781433
55078867232,-0.0345459,0.622437,-0.0287476,0.781311
55078889853,-0.0292358,0.624939,-0.0308838,0.77948
55078904792,-0.0262451,0.625854,-0.0346069,0.778687
55078927261,-0.0258179,0.626282,-0.0348511,0.77832
55078949832,-0.0236206,0.625854,-0.036438,0.778687
55078964820,-0.0238037,0.625549,-0.0396729,0.778748
55078987265,-0.024353,0.62439,-0.0431519,0.77948
55079009787,-0.0262451,0.620911,-0.0460205,0.782043
55079024755,-0.0285034,0.61853,-0.0477295,0.783752
55079047295,-0.02948,0.616516,-0.0513916,0.785095
55079069842,-0.031189,0.615601,-0.0564575,0.785339
55079084786,-0.0331421,0.614319,-0.0623779,0.785889
55079107246,-0.0349731,0.614502,-0.0687256,0.785095
55079129815,-0.0362549,0.615295,-0.0750122,0.783875
55079144786,-0.0369263,0.62146,-0.0826416,0.778137
55079167292,-0.0379639,0.622131,-0.0863647,0.777161
55079189849,-0.0387573,0.625488,-0.0852661,0.774536
55079204786,-0.036438,0.629761,-0.0755005,0.772217
55079227241,-0.0240479,0.637878,-0.0540161,0.767822
55079249846,-0.00640869,0.658386,-0.0344238,0.75177
55079265311,0.000854492,0.677734,-0.0140991,0.735107
55079287213,0.0111084,0.691162,0.00500488,0.722534
55079309798,0.0214844,0.698608,0.0166016,0.714905
55079324845,0.0286255,0.69165,0.0172729,0.721375
55079347363,0.0324097,0.682556,0.0130615,0.729919
55079369804,0.0289307,0.677368,0.015564,0.734863
55079384842,0.0283813,0.678528,0.0153809,0.733765
55079407211,0.0280762,0.678711,0.0137329,0.733643
55079429793,0.0289917,0.679443,0.0152588,0.732971
55079444777,0.0308228,0.679321,0.0123901,0.733032
55079467220,0.0332642,0.67865,0.0100708,0.733582
55079489732,0.0378418,0.678406,0.00665283,0.733643
55079504795,0.0412598,0.684265,0.0032959,0.728027
55079527267,0.0474854,0.684021,0.00268555,0.727844
55079549731,0.0548706,0.684631,0.00952148,0.726685
55079564790,0.06073,0.685303,0.0130615,0.725525
55079587251,0.0633545,0.694641,0.0180664,0.716309
55079609729,0.0670776,0.696045,0.0119629,0.714661
55079624704,0.0701904,0.690552,0.0110474,0.719727
55079647209,0.0744019,0.687378,0.0111694,0.722351
55079669739,0.0764771,0.687927,0.00457764,0.72168
55079684758,0.0778198,0.689453,-0.00128174,0.720032
55079707273,0.0811768,0.69165,-0.00604248,0.71759
55079729738,0.0872803,0.69397,-0.0114136,0.714539
55079744726,0.0929565,0.692017,-0.0194702,0.715576
55079767278,0.0969238,0.694031,-0.0310669,0.712646
55079789769,0.0967407,0.695496,-0.0444336,0.710571
55079804809,0.103516,0.696716,-0.0527344,0.707825
55079827300,0.10791,0.694275,-0.0587158,0.709045
55079849748,0.112671,0.694946,-0.067749,0.706909
55079864745,0.120178,0.694641,-0.0791016,0.704773
55079887280,0.125305,0.693909,-0.0842285,0.703979
55079909756,0.131592,0.69281,-0.0873413,0.703552
55079924754,0.136169,0.693542,-0.092041,0.701355
55079947277,0.136902,0.692749,-0.0928955,0.701904
55079969750,0.13855,0.692078,-0.0944214,0.702026
55079984767,0.139771,0.692932,-0.09729,0.700562
55080007284,0.140198,0.69281,-0.098999,0.700378
55080029772,0.141174,0.692322,-0.100098,0.700439
55080044771,0.143005,0.692627,-0.102234,0.699463
55080067317,0.146851,0.68988,-0.10498,0.700989
55080089801,0.149536,0.691223,-0.107971,0.698669
55080104753,0.149475,0.691956,-0.108704,0.697815
55080127297,0.148865,0.692017,-0.108215,0.697937
55080149773,0.14856,0.692505,-0.107788,0.697632
55080172276,0.148132,0.693237,-0.106934,0.697083
55080187294,0.148315,0.692993,-0.108093,0.697144
55080209788,0.148132,0.693359,-0.108765,0.696716
55080224778,0.148315,0.693909,-0.109375,0.696045
55080247227,0.148132,0.694031,-0.109985,0.695862
55080269774,0.147949,0.693481,-0.110168,0.696411
55080284765,0.14801,0.694458,-0.110229,0.695435
55080307281,0.147766,0.694641,-0.110107,0.695312
55080329779,0.147644,0.695496,-0.109741,0.694519
55080344785,0.146912,0.694397,-0.108154,0.696045
55080374795,0.146973,0.695068,-0.109253,0.69519
55080389764,0.146851,0.694458,-0.10968,0.69574
55080404783,0.145386,0.695251,-0.109558,0.695251
55080427239,0.14502,0.694397,-0.109497,0.696228
55080449740,0.144165,0.693909,-0.108337,0.697021
55080464761,0.143738,0.694397,-0.108032,0.696655
55080487231,0.142883,0.694519,-0.106384,0.697021
55080509806,0.142212,0.694946,-0.10553,0.696838
55080532272,0.140625,0.69519,-0.104187,0.697144
55080547257,0.13855,0.695496,-0.101868,0.697571
55080569792,0.136047,0.695679,-0.0994873,0.698242
55080592280,0.13446,0.696472,-0.0980225,0.697937
55080607278,0.132507,0.696167,-0.0963745,0.698853
55080629808,0.130005,0.69751,-0.0940552,0.698364
55080652747,0.126953,0.697388,-0.090271,0.699524
55080667271,0.119873,0.698669,-0.0834961,0.700317
55080689801,0.111633,0.702393,-0.0758667,0.698792
55080712274,0.107788,0.702026,-0.0728149,0.700073
55080727270,0.105164,0.702454,-0.0715942,0.700195
55080749825,0.103333,0.703735,-0.0710449,0.699219
55080772283,0.101379,0.704651,-0.0692139,0.698792
55080787536,0.098938,0.705688,-0.0669556,0.698303
55080809731,0.097229,0.706665,-0.0651855,0.697693
55080832245,0.0967407,0.70697,-0.0646973,0.697571
55080847298,0.0967407,0.70697,-0.0646973,0.697571
55080869739,0.0966797,0.707336,-0.0650635,0.697144
55080892302,0.0966797,0.707397,-0.0650635,0.697083
55080907289,0.0966797,0.70752,-0.0653687,0.69696
55080929750,0.0976562,0.706726,-0.0668945,0.697449
55080952305,0.0982056,0.705444,-0.0684204,0.698547
55080967307,0.0978394,0.705688,-0.0684204,0.698303
55080989723,0.0976562,0.705322,-0.0687256,0.69873
55081012317,0.0976562,0.705322,-0.0691528,0.698669
55081027315,0.0977783,0.705017,-0.069397,0.698914
55081042275,0.0981445,0.704895,-0.0703125,0.698914
55081064720,0.0983887,0.705017,-0.0709229,0.698669
55081087291,0.0983887,0.705505,-0.071167,0.69812
55081102304,0.0980225,0.705627,-0.0709839,0.69812
55081124773,0.0977783,0.705933,-0.0708008,0.697815
55081147298,0.0977783,0.705933,-0.0708618,0.697815
55081162298,0.0977783,0.705994,-0.0708618,0.697815
55081184785,0.0977173,0.705994,-0.0708618,0.697754
55081207300,0.0979004,0.706299,-0.071167,0.697388
55081222294,0.0979004,0.70636,-0.071167,0.697388
55081244740,0.0985718,0.706238,-0.0717163,0.697327
55081267320,0.0983887,0.706665,-0.0716553,0.696899
55081282285,0.0980225,0.706848,-0.0720215,0.696716
55081304773,0.0977783,0.706848,-0.0719604,0.696777
55081327268,0.0977783,0.706848,-0.0719604,0.696838
55081342326,0.0977783,0.706177,-0.0720215,0.697449
55081364799,0.0975342,0.706543,-0.0723267,0.697083
55081387339,0.0975342,0.706177,-0.0717773,0.697571
55081402315,0.0975342,0.706665,-0.071167,0.697144
55081424816,0.0975952,0.707214,-0.0714722,0.696472
55081447320,0.0978394,0.70697,-0.0717773,0.696716
55081462320,0.0978394,0.707581,-0.0720825,0.696045
55081484803,0.0977783,0.70752,-0.0722656,0.696106
55081507281,0.0978394,0.707703,-0.0726929,0.695862
55081522323,0.0977783,0.707581,-0.072937,0.695923
55081544822,0.0978394,0.707825,-0.0730591,0.695679
55081567241,0.0979614,0.707703,-0.0732422,0.69574
55081582358,0.0979614,0.707764,-0.0732422,0.69574
55081604802,0.0979614,0.707764,-0.0732422,0.695679
55081627343,0.0980225,0.707703,-0.0733032,0.695801
55081642323,0.0979614,0.707703,-0.0733032,0.69574
55081664880,0.0980225,0.707581,-0.0733032,0.695923
55081687319,0.0980225,0.707581,-0.0733032,0.695862
55081702313,0.0980225,0.707642,-0.0733643,0.695862
55081724881,0.0980225,0.707642,-0.0733643,0.695862
55081747315,0.0978394,0.707642,-0.0736084,0.695862
55081762295,0.0983276,0.707764,-0.0731201,0.695679
55081784824,0.098999,0.708374,-0.0731812,0.694946
55081807351,0.0986938,0.707581,-0.072937,0.695862
55081822341,0.0979004,0.708374,-0.0736084,0.695068
55081844935,0.0978394,0.707825,-0.0742798,0.695557
55081867366,0.0980225,0.707886,-0.0741577,0.695496
55081882366,0.0979614,0.708435,-0.0740967,0.694946
55081904883,0.0983887,0.707581,-0.0740967,0.69574
55081927294,0.0983887,0.708435,-0.0742798,0.694885
55081942379,0.0982056,0.707581,-0.0744019,0.69574
55081964957,0.0982056,0.708191,-0.0743408,0.695129
55081987372,0.0984497,0.708557,-0.0750732,0.694641
55082002260,0.0985107,0.708435,-0.0758057,0.694702
55082024919,0.0983887,0.708801,-0.0759888,0.694275
55082047333,0.0985107,0.708557,-0.0762329,0.694458
55082062336,0.0987549,0.708618,-0.076416,0.694397
55082084938,0.0988159,0.708435,-0.0764771,0.69458
55082107374,0.0987549,0.708618,-0.0765381,0.694397
55082122335,0.098999,0.708496,-0.0766602,0.694458
55082144876,0.0991821,0.708557,-0.0767822,0.694336
55082167333,0.0991211,0.708618,-0.0767822,0.694275
55082182391,0.0991211,0.708618,-0.0767822,0.694275
55082204802,0.0993042,0.708679,-0.0769043,0.694214
55082227366,0.0993652,0.708679,-0.0769043,0.694214
55082242368,0.0993652,0.708679,-0.0769043,0.694214
55082264910,0.0994263,0.708557,-0.0769653,0.694336
55082287394,0.0994263,0.708557,-0.0769653,0.694336
55082302368,0.0994263,0.708557,-0.0769653,0.694275
55082324834,0.0995483,0.708862,-0.0771484,0.69397
55082347390,0.0997314,0.708679,-0.0774536,0.694092
55082362399,0.0997925,0.708679,-0.0774536,0.694092
55082392355,0.0997925,0.70874,-0.0774536,0.694031
55082407409,0.0998535,0.708557,-0.0775146,0.694214
55082422418,0.0998535,0.708557,-0.0775146,0.694153
55082444834,0.0998535,0.708557,-0.0775757,0.694153
55082467390,0.0998535,0.708557,-0.0775757,0.694153
55082482450,0.0999146,0.708435,-0.0776978,0.694275
55082504867,0.0999146,0.708435,-0.0776978,0.694275
55082527465,0.0999146,0.708496,-0.0776978,0.694214
55082542395,0.0999146,0.708496,-0.0776978,0.694214
55082564942,0.0998535,0.708496,-0.0776978,0.694214
55082587342,0.0998535,0.708496,-0.0776978,0.694214
55082602363,0.0998535,0.708496,-0.0776978,0.694214
55082624872,0.0998535,0.708496,-0.0776978,0.694214
55082647405,0.0998535,0.708496,-0.0776978,0.694214
55082662387,0.0998535,0.708557,-0.0776978,0.694153
55082684939,0.0998535,0.708557,-0.0776978,0.694153
55082707371,0.100159,0.708679,-0.0786743,0.693848
55082722335,0.100342,0.708435,-0.0784302,0.694153
55082744910,0.100342,0.708435,-0.0784302,0.694153
55082767311,0.100281,0.708435,-0.0784302,0.694153
55082782343,0.100281,0.708435,-0.0784912,0.694153
55082804935,0.100281,0.708496,-0.0784912,0.694092
55082827300,0.100342,0.708435,-0.0786743,0.694092
55082842328,0.100342,0.708435,-0.0786743,0.694092
55082864880,0.100342,0.708435,-0.0786743,0.694092
55082887428,0.100342,0.708496,-0.0787354,0.694092
55082902325,0.100403,0.708313,-0.0787964,0.694153
55082924909,0.100403,0.708374,-0.0787964,0.694153
55082947811,0.100403,0.708374,-0.0787354,0.694153
55082962329,0.100342,0.708313,-0.0784912,0.694214
55082984912,0.100525,0.708862,-0.0785522,0.693604
55083007401,0.100525,0.708496,-0.0789185,0.69397
55083022360,0.100525,0.708679,-0.0786743,0.693787
55083044942,0.100342,0.709106,-0.0786133,0.69342
55083067399,0.100403,0.708618,-0.0790405,0.693848
55083082371,0.100403,0.708679,-0.0790405,0.693848
55083104917,0.100403,0.708618,-0.0790405,0.693848
55083127356,0.100586,0.708557,-0.0792847,0.693909
55083142391,0.100586,0.708557,-0.0792847,0.693848
55083164912,0.100525,0.708557,-0.0792847,0.693848
55083187370,0.100525,0.708557,-0.0792847,0.693848
55083202310,0.100586,0.708557,-0.0792847,0.693848
55083224910,0.100586,0.708618,-0.0792847,0.693848
55083247369,0.100586,0.708618,-0.0792847,0.693848
55083262409,0.100586,0.708618,-0.0792847,0.693848
55083284931,0.100525,0.708618,-0.0793457,0.693787
55083307398,0.100525,0.708618,-0.0793457,0.693787
55083322321,0.100525,0.708618,-0.0793457,0.693787
55083344766,0.100525,0.708618,-0.0793457,0.693787
55083367382,0.100525,0.708679,-0.0793457,0.693787
55083382424,0.100525,0.708679,-0.0793457,0.693787
55083404922,0.100525,0.708679,-0.0793457,0.693726
55083427382,0.100525,0.708679,-0.0793457,0.693726
55083442381,0.100525,0.70874,-0.0793457,0.693665
55083465027,0.100525,0.70874,-0.0793457,0.693665
55083487409,0.100647,0.708618,-0.0795288,0.693787
55083502455,0.100647,0.708618,-0.0794678,0.693787
55083524931,0.100647,0.708618,-0.0795288,0.693787
55083547409,0.100647,0.708618,-0.0794678,0.693787
55083562440,0.100647,0.708618,-0.0795288,0.693726
55083584894,0.100647,0.708679,-0.0795288,0.693726
55083607424,0.100647,0.708618,-0.0795288,0.693726
55083622390,0.100647,0.708679,-0.0795288,0.693726
55083644972,0.100647,0.708679,-0.0795288,0.693726
55083667367,0.100647,0.708679,-0.0795288,0.693726
55083682443,0.100708,0.708496,-0.0795288,0.693909
55083704954,0.100708,0.708496,-0.0795288,0.693848
55083727415,0.100769,0.708313,-0.0794678,0.694031
55083742384,0.100769,0.708374,-0.0794678,0.694031
55083764955,0.10083,0.708191,-0.0794678,0.694153
55083787377,0.10083,0.708252,-0.0794678,0.694153
55083802344,0.10083,0.708252,-0.0794678,0.694153
55083824936,0.10083,0.708252,-0.0794678,0.694153
55083847405,0.10083,0.708252,-0.0794678,0.694092
55083862464,0.10083,0.708252,-0.0794678,0.694092
55083884914,0.10083,0.708313,-0.0794678,0.694092
55083907402,0.10083,0.708313,-0.0794678,0.694092
55083922377,0.10083,0.708313,-0.0794678,0.694031
55083944877,0.10083,0.708313,-0.0794678,0.694031
55083967394,0.10083,0.708313,-0.0794678,0.694031
55083982394,0.100769,0.708374,-0.0794678,0.69397
55084004906,0.101135,0.708557,-0.0799561,0.693726
55084027449,0.101624,0.708252,-0.0801392,0.693909
55084042335,0.101624,0.708191,-0.0801392,0.69397
55084064904,0.101746,0.708191,-0.0797119,0.694031
55084087384,0.101746,0.708191,-0.0797119,0.694031
55084102322,0.101807,0.708008,-0.079834,0.694214
55084124965,0.102478,0.708374,-0.0804443,0.693604
55084147358,0.103027,0.708618,-0.0806274,0.693298
55084162389,0.103149,0.708557,-0.0808105,0.693298
55084184910,0.103271,0.708679,-0.0810547,0.693176
55084207383,0.103271,0.708557,-0.0814209,0.693237
55084222438,0.103271,0.708618,-0.0814209,0.693176
55084244852,0.103882,0.708496,-0.0820923,0.693115
55084267420,0.104553,0.70874,-0.0825195,0.692688
55084282379,0.104797,0.708801,-0.0828247,0.692627
55084304932,0.105042,0.708496,-0.083252,0.69281
55084327435,0.105652,0.708557,-0.0837402,0.692627
55084342354,0.106018,0.70874,-0.0842285,0.692322
55084364918,0.106262,0.708801,-0.0844727,0.692139
55084387335,0.106812,0.70874,-0.0848999,0.692078
55084402435,0.107544,0.708801,-0.0856323,0.691772
55084424934,0.109436,0.708069,-0.086853,0.692139
55084447413,0.110413,0.708313,-0.0875244,0.691589
55084462373,0.110229,0.708313,-0.0872803,0.69165
55084484952,0.109924,0.708191,-0.0870361,0.691895
55084507472,0.10968,0.70813,-0.086853,0.692017
55084522371,0.10968,0.70813,-0.086853,0.692017
55084544980,0.10968,0.70813,-0.086853,0.692017
55084567445,0.109619,0.70813,-0.086853,0.692017
55084582412,0.109314,0.707886,-0.0866699,0.692322
55084604914,0.109253,0.708435,-0.0863647,0.691833
55084627484,0.109253,0.708435,-0.0863647,0.691833
55084642466,0.109253,0.708435,-0.0863647,0.691833
55084664915,0.109253,0.708435,-0.0863647,0.691833
55084687465,0.109253,0.708435,-0.0863647,0.691833
55084702422,0.109253,0.708435,-0.0863647,0.691833
55084724896,0.108948,0.708801,-0.0861816,0.691528
55084747517,0.109375,0.708984,-0.0866089,0.691223
55084762415,0.110474,0.709045,-0.0875854,0.690857
55084784949,0.111877,0.708862,-0.0884399,0.690735
55084807500,0.112366,0.7099,-0.0878296,0.689636
55084822473,0.11145,0.708557,-0.0877075,0.691162
55084844901,0.111755,0.710205,-0.0873413,0.689514
55084867531,0.112,0.708618,-0.0894775,0.690857
55084882471,0.112061,0.709839,-0.0897827,0.689514
55084904915,0.111572,0.707825,-0.0894165,0.691711
55084927439,0.111511,0.709473,-0.0891113,0.690063
55084942439,0.111023,0.709106,-0.088623,0.690552
55084964876,0.111206,0.70813,-0.0889893,0.691467
55084987373,0.112244,0.708191,-0.0892944,0.691223
55085002468,0.112366,0.708557,-0.0897827,0.690796
55085024966,0.113708,0.709045,-0.0916138,0.68988
55085047419,0.11554,0.708923,-0.0932007,0.689392
55085062428,0.113037,0.706482,-0.0915527,0.692566
55085084953,0.116028,0.708191,-0.0960693,0.689697
55085107417,0.117065,0.709351,-0.0982056,0.687988
55085122440,0.117126,0.7099,-0.098999,0.687317
55085144945,0.118286,0.708679,-0.095459,0.688904
55085167910,0.118774,0.712891,-0.0952759,0.684448
55085182439,0.11615,0.708984,-0.0949707,0.689026
55085204960,0.115417,0.711487,-0.09198,0.686951
55085227423,0.119507,0.709106,-0.0923462,0.68866
55085242371,0.118408,0.703918,-0.0917969,0.694214
55085264985,0.116455,0.709045,-0.0922852,0.68927
55085287458,0.116211,0.703247,-0.0936279,0.695007
55085302321,0.111511,0.700928,-0.0874023,0.698914
55085324920,0.114441,0.707397,-0.0834351,0.692444
55085347438,0.113647,0.709656,-0.0872803,0.689758
55085362427,0.112061,0.700134,-0.0945435,0.69873
55085384949,0.112915,0.698059,-0.0956421,0.7005
55085407428,0.120789,0.694702,-0.0952148,0.702576
55085422481,0.123047,0.694031,-0.0889893,0.703674
55085444957,0.130066,0.696045,-0.0861816,0.700806
55085467338,0.13385,0.689026,-0.0880737,0.706726
55085482360,0.130798,0.689453,-0.088562,0.706848
55085504970,0.128601,0.692139,-0.0835571,0.7052
55085527405,0.128357,0.697388,-0.0771484,0.700806
55085542421,0.125061,0.695374,-0.0755615,0.703552
55085564978,0.124817,0.695618,-0.0778809,0.703125
55085587362,0.123047,0.700989,-0.0789185,0.697998
55085602350,0.122681,0.696594,-0.076416,0.702698
55085624924,0.118652,0.695618,-0.078064,0.704163
55085647453,0.118042,0.697815,-0.0786133,0.702087
55085662421,0.120483,0.697388,-0.0779419,0.702148
55085684989,0.121216,0.707336,-0.0789185,0.691833
55085707443,0.12085,0.71106,-0.0825806,0.687683
55085722386,0.120178,0.711121,-0.0790405,0.68811
55085744903,0.124512,0.716492,-0.0751953,0.68219
55085767434,0.124268,0.710999,-0.0821533,0.687134
55085782432,0.116882,0.711731,-0.0848999,0.687378
55085804937,0.121216,0.716431,-0.0790405,0.682434
55085827458,0.12146,0.709839,-0.0792847,0.689209
55085842420,0.120972,0.70752,-0.0823364,0.691345
55085864948,0.119751,0.71637,-0.0817871,0.682434
55085887481,0.117493,0.718811,-0.0834351,0.680054
55085902424,0.119324,0.721191,-0.0855713,0.676941
55085924932,0.117554,0.71875,-0.0846558,0.679932
55085947458,0.120911,0.719238,-0.0873413,0.678467
55085962439,0.122498,0.71698,-0.0910034,0.680115
55085984950,0.123047,0.718018,-0.0890503,0.679138
55086007495,0.123596,0.71698,-0.0911255,0.679871
55086022467,0.124146,0.718201,-0.0910034,0.678528
55086044968,0.122986,0.717834,-0.0910034,0.679077
55086067457,0.122803,0.71759,-0.09198,0.67926
55086082457,0.123535,0.717285,-0.0926514,0.679382
55086104969,0.123413,0.716919,-0.0927734,0.679749
55086127463,0.122559,0.716309,-0.0928955,0.680542
55086142503,0.12323,0.715698,-0.09375,0.680969
55086164965,0.123108,0.715881,-0.0932007,0.680847
55086187449,0.122681,0.715088,-0.0939941,0.681641
55086202501,0.122925,0.715332,-0.093811,0.681396
55086224970,0.122986,0.715149,-0.0942993,0.681519
55086247353,0.122559,0.714905,-0.0941772,0.681824
55086262462,0.122864,0.714783,-0.0946045,0.681885
55086292415,0.122864,0.714783,-0.0946045,0.681885
55086307415,0.122559,0.714417,-0.0948486,0.682312
55086322386,0.122559,0.714355,-0.0948486,0.682373
55086344944,0.122559,0.714355,-0.0948486,0.682373
55086367423,0.122375,0.713928,-0.0950928,0.682739
55086382445,0.122498,0.713989,-0.0950928,0.682739
55086405060,0.122498,0.713684,-0.0952759,0.682983
55086427444,0.122498,0.713623,-0.0952759,0.683044
55086442443,0.122498,0.713623,-0.0952759,0.683044
55086465002,0.122437,0.713623,-0.0953369,0.683105
55086487433,0.122437,0.713562,-0.0953369,0.683105
55086502483,0.122437,0.713562,-0.0953369,0.683105
55086524972,0.122375,0.713501,-0.0953979,0.683167
55086547999,0.122375,0.713501,-0.0953979,0.683228
55086562441,0.122375,0.713501,-0.0953979,0.683228
55086584977,0.122314,0.71344,-0.095459,0.683228
55086607403,0.122314,0.71344,-0.095459,0.683289
55086622457,0.122253,0.713379,-0.09552,0.683289
55086644967,0.122253,0.713379,-0.09552,0.68335
55086667459,0.122253,0.713379,-0.09552,0.68335
55086682438,0.122192,0.713318,-0.0955811,0.683411
55086704960,0.122192,0.713318,-0.0955811,0.683411
55086727433,0.122192,0.713257,-0.0955811,0.683411
55086742475,0.122192,0.713257,-0.0955811,0.683472
55086764958,0.122131,0.713257,-0.0956421,0.683472
55086787472,0.122131,0.713196,-0.0956421,0.683533
55086802448,0.12207,0.713196,-0.0957031,0.683533
55086825021,0.12207,0.713135,-0.0957031,0.683533
55086847400,0.12207,0.713135,-0.0957031,0.683594
55086862421,0.12207,0.713074,-0.0957031,0.683594
55086884987,0.122009,0.713074,-0.0957642,0.683655
55086907448,0.122009,0.713074,-0.0957642,0.683655
55086922488,0.122009,0.713013,-0.0957642,0.683716
55086945025,0.121948,0.713013,-0.0958252,0.683716
55086967551,0.121948,0.712952,-0.0958252,0.683777
55086982462,0.121948,0.712952,-0.0958252,0.683777
55087004988,0.121948,0.712952,-0.0958252,0.683777
55087027464,0.121887,0.712952,-0.0958862,0.683838
55087042412,0.121887,0.712891,-0.0958862,0.683838
55087064972,0.121887,0.712891,-0.0958862,0.683838
55087087502,0.121887,0.71283,-0.0958862,0.683899
55087102459,0.121826,0.71283,-0.0959473,0.683899
55087124932,0.121826,0.71283,-0.0959473,0.68396
55087147458,0.121826,0.712769,-0.0959473,0.68396
55087169937,0.121826,0.712769,-0.0959473,0.684021
55087184964,0.121765,0.712708,-0.0960083,0.684021
55087207491,0.121765,0.712708,-0.0960083,0.684021
55087229978,0.121765,0.712708,-0.0960083,0.684082
55087244894,0.121704,0.712646,-0.0960693,0.684082
55087267492,0.121704,0.712646,-0.0960693,0.684143
55087289941,0.121704,0.712646,-0.0960693,0.684143
55087304934,0.121643,0.712585,-0.0961304,0.684143
55087327485,0.121643,0.712585,-0.0961304,0.684204
55087350049,0.121643,0.712585,-0.0961304,0.684204
55087364965,0.121643,0.712585,-0.0961304,0.684204
55087387505,0.121643,0.712524,-0.0961304,0.684265
55087410009,0.121582,0.712524,-0.0961914,0.684265
55087424991,0.121582,0.712463,-0.0961914,0.684265
55087447522,0.121582,0.712463,-0.0961914,0.684265
55087469993,0.121582,0.712463,-0.0962524,0.684326
55087484897,0.121521,0.712463,-0.0962524,0.684326
55087507492,0.121521,0.712402,-0.0962524,0.684326
55087529958,0.121521,0.712402,-0.0962524,0.684387
55087544972,0.12146,0.712402,-0.0963135,0.684387
55087567486,0.12146,0.712341,-0.0963135,0.684448
55087589901,0.12146,0.712341,-0.0963135,0.684448
55087604989,0.121399,0.712341,-0.0963745,0.684448
55087627465,0.121399,0.71228,-0.0963745,0.684509
55087649957,0.121582,0.711914,-0.0966797,0.684814
55087665003,0.121948,0.712219,-0.097168,0.684387
55087687491,0.121887,0.712219,-0.097168,0.684387
55087710044,0.121887,0.712402,-0.0970459,0.684204
55087724966,0.121887,0.712341,-0.0970459,0.684265
55087747494,0.121643,0.712585,-0.0967407,0.684082
55087770023,0.121521,0.712708,-0.0965576,0.684021
55087784963,0.12146,0.712646,-0.0965576,0.684082
55087807483,0.121521,0.712708,-0.0966797,0.68396
55087830014,0.121643,0.712708,-0.0968628,0.68396
55087845041,0.121948,0.713074,-0.0971069,0.683472
55087867533,0.122498,0.713257,-0.0976562,0.683105
55087890023,0.12262,0.713013,-0.0980225,0.683289
55087904982,0.12262,0.712952,-0.0980225,0.68335
55087927496,0.122437,0.712219,-0.0982056,0.684143
55087949984,0.122498,0.712158,-0.0985718,0.684143
55087964989,0.122131,0.711975,-0.0983887,0.684387
55087987492,0.121399,0.712463,-0.0977173,0.684143
55088010011,0.121155,0.712646,-0.0974731,0.684021
55088025000,0.122009,0.71228,-0.0983276,0.684143
55088047498,0.122192,0.712646,-0.0982056,0.683716
55088062458,0.121582,0.712585,-0.0980835,0.683899
55088085036,0.121399,0.71283,-0.0982056,0.683655
55088107506,0.121033,0.71283,-0.0982666,0.683716
55088122462,0.119385,0.710449,-0.0975952,0.686523
55088145450,0.119934,0.710693,-0.0982056,0.686157
55088167533,0.120483,0.710449,-0.0995483,0.686096
55088182527,0.118713,0.708496,-0.100342,0.688293
55088205054,0.117371,0.710144,-0.100708,0.686768
55088227542,0.115112,0.705933,-0.0987549,0.691772
55088242526,0.110474,0.706238,-0.0944214,0.692871
55088265080,0.109253,0.710449,-0.0918579,0.689087
55088287423,0.110779,0.7146,-0.093689,0.684204
55088302522,0.111633,0.721252,-0.0939331,0.677063
55088325047,0.114563,0.715881,-0.0927124,0.682434
55088347598,0.118958,0.717407,-0.100098,0.679016
55088362562,0.123413,0.717712,-0.10553,0.677063
55088384978,0.120361,0.709778,-0.107605,0.685608
55088407496,0.121155,0.711426,-0.111938,0.683105
55088422484,0.122803,0.713074,-0.11145,0.681152
55088445009,0.126099,0.706604,-0.113586,0.68689
55088467542,0.129395,0.708069,-0.114929,0.684509
55088482489,0.135803,0.710144,-0.115723,0.68103
55088504893,0.138062,0.708435,-0.11969,0.681702
55088527526,0.141052,0.707153,-0.123596,0.681702
55088542536,0.147705,0.708923,-0.12384,0.678345
55088564989,0.153992,0.712891,-0.126465,0.672302
55088587529,0.158447,0.7146,-0.129761,0.668823
55088602469,0.161194,0.715637,-0.129517,0.667114
55088625541,0.165161,0.712585,-0.127625,0.6698
55088647620,0.164124,0.708557,-0.128601,0.674072
55088662518,0.170166,0.709778,-0.126038,0.671814
55088684981,0.171692,0.715759,-0.1297,0.664307
55088707546,0.168762,0.7099,-0.130249,0.671204
55088722505,0.171997,0.707764,-0.129822,0.672668
55088745019,0.174927,0.705017,-0.129272,0.674927
55088767530,0.176758,0.705139,-0.128479,0.6745
55088782513,0.183838,0.709656,-0.130554,0.667419
55088804934,0.180481,0.706482,-0.129089,0.671997
55088827485,0.175903,0.705322,-0.121826,0.675781
55088842504,0.182068,0.708862,-0.118408,0.670959
55088864982,0.175903,0.710999,-0.117859,0.670471
55088887470,0.175537,0.712524,-0.114624,0.669556
55088902496,0.170471,0.71344,-0.110229,0.670593
55088925007,0.166321,0.713867,-0.108704,0.671448
55088947483,0.151367,0.71582,-0.0976562,0.674622
55088962489,0.143921,0.716675,-0.0844116,0.677063
55088985006,0.149597,0.714478,-0.0892944,0.677551
55089007560,0.152161,0.720642,-0.0931396,0.669922
55089022462,0.154907,0.719421,-0.0945435,0.670349
55089045079,0.152466,0.716858,-0.0924072,0.67395
55089067483,0.151245,0.717285,-0.0919189,0.673828
55089082506,0.151367,0.718933,-0.0925293,0.671997
55089105037,0.149963,0.717407,-0.0922241,0.674011
55089127526,0.149658,0.717834,-0.0926514,0.673584
55089142452,0.149109,0.717773,-0.0940552,0.673523
55089165007,0.148987,0.717712,-0.0941772,0.673645
55089180021,0.148743,0.71698,-0.0948486,0.674316
55089202587,0.148376,0.716919,-0.0961304,0.674255
55089225062,0.147827,0.71637,-0.0963745,0.674988
55089240029,0.147888,0.716187,-0.0971069,0.675049
55089262510,0.147766,0.716064,-0.097229,0.675171
55089285058,0.147644,0.716003,-0.09729,0.675232
55089307477,0.147156,0.715637,-0.0975342,0.67572
55089322513,0.147095,0.715637,-0.0976562,0.675781
55089345040,0.146606,0.715271,-0.0977783,0.676208
55089360014,0.146545,0.71521,-0.0979004,0.67627
55089382464,0.146118,0.714844,-0.0980835,0.676697
55089405043,0.145996,0.714783,-0.0982056,0.676758
55089420042,0.145935,0.714722,-0.0982666,0.67688
55089442506,0.145813,0.714661,-0.0983276,0.67688
55089464980,0.145142,0.714294,-0.098999,0.677368
55089480026,0.14502,0.714478,-0.0992432,0.677185
55089502513,0.144653,0.713989,-0.0995483,0.677673
55089524954,0.144592,0.713928,-0.0998535,0.677734
55089539996,0.14447,0.713867,-0.100647,0.677734
55089562573,0.143433,0.713257,-0.100464,0.678589
55089585016,0.143799,0.713318,-0.101257,0.678345
55089607485,0.14325,0.713013,-0.101196,0.678833
55089622542,0.143188,0.712646,-0.101746,0.679077
55089645030,0.142883,0.712524,-0.101807,0.679321
55089659990,0.142517,0.712219,-0.102356,0.679626
55089682513,0.142273,0.712158,-0.102478,0.679749
55089704984,0.141968,0.711853,-0.102905,0.679993
55089719999,0.141907,0.711792,-0.102966,0.680054
55089742557,0.141846,0.711792,-0.103027,0.680115
55089772593,0.141785,0.711731,-0.103088,0.680176
55089779955,0.141724,0.711731,-0.103149,0.680176
55089802607,0.141663,0.71167,-0.10321,0.680237
55089825026,0.141602,0.711609,-0.103271,0.680298
55089840011,0.141541,0.711548,-0.103333,0.680359
55089862593,0.141479,0.711548,-0.103394,0.680359
55089885030,0.141418,0.711487,-0.103455,0.68042
55089907575,0.141357,0.711487,-0.103516,0.680481
55089922585,0.141296,0.711426,-0.103516,0.680481
55089945011,0.141235,0.711426,-0.103577,0.680542
55089960008,0.141174,0.711365,-0.103638,0.680603
55089982541,0.141113,0.711304,-0.10376,0.680664
55090005045,0.141052,0.711304,-0.103821,0.680664
55090020013,0.140991,0.711243,-0.103882,0.680725
55090042566,0.140991,0.711182,-0.103882,0.680786
55090064948,0.14093,0.711182,-0.103943,0.680786
55090080027,0.140869,0.711121,-0.104004,0.680847
55090102470,0.140808,0.71106,-0.104065,0.680908
55090125072,0.140747,0.71106,-0.104126,0.680969
55090140037,0.140686,0.710999,-0.104187,0.680969
55090162488,0.140625,0.710999,-0.104248,0.68103
55090185083,0.140564,0.710938,-0.104309,0.68103
55090207579,0.140503,0.710938,-0.10437,0.681091
55090222511,0.140442,0.710876,-0.104431,0.681091
55090245067,0.140381,0.710876,-0.104492,0.681152
55090260035,0.140381,0.710815,-0.104553,0.681152
55090282535,0.14032,0.710815,-0.104553,0.681213
55090305034,0.140259,0.710754,-0.104614,0.681213
55090319993,0.140198,0.710754,-0.104675,0.681274
55090342527,0.140137,0.710693,-0.104736,0.681274
55090365043,0.140076,0.710693,-0.104797,0.681335
55090380070,0.140076,0.710632,-0.104858,0.681396
55090402548,0.140015,0.710632,-0.104919,0.681396
55090425083,0.139954,0.710571,-0.10498,0.681458
55090440070,0.139893,0.710571,-0.10498,0.681519
55090462468,0.139832,0.71051,-0.105042,0.681519
55090492534,0.139771,0.71051,-0.105103,0.68158
55090507583,0.139709,0.710449,-0.105164,0.68158
55090522552,0.139709,0.710449,-0.105225,0.681641
55090544994,0.139648,0.710388,-0.105286,0.681641
55090567573,0.139587,0.710388,-0.105347,0.681702
55090582532,0.139526,0.710327,-0.105347,0.681702
55090605098,0.139465,0.710327,-0.105408,0.681763
55090620059,0.139404,0.710266,-0.105469,0.681824
55090643032,0.139404,0.710266,-0.10553,0.681824
55090665092,0.139343,0.710205,-0.105591,0.681885
55090680095,0.139282,0.710205,-0.105591,0.681885
55090702490,0.139282,0.710144,-0.105652,0.681946
55090725065,0.139221,0.710144,-0.105713,0.681946
55090740101,0.13916,0.710083,-0.105713,0.682007
55090762573,0.13916,0.710083,-0.105774,0.682007
55090785013,0.139099,0.710022,-0.105835,0.682068
55090800074,0.139038,0.710022,-0.105835,0.682068
55090822580,0.139038,0.709961,-0.105896,0.682129
55090845045,0.138977,0.709961,-0.105957,0.682129
55090860043,0.138916,0.709961,-0.106018,0.68219
55090882572,0.138855,0.7099,-0.106018,0.68219
55090905009,0.138855,0.7099,-0.106079,0.682251
55090920498,0.138794,0.709839,-0.10614,0.682251
55090942537,0.138733,0.709839,-0.10614,0.682312
55090965040,0.138733,0.709778,-0.106201,0.682312
55090980056,0.138672,0.709778,-0.106262,0.682373
55091002598,0.138611,0.709778,-0.106323,0.682373
55091025060,0.138611,0.709717,-0.106323,0.682434
55091040019,0.13855,0.709656,-0.106384,0.682434
55091062612,0.138489,0.709656,-0.106384,0.682495
55091085086,0.138489,0.709656,-0.106445,0.682495
55091100012,0.138428,0.709595,-0.106506,0.682556
55091122612,0.138428,0.709595,-0.106506,0.682556
55091145081,0.138367,0.709534,-0.106567,0.682617
55091160064,0.138306,0.709534,-0.106628,0.682617
55091182572,0.138306,0.709534,-0.106628,0.682678
55091205037,0.138245,0.709473,-0.106689,0.682678
55091220043,0.138184,0.709473,-0.106689,0.682739
55091242592,0.138184,0.709412,-0.10675,0.682739
55091265073,0.138123,0.709412,-0.106812,0.682739
55091280011,0.138123,0.709351,-0.106812,0.6828
55091302575,0.138062,0.709351,-0.106873,0.6828
55091325069,0.138062,0.709351,-0.106873,0.682861
55091340019,0.138,0.70929,-0.106934,0.682861
55091362631,0.137939,0.70929,-0.106995,0.682922
55091385116,0.137939,0.709229,-0.106995,0.682922
55091399971,0.137878,0.709229,-0.107056,0.682922
55091422553,0.137817,0.709229,-0.107117,0.682983
55091445040,0.137817,0.709229,-0.107117,0.682983
55091460057,0.137756,0.709167,-0.107178,0.683044
55091482548,0.137756,0.709167,-0.107239,0.683044
55091505071,0.137695,0.709167,-0.107239,0.683044
55091520091,0.137634,0.709106,-0.1073,0.683105
55091542531,0.137573,0.709106,-0.107361,0.683105
55091565089,0.137573,0.709045,-0.107361,0.683167
55091580058,0.137512,0.709045,-0.107422,0.683167
55091602570,0.137512,0.709045,-0.107422,0.683167
55091625107,0.137451,0.708984,-0.107483,0.683228
55091640126,0.137451,0.708984,-0.107483,0.683228
55091662546,0.13739,0.708984,-0.107544,0.683228
55091685094,0.13739,0.708923,-0.107544,0.683289
55091700112,0.137329,0.708923,-0.107605,0.683289
55091722578,0.137329,0.708923,-0.107666,0.68335
55091752585,0.137268,0.708862,-0.107666,0.68335
55091760117,0.137268,0.708862,-0.107727,0.68335
55091782569,0.137207,0.708862,-0.107727,0.683411
55091805104,0.137146,0.708801,-0.107788,0.683411
55091820146,0.137146,0.708801,-0.107788,0.683411
55091842551,0.137085,0.708801,-0.107849,0.683472
55091865053,0.137085,0.70874,-0.107849,0.683472
55091880121,0.137024,0.70874,-0.10791,0.683533
55091902642,0.137024,0.70874,-0.10791,0.683533
55091925085,0.136963,0.708679,-0.107971,0.683533
55091940084,0.136963,0.708679,-0.108032,0.683594
55091962484,0.136902,0.708679,-0.108032,0.683594
55091985100,0.136902,0.708618,-0.108093,0.683655
55092000059,0.136841,0.708618,-0.108093,0.683655
55092029992,0.136841,0.708618,-0.108154,0.683655
55092045052,0.13678,0.708557,-0.108154,0.683655
55092060090,0.13678,0.708557,-0.108215,0.683716
55092082583,0.136719,0.708557,-0.108215,0.683716
55092105041,0.136719,0.708557,-0.108276,0.683716
55092120034,0.136658,0.708496,-0.108276,0.683716
55092142544,0.136658,0.708496,-0.108337,0.683777
55092165094,0.136597,0.708496,-0.108337,0.683777
55092180127,0.136597,0.708496,-0.108398,0.683777
55092202633,0.136536,0.708435,-0.108398,0.683838
55092224999,0.136536,0.708435,-0.108398,0.683838
55092247588,0.136536,0.708435,-0.108459,0.683838
55092262537,0.136475,0.708374,-0.108459,0.683899
55092285124,0.136414,0.708374,-0.108521,0.683899
55092307534,0.136414,0.708313,-0.108521,0.68396
55092322541,0.136414,0.708313,-0.108582,0.68396
55092345042,0.136353,0.708313,-0.108582,0.68396
55092367590,0.136353,0.708252,-0.108643,0.684021
55092382613,0.136292,0.708252,-0.108704,0.684021
55092405023,0.136292,0.708252,-0.108704,0.684082
55092420126,0.13623,0.708191,-0.108704,0.684082
55092442625,0.13623,0.708191,-0.108765,0.684082
55092465071,0.136169,0.70813,-0.108765,0.684143
55092480129,0.136169,0.70813,-0.108826,0.684143
55092502543,0.136108,0.70813,-0.108826,0.684204
55092525097,0.136108,0.70813,-0.108887,0.684204
55092540038,0.136047,0.708069,-0.108887,0.684265
55092562670,0.136047,0.708069,-0.108948,0.684265
55092585096,0.135986,0.708008,-0.108948,0.684265
55092600106,0.135986,0.708008,-0.109009,0.684265
55092622566,0.135986,0.708008,-0.109009,0.684265
55092645109,0.135925,0.708008,-0.109009,0.684326
55092660120,0.135925,0.708008,-0.10907,0.684326
55092682595,0.135864,0.708008,-0.10907,0.684326
55092705085,0.135864,0.707947,-0.109131,0.684326
55092720027,0.135803,0.707947,-0.109131,0.684387
55092742579,0.135803,0.707886,-0.109192,0.684387
55092765143,0.135803,0.707886,-0.109192,0.684387
55092780082,0.135742,0.707886,-0.109192,0.684448
55092802550,0.135742,0.707886,-0.109253,0.684448
55092825109,0.135681,0.707825,-0.109253,0.684509
55092840088,0.135681,0.707825,-0.109314,0.684509
55092862612,0.135681,0.707825,-0.109314,0.684509
55092885084,0.13562,0.707825,-0.109314,0.684509
55092900092,0.13562,0.707764,-0.109375,0.68457
55092922555,0.13562,0.707764,-0.109375,0.68457
55092945107,0.135559,0.707764,-0.109375,0.68457
55092967621,0.135559,0.707764,-0.109436,0.68457
55092982539,0.135498,0.707764,-0.109436,0.68457
55093005154,0.135498,0.707764,-0.109497,0.68457
55093020146,0.135498,0.707703,-0.109497,0.684631
55093042578,0.135437,0.707703,-0.109558,0.684631
55093065114,0.135437,0.707703,-0.109558,0.684631
55093080107,0.135437,0.707703,-0.109558,0.684692
55093102614,0.135376,0.707642,-0.109619,0.684692
55093125113,0.135376,0.707642,-0.109619,0.684692
55093140130,0.135315,0.707642,-0.109619,0.684692
55093162582,0.135315,0.707642,-0.10968,0.684692
55093185056,0.136536,0.70575,-0.111389,0.686096
55093200104,0.136292,0.70813,-0.105835,0.684631
55093222536,0.135986,0.705383,-0.106567,0.687378
55093245111,0.137512,0.706055,-0.104736,0.686646
55093260091,0.136963,0.704834,-0.104187,0.68811
55093282593,0.13623,0.704895,-0.103699,0.688293
55093305115,0.136047,0.704773,-0.103455,0.688477
55093320113,0.136658,0.704834,-0.104126,0.688171
55093342644,0.136658,0.704834,-0.104126,0.688171
55093365173,0.136658,0.704895,-0.104126,0.688171
55093380032,0.135986,0.704956,-0.104065,0.688232
55093402608,0.135315,0.704712,-0.103699,0.688599
55093425161,0.135071,0.704834,-0.103577,0.688599
55093440035,0.134949,0.704712,-0.103821,0.688721
55093462603,0.134888,0.704712,-0.103882,0.688721
55093485132,0.134705,0.704834,-0.103821,0.68866
55093500066,0.13446,0.704651,-0.104004,0.688843
55093522630,0.134399,0.704651,-0.104004,0.688843
55093545135,0.134399,0.704651,-0.104065,0.688782
55093560115,0.134338,0.704651,-0.104126,0.688843
55093582660,0.134155,0.704834,-0.104004,0.688721
55093605121,0.13385,0.704773,-0.103943,0.688843
55093620072,0.13385,0.704773,-0.103943,0.688782
55093642682,0.133423,0.704712,-0.103882,0.688965
55093665085,0.133423,0.704712,-0.103943,0.688965
55093680120,0.133118,0.704651,-0.103943,0.689087
55093702642,0.133057,0.704651,-0.104004,0.689087
55093725139,0.133057,0.704712,-0.104065,0.689087
55093740058,0.132996,0.704712,-0.104065,0.689026
55093770108,0.13269,0.704773,-0.103943,0.689087
55093785080,0.132385,0.704712,-0.103882,0.689148
55093807554,0.131958,0.704834,-0.103516,0.689209
55093822637,0.131592,0.704956,-0.103149,0.689209
55093845169,0.131104,0.705017,-0.102478,0.68927
55093867631,0.130005,0.705078,-0.10083,0.689758
55093882688,0.128662,0.704895,-0.0997314,0.690308
55093905089,0.127991,0.705261,-0.098999,0.690186
55093927621,0.127075,0.705078,-0.098999,0.690552
55093942591,0.12616,0.705383,-0.0981445,0.690491
55093965046,0.125366,0.705566,-0.0969238,0.690613
55093987593,0.124268,0.705627,-0.0958252,0.690918
55094002544,0.12323,0.706848,-0.0941772,0.690125
55094025072,0.123291,0.707214,-0.0940552,0.689758
55094047593,0.123291,0.708496,-0.0930786,0.688538
55094062622,0.12262,0.709473,-0.0917969,0.687805
55094085112,0.122559,0.710815,-0.09021,0.686646
55094107535,0.122437,0.712097,-0.0887451,0.685547
55094122584,0.121826,0.712646,-0.0892944,0.684998
55094145147,0.120667,0.71167,-0.086853,0.686523
55094167658,0.11731,0.71283,-0.081665,0.686523
55094182532,0.11853,0.711243,-0.0795288,0.688293
55094205158,0.119446,0.710388,-0.0770874,0.68927
55094227600,0.114441,0.710632,-0.071106,0.69043
55094242581,0.110596,0.710938,-0.0653687,0.691345
55094265222,0.107422,0.707764,-0.0634766,0.695251
55094287614,0.101501,0.702148,-0.0635376,0.701843
55094302624,0.0960693,0.695679,-0.0648804,0.708862
55094325186,0.0924683,0.691833,-0.0637207,0.713196
55094347612,0.0921631,0.691406,-0.0609131,0.713928
55094362606,0.0935059,0.690125,-0.0585938,0.715149
55094385151,0.0911865,0.687317,-0.0582275,0.718201
55094407615,0.0906982,0.683105,-0.0618286,0.721924
55094422578,0.0923462,0.677551,-0.0617065,0.726929
55094445095,0.0924072,0.670471,-0.0610352,0.733582
55094467536,0.092041,0.664978,-0.0640259,0.738342
55094482617,0.0912476,0.660095,-0.0669556,0.742554
55094505032,0.0901489,0.65509,-0.0657959,0.747192
55094527655,0.0889893,0.652405,-0.0636597,0.749878
55094550103,0.0866089,0.652222,-0.0621948,0.750427
55094565047,0.0822754,0.652954,-0.0599976,0.750427
55094587623,0.0806885,0.654907,-0.0585938,0.749023
55094610133,0.0784302,0.654907,-0.0578003,0.749329
55094625108,0.074585,0.651611,-0.0580444,0.752563
55094647653,0.0728149,0.647217,-0.0603027,0.756348
55094670152,0.0715942,0.641907,-0.0621338,0.760803
55094685198,0.0717163,0.636108,-0.0646362,0.765442
55094707662,0.0740967,0.629089,-0.067627,0.770752
55094730109,0.0760498,0.619934,-0.0703125,0.777771
55094745118,0.0770264,0.609436,-0.0728149,0.785706
55094767661,0.0785522,0.597534,-0.0756226,0.794373
55094790154,0.0786743,0.584534,-0.078186,0.803711
55094805065,0.0771484,0.570312,-0.0814209,0.813721
55094827660,0.0747681,0.55542,-0.0842896,0.823853
55094850145,0.0709839,0.541321,-0.0871582,0.833191
55094865137,0.0653687,0.527954,-0.0889282,0.842041
55094887635,0.0615234,0.513916,-0.0899048,0.85083
55094910146,0.057251,0.499939,-0.0908813,0.859314
55094925144,0.0530396,0.486511,-0.093689,0.866943
55094947681,0.0483398,0.474243,-0.0969849,0.873657
55094970141,0.0463867,0.460632,-0.101685,0.880493
55094985178,0.0458984,0.447144,-0.108521,0.886658
55095007654,0.0454102,0.432251,-0.115845,0.893127
55095030142,0.0459595,0.416626,-0.122742,0.899536
55095045218,0.0441895,0.399292,-0.128906,0.906555
55095067603,0.0446167,0.382385,-0.133362,0.913208
55095097623,0.0454712,0.366089,-0.135254,0.919556
55095105102,0.0444336,0.350952,-0.137634,0.92511
55095127635,0.0420532,0.337585,-0.137451,0.930237
55095150182,0.0401611,0.326172,-0.135559,0.934631
55095165103,0.0367432,0.317932,-0.132935,0.937988
55095180129,0.0317383,0.311035,-0.132202,0.940552
55095202605,0.0270996,0.305969,-0.135132,0.941956
55095225148,0.0214844,0.296448,-0.138306,0.944702
55095240192,0.0151367,0.277771,-0.138611,0.950439
55095262605,0.00976562,0.255249,-0.13916,0.956726
55095285141,0.00848389,0.234131,-0.144165,0.961365
55095300165,0.0131836,0.213928,-0.157532,0.963928
55095322565,0.0182495,0.190918,-0.173462,0.965942
55095345195,0.0171509,0.172241,-0.175171,0.969177
55095360110,0.0245972,0.164307,-0.17334,0.970703
55095382602,0.03302,0.165039,-0.167847,0.971313
55095405120,0.0386963,0.167603,-0.162842,0.971497
55095420091,0.0363159,0.168457,-0.159485,0.971985
55095442626,0.0330811,0.160339,-0.15863,0.973633
55095465125,0.0320435,0.14679,-0.160278,0.975525
55095480120,0.0338745,0.124512,-0.16626,0.9776
55095510140,0.0380859,0.0975342,-0.1745,0.979065
55095525134,0.0426636,0.0681152,-0.180603,0.980225
55095540131,0.0447998,0.0455933,-0.181152,0.981323
55095562585,0.0455933,0.0334473,-0.174744,0.982971
55095585145,0.0519409,0.0341797,-0.166748,0.984009
55095600148,0.0559692,0.0413818,-0.161194,0.984436
55095622623,0.0535889,0.0510864,-0.159363,0.984436
55095645130,0.0487061,0.0562134,-0.157593,0.98468
55095660124,0.0419312,0.055603,-0.157593,0.985046
55095682604,0.0350342,0.0497437,-0.159546,0.985291
55095705079,0.0286255,0.0407715,-0.161743,0.985535
55095720109,0.0233765,0.0328369,-0.160706,0.986145
55095742562,0.0193481,0.0289307,-0.157471,0.986877
55095765090,0.0168457,0.02948,-0.155457,0.987244
55095780168,0.015625,0.0326538,-0.156006,0.987061
55095802631,0.0139771,0.0361328,-0.157532,0.986755
55095825093,0.0127563,0.0387573,-0.15802,0.986572
55095840036,0.0109863,0.0385742,-0.156372,0.986877
55095862594,0.00744629,0.0366211,-0.154236,0.987305
55095885066,0.00415039,0.0322266,-0.15271,0.987732
55095900085,0.00250244,0.0281372,-0.151794,0.987976
55095922621,0.00152588,0.0255127,-0.148926,0.988464
55095945123,0.00146484,0.0250854,-0.144348,0.989197
55095960077,0.00158691,0.0266724,-0.14032,0.989746
55095990113,0.00177002,0.0293579,-0.137329,0.990051
55096005076,0.00195312,0.0318604,-0.134644,0.990356
55096020112,0.00164795,0.0333252,-0.130798,0.990845
55096042606,0.000915527,0.0335083,-0.127075,0.991272
55096065121,0,0.0318604,-0.124695,0.991638
55096080093,-0.0010376,0.0294189,-0.123413,0.991882
55096102633,-0.00244141,0.0269775,-0.122742,0.992065
55096125124,-0.00360107,0.0256958,-0.121277,0.992249
55096140090,-0.0043335,0.0264282,-0.119507,0.992432
55096162657,-0.00488281,0.0285034,-0.118164,0.992554
55096185101,-0.00469971,0.0309448,-0.117676,0.992554
55096200095,-0.00439453,0.0324097,-0.117737,0.992493
55096222640,-0.00415039,0.0324097,-0.11792,0.992432
55096245119,-0.00372314,0.031189,-0.117798,0.992493
55096260056,-0.00305176,0.0291138,-0.117615,0.992615
55096282645,-0.0020752,0.0274658,-0.117554,0.992676
55096305110,-0.00146484,0.0271606,-0.117676,0.992676
55096320132,-0.000549316,0.027832,-0.117798,0.992615
55096342666,0.000366211,0.0293579,-0.11792,0.992554
55096365144,0.000793457,0.0307007,-0.11792,0.992493
55096380113,0.000732422,0.0308228,-0.117371,0.992554
55096402608,0.000854492,0.0308838,-0.117004,0.992615
55096425130,0.000244141,0.0293579,-0.117493,0.992615
55096440127,0.00012207,0.0281982,-0.117737,0.992615
55096462595,6.10352e-05,0.0275879,-0.117432,0.992676
55096485140,-0.000366211,0.0275879,-0.117493,0.992676
55096500124,-0.000427246,0.0283203,-0.117981,0.992615
55096522584,-0.000244141,0.0292358,-0.117493,0.992615
55096545157,-0.000671387,0.0297852,-0.116699,0.992676
55096560111,-0.000732422,0.0296631,-0.11499,0.99292
55096582598,-0.000244141,0.0289917,-0.11377,0.993042
55096605175,0.000305176,0.0281982,-0.113647,0.993103
55096620150,0.000183105,0.027771,-0.114746,0.992981
55096642613,0.0010376,0.0272217,-0.115417,0.99292
55096665180,0.00280762,0.0275879,-0.115051,0.99292
55096680114,0.00415039,0.0281372,-0.114807,0.99292
55096702579,0.00567627,0.0288696,-0.11499,0.99292
55096725158,0.00817871,0.0286255,-0.115173,0.992859
55096747610,0.0108032,0.0280151,-0.11499,0.992859
55096762635,0.0136719,0.0269775,-0.11438,0.99292
55096785184,0.0178833,0.0257568,-0.113647,0.992981
55096800140,0.0227661,0.0245972,-0.113586,0.99292
55096822646,0.0257568,0.0239868,-0.114197,0.992798
55096845136,0.0300293,0.0236206,-0.11438,0.992676
55096860145,0.0346069,0.0235596,-0.113953,0.992554
55096882631,0.0373535,0.0239258,-0.113342,0.992554
55096905164,0.0403442,0.0241699,-0.11322,0.992432
55096920146,0.0435791,0.0238647,-0.113525,0.992249
55096942626,0.0463867,0.0231934,-0.11377,0.992126
55096965107,0.0477295,0.022522,-0.113708,0.992065
55096980120,0.0489502,0.0215454,-0.113342,0.992065
55097002620,0.0508423,0.020813,-0.113159,0.992004
55097025132,0.0519409,0.0204468,-0.113403,0.991943
55097040202,0.0513306,0.0209961,-0.11377,0.991943
55097062670,0.0514526,0.0216064,-0.113647,0.991943
55097085120,0.052002,0.0234375,-0.112976,0.991943
55097100084,0.0474854,0.0232544,-0.112915,0.992188
55097122663,0.0444946,0.0224609,-0.113464,0.992249
55097145130,0.0412598,0.0214233,-0.113037,0.992493
55097160086,0.0333862,0.0205688,-0.110168,0.993103
55097182658,0.0254517,0.0223389,-0.105835,0.993774
55097205100,0.0230713,0.0231934,-0.104004,0.994019
55097220132,0.0169678,0.026001,-0.10437,0.994019
55097242671,0.0111694,0.0273438,-0.105591,0.993958
55097265120,0.00970459,0.0285645,-0.105835,0.993896
55097280106,0.00653076,0.0290527,-0.105469,0.993958
55097302655,0.00299072,0.0292358,-0.104919,0.994019
55097325131,0.00360107,0.0281982,-0.104431,0.99408
55097340142,0.00415039,0.0270996,-0.10437,0.994141
55097362648,0.0043335,0.0261841,-0.104553,0.994141
55097385131,0.00708008,0.0255737,-0.104309,0.994141
55097400119,0.0101318,0.0254517,-0.103516,0.994202
55097422685,0.0126343,0.0258789,-0.102661,0.994263
55097460877,0.0158691,0.0262451,-0.102478,0.994263
55097461629,0.019043,0.0266113,-0.103027,0.994141
55097490106,0.0213013,0.0264282,-0.102905,0.99408
55097512650,0.0236816,0.0258179,-0.102356,0.99408
55097527647,0.0240479,0.0235596,-0.101929,0.994202
55097542626,0.0214844,0.0222168,-0.102234,0.994263
55097565122,0.0167847,0.0219727,-0.101074,0.994446
55097580109,0.0196533,0.0252075,-0.101807,0.994263
55097602654,0.0213013,0.0255127,-0.101379,0.994263
55097625153,0.0209351,0.0250244,-0.102234,0.994202
55097640199,0.0187988,0.0249023,-0.101929,0.994263
55097662751,0.0162354,0.0251465,-0.10144,0.994385
55097685197,0.0145264,0.0250244,-0.101135,0.994446
55097700190,0.0131836,0.0244141,-0.100342,0.994507
55097722767,0.0119019,0.0241699,-0.0993042,0.99469
55097745162,0.0112915,0.024292,-0.0979614,0.994812
55097760219,0.0111084,0.0245361,-0.097168,0.994873
55097782707,0.0108032,0.0249023,-0.0974731,0.994812
55097805219,0.0111694,0.0253296,-0.0977173,0.994812
55097820149,0.012085,0.0253906,-0.097229,0.994812
55097842716,0.0126953,0.0250244,-0.0970459,0.994873
55097865226,0.0133667,0.0245361,-0.0974121,0.994812
55097880245,0.0140991,0.0238647,-0.0975342,0.994812
55097902709,0.0146484,0.0236206,-0.097168,0.994873
55097932591,0.0150757,0.0236206,-0.0969849,0.994873
55097940184,0.0154419,0.0239868,-0.097229,0.994812
55097962707,0.0155029,0.0245972,-0.097229,0.994812
55097985195,0.0152588,0.0249634,-0.0971069,0.994812
55098000235,0.0149536,0.0247192,-0.097168,0.994812
55098022612,0.0139771,0.0241699,-0.0969849,0.994873
55098045256,0.0136108,0.0236816,-0.0967407,0.994934
55098060229,0.0133057,0.0230103,-0.0963745,0.994934
55098082661,0.0126343,0.022583,-0.0963135,0.994995
55098105281,0.0123291,0.022583,-0.0963745,0.994995
55098120238,0.012146,0.0228882,-0.0964355,0.994995
55098142654,0.0120239,0.0233154,-0.0963135,0.994995
55098165285,0.0120239,0.0238037,-0.0961914,0.994995
55098180251,0.0120239,0.0238037,-0.0961914,0.994995
55098202622,0.0117188,0.0234985,-0.0963135,0.994995
55098225250,0.0118408,0.0230103,-0.0964966,0.994995
55098240243,0.0118408,0.0224609,-0.0963745,0.994995
55098262718,0.0118408,0.0224609,-0.0963745,0.994995
55098285289,0.012146,0.022644,-0.0964966,0.994995
55098300194,0.0123291,0.0231323,-0.0964355,0.994995
55098322622,0.0123291,0.0238037,-0.0959473,0.994995
55098345235,0.0125732,0.0241089,-0.0961304,0.994995
55098360168,0.0126343,0.0238647,-0.0963745,0.994934
55098382676,0.0126343,0.0233154,-0.0963135,0.994995
55098405230,0.0128174,0.0230713,-0.0962524,0.994995
55098420207,0.012085,0.0194702,-0.0952148,0.995178
55098442727,0.0110474,0.0130005,-0.0928955,0.995483
55098465258,0.0102539,0.0105591,-0.0914307,0.995667
55098480206,0.00970459,0.00952148,-0.0914917,0.995667
55098502681,0.00958252,0.0144653,-0.0906372,0.995728
55098525197,0.0090332,0.0178833,-0.0889893,0.995789
55098540253,0.00817871,0.0181885,-0.0873413,0.995972
55098562709,0.00750732,0.0161743,-0.0861816,0.996094
55098585188,0.00628662,0.0122681,-0.0844727,0.996277
55098600258,0.00549316,0.00817871,-0.083374,0.99646
55098622727,0.00415039,0.00524902,-0.0822754,0.996582
55098645189,0.00378418,0.00311279,-0.0804443,0.996704
55098660320,0.0022583,0.00292969,-0.0778809,0.996948
55098682743,0.00109863,0.00268555,-0.0756226,0.997131
55098705191,0.0022583,0.00384521,-0.0726318,0.997314
55098720327,-0.000183105,0.00585938,-0.0692749,0.997559
55098742773,-0.00250244,0.0108032,-0.0661011,0.997742
55098765217,-0.00360107,0.0153198,-0.06427,0.997803
55098780220,-0.0067749,0.0164185,-0.0637207,0.997803
55098802666,-0.00640869,0.0169067,-0.062561,0.997864
55098825165,-0.00897217,0.0180664,-0.0587769,0.998047
55098840181,-0.0126343,0.0194702,-0.0568848,0.998108
55098877683,-0.0145264,0.0177612,-0.0565796,0.998108
55098900940,-0.0151367,0.0140381,-0.0562134,0.998169
55098901657,-0.0170288,0.0106812,-0.0570068,0.998169
55098930192,-0.0153198,0.010437,-0.0557251,0.99823
55098952704,-0.0151978,0.0117188,-0.0552979,0.99823
55098975221,-0.0145264,0.0126953,-0.0557251,0.99823
55099005919,-0.0109863,0.015625,-0.0568237,0.998169
55099006691,-0.00848389,0.0184326,-0.0559692,0.998169
55099027729,-0.00665283,0.0213013,-0.0529175,0.998291
55099057741,-0.00384521,0.0183716,-0.050293,0.998535
55099080943,-0.00323486,0.0162964,-0.0485229,0.998657
55099081734,-0.00463867,0.0150146,-0.0458374,0.998779
55099110245,-0.00738525,0.0177612,-0.043335,0.99884
55099132729,-0.010437,0.0202026,-0.0405884,0.998901
55099155229,-0.0132446,0.0204468,-0.0387573,0.998901
55099185973,-0.0153198,0.0228271,-0.0379028,0.998901
55099186637,-0.0178223,0.0238647,-0.0380859,0.998779
55099207665,-0.0182495,0.026001,-0.0380249,0.998718
55099237744,-0.0161743,0.0251465,-0.038208,0.998779
55099260987,-0.0147095,0.0266113,-0.0403442,0.998718
55099261721,-0.0120239,0.0255127,-0.0426636,0.998657
55099282675,-0.00958252,0.0227051,-0.0446777,0.998657
55099312700,-0.00622559,0.0186768,-0.0463257,0.998718
55099335266,-0.00622559,0.0136108,-0.048584,0.998657
55099365939,-0.00427246,0.00982666,-0.0497437,0.998657
55099366793,-0.00238037,0.0114136,-0.050293,0.998657
55099387724,-0.003479,0.0179443,-0.0495605,0.998596
55099417696,-0.00323486,0.0297241,-0.052063,0.998169
55099440891,-0.00335693,0.038147,-0.055603,0.997681
55099441670,-0.00531006,0.0401611,-0.0593872,0.997375
55099462782,-0.00811768,0.0375366,-0.0622559,0.997314
55099485211,-0.0098877,0.0317993,-0.0631714,0.997437
55099507809,-0.0126953,0.0237427,-0.0632324,0.99762
55099522679,-0.0153809,0.0165405,-0.0632935,0.997681
55099545210,-0.0165405,0.0137939,-0.0634766,0.997742
55099560240,-0.0184937,0.0159912,-0.0632324,0.997681
55099582788,-0.0189209,0.0209351,-0.0632935,0.997559
55099605249,-0.0184937,0.0258179,-0.0636597,0.997437
55099620272,-0.0186157,0.0290527,-0.0634155,0.997375
55099642768,-0.0178223,0.0288086,-0.0631104,0.997375
55099665286,-0.0169067,0.0254517,-0.0634155,0.997498
55099680268,-0.0161743,0.020813,-0.0637207,0.99762
55099702777,-0.0145874,0.0168457,-0.0634766,0.997681
55099725295,-0.0134888,0.0158081,-0.0631714,0.997742
55099740311,-0.0125732,0.0179443,-0.0633545,0.997742
55099762692,-0.0112305,0.0218506,-0.0634766,0.997681
55099785291,-0.0105591,0.0253906,-0.0632935,0.997559
55099800288,-0.0106201,0.0264893,-0.0632324,0.997559
55099822687,-0.0108643,0.0248413,-0.0634766,0.997559
55099845220,-0.0117188,0.0213623,-0.0634155,0.997681
55099860354,-0.0127563,0.0180054,-0.0632324,0.997742
55099882758,-0.0134888,0.0164185,-0.0632935,0.997742
55099905276,-0.0145264,0.0172119,-0.0634766,0.997681
55099927752,-0.0152588,0.0196533,-0.0634766,0.99762
55099942639,-0.0158691,0.0222168,-0.0634766,0.997559
55099965310,-0.0165405,0.0239258,-0.0635376,0.997559
55099980265,-0.0166626,0.0237427,-0.0635376,0.997559
55100002777,-0.0166016,0.0222778,-0.0635376,0.997559
55100025324,-0.0167236,0.0202637,-0.0636597,0.99762
55100040256,-0.0159912,0.0187378,-0.0639038,0.99762
55100062670,-0.0150757,0.0182495,-0.0640869,0.99762
55100085292,-0.0144653,0.0188599,-0.0640869,0.99762
55100100290,-0.0133057,0.0199585,-0.0641479,0.99762
55100122737,-0.012207,0.0216064,-0.0640869,0.99762
55100145263,-0.0118408,0.022644,-0.0640869,0.997559
55100160224,-0.0106812,0.0234375,-0.0646973,0.997559
55100182763,-0.00964355,0.0238037,-0.0656128,0.997498
55100205255,-0.00848389,0.0245972,-0.0654907,0.997498
55100220258,-0.00604248,0.0249023,-0.0622559,0.997681
55100242751,-0.00421143,0.0252686,-0.0609741,0.997803
55100265263,-0.0022583,0.0253906,-0.0603638,0.997803
55100280257,0.00189209,0.0253906,-0.0611572,0.997803
55100302735,0.00646973,0.0249634,-0.0621338,0.997681
55100325197,0.00915527,0.0240479,-0.0619507,0.997742
55100340276,0.0131226,0.0231934,-0.060791,0.997742
55100362731,0.0178223,0.0220947,-0.0601196,0.997742
55100385243,0.0216064,0.0214233,-0.06073,0.997681
55100400294,0.0239258,0.0206909,-0.0615845,0.997559
55100422800,0.0268555,0.0206299,-0.0614624,0.997498
55100445168,0.0283813,0.0202026,-0.0604858,0.997559
55100460259,0.0280151,0.0205688,-0.0599976,0.997559
55100482804,0.0283813,0.020752,-0.0605469,0.997498
55100505298,0.0288696,0.0211182,-0.0612183,0.997437
55100520248,0.0269165,0.0212402,-0.0612183,0.997498
55100542718,0.0251465,0.0213013,-0.0605469,0.997559
55100565240,0.0230713,0.0213623,-0.0601196,0.997681
55100580257,0.0202637,0.0213013,-0.0606079,0.997681
55100602802,0.0166016,0.0213013,-0.0612793,0.997742
55100632757,0.0131836,0.0219116,-0.0614014,0.997742
55100640246,0.0106812,0.0228271,-0.0609741,0.997803
55100662800,0.00732422,0.0236816,-0.06073,0.997803
55100685356,0.00415039,0.024231,-0.0610352,0.997803
55100700278,0.00213623,0.0245361,-0.0617065,0.997742
55100722758,0.00012207,0.0247803,-0.0618896,0.997742
55100745235,-0.00189209,0.0244751,-0.0614014,0.997803
55100760236,-0.00231934,0.0239258,-0.0610352,0.997803
55100782709,-0.00219727,0.0233765,-0.0612183,0.997803
55100805278,-0.00219727,0.0230713,-0.0617065,0.997803
55100820232,-0.000915527,0.0230713,-0.0617676,0.997803
55100842809,0.0012207,0.0232544,-0.0613403,0.997803
55100865302,0.00317383,0.0236206,-0.0609741,0.997803
55100880193,0.00543213,0.0238647,-0.0611572,0.997803
55100910264,0.00848389,0.0238037,-0.0614624,0.997742
55100925254,0.0112305,0.0234985,-0.0614014,0.997742
55100940243,0.0136719,0.0228882,-0.0610352,0.997742
55100962788,0.0164185,0.0220947,-0.0606079,0.997742
55100985212,0.0185547,0.0213013,-0.0605469,0.997742
55101000336,0.0200195,0.0202637,-0.060791,0.997742
55101022820,0.020752,0.0195923,-0.0606689,0.997742
55101045315,0.0213013,0.0188599,-0.0601196,0.997742
55101060304,0.0212402,0.0186768,-0.0597534,0.997803
55101082790,0.0205078,0.0183716,-0.0605469,0.997742
55101105260,0.0188599,0.0195923,-0.0609741,0.997742
55101120314,0.0171509,0.0201416,-0.0611572,0.997742
55101142767,0.0142212,0.0214844,-0.0604248,0.997803
55101165295,0.0111084,0.0216064,-0.0600586,0.997864
55101187765,0.00854492,0.0228271,-0.0609131,0.997803
55101202813,0.00561523,0.022644,-0.0616455,0.997803
55101225272,0.00262451,0.0232544,-0.0613403,0.997803
55101240258,0.000610352,0.0223389,-0.0608521,0.997864
55101262672,-0.00140381,0.0227051,-0.060791,0.997864
55101285285,-0.00292969,0.0222778,-0.0612793,0.997864
55101300225,-0.0032959,0.022522,-0.0618286,0.997803
55101322710,-0.00335693,0.022522,-0.0618286,0.997803
55101345308,-0.00317383,0.0228882,-0.0612183,0.997803
55101360299,-0.00201416,0.0229492,-0.0612183,0.997803
55101382774,-0.000610352,0.0230103,-0.0615845,0.997803
55101405317,0.000854492,0.022644,-0.0616455,0.997803
55101427795,0.00292969,0.0222778,-0.0612183,0.997864
55101442763,0.00524902,0.0215454,-0.0610962,0.997864
55101465768,0.00708008,0.0209961,-0.0613403,0.997864
55101487821,0.00897217,0.0205688,-0.0615845,0.997803
55101502796,0.0108643,0.0203247,-0.0614014,0.997803
55101525284,0.0119019,0.0201416,-0.0610962,0.997803
55101547831,0.0126343,0.0202026,-0.0611572,0.997803
55101562781,0.0131226,0.0202637,-0.0614014,0.997803
55101585330,0.0126953,0.0205688,-0.0613403,0.997803
55101607716,0.0119019,0.0206299,-0.0610962,0.997803
55101622714,0.0109863,0.020752,-0.0609741,0.997864
55101645239,0.00952148,0.020813,-0.0611572,0.997864
55101667808,0.0078125,0.0209351,-0.0612793,0.997864
55101682793,0.00634766,0.0211182,-0.0612183,0.997864
55101705260,0.00494385,0.0214233,-0.0610352,0.997864
55101727826,0.00341797,0.0217285,-0.0611572,0.997864
55101742783,0.00244141,0.0220947,-0.0613403,0.997864
55101765316,0.00183105,0.0222778,-0.0614014,0.997864
55101787823,0.0012207,0.0222168,-0.0612793,0.997864
55101802827,0.0012207,0.0222168,-0.0612793,0.997864
55101825241,0.00146484,0.0220337,-0.0614014,0.997864
55101847839,0.00183105,0.0218506,-0.0614624,0.997864
55101862840,0.00274658,0.0216064,-0.0613403,0.997864
55101885310,0.00384521,0.0214233,-0.0613403,0.997864
55101907786,0.00482178,0.0214233,-0.0614014,0.997864
55101922759,0.00604248,0.0214233,-0.0614014,0.997864
55101945266,0.00738525,0.0213013,-0.0612793,0.997864
55101967784,0.00836182,0.0211792,-0.0612183,0.997864
55101982815,0.00921631,0.0209961,-0.0612793,0.997803
55102005260,0.0100708,0.0206909,-0.0613403,0.997803
55102027821,0.010437,0.0203857,-0.0613403,0.997803
55102042825,0.010498,0.0203857,-0.0613403,0.997803
55102065282,0.010498,0.0203247,-0.0613403,0.997803
55102095259,0.0101318,0.0206299,-0.0614014,0.997803
55102102788,0.00964355,0.0210571,-0.0614014,0.997803
55102125298,0.00897217,0.0214844,-0.0613403,0.997803
55102147846,0.00817871,0.0213623,-0.0620117,0.997803
55102162814,0.00762939,0.0217896,-0.0627441,0.997742
55102185285,0.00720215,0.0206909,-0.0626221,0.997742
55102207811,0.00457764,0.0130005,-0.0611572,0.997986
55102230286,0.00250244,0.0148315,-0.0604858,0.998047
55102245324,0.00262451,0.013916,-0.05896,0.998108
55102260288,0.000915527,0.0183716,-0.0569458,0.998169
55102282917,0.00012207,0.0205688,-0.0545044,0.998291
55102305282,0.000793457,0.0215454,-0.053833,0.998291
55102320286,0.000732422,0.0148926,-0.0519409,0.998535
55102342804,-0.00195312,0.00750732,-0.0518188,0.998596
55102372813,-0.00323486,0.000549316,-0.0524292,0.998596
55102380324,-0.00445557,-0.00561523,-0.0544434,0.998474
55102402747,-0.00701904,-0.00427246,-0.0546265,0.998474
55102432784,-0.00726318,0.00195312,-0.0523682,0.998596
55102440290,-0.0100098,0.0133057,-0.0505371,0.998535
55102462727,-0.0128174,0.0219116,-0.0509644,0.998352
55102485318,-0.0123291,0.0233154,-0.0512695,0.998291
55102500319,-0.0140381,0.0186768,-0.0522461,0.998352
55102522721,-0.0144043,0.0117798,-0.0516968,0.998474
55102545343,-0.0134888,0.00640869,-0.0531006,0.998474
55102560281,-0.0159302,0.0045166,-0.0553589,0.998291
55102582756,-0.0184326,0.00604248,-0.0587158,0.998047
55102612785,-0.0188599,0.00927734,-0.0627441,0.997803
55102635347,-0.0186157,0.0112305,-0.0632935,0.997742
55102657859,-0.0160522,0.0150146,-0.0631104,0.997742
55102665314,-0.0137329,0.012146,-0.0650024,0.997681
55102687838,-0.0112305,0.00958252,-0.0704346,0.997375
55102710310,-0.00927734,0.00469971,-0.0741577,0.997192
55102740289,-0.00976562,0.00378418,-0.0750732,0.99707
55102747739,-0.00769043,0.00482178,-0.0761719,0.997009
55102762781,-0.0067749,0.00976562,-0.0780029,0.996826
55102785358,-0.00750732,0.0135498,-0.0796509,0.996704
55102800347,-0.00842285,0.0177002,-0.0811157,0.99646
55102822824,-0.00799561,0.0198975,-0.0824585,0.996338
55102852797,-0.00842285,0.0224609,-0.0822754,0.996277
55102860305,-0.00860596,0.0285034,-0.0791016,0.996399
55102882825,-0.00775146,0.03302,-0.0779419,0.996338
55102905328,-0.00622559,0.0397949,-0.0782471,0.996094
55102920340,-0.00604248,0.0435181,-0.0787354,0.995911
55102942789,-0.00762939,0.0388794,-0.0794678,0.996033
55102965392,-0.00897217,0.0264893,-0.0805664,0.996338
55102980342,-0.0106812,0.0150757,-0.0800781,0.996582
55103002843,-0.0137329,0.00579834,-0.0761719,0.996948
55103025290,-0.0166626,0.00427246,-0.0722046,0.997192
55103040316,-0.0166626,0.00793457,-0.0709229,0.997314
55103062881,-0.0184326,0.0167847,-0.0723877,0.997009
55103085309,-0.0211792,0.0253296,-0.0734863,0.996704
55103100308,-0.0197754,0.0316772,-0.0733032,0.996582
55103122895,-0.019165,0.0330811,-0.0721436,0.996643
55103145351,-0.020752,0.0310059,-0.0710449,0.996765
55103160310,-0.0199585,0.0248413,-0.0706177,0.996948
55103182880,-0.019165,0.0183105,-0.0706787,0.997131
55103205342,-0.0195312,0.0141602,-0.0698242,0.997253
55103220270,-0.0178833,0.012207,-0.0673828,0.997437
55103242787,-0.0150757,0.0134277,-0.0648193,0.997681
55103265277,-0.0136108,0.0189819,-0.0630493,0.997681
55103280305,-0.0120239,0.0249634,-0.0610962,0.997742
55103302743,-0.0100708,0.03302,-0.0604248,0.997559
55103325412,-0.00683594,0.0379639,-0.0603027,0.997375
55103340352,-0.00628662,0.039856,-0.0609131,0.997314
55103362864,-0.00616455,0.0394897,-0.0610962,0.997314
55103385316,-0.00622559,0.0358276,-0.0610962,0.997437
55103400236,-0.00671387,0.0288086,-0.0604858,0.997681
55103422791,-0.00701904,0.0238037,-0.0596924,0.997864
55103445295,-0.00610352,0.0166016,-0.0592041,0.998047
55103460318,-0.00811768,0.0128174,-0.0596313,0.998047
55103482821,-0.00842285,0.0126953,-0.0602417,0.998047
55103505371,-0.00689697,0.0163574,-0.0606689,0.997986
55103520387,-0.00762939,0.0217896,-0.0606689,0.997864
55103542782,-0.0101929,0.0269775,-0.06073,0.997681
55103565408,-0.00872803,0.0334473,-0.0609131,0.997498
55103580295,-0.00817871,0.0372925,-0.0610962,0.997375
55103602842,-0.0111084,0.0387573,-0.0613403,0.997253
55103625298,-0.0109253,0.0360107,-0.0614014,0.997375
55103640363,-0.010437,0.0326538,-0.0612183,0.997498
55103662815,-0.0134277,0.0274048,-0.06073,0.997681
55103685328,-0.0142822,0.0219116,-0.0604248,0.997803
55103700341,-0.0130005,0.019165,-0.0604858,0.997864
55103722836,-0.0144043,0.0181274,-0.0602417,0.997864
55103745318,-0.015686,0.0189819,-0.0601807,0.997864
55103760740,-0.0134277,0.0206909,-0.0601196,0.997864
55103782823,-0.0131226,0.0255127,-0.0604858,0.997742
55103805262,-0.0133667,0.0303345,-0.060791,0.997559
55103820306,-0.0109253,0.0336914,-0.0608521,0.997498
55103842798,-0.0100708,0.0352783,-0.0609131,0.997437
55103865264,-0.0107422,0.0345459,-0.06073,0.997498
55103887848,-0.00927734,0.0310669,-0.0604248,0.99762
55103902804,-0.00891113,0.0263672,-0.0599976,0.997803
55103925312,-0.0100098,0.022522,-0.0596313,0.997864
55103940308,-0.0088501,0.0192261,-0.0596313,0.997986
55103962825,-0.0078125,0.0170898,-0.0596924,0.997986
55103985311,-0.0090332,0.0167847,-0.0598145,0.997986
55104000355,-0.00836182,0.0181885,-0.0598145,0.997986
55104022858,-0.00689697,0.0206299,-0.0599365,0.997925
55104037855,-0.00805664,0.0235596,-0.0601807,0.997864
55104060308,-0.00860596,0.0267334,-0.0604858,0.997742
55104082831,-0.00689697,0.0298462,-0.0605469,0.997681
55104097862,-0.00762939,0.0313721,-0.0604248,0.99762
55104120345,-0.00927734,0.0316162,-0.0604248,0.99762
55104142904,-0.00878906,0.029541,-0.0603027,0.997681
55104165337,-0.0100098,0.0266113,-0.0602417,0.997742
55104180352,-0.0122681,0.0237427,-0.0600586,0.997803
55104202841,-0.0123901,0.0215454,-0.0599976,0.997864
55104217873,-0.0129395,0.0205688,-0.0600586,0.997864
55104240378,-0.0147705,0.0209961,-0.0601807,0.997803
55104262905,-0.0148315,0.0229492,-0.0604248,0.997742
55104277863,-0.0142822,0.0255127,-0.0605469,0.997681
55104300342,-0.0152588,0.0284424,-0.0605469,0.99762
55104322949,-0.0149536,0.0304565,-0.0604858,0.997559
55104337864,-0.0142212,0.03125,-0.0605469,0.997559
55104360328,-0.0144043,0.0303345,-0.0605469,0.997559
55104382924,-0.0141602,0.0281372,-0.0603638,0.997681
55104397915,-0.0133667,0.0254517,-0.0601196,0.997742
55104420304,-0.0132446,0.0229492,-0.0598755,0.997803
55104442946,-0.0128174,0.0213623,-0.0598755,0.997864
55104457916,-0.0115967,0.020874,-0.0599976,0.997864
55104480411,-0.0112305,0.0215454,-0.0599976,0.997864
55104502889,-0.0109253,0.0229492,-0.0599976,0.997864
55104517952,-0.0098877,0.0250854,-0.0601196,0.997803
55104540328,-0.00933838,0.0270386,-0.0602417,0.997742
55104562837,-0.00946045,0.0284424,-0.0604248,0.997681
55104577935,-0.00915527,0.0285034,-0.0604248,0.997681
55104600368,-0.00921631,0.0275879,-0.0602417,0.997742
55104622835,-0.0100708,0.0258179,-0.0600586,0.997803
55104637884,-0.0105591,0.0239868,-0.0599976,0.997803
55104660371,-0.0110474,0.0223999,-0.0599976,0.997864
55104682806,-0.0120239,0.0216064,-0.0600586,0.997864
55104697807,-0.0126953,0.0218506,-0.0600586,0.997864
55104720403,-0.0130615,0.0230103,-0.0601807,0.997803
55104742922,-0.0137329,0.0247192,-0.0604248,0.997742
55104757812,-0.0140381,0.0265503,-0.0604858,0.997681
55104780365,-0.0139771,0.0279541,-0.0604248,0.997681
55104802835,-0.0142822,0.0282593,-0.0603027,0.99762
55104817852,-0.0143433,0.02771,-0.0603027,0.997681
55104840335,-0.0140991,0.0263062,-0.0603027,0.997681
55104862853,-0.0140381,0.0246582,-0.0601807,0.997742
55104877826,-0.013855,0.0231323,-0.0599976,0.997803
55104900381,-0.0133667,0.0222778,-0.0599976,0.997803
55104922832,-0.0130005,0.0220947,-0.0599976,0.997864
55104937872,-0.0125122,0.0227661,-0.0601196,0.997803
55104960393,-0.0119019,0.0239868,-0.0601196,0.997803
55104982839,-0.0114136,0.0253296,-0.0601807,0.997803
55104997834,-0.0110474,0.0263672,-0.0602417,0.997742
55105020365,-0.0106812,0.0267944,-0.0603027,0.997742
55105042834,-0.0105591,0.0264282,-0.0602417,0.997742
55105057867,-0.0106812,0.0255127,-0.0601196,0.997803
55105080324,-0.0108643,0.024231,-0.0599976,0.997803
55105102907,-0.0111084,0.0230713,-0.0599365,0.997864
55105117908,-0.0115356,0.0223999,-0.0599976,0.997864
55105140350,-0.0118408,0.0223389,-0.0600586,0.997864
55105162947,-0.0122681,0.0230103,-0.0601196,0.997803
55105177834,-0.0126343,0.0240479,-0.0602417,0.997803
55105200342,-0.0128174,0.0253296,-0.0603638,0.997742
55105222953,-0.0130615,0.0262451,-0.0604858,0.997681
55105245376,-0.0133057,0.0266724,-0.0604858,0.997681
55105260339,-0.0134888,0.0264282,-0.0604248,0.997681
55105282906,-0.0136108,0.0256348,-0.0603027,0.997742
55105297908,-0.0137329,0.0245361,-0.0602417,0.997742
55105320303,-0.0136108,0.0235596,-0.0602417,0.997803
55105342954,-0.0134888,0.0228882,-0.0601807,0.997803
55105357947,-0.0132446,0.0228271,-0.0601196,0.997803
55105380336,-0.0128174,0.0232544,-0.0601807,0.997803
55105403007,-0.0124512,0.0240479,-0.0602417,0.997803
55105417943,-0.012085,0.0249634,-0.0603027,0.997742
55105440444,-0.0117188,0.0256348,-0.0603027,0.997742
55105462939,-0.0114746,0.0258179,-0.0603027,0.997742
55105477898,-0.0113525,0.0255737,-0.0602417,0.997742
55105500381,-0.0112305,0.0249023,-0.0601807,0.997803
55105522930,-0.0112915,0.0240479,-0.0601196,0.997803
55105537983,-0.0113525,0.0233154,-0.0600586,0.997803
55105560334,-0.0114746,0.0228882,-0.0600586,0.997864
55105582949,-0.0117188,0.0229492,-0.0601196,0.997803
55105597917,-0.0119019,0.0233765,-0.0601807,0.997803
55105620378,-0.012146,0.0240479,-0.0602417,0.997803
55105642899,-0.0123291,0.0249023,-0.0603027,0.997742
55105657867,-0.0125732,0.0255127,-0.0603638,0.997742
55105680406,-0.0127563,0.0256958,-0.0604248,0.997742
55105702918,-0.0129395,0.0255127,-0.0604248,0.997742
55105717934,-0.0131226,0.0249634,-0.0603638,0.997742
55105740347,-0.0131836,0.024292,-0.0603027,0.997742
55105762852,-0.0131836,0.0236816,-0.0602417,0.997803
55105777827,-0.0131836,0.0236816,-0.0602417,0.997803
55105800383,-0.0131836,0.0236206,-0.0602417,0.997803
55105822836,-0.0130615,0.0240479,-0.0602417,0.997803
55105837851,-0.0128174,0.0245972,-0.0603027,0.997742
55105860377,-0.0125732,0.0251465,-0.0603027,0.997742
55105882850,-0.0122681,0.0255127,-0.0603027,0.997742
55105897848,-0.012085,0.0255127,-0.0603027,0.997742
55105920369,-0.0119019,0.0252686,-0.0602417,0.997742
55105942871,-0.0117798,0.0247192,-0.0601807,0.997803
55105957855,-0.0117798,0.0241699,-0.0601196,0.997803
55105980471,-0.0119019,0.0237427,-0.0601196,0.997803
55106002953,-0.0119019,0.0236816,-0.0601196,0.997803
55106017855,-0.0119629,0.0238037,-0.0601196,0.997803
55106040398,-0.012085,0.0241699,-0.0601807,0.997803
55106062967,-0.012207,0.0246582,-0.0603027,0.997803
55106077911,-0.0123291,0.0251465,-0.0603027,0.997742
55106100439,-0.0124512,0.0254517,-0.0603638,0.997742
55106122984,-0.0125122,0.0254517,-0.0603638,0.997742
55106137944,-0.0126343,0.0252075,-0.0603638,0.997742
55106160417,-0.0127563,0.0248413,-0.0603027,0.997742
55106182929,-0.0128174,0.024353,-0.0603027,0.997742
55106197859,-0.0128784,0.0239868,-0.0603027,0.997803
55106220402,-0.0128784,0.0239258,-0.0603027,0.997803
55106242930,-0.0128174,0.0241089,-0.0603027,0.997803
55106258353,-0.0126343,0.0244141,-0.0603027,0.997742
55106280384,-0.0125122,0.0248413,-0.0603027,0.997742
55106302852,-0.0123291,0.0250854,-0.0603027,0.997742
55106317889,-0.0123291,0.0251465,-0.0603027,0.997742
55106340429,-0.0123291,0.0251465,-0.0603027,0.997742
55106362887,-0.012207,0.0247803,-0.0603027,0.997742
55106377921,-0.012146,0.024353,-0.0602417,0.997803
55106400450,-0.012085,0.0239868,-0.0602417,0.997803
55106422879,-0.012085,0.0239258,-0.0602417,0.997803
55106437973,-0.012085,0.0239258,-0.0602417,0.997803
55106460362,-0.012146,0.0241699,-0.0602417,0.997803
55106482869,-0.0122681,0.0245361,-0.0603027,0.997803
55106497954,-0.0123291,0.0249023,-0.0603027,0.997742
55106520368,-0.0124512,0.0251465,-0.0603638,0.997742
55106542952,-0.0124512,0.0251465,-0.0603638,0.997742
55106557970,-0.0124512,0.0251465,-0.0603638,0.997742
55106580406,-0.0125732,0.0249023,-0.0603027,0.997742
55106610423,-0.0126953,0.0245972,-0.0603027,0.997742
55106617910,-0.0127563,0.024353,-0.0602417,0.997803
55106640400,-0.0128174,0.024292,-0.0602417,0.997803
55106662880,-0.0128174,0.024292,-0.0602417,0.997803
55106677976,-0.0128174,0.0244751,-0.0603027,0.997742
55106700368,-0.0126953,0.0247192,-0.0603027,0.997742
55106722939,-0.0125732,0.0249634,-0.0603027,0.997742
55106737947,-0.0125732,0.0249634,-0.0603027,0.997742
55106760427,-0.0125732,0.0249634,-0.0603027,0.997742
55106782929,-0.0124512,0.0248413,-0.0603027,0.997742
55106797895,-0.0123291,0.0245361,-0.0602417,0.997803
55106820445,-0.0122681,0.024292,-0.0602417,0.997803
55106842892,-0.012207,0.024231,-0.0602417,0.997803
55106857953,-0.012207,0.024231,-0.0602417,0.997803
55106880364,-0.012207,0.024231,-0.0602417,0.997803
55106902856,-0.0122681,0.0244141,-0.0602417,0.997803
55106917900,-0.0123291,0.0246582,-0.0602417,0.997803
55106940351,-0.0123291,0.0246582,-0.0602417,0.997803
55106962926,-0.0123291,0.0246582,-0.0602417,0.997803
55106977937,-0.0123291,0.0247192,-0.0602417,0.997803
55107000361,-0.0124512,0.0244751,-0.0602417,0.997803
55107023000,-0.0125732,0.024353,-0.0602417,0.997803
55107037953,-0.0125732,0.024353,-0.0602417,0.997803
55107060329,-0.0125732,0.024292,-0.0602417,0.997803
55107082893,-0.0125732,0.024292,-0.0602417,0.997803
55107097913,-0.0125732,0.024292,-0.0602417,0.997803
55107120422,-0.0126343,0.0244751,-0.0602417,0.997803
55107142897,-0.0126343,0.0244751,-0.0602417,0.997803
55107157965,-0.0126343,0.0244751,-0.0602417,0.997803
55107180336,-0.0126343,0.0244751,-0.0602417,0.997803
55107202978,-0.0126343,0.0244751,-0.0602417,0.997803
55107217874,-0.0126343,0.0244751,-0.0602417,0.997803
55107240420,-0.0126343,0.0244751,-0.0602417,0.997803
55107262992,-0.0126343,0.0244751,-0.0602417,0.997803
55107277884,-0.0126343,0.0244751,-0.0602417,0.997803
55107300424,-0.0125732,0.0244751,-0.0602417,0.997803
55107322929,-0.0125732,0.0244751,-0.0602417,0.997803
55107337993,-0.0125732,0.0244751,-0.0602417,0.997803
55107360407,-0.0125732,0.0244751,-0.0602417,0.997803
55107382957,-0.0125732,0.0244751,-0.0602417,0.997803
55107397926,-0.0125732,0.0244751,-0.0602417,0.997803
55107420454,-0.0125732,0.0244751,-0.0602417,0.997803
55107442970,-0.0125732,0.0244751,-0.0602417,0.997803
55107457928,-0.0125732,0.0244751,-0.0602417,0.997803
55107480454,-0.0125732,0.0244751,-0.0602417,0.997803
55107503012,-0.0125732,0.0244751,-0.0602417,0.997803
55107517968,-0.0125732,0.0244751,-0.0602417,0.997803
55107540377,-0.0125732,0.0244751,-0.0602417,0.997803
55107570380,-0.0125732,0.0244751,-0.0602417,0.997803
55107577964,-0.0125732,0.0244751,-0.0602417,0.997803
55107600398,-0.0126343,0.0244751,-0.0602417,0.997803
55107622986,-0.0126343,0.0244751,-0.0602417,0.997803
55107637968,-0.0126343,0.0244751,-0.0602417,0.997803
55107660308,-0.0126343,0.0244751,-0.0602417,0.997803
55107682914,-0.0126343,0.0244751,-0.0602417,0.997803
55107697931,-0.0126343,0.0244751,-0.0602417,0.997803
55107720442,-0.0126343,0.0244751,-0.0602417,0.997803
55107742921,-0.0126343,0.0244751,-0.0602417,0.997803
55107757914,-0.0126343,0.0244141,-0.0602417,0.997803
55107780404,-0.0125732,0.0244141,-0.0602417,0.997803
55107802949,-0.0125732,0.0244141,-0.0602417,0.997803
55107817930,-0.0125732,0.0244141,-0.0602417,0.997803
55107840425,-0.0125732,0.0244141,-0.0602417,0.997803
55107862976,-0.0125732,0.0244141,-0.0602417,0.997803
55107877920,-0.0125732,0.0244141,-0.0602417,0.997803
55107900388,-0.0125732,0.0244141,-0.0602417,0.997803
55107922943,-0.0125732,0.0244141,-0.0602417,0.997803
55107937906,-0.0125732,0.0244141,-0.0602417,0.997803
55107960452,-0.0125732,0.0244141,-0.0602417,0.997803
55107982992,-0.0125732,0.0244141,-0.0602417,0.997803
55108005371,-0.0125732,0.0244141,-0.0602417,0.997803
55108020397,-0.0125732,0.0244141,-0.0602417,0.997803
55108042972,-0.0125732,0.0244141,-0.0602417,0.997803
55108065428,-0.0125732,0.0244141,-0.0602417,0.997803
55108080356,-0.0125732,0.024353,-0.0602417,0.997803
55108102888,-0.0125732,0.024353,-0.0602417,0.997803
55108125407,-0.0125732,0.024353,-0.0602417,0.997803
55108140411,-0.0125732,0.024353,-0.0602417,0.997803
55108163434,-0.0125732,0.024353,-0.0602417,0.997803
55108185414,-0.0125732,0.024353,-0.0602417,0.997803
55108200416,-0.0125732,0.024353,-0.0602417,0.997803
55108222958,-0.0125732,0.024353,-0.0602417,0.997803
55108245429,-0.0125732,0.024353,-0.0602417,0.997803
55108260397,-0.0125732,0.024353,-0.0602417,0.997803
55108282958,-0.0125732,0.024353,-0.0602417,0.997803
55108305416,-0.0125732,0.024353,-0.0602417,0.997803
55108327932,-0.0125732,0.024353,-0.0602417,0.997803
55108350971,-0.0125732,0.024353,-0.0602417,0.997803
55108365457,-0.0125732,0.024292,-0.0602417,0.997803
55108380377,-0.0125732,0.024353,-0.0602417,0.997803
55108402931,-0.0125732,0.024353,-0.0602417,0.997803
55108425440,-0.0125732,0.024353,-0.0602417,0.997803
55108440429,-0.0125732,0.024353,-0.0602417,0.997803
55108462917,-0.0125732,0.024353,-0.0602417,0.997803
55108485514,-0.0125732,0.024353,-0.0602417,0.997803
55108500441,-0.0125732,0.024353,-0.0602417,0.997803
55108522983,-0.0126343,0.024292,-0.0602417,0.997803
55108545436,-0.0125732,0.024292,-0.0602417,0.997803
55108560559,-0.0125732,0.024292,-0.0602417,0.997803
55108582921,-0.0125732,0.024292,-0.0602417,0.997803
55108605436,-0.0125732,0.024292,-0.0602417,0.997803
55108620447,-0.0125732,0.024292,-0.0602417,0.997803
55108642883,-0.0125732,0.024292,-0.0602417,0.997803
